DTS Sentinel unit serial number:	SN413079Multiplexer serial number:	ORYXHardware model number:	OX4-SRSoftware version number:	ORYX F/W v4.00 Oryx Data Collector v3.7.2.0data status	okinstallation	princeton_trtdifferential loss correction	single-endedforward channel	channel 1reverse channel	N/Adate	2019/09/11time	13:12:11forward acquisition time	60.00reverse acquisition time	0.00gamma	496.2192k internal	0.2295k external	0.2295temperature offset calibration	0.9976default loss term (dB/km)	0.3790temperature slope calibration	1.0000multiplexer offset coefficient	1.0000multiplexer slope coefficient	1.0000fibre end	0.00T internal ref (°C)	41.92T ext. ref 1 (°C)	0.77T ext. ref 2 (°C)	36.67length (m)	temperature (°C)	Stokes	anti-Stokes-747.200	-102.872	-0.205	-0.050
-746.185	-200.000	-0.003	0.423
-745.171	-58.282	0.252	-0.112
-744.156	-200.000	0.021	-0.106
-743.142	1.797	-0.007	-0.005
-742.127	271.461	0.186	0.335
-741.112	-200.000	-0.042	0.276
-740.098	-130.011	-0.102	-0.014
-739.083	-200.000	0.025	0.111
-738.069	-112.952	0.243	0.049
-737.054	800.000	0.057	-0.197
-736.039	-24.362	-0.362	0.220
-735.025	-64.904	0.479	0.198
-734.010	-200.000	0.045	-0.228
-732.996	800.000	-0.077	-0.227
-731.981	800.000	-0.025	-0.074
-730.966	177.422	0.064	-0.095
-729.952	-6.399	0.393	-0.274
-728.937	-67.796	0.089	-0.035
-727.923	-51.205	-0.213	-0.102
-726.908	-107.092	-0.030	0.007
-725.894	-200.000	-0.034	-0.161
-724.879	-200.000	0.017	0.149
-723.864	800.000	-0.047	-0.151
-722.850	-200.000	-0.070	0.379
-721.835	-200.000	0.023	-0.188
-720.821	-200.000	0.011	-0.161
-719.806	389.666	-0.062	-0.131
-718.791	-200.000	-0.030	-0.453
-717.777	76.983	-0.074	-0.080
-716.762	-62.203	-0.142	-0.061
-715.748	-136.129	-0.234	-0.028
-714.733	800.000	0.039	-0.109
-713.718	-200.000	0.027	0.296
-712.704	544.023	-0.134	-0.326
-711.689	-200.000	-0.053	-0.366
-710.675	330.510	0.119	-0.234
-709.660	-122.451	-0.156	-0.026
-708.645	-35.358	-0.345	0.192
-707.631	-8.480	-0.158	0.109
-706.616	-59.119	-0.060	-0.026
-705.602	46.528	-0.323	-0.306
-704.587	-116.011	-0.192	-0.036
-703.572	-70.543	0.208	0.080
-702.558	-45.042	0.097	0.049
-701.543	246.492	-0.122	0.210
-700.529	-54.753	-0.395	-0.182
-699.514	45.611	-0.109	-0.103
-698.499	-200.000	0.110	0.527
-697.485	303.027	-0.229	-0.433
-696.470	-130.406	0.342	0.047
-695.456	508.890	-0.055	0.130
-694.441	-162.116	-0.244	0.012
-693.426	800.000	-0.053	-0.157
-692.412	800.000	0.051	0.188
-691.397	800.000	-0.043	0.180
-690.383	450.377	0.051	0.116
-689.368	-200.000	-0.028	0.206
-688.354	134.693	-0.130	-0.172
-687.339	-200.000	0.017	-0.081
-686.324	-0.850	-0.451	-0.326
-685.310	-131.904	0.358	0.048
-684.295	49.183	-0.305	-0.293
-683.281	721.084	0.098	0.267
-682.266	78.939	-0.097	0.106
-681.251	-144.673	-0.389	-0.037
-680.237	-35.192	0.152	-0.084
-679.222	-67.581	0.139	0.056
-678.208	88.588	-0.235	0.266
-677.193	-113.473	-0.046	-0.009
-676.178	-103.163	0.157	-0.038
-675.164	3.479	0.146	0.109
-674.149	184.322	-0.180	0.272
-673.135	-73.287	-0.161	-0.060
-672.120	-200.000	0.000	-0.225
-671.105	43.970	0.178	0.166
-670.091	-103.088	-0.443	-0.107
-669.076	-25.640	-0.134	0.080
-668.062	-50.034	-0.190	-0.092
-667.047	74.593	-0.147	0.157
-666.032	-200.000	-0.003	-0.251
-665.018	202.640	-0.142	-0.223
-664.003	-200.000	-0.012	-0.307
-662.989	151.109	-0.218	0.302
-661.974	-87.203	-0.247	-0.077
-660.959	-109.681	-0.189	0.041
-659.945	-78.774	-0.323	0.112
-658.930	-168.097	-0.308	-0.012
-657.916	-27.689	-0.104	0.062
-656.901	45.020	-0.067	0.063
-655.886	338.421	0.114	-0.226
-654.872	-108.029	0.244	0.054
-653.857	-76.287	0.179	0.064
-652.843	66.934	0.380	0.394
-651.828	22.329	-0.168	0.140
-650.814	-116.639	-0.281	-0.053
-649.799	-200.000	0.078	-0.448
-648.784	-107.187	0.293	-0.066
-647.770	119.078	0.186	0.234
-646.755	206.334	0.200	-0.317
-645.741	800.000	-0.060	0.222
-644.726	-178.493	-0.463	0.011
-643.711	800.000	-0.070	0.201
-642.697	77.897	-0.054	0.059
-641.682	-11.018	0.370	-0.249
-640.668	-123.717	0.230	0.037
-639.653	66.197	0.202	-0.209
-638.638	505.609	-0.060	0.142
-637.624	-75.195	-0.099	-0.036
-636.609	800.000	-0.004	0.013
-635.595	80.100	-0.039	-0.043
-634.580	106.161	-0.262	-0.316
-633.565	-200.000	-0.000	0.336
-632.551	-173.718	-0.081	0.002
-631.536	10.390	0.084	-0.065
-630.522	98.470	-0.071	0.084
-629.507	-200.000	0.025	0.217
-628.492	800.000	0.083	0.290
-627.478	-64.926	0.163	0.067
-626.463	18.707	-0.292	-0.238
-625.449	146.899	0.108	-0.147
-624.434	141.678	-0.215	-0.290
-623.419	113.898	-0.120	0.148
-622.405	-200.000	-0.023	-0.226
-621.390	-72.228	-0.355	0.134
-620.376	83.122	0.079	-0.087
-619.361	-200.000	0.003	0.270
-618.346	-49.725	0.183	0.089
-617.332	-126.562	-0.258	0.039
-616.317	380.254	0.098	0.204
-615.303	-129.395	0.184	0.026
-614.288	-35.899	0.040	-0.022
-613.273	-6.504	0.160	0.111
-612.259	-101.829	0.239	0.059
-611.244	-200.000	-0.046	-0.458
-610.230	-57.473	0.109	0.048
-609.215	-123.000	-0.106	0.017
-608.201	327.101	-0.092	-0.179
-607.186	155.404	0.189	0.265
-606.171	2.138	-0.283	0.208
-605.157	-147.297	0.156	-0.013
-604.142	-43.291	-0.379	-0.195
-603.128	138.617	-0.127	0.170
-602.113	40.085	0.021	-0.019
-601.098	-200.000	-0.024	-0.313
-600.084	-67.605	-0.274	-0.109
-599.069	-177.119	0.081	-0.002
-598.055	-12.844	0.195	0.129
-597.040	-200.000	-0.011	-0.094
-596.025	-49.976	-0.034	0.016
-595.011	-80.409	0.164	-0.055
-593.996	100.009	-0.250	0.295
-592.982	-122.907	0.105	0.017
-591.967	-63.025	-0.375	-0.158
-590.952	-147.628	-0.497	0.042
-589.938	205.823	-0.049	0.078
-588.923	390.267	-0.076	-0.160
-587.909	-90.554	-0.116	0.034
-586.894	800.000	-0.057	-0.232
-585.879	-36.342	0.103	-0.056
-584.865	409.330	0.073	-0.158
-583.850	-200.000	0.087	-0.392
-582.836	276.004	-0.054	-0.098
-581.821	-200.000	0.026	-0.279
-580.806	430.086	-0.072	-0.158
-579.792	119.059	0.027	0.034
-578.777	-180.561	0.233	-0.005
-577.763	800.000	0.047	-0.154
-576.748	-200.000	0.051	0.241
-575.733	-15.126	0.209	-0.136
-574.719	262.533	-0.214	-0.377
-573.704	2.280	-0.115	-0.085
-572.690	169.451	0.191	0.277
-571.675	-81.787	0.124	-0.041
-570.661	-19.704	0.113	-0.071
-569.646	-73.958	0.138	-0.051
-568.631	-20.332	-0.089	0.055
-567.617	-141.125	0.193	0.020
-566.602	-101.996	-0.107	-0.026
-565.588	-200.000	0.027	0.172
-564.573	112.704	0.020	0.025
-563.558	337.311	0.131	-0.259
-562.544	-175.554	-0.087	0.002
-561.529	212.428	-0.256	0.409
-560.515	-16.834	0.062	0.040
-559.500	-150.807	0.148	0.011
-558.485	-16.917	-0.293	0.188
-557.471	-30.637	0.110	0.063
-556.456	800.000	0.112	-0.434
-555.442	-18.667	-0.199	-0.126
-554.427	800.000	0.014	-0.040
-553.412	538.575	-0.100	-0.240
-552.398	-93.166	-0.227	0.064
-551.383	-67.789	0.223	0.089
-550.369	800.000	-0.093	-0.333
-549.354	-111.170	0.055	0.012
-548.339	42.064	-0.370	0.340
-547.325	-133.306	0.382	-0.049
-546.310	800.000	-0.031	0.120
-545.296	391.445	-0.036	0.076
-544.281	-200.000	0.078	0.379
-543.266	178.521	-0.108	0.160
-542.252	384.624	-0.140	-0.292
-541.237	-200.000	-0.028	-0.431
-540.223	295.875	0.052	-0.097
-539.208	800.000	-0.057	0.183
-538.193	-79.241	0.289	0.099
-537.179	284.996	-0.017	-0.032
-536.164	-1.827	-0.115	-0.082
-535.150	-94.442	-0.153	-0.042
-534.135	800.000	0.032	-0.108
-533.121	137.919	0.075	-0.100
-532.106	70.693	0.123	-0.130
-531.091	110.376	-0.217	0.265
-530.077	-200.000	-0.037	-0.181
-529.062	-200.000	0.000	0.093
-528.048	136.997	-0.091	0.121
-527.033	-200.000	0.035	-0.180
-526.018	-194.585	0.243	0.002
-525.004	-162.424	0.043	0.002
-523.989	-200.000	-0.028	-0.252
-522.975	-200.000	-0.003	0.065
-521.960	-200.000	-0.040	-0.297
-520.945	508.831	-0.051	-0.120
-519.931	152.524	0.028	-0.039
-518.916	-88.477	0.272	-0.082
-517.902	-105.708	0.359	-0.082
-516.887	74.137	0.310	0.330
-515.872	-200.000	-0.001	0.351
-514.858	800.000	0.066	-0.220
-513.843	800.000	0.035	-0.135
-512.829	-200.000	-0.009	0.190
-511.814	-80.629	0.355	-0.120
-510.799	-115.652	0.185	-0.035
-509.785	-200.000	-0.022	-0.378
-508.770	-200.000	-0.021	-0.123
-507.756	-16.320	-0.096	-0.062
-506.741	-32.572	-0.300	-0.169
-505.726	-158.725	-0.191	-0.011
-504.712	270.518	0.012	0.021
-503.697	97.662	0.074	0.087
-502.683	30.578	0.277	0.240
-501.668	6.226	-0.140	0.105
-500.653	800.000	-0.036	0.110
-499.639	-200.000	0.026	-0.167
-498.624	-30.746	-0.492	-0.282
-497.610	315.947	0.120	-0.229
-496.595	122.950	0.122	-0.155
-495.581	277.503	0.081	0.145
-494.566	-200.000	0.027	0.250
-493.551	-60.519	-0.266	0.114
-492.537	61.431	0.221	-0.223
-491.522	-200.000	0.034	-0.256
-490.508	-200.000	-0.044	0.214
-489.493	162.151	0.120	-0.171
-488.478	185.105	-0.044	0.066
-487.464	98.859	-0.109	0.128
-486.449	-161.934	-0.312	0.016
-485.435	-200.000	0.022	-0.102
-484.420	-61.025	0.151	-0.065
-483.405	-200.000	-0.007	0.153
-482.391	-58.723	0.144	-0.063
-481.376	-170.470	0.134	-0.005
-480.362	-158.910	0.197	-0.011
-479.347	-164.943	0.381	-0.017
-478.332	-70.245	-0.278	0.107
-477.318	-88.142	-0.302	-0.092
-476.303	-31.433	0.229	0.130
-475.289	180.912	-0.037	0.055
-474.274	33.774	-0.131	-0.115
-473.259	800.000	0.068	0.257
-472.245	247.782	-0.176	0.301
-471.230	-200.000	0.014	-0.071
-470.216	12.735	-0.193	-0.151
-469.201	18.680	-0.068	0.055
-468.186	800.000	0.118	0.428
-467.172	337.106	0.050	0.098
-466.157	-200.000	-0.010	-0.264
-465.143	-200.000	0.020	-0.339
-464.128	800.000	-0.065	0.280
-463.113	86.820	0.094	-0.105
-462.099	-121.936	0.330	0.055
-461.084	-120.050	-0.260	0.045
-460.070	384.730	0.082	0.172
-459.055	98.518	-0.177	0.206
-458.040	35.598	0.172	-0.153
-457.026	-18.232	0.203	0.128
-456.011	-25.575	-0.180	0.107
-454.997	259.483	-0.221	0.385
-453.982	660.060	-0.089	0.233
-452.968	212.808	-0.092	-0.148
-451.953	144.836	-0.066	-0.089
-450.938	194.189	-0.040	0.062
-449.924	800.000	-0.033	0.109
-448.909	-39.142	0.055	0.029
-447.895	-26.014	0.205	0.122
-446.880	-106.528	0.128	-0.029
-445.865	-200.000	-0.028	0.333
-444.851	800.000	0.031	0.115
-443.836	4.863	-0.234	-0.174
-442.822	-34.938	-0.260	-0.143
-441.807	-94.216	0.148	-0.041
-440.792	-200.000	0.010	-0.200
-439.778	83.241	0.150	-0.165
-438.763	48.517	-0.238	0.225
-437.749	-78.023	0.079	-0.028
-436.734	-80.057	-0.148	0.050
-435.719	22.116	0.263	0.217
-434.705	-5.866	0.128	-0.088
-433.690	-200.000	-0.015	0.384
-432.676	-161.024	0.213	-0.011
-431.661	320.464	0.177	-0.340
-430.646	23.681	0.301	0.250
-429.632	-200.000	-0.010	-0.202
-428.617	800.000	0.035	0.150
-427.603	-200.000	-0.003	-0.229
-426.588	-191.767	-0.136	0.001
-425.573	-30.896	0.212	-0.121
-424.559	71.147	-0.162	0.170
-423.544	-11.677	0.103	0.068
-422.530	-200.000	-0.002	-0.227
-421.515	577.117	0.135	0.333
-420.500	146.111	-0.154	0.208
-419.486	105.637	-0.086	0.103
-418.471	-5.711	-0.238	0.165
-417.457	329.372	0.133	-0.257
-416.442	146.028	0.058	-0.078
-415.428	177.742	-0.157	0.231
-414.413	-200.000	0.026	-0.207
-413.398	188.315	-0.112	0.168
-412.384	800.000	0.061	0.206
-411.369	-139.914	-0.163	-0.017
-410.355	-109.691	0.085	0.018
-409.340	195.388	-0.087	0.134
-408.325	-145.947	-0.172	-0.015
-407.311	-111.979	0.273	0.056
-406.296	-108.463	-0.446	0.097
-405.282	3.425	-0.350	0.257
-404.267	-24.721	-0.073	0.044
-403.252	-142.121	0.119	-0.012
-402.238	800.000	-0.102	0.395
-401.223	116.199	-0.066	-0.081
-400.209	221.020	0.136	-0.221
-399.194	-38.661	-0.118	0.063
-398.179	177.154	0.088	0.129
-397.165	-80.502	0.105	0.035
-396.150	189.072	-0.105	-0.159
-395.136	480.399	-0.087	0.198
-394.121	211.313	-0.123	-0.195
-393.106	292.666	0.126	-0.232
-392.092	-200.000	0.016	0.071
-391.077	-200.000	-0.006	0.266
-390.063	-200.000	0.004	0.311
-389.048	133.672	-0.049	-0.064
-388.033	-81.103	0.181	0.060
-387.019	-43.472	0.406	-0.207
-386.004	-132.684	-0.316	0.041
-384.990	-103.789	0.213	0.050
-383.975	30.488	-0.128	0.110
-382.960	-20.025	-0.149	0.093
-381.946	-155.339	-0.148	0.010
-380.931	34.128	0.062	0.055
-379.917	-130.465	0.254	-0.035
-378.902	-84.706	0.297	-0.094
-377.888	-167.044	0.325	0.013
-376.873	-200.000	-0.009	-0.048
-375.858	281.108	0.073	-0.132
-374.844	-200.000	0.014	0.093
-373.829	-200.000	0.045	-0.246
-372.815	517.448	-0.073	-0.171
-371.800	52.321	-0.118	0.113
-370.785	50.984	0.139	-0.133
-369.771	81.653	0.292	-0.318
-368.756	636.175	0.073	-0.187
-367.742	-200.000	-0.046	0.206
-366.727	-47.754	-0.308	-0.151
-365.712	-11.303	0.326	0.216
-364.698	-200.000	-0.015	-0.250
-363.683	-94.522	0.165	-0.045
-362.669	33.453	-0.339	-0.296
-361.654	-89.835	-0.340	-0.100
-360.639	-154.947	0.366	0.024
-359.625	138.364	0.042	-0.055
-358.610	-200.000	0.010	0.263
-357.596	-24.414	-0.085	0.051
-356.581	-114.689	-0.206	-0.040
-355.566	-200.000	0.027	0.231
-354.552	-150.727	0.090	-0.007
-353.537	800.000	-0.044	0.151
-352.523	-60.742	0.334	0.142
-351.508	-200.000	-0.015	0.311
-350.493	-103.634	-0.120	-0.028
-349.479	-89.006	-0.128	-0.038
-348.464	395.654	0.061	-0.128
-347.450	-97.055	0.087	-0.023
-346.435	-16.540	-0.234	0.149
-345.420	214.326	0.037	-0.059
-344.406	-72.568	-0.428	0.159
-343.391	-62.290	-0.080	0.033
-342.377	800.000	-0.121	0.444
-341.362	-15.920	-0.089	0.057
-340.348	30.666	-0.349	-0.301
-339.333	67.544	-0.069	-0.071
-338.318	233.276	-0.089	0.147
-337.304	-89.934	0.163	-0.048
-336.289	102.044	-0.014	-0.017
-335.275	-36.323	0.151	0.082
-334.260	-49.901	0.136	0.065
-333.245	-4.213	0.281	0.196
-332.231	51.268	-0.091	0.087
-331.216	154.290	-0.236	-0.325
-330.202	-49.589	0.214	-0.102
-329.187	140.266	0.082	0.109
-328.172	-140.778	0.072	0.008
-327.158	50.041	-0.193	-0.183
-326.143	215.363	-0.050	0.079
-325.129	800.000	0.022	-0.070
-324.114	800.000	0.058	-0.205
-323.099	-42.985	0.176	0.090
-322.085	187.471	0.080	0.120
-321.070	696.848	-0.055	-0.145
-320.056	632.934	-0.133	-0.339
-319.041	794.705	0.004	-0.012
-318.026	800.000	-0.072	-0.217
-317.012	-200.000	0.025	0.145
-315.997	-200.000	0.011	-0.276
-314.983	-15.689	-0.252	-0.161
-313.968	-200.000	-0.032	-0.307
-312.953	-130.113	0.232	0.032
-311.939	420.371	0.089	-0.192
-310.924	123.381	-0.064	-0.080
-309.910	-200.000	0.006	0.111
-308.895	-200.000	0.049	-0.351
-307.880	121.163	-0.200	-0.250
-306.866	-77.146	-0.295	-0.103
-305.851	16.392	-0.379	-0.300
-304.837	-19.502	0.167	-0.104
-303.822	-200.000	-0.017	-0.077
-302.807	-99.072	-0.110	0.028
-301.793	-200.000	-0.041	0.367
-300.778	-79.881	-0.237	0.080
-299.764	-200.000	0.571	-0.001
-298.749	469.885	-0.090	-0.203
-297.735	-130.832	0.165	0.022
-296.720	-39.110	-0.085	0.045
-295.705	-200.000	0.024	-0.108
-294.691	-27.841	-0.121	0.071
-293.676	414.509	0.168	0.360
-292.662	-200.000	0.014	-0.080
-291.647	-145.462	-0.321	-0.029
-290.632	89.155	-0.121	-0.135
-289.618	-105.504	0.046	0.010
-288.603	-176.384	-0.080	0.002
-287.589	-57.165	-0.242	-0.107
-286.574	12.204	0.104	-0.080
-285.559	-47.357	0.116	-0.057
-284.545	-200.000	0.034	0.203
-283.530	-96.562	-0.173	-0.046
-282.516	78.909	-0.046	0.049
-281.501	-71.493	0.327	0.123
-280.486	-200.000	0.043	0.212
-279.472	416.703	-0.038	0.082
-278.457	-103.657	0.299	0.070
-277.443	85.262	0.164	0.180
-276.428	800.000	0.056	-0.192
-275.413	-200.000	0.002	0.387
-274.399	-26.679	0.118	-0.069
-273.384	-108.453	-0.277	-0.060
-272.370	-60.225	-0.344	-0.147
-271.355	-200.000	-0.017	-0.137
-270.340	58.898	-0.077	0.076
-269.326	-101.277	-0.233	0.057
-268.311	-200.000	0.060	0.289
-267.297	163.002	0.037	0.053
-266.282	-111.508	-0.169	-0.034
-265.267	-200.000	-0.022	-0.145
-264.253	-148.066	0.232	-0.019
-263.238	25.440	0.194	-0.162
-262.224	97.540	-0.066	0.076
-261.209	11.113	-0.087	-0.067
-260.195	-62.790	-0.193	-0.080
-259.180	800.000	-0.056	0.245
-258.165	-200.000	-0.023	0.393
-257.151	-7.992	-0.076	0.052
-256.136	81.416	-0.202	-0.219
-255.122	-139.792	0.119	-0.013
-254.107	172.778	-0.044	0.063
-253.092	-200.000	-0.010	0.379
-252.078	53.516	0.319	0.307
-251.063	-13.211	0.303	-0.197
-250.049	36.180	-0.216	0.191
-249.034	274.736	-0.155	0.275
-248.019	21.598	0.259	-0.211
-247.005	-197.978	0.184	-0.001
-245.990	29.053	0.158	0.134
-244.976	164.583	-0.140	0.197
-243.961	75.159	0.117	-0.124
-242.946	-200.000	0.002	-0.027
-241.932	-200.000	0.024	-0.343
-240.917	-20.868	-0.241	-0.148
-239.903	-60.278	-0.153	0.065
-238.888	45.274	0.095	-0.087
-237.873	151.375	-0.305	-0.417
-236.859	-126.537	-0.351	0.052
-235.844	-80.828	0.022	-0.007
-234.830	-64.720	-0.133	0.054
-233.815	402.186	0.098	-0.207
-232.800	525.873	0.123	-0.289
-231.786	110.013	-0.207	0.249
-230.771	299.904	0.133	0.246
-229.757	236.851	0.108	-0.179
-228.742	94.896	-0.082	0.093
-227.727	-88.414	0.151	0.045
-226.713	70.110	0.165	0.170
-225.698	-200.000	0.070	0.363
-224.684	800.000	-0.028	-0.106
-223.669	18.639	0.194	-0.155
-222.655	-38.816	0.134	0.071
-221.640	-17.005	-0.067	-0.042
-220.625	29.918	-0.158	-0.135
-219.611	10.474	-0.033	-0.025
-218.596	158.739	0.201	-0.279
-217.582	-200.000	-0.012	0.177
-216.567	-79.145	-0.190	0.065
-215.552	-151.595	-0.301	0.022
-214.538	-200.000	-0.003	-0.104
-213.523	-47.025	-0.285	0.139
-212.509	800.000	-0.109	0.326
-211.494	800.000	-0.188	0.532
-210.479	-104.791	0.116	-0.027
-209.465	381.128	0.039	0.079
-208.450	45.455	0.186	0.172
-207.436	108.840	-0.232	-0.278
-206.421	115.235	0.287	-0.351
-205.406	-85.353	0.389	0.121
-204.392	25.255	-0.182	-0.152
-203.377	-83.440	0.233	0.075
-202.363	203.234	-0.164	0.254
-201.348	-40.312	-0.058	0.030
-200.333	-200.000	0.067	-0.296
-199.319	800.000	-0.061	0.174
-198.304	800.000	0.061	0.213
-197.290	43.240	0.222	-0.203
-196.275	12.435	0.119	-0.092
-195.260	800.000	0.028	0.110
-194.246	800.000	-0.139	-0.390
-193.231	-60.543	-0.241	0.102
-192.217	-153.312	0.152	0.011
-191.202	-37.610	0.225	-0.120
-190.187	-72.456	-0.015	0.006
-189.173	735.694	0.167	0.448
-188.158	-181.429	0.202	0.004
-187.144	-200.000	-0.011	-0.460
-186.129	-200.000	-0.010	-0.064
-185.114	216.725	-0.136	-0.216
-184.100	63.560	-0.047	0.047
-183.085	-136.360	0.492	0.057
-182.071	-133.752	-0.172	-0.021
-181.056	104.715	-0.276	-0.325
-180.042	-200.000	-0.010	-0.095
-179.027	-126.714	0.425	0.063
-178.012	140.886	-0.142	0.188
-176.998	-5.230	0.128	-0.088
-175.983	602.249	-0.095	0.235
-174.969	58.711	0.133	-0.131
-173.954	17.995	-0.106	0.084
-172.939	26.155	0.107	-0.089
-171.925	800.000	0.046	0.187
-170.910	143.251	-0.159	0.212
-169.896	-38.728	-0.110	0.058
-168.881	-53.540	0.186	-0.085
-167.866	135.782	-0.111	-0.144
-166.852	42.617	-0.074	0.067
-165.837	-155.564	0.204	0.013
-164.823	-200.000	-0.017	0.236
-163.808	135.418	0.091	0.118
-162.793	2.307	0.075	0.054
-161.779	-100.375	0.085	0.021
-160.764	-47.389	0.097	-0.047
-159.750	567.308	0.021	-0.052
-158.735	-82.825	0.177	0.057
-157.720	-200.000	-0.053	0.294
-156.706	-41.988	0.082	-0.042
-155.691	73.873	-0.116	0.122
-154.677	-200.000	0.017	0.096
-153.662	-200.000	0.043	-0.243
-152.647	-100.503	-0.291	-0.072
-151.633	4.833	0.069	-0.051
-150.618	-91.566	0.114	-0.032
-149.604	-7.979	-0.359	-0.242
-148.589	-200.000	0.016	-0.127
-147.574	158.047	-0.095	-0.132
-146.560	-23.563	-0.030	-0.018
-145.545	-200.000	0.005	0.173
-144.531	4.943	0.311	-0.228
-143.516	-23.971	0.096	-0.057
-142.502	266.520	0.196	0.342
-141.487	-4.995	0.248	0.170
-140.472	-151.455	-0.146	0.011
-139.458	123.628	-0.196	-0.246
-138.443	-150.879	-0.098	-0.007
-137.429	724.673	-0.077	-0.205
-136.414	-200.000	0.036	-0.159
-135.399	800.000	0.110	0.373
-134.385	34.620	0.011	0.010
-133.370	646.956	-0.034	-0.086
-132.356	259.581	-0.105	0.180
-131.341	24.242	0.088	-0.073
-130.326	-200.000	-0.034	-0.217
-129.312	800.000	0.025	-0.087
-128.297	-200.000	0.000	0.020
-127.283	36.544	-0.125	0.111
-126.268	-200.000	-0.030	-0.484
-125.253	-69.208	-0.300	-0.115
-124.239	168.825	-0.076	-0.108
-123.224	-200.000	-0.024	0.176
-122.210	-200.000	0.019	0.237
-121.195	487.039	0.047	-0.108
-120.180	359.300	-0.083	0.166
-119.166	-65.657	0.112	-0.045
-118.151	-140.943	0.080	0.008
-117.137	200.717	0.075	0.116
-116.122	341.018	-0.156	-0.303
-115.107	-200.000	-0.010	-0.066
-114.093	89.588	0.145	-0.161
-113.078	-86.786	-0.197	0.060
-112.064	-104.088	-0.350	0.081
-111.049	-200.000	-0.024	0.176
-110.034	-45.150	-0.127	-0.063
-109.020	69.943	-0.186	-0.191
-108.005	-102.197	0.194	-0.046
-106.991	-200.000	-0.021	-0.410
-105.976	-84.033	-0.392	0.124
-104.962	-55.381	-0.153	0.068
-103.947	800.000	-0.088	0.318
-102.932	-60.636	0.204	0.086
-101.918	73.794	-0.052	-0.054
-100.903	241.644	0.132	-0.220
-99.889	231.544	-0.140	0.228
-98.874	205.793	0.119	-0.184
-97.859	-10.087	-0.132	0.087
-96.845	-122.256	-0.120	-0.020
-95.830	164.569	0.100	0.141
-94.816	800.000	0.082	-0.280
-93.801	800.000	0.075	0.248
-92.786	380.550	0.187	0.382
-91.772	-103.895	0.195	0.045
-90.757	-13.825	0.212	-0.137
-89.743	-200.000	0.095	0.529
-88.728	-200.000	-0.021	0.137
-87.713	-182.062	0.165	-0.003
-86.699	31.130	0.163	-0.139
-85.684	-117.219	0.274	-0.050
-84.670	112.065	0.250	0.301
-83.655	-18.571	0.091	0.056
-82.640	78.987	0.161	0.171
-81.626	-90.365	-0.279	0.081
-80.611	800.000	-0.020	0.069
-79.597	24.047	-0.103	-0.085
-78.582	-23.632	-0.158	0.094
-77.567	-162.666	-0.134	0.007
-76.553	134.811	0.208	-0.269
-75.538	46.361	-0.153	-0.142
-74.524	486.712	-0.173	-0.393
-73.509	-34.212	-0.084	0.046
-72.494	447.082	-0.026	0.058
-71.480	-200.000	0.008	0.086
-70.465	-64.078	-0.439	0.178
-69.451	70.769	-0.097	0.100
-68.436	-98.220	0.162	-0.041
-67.422	-200.000	0.010	0.301
-66.407	-200.000	-0.006	-0.096
-65.392	-200.000	-0.013	-0.278
-64.378	24.575	0.053	0.044
-63.363	-29.133	0.171	0.098
-62.349	-0.277	-0.208	-0.147
-61.334	0.661	-0.659	-0.469
-60.319	324.658	0.235	0.446
-59.305	-200.000	-0.085	-0.732
-58.290	800.000	0.171	0.645
-57.276	800.000	0.526	1.478
-56.261	-200.000	75.515	524.766
-55.246	547.141	1306.587	3111.235
-54.232	144.936	2553.915	3398.166
-53.217	118.368	2245.663	2756.686
-52.203	54.289	1682.055	1611.187
-51.188	45.961	1399.233	1288.258
-50.173	42.151	1352.156	1221.697
-49.159	59.933	1386.632	1362.602
-48.144	67.349	1405.331	1426.461
-47.130	46.253	1367.378	1260.519
-46.115	42.099	1351.148	1220.271
-45.100	41.975	1346.094	1214.909
-44.086	41.888	1343.611	1212.089
-43.071	41.763	1341.412	1209.301
-42.057	41.774	1338.727	1206.901
-41.042	41.801	1336.731	1205.218
-40.027	41.788	1335.493	1203.973
-39.013	41.739	1333.920	1202.210
-37.998	41.817	1331.595	1200.541
-36.984	41.798	1329.856	1198.809
-35.969	41.908	1327.717	1197.490
-34.954	42.054	1326.356	1197.088
-33.940	42.017	1324.695	1195.322
-32.925	41.999	1323.649	1194.225
-31.911	41.939	1322.251	1192.556
-30.896	42.003	1320.339	1191.168
-29.881	42.042	1319.016	1190.160
-28.867	42.079	1317.395	1188.868
-27.852	41.997	1315.775	1186.871
-26.838	42.072	1314.604	1186.213
-25.823	42.075	1312.701	1184.469
-24.809	41.977	1311.400	1182.668
-23.794	42.023	1309.940	1181.577
-22.779	42.084	1308.604	1180.683
-21.765	42.085	1307.572	1179.710
-20.750	42.073	1305.839	1178.029
-19.736	42.011	1304.572	1176.471
-18.721	41.904	1303.621	1174.943
-17.706	41.911	1302.305	1173.749
-16.692	41.845	1301.071	1172.204
-15.677	41.849	1299.654	1170.906
-14.663	41.924	1298.457	1170.220
-13.648	41.800	1297.663	1168.732
-12.633	41.829	1296.486	1167.795
-11.619	41.886	1295.219	1166.939
-10.604	41.894	1294.625	1166.403
-9.590	41.731	1293.808	1164.674
-8.575	41.836	1292.649	1164.195
-7.560	41.835	1291.500	1163.108
-6.546	41.784	1290.913	1162.234
-5.531	41.764	1289.699	1160.983
-4.517	41.854	1288.775	1160.626
-3.502	41.914	1288.207	1160.418
-2.487	41.936	1286.762	1159.196
-1.473	41.935	1283.382	1156.100
-0.458	40.911	1268.237	1136.559
0.556	35.721	1248.009	1093.337
1.571	31.641	1250.536	1072.146
2.586	30.529	1264.800	1077.833
3.600	29.107	1254.586	1060.845
4.615	20.661	1176.000	948.474
5.629	7.280	1090.491	811.339
6.644	1.101	1065.640	761.796
7.659	0.825	1061.996	757.741
8.673	0.627	1061.458	756.300
9.688	0.548	1060.066	754.848
10.702	1.176	1058.862	757.056
11.717	9.000	1071.250	805.240
12.731	20.238	1087.122	874.041
13.746	23.709	1090.821	894.454
14.761	23.063	1089.783	890.271
15.775	22.971	1089.013	889.101
16.790	22.678	1087.967	886.693
17.804	22.655	1087.515	886.133
18.819	22.625	1087.314	885.738
19.834	22.791	1086.370	885.726
20.848	22.775	1085.743	885.053
21.863	22.749	1085.760	884.859
22.877	22.853	1084.775	884.498
23.892	22.662	1083.889	882.745
24.907	22.714	1083.627	882.712
25.921	22.745	1082.474	881.852
26.936	22.603	1081.128	879.966
27.950	22.743	1079.217	879.030
28.965	22.538	1077.284	876.356
29.980	22.706	1075.613	875.758
30.994	22.721	1075.244	875.451
32.009	22.915	1073.418	874.851
33.023	22.565	1072.313	872.142
34.038	22.719	1071.553	872.204
35.053	22.859	1071.114	872.464
36.067	22.955	1069.699	871.705
37.082	22.807	1069.500	870.738
38.096	22.933	1068.853	870.753
39.111	23.043	1068.700	871.095
40.126	22.925	1066.569	868.703
41.140	22.517	1064.787	865.171
42.155	22.425	1063.367	863.490
43.169	22.445	1062.280	862.626
44.184	22.487	1061.554	862.164
45.199	22.357	1060.387	860.508
46.213	22.447	1059.799	860.391
47.228	22.633	1058.705	860.335
48.242	22.650	1057.931	859.714
49.257	22.669	1057.272	859.194
50.271	22.733	1056.411	858.731
51.286	22.842	1055.397	858.359
52.301	22.884	1054.278	857.581
53.315	22.780	1053.435	856.313
54.330	22.686	1052.458	854.985
55.344	22.715	1052.068	854.736
56.359	22.797	1050.808	854.035
57.374	22.557	1049.916	852.070
58.388	22.500	1049.239	851.172
59.403	22.439	1048.330	850.067
60.417	22.344	1047.733	849.045
61.432	22.461	1046.865	848.834
62.447	22.471	1046.535	848.539
63.461	22.596	1045.716	848.402
64.476	22.499	1044.470	846.847
65.490	22.436	1043.540	845.715
66.505	22.377	1043.262	845.133
67.520	22.507	1042.449	845.022
68.534	22.308	1041.143	842.936
69.549	22.051	1040.183	840.856
70.563	22.028	1039.305	839.960
71.578	22.079	1038.255	839.280
72.593	21.880	1037.432	837.591
73.607	22.044	1036.472	837.524
74.622	22.323	1036.907	839.131
75.636	22.456	1035.481	838.537
76.651	22.193	1034.661	836.548
77.666	22.106	1034.166	835.660
78.680	22.156	1033.454	835.247
79.695	22.223	1033.016	835.141
80.709	22.468	1032.035	835.433
81.724	22.385	1031.248	834.332
82.739	22.377	1030.644	833.731
83.753	22.835	1029.442	834.851
84.768	23.032	1028.754	835.150
85.782	23.060	1028.049	834.635
86.797	23.021	1026.999	833.527
87.812	22.849	1026.050	831.868
88.826	23.001	1025.102	831.745
89.841	22.952	1024.492	830.942
90.855	23.077	1022.999	830.248
91.870	23.037	1022.429	829.523
92.884	22.901	1020.877	827.555
93.899	22.842	1020.463	826.869
94.914	22.875	1019.609	826.257
95.928	22.810	1018.297	824.819
96.943	22.498	1017.452	822.605
97.957	22.502	1015.800	821.215
98.972	22.325	1014.568	819.322
99.987	22.505	1013.835	819.496
101.001	22.726	1013.042	819.808
102.016	22.649	1012.822	819.197
103.030	22.702	1011.400	818.222
104.045	22.448	1010.487	816.233
105.060	22.337	1009.937	815.205
106.074	22.401	1009.330	814.940
107.089	22.935	1008.681	816.812
108.103	22.878	1006.770	814.929
109.118	22.533	1005.389	812.148
110.133	22.515	1004.790	811.512
111.147	22.402	1003.513	809.886
112.162	22.193	1002.904	808.362
113.176	22.480	1001.804	808.724
114.191	22.435	1000.836	807.665
115.206	22.125	999.963	805.466
116.220	22.083	999.091	804.502
117.235	22.322	998.100	804.727
118.249	22.221	997.577	803.768
119.264	22.210	996.354	802.665
120.279	22.269	995.292	802.006
121.293	22.262	995.022	801.687
122.308	22.213	994.443	800.927
123.322	22.164	993.263	799.679
124.337	22.059	991.871	798.011
125.352	21.597	990.532	794.766
126.366	21.499	989.275	793.246
127.381	22.245	989.384	796.642
128.395	22.689	988.826	798.131
129.410	22.851	987.784	797.952
130.424	22.671	987.077	796.500
131.439	22.783	986.001	796.067
132.454	22.738	985.086	795.052
133.468	22.685	984.020	793.884
134.483	22.885	983.463	794.266
135.497	23.105	982.405	794.328
136.512	23.032	981.582	793.265
137.527	23.065	980.973	792.848
138.541	23.119	980.180	792.379
139.556	23.111	978.798	791.157
140.570	23.258	978.486	791.495
141.585	23.066	977.764	789.983
142.600	22.947	976.599	788.440
143.614	23.221	975.999	789.108
144.629	23.269	975.167	788.577
145.643	23.127	973.937	786.880
146.658	23.033	972.372	785.129
147.673	22.882	971.532	783.712
148.687	22.744	970.497	782.198
149.702	22.749	969.229	781.125
150.716	22.833	968.237	780.628
151.731	22.855	967.885	780.374
152.746	23.136	967.106	780.917
153.760	23.280	966.251	780.794
154.775	23.188	966.077	780.178
155.789	23.195	964.996	779.266
156.804	23.185	964.090	778.420
157.819	23.112	963.413	777.488
158.833	23.304	962.495	777.521
159.848	23.297	961.491	776.609
160.862	23.174	959.972	774.776
161.877	23.121	959.446	774.048
162.892	23.191	958.603	773.609
163.906	23.096	957.424	772.174
164.921	23.209	955.967	771.423
165.935	23.168	955.403	770.720
166.950	23.266	954.604	770.434
167.964	23.044	954.314	769.167
168.979	22.906	953.241	767.634
169.994	22.929	951.893	766.580
171.008	23.183	951.859	767.586
172.023	23.343	950.581	767.179
173.037	22.949	949.520	764.553
174.052	22.804	948.759	763.244
175.067	22.888	948.069	762.987
176.081	22.992	947.492	762.902
177.096	22.866	946.842	761.769
178.110	22.696	945.206	759.651
179.125	22.575	944.597	758.575
180.140	22.682	944.238	758.680
181.154	22.693	944.255	758.675
182.169	22.966	944.390	759.887
183.183	23.142	943.795	760.099
184.198	23.125	942.457	758.883
185.213	22.987	941.743	757.646
186.227	23.193	941.018	757.879
187.242	23.182	940.791	757.584
188.256	23.225	939.732	756.846
189.271	23.268	938.984	756.359
190.286	22.971	938.008	754.239
191.300	22.411	936.504	750.577
192.315	21.626	934.828	745.825
193.329	21.575	934.482	745.266
194.344	22.315	935.270	748.980
195.359	22.958	935.194	751.588
196.373	23.102	934.559	751.627
197.388	23.023	933.659	750.501
198.402	23.040	932.985	749.963
199.417	23.068	932.203	749.386
200.432	22.687	931.665	747.273
201.446	22.490	930.945	745.797
202.461	22.655	929.772	745.487
203.475	22.078	927.756	741.371
204.490	21.050	927.049	736.402
205.504	21.914	927.208	740.110
206.519	22.678	927.041	743.131
207.534	22.722	926.570	742.875
208.548	23.129	926.697	744.624
209.563	22.847	925.825	742.673
210.577	22.806	924.897	741.689
211.592	23.260	924.514	743.224
212.607	23.337	923.436	742.611
213.621	23.274	923.090	742.006
214.636	23.277	922.157	741.200
215.650	23.336	921.569	740.911
216.665	23.381	920.869	740.471
217.680	23.188	919.908	738.825
218.694	22.704	918.798	735.853
219.709	22.807	917.996	735.573
220.723	23.032	917.573	736.107
221.738	23.107	917.307	736.138
222.753	23.047	916.554	735.222
223.767	23.146	916.310	735.371
224.782	23.305	915.994	735.711
225.796	23.405	915.212	735.436
226.811	22.758	913.382	731.218
227.826	22.111	912.344	727.645
228.840	22.349	911.735	728.078
229.855	22.284	911.315	727.409
230.869	22.062	909.922	725.317
231.884	22.362	910.140	726.665
232.899	23.073	910.519	729.841
233.913	22.996	909.669	728.779
234.928	22.980	908.915	728.044
235.942	22.941	908.457	727.452
236.957	22.572	907.284	724.931
237.972	22.653	906.730	724.756
238.986	22.785	906.252	724.853
240.001	22.841	905.547	724.452
241.015	22.925	905.067	724.350
242.030	22.895	904.823	723.968
243.045	23.069	904.382	724.262
244.059	23.216	904.022	724.513
245.074	22.988	902.682	722.443
246.088	22.606	901.917	720.206
247.103	22.853	901.590	720.888
248.117	23.556	901.527	723.646
249.132	23.858	901.058	724.434
250.147	23.763	900.557	723.582
251.161	23.925	899.784	723.554
252.176	23.837	899.533	722.930
253.190	23.900	899.306	722.940
254.205	24.085	898.414	722.912
255.220	23.928	898.360	722.165
256.234	23.850	897.445	721.050
257.249	23.789	896.383	719.886
258.263	23.874	895.692	719.613
259.278	23.875	895.220	719.172
260.293	23.911	894.393	718.589
261.307	23.837	893.450	717.471
262.322	23.637	892.768	716.053
263.336	22.825	891.402	711.623
264.351	21.952	888.861	706.018
265.366	21.944	888.313	705.488
266.380	22.981	889.454	710.506
267.395	23.531	889.195	712.447
268.409	23.377	888.711	711.378
269.424	23.680	887.738	711.750
270.439	23.758	887.016	711.418
271.453	23.822	886.664	711.331
272.468	24.048	886.264	711.850
273.482	24.054	885.718	711.374
274.497	23.625	884.491	708.612
275.512	23.352	883.219	706.441
276.526	23.742	883.612	708.249
277.541	23.911	882.907	708.294
278.555	23.640	882.223	706.604
279.570	23.467	881.271	705.091
280.585	23.745	880.802	705.758
281.599	23.668	880.046	704.785
282.614	22.946	878.721	700.801
283.628	22.953	878.399	700.510
284.643	23.400	878.325	702.157
285.657	23.136	876.658	699.720
286.672	22.716	876.107	697.559
287.687	23.318	876.032	699.817
288.701	23.367	875.538	699.553
289.716	23.087	874.395	697.474
290.730	23.052	873.678	696.702
291.745	22.634	873.106	694.536
292.760	23.111	873.059	696.317
293.774	23.980	873.401	699.948
294.789	24.296	873.218	700.982
295.803	24.458	872.346	700.856
296.818	24.308	871.911	699.856
297.833	23.849	870.425	696.803
298.847	23.701	869.993	695.814
299.862	24.109	869.737	697.148
300.876	24.253	869.523	697.475
301.891	24.239	868.769	696.754
302.906	23.685	867.849	693.794
303.920	23.873	867.533	694.211
304.935	24.366	866.957	695.613
305.949	24.241	866.450	694.660
306.964	23.919	865.673	692.718
307.979	23.986	865.606	692.864
308.993	24.284	865.591	693.953
310.008	24.498	864.346	693.726
311.022	24.131	863.504	691.561
312.037	24.008	862.969	690.596
313.052	23.817	861.872	688.917
314.066	22.968	860.228	684.257
315.081	22.609	859.592	682.299
316.095	23.576	860.039	686.336
317.110	23.996	860.088	687.940
318.125	23.222	858.363	683.510
319.139	22.134	856.752	677.974
320.154	22.008	856.493	677.222
321.168	23.020	856.636	681.176
322.183	23.595	856.952	683.584
323.197	23.831	856.635	684.179
324.212	24.108	856.033	684.704
325.227	24.102	855.660	684.321
326.241	23.912	854.790	682.835
327.256	23.825	854.319	682.065
328.270	23.799	853.647	681.368
329.285	23.577	852.716	679.714
330.300	23.420	851.841	678.357
331.314	23.698	851.779	679.309
332.329	24.157	851.648	680.899
333.343	24.193	851.221	680.635
334.358	24.084	850.655	679.705
335.373	24.265	850.253	680.015
336.387	24.554	850.461	681.224
337.402	24.473	850.451	680.849
338.416	24.557	849.885	680.656
339.431	24.578	849.450	680.324
340.446	24.773	849.181	680.793
341.460	24.603	848.648	679.657
342.475	24.458	847.975	678.506
343.489	24.432	847.913	678.299
344.504	24.767	847.281	679.004
345.519	24.996	846.863	679.481
346.533	24.951	846.466	678.931
347.548	24.958	846.079	678.585
348.562	24.989	845.223	677.956
349.577	24.838	844.815	676.999
350.592	24.962	843.774	676.573
351.606	24.872	843.204	675.715
352.621	24.654	842.804	674.513
353.635	24.630	841.917	673.653
354.650	24.114	840.524	670.536
355.665	22.992	838.936	664.990
356.679	23.321	838.878	666.125
357.694	24.090	838.541	668.686
358.708	23.807	837.645	666.852
359.723	24.294	837.564	668.553
360.738	24.649	837.323	669.632
361.752	24.606	836.688	668.906
362.767	24.958	836.423	669.952
363.781	25.229	836.215	670.740
364.796	25.398	835.763	670.949
365.810	25.407	835.064	670.361
366.825	25.363	834.996	670.083
367.840	24.948	834.229	667.860
368.854	24.430	833.573	665.347
369.869	24.593	833.176	665.578
370.883	24.802	832.265	665.566
371.898	24.535	832.004	664.306
372.913	24.664	831.673	664.464
373.927	24.768	830.976	664.235
374.942	24.942	830.457	664.408
375.956	25.043	830.349	664.637
376.971	25.125	830.105	664.686
377.986	25.208	829.922	664.787
379.000	25.148	828.977	663.750
380.015	25.025	828.294	662.690
381.029	25.162	827.636	662.612
382.044	25.095	827.701	662.355
383.059	25.241	826.646	661.994
384.073	25.221	826.113	661.435
385.088	25.158	825.489	660.644
386.102	25.236	824.613	660.171
387.117	25.017	824.229	659.000
388.132	24.721	823.205	657.036
389.146	24.315	822.101	654.605
390.161	24.562	822.123	655.473
391.175	24.831	822.235	656.491
392.190	24.545	821.309	654.642
393.205	23.319	818.854	648.148
394.219	22.026	816.952	641.859
395.234	21.803	817.031	641.051
396.248	23.264	818.645	647.610
397.263	24.781	819.143	653.491
398.278	24.793	818.845	653.239
399.292	24.559	818.022	651.671
400.307	24.553	817.598	651.253
401.321	24.681	817.367	651.479
402.336	25.197	817.079	653.069
403.350	25.467	817.152	654.054
404.365	25.645	817.203	654.687
405.380	26.051	816.551	655.579
406.394	26.041	815.876	654.945
407.409	25.892	815.487	654.032
408.423	25.914	815.154	653.786
409.438	25.979	814.527	653.462
410.453	25.918	814.227	652.945
411.467	25.885	813.914	652.515
412.482	25.866	813.387	651.967
413.496	26.076	812.899	652.279
414.511	25.910	812.718	651.475
415.526	25.885	812.383	651.057
416.540	25.791	811.688	650.104
417.555	25.504	810.688	648.211
418.569	25.753	810.237	648.691
419.584	25.627	809.664	647.720
420.599	25.433	809.375	646.733
421.613	90.690	1254.224	1350.093
422.628	77.766	1319.068	1350.217
