DTS Sentinel unit serial number:	SN413079Multiplexer serial number:	ORYXHardware model number:	OX4-SRSoftware version number:	ORYX F/W v4.00 Oryx Data Collector v3.7.2.0data status	okinstallation	princeton_trtdifferential loss correction	single-endedforward channel	channel 1reverse channel	N/Adate	2019/09/19time	06:42:35forward acquisition time	60.00reverse acquisition time	0.00gamma	496.2192k internal	0.2342k external	0.2342temperature offset calibration	1.0018default loss term (dB/km)	0.3790temperature slope calibration	1.0000multiplexer offset coefficient	1.0000multiplexer slope coefficient	1.0000fibre end	0.00T internal ref (°C)	19.00T ext. ref 1 (°C)	0.57T ext. ref 2 (°C)	12.72length (m)	temperature (°C)	Stokes	anti-Stokes-747.200	86.830	-0.086	-0.095
-746.185	800.000	0.036	0.154
-745.171	-30.322	-0.183	0.104
-744.156	-131.063	0.102	0.014
-743.142	100.177	-0.161	-0.187
-742.127	293.068	-0.065	-0.119
-741.112	126.331	0.164	-0.208
-740.098	-200.000	-0.016	0.165
-739.083	800.000	0.113	0.388
-738.069	-140.213	0.110	0.012
-737.054	-71.630	0.194	-0.072
-736.039	25.332	-0.240	0.200
-735.025	-145.630	0.401	-0.036
-734.010	-111.816	-0.258	-0.052
-732.996	-19.119	0.066	-0.041
-731.981	-79.545	0.108	-0.037
-730.966	800.000	-0.110	-0.321
-729.952	139.273	-0.247	-0.325
-728.937	-29.459	-0.304	-0.174
-727.923	421.967	0.115	0.247
-726.908	800.000	0.016	0.054
-725.894	272.804	-0.095	0.168
-724.879	-57.245	-0.190	0.084
-723.864	-200.000	-0.012	-0.190
-722.850	-4.757	-0.375	0.259
-721.835	-200.000	-0.011	0.066
-720.821	-154.071	-0.245	0.017
-719.806	-7.628	-0.390	-0.264
-718.791	-200.000	0.051	0.268
-717.777	-200.000	-0.044	0.289
-716.762	800.000	0.095	0.280
-715.748	800.000	0.073	-0.255
-714.733	107.239	-0.299	-0.355
-713.718	-200.000	-0.012	0.155
-712.704	-45.619	-0.196	-0.097
-711.689	-81.941	-0.162	-0.053
-710.675	45.079	0.299	-0.275
-709.660	-23.888	-0.090	-0.054
-708.645	53.923	0.189	0.182
-707.631	800.000	-0.109	-0.324
-706.616	-26.835	-0.252	0.147
-705.602	800.000	0.021	0.091
-704.587	89.662	-0.182	0.203
-703.572	77.545	0.148	-0.157
-702.558	-200.000	0.030	0.179
-701.543	22.882	0.250	0.205
-700.529	800.000	0.071	0.237
-699.514	-85.891	0.480	-0.149
-698.499	26.131	0.053	0.044
-697.485	800.000	0.084	-0.250
-696.470	304.713	-0.065	-0.121
-695.456	21.874	-0.141	-0.115
-694.441	315.728	-0.213	-0.402
-693.426	-57.201	0.461	0.203
-692.412	800.000	-0.054	0.185
-691.397	18.421	-0.345	0.275
-690.383	-18.557	-0.149	-0.093
-689.368	-76.852	0.299	-0.104
-688.354	-200.000	-0.019	-0.233
-687.339	-200.000	-0.043	0.232
-686.324	311.947	0.194	0.363
-685.310	-102.840	-0.212	0.050
-684.295	48.757	-0.139	-0.130
-683.281	72.375	-0.085	-0.088
-682.266	399.342	0.114	-0.239
-681.251	-200.000	-0.029	-0.183
-680.237	39.305	-0.155	0.139
-679.222	381.998	-0.164	0.337
-678.208	44.742	-0.445	-0.409
-677.193	1.939	-0.095	-0.069
-676.178	-200.000	0.066	-0.341
-675.164	11.063	-0.466	0.356
-674.149	229.157	-0.057	-0.093
-673.135	217.988	-0.091	-0.145
-672.120	308.465	-0.068	0.127
-671.105	27.150	-0.221	0.185
-670.091	-63.958	0.115	0.047
-669.076	59.657	-0.144	-0.142
-668.062	-74.802	-0.076	0.027
-667.047	622.822	0.028	-0.072
-666.032	-200.000	0.014	-0.079
-665.018	630.198	0.166	-0.420
-664.003	-43.127	-0.225	-0.114
-662.989	269.531	0.036	0.063
-661.974	-55.581	-0.098	-0.044
-660.959	-20.038	0.103	-0.063
-659.945	374.337	-0.068	0.137
-658.930	-57.804	-0.339	-0.148
-657.916	30.909	0.385	0.329
-656.901	157.004	0.061	0.084
-655.886	-40.412	-0.127	-0.066
-654.872	-200.000	0.013	-0.113
-653.857	174.744	-0.098	0.142
-652.843	722.217	-0.019	0.049
-651.828	3.423	-0.271	0.197
-650.814	-17.253	-0.080	0.050
-649.799	194.922	-0.040	-0.060
-648.784	-200.000	-0.018	0.294
-647.770	383.520	0.153	0.313
-646.755	-16.338	-0.251	-0.159
-645.741	-124.163	-0.088	-0.014
-644.726	166.569	-0.141	0.199
-643.711	455.272	0.150	-0.333
-642.697	-200.000	0.052	-0.337
-641.682	146.745	-0.203	-0.273
-640.668	309.792	-0.119	0.223
-639.653	37.340	-0.021	-0.019
-638.638	33.619	0.066	0.057
-637.624	338.761	-0.177	-0.343
-636.609	-200.000	-0.007	0.152
-635.595	-22.966	0.237	-0.142
-634.580	71.929	0.144	-0.149
-633.565	-69.063	-0.213	0.082
-632.551	173.676	-0.028	0.041
-631.536	13.393	0.243	-0.188
-630.522	-44.103	0.355	0.178
-629.507	-47.371	-0.125	-0.061
-628.492	1.840	0.215	-0.155
-627.478	-200.000	-0.005	0.166
-626.463	626.350	-0.029	-0.072
-625.449	-200.000	-0.007	-0.190
-624.434	-42.802	-0.183	0.093
-623.419	428.861	0.114	-0.246
-622.405	-200.000	-0.227	-0.001
-621.390	151.742	0.105	0.143
-620.376	-111.737	0.128	0.026
-619.361	171.758	-0.081	0.116
-618.346	-19.626	0.095	0.058
-617.332	-200.000	0.014	-0.370
-616.317	18.165	-0.123	-0.098
-615.303	-200.000	-0.010	0.126
-614.288	800.000	-0.118	0.377
-613.273	-200.000	-0.005	0.234
-612.259	31.114	-0.253	0.216
-611.244	-200.000	-0.019	0.091
-610.230	315.920	-0.070	0.132
-609.215	-200.000	0.018	-0.279
-608.201	152.575	-0.071	-0.097
-607.186	-51.105	0.159	0.074
-606.171	35.626	0.060	-0.053
-605.157	51.927	0.145	0.138
-604.142	-135.851	-0.223	-0.026
-603.128	-139.109	-0.093	0.010
-602.113	-200.000	-0.037	-0.190
-601.098	7.173	-0.074	-0.055
-600.084	8.496	0.078	0.058
-599.069	106.202	-0.163	0.192
-598.055	-20.274	-0.194	-0.119
-597.040	159.191	-0.094	-0.130
-596.025	-108.106	-0.386	-0.083
-595.011	205.368	0.206	-0.319
-593.996	-149.535	0.245	0.019
-592.982	75.739	0.149	-0.157
-591.967	-23.860	0.130	0.077
-590.952	264.212	-0.193	-0.334
-589.938	164.009	0.258	-0.361
-588.923	800.000	-0.054	-0.202
-587.909	800.000	0.051	-0.169
-586.894	-90.977	-0.188	-0.054
-585.879	-91.680	-0.280	0.079
-584.865	800.000	0.013	-0.035
-583.850	-200.000	-0.004	-0.254
-582.836	-25.627	-0.197	0.115
-581.821	89.361	0.160	-0.178
-580.806	106.062	0.152	-0.179
-579.792	-1.276	-0.085	-0.060
-578.777	-16.796	0.096	-0.060
-577.763	190.188	0.104	0.156
-576.748	-200.000	-0.009	-0.128
-575.733	36.243	-0.313	-0.274
-574.719	800.000	-0.022	0.084
-573.704	-110.456	0.180	0.037
-572.690	-200.000	0.007	0.518
-571.675	-200.000	-0.020	0.267
-570.661	-129.466	0.168	0.023
-569.646	-200.000	0.005	0.094
-568.631	-165.388	-0.231	-0.010
-567.617	159.188	0.065	-0.090
-566.602	-200.000	0.005	0.524
-565.588	360.945	-0.201	-0.401
-564.573	-146.938	-0.026	-0.002
-563.558	-200.000	-0.014	0.225
-562.544	-105.839	0.077	-0.017
-561.529	-63.532	-0.232	-0.095
-560.515	-50.420	-0.264	0.124
-559.500	-1.527	0.033	-0.023
-558.485	24.140	-0.160	-0.131
-557.471	134.942	0.066	-0.085
-556.456	-6.857	0.345	-0.233
-555.442	-200.000	0.010	-0.204
-554.427	-159.667	-0.165	0.009
-553.412	157.699	-0.194	-0.268
-552.398	68.153	-0.046	0.047
-551.383	58.898	0.195	-0.190
-550.369	-48.833	-0.173	-0.082
-549.354	-75.863	-0.115	0.040
-548.339	-41.504	-0.364	0.186
-547.325	211.165	-0.073	-0.114
-546.310	-99.518	-0.173	-0.043
-545.296	-4.826	0.159	0.109
-544.281	175.217	0.116	0.167
-543.266	-82.325	0.131	-0.042
-542.252	800.000	-0.059	-0.208
-541.237	-60.728	-0.083	0.035
-540.223	-200.000	0.084	0.456
-539.208	-14.091	-0.264	0.169
-538.193	173.501	0.009	0.013
-537.179	197.705	-0.122	-0.185
-536.164	-14.138	0.193	-0.124
-535.150	239.535	-0.030	0.049
-534.135	29.708	0.263	-0.223
-533.121	-159.108	0.349	-0.020
-532.106	474.175	-0.140	0.313
-531.091	800.000	-0.071	0.281
-530.077	189.477	0.044	-0.066
-529.062	800.000	-0.092	0.308
-528.048	-200.000	-0.010	0.098
-527.033	-106.967	0.166	-0.037
-526.018	202.544	0.091	0.140
-525.004	-105.361	-0.024	-0.005
-523.989	-200.000	0.017	0.142
-522.975	-200.000	0.013	-0.166
-521.960	305.487	-0.027	0.050
-520.945	-47.777	0.169	0.081
-519.931	-166.570	0.510	0.021
-518.916	-102.425	-0.135	-0.032
-517.902	66.260	0.049	0.050
-516.887	800.000	-0.049	0.173
-515.872	143.616	-0.137	-0.181
-514.858	-200.000	0.028	0.321
-513.843	-2.553	-0.081	0.056
-512.829	582.764	0.106	0.258
-511.814	-109.964	0.261	0.054
-510.799	800.000	0.101	-0.315
-509.785	-2.521	0.225	-0.157
-508.770	-77.634	-0.109	-0.037
-507.756	40.632	0.137	0.122
-506.741	-14.591	-0.311	-0.198
-505.726	-23.239	0.090	-0.054
-504.712	800.000	-0.013	0.047
-503.697	191.534	-0.056	-0.084
-502.683	32.553	-0.204	-0.175
-501.668	294.513	0.141	0.256
-500.653	87.971	-0.149	0.164
-499.639	-132.470	0.121	0.015
-498.624	65.846	-0.147	-0.148
-497.610	-68.380	0.120	-0.046
-496.595	355.366	0.115	0.227
-495.581	-200.000	-0.023	0.266
-494.566	-76.873	-0.313	-0.109
-493.551	-7.854	-0.209	0.140
-492.537	-200.000	-0.048	0.236
-491.522	-4.921	-0.125	-0.086
-490.508	315.698	0.052	0.098
-489.493	-200.000	-0.018	-0.287
-488.478	-95.350	-0.287	-0.076
-487.464	800.000	-0.047	0.163
-486.449	800.000	0.083	0.263
-485.435	-109.379	0.285	0.060
-484.420	-105.690	-0.204	0.046
-483.405	-70.146	0.289	-0.109
-482.391	-68.630	0.312	0.120
-481.376	32.894	0.207	-0.178
-480.362	-79.659	0.066	0.022
-479.347	279.700	-0.065	0.114
-478.332	-24.071	0.263	-0.156
-477.318	-200.000	-0.024	-0.342
-476.303	-81.117	-0.279	-0.091
-475.289	-68.018	-0.222	0.086
-474.274	-188.433	0.322	0.004
-473.259	-71.399	-0.078	-0.029
-472.245	681.977	0.081	-0.210
-471.230	-200.000	0.011	-0.084
-470.216	-87.140	-0.261	0.079
-469.201	-130.410	0.232	0.031
-468.186	52.152	-0.418	-0.395
-467.172	800.000	-0.106	0.337
-466.157	-13.220	0.204	0.131
-465.143	-200.000	-0.022	0.213
-464.128	-200.000	-0.016	0.159
-463.113	25.204	-0.211	-0.173
-462.099	-141.721	0.225	-0.022
-461.084	-200.000	0.045	0.380
-460.070	791.052	0.024	-0.064
-459.055	-15.158	-0.309	-0.196
-458.040	-71.947	0.097	0.036
-457.026	-25.612	0.300	-0.175
-456.011	-154.123	-0.177	0.012
-454.997	7.504	-0.151	0.112
-453.982	-133.354	-0.284	0.035
-452.968	-124.080	0.090	-0.014
-451.953	3.999	0.132	0.096
-450.938	-94.248	0.135	0.037
-449.924	800.000	-0.031	0.131
-448.909	72.906	-0.232	0.240
-447.895	84.648	-0.097	0.105
-446.880	-200.000	-0.022	0.357
-445.865	94.537	0.204	-0.230
-444.851	800.000	0.084	-0.236
-443.836	200.356	0.138	-0.209
-442.822	10.247	0.127	0.096
-441.807	-90.670	-0.247	-0.070
-440.792	-130.340	-0.220	0.030
-439.778	-63.667	0.168	0.068
-438.763	289.737	-0.138	-0.248
-437.749	-200.000	-0.065	-0.317
-436.734	42.146	0.137	-0.123
-435.719	-44.810	-0.143	0.070
-434.705	-75.400	0.208	-0.073
-433.690	331.017	-0.028	-0.054
-432.676	72.186	0.164	0.169
-431.661	282.372	-0.128	0.228
-430.646	179.159	0.196	-0.283
-429.632	26.296	-0.156	0.129
-428.617	4.698	-0.182	0.132
-427.603	-34.253	-0.130	0.071
-426.588	90.838	-0.094	-0.105
-425.573	120.382	-0.102	-0.126
-424.559	40.441	0.285	0.254
-423.544	77.586	0.470	-0.495
-422.530	-98.366	-0.403	-0.102
-421.515	-200.000	0.025	0.361
-420.500	471.481	0.092	0.204
-419.486	44.631	0.114	-0.104
-418.471	-17.022	-0.155	-0.097
-417.457	108.478	-0.160	0.189
-416.442	-131.374	-0.305	-0.040
-415.428	-99.454	0.200	0.050
-414.413	308.728	0.019	-0.036
-413.398	-150.555	0.263	0.020
-412.384	257.614	-0.005	-0.009
-411.369	16.930	0.228	0.178
-410.355	131.817	-0.209	0.265
-409.340	800.000	0.074	0.207
-408.325	30.186	-0.150	0.126
-407.311	-90.475	-0.305	-0.087
-406.296	-74.798	0.165	-0.059
-405.282	-153.834	-0.167	-0.011
-404.267	-139.086	-0.059	-0.006
-403.252	41.118	0.034	0.031
-402.238	-200.000	0.004	0.398
-401.223	-148.829	-0.371	-0.030
-400.209	-9.062	0.430	0.284
-399.194	-133.597	-0.467	0.058
-398.179	1.123	0.266	0.189
-397.165	29.490	0.154	-0.129
-396.150	-7.139	0.062	-0.042
-395.136	-97.848	0.288	-0.074
-394.121	46.384	-0.304	-0.279
-393.106	-58.460	-0.114	-0.049
-392.092	-81.776	-0.182	0.059
-391.077	-122.348	0.156	-0.025
-390.063	-200.000	0.037	-0.361
-389.048	336.569	0.070	0.133
-388.033	180.335	-0.155	-0.224
-387.019	-47.223	0.043	0.020
-386.004	-29.057	-0.148	-0.084
-384.990	-61.613	-0.170	0.071
-383.975	-200.000	-0.006	0.123
-382.960	192.357	0.085	0.126
-381.946	-95.639	-0.269	0.071
-380.931	-1.250	-0.296	0.207
-379.917	551.904	0.086	-0.203
-378.902	-16.878	0.144	-0.090
-377.888	48.872	-0.086	0.080
-376.873	-68.343	0.099	0.038
-375.858	800.000	-0.078	-0.236
-374.844	800.000	-0.018	0.054
-373.829	800.000	-0.021	-0.069
-372.815	800.000	-0.040	0.133
-371.800	-67.414	0.181	-0.070
-370.785	-200.000	0.018	0.144
-369.771	-12.756	0.263	0.169
-368.756	151.019	0.169	-0.226
-367.742	-107.294	0.267	-0.058
-366.727	-200.000	-0.021	-0.572
-365.712	-200.000	-0.021	0.123
-364.698	550.988	-0.056	-0.133
-363.683	717.584	0.147	0.384
-362.669	778.622	-0.039	-0.105
-361.654	127.479	0.139	-0.174
-360.639	-61.894	-0.126	-0.052
-359.625	-7.674	0.137	-0.092
-358.610	117.562	0.198	0.240
-357.596	697.771	0.032	-0.082
-356.581	225.083	0.124	0.198
-355.566	-200.000	0.060	-0.320
-354.552	-53.554	0.174	-0.079
-353.537	-29.923	-0.349	-0.196
-352.523	-200.000	-0.030	-0.245
-351.508	67.812	0.254	-0.256
-350.493	74.839	0.159	0.165
-349.479	-200.000	0.014	-0.127
-348.464	-200.000	0.058	-0.251
-347.450	-15.629	-0.072	0.045
-346.435	-200.000	0.015	0.120
-345.420	28.913	-0.030	-0.025
-344.406	524.349	0.108	0.251
-343.391	9.532	-0.330	-0.246
-342.377	258.143	0.050	-0.085
-341.362	639.922	-0.085	0.214
-340.348	-122.566	0.119	-0.019
-339.333	-200.000	-0.002	0.109
-338.318	-170.120	0.017	0.001
-337.304	401.148	0.105	-0.217
-336.289	69.090	0.104	0.105
-335.275	295.942	0.085	-0.153
-334.260	-140.670	0.096	0.010
-333.245	99.220	-0.226	0.258
-332.231	800.000	0.024	0.081
-331.216	-65.641	0.122	-0.048
-330.202	11.475	0.316	-0.239
-329.187	800.000	-0.080	-0.297
-328.172	-170.063	0.169	-0.006
-327.158	5.125	0.148	0.108
-326.143	511.390	0.153	0.351
-325.129	-88.913	-0.142	-0.041
-324.114	800.000	0.049	0.203
-323.099	-81.023	0.069	0.023
-322.085	800.000	0.024	0.079
-321.070	-200.000	0.001	0.283
-320.056	-200.000	0.077	-0.370
-319.041	-62.311	0.375	0.154
-318.026	-103.684	-0.353	0.081
-317.012	800.000	-0.072	0.245
-315.997	173.797	-0.070	-0.099
-314.983	-137.622	-0.091	0.010
-313.968	251.051	0.096	-0.161
-312.953	50.620	-0.090	0.084
-311.939	678.531	0.051	-0.131
-310.924	344.787	-0.242	0.468
-309.910	-200.000	0.029	0.280
-308.895	-81.954	-0.240	-0.077
-307.880	800.000	-0.175	0.614
-306.866	-11.946	-0.172	0.111
-305.851	335.984	0.216	0.413
-304.837	-133.501	-0.186	-0.023
-303.822	-200.000	0.067	-0.307
-302.807	-29.175	-0.298	0.168
-301.793	134.626	-0.107	0.136
-300.778	40.679	-0.186	0.166
-299.764	13.341	-0.144	-0.110
-298.749	800.000	-0.034	0.130
-297.735	-200.000	-0.010	0.367
-296.720	251.697	0.108	-0.181
-295.705	-145.073	-0.322	-0.029
-294.691	-38.879	0.173	-0.089
-293.676	475.458	0.034	0.075
-292.662	198.196	-0.162	0.244
-291.647	-44.978	0.138	-0.068
-290.632	-200.000	-0.048	-0.250
-289.618	-200.000	0.082	0.476
-288.603	-137.540	0.451	0.050
-287.589	-127.651	0.157	-0.022
-286.574	372.101	-0.104	-0.207
-285.559	-51.828	-0.320	0.147
-284.545	-92.555	-0.043	0.012
-283.530	800.000	-0.053	0.145
-282.516	800.000	0.053	-0.147
-281.501	800.000	-0.069	0.297
-280.486	-58.938	0.188	0.080
-279.472	-50.614	-0.147	0.068
-278.457	63.750	-0.159	-0.157
-277.443	-37.766	0.165	0.087
-276.428	-126.718	0.202	0.029
-275.413	-83.916	-0.276	-0.086
-274.399	139.493	0.256	-0.331
-273.384	-90.605	-0.069	-0.020
-272.370	800.000	-0.092	0.256
-271.355	-173.488	0.225	-0.007
-270.340	384.588	-0.147	0.298
-269.326	2.791	-0.138	0.098
-268.311	-14.708	0.165	-0.104
-267.297	73.112	0.093	0.095
-266.282	-200.000	-0.006	0.123
-265.267	330.089	0.145	-0.275
-264.253	-114.299	0.208	0.039
-263.238	-33.819	-0.234	0.127
-262.224	-79.760	-0.086	-0.029
-261.209	-87.826	-0.234	-0.069
-260.195	-55.900	-0.109	-0.048
-259.180	-134.245	0.137	0.017
-258.165	-179.817	-0.238	-0.005
-257.151	171.362	-0.071	0.100
-256.136	-133.402	-0.004	0.000
-255.122	-200.000	-0.018	-0.260
-254.107	131.945	-0.213	0.270
-253.092	-68.254	0.170	0.065
-252.078	-200.000	0.002	0.042
-251.063	-200.000	-0.028	-0.412
-250.049	-200.000	0.019	-0.308
-249.034	-200.000	0.043	-0.270
-248.019	-166.214	0.192	-0.008
-247.005	-126.886	0.127	0.018
-245.990	212.691	0.162	0.251
-244.976	-95.230	0.229	0.061
-243.961	388.840	-0.086	-0.175
-242.946	-200.000	0.005	0.155
-241.932	-153.648	-0.106	0.007
-240.917	-102.193	0.106	-0.025
-239.903	-69.202	-0.107	0.040
-238.888	48.593	0.190	0.175
-237.873	-17.190	0.207	0.128
-236.859	-131.308	-0.010	-0.001
-235.844	-200.000	-0.004	0.176
-234.830	-200.000	0.038	-0.359
-233.815	66.870	0.161	0.161
-232.800	800.000	0.025	0.093
-231.786	-4.690	-0.124	0.084
-230.771	-153.959	0.142	-0.010
-229.757	259.274	0.008	0.014
-228.742	146.612	0.068	0.089
-227.727	-120.946	-0.166	0.027
-226.713	-115.432	0.233	-0.043
-225.698	-24.052	0.253	0.149
-224.684	-89.805	-0.284	-0.082
-223.669	133.727	0.139	0.176
-222.655	10.923	0.133	0.099
-221.640	-200.000	-0.017	-0.278
-220.625	-7.230	-0.067	0.045
-219.611	105.891	0.099	-0.115
-218.596	-6.478	0.177	-0.119
-217.582	800.000	0.066	-0.252
-216.567	212.008	0.074	-0.115
-215.552	-113.575	0.372	0.071
-214.538	-130.359	0.439	-0.058
-213.523	-0.146	-0.291	0.203
-212.509	292.099	0.097	0.173
-211.494	-200.000	0.013	-0.224
-210.479	-109.762	-0.308	0.064
-209.465	-150.976	-0.172	-0.013
-208.450	317.333	-0.141	-0.261
-207.436	217.917	-0.166	-0.260
-206.421	800.000	-0.080	-0.270
-205.406	-126.452	-0.174	-0.025
-204.392	-158.245	-0.682	0.039
-203.377	-58.585	-0.133	-0.057
-202.363	-64.714	0.040	0.016
-201.348	-94.563	0.348	-0.093
-200.333	42.740	0.369	-0.329
-199.319	-121.754	0.351	-0.057
-198.304	239.099	0.204	-0.333
-197.290	-179.984	-0.141	-0.003
-196.275	-39.800	0.219	0.112
-195.260	105.168	-0.110	0.127
-194.246	-200.000	0.030	0.157
-193.231	-2.706	-0.110	0.075
-192.217	-81.832	-0.179	0.057
-191.202	-118.798	-0.324	-0.056
-190.187	195.031	0.245	-0.364
-189.173	-12.613	0.099	-0.063
-188.158	-34.056	0.292	-0.157
-187.144	-200.000	0.001	0.261
-186.129	-56.730	0.029	0.012
-185.114	-200.000	0.005	0.052
-184.100	-112.387	-0.084	-0.016
-183.085	-200.000	0.032	0.171
-182.071	800.000	-0.043	0.144
-181.056	-200.000	-0.002	0.233
-180.042	-14.258	-0.167	-0.105
-179.027	-200.000	0.075	-0.323
-178.012	-42.087	-0.099	-0.049
-176.998	-184.188	-0.200	-0.003
-175.983	511.629	-0.202	0.462
-174.969	84.133	0.180	-0.193
-173.954	44.795	0.218	-0.196
-172.939	29.372	0.152	0.127
-171.925	-24.137	0.047	-0.028
-170.910	-147.447	0.111	0.009
-169.896	357.591	0.253	0.495
-168.881	50.866	-0.128	0.119
-167.866	-68.487	0.407	-0.154
-166.852	294.853	-0.092	-0.165
-165.837	-110.074	0.084	0.017
-164.823	380.907	0.037	0.075
-163.808	-200.000	0.040	-0.206
-162.793	122.580	-0.183	-0.225
-161.779	-69.349	-0.299	-0.112
-160.764	96.636	-0.073	0.082
-159.750	66.635	-0.263	-0.262
-158.735	-31.851	0.145	-0.080
-157.720	134.400	0.060	0.076
-156.706	77.103	0.109	-0.113
-155.691	-8.419	-0.242	-0.159
-154.677	-122.334	0.341	-0.054
-153.662	528.070	-0.005	0.011
-152.647	-39.275	-0.375	-0.192
-151.633	421.881	0.062	-0.130
-150.618	-86.030	0.157	0.047
-149.604	-134.997	0.167	0.020
-148.589	-196.567	0.229	0.002
-147.574	800.000	-0.019	0.081
-146.560	-200.000	-0.018	0.459
-145.545	-200.000	-0.005	0.151
-144.531	800.000	0.073	-0.297
-143.516	-88.599	-0.141	-0.041
-142.502	129.740	-0.253	0.316
-141.487	169.677	0.109	0.152
-140.472	-115.103	0.291	-0.054
-139.458	660.335	0.081	-0.204
-138.443	-200.000	0.020	0.225
-137.429	-200.000	-0.078	0.358
-136.414	-137.228	-0.078	-0.009
-135.399	-92.500	-0.113	0.031
-134.385	18.648	0.241	-0.189
-133.370	682.555	-0.030	-0.077
-132.356	297.285	-0.153	-0.274
-131.341	661.723	0.120	0.302
-130.326	-133.516	-0.195	-0.024
-129.312	-148.736	-0.071	0.006
-128.297	81.625	0.238	0.251
-127.283	-122.707	0.579	-0.092
-126.268	-87.023	-0.163	-0.049
-125.253	621.780	-0.124	-0.305
-124.239	800.000	0.076	0.230
-123.224	-200.000	-0.011	-0.350
-122.210	-69.426	0.206	-0.077
-121.195	193.208	0.142	0.210
-120.180	-200.000	0.006	0.072
-119.166	-115.867	0.281	-0.051
-118.151	-148.376	0.155	-0.012
-117.137	-62.651	-0.268	0.109
-116.122	-2.148	0.239	-0.164
-115.107	188.479	0.253	-0.370
-114.093	-66.723	-0.204	0.079
-113.078	-200.000	0.036	0.261
-112.064	800.000	-0.136	-0.533
-111.049	-92.658	0.263	-0.072
-110.034	96.200	-0.295	0.329
-109.020	127.457	-0.086	0.107
-108.005	-200.000	0.020	-0.352
-106.991	-107.440	0.148	-0.032
-105.976	-129.643	0.411	0.055
-104.962	-72.166	0.182	0.066
-103.947	186.598	-0.261	0.379
-102.932	-141.843	0.340	0.033
-101.918	-130.326	0.345	-0.046
-100.903	-200.000	-0.047	-0.210
-99.889	800.000	0.051	-0.193
-98.874	-200.000	0.050	0.221
-97.859	245.881	-0.157	0.258
-96.845	-117.677	0.218	0.038
-95.830	-166.593	-0.490	0.020
-94.816	-200.000	0.021	0.121
-93.801	421.780	-0.092	-0.192
-92.786	-73.498	0.136	-0.049
-91.772	-24.163	-0.069	0.040
-90.757	-200.000	-0.014	-0.076
-89.743	-81.554	-0.136	-0.044
-88.728	496.529	0.069	0.154
-87.713	201.356	0.032	-0.049
-86.699	800.000	0.057	-0.164
-85.684	-200.000	-0.062	0.389
-84.670	-82.201	-0.079	0.025
-83.655	32.140	0.217	0.183
-82.640	-177.032	-0.200	-0.005
-81.626	-200.000	-0.004	0.088
-80.611	44.735	-0.231	-0.208
-79.597	-49.024	0.163	0.076
-78.582	-200.000	0.058	-0.368
-77.567	800.000	0.052	-0.187
-76.553	-157.059	0.511	0.030
-75.538	-27.877	-0.245	0.138
-74.524	-151.855	0.305	0.022
-73.509	98.854	0.208	-0.235
-72.494	203.916	0.184	0.278
-71.480	-122.774	0.167	0.026
-70.465	-95.273	-0.081	-0.021
-69.451	800.000	0.091	0.317
-68.436	88.477	-0.083	0.089
-67.422	-149.004	-0.197	0.015
-66.407	444.123	0.174	-0.371
-65.392	-78.025	0.202	0.068
-64.378	-11.090	0.235	0.151
-63.363	64.731	-0.143	0.141
-62.349	-200.000	-0.070	0.343
-61.334	78.437	-1.184	-1.234
-60.319	119.319	0.793	0.957
-59.305	513.528	-0.720	-1.638
-58.290	417.474	0.728	1.516
-57.276	362.495	0.597	1.169
-56.261	-200.000	136.437	629.842
-55.246	345.408	1632.338	3126.638
-54.232	138.083	2766.363	3536.003
-53.217	80.988	2151.650	2263.960
-52.203	29.568	1588.934	1317.708
-51.188	21.999	1341.299	1066.510
-50.173	20.183	1307.120	1028.534
-49.159	46.815	1381.367	1251.253
-48.144	42.089	1390.675	1230.682
-47.130	21.875	1339.451	1064.120
-46.115	19.130	1320.253	1032.391
-45.100	18.939	1314.870	1027.000
-44.086	18.884	1312.489	1024.772
-43.071	18.891	1309.901	1022.753
-42.057	18.718	1308.642	1020.698
-41.042	18.855	1306.544	1019.839
-40.027	18.948	1304.921	1019.082
-39.013	18.895	1302.826	1017.091
-37.998	18.914	1301.148	1015.854
-36.984	19.066	1299.089	1015.100
-35.969	18.950	1297.553	1013.176
-34.954	19.097	1295.840	1012.662
-33.940	19.070	1295.043	1011.841
-32.925	19.157	1292.574	1010.384
-31.911	19.057	1291.653	1009.038
-30.896	19.064	1290.206	1007.910
-29.881	19.131	1288.862	1007.210
-28.867	19.056	1287.493	1005.661
-27.852	19.074	1286.374	1004.853
-26.838	19.160	1284.603	1003.932
-25.823	19.155	1283.307	1002.849
-24.809	19.078	1282.301	1001.575
-23.794	19.108	1280.947	1000.654
-22.779	19.014	1279.725	999.114
-21.765	19.062	1278.292	998.230
-20.750	19.104	1276.846	997.309
-19.736	19.012	1275.717	995.854
-18.721	19.039	1274.031	994.652
-17.706	18.991	1273.079	993.594
-16.692	18.931	1272.299	992.601
-15.677	18.889	1271.012	991.314
-14.663	18.904	1269.921	990.511
-13.648	18.903	1268.858	989.634
-12.633	18.868	1268.121	988.818
-11.619	18.897	1267.064	988.123
-10.604	18.943	1266.297	987.749
-9.590	18.876	1265.676	986.840
-8.575	18.895	1264.810	986.238
-7.560	18.967	1263.430	985.535
-6.546	18.980	1262.391	984.759
-5.531	18.908	1262.440	984.343
-4.517	18.855	1261.432	983.214
-3.502	18.961	1260.235	982.849
-2.487	18.854	1259.525	981.646
-1.473	18.819	1255.167	978.015
-0.458	17.162	1239.949	956.792
0.556	12.894	1224.151	920.561
1.571	9.359	1232.576	906.917
2.586	8.879	1247.552	915.111
3.600	9.136	1234.833	907.157
4.615	6.808	1163.864	842.539
5.629	2.473	1096.388	771.802
6.644	0.636	1081.362	752.015
7.659	0.578	1078.899	749.950
8.673	0.539	1078.299	749.273
9.688	0.517	1076.984	748.182
10.702	0.595	1074.471	746.756
11.717	3.312	1076.924	761.848
12.731	9.162	1084.925	796.520
13.746	14.751	1092.349	829.736
14.761	16.932	1094.894	842.440
15.775	16.418	1093.537	838.771
16.790	15.407	1091.086	831.807
17.804	14.836	1089.387	827.612
18.819	14.401	1088.806	824.947
19.834	14.233	1087.421	822.994
20.848	13.972	1087.222	821.478
21.863	13.786	1085.829	819.437
22.877	13.651	1085.042	818.104
23.892	13.541	1084.623	817.171
24.907	13.490	1083.946	816.338
25.921	13.591	1082.458	815.643
26.936	13.574	1082.251	815.332
27.950	13.706	1081.014	814.975
28.965	13.782	1079.702	814.288
29.980	13.705	1078.618	813.019
30.994	13.847	1077.152	812.539
32.009	13.759	1076.440	811.498
33.023	13.780	1075.199	810.594
34.038	13.679	1074.512	809.509
35.053	13.750	1073.850	809.286
36.067	13.709	1073.091	808.446
37.082	13.782	1071.524	807.546
38.096	13.813	1070.980	807.216
39.111	13.767	1070.428	806.503
40.126	13.773	1068.596	805.082
41.140	13.627	1067.842	803.737
42.155	13.614	1066.908	802.897
43.169	13.663	1065.571	802.059
44.184	13.572	1064.840	800.996
45.199	13.568	1063.598	799.970
46.213	13.465	1062.516	798.589
47.228	13.625	1061.393	798.446
48.242	13.784	1060.102	798.172
49.257	13.614	1059.478	796.814
50.271	13.710	1058.268	796.292
51.286	13.719	1057.866	795.964
52.301	13.769	1056.915	795.415
53.315	13.725	1055.821	794.311
54.330	13.707	1054.605	793.240
55.344	13.693	1054.011	792.656
56.359	13.681	1052.833	791.644
57.374	13.629	1052.118	790.787
58.388	13.525	1051.517	789.769
59.403	13.515	1051.027	789.286
60.417	13.483	1049.719	788.079
61.432	13.611	1048.879	787.987
62.447	13.566	1048.185	787.184
63.461	13.439	1047.618	786.087
64.476	13.658	1045.809	785.696
65.490	13.495	1045.574	784.680
66.505	13.494	1044.741	783.978
67.520	13.613	1044.062	783.963
68.534	13.612	1043.267	783.293
69.549	13.640	1042.486	782.768
70.563	13.513	1041.926	781.678
71.578	13.497	1040.911	780.773
72.593	13.471	1040.144	780.006
73.607	13.412	1039.837	779.428
74.622	13.543	1038.806	779.204
75.636	13.371	1038.447	778.059
76.651	13.502	1037.399	777.818
77.666	13.393	1036.770	776.765
78.680	13.407	1036.285	776.402
79.695	13.526	1035.426	776.244
80.709	13.500	1034.695	775.506
81.724	13.594	1034.059	775.400
82.739	13.644	1032.843	774.652
83.753	13.522	1032.512	773.768
84.768	13.723	1031.403	773.807
85.782	13.716	1030.285	772.864
86.797	13.699	1029.911	772.440
87.812	13.561	1028.991	771.036
88.826	13.616	1027.639	770.212
89.841	13.556	1026.816	769.249
90.855	13.730	1025.974	769.355
91.870	13.676	1025.409	768.614
92.884	13.770	1024.204	768.077
93.899	13.701	1023.440	767.118
94.914	13.791	1022.358	766.656
95.928	13.847	1021.299	766.053
96.943	13.752	1020.967	765.298
97.957	13.713	1020.124	764.420
98.972	13.727	1019.126	763.669
99.987	13.681	1018.139	762.649
101.001	13.705	1017.380	762.123
102.016	13.727	1016.465	761.471
103.030	13.798	1015.703	761.159
104.045	13.759	1014.529	760.033
105.060	13.664	1014.192	759.279
106.074	13.614	1013.002	758.090
107.089	13.757	1011.797	757.775
108.103	13.561	1011.226	756.386
109.118	13.643	1010.245	755.957
110.133	13.736	1009.407	755.690
111.147	13.746	1008.332	754.865
112.162	13.656	1007.536	753.793
113.176	13.613	1007.151	753.240
114.191	13.749	1005.802	752.784
115.206	13.760	1005.410	752.474
116.220	13.698	1004.550	751.483
117.235	13.645	1003.645	750.495
118.249	13.631	1002.617	749.597
119.264	13.698	1001.670	749.128
120.279	13.654	1001.334	748.612
121.293	13.593	1000.366	747.546
122.308	13.635	999.524	747.038
123.322	13.598	998.602	746.120
124.337	13.693	997.216	745.444
125.352	13.671	996.278	744.577
126.366	13.673	995.041	743.597
127.381	13.626	994.147	742.652
128.395	13.552	993.337	741.649
129.410	13.582	992.623	741.184
130.424	13.544	991.940	740.441
131.439	13.611	990.973	739.954
132.454	13.709	990.150	739.708
133.468	13.755	989.543	739.393
134.483	13.798	988.112	738.452
135.497	13.634	987.477	737.181
136.512	13.627	986.965	736.705
137.527	13.644	985.968	735.971
138.541	13.692	985.260	735.591
139.556	13.705	984.578	735.071
140.570	13.711	983.922	734.545
141.585	13.778	982.891	734.005
142.600	13.917	981.644	733.623
143.614	13.822	981.359	732.926
144.629	13.807	980.130	731.880
145.643	13.858	979.352	731.457
146.658	13.916	978.017	730.649
147.673	13.732	977.470	729.367
148.687	13.804	977.007	729.274
149.702	13.807	975.894	728.394
150.716	13.859	974.971	727.866
151.731	13.828	974.243	727.124
152.746	13.821	973.745	726.655
153.760	13.835	973.179	726.232
154.775	13.881	972.460	725.831
155.789	13.902	972.015	725.526
156.804	14.080	970.578	725.166
157.819	13.930	970.834	724.640
158.833	13.987	969.768	724.029
159.848	13.974	968.920	723.274
160.862	14.165	967.581	723.040
161.877	13.929	967.194	721.664
162.892	13.808	966.556	720.596
163.906	13.921	965.266	720.059
164.921	14.064	964.121	719.765
165.935	13.937	963.604	718.764
166.950	13.922	962.935	718.138
167.964	13.890	962.235	717.411
168.979	14.062	960.680	716.930
169.994	14.098	959.754	716.331
171.008	14.041	959.183	715.597
172.023	14.035	958.589	715.067
173.037	14.149	957.656	714.796
174.052	14.151	956.487	713.869
175.067	14.108	956.222	713.422
176.081	14.018	956.023	712.824
177.096	14.112	955.319	712.641
178.110	14.179	954.455	712.221
179.125	14.101	954.050	711.519
180.140	14.070	953.381	710.825
181.154	14.327	952.707	711.359
182.169	14.294	952.278	710.836
183.183	14.356	951.722	710.619
184.198	14.351	950.538	709.653
185.213	14.364	949.826	709.114
186.227	14.213	949.756	708.357
187.242	14.338	948.822	708.127
188.256	14.383	948.393	707.938
189.271	14.366	947.603	707.213
190.286	14.263	946.749	706.075
191.300	14.205	945.792	705.054
192.315	14.228	945.529	704.894
193.329	14.098	945.667	704.384
194.344	14.228	944.096	703.700
195.359	14.192	943.739	703.221
196.373	14.535	942.662	703.804
197.388	14.418	942.243	702.932
198.402	14.485	941.547	702.635
199.417	14.602	940.836	702.535
200.432	14.436	940.741	701.700
201.446	14.610	940.226	701.988
202.461	14.538	939.725	701.250
203.475	14.519	938.972	700.544
204.490	14.483	937.956	699.573
205.504	14.628	936.976	699.389
206.519	14.513	936.613	698.575
207.534	14.458	935.948	697.787
208.548	14.601	935.689	698.131
209.563	14.525	934.801	697.087
210.577	14.783	933.778	697.340
211.592	14.716	933.215	696.578
212.607	14.666	932.620	695.864
213.621	14.607	931.830	694.967
214.636	14.642	930.850	694.322
215.650	14.598	930.400	693.743
216.665	14.753	929.368	693.554
217.680	14.764	928.784	693.103
218.694	14.708	928.407	692.527
219.709	14.767	927.588	692.101
220.723	14.721	926.908	691.340
221.738	14.761	926.184	690.907
222.753	14.792	925.867	690.734
223.767	14.794	925.271	690.237
224.782	14.898	924.477	690.014
225.796	14.964	923.314	689.356
226.811	14.928	922.907	688.845
227.826	14.935	922.451	688.470
228.840	14.832	921.209	687.060
229.855	14.870	921.004	687.002
230.869	14.926	920.094	686.493
231.884	14.768	919.290	685.183
232.899	14.812	918.812	684.949
233.913	14.863	918.151	684.601
234.928	14.850	917.219	683.795
235.942	14.968	916.783	683.892
236.957	15.005	916.136	683.500
237.972	15.000	915.519	682.959
238.986	14.906	915.072	682.180
240.001	15.085	914.101	682.124
241.015	14.862	913.531	680.732
242.030	15.061	913.131	681.185
243.045	15.138	912.083	680.654
244.059	15.043	911.896	680.067
245.074	15.079	910.838	679.365
246.088	15.008	910.441	678.721
247.103	15.086	909.621	678.364
248.117	14.986	909.720	677.976
249.132	15.074	909.130	677.832
250.147	15.194	908.395	677.707
251.161	15.285	907.205	677.129
252.176	15.233	906.513	676.341
253.190	15.285	906.341	676.364
254.205	15.333	905.459	675.839
255.220	15.382	904.571	675.316
256.234	15.384	903.816	674.700
257.249	15.377	903.198	674.148
258.263	15.406	902.475	673.665
259.278	15.496	901.650	673.351
260.293	15.393	901.460	672.739
261.307	15.505	900.517	672.423
262.322	15.666	899.601	672.322
263.336	15.558	898.971	671.362
264.351	15.607	898.208	670.927
265.366	15.462	898.270	670.334
266.380	15.537	897.677	670.134
267.395	15.592	896.676	669.547
268.409	15.585	895.766	668.780
269.424	15.477	895.259	667.911
270.439	15.639	894.342	667.812
271.453	15.670	893.723	667.413
272.468	15.644	893.364	666.985
273.482	15.576	892.490	666.002
274.497	15.662	891.921	665.858
275.512	15.641	891.378	665.311
276.526	15.742	890.795	665.219
277.541	15.763	890.240	664.829
278.555	15.668	889.918	664.154
279.570	15.835	889.281	664.276
280.585	15.757	888.035	662.980
281.599	15.703	887.551	662.347
282.614	15.698	887.221	662.025
283.628	15.800	886.548	661.865
284.643	15.791	885.958	661.328
285.657	15.912	884.948	660.991
286.672	15.802	884.724	660.336
287.687	15.923	883.465	659.813
288.701	15.882	883.480	659.605
289.716	15.736	883.051	658.653
290.730	15.827	882.181	658.302
291.745	15.912	881.532	658.092
292.760	15.856	881.106	657.498
293.774	15.942	880.050	656.988
294.789	16.082	879.303	656.917
295.803	16.039	878.539	656.119
296.818	15.962	878.223	655.524
297.833	15.878	877.620	654.692
298.847	15.965	876.986	654.499
299.862	15.960	876.307	653.915
300.876	16.163	875.731	654.212
301.891	16.134	875.220	653.663
302.906	16.296	874.329	653.566
303.920	16.255	873.805	652.957
304.935	16.246	873.171	652.392
305.949	16.272	872.741	652.112
306.964	16.167	872.365	651.368
307.979	16.163	871.771	650.854
308.993	16.238	871.027	650.527
310.008	16.235	870.167	649.819
311.022	16.181	869.932	649.375
312.037	16.214	869.413	649.057
313.052	16.202	868.793	648.490
314.066	16.263	868.092	648.145
315.081	16.233	867.648	647.642
316.095	16.293	866.947	647.291
317.110	16.379	866.094	646.925
318.125	16.175	866.067	646.068
319.139	16.257	865.773	646.105
320.154	16.223	865.258	645.535
321.168	16.343	864.765	645.568
322.183	16.377	863.609	644.775
323.197	16.373	863.452	644.586
324.212	16.330	863.167	644.152
325.227	16.186	862.409	642.981
326.241	16.460	861.561	643.334
327.256	16.508	860.759	642.860
328.270	16.461	860.066	642.108
329.285	16.347	859.982	641.555
330.300	16.419	859.432	641.362
331.314	16.377	859.145	640.932
332.329	16.506	858.112	640.595
333.343	16.554	857.731	640.434
334.358	16.447	857.450	639.762
335.373	16.517	857.396	639.932
336.387	16.396	856.979	639.105
337.402	16.521	856.396	639.088
338.416	16.716	855.626	639.193
339.431	16.753	855.470	639.158
340.446	16.699	855.219	638.710
341.460	16.610	855.037	638.182
342.475	16.712	854.274	637.939
343.489	16.808	853.859	637.936
344.504	16.883	853.473	637.874
345.519	16.829	852.791	637.105
346.533	16.822	852.420	636.744
347.548	16.824	851.909	636.312
348.562	16.741	851.677	635.774
349.577	16.827	850.632	635.260
350.592	16.869	849.497	634.511
351.606	16.832	849.307	634.176
352.621	16.728	848.690	633.270
353.635	16.852	848.058	633.204
354.650	16.992	847.050	632.921
355.665	16.943	846.973	632.621
356.679	16.910	846.094	631.788
357.694	16.964	845.418	631.428
358.708	17.023	844.724	631.072
359.723	17.040	844.284	630.753
360.738	16.857	843.772	629.632
361.752	17.032	843.097	629.722
362.767	17.041	842.402	629.182
363.781	17.075	842.057	628.997
364.796	17.168	841.206	628.649
365.810	16.971	841.524	628.099
366.825	17.136	841.204	628.417
367.840	17.112	840.301	627.597
368.854	17.187	839.678	627.355
369.869	17.194	839.362	627.086
370.883	17.330	838.818	627.128
371.898	17.226	838.788	626.668
372.913	17.375	837.906	626.499
373.927	17.324	837.442	625.911
374.942	17.229	837.175	625.306
375.956	17.356	836.824	625.456
376.971	17.336	836.359	624.979
377.986	17.365	835.626	624.482
379.000	17.394	835.371	624.345
380.015	17.355	834.943	623.824
381.029	17.515	834.068	623.702
382.044	17.481	833.604	623.175
383.059	17.485	832.907	622.613
384.073	17.592	832.613	622.731
385.088	17.455	831.626	621.436
386.102	17.481	831.258	621.201
387.117	17.577	830.803	621.158
388.132	17.568	829.820	620.334
389.146	17.518	829.803	620.084
390.161	17.491	829.314	619.566
391.175	17.554	828.789	619.347
392.190	17.470	828.273	618.602
393.205	17.668	827.322	618.554
394.219	17.483	827.477	617.947
395.234	17.654	826.794	618.003
396.248	17.534	826.770	617.495
397.263	17.717	825.986	617.515
398.278	17.533	825.903	616.732
399.292	17.547	825.326	616.297
400.307	17.560	824.620	615.764
401.321	17.467	824.540	615.314
402.336	17.582	823.643	615.004
403.350	17.629	823.311	614.872
404.365	17.698	822.726	614.630
405.380	17.740	822.659	614.677
406.394	17.624	822.193	613.855
407.409	17.709	821.861	613.859
408.423	17.795	821.311	613.704
409.438	17.744	820.752	613.047
410.453	17.926	820.060	613.130
411.467	17.806	819.482	612.214
412.482	17.963	819.207	612.517
413.496	17.928	818.987	612.173
414.511	17.822	818.959	611.717
415.526	17.982	818.114	611.606
416.540	17.990	817.730	611.294
417.555	17.864	817.511	610.624
418.569	18.015	817.034	610.753
419.584	17.996	816.382	610.144
420.599	18.037	816.023	609.969
421.613	116.100	1301.103	1493.925
422.628	100.634	1371.742	1493.975
