DTS Sentinel unit serial number:	SN413079Multiplexer serial number:	ORYXHardware model number:	OX4-SRSoftware version number:	ORYX F/W v4.00 Oryx Data Collector v3.7.2.0data status	okinstallation	princeton_trtdifferential loss correction	single-endedforward channel	channel 1reverse channel	N/Adate	2019/09/17time	14:34:35forward acquisition time	60.00reverse acquisition time	0.00gamma	496.2192k internal	0.2298k external	0.2298temperature offset calibration	0.9970default loss term (dB/km)	0.3790temperature slope calibration	1.0000multiplexer offset coefficient	1.0000multiplexer slope coefficient	1.0000fibre end	0.00T internal ref (°C)	36.59T ext. ref 1 (°C)	0.41T ext. ref 2 (°C)	33.72length (m)	temperature (°C)	Stokes	anti-Stokes-747.200	532.418	-0.138	0.333
-746.185	594.120	-0.164	0.414
-745.171	-107.904	-0.122	0.027
-744.156	-107.651	-0.249	0.056
-743.142	-62.821	0.202	-0.085
-742.127	-98.461	-0.134	-0.035
-741.112	289.348	-0.110	-0.203
-740.098	800.000	0.034	0.105
-739.083	-61.180	0.129	-0.056
-738.069	-200.000	0.066	0.483
-737.054	554.234	0.098	-0.240
-736.039	163.020	-0.064	0.092
-735.025	800.000	0.102	0.324
-734.010	-41.048	0.205	-0.108
-732.996	-83.874	-0.410	0.133
-731.981	-154.776	-0.032	0.002
-730.966	12.225	-0.244	-0.191
-729.952	-82.517	-0.199	0.066
-728.937	-50.020	-0.265	0.128
-727.923	-200.000	-0.024	0.277
-726.908	-39.219	-0.295	-0.158
-725.894	-12.179	-0.127	-0.085
-724.879	-120.356	0.201	0.035
-723.864	373.712	-0.119	0.247
-722.850	-17.826	-0.107	-0.069
-721.835	43.932	0.480	-0.449
-720.821	-200.000	-0.010	-0.183
-719.806	411.841	0.006	-0.014
-718.791	240.090	-0.226	0.384
-717.777	-149.420	-0.230	-0.019
-716.762	-167.601	-0.332	-0.013
-715.748	-109.821	-0.214	0.046
-714.733	-200.000	0.030	0.207
-713.718	-20.437	-0.152	-0.095
-712.704	-200.000	0.014	0.366
-711.689	-200.000	0.030	-0.201
-710.675	6.073	-0.156	0.118
-709.660	148.950	-0.143	0.197
-708.645	800.000	-0.065	-0.276
-707.631	-171.021	-0.079	0.003
-706.616	548.743	0.141	-0.344
-705.602	800.000	-0.047	-0.144
-704.587	-0.808	-0.216	-0.156
-703.572	800.000	0.038	0.135
-702.558	-200.000	0.017	-0.316
-701.543	800.000	0.060	-0.256
-700.529	-200.000	-0.158	0.001
-699.514	-83.406	-0.171	-0.056
-698.499	-159.864	0.145	-0.008
-697.485	56.197	0.119	-0.118
-696.470	-176.147	0.455	0.012
-695.456	-65.303	0.221	-0.091
-694.441	-28.190	0.164	0.097
-693.426	800.000	0.004	-0.016
-692.412	800.000	0.164	-0.564
-691.397	-17.759	-0.201	0.128
-690.383	-200.000	-0.006	-0.244
-689.368	-200.000	-0.024	0.149
-688.354	-200.000	0.024	-0.392
-687.339	508.662	0.165	0.389
-686.324	69.080	0.167	-0.175
-685.310	-200.000	-0.471	-0.001
-684.295	-28.692	0.158	0.093
-683.281	90.164	-0.155	0.177
-682.266	45.899	0.092	-0.087
-681.251	86.544	0.152	0.170
-680.237	-46.277	-0.105	-0.052
-679.222	-137.174	-0.134	-0.016
-678.208	214.982	-0.053	-0.085
-677.193	551.213	0.040	0.098
-676.178	-200.000	-0.105	0.000
-675.164	-200.000	0.010	0.224
-674.149	-200.000	-0.045	0.263
-673.135	190.419	0.240	0.367
-672.120	-200.000	0.026	-0.145
-671.105	-65.054	0.071	0.029
-670.091	71.828	0.069	-0.073
-669.076	-87.754	-0.135	0.041
-668.062	-168.591	0.348	-0.013
-667.047	-69.080	0.209	0.082
-666.032	92.130	0.241	0.276
-665.018	40.032	-0.214	0.195
-664.003	163.880	-0.087	0.125
-662.989	-162.468	0.264	-0.013
-661.974	-200.000	0.045	-0.238
-660.959	-131.865	-0.304	-0.040
-659.945	-200.000	-0.041	-0.503
-658.930	134.996	0.298	-0.394
-657.916	-114.926	0.217	-0.042
-656.901	-96.792	-0.137	0.037
-655.886	800.000	-0.053	0.236
-654.872	800.000	0.044	0.158
-653.857	-9.214	0.078	0.053
-652.843	171.653	0.103	0.150
-651.828	-28.251	-0.051	-0.030
-650.814	-200.000	-0.092	0.630
-649.799	-77.670	-0.214	-0.075
-648.784	-20.305	0.261	-0.163
-647.770	-28.650	0.195	-0.114
-646.755	800.000	0.042	-0.139
-645.741	49.491	-0.106	-0.102
-644.726	-200.000	-0.037	-0.185
-643.711	34.384	-0.211	-0.187
-642.697	-121.478	0.352	-0.059
-641.682	-34.660	-0.087	0.048
-640.668	559.464	-0.088	0.216
-639.653	274.471	-0.156	-0.281
-638.638	342.229	-0.087	0.173
-637.624	-200.000	0.024	0.347
-636.609	-73.802	-0.112	-0.041
-635.595	770.309	0.177	0.489
-634.580	174.922	0.063	0.093
-633.565	-55.155	-0.243	0.111
-632.551	-21.326	0.237	-0.147
-631.536	-12.274	-0.197	-0.131
-630.522	-119.276	-0.385	0.068
-629.507	192.094	-0.156	0.239
-628.492	165.816	-0.106	0.152
-627.478	-104.470	0.205	-0.048
-626.463	800.000	-0.082	0.329
-625.449	59.321	0.148	-0.148
-624.434	433.967	-0.049	-0.109
-623.419	45.476	-0.253	0.237
-622.405	-200.000	0.020	0.252
-621.390	87.217	0.120	0.134
-620.376	156.599	0.275	-0.386
-619.361	609.968	-0.044	-0.112
-618.346	-200.000	-0.026	-0.178
-617.332	761.478	0.114	-0.314
-616.317	68.869	0.215	0.225
-615.303	-104.681	0.183	0.043
-614.288	800.000	0.062	-0.202
-613.273	-21.173	-0.129	-0.080
-612.259	-75.575	0.213	-0.077
-611.244	-191.107	-0.031	0.000
-610.230	-53.020	0.148	0.069
-609.215	800.000	-0.048	-0.165
-608.201	-200.000	-0.029	0.188
-607.186	-104.178	0.267	-0.063
-606.171	87.361	-0.167	-0.188
-605.157	92.554	-0.232	0.266
-604.142	177.763	-0.164	0.242
-603.128	328.394	0.031	-0.061
-602.113	-200.000	0.000	0.202
-601.098	-200.000	-0.229	-0.001
-600.084	-169.733	-0.216	0.008
-599.069	429.989	-0.113	-0.247
-598.055	-200.000	0.030	-0.307
-597.040	-99.020	0.111	0.029
-596.025	-200.000	-0.029	0.201
-595.011	-127.267	0.264	-0.039
-593.996	-200.000	0.007	0.160
-592.982	201.436	-0.090	-0.140
-591.967	-16.419	0.189	-0.122
-590.952	131.910	0.229	0.300
-589.938	61.093	-0.196	-0.197
-588.923	-137.283	0.139	-0.016
-587.909	-65.708	-0.044	-0.018
-586.894	-200.000	0.013	-0.102
-585.879	800.000	0.061	0.198
-584.865	-32.656	-0.070	-0.040
-583.850	800.000	-0.058	-0.221
-582.836	-135.471	-0.102	-0.012
-581.821	14.031	-0.245	-0.193
-580.806	747.428	-0.057	0.157
-579.792	800.000	-0.020	0.059
-578.777	-91.519	-0.022	0.006
-577.763	297.848	-0.223	-0.416
-576.748	800.000	0.082	0.233
-575.733	254.399	-0.107	0.185
-574.719	241.088	-0.228	0.386
-573.704	-200.000	0.028	-0.184
-572.690	-14.448	0.217	-0.142
-571.675	-42.494	0.199	-0.103
-570.661	25.739	-0.219	-0.185
-569.646	97.733	-0.192	-0.223
-568.631	-141.700	-0.212	-0.022
-567.617	22.213	0.118	-0.098
-566.602	97.792	-0.111	-0.130
-565.588	111.153	0.127	-0.155
-564.573	800.000	-0.056	-0.187
-563.558	110.583	0.091	-0.111
-562.544	104.395	0.158	0.189
-561.529	800.000	-0.045	0.136
-560.515	-200.000	-0.041	0.283
-559.500	6.637	0.182	-0.137
-558.485	236.477	-0.072	0.121
-557.471	32.533	0.098	-0.086
-556.456	27.301	0.201	-0.171
-555.442	-200.000	-0.074	-0.340
-554.427	362.450	0.082	0.166
-553.412	-78.884	-0.092	0.032
-552.398	21.152	-0.266	0.219
-551.383	-99.834	0.162	-0.041
-550.369	-200.000	-0.003	-0.126
-549.354	754.108	-0.160	-0.439
-548.339	-56.549	0.186	-0.083
-547.325	800.000	0.031	0.094
-546.310	800.000	-0.080	0.342
-545.296	800.000	-0.057	-0.163
-544.281	46.481	-0.110	-0.103
-543.266	375.749	0.117	-0.242
-542.252	141.342	-0.106	-0.143
-541.237	-197.637	0.179	0.001
-540.223	72.228	-0.265	-0.280
-539.208	-74.045	-0.223	-0.082
-538.193	-100.376	-0.225	-0.057
-537.179	-200.000	-0.009	0.041
-536.164	58.691	0.070	0.070
-535.150	133.152	-0.143	0.187
-534.135	518.434	-0.186	-0.441
-533.121	82.170	0.051	-0.056
-532.106	-87.993	-0.085	0.026
-531.091	-200.000	0.022	0.099
-530.077	-177.500	-0.163	0.004
-529.062	-26.211	-0.214	0.127
-528.048	-193.119	-0.135	0.001
-527.033	-34.943	-0.340	0.188
-526.018	136.229	0.090	-0.119
-525.004	-200.000	-0.005	0.166
-523.989	-128.669	0.116	-0.017
-522.975	-32.633	0.267	-0.150
-521.960	2.563	0.225	0.165
-520.945	-77.040	0.236	-0.084
-519.931	12.811	0.240	0.188
-518.916	85.797	-0.095	-0.105
-517.902	-200.000	0.030	-0.250
-516.887	800.000	0.026	0.076
-515.872	706.772	0.098	0.262
-514.858	-23.611	-0.264	0.160
-513.843	-130.360	-0.416	-0.057
-512.829	593.628	0.054	-0.135
-511.814	170.040	0.127	0.184
-510.799	-42.074	0.277	0.144
-509.785	-200.000	0.004	0.277
-508.770	-200.000	0.038	-0.252
-507.756	-124.574	0.150	-0.024
-506.741	414.447	0.104	0.225
-505.726	-157.525	-0.249	-0.015
-504.712	-102.352	0.178	-0.043
-503.697	4.456	0.154	-0.114
-502.683	-114.675	0.276	0.053
-501.668	-103.719	0.159	0.038
-500.653	160.005	-0.094	-0.133
-499.639	-200.000	0.017	0.177
-498.624	-169.919	-0.314	-0.011
-497.610	-50.020	-0.155	0.074
-496.595	14.781	-0.086	-0.068
-495.581	63.334	0.144	0.146
-494.566	62.779	-0.105	0.107
-493.551	-184.920	0.258	-0.004
-492.537	-95.391	0.137	0.037
-491.522	-47.411	0.217	-0.107
-490.508	24.247	0.299	0.250
-489.493	22.885	-0.153	0.127
-488.478	-200.000	0.004	-0.079
-487.464	153.525	-0.029	0.041
-486.449	-129.303	0.059	-0.008
-485.435	133.368	0.080	-0.105
-484.420	-50.883	-0.236	-0.112
-483.405	2.379	0.239	0.175
-482.391	-43.432	0.142	-0.073
-481.376	28.874	-0.140	-0.120
-480.362	800.000	0.054	-0.191
-479.347	53.417	0.165	0.159
-478.332	80.495	-0.022	0.024
-477.318	800.000	-0.058	0.191
-476.303	-102.362	0.090	0.022
-475.289	-190.071	0.385	0.004
-474.274	-200.000	0.022	-0.161
-473.259	81.170	-0.087	-0.095
-472.245	101.859	0.188	0.221
-471.230	-200.000	-0.011	0.152
-470.216	295.510	0.123	0.228
-469.201	-30.253	-0.080	-0.046
-468.186	44.956	-0.197	-0.184
-467.172	-46.827	-0.072	-0.036
-466.157	800.000	0.062	-0.238
-465.143	-52.299	-0.220	0.103
-464.128	-30.220	0.129	-0.074
-463.113	-75.280	0.206	0.074
-462.099	-128.333	-0.379	0.055
-461.084	338.350	0.088	-0.173
-460.070	-2.812	0.200	-0.141
-459.055	-141.019	0.177	0.018
-458.040	-87.363	-0.325	-0.100
-457.026	-200.000	0.004	-0.088
-456.011	800.000	0.050	0.151
-454.997	-15.724	0.030	-0.019
-453.982	-20.602	-0.222	0.138
-452.968	166.527	-0.036	0.052
-451.953	93.833	-0.117	0.134
-450.938	-200.000	0.080	-0.425
-449.924	-200.000	0.004	-0.238
-448.909	-22.039	0.157	0.097
-447.895	38.125	0.092	-0.083
-446.880	-4.405	-0.154	0.107
-445.865	413.584	-0.124	-0.266
-444.851	314.076	-0.042	0.080
-443.836	-23.060	-0.240	-0.146
-442.822	800.000	0.046	-0.143
-441.807	418.774	-0.049	-0.107
-440.792	151.460	0.232	0.319
-439.778	-89.178	-0.166	-0.050
-438.763	-200.000	0.007	-0.131
-437.749	-148.530	0.095	0.008
-436.734	-56.187	-0.208	-0.093
-435.719	-200.000	0.049	0.226
-434.705	328.546	0.073	-0.141
-433.690	123.657	0.045	-0.056
-432.676	15.096	-0.108	0.085
-431.661	-104.775	-0.349	-0.081
-430.646	199.131	0.073	0.112
-429.632	34.035	-0.150	-0.132
-428.617	-200.000	0.023	-0.300
-427.603	717.118	-0.054	-0.144
-426.588	659.052	-0.062	-0.162
-425.573	-47.044	-0.262	0.129
-424.559	21.567	0.369	-0.303
-423.544	-79.758	-0.152	0.052
-422.530	800.000	-0.077	0.303
-421.515	85.293	0.370	0.410
-420.500	-200.000	0.007	0.066
-419.486	-182.714	0.109	0.002
-418.471	-146.890	0.205	-0.018
-417.457	95.283	-0.038	-0.044
-416.442	-75.751	0.018	-0.006
-415.428	-73.907	-0.120	-0.044
-414.413	800.000	-0.071	-0.234
-413.398	-137.148	0.206	-0.024
-412.384	35.284	-0.139	-0.123
-411.369	559.642	0.081	0.197
-410.355	-60.472	-0.270	0.116
-409.340	-72.163	0.223	0.083
-408.325	179.000	-0.139	0.205
-407.311	231.517	-0.098	0.161
-406.296	800.000	0.082	0.260
-405.282	-133.793	-0.308	-0.039
-404.267	800.000	-0.025	-0.088
-403.252	132.874	-0.032	-0.041
-402.238	48.162	-0.139	0.131
-401.223	35.416	-0.141	-0.124
-400.209	-154.121	-0.247	-0.017
-399.194	-70.345	0.260	-0.100
-398.179	297.677	-0.061	0.113
-397.165	-200.000	-0.027	0.608
-396.150	50.214	-0.107	0.102
-395.136	-86.048	0.194	0.060
-394.121	374.552	0.169	-0.347
-393.106	99.171	0.121	0.141
-392.092	-200.000	-0.013	0.094
-391.077	-200.000	0.005	0.143
-390.063	-149.763	0.140	-0.011
-389.048	800.000	-0.017	0.054
-388.033	800.000	0.045	-0.197
-387.019	-83.133	0.265	-0.086
-386.004	-133.668	-0.442	0.056
-384.990	-70.790	0.130	0.049
-383.975	10.432	0.051	-0.039
-382.960	65.314	0.121	0.123
-381.946	64.034	-0.171	-0.173
-380.931	725.952	-0.111	0.297
-379.917	-200.000	0.017	-0.208
-378.902	-70.371	0.136	-0.052
-377.888	-200.000	0.014	-0.128
-376.873	-65.433	0.165	0.067
-375.858	96.845	-0.178	0.205
-374.844	-85.234	0.087	0.027
-373.829	226.609	0.127	0.208
-372.815	-129.536	-0.276	-0.038
-371.800	-200.000	0.006	-0.164
-370.785	204.344	-0.149	0.233
-369.771	-200.000	-0.022	-0.105
-368.756	-9.665	-0.176	0.118
-367.742	10.982	-0.185	-0.142
-366.727	-133.405	-0.385	0.049
-365.712	62.694	0.188	0.189
-364.698	142.865	-0.012	0.017
-363.683	-39.307	-0.226	-0.119
-362.669	-200.000	0.005	0.028
-361.654	800.000	0.049	-0.212
-360.639	170.904	-0.038	0.055
-359.625	195.113	-0.197	-0.300
-358.610	-200.000	-0.062	0.365
-357.596	517.271	0.127	-0.300
-356.581	-200.000	-0.061	-0.285
-355.566	800.000	0.112	0.405
-354.552	-64.581	0.361	0.147
-353.537	-54.869	0.140	-0.063
-352.523	525.133	0.084	-0.199
-351.508	56.000	-0.156	-0.152
-350.493	-200.000	-0.008	0.337
-349.479	-200.000	-0.063	0.351
-348.464	281.570	0.127	0.228
-347.450	-59.584	-0.228	-0.098
-346.435	20.917	0.235	0.192
-345.420	-94.189	-0.217	-0.060
-344.406	-69.865	0.113	0.043
-343.391	-200.000	0.038	0.262
-342.377	14.902	0.090	-0.071
-341.362	-28.568	0.160	0.093
-340.348	-200.000	0.028	-0.125
-339.333	-143.232	-0.440	0.042
-338.318	800.000	-0.051	0.168
-337.304	264.976	-0.079	0.138
-336.289	800.000	-0.038	0.116
-335.275	-28.321	0.104	0.061
-334.260	-200.000	0.042	0.362
-333.245	141.312	0.095	0.127
-332.231	-200.000	0.247	0.001
-331.216	800.000	-0.072	0.213
-330.202	101.834	0.272	-0.318
-329.187	-87.025	-0.169	-0.052
-328.172	0.813	-0.117	0.084
-327.158	800.000	-0.089	0.326
-326.143	800.000	0.112	0.312
-325.129	-52.338	0.296	-0.138
-324.114	389.094	-0.044	0.091
-323.099	326.387	-0.219	-0.422
-322.085	800.000	0.042	0.135
-321.070	-111.429	-0.474	0.097
-320.056	-200.000	-0.041	-0.402
-319.041	79.205	0.179	0.192
-318.026	446.586	0.111	-0.244
-317.012	9.175	-0.134	0.102
-315.997	-79.908	-0.073	0.025
-314.983	800.000	0.038	-0.150
-313.968	388.474	-0.136	0.283
-312.953	-130.907	0.236	0.032
-311.939	135.998	0.163	-0.213
-310.924	247.841	-0.222	-0.377
-309.910	602.851	-0.018	0.045
-308.895	-114.095	-0.209	-0.041
-307.880	-69.116	-0.565	0.218
-306.866	-54.392	0.238	-0.108
-305.851	118.610	-0.297	0.368
-304.837	-200.000	0.034	0.249
-303.822	148.576	0.281	0.381
-302.807	528.352	0.025	0.058
-301.793	60.531	-0.070	-0.069
-300.778	-105.651	0.331	0.075
-299.764	775.660	-0.096	0.263
-298.749	94.465	-0.099	-0.113
-297.735	35.879	0.122	-0.107
-296.720	241.106	-0.045	-0.075
-295.705	800.000	0.080	0.249
-294.691	800.000	0.029	-0.128
-293.676	-2.439	0.209	-0.147
-292.662	-200.000	0.032	-0.143
-291.647	-50.697	0.214	-0.101
-290.632	-101.954	-0.177	-0.043
-289.618	-101.734	0.293	-0.071
-288.603	-200.000	0.015	0.302
-287.589	235.012	-0.092	-0.153
-286.574	506.529	-0.101	0.234
-285.559	-41.027	-0.243	0.126
-284.545	232.550	-0.044	-0.073
-283.530	562.356	0.029	-0.071
-282.516	17.821	0.234	-0.187
-281.501	-109.468	-0.204	-0.043
-280.486	233.646	0.182	-0.301
-279.472	349.471	0.117	-0.232
-278.457	200.308	-0.056	-0.087
-277.443	158.186	0.081	0.112
-276.428	284.412	0.083	0.149
-275.413	-200.000	0.058	0.302
-274.399	-54.617	-0.027	-0.012
-273.384	-25.582	-0.250	0.148
-272.370	140.606	-0.099	-0.131
-271.355	581.231	-0.194	-0.476
-270.340	52.908	-0.116	0.111
-269.326	3.445	-0.204	-0.149
-268.311	-123.686	-0.241	0.038
-267.297	129.152	-0.112	-0.144
-266.282	190.025	0.114	0.172
-265.267	-93.911	-0.239	0.066
-264.253	195.037	0.096	-0.146
-263.238	29.367	0.254	-0.216
-262.224	-136.599	0.283	0.033
-261.209	-152.750	-0.274	0.020
-260.195	-139.515	-0.174	-0.019
-259.180	-133.728	-0.179	0.022
-258.165	521.190	0.012	0.028
-257.151	-72.699	0.200	-0.074
-256.136	46.863	0.346	0.322
-255.122	-167.446	0.412	-0.017
-254.107	800.000	0.080	0.270
-253.092	-15.070	0.071	0.045
-252.078	758.501	-0.019	0.052
-251.063	81.524	0.314	0.340
-250.049	-57.799	0.181	-0.079
-249.034	9.947	0.278	0.212
-248.019	63.390	-0.163	0.164
-247.005	-67.231	-0.226	0.089
-245.990	205.488	-0.261	0.405
-244.976	90.692	0.045	0.050
-243.961	763.215	-0.100	0.272
-242.946	-138.150	-0.142	-0.016
-241.932	196.867	-0.097	-0.148
-240.917	-37.929	0.147	0.078
-239.903	800.000	-0.034	-0.118
-238.888	-41.398	0.040	-0.021
-237.873	-200.000	-0.023	0.328
-236.859	125.516	-0.126	-0.159
-235.844	24.700	-0.014	0.012
-234.830	-122.674	-0.347	0.056
-233.815	18.701	-0.050	0.040
-232.800	-60.369	-0.158	0.067
-231.786	-129.201	-0.090	-0.013
-230.771	-6.277	-0.207	0.142
-229.757	5.502	0.191	0.141
-228.742	-163.685	0.156	-0.007
-227.727	-200.000	-0.023	0.102
-226.713	104.673	-0.175	-0.206
-225.698	-131.463	0.194	0.026
-224.684	-79.769	0.194	-0.065
-223.669	-49.714	0.135	-0.064
-222.655	-200.000	0.031	-0.137
-221.640	-47.689	0.167	0.081
-220.625	117.514	0.365	0.449
-219.611	-14.121	0.294	0.190
-218.596	-200.000	-0.006	-0.055
-217.582	79.262	-0.137	-0.147
-216.567	-200.000	-0.003	0.043
-215.552	800.000	0.043	-0.177
-214.538	-200.000	0.023	0.242
-213.523	800.000	0.050	0.156
-212.509	105.730	-0.150	-0.178
-211.494	-29.669	0.122	0.070
-210.479	118.182	0.172	-0.212
-209.465	-0.949	0.104	-0.073
-208.450	-110.310	-0.104	-0.022
-207.436	800.000	-0.041	0.170
-206.421	66.240	0.213	-0.216
-205.406	375.391	-0.105	-0.214
-204.392	-28.110	-0.170	0.098
-203.377	-95.975	0.253	0.067
-202.363	-35.116	0.230	-0.125
-201.348	182.144	0.146	-0.215
-200.333	-112.566	-0.116	-0.023
-199.319	403.005	-0.058	-0.122
-198.304	-66.582	0.305	-0.121
-197.290	-200.000	0.011	0.110
-196.275	-115.192	-0.168	-0.032
-195.260	229.351	0.259	-0.423
-194.246	110.493	0.164	-0.197
-193.231	-26.715	0.364	0.213
-192.217	-200.000	-0.024	0.298
-191.202	800.000	-0.072	-0.206
-190.187	800.000	0.063	-0.245
-189.173	6.348	-0.153	0.113
-188.158	67.301	0.069	-0.070
-187.144	303.815	0.057	0.106
-186.129	-200.000	-0.004	-0.359
-185.114	-43.636	0.077	-0.039
-184.100	800.000	0.018	0.068
-183.085	-200.000	0.001	-0.405
-182.071	-100.615	-0.227	0.056
-181.056	-200.000	0.013	-0.217
-180.042	104.880	-0.272	0.320
-179.027	15.611	0.101	0.079
-178.012	13.414	0.234	-0.182
-176.998	-21.751	0.131	-0.080
-175.983	105.527	-0.224	-0.265
-174.969	39.936	-0.337	-0.303
-173.954	-200.000	-0.006	-0.054
-172.939	-200.000	-0.045	-0.359
-171.925	-200.000	-0.025	-0.368
-170.910	-39.040	-0.091	0.048
-169.896	24.112	-0.080	0.066
-168.881	303.733	0.104	0.192
-167.866	361.899	0.076	-0.152
-166.852	216.517	-0.150	-0.238
-165.837	238.670	0.080	-0.133
-164.823	287.499	-0.118	-0.213
-163.808	132.509	-0.067	-0.087
-162.793	-52.307	0.414	-0.192
-161.779	-70.638	-0.131	-0.049
-160.764	-47.291	0.053	-0.026
-159.750	-89.491	-0.241	0.071
-158.735	7.969	0.145	0.109
-157.720	602.220	0.024	0.058
-156.706	-200.000	-0.016	-0.159
-155.691	-91.028	-0.059	0.017
-154.677	-19.305	0.158	0.098
-153.662	383.734	0.039	0.080
-152.647	2.507	0.265	0.192
-151.633	-200.000	-0.003	0.117
-150.618	590.045	-0.133	0.327
-149.604	121.307	0.025	-0.031
-148.589	-200.000	0.004	-0.148
-147.574	-190.369	-0.306	0.003
-146.560	446.405	0.095	0.207
-145.545	220.454	0.109	-0.175
-144.531	4.341	0.246	0.180
-143.516	-200.000	-0.047	0.280
-142.502	237.141	0.137	-0.226
-141.487	705.578	0.072	-0.189
-140.472	-200.000	0.004	0.315
-139.458	-57.166	-0.235	-0.103
-138.443	321.516	0.130	0.246
-137.429	800.000	-0.053	0.152
-136.414	28.050	0.331	0.279
-135.399	136.515	0.065	0.084
-134.385	1.093	0.044	0.032
-133.370	-141.756	0.106	0.011
-132.356	-200.000	0.034	0.213
-131.341	57.589	-0.086	0.084
-130.326	13.048	-0.154	0.119
-129.312	-200.000	-0.007	0.147
-128.297	-200.000	-0.028	0.194
-127.283	-9.830	0.150	-0.099
-126.268	-75.691	0.518	-0.183
-125.253	-38.379	0.303	0.160
-124.239	-99.909	-0.205	0.051
-123.224	-120.812	-0.012	-0.002
-122.210	-89.898	-0.151	0.044
-121.195	-200.000	0.007	-0.400
-120.180	-200.000	0.000	-0.083
-119.166	60.245	0.186	-0.184
-118.151	250.865	0.098	-0.165
-117.137	-200.000	-0.064	0.299
-116.122	800.000	0.070	0.194
-115.107	-200.000	-0.021	0.350
-114.093	-141.338	0.361	0.037
-113.078	653.222	-0.079	-0.202
-112.064	12.870	0.084	-0.065
-111.049	-30.122	-0.043	0.024
-110.034	800.000	0.060	-0.222
-109.020	183.823	0.184	-0.271
-108.005	-95.721	0.353	-0.094
-106.991	181.709	-0.229	0.335
-105.976	-200.000	0.014	-0.084
-104.962	5.426	0.246	-0.181
-103.947	243.176	-0.193	0.322
-102.932	229.910	0.192	-0.313
-101.918	-164.241	-0.266	0.012
-100.903	17.101	0.107	0.084
-99.889	214.020	-0.131	-0.207
-98.874	-120.519	-0.157	0.026
-97.859	211.814	-0.027	-0.042
-96.845	34.044	0.252	-0.218
-95.830	-200.000	-0.019	-0.130
-94.816	-152.147	0.233	-0.017
-93.801	-2.677	-0.126	0.088
-92.786	68.847	0.147	-0.150
-91.772	-82.665	0.226	-0.073
-90.757	-20.830	0.274	-0.167
-89.743	-200.000	-0.007	0.200
-88.728	-133.587	0.203	0.025
-87.713	327.046	-0.073	0.139
-86.699	105.513	0.211	0.248
-85.684	-106.703	0.103	0.023
-84.670	123.145	0.108	0.135
-83.655	800.000	0.004	0.015
-82.640	1.790	0.280	-0.201
-81.626	-1.838	0.138	0.097
-80.611	800.000	-0.090	0.276
-79.597	-48.038	-0.229	0.110
-78.582	-22.564	0.375	0.225
-77.567	-76.997	0.399	-0.139
-76.553	-127.608	-0.346	-0.050
-75.538	-200.000	0.083	0.500
-74.524	205.297	0.146	-0.225
-73.509	228.756	-0.204	0.331
-72.494	800.000	0.090	0.324
-71.480	551.330	-0.079	0.189
-70.465	-7.670	0.190	-0.128
-69.451	-100.243	-0.284	-0.070
-68.436	-66.041	-0.118	0.047
-67.422	-28.231	0.109	-0.063
-66.407	331.227	-0.025	-0.049
-65.392	393.083	0.160	0.330
-64.378	-7.423	0.161	-0.108
-63.363	430.270	0.203	0.436
-62.349	800.000	-0.085	0.264
-61.334	233.477	-0.600	-0.981
-60.319	800.000	0.109	0.350
-59.305	-200.000	-0.023	-0.677
-58.290	131.894	0.642	0.821
-57.276	800.000	0.370	1.541
-56.261	-200.000	89.164	504.327
-55.246	425.354	1429.469	3059.473
-54.232	141.462	2639.385	3473.006
-53.217	108.972	2241.316	2663.757
-52.203	47.254	1676.658	1551.617
-51.188	39.797	1404.557	1252.661
-50.173	36.533	1360.918	1193.582
-49.159	56.142	1405.333	1355.882
-48.144	60.269	1423.792	1399.495
-47.130	40.460	1381.544	1236.079
-46.115	36.789	1363.536	1197.272
-45.100	36.524	1358.924	1191.538
-44.086	36.438	1356.520	1188.855
-43.071	36.539	1353.630	1186.898
-42.057	36.336	1351.850	1184.041
-41.042	36.438	1350.021	1183.020
-40.027	36.449	1348.482	1181.688
-39.013	36.480	1346.211	1179.845
-37.998	36.575	1343.982	1178.418
-36.984	36.527	1342.642	1176.907
-35.969	36.521	1340.473	1174.921
-34.954	36.717	1338.508	1174.341
-33.940	36.653	1337.147	1172.714
-32.925	36.689	1335.935	1171.823
-31.911	36.710	1334.358	1170.520
-30.896	36.707	1332.703	1169.002
-29.881	36.681	1331.690	1167.912
-28.867	36.679	1330.001	1166.374
-27.852	36.706	1328.224	1164.933
-26.838	36.708	1327.014	1163.833
-25.823	36.555	1325.998	1161.976
-24.809	36.794	1323.856	1161.487
-23.794	36.756	1322.564	1160.083
-22.779	36.670	1321.257	1158.372
-21.765	36.755	1319.578	1157.362
-20.750	36.671	1318.567	1155.931
-19.736	36.538	1317.291	1153.973
-18.721	36.470	1316.593	1152.908
-17.706	36.516	1314.807	1151.575
-16.692	36.541	1313.171	1150.243
-15.677	36.631	1312.223	1149.904
-14.663	36.531	1311.334	1148.485
-13.648	36.455	1310.573	1147.322
-12.633	36.576	1309.252	1146.839
-11.619	36.518	1308.548	1145.830
-10.604	36.436	1307.565	1144.436
-9.590	36.549	1306.436	1144.074
-8.575	36.517	1305.914	1143.382
-7.560	36.594	1304.666	1142.702
-6.546	36.561	1303.884	1141.773
-5.531	36.439	1302.896	1140.144
-4.517	36.429	1302.169	1139.405
-3.502	36.517	1300.580	1138.485
-2.487	36.352	1300.310	1137.234
-1.473	36.586	1296.257	1135.018
-0.458	35.723	1281.535	1117.067
0.556	30.852	1262.486	1077.287
1.571	26.415	1266.396	1054.717
2.586	24.552	1280.045	1054.999
3.600	23.221	1268.287	1037.418
4.615	16.998	1190.924	939.697
5.629	6.202	1108.060	818.321
6.644	0.872	1084.655	773.763
7.659	0.381	1081.928	769.246
8.673	0.229	1080.731	767.554
9.688	0.140	1079.537	766.181
10.702	0.512	1077.801	766.771
11.717	6.213	1086.640	802.131
12.731	15.336	1098.540	857.696
13.746	18.377	1101.207	875.265
14.761	17.425	1098.853	868.461
15.775	16.303	1096.816	861.057
16.790	15.168	1094.964	853.746
17.804	14.494	1093.346	848.975
18.819	14.235	1091.769	846.361
19.834	13.780	1091.046	843.413
20.848	13.587	1089.616	841.250
21.863	13.355	1089.236	839.707
22.877	13.090	1088.859	837.994
23.892	13.212	1087.716	837.660
24.907	13.170	1087.131	836.924
25.921	13.208	1085.962	836.143
26.936	13.254	1084.993	835.555
27.950	13.320	1084.195	835.198
28.965	13.327	1083.079	834.300
29.980	13.371	1082.008	833.626
30.994	13.399	1081.203	833.071
32.009	13.460	1079.978	832.359
33.023	13.577	1078.310	831.586
34.038	13.469	1077.672	830.480
35.053	13.304	1077.081	829.124
36.067	13.392	1076.084	828.725
37.082	13.418	1075.238	828.129
38.096	13.406	1074.454	827.395
39.111	13.468	1073.964	827.254
40.126	13.312	1072.726	825.448
41.140	13.171	1071.853	823.996
42.155	13.222	1069.779	822.585
43.169	13.246	1068.854	821.923
44.184	13.130	1068.191	820.760
45.199	13.219	1066.920	820.155
46.213	13.282	1065.964	819.660
47.228	13.220	1065.316	818.783
48.242	13.309	1063.646	817.867
49.257	13.299	1062.599	816.939
50.271	13.334	1061.677	816.330
51.286	13.370	1060.630	815.632
52.301	13.187	1060.196	814.322
53.315	13.294	1058.636	813.581
54.330	13.363	1057.709	813.132
55.344	13.295	1057.283	812.400
56.359	13.285	1056.319	811.537
57.374	13.277	1055.444	810.758
58.388	13.283	1054.470	809.964
59.403	13.160	1053.827	808.798
60.417	13.067	1053.372	807.920
61.432	13.194	1051.967	807.394
62.447	13.267	1051.174	807.071
63.461	13.137	1050.364	805.739
64.476	13.105	1049.560	804.897
65.490	13.130	1048.608	804.220
66.505	13.209	1047.991	804.059
67.520	13.169	1047.083	803.097
68.534	13.170	1046.328	802.453
69.549	13.158	1046.134	802.171
70.563	13.147	1045.285	801.400
71.578	13.150	1044.300	800.587
72.593	13.094	1043.099	799.325
73.607	12.995	1042.881	798.605
74.622	13.012	1042.099	798.020
75.636	13.126	1040.851	797.545
76.651	13.142	1040.171	797.028
77.666	13.081	1039.968	796.511
78.680	13.124	1039.144	796.014
79.695	13.135	1038.148	795.236
80.709	13.150	1037.450	794.699
81.724	13.243	1036.961	794.702
82.739	13.190	1036.274	793.851
83.753	13.297	1035.731	793.880
84.768	13.326	1034.932	793.335
85.782	13.432	1033.628	792.774
86.797	13.369	1032.793	791.763
87.812	13.166	1031.811	789.970
88.826	13.255	1030.594	789.390
89.841	13.264	1029.876	788.813
90.855	13.298	1028.950	788.197
91.870	13.363	1028.117	787.798
92.884	13.312	1027.799	787.244
93.899	13.351	1026.785	786.584
94.914	13.493	1025.729	786.380
95.928	13.509	1024.513	785.450
96.943	13.353	1024.007	784.255
97.957	13.344	1023.191	783.517
98.972	13.472	1022.311	783.380
99.987	13.429	1021.441	782.443
101.001	13.412	1020.130	781.290
102.016	13.327	1019.577	780.395
103.030	13.417	1018.626	780.023
104.045	13.356	1018.175	779.320
105.060	13.440	1017.036	778.775
106.074	13.288	1016.278	777.410
107.089	13.219	1015.328	776.293
108.103	13.222	1014.465	775.577
109.118	13.257	1013.229	774.726
110.133	13.214	1012.547	773.936
111.147	13.299	1011.377	773.370
112.162	13.336	1010.578	772.862
113.176	13.320	1010.120	772.370
114.191	13.399	1009.187	771.960
115.206	13.317	1008.650	771.096
116.220	13.297	1007.667	770.182
117.235	13.212	1006.766	769.032
118.249	13.364	1005.806	768.936
119.264	13.268	1004.760	767.625
120.279	13.253	1004.248	767.096
121.293	13.351	1003.427	766.851
122.308	13.263	1002.667	765.798
123.322	13.164	1001.749	764.569
124.337	13.283	1000.819	764.345
125.352	13.365	999.189	763.410
126.366	13.333	998.001	762.287
127.381	13.219	997.263	761.130
128.395	13.359	996.082	760.807
129.410	13.388	995.434	760.375
130.424	13.399	994.845	759.910
131.439	13.401	993.862	759.099
132.454	13.300	993.415	758.230
133.468	13.269	993.073	757.760
134.483	13.466	991.659	757.515
135.497	13.378	990.195	755.929
136.512	13.600	989.417	756.277
137.527	13.373	988.981	754.842
138.541	13.479	988.222	754.681
139.556	13.585	987.086	754.231
140.570	13.487	986.599	753.346
141.585	13.622	985.609	753.137
142.600	13.457	984.837	751.729
143.614	13.568	983.591	751.214
144.629	13.493	983.314	750.595
145.643	13.553	982.234	749.980
146.658	13.454	981.290	748.745
147.673	13.480	980.373	748.097
148.687	13.432	979.636	747.249
149.702	13.393	978.702	746.295
150.716	13.453	977.753	745.777
151.731	13.504	977.093	745.438
152.746	13.529	976.456	744.996
153.760	13.596	975.680	744.638
154.775	13.472	975.470	743.857
155.789	13.491	974.795	743.363
156.804	13.615	973.734	743.044
157.819	13.591	973.399	742.612
158.833	13.597	973.235	742.450
159.848	13.642	971.721	741.431
160.862	13.594	971.085	740.663
161.877	13.574	969.538	739.332
162.892	13.590	968.627	738.640
163.906	13.542	967.798	737.731
164.921	13.459	967.386	736.981
165.935	13.558	966.182	736.439
166.950	13.687	965.081	736.105
167.964	13.487	964.846	734.973
168.979	13.621	963.560	734.523
169.994	13.559	962.648	733.491
171.008	13.792	961.916	733.899
172.023	13.777	961.257	733.264
173.037	13.740	960.651	732.574
174.052	13.704	960.027	731.874
175.067	13.671	959.110	730.965
176.081	13.597	958.890	730.404
177.096	13.558	958.207	729.648
178.110	13.769	957.575	730.031
179.125	13.712	957.165	729.404
180.140	13.675	956.543	728.705
181.154	13.722	956.039	728.463
182.169	13.761	955.604	728.235
183.183	13.897	954.799	728.154
184.198	13.809	953.936	727.048
185.213	13.857	953.228	726.655
186.227	13.873	952.442	726.058
187.242	13.947	951.950	725.945
188.256	14.015	951.064	725.498
189.271	13.872	950.397	724.304
190.286	13.814	949.594	723.375
191.300	13.798	948.938	722.741
192.315	13.814	948.500	722.415
193.329	13.713	947.887	721.444
194.344	13.766	947.594	721.387
195.359	13.943	946.221	721.045
196.373	13.886	946.015	720.578
197.388	13.994	945.270	720.415
198.402	13.993	944.720	719.930
199.417	14.108	943.832	719.687
200.432	14.208	943.455	719.765
201.446	14.093	943.107	718.942
202.461	14.148	942.438	718.606
203.475	14.207	941.964	718.436
204.490	14.021	941.054	716.876
205.504	14.133	940.170	716.619
206.519	14.060	939.715	715.896
207.534	14.066	939.150	715.427
208.548	14.155	938.125	714.965
209.563	14.241	937.346	714.678
210.577	14.076	936.903	713.570
211.592	14.290	936.074	713.790
212.607	14.279	935.147	712.973
213.621	14.238	934.563	712.292
214.636	14.191	933.752	711.409
215.650	14.214	933.143	710.979
216.665	14.369	932.258	710.905
217.680	14.412	931.575	710.504
218.694	14.319	931.219	709.775
219.709	14.437	930.291	709.508
220.723	14.408	929.746	708.902
221.738	14.275	929.066	707.758
222.753	14.409	928.690	707.977
223.767	14.631	927.794	708.176
224.782	14.545	927.037	707.168
225.796	14.553	926.825	706.980
226.811	14.468	926.113	706.012
227.826	14.451	925.258	705.228
228.840	14.471	924.526	704.690
229.855	14.578	923.263	704.119
230.869	14.407	922.876	703.039
231.884	14.489	922.257	702.853
232.899	14.411	921.730	702.060
233.913	14.364	921.081	701.306
234.928	14.479	920.294	701.127
235.942	14.472	919.571	700.483
236.957	14.320	919.230	699.526
237.972	14.457	918.357	699.374
238.986	14.551	917.905	699.361
240.001	14.487	917.224	698.511
241.015	14.536	916.513	698.113
242.030	14.626	915.967	698.011
243.045	14.492	915.430	696.981
244.059	14.589	914.730	696.793
245.074	14.615	914.011	696.289
246.088	14.680	913.181	695.865
247.103	14.671	912.758	695.447
248.117	14.877	911.718	695.450
249.132	14.812	911.840	695.212
250.147	14.865	910.932	694.677
251.161	14.840	910.200	693.953
252.176	14.885	909.464	693.516
253.190	15.049	908.620	693.494
254.205	14.983	908.131	692.785
255.220	15.005	907.529	692.354
256.234	14.901	907.240	691.644
257.249	14.952	905.978	690.830
258.263	15.063	905.338	690.739
259.278	15.061	904.584	690.094
260.293	14.918	904.243	689.184
261.307	15.207	903.392	689.662
262.322	15.205	902.872	689.200
263.336	15.112	902.061	688.136
264.351	15.122	901.415	687.622
265.366	15.206	900.714	687.372
266.380	15.177	900.071	686.704
267.395	15.158	899.549	686.163
268.409	15.146	898.677	685.389
269.424	15.183	897.825	684.830
270.439	15.094	897.359	684.050
271.453	15.267	896.387	683.957
272.468	15.080	896.480	683.203
273.482	15.189	895.759	683.037
274.497	15.185	894.797	682.226
275.512	15.182	894.262	681.746
276.526	15.227	893.733	681.466
277.541	15.321	893.007	681.232
278.555	15.333	892.496	680.835
279.570	15.299	892.000	680.255
280.585	15.389	891.184	679.937
281.599	15.470	890.206	679.459
282.614	15.288	889.827	678.373
283.628	15.302	889.189	677.886
284.643	15.379	888.993	677.986
285.657	15.384	887.919	677.126
286.672	15.279	887.557	676.370
287.687	15.452	886.678	676.335
288.701	15.448	885.919	675.680
289.716	15.364	885.560	675.008
290.730	15.497	885.093	675.128
291.745	15.529	884.197	674.514
292.760	15.456	883.801	673.859
293.774	15.608	882.964	673.769
294.789	15.621	881.956	672.992
295.803	15.481	881.816	672.268
296.818	15.461	881.026	671.526
297.833	15.444	880.246	670.804
298.847	15.471	879.694	670.432
299.862	15.571	879.458	670.592
300.876	15.706	878.557	670.383
301.891	15.647	877.958	669.633
302.906	15.604	877.381	668.962
303.920	15.670	877.244	669.060
304.935	15.824	875.907	668.594
305.949	15.866	875.612	668.477
306.964	15.827	874.836	667.668
307.979	15.820	874.328	667.194
308.993	15.844	873.390	666.516
310.008	15.820	873.092	666.133
311.022	15.835	872.635	665.785
312.037	15.860	871.920	665.280
313.052	15.830	871.490	664.774
314.066	15.722	870.925	663.856
315.081	15.769	870.267	663.482
316.095	15.806	869.576	663.042
317.110	15.765	869.081	662.445
318.125	15.790	868.616	662.130
319.139	15.789	868.145	661.708
320.154	15.846	867.595	661.457
321.168	15.830	867.182	661.018
322.183	15.870	866.726	660.770
323.197	15.920	865.816	660.216
324.212	15.917	865.310	659.758
325.227	15.886	864.462	658.933
326.241	15.920	864.494	659.031
327.256	16.116	863.395	658.902
328.270	15.917	862.943	657.721
329.285	15.902	862.316	657.127
330.300	16.114	861.558	657.317
331.314	15.902	861.158	656.126
332.329	15.936	861.139	656.186
333.343	15.970	860.705	655.930
334.358	16.104	859.995	655.854
335.373	16.065	859.613	655.352
336.387	15.987	859.594	654.977
337.402	16.072	859.243	654.980
338.416	16.125	858.868	654.841
339.431	16.190	858.215	654.541
340.446	16.321	857.422	654.385
341.460	16.261	857.296	653.997
342.475	16.368	857.068	654.180
343.489	16.281	856.526	653.370
344.504	16.387	855.856	653.214
345.519	16.366	855.077	652.479
346.533	16.395	854.789	652.314
347.548	16.330	854.399	651.707
348.562	16.310	853.851	651.155
349.577	16.421	853.073	650.930
350.592	16.310	852.330	649.880
351.606	16.353	851.882	649.644
352.621	16.414	850.868	649.051
353.635	16.479	850.317	648.821
354.650	16.272	850.086	647.792
355.665	16.360	849.254	647.438
356.679	16.364	848.728	646.995
357.694	16.564	847.772	646.975
358.708	16.531	847.374	646.489
359.723	16.346	847.002	645.441
360.738	16.392	845.976	644.779
361.752	16.625	845.487	645.236
362.767	16.606	845.061	644.783
363.781	16.735	844.254	644.601
364.796	16.619	843.652	643.643
365.810	16.752	843.563	644.024
366.825	16.702	843.324	643.594
367.840	16.772	842.472	643.151
368.854	16.741	842.280	642.832
369.869	16.766	841.663	642.398
370.883	16.643	841.567	641.803
371.898	16.739	841.119	641.765
372.913	16.815	840.528	641.548
373.927	16.855	840.136	641.342
374.942	16.841	839.731	640.924
375.956	16.939	839.126	640.774
376.971	16.929	838.632	640.303
377.986	16.963	838.213	640.054
379.000	16.980	837.753	639.710
380.015	16.903	837.503	639.173
381.029	17.021	836.678	638.931
382.044	17.061	835.928	638.452
383.059	17.019	835.636	638.017
384.073	17.054	834.883	637.514
385.088	17.122	833.882	636.949
386.102	16.891	834.075	636.173
387.117	16.921	833.580	635.852
388.132	16.995	832.586	635.315
389.146	16.859	832.245	634.488
390.161	17.028	831.485	634.486
391.175	17.058	831.202	634.324
392.190	17.051	830.618	633.799
393.205	16.961	830.308	633.169
394.219	16.980	830.077	633.009
395.234	17.054	829.544	632.822
396.248	17.112	828.825	632.435
397.263	16.982	828.522	631.664
398.278	16.916	828.398	631.265
399.292	16.985	828.227	631.335
400.307	17.161	827.135	631.103
401.321	17.021	826.810	630.278
402.336	17.080	826.272	630.032
403.350	17.099	825.808	629.693
404.365	17.146	825.458	629.546
405.380	17.298	824.858	629.596
406.394	17.266	824.273	628.974
407.409	17.318	823.685	628.663
408.423	17.284	823.603	628.416
409.438	17.431	823.373	628.731
410.453	17.279	823.050	627.864
411.467	17.400	822.303	627.686
412.482	17.419	821.702	627.245
413.496	17.475	821.682	627.377
414.511	17.487	821.022	626.863
415.526	17.347	820.702	626.048
416.540	17.535	820.034	626.175
417.555	17.558	819.460	625.767
418.569	17.591	818.853	625.367
419.584	17.610	818.285	624.949
420.599	17.538	818.178	624.546
421.613	99.841	1280.965	1424.962
422.628	86.043	1348.375	1425.093
