DTS Sentinel unit serial number:	SN413079Multiplexer serial number:	ORYXHardware model number:	OX4-SRSoftware version number:	ORYX F/W v4.00 Oryx Data Collector v3.7.2.0data status	okinstallation	princeton_trtdifferential loss correction	single-endedforward channel	channel 1reverse channel	N/Adate	2019/09/16time	10:34:35forward acquisition time	60.00reverse acquisition time	0.00gamma	496.2192k internal	0.2305k external	0.2305temperature offset calibration	0.9962default loss term (dB/km)	0.3790temperature slope calibration	1.0000multiplexer offset coefficient	1.0000multiplexer slope coefficient	1.0000fibre end	0.00T internal ref (°C)	35.53T ext. ref 1 (°C)	12.59T ext. ref 2 (°C)	33.70length (m)	temperature (°C)	Stokes	anti-Stokes-747.200	-45.442	0.112	0.057
-746.185	-200.000	-0.060	0.370
-745.171	-200.000	0.009	-0.088
-744.156	1.979	0.144	0.106
-743.142	131.828	-0.044	-0.057
-742.127	800.000	0.158	0.443
-741.112	66.785	0.304	0.315
-740.098	38.496	0.088	-0.079
-739.083	-200.000	-0.034	-0.238
-738.069	-200.000	-0.038	0.377
-737.054	-39.654	-0.407	0.217
-736.039	128.243	0.100	0.130
-735.025	-17.683	0.193	0.123
-734.010	-63.997	-0.143	-0.059
-732.996	-84.506	0.217	-0.070
-731.981	-111.083	-0.024	0.005
-730.966	-62.908	0.166	0.070
-729.952	-200.000	0.001	-0.153
-728.937	-88.694	0.154	0.046
-727.923	800.000	-0.086	-0.358
-726.908	351.407	-0.186	0.374
-725.894	-200.000	-0.005	-0.060
-724.879	385.116	-0.135	-0.284
-723.864	46.212	-0.281	0.265
-722.850	0.577	-0.065	-0.047
-721.835	-200.000	-0.032	0.211
-720.821	-200.000	0.012	-0.078
-719.806	133.448	-0.248	-0.326
-718.791	-200.000	-0.036	-0.289
-717.777	800.000	0.059	0.226
-716.762	250.877	0.157	-0.272
-715.748	-23.310	0.188	-0.115
-714.733	-24.591	0.226	-0.137
-713.718	32.785	-0.225	-0.198
-712.704	753.725	-0.115	0.317
-711.689	57.407	-0.248	-0.246
-710.675	-34.071	0.342	-0.191
-709.660	-123.315	-0.309	-0.050
-708.645	-105.926	0.296	-0.068
-707.631	-128.421	-0.198	0.029
-706.616	120.748	0.070	0.088
-705.602	-34.368	-0.188	-0.105
-704.587	211.746	-0.088	0.141
-703.572	-118.797	0.216	-0.039
-702.558	49.147	-0.192	0.183
-701.543	172.395	0.116	0.169
-700.529	-200.000	0.037	0.183
-699.514	-125.159	-0.117	0.018
-698.499	16.741	-0.210	0.169
-697.485	-59.962	-0.028	0.012
-696.470	22.961	0.214	0.178
-695.456	2.882	-0.238	0.175
-694.441	800.000	-0.149	-0.482
-693.426	-200.000	0.011	-0.304
-692.412	163.338	0.355	-0.507
-691.397	371.987	0.059	-0.122
-690.383	-174.388	-0.245	0.007
-689.368	735.979	-0.079	-0.215
-688.354	-61.369	0.029	0.012
-687.339	173.205	0.108	0.158
-686.324	442.835	0.125	0.279
-685.310	169.444	-0.223	-0.324
-684.295	800.000	-0.073	0.206
-683.281	-200.000	-0.021	0.134
-682.266	-200.000	-0.007	-0.086
-681.251	-120.659	-0.178	-0.031
-680.237	384.291	-0.166	-0.348
-679.222	621.756	-0.134	-0.342
-678.208	-179.876	-0.216	-0.005
-677.193	800.000	0.151	-0.433
-676.178	-200.000	-0.047	0.216
-675.164	29.103	-0.107	0.092
-674.149	92.901	-0.283	0.324
-673.135	104.890	0.060	0.072
-672.120	515.201	-0.073	0.173
-671.105	-200.000	0.038	0.248
-670.091	20.325	0.172	-0.141
-669.076	-94.247	-0.244	-0.068
-668.062	-115.679	-0.144	-0.027
-667.047	34.331	0.074	0.065
-666.032	210.392	0.076	0.121
-665.018	-200.000	-0.007	-0.084
-664.003	-200.000	0.027	0.194
-662.989	-129.483	0.391	-0.055
-661.974	-141.237	0.165	0.017
-660.959	-78.090	-0.069	-0.024
-659.945	222.017	-0.159	0.260
-658.930	723.880	0.006	0.017
-657.916	-129.449	0.130	-0.018
-656.901	-200.000	-0.049	-0.247
-655.886	15.457	-0.095	-0.075
-654.872	-45.151	-0.158	0.080
-653.857	450.172	-0.011	-0.025
-652.843	71.135	0.158	0.166
-651.828	-155.122	0.238	0.016
-650.814	-200.000	0.007	0.290
-649.799	-10.764	-0.232	-0.155
-648.784	-58.055	0.244	0.108
-647.770	-200.000	-0.001	0.030
-646.755	-137.605	-0.185	-0.021
-645.741	444.049	-0.051	0.114
-644.726	295.444	-0.090	-0.166
-643.711	217.063	0.081	-0.131
-642.697	-59.911	0.020	0.009
-641.682	10.843	-0.284	-0.220
-640.668	168.404	0.074	-0.106
-639.653	-97.197	0.198	0.052
-638.638	339.929	0.041	0.081
-637.624	775.163	-0.034	-0.095
-636.609	162.031	0.089	0.127
-635.595	226.932	-0.070	0.116
-634.580	61.994	-0.153	0.154
-633.565	800.000	-0.063	0.180
-632.551	85.735	0.158	0.177
-631.536	-200.000	0.032	-0.515
-630.522	227.529	0.117	-0.192
-629.507	-74.483	-0.331	0.121
-628.492	-58.851	0.298	0.130
-627.478	-84.199	0.142	0.046
-626.463	-104.238	0.072	-0.017
-625.449	800.000	0.048	0.145
-624.434	800.000	0.027	0.098
-623.419	696.367	0.085	-0.226
-622.405	-200.000	-0.018	0.130
-621.390	-113.067	0.187	-0.037
-620.376	800.000	-0.091	0.290
-619.361	51.920	-0.341	-0.329
-618.346	69.360	-0.122	-0.128
-617.332	-85.049	0.140	-0.044
-616.317	380.057	0.130	-0.271
-615.303	162.173	0.189	0.268
-614.288	141.145	0.109	0.146
-613.273	800.000	0.139	-0.492
-612.259	737.599	0.074	-0.200
-611.244	151.336	0.087	0.120
-610.230	-121.676	-0.386	-0.065
-609.215	-200.000	0.006	0.132
-608.201	-200.000	-0.012	-0.215
-607.186	-131.592	0.243	-0.032
-606.171	168.533	-0.145	0.209
-605.157	266.408	0.200	0.354
-604.142	142.415	-0.080	0.108
-603.128	-106.325	-0.219	-0.050
-602.113	-69.670	-0.407	0.157
-601.098	-116.057	0.256	-0.048
-600.084	197.956	0.200	-0.309
-599.069	-146.059	-0.030	0.003
-598.055	683.452	-0.129	-0.340
-597.040	405.068	-0.208	-0.445
-596.025	120.221	-0.154	0.193
-595.011	-200.000	0.010	-0.059
-593.996	-200.000	0.037	0.339
-592.982	126.301	0.126	-0.161
-591.967	-62.665	0.204	0.085
-590.952	35.320	0.153	-0.135
-589.938	800.000	0.073	0.263
-588.923	235.224	-0.050	-0.083
-587.909	-39.149	0.316	0.168
-586.894	75.711	-0.319	-0.341
-585.879	800.000	0.040	0.139
-584.865	-88.160	-0.249	0.075
-583.850	-200.000	-0.028	-0.192
-582.836	-200.000	-0.070	-0.362
-581.821	-135.899	0.039	-0.005
-580.806	-40.569	0.344	-0.180
-579.792	-200.000	-0.021	-0.188
-578.777	16.382	-0.366	0.292
-577.763	154.719	0.127	-0.177
-576.748	-29.360	0.132	0.076
-575.733	-30.398	-0.297	0.170
-574.719	-200.000	0.039	-0.413
-573.704	-200.000	-0.030	-0.322
-572.690	59.907	0.131	0.131
-571.675	-52.455	0.092	-0.043
-570.661	503.537	0.053	-0.125
-569.646	-134.491	0.376	0.046
-568.631	-89.184	-0.481	0.143
-567.617	177.464	0.290	-0.427
-566.602	800.000	0.102	-0.447
-565.588	800.000	-0.066	-0.195
-564.573	-157.414	0.405	0.025
-563.558	-135.579	-0.141	0.017
-562.544	800.000	-0.042	0.170
-561.529	-92.375	0.219	-0.062
-560.515	143.399	-0.029	-0.039
-559.500	-104.449	0.477	-0.111
-558.485	800.000	0.090	0.280
-557.471	-85.950	-0.174	-0.054
-556.456	-78.241	0.184	0.064
-555.442	71.406	0.164	0.172
-554.427	-10.573	-0.068	-0.046
-553.412	-64.988	-0.294	-0.120
-552.398	-200.000	0.032	0.293
-551.383	197.892	0.106	-0.163
-550.369	79.659	0.163	0.177
-549.354	302.898	-0.078	-0.145
-548.339	261.742	-0.042	-0.073
-547.325	283.026	0.124	0.226
-546.310	800.000	0.077	-0.245
-545.296	800.000	-0.064	0.228
-544.281	-29.866	-0.116	0.067
-543.266	-21.374	0.114	0.070
-542.252	-148.042	-0.483	-0.040
-541.237	-125.812	-0.237	-0.036
-540.223	-200.000	0.073	0.354
-539.208	-154.968	-0.173	-0.012
-538.193	1.873	0.265	-0.193
-537.179	24.514	0.227	-0.189
-536.164	-200.000	0.032	-0.150
-535.150	800.000	-0.091	-0.286
-534.135	800.000	0.074	-0.209
-533.121	88.254	-0.189	0.212
-532.106	-200.000	0.032	0.280
-531.091	-152.563	-0.140	0.010
-530.077	-200.000	-0.001	-0.033
-529.062	-200.000	0.000	-0.187
-528.048	31.887	-0.109	0.095
-527.033	-200.000	0.006	-0.201
-526.018	-65.420	-0.179	0.072
-525.004	0.108	-0.302	0.217
-523.989	-35.114	0.265	0.146
-522.975	96.913	-0.148	-0.171
-521.960	-76.452	0.015	-0.005
-520.945	800.000	0.069	-0.241
-519.931	46.060	-0.156	0.146
-518.916	-51.651	0.277	-0.130
-517.902	-67.997	0.230	0.091
-516.887	-37.068	-0.076	-0.041
-515.872	89.002	-0.035	-0.040
-514.858	478.116	-0.101	0.231
-513.843	-200.000	0.048	0.247
-512.829	349.230	-0.174	0.346
-511.814	44.073	0.016	0.015
-510.799	-99.477	0.195	0.050
-509.785	15.272	0.048	0.038
-508.770	144.765	-0.112	0.152
-507.756	-200.000	0.056	-0.285
-506.741	-200.000	-0.001	0.156
-505.726	-62.490	0.274	0.115
-504.712	800.000	0.087	-0.246
-503.697	379.583	0.115	0.238
-502.683	-59.454	0.294	-0.127
-501.668	-27.051	0.509	-0.300
-500.653	-9.524	-0.131	0.088
-499.639	6.550	0.164	-0.123
-498.624	62.097	0.083	0.083
-497.610	425.667	0.155	0.336
-496.595	-76.211	-0.319	-0.113
-495.581	-200.000	-0.014	-0.375
-494.566	-200.000	0.068	-0.310
-493.551	434.087	0.070	0.153
-492.537	-200.000	0.045	0.251
-491.522	11.280	-0.099	-0.076
-490.508	-200.000	0.045	0.276
-489.493	-38.432	-0.078	-0.042
-488.478	80.640	-0.170	0.185
-487.464	-5.998	-0.268	0.185
-486.449	-200.000	-0.015	-0.275
-485.435	345.474	0.163	-0.323
-484.420	800.000	0.030	-0.097
-483.405	167.811	-0.104	-0.149
-482.391	137.921	0.058	-0.077
-481.376	640.519	-0.096	0.247
-480.362	91.822	-0.063	0.071
-479.347	251.214	-0.099	-0.170
-478.332	127.818	0.128	-0.163
-477.318	-161.549	-0.333	0.017
-476.303	527.567	-0.119	-0.282
-475.289	-151.761	0.245	0.018
-474.274	592.893	0.111	-0.277
-473.259	-36.934	-0.294	-0.159
-472.245	24.437	-0.113	0.094
-471.230	-171.827	-0.215	-0.007
-470.216	429.636	-0.062	0.134
-469.201	181.865	-0.284	-0.421
-468.186	-200.000	0.007	-0.183
-467.172	-200.000	-0.038	0.333
-466.157	681.054	-0.047	-0.123
-465.143	-171.135	-0.219	0.007
-464.128	304.969	0.116	-0.218
-463.113	-102.580	0.346	-0.083
-462.099	-86.222	-0.310	0.096
-461.084	-99.402	0.434	0.110
-460.070	-154.941	-0.164	0.011
-459.055	205.004	0.089	0.139
-458.040	-200.000	0.018	0.123
-457.026	-119.243	0.215	-0.038
-456.011	-200.000	-0.032	-0.430
-454.997	153.956	-0.025	0.035
-453.982	131.587	0.128	-0.165
-452.968	-31.570	-0.277	-0.156
-451.953	-114.693	-0.413	0.080
-450.938	-29.828	-0.140	-0.080
-449.924	-30.197	-0.118	-0.068
-448.909	-77.431	0.203	-0.071
-447.895	27.193	-0.124	0.104
-446.880	115.189	-0.111	0.136
-445.865	-200.000	-0.188	-0.000
-444.851	-200.000	0.016	0.155
-443.836	8.871	-0.290	-0.220
-442.822	-28.874	0.050	0.029
-441.807	-200.000	0.090	0.465
-440.792	-98.313	-0.155	-0.040
-439.778	-200.000	0.053	0.302
-438.763	-139.141	-0.268	0.029
-437.749	-143.718	0.290	0.028
-436.734	-200.000	-0.048	-0.270
-435.719	702.597	-0.067	-0.178
-434.705	-200.000	-0.023	0.130
-433.690	119.467	-0.285	0.355
-432.676	319.609	0.101	0.192
-431.661	800.000	0.072	-0.295
-430.646	800.000	-0.077	-0.334
-429.632	1.147	0.272	-0.196
-428.617	12.824	0.085	0.066
-427.603	-106.804	-0.142	-0.032
-426.588	-56.310	-0.297	0.133
-425.573	-200.000	0.005	-0.297
-424.559	-86.295	-0.158	-0.049
-423.544	-200.000	0.032	-0.252
-422.530	800.000	-0.065	0.192
-421.515	-21.489	0.172	-0.106
-420.500	220.772	0.118	0.190
-419.486	36.335	0.134	0.119
-418.471	-200.000	0.044	-0.332
-417.457	-9.203	0.079	0.053
-416.442	800.000	0.100	0.287
-415.428	-35.200	-0.247	0.135
-414.413	232.601	0.057	-0.093
-413.398	-157.175	0.237	0.014
-412.384	383.397	-0.065	-0.135
-411.369	31.695	-0.318	-0.275
-410.355	89.458	0.042	0.047
-409.340	-103.038	-0.332	-0.079
-408.325	99.359	0.136	0.158
-407.311	300.014	0.139	0.257
-406.296	800.000	-0.103	-0.337
-405.282	120.075	0.239	0.298
-404.267	-200.000	0.006	0.146
-403.252	-112.898	-0.312	0.062
-402.238	-158.461	-0.221	-0.013
-401.223	16.033	0.137	0.108
-400.209	-50.014	-0.292	0.139
-399.194	512.443	-0.079	0.185
-398.179	-200.000	-0.002	0.327
-397.165	69.137	0.060	0.062
-396.150	800.000	-0.035	-0.123
-395.136	-200.000	-0.025	0.127
-394.121	-128.958	-0.049	0.007
-393.106	-200.000	0.021	-0.401
-392.092	-116.129	0.175	-0.033
-391.077	-200.000	0.018	-0.130
-390.063	-200.000	0.028	0.220
-389.048	-17.802	-0.161	-0.102
-388.033	-116.659	0.156	0.029
-387.019	-200.000	0.143	0.000
-386.004	197.672	-0.114	-0.175
-384.990	-1.784	0.044	-0.031
-383.975	800.000	0.126	-0.496
-382.960	705.439	-0.153	0.406
-381.946	-200.000	0.006	0.667
-380.931	-79.021	-0.284	0.097
-379.917	-115.640	-0.054	0.010
-378.902	70.785	0.176	0.183
-377.888	-69.105	0.105	-0.041
-376.873	800.000	-0.067	-0.212
-375.858	800.000	0.031	-0.113
-374.844	403.708	0.079	0.167
-373.829	-1.815	0.243	-0.171
-372.815	-200.000	-0.030	0.156
-371.800	469.003	0.096	-0.217
-370.785	-200.000	-0.045	-0.323
-369.771	234.916	0.221	0.366
-368.756	-118.244	0.193	0.034
-367.742	181.765	-0.101	0.149
-366.727	96.101	0.109	-0.125
-365.712	-52.070	-0.167	-0.078
-364.698	-37.433	0.072	0.039
-363.683	-31.609	-0.168	-0.094
-362.669	773.257	0.044	-0.120
-361.654	-144.992	-0.274	-0.025
-360.639	-70.867	-0.043	0.016
-359.625	-157.680	0.048	0.003
-358.610	-200.000	0.078	0.362
-357.596	-2.001	-0.189	-0.133
-356.581	800.000	0.057	-0.186
-355.566	-119.628	0.360	-0.062
-354.552	-200.000	0.056	-0.307
-353.537	49.331	-0.372	0.351
-352.523	-43.018	0.210	-0.107
-351.508	251.105	-0.100	-0.171
-350.493	-200.000	0.034	-0.343
-349.479	46.791	0.229	0.213
-348.464	-144.501	0.335	0.031
-347.450	-200.000	0.054	-0.311
-346.435	-101.907	-0.399	0.097
-345.420	461.464	-0.108	0.240
-344.406	579.483	0.160	0.392
-343.391	-40.226	0.333	-0.174
-342.377	228.977	-0.129	-0.211
-341.362	53.366	-0.086	-0.082
-340.348	800.000	0.092	0.276
-339.333	-74.213	0.198	-0.072
-338.318	-141.592	0.265	-0.027
-337.304	-200.000	-0.041	0.204
-336.289	-200.000	-0.045	-0.225
-335.275	-131.131	0.135	0.018
-334.260	800.000	-0.041	-0.127
-333.245	-50.142	0.184	0.087
-332.231	413.529	-0.129	-0.274
-331.216	237.152	-0.154	0.255
-330.202	-200.000	-0.030	0.308
-329.187	-200.000	-0.007	0.060
-328.172	800.000	-0.124	-0.369
-327.158	-114.893	-0.438	0.084
-326.143	-26.380	-0.075	-0.044
-325.129	-200.000	-0.031	0.193
-324.114	800.000	-0.048	0.163
-323.099	-200.000	-0.075	0.385
-322.085	-120.611	0.545	-0.093
-321.070	416.241	0.050	-0.107
-320.056	800.000	-0.098	0.271
-319.041	4.360	-0.216	0.158
-318.026	-69.162	0.146	0.056
-317.012	-75.884	-0.281	0.100
-315.997	-76.583	-0.248	-0.087
-314.983	800.000	0.092	-0.259
-313.968	-200.000	0.059	0.270
-312.953	800.000	0.023	-0.079
-311.939	800.000	0.027	-0.092
-310.924	-1.327	-0.319	0.226
-309.910	-200.000	0.031	0.482
-308.895	-200.000	-0.057	0.449
-307.880	79.601	0.054	0.058
-306.866	-33.923	-0.171	0.094
-305.851	316.089	-0.164	0.310
-304.837	-53.464	-0.041	0.019
-303.822	-200.000	-0.025	0.256
-302.807	48.763	0.216	-0.203
-301.793	16.407	0.130	-0.102
-300.778	342.983	-0.021	0.041
-299.764	324.234	0.111	-0.211
-298.749	25.664	0.273	0.227
-297.735	800.000	0.053	-0.211
-296.720	-73.832	-0.260	-0.094
-295.705	173.258	-0.070	-0.101
-294.691	-90.963	-0.176	0.051
-293.676	-103.960	-0.274	-0.064
-292.662	380.699	0.068	-0.140
-291.647	800.000	0.058	0.205
-290.632	509.081	0.090	0.208
-289.618	207.165	0.123	0.192
-288.603	218.105	-0.113	0.180
-287.589	-35.088	0.129	0.071
-286.574	-200.000	0.007	-0.246
-285.559	-98.696	-0.137	-0.035
-284.545	-200.000	-0.030	0.192
-283.530	369.846	-0.150	0.303
-282.516	32.850	-0.372	0.322
-281.501	-45.146	-0.205	-0.102
-280.486	689.305	-0.101	-0.265
-279.472	-174.495	-0.216	-0.006
-278.457	-80.743	0.362	-0.120
-277.443	-138.537	0.075	0.008
-276.428	-157.035	0.275	0.017
-275.413	-36.125	0.290	0.157
-274.399	-42.454	0.194	0.099
-273.384	-200.000	-0.006	0.221
-272.370	291.092	0.098	0.178
-271.355	-7.885	-0.139	0.094
-270.340	254.451	-0.026	0.044
-269.326	29.051	0.120	-0.102
-268.311	42.151	0.118	-0.107
-267.297	-109.942	-0.336	-0.070
-266.282	-80.734	-0.223	0.074
-265.267	159.838	0.202	0.281
-264.253	-80.000	0.364	-0.122
-263.238	17.728	0.012	-0.010
-262.224	184.043	-0.220	-0.326
-261.209	132.770	-0.061	0.079
-260.195	-200.000	0.063	-0.385
-259.180	-200.000	-0.007	-0.116
-258.165	533.723	-0.053	-0.124
-257.151	-200.000	0.010	0.341
-256.136	2.146	0.279	0.201
-255.122	-200.000	-0.015	-0.333
-254.107	85.017	0.058	-0.064
-253.092	-200.000	0.044	-0.213
-252.078	800.000	0.234	-0.714
-251.063	800.000	-0.040	0.159
-250.049	22.863	-0.135	0.110
-249.034	110.456	-0.124	0.148
-248.019	92.799	0.225	0.253
-247.005	81.517	0.351	-0.379
-245.990	212.154	0.168	0.264
-244.976	-200.000	0.025	0.108
-243.961	230.578	-0.063	0.103
-242.946	-1.113	0.107	0.075
-241.932	-200.000	0.029	0.233
-240.917	-200.000	0.012	0.229
-239.903	104.910	-0.195	0.230
-238.888	-200.000	0.037	-0.246
-237.873	-57.827	0.044	0.019
-236.859	-200.000	-0.030	-0.330
-235.844	649.761	0.074	-0.189
-234.830	-121.321	-0.222	-0.037
-233.815	310.105	-0.054	-0.101
-232.800	7.214	-0.356	-0.265
-231.786	-78.630	-0.092	0.031
-230.771	111.214	0.040	0.049
-229.757	-70.825	0.153	-0.058
-228.742	-11.875	-0.273	0.179
-227.727	-176.228	-0.350	-0.009
-226.713	-72.250	0.301	-0.111
-225.698	-4.176	-0.179	-0.124
-224.684	35.449	-0.261	-0.228
-223.669	6.708	0.086	0.064
-222.655	110.680	-0.140	-0.168
-221.640	114.597	-0.067	0.081
-220.625	505.193	0.122	0.283
-219.611	82.470	-0.111	0.120
-218.596	-41.420	0.382	-0.196
-217.582	9.861	0.173	-0.131
-216.567	651.375	0.074	0.188
-215.552	-176.134	-0.055	-0.001
-214.538	-141.471	0.172	-0.017
-213.523	800.000	-0.065	-0.280
-212.509	-131.904	0.296	-0.039
-211.494	-142.325	-0.170	-0.017
-210.479	-8.318	-0.277	0.186
-209.465	7.305	0.245	0.182
-208.450	690.231	0.053	-0.139
-207.436	-73.728	0.194	0.070
-206.421	15.075	0.091	-0.071
-205.406	-102.205	-0.156	-0.037
-204.392	334.301	-0.153	-0.295
-203.377	90.775	0.033	0.037
-202.363	11.182	-0.249	-0.190
-201.348	-200.000	0.001	0.319
-200.333	-200.000	0.003	0.225
-199.319	86.958	0.296	0.326
-198.304	760.032	0.032	-0.087
-197.290	383.618	-0.072	-0.148
-196.275	317.494	0.128	-0.242
-195.260	44.525	-0.080	-0.074
-194.246	186.377	0.313	0.464
-193.231	273.289	0.152	0.267
-192.217	-200.000	-0.073	-0.345
-191.202	-81.845	-0.466	-0.152
-190.187	413.146	0.177	0.375
-189.173	151.295	0.077	0.104
-188.158	800.000	0.088	0.328
-187.144	-101.307	-0.164	0.040
-186.129	47.276	-0.128	0.118
-185.114	12.472	0.249	0.191
-184.100	144.842	0.104	-0.139
-183.085	800.000	0.037	-0.153
-182.071	37.833	0.125	0.110
-181.056	659.531	-0.034	-0.088
-180.042	240.239	0.227	0.377
-179.027	-200.000	0.040	-0.186
-178.012	-3.211	-0.135	0.094
-176.998	-200.000	-0.037	-0.368
-175.983	-101.949	-0.167	0.040
-174.969	-134.636	0.322	0.039
-173.954	-39.015	0.084	-0.044
-172.939	163.265	-0.123	-0.173
-171.925	-107.889	0.144	0.031
-170.910	66.734	0.244	-0.247
-169.896	-114.816	-0.196	0.037
-168.881	272.167	0.050	-0.088
-167.866	-166.959	-0.263	0.011
-166.852	-200.000	0.011	0.123
-165.837	-77.889	-0.163	0.056
-164.823	-134.400	0.208	-0.025
-163.808	67.931	-0.089	0.091
-162.793	68.303	-0.124	-0.127
-161.779	-155.663	0.161	0.010
-160.764	248.696	-0.176	-0.297
-159.750	24.000	-0.181	-0.149
-158.735	274.233	-0.212	0.373
-157.720	-123.585	-0.121	0.019
-156.706	-74.240	-0.466	0.168
-155.691	-32.346	0.035	-0.019
-154.677	116.262	0.121	0.147
-153.662	11.058	0.251	0.191
-152.647	-60.290	0.225	0.095
-151.633	-151.116	0.193	0.014
-150.618	-137.277	0.163	0.018
-149.604	-138.239	0.168	0.018
-148.589	-200.000	-0.026	0.251
-147.574	-116.165	-0.102	-0.019
-146.560	-200.000	-0.007	0.159
-145.545	342.712	-0.022	0.043
-144.531	-200.000	0.021	-0.094
-143.516	69.696	0.193	0.198
-142.502	442.687	-0.123	-0.268
-141.487	299.731	-0.187	-0.343
-140.472	-200.000	0.019	-0.144
-139.458	-78.679	-0.186	0.063
-138.443	800.000	0.054	0.180
-137.429	419.887	0.039	0.083
-136.414	-152.007	0.345	-0.025
-135.399	147.100	0.289	0.386
-134.385	-59.350	0.203	-0.087
-133.370	29.277	-0.040	-0.034
-132.356	-200.000	0.008	0.174
-131.341	-37.072	0.222	0.118
-130.326	283.541	-0.101	-0.181
-129.312	18.923	-0.211	-0.168
-128.297	509.520	0.183	0.423
-127.283	82.706	0.222	-0.240
-126.268	-200.000	-0.008	-0.048
-125.253	-92.693	-0.043	-0.012
-124.239	54.557	-0.151	0.145
-123.224	700.108	-0.023	-0.061
-122.210	-200.000	-0.005	-0.066
-121.195	-200.000	-0.005	0.053
-120.180	134.398	0.126	-0.162
-119.166	7.254	0.161	-0.120
-118.151	-40.320	-0.246	0.127
-117.137	486.030	-0.195	-0.441
-116.122	-59.005	0.038	-0.016
-115.107	-200.000	0.002	0.155
-114.093	-76.966	-0.083	-0.029
-113.078	-69.002	0.015	-0.006
-112.064	-81.742	0.220	-0.072
-111.049	-130.741	0.340	-0.045
-110.034	-155.172	0.193	0.013
-109.020	-23.391	0.319	0.190
-108.005	-200.000	0.031	-0.155
-106.991	-85.128	-0.060	0.019
-105.976	90.947	-0.086	0.096
-104.962	-1.473	0.127	-0.089
-103.947	531.034	0.141	-0.330
-102.932	548.413	-0.092	-0.218
-101.918	-75.743	-0.191	-0.067
-100.903	-200.000	0.022	-0.466
-99.889	-200.000	0.041	0.205
-98.874	129.630	0.091	0.116
-97.859	53.351	0.161	-0.153
-96.845	800.000	-0.140	0.510
-95.830	-22.800	0.108	0.065
-94.816	-119.044	0.073	0.013
-93.801	-33.862	-0.138	0.076
-92.786	-21.162	-0.229	0.139
-91.772	-200.000	-0.018	0.287
-90.757	-87.265	0.125	-0.038
-89.743	515.769	-0.132	0.306
-88.728	-200.000	0.011	-0.343
-87.713	-200.000	-0.002	-0.027
-86.699	371.210	0.048	-0.096
-85.684	-143.940	0.291	0.027
-84.670	445.301	0.041	0.090
-83.655	-200.000	-0.011	-0.182
-82.640	227.739	-0.247	0.398
-81.626	408.899	0.084	-0.177
-80.611	188.448	-0.117	0.173
-79.597	-69.206	-0.131	-0.050
-78.582	109.181	0.167	0.198
-77.567	-200.000	0.082	-0.363
-76.553	-200.000	0.149	-0.000
-75.538	54.021	-0.033	0.031
-74.524	275.620	0.169	0.298
-73.509	800.000	-0.065	0.213
-72.494	-156.726	0.258	0.016
-71.480	79.277	-0.073	0.077
-70.465	-200.000	-0.022	-0.166
-69.451	70.371	-0.164	-0.168
-68.436	-105.635	-0.114	-0.026
-67.422	800.000	-0.059	0.243
-66.407	-25.133	0.165	0.097
-65.392	-200.000	0.008	0.094
-64.378	481.972	0.053	-0.118
-63.363	22.007	0.300	0.242
-62.349	25.022	0.294	0.242
-61.334	53.338	-0.494	-0.469
-60.319	230.787	0.295	0.478
-59.305	-200.000	0.141	-0.812
-58.290	239.039	0.646	1.065
-57.276	537.198	0.714	1.679
-56.261	-200.000	91.366	531.531
-55.246	472.404	1423.802	3177.207
-54.232	144.136	2633.397	3481.000
-53.217	110.826	2235.390	2665.156
-52.203	46.853	1673.590	1540.987
-51.188	38.944	1403.186	1242.171
-50.173	35.752	1360.036	1184.306
-49.159	54.853	1406.297	1344.623
-48.144	58.615	1425.053	1386.077
-47.130	39.200	1381.353	1224.245
-46.115	35.684	1363.010	1186.292
-45.100	35.529	1358.228	1181.129
-44.086	35.508	1355.282	1178.392
-43.071	35.328	1353.262	1175.485
-42.057	35.247	1351.604	1173.501
-41.042	35.425	1349.308	1172.548
-40.027	35.323	1347.827	1170.594
-39.013	35.386	1345.981	1169.329
-37.998	35.430	1343.841	1167.687
-36.984	35.569	1341.929	1166.828
-35.969	35.581	1340.152	1165.308
-34.954	35.472	1338.426	1163.102
-33.940	35.595	1337.252	1162.776
-32.925	35.571	1335.984	1161.482
-31.911	35.752	1333.600	1160.456
-30.896	35.759	1332.338	1159.359
-29.881	35.698	1331.223	1157.972
-28.867	35.786	1329.615	1157.060
-27.852	35.657	1328.707	1155.446
-26.838	35.659	1326.722	1153.686
-25.823	35.750	1325.396	1153.033
-24.809	35.647	1323.776	1150.960
-23.794	35.571	1322.488	1149.342
-22.779	35.555	1321.204	1148.082
-21.765	35.653	1319.833	1147.428
-20.750	35.574	1318.507	1145.760
-19.736	35.495	1317.082	1144.007
-18.721	35.450	1315.856	1142.630
-17.706	35.390	1314.780	1141.294
-16.692	35.446	1313.575	1140.536
-15.677	35.549	1312.313	1140.003
-14.663	35.465	1311.491	1138.747
-13.648	35.412	1309.949	1137.049
-12.633	35.413	1309.068	1136.244
-11.619	35.462	1308.243	1135.775
-10.604	35.535	1307.056	1135.130
-9.590	35.418	1306.089	1133.555
-8.575	35.428	1305.130	1132.736
-7.560	35.403	1304.994	1132.425
-6.546	35.383	1303.691	1131.130
-5.531	35.378	1302.869	1130.345
-4.517	35.409	1301.560	1129.347
-3.502	35.510	1300.589	1129.055
-2.487	35.443	1299.930	1128.041
-1.473	35.628	1295.781	1125.480
-0.458	34.864	1281.462	1108.570
0.556	30.137	1263.730	1071.749
1.571	26.604	1268.418	1055.086
2.586	25.333	1283.377	1059.936
3.600	24.218	1271.915	1043.852
4.615	20.963	1201.262	967.743
5.629	15.554	1128.067	880.419
6.644	12.729	1107.656	849.853
7.659	12.706	1104.548	847.279
8.673	12.479	1103.581	845.294
9.688	12.436	1102.454	844.134
10.702	12.865	1100.955	845.114
11.717	16.210	1105.481	865.700
12.731	20.128	1110.594	889.782
13.746	19.659	1108.214	885.389
14.761	17.758	1105.451	873.380
15.775	16.648	1103.064	865.740
16.790	15.525	1100.620	858.012
17.804	14.702	1099.148	852.590
18.819	14.332	1097.763	849.553
19.834	14.051	1096.905	847.382
20.848	13.663	1096.110	844.714
21.863	13.610	1094.831	843.383
22.877	13.345	1094.445	841.667
23.892	13.303	1093.406	840.581
24.907	13.419	1092.070	840.063
25.921	13.386	1091.475	839.368
26.936	13.363	1090.711	838.590
27.950	13.418	1089.178	837.611
28.965	13.508	1087.227	836.492
29.980	13.572	1085.919	835.734
30.994	13.529	1085.002	834.738
32.009	13.545	1083.943	833.930
33.023	13.671	1082.180	833.134
34.038	13.623	1081.409	832.227
35.053	13.531	1080.591	831.062
36.067	13.531	1079.611	830.235
37.082	13.468	1078.835	829.248
38.096	13.541	1078.104	828.978
39.111	13.591	1077.156	828.429
40.126	13.444	1076.259	826.929
41.140	13.376	1074.564	825.214
42.155	13.390	1073.476	824.377
43.169	13.169	1072.848	822.720
44.184	13.327	1071.338	822.275
45.199	13.331	1070.469	821.556
46.213	13.342	1069.480	820.778
47.228	13.470	1068.298	820.433
48.242	13.479	1067.038	819.437
49.257	13.494	1065.884	818.551
50.271	13.468	1064.915	817.606
51.286	13.416	1064.372	816.861
52.301	13.417	1063.447	816.085
53.315	13.598	1061.941	815.750
54.330	13.520	1060.739	814.366
55.344	13.310	1060.594	813.154
56.359	13.404	1059.471	812.680
57.374	13.431	1058.654	812.115
58.388	13.338	1057.779	810.916
59.403	13.340	1057.014	810.267
60.417	13.306	1056.135	809.355
61.432	13.336	1055.178	808.698
62.447	13.270	1054.305	807.635
63.461	13.309	1053.545	807.173
64.476	13.196	1053.065	806.179
65.490	13.158	1052.135	805.212
66.505	13.225	1051.319	804.842
67.520	13.339	1050.340	804.575
68.534	13.232	1050.060	803.771
69.549	13.279	1049.115	803.206
70.563	13.280	1048.200	802.436
71.578	13.318	1046.825	801.498
72.593	13.287	1046.182	800.784
73.607	13.214	1045.685	799.978
74.622	13.227	1045.364	799.726
75.636	13.364	1044.331	799.529
76.651	13.193	1043.830	798.248
77.666	13.176	1043.154	797.577
78.680	13.060	1042.414	796.382
79.695	13.200	1041.928	796.614
80.709	13.446	1040.862	796.914
81.724	13.256	1040.038	795.300
82.739	13.373	1039.684	795.521
83.753	13.459	1038.781	795.171
84.768	13.549	1037.748	794.745
85.782	13.710	1036.350	794.372
86.797	13.562	1035.696	793.094
87.812	13.400	1034.926	791.660
88.826	13.431	1033.918	790.964
89.841	13.422	1032.992	790.144
90.855	13.555	1032.054	789.989
91.870	13.534	1030.905	788.942
92.884	13.606	1029.956	788.489
93.899	13.623	1029.238	787.950
94.914	13.604	1028.534	787.250
95.928	13.700	1027.267	786.669
96.943	13.692	1026.437	785.925
97.957	13.596	1025.430	784.629
98.972	13.631	1024.522	784.030
99.987	13.641	1023.578	783.284
101.001	13.550	1023.018	782.358
102.016	13.474	1022.365	781.429
103.030	13.615	1021.189	781.129
104.045	13.519	1020.766	780.281
105.060	13.461	1019.796	779.200
106.074	13.462	1018.753	778.340
107.089	13.387	1017.390	776.876
108.103	13.345	1016.576	775.989
109.118	13.346	1015.697	775.251
110.133	13.380	1014.956	774.780
111.147	13.445	1013.998	774.284
112.162	13.368	1013.418	773.412
113.176	13.490	1012.319	773.073
114.191	13.543	1011.763	772.828
115.206	13.435	1011.096	771.748
116.220	13.442	1010.012	770.884
117.235	13.540	1008.886	770.412
118.249	13.463	1008.011	769.317
119.264	13.545	1007.401	769.166
120.279	13.407	1006.764	767.970
121.293	13.421	1005.898	767.304
122.308	13.384	1005.002	766.385
123.322	13.402	1003.838	765.512
124.337	13.328	1003.343	764.725
125.352	13.397	1001.885	763.862
126.366	13.426	1000.500	762.874
127.381	13.432	999.746	762.260
128.395	13.379	998.818	761.242
129.410	13.396	997.818	760.488
130.424	13.371	997.149	759.798
131.439	13.511	995.905	759.425
132.454	13.584	995.438	759.334
133.468	13.554	994.470	758.391
134.483	13.511	993.812	757.628
135.497	13.467	993.118	756.829
136.512	13.576	991.696	756.176
137.527	13.571	991.064	755.606
138.541	13.505	990.573	754.863
139.556	13.480	989.893	754.165
140.570	13.713	988.831	754.347
141.585	13.763	988.082	753.938
142.600	13.804	986.833	753.102
143.614	13.576	986.718	751.915
144.629	13.785	985.499	751.865
145.643	13.781	984.498	751.018
146.658	13.512	983.782	749.190
147.673	13.553	982.374	748.235
148.687	13.524	982.112	747.836
149.702	13.579	981.089	747.240
150.716	13.523	980.242	746.278
151.731	13.587	979.333	745.806
152.746	13.556	978.982	745.336
153.760	13.662	978.457	745.346
154.775	13.717	977.446	744.759
155.789	13.744	976.662	744.214
156.804	13.724	975.889	743.470
157.819	13.773	975.476	743.312
158.833	13.768	974.880	742.769
159.848	13.932	973.844	742.648
160.862	13.785	973.010	741.286
161.877	13.796	971.389	740.034
162.892	13.712	970.945	739.257
163.906	13.634	969.792	737.967
164.921	13.660	969.299	737.640
165.935	13.713	968.046	736.861
166.950	13.708	967.540	736.387
167.964	13.780	966.516	735.862
168.979	13.791	965.358	734.961
169.994	13.688	964.565	733.838
171.008	13.793	964.088	733.873
172.023	13.972	963.238	733.956
173.037	13.853	962.594	732.874
174.052	13.895	961.901	732.467
175.067	13.721	961.558	731.374
176.081	13.701	960.924	730.737
177.096	13.804	959.985	730.412
178.110	13.778	959.629	729.963
179.125	13.819	958.940	729.556
180.140	13.930	958.420	729.583
181.154	13.911	957.750	728.925
182.169	14.027	957.344	729.057
183.183	14.029	956.322	728.226
184.198	14.008	955.765	727.642
185.213	14.071	955.031	727.298
186.227	14.146	954.658	727.278
187.242	14.219	953.487	726.640
188.256	14.059	953.342	725.765
189.271	14.237	952.201	725.609
190.286	14.056	951.196	723.989
191.300	13.946	950.714	723.081
192.315	13.838	950.187	722.144
193.329	13.823	949.752	721.684
194.344	13.887	949.029	721.351
195.359	14.063	948.048	721.305
196.373	14.058	947.553	720.842
197.388	14.140	947.353	720.982
198.402	14.074	947.018	720.377
199.417	14.179	946.044	720.026
200.432	14.238	945.629	719.904
201.446	14.349	945.083	719.904
202.461	14.287	944.701	719.279
203.475	14.346	943.923	718.878
204.490	14.351	942.614	717.843
205.504	14.369	942.102	717.467
206.519	14.313	941.322	716.566
207.534	14.269	940.764	715.887
208.548	14.255	939.989	715.177
209.563	14.257	939.530	714.774
210.577	14.375	938.781	714.647
211.592	14.378	938.124	714.093
212.607	14.416	937.377	713.625
213.621	14.454	936.297	712.901
214.636	14.416	935.752	712.263
215.650	14.487	934.943	711.886
216.665	14.461	934.491	711.369
217.680	14.375	933.862	710.461
218.694	14.563	933.279	710.755
219.709	14.387	932.755	709.543
220.723	14.520	931.737	709.270
221.738	14.521	930.949	708.614
222.753	14.534	930.541	708.296
223.767	14.575	929.572	707.668
224.782	14.652	929.257	707.694
225.796	14.604	928.687	706.991
226.811	14.577	928.064	706.342
227.826	14.619	927.419	705.969
228.840	14.636	926.369	705.178
229.855	14.525	925.583	704.045
230.869	14.526	925.249	703.735
231.884	14.464	924.376	702.748
232.899	14.581	923.512	702.519
233.913	14.562	922.847	701.874
234.928	14.440	921.834	700.528
235.942	14.590	921.314	700.701
236.957	14.517	921.158	700.215
237.972	14.593	920.499	699.971
238.986	14.505	919.592	698.849
240.001	14.461	918.815	698.012
241.015	14.653	917.783	697.970
242.030	14.790	917.360	698.159
243.045	14.692	917.015	697.425
244.059	14.724	916.167	696.851
245.074	14.837	915.481	696.740
246.088	14.739	914.850	695.788
247.103	14.717	914.777	695.581
248.117	14.800	914.152	695.388
249.132	14.971	913.032	695.185
250.147	14.996	912.434	694.774
251.161	15.025	912.420	694.824
252.176	14.968	911.512	693.832
253.190	15.117	910.510	693.624
254.205	15.081	910.070	693.082
255.220	15.174	909.023	692.606
256.234	15.200	908.680	692.390
257.249	15.156	907.660	691.370
258.263	15.011	907.058	690.253
259.278	15.146	906.356	690.211
260.293	15.275	905.877	690.320
261.307	15.252	905.369	689.777
262.322	15.284	904.825	689.432
263.336	15.232	903.852	688.417
264.351	15.308	903.071	688.071
265.366	15.321	902.490	687.624
266.380	15.305	901.749	686.931
267.395	15.309	901.126	686.413
268.409	15.188	900.582	685.440
269.424	15.323	899.632	685.212
270.439	15.275	899.023	684.491
271.453	15.305	898.269	683.979
272.468	15.373	897.707	683.764
273.482	15.349	897.211	683.230
274.497	15.323	896.655	682.640
275.512	15.382	895.771	682.149
276.526	15.382	895.280	681.713
277.541	15.361	894.864	681.251
278.555	15.463	893.886	680.859
279.570	15.444	893.684	680.568
280.585	15.602	892.867	680.526
281.599	15.495	892.251	679.564
282.614	15.416	891.147	678.342
283.628	15.376	890.825	677.876
284.643	15.552	890.045	677.931
285.657	15.697	889.028	677.682
286.672	15.636	888.583	677.037
287.687	15.545	888.023	676.185
288.701	15.510	887.685	675.729
289.716	15.635	886.984	675.634
290.730	15.550	886.321	674.729
291.745	15.614	886.033	674.709
292.760	15.738	884.993	674.353
293.774	15.731	884.574	673.948
294.789	15.850	883.845	673.808
295.803	15.544	883.233	672.058
296.818	15.657	882.678	672.026
297.833	15.555	881.998	671.042
298.847	15.584	881.334	670.592
299.862	15.733	880.795	670.719
300.876	15.767	880.018	670.204
301.891	15.733	879.697	669.765
302.906	15.954	878.880	669.961
303.920	16.087	878.299	669.988
304.935	15.954	877.710	668.951
305.949	15.850	877.360	668.214
306.964	15.829	876.998	667.796
307.979	15.885	876.613	667.664
308.993	15.975	875.536	667.142
310.008	16.047	874.908	666.888
311.022	16.068	873.715	666.002
312.037	15.946	873.786	665.517
313.052	15.781	873.221	664.376
314.066	15.824	872.563	663.984
315.081	15.885	872.080	663.801
316.095	15.961	871.240	663.401
317.110	15.903	870.552	662.592
318.125	15.765	870.631	662.051
319.139	15.869	870.051	661.958
320.154	15.934	869.451	661.698
321.168	16.076	868.701	661.627
322.183	15.996	868.343	660.981
323.197	15.994	867.979	660.640
324.212	16.111	867.275	660.500
325.227	16.092	866.467	659.756
326.241	16.080	866.009	659.302
327.256	15.977	865.850	658.719
328.270	15.958	864.846	657.822
329.285	16.098	864.001	657.666
330.300	16.106	863.770	657.464
331.314	16.095	863.075	656.836
332.329	16.082	862.528	656.308
333.343	16.232	862.145	656.545
334.358	16.240	861.394	655.944
335.373	16.346	860.979	655.981
336.387	16.188	860.680	655.083
337.402	16.230	860.753	655.242
338.416	16.345	860.516	655.452
339.431	16.188	860.086	654.458
340.446	16.221	859.734	654.258
341.460	16.551	858.545	654.574
342.475	16.559	858.637	654.616
343.489	16.384	858.320	653.641
344.504	16.560	857.671	653.770
345.519	16.576	857.054	653.302
346.533	16.547	856.458	652.679
347.548	16.472	856.192	652.127
348.562	16.455	855.534	651.502
349.577	16.190	855.406	650.329
350.592	16.400	854.191	650.154
351.606	16.427	853.762	649.874
352.621	16.336	853.183	649.027
353.635	16.451	852.355	648.782
354.650	16.432	851.750	648.188
355.665	16.531	851.436	648.272
356.679	16.608	850.307	647.651
357.694	16.501	849.992	646.945
358.708	16.664	849.156	646.872
359.723	16.579	848.518	646.004
360.738	16.597	847.884	645.534
361.752	16.636	847.284	645.170
362.767	16.709	846.755	644.987
363.781	16.673	846.094	644.290
364.796	16.993	845.593	645.070
365.810	16.804	845.350	644.105
366.825	16.783	845.405	644.013
367.840	16.752	844.748	643.336
368.854	16.889	843.783	643.065
369.869	16.861	843.617	642.775
370.883	16.857	843.373	642.519
371.898	16.908	843.171	642.499
372.913	16.995	842.686	642.404
373.927	16.920	841.848	641.422
374.942	17.068	841.305	641.514
375.956	16.973	841.226	641.037
376.971	17.126	840.490	640.996
377.986	17.077	839.682	640.138
379.000	17.228	839.177	640.266
380.015	17.086	839.063	639.588
381.029	17.132	838.390	639.191
382.044	17.190	837.697	638.824
383.059	17.182	837.279	638.420
384.073	17.087	836.842	637.672
385.088	17.015	835.965	636.678
386.102	17.186	835.307	636.760
387.117	17.007	835.082	635.863
388.132	17.080	834.405	635.564
389.146	17.199	833.304	635.115
390.161	17.297	832.760	635.008
391.175	17.179	833.031	634.718
392.190	17.133	832.688	634.231
393.205	17.103	831.936	633.490
394.219	17.117	831.437	633.105
395.234	17.074	830.985	632.546
396.248	17.004	830.919	632.179
397.263	17.116	829.932	631.789
398.278	17.076	829.799	631.482
399.292	17.225	829.239	631.553
400.307	17.109	828.606	630.584
401.321	17.262	827.974	630.616
402.336	17.205	827.727	630.159
403.350	17.323	827.179	630.124
404.365	17.300	827.133	629.949
405.380	17.265	826.713	629.444
406.394	17.393	825.902	629.241
407.409	17.488	825.623	629.327
408.423	17.426	825.060	628.614
409.438	17.508	824.818	628.676
410.453	17.598	824.232	628.507
411.467	17.497	823.855	627.789
412.482	17.597	823.624	627.926
413.496	17.685	823.087	627.787
414.511	17.688	822.757	627.488
415.526	17.545	822.389	626.627
416.540	17.547	821.773	626.108
417.555	17.616	821.353	625.988
418.569	17.722	820.870	625.952
419.584	17.694	820.201	625.287
420.599	17.679	819.817	624.881
421.613	101.342	1284.262	1432.976
422.628	87.410	1351.935	1433.073
