DTS Sentinel unit serial number:	SN413079Multiplexer serial number:	ORYXHardware model number:	OX4-SRSoftware version number:	ORYX F/W v4.00 Oryx Data Collector v3.7.2.0data status	okinstallation	princeton_trtdifferential loss correction	single-endedforward channel	channel 1reverse channel	N/Adate	2019/09/10time	16:20:11forward acquisition time	60.00reverse acquisition time	0.00gamma	496.2192k internal	0.2299k external	0.2299temperature offset calibration	0.9924default loss term (dB/km)	0.3790temperature slope calibration	1.0000multiplexer offset coefficient	1.0000multiplexer slope coefficient	1.0000fibre end	0.00T internal ref (°C)	38.23T ext. ref 1 (°C)	-0.28T ext. ref 2 (°C)	30.83length (m)	temperature (°C)	Stokes	anti-Stokes-747.200	92.965	0.258	0.298
-746.185	800.000	-0.013	-0.042
-745.171	-41.972	-0.278	-0.145
-744.156	-200.000	0.018	0.343
-743.142	171.346	0.207	0.302
-742.127	35.895	0.057	0.052
-741.112	25.191	-0.210	-0.178
-740.098	-200.000	0.017	0.192
-739.083	-94.098	-0.074	0.021
-738.069	-200.000	-0.027	-0.205
-737.054	379.340	0.037	-0.077
-736.039	-38.170	-0.526	-0.285
-735.025	-17.802	-0.196	0.125
-734.010	151.394	-0.234	-0.325
-732.996	-78.491	-0.037	0.013
-731.981	-149.645	-0.173	-0.014
-730.966	-121.554	-0.363	0.061
-729.952	8.271	0.202	0.154
-728.937	-136.626	-0.301	-0.035
-727.923	127.715	0.254	-0.329
-726.908	167.666	-0.161	-0.233
-725.894	-58.468	-0.163	-0.072
-724.879	-200.000	0.052	-0.419
-723.864	64.531	-0.181	-0.186
-722.850	6.423	-0.087	0.066
-721.835	42.869	0.300	-0.279
-720.821	-29.560	-0.174	-0.101
-719.806	620.638	-0.109	-0.279
-718.791	215.133	0.062	0.100
-717.777	-200.000	0.055	-0.534
-716.762	-36.845	-0.115	0.063
-715.748	636.543	-0.059	-0.153
-714.733	254.307	-0.093	-0.162
-713.718	-156.314	-0.245	0.016
-712.704	800.000	0.078	0.239
-711.689	642.292	0.070	-0.182
-710.675	-200.000	0.016	0.069
-709.660	12.938	0.128	-0.101
-708.645	-200.000	-0.473	-0.001
-707.631	265.122	-0.116	0.205
-706.616	-101.368	-0.045	0.011
-705.602	130.172	-0.189	-0.247
-704.587	800.000	-0.120	-0.433
-703.572	800.000	-0.019	-0.063
-702.558	-6.186	0.236	0.164
-701.543	312.807	-0.149	0.285
-700.529	264.108	-0.058	-0.102
-699.514	14.360	0.093	0.074
-698.499	-79.038	-0.274	-0.095
-697.485	452.152	-0.121	-0.273
-696.470	-200.000	0.071	-0.537
-695.456	-19.095	-0.208	0.131
-694.441	-71.937	0.119	-0.045
-693.426	-42.660	0.123	-0.064
-692.412	286.611	-0.197	-0.363
-691.397	-10.635	-0.462	-0.311
-690.383	61.086	-0.229	-0.231
-689.368	534.916	0.055	-0.133
-688.354	-200.000	-0.008	0.201
-687.339	-200.000	-0.015	0.166
-686.324	711.504	-0.067	-0.182
-685.310	136.335	0.079	0.105
-684.295	115.520	-0.200	-0.248
-683.281	106.602	0.165	-0.199
-682.266	-19.990	-0.192	0.120
-681.251	-67.184	-0.470	0.188
-680.237	-21.436	0.135	-0.084
-679.222	-200.000	-0.026	0.222
-678.208	-42.853	-0.397	0.205
-677.193	342.290	0.094	0.188
-676.178	-6.567	-0.076	-0.052
-675.164	800.000	-0.061	0.229
-674.149	-200.000	0.016	0.362
-673.135	43.933	0.082	0.077
-672.120	83.370	0.052	0.058
-671.105	-200.000	-0.023	-0.458
-670.091	43.566	0.081	0.075
-669.076	95.320	0.161	-0.186
-668.062	-162.528	-0.339	-0.017
-667.047	-163.758	-0.254	-0.012
-666.032	305.159	0.158	-0.299
-665.018	345.881	0.177	0.353
-664.003	-137.353	-0.273	-0.031
-662.989	-200.000	-0.018	-0.229
-661.974	147.152	0.124	-0.170
-660.959	800.000	0.027	-0.106
-659.945	-66.580	-0.453	-0.183
-658.930	110.222	0.188	0.230
-657.916	125.686	-0.127	-0.163
-656.901	65.604	0.171	0.176
-655.886	-200.000	-0.004	-0.123
-654.872	-200.000	0.018	-0.143
-653.857	-134.835	-0.335	0.041
-652.843	-128.921	-0.162	0.023
-651.828	100.135	-0.178	-0.210
-650.814	-200.000	-0.019	-0.283
-649.799	800.000	0.036	-0.139
-648.784	56.727	0.167	0.165
-647.770	146.630	-0.097	0.132
-646.755	-200.000	0.002	-0.078
-645.741	-185.799	-0.401	0.006
-644.726	31.438	-0.039	-0.034
-643.711	796.671	-0.074	-0.207
-642.697	800.000	-0.083	-0.255
-641.682	124.715	-0.117	0.149
-640.668	-115.635	0.204	-0.039
-639.653	34.032	-0.367	0.325
-638.638	108.137	0.064	-0.078
-637.624	72.280	0.077	0.081
-636.609	77.840	-0.045	0.049
-635.595	-45.949	-0.043	-0.021
-634.580	394.316	0.071	-0.150
-633.565	-146.544	-0.178	0.016
-632.551	-99.948	0.084	0.021
-631.536	198.430	0.137	0.212
-630.522	-200.000	0.010	0.149
-629.507	-200.000	-0.015	0.076
-628.492	314.598	0.111	0.211
-627.478	-122.481	0.364	-0.060
-626.463	-200.000	0.010	0.335
-625.449	352.735	0.175	0.352
-624.434	-114.275	0.333	-0.065
-623.419	-40.733	-0.084	-0.044
-622.405	762.315	0.063	0.173
-621.390	-200.000	-0.001	0.199
-620.376	554.617	-0.092	0.224
-619.361	-93.427	-0.229	-0.065
-618.346	800.000	0.049	-0.175
-617.332	181.379	-0.083	-0.123
-616.317	60.570	-0.202	-0.203
-615.303	-73.593	0.097	0.036
-614.288	-121.417	0.456	0.077
-613.273	65.925	-0.272	0.280
-612.259	268.780	-0.182	-0.325
-611.244	205.487	-0.224	-0.354
-610.230	-200.000	-0.017	0.089
-609.215	-119.048	0.017	-0.003
-608.201	-67.819	0.177	0.070
-607.186	30.686	-0.036	-0.032
-606.171	-25.934	-0.144	0.086
-605.157	-63.587	-0.217	0.090
-604.142	-56.559	0.065	-0.029
-603.128	298.873	-0.132	-0.247
-602.113	42.088	0.041	0.038
-601.098	289.756	0.089	-0.165
-600.084	6.350	0.218	-0.164
-599.069	-200.000	0.012	-0.141
-598.055	123.182	-0.082	-0.105
-597.040	-2.331	-0.121	-0.086
-596.025	-8.728	0.157	-0.107
-595.011	-62.232	-0.321	-0.136
-593.996	18.694	-0.120	-0.097
-592.982	27.970	-0.217	0.186
-591.967	800.000	0.060	-0.219
-590.952	-149.305	0.271	-0.022
-589.938	283.743	0.160	-0.292
-588.923	-141.519	-0.443	0.045
-587.909	-167.749	0.205	0.008
-586.894	-11.532	-0.240	-0.160
-585.879	800.000	0.045	0.184
-584.865	-131.772	-0.110	0.015
-583.850	263.821	-0.131	-0.230
-582.836	95.582	-0.096	0.111
-581.821	800.000	-0.022	0.082
-580.806	-48.747	0.244	0.119
-579.792	800.000	0.065	-0.250
-578.777	42.007	-0.056	0.051
-577.763	-96.057	-0.380	0.102
-576.748	79.376	0.306	0.332
-575.733	-91.847	0.083	-0.024
-574.719	-4.868	-0.410	-0.286
-573.704	-146.000	0.406	-0.036
-572.690	-200.000	-0.048	-0.253
-571.675	72.625	0.079	-0.084
-570.661	-153.888	-0.156	-0.011
-569.646	312.952	0.158	0.300
-568.631	800.000	0.043	0.139
-567.617	-28.460	0.361	-0.211
-566.602	-55.401	-0.059	-0.027
-565.588	-131.281	0.343	-0.046
-564.573	55.819	0.098	0.097
-563.558	25.916	0.087	0.073
-562.544	-200.000	0.076	-0.400
-561.529	-111.848	0.083	-0.017
-560.515	124.639	-0.089	-0.113
-559.500	111.912	0.135	-0.165
-558.485	160.415	-0.039	0.055
-557.471	-200.000	-0.032	-0.319
-556.456	-200.000	-0.001	0.257
-555.442	-102.413	0.284	-0.069
-554.427	57.540	0.113	-0.112
-553.412	-72.506	-0.163	0.061
-552.398	62.999	0.086	-0.087
-551.383	-106.024	-0.076	0.017
-550.369	-109.291	-0.198	0.042
-549.354	-200.000	-0.029	0.269
-548.339	800.000	0.055	-0.222
-547.325	-3.514	0.159	-0.112
-546.310	800.000	-0.030	-0.085
-545.296	-92.258	0.157	-0.045
-544.281	-66.499	0.181	0.073
-543.266	800.000	0.066	-0.206
-542.252	18.183	0.112	0.091
-541.237	86.604	0.066	-0.073
-540.223	-200.000	0.013	0.104
-539.208	800.000	-0.085	0.270
-538.193	-200.000	0.007	-0.167
-537.179	-129.869	-0.424	0.059
-536.164	-38.853	-0.095	-0.051
-535.150	306.480	0.240	0.451
-534.135	314.593	0.102	0.194
-533.121	-200.000	-0.037	-0.310
-532.106	183.561	-0.263	0.393
-531.091	104.444	0.073	0.087
-530.077	41.463	0.230	-0.211
-529.062	114.315	0.126	0.155
-528.048	83.194	0.227	-0.250
-527.033	-200.000	0.084	-0.562
-526.018	16.971	-0.020	-0.016
-525.004	-92.385	0.015	0.004
-523.989	-112.914	-0.298	0.060
-522.975	-103.705	-0.224	-0.053
-521.960	-99.682	0.095	0.024
-520.945	261.251	0.180	-0.316
-519.931	-200.000	-0.007	-0.154
-518.916	25.262	-0.202	0.170
-517.902	38.308	0.057	-0.051
-516.887	111.051	0.122	-0.148
-515.872	71.952	-0.287	-0.302
-514.858	-32.293	-0.308	-0.174
-513.843	221.431	-0.116	-0.189
-512.829	185.787	0.118	-0.177
-511.814	-200.000	-0.050	-0.234
-510.799	173.034	-0.133	0.194
-509.785	-64.291	0.114	-0.047
-508.770	-83.185	0.143	-0.047
-507.756	34.571	-0.103	0.091
-506.741	-120.715	0.041	-0.007
-505.726	-124.853	-0.146	0.023
-504.712	415.793	0.103	0.221
-503.697	-3.304	0.146	0.103
-502.683	-200.000	0.031	-0.194
-501.668	191.203	-0.048	0.073
-500.653	-133.081	0.173	-0.022
-499.639	-151.779	-0.230	-0.017
-498.624	418.939	0.042	-0.090
-497.610	-103.616	0.013	0.003
-496.595	-10.602	-0.313	0.209
-495.581	-98.610	0.190	0.049
-494.566	-113.460	-0.362	-0.072
-493.551	-191.094	0.183	-0.002
-492.537	-31.294	-0.149	0.085
-491.522	-200.000	0.016	0.115
-490.508	-87.047	0.183	-0.056
-489.493	231.213	-0.028	0.046
-488.478	-119.778	-0.155	0.027
-487.464	-103.736	0.457	0.108
-486.449	-200.000	0.005	-0.263
-485.435	-29.551	0.196	-0.113
-484.420	800.000	0.038	-0.143
-483.405	-136.828	0.158	-0.018
-482.391	-26.415	0.244	-0.144
-481.376	-21.333	-0.215	-0.132
-480.362	136.751	0.129	0.170
-479.347	-56.346	-0.256	-0.115
-478.332	-57.776	-0.359	-0.159
-477.318	20.030	0.233	-0.190
-476.303	-147.478	-0.206	-0.018
-475.289	534.541	-0.055	-0.131
-474.274	667.958	-0.089	0.232
-473.259	205.860	0.106	-0.167
-472.245	448.989	-0.161	-0.357
-471.230	-64.727	0.108	-0.044
-470.216	50.379	-0.121	-0.115
-469.201	-200.000	-0.031	0.187
-468.186	800.000	-0.062	0.195
-467.172	-200.000	0.018	0.192
-466.157	-200.000	-0.008	0.440
-465.143	56.417	0.125	-0.123
-464.128	-170.923	-0.251	0.009
-463.113	155.586	-0.167	-0.233
-462.099	-36.971	-0.186	-0.100
-461.084	170.716	-0.087	-0.125
-460.070	123.856	-0.170	0.216
-459.055	-163.711	-0.400	0.019
-458.040	-101.497	-0.310	0.076
-457.026	749.194	0.064	-0.174
-456.011	-172.698	-0.041	-0.001
-454.997	-200.000	0.023	-0.255
-453.982	-158.414	-0.117	0.007
-452.968	168.352	0.153	-0.219
-451.953	479.910	0.100	-0.229
-450.938	-116.116	-0.247	0.046
-449.924	-200.000	0.005	-0.106
-448.909	-73.073	0.277	0.102
-447.895	2.317	-0.149	-0.109
-446.880	102.930	0.059	0.070
-445.865	-200.000	0.020	-0.290
-444.851	800.000	0.041	-0.139
-443.836	-95.063	0.140	-0.038
-442.822	-200.000	0.006	0.202
-441.807	-200.000	0.031	0.150
-440.792	43.582	0.207	0.191
-439.778	-107.682	-0.219	-0.048
-438.763	-99.978	0.148	0.037
-437.749	263.724	-0.186	-0.327
-436.734	-109.386	0.404	0.086
-435.719	-115.429	0.136	-0.026
-434.705	-149.164	0.187	-0.015
-433.690	800.000	0.164	0.583
-432.676	-81.911	0.313	0.103
-431.661	-200.000	0.009	-0.144
-430.646	213.004	-0.143	-0.228
-429.632	-118.471	0.256	-0.046
-428.617	677.734	-0.103	-0.271
-427.603	-17.905	-0.212	0.134
-426.588	800.000	0.087	-0.259
-425.573	-94.552	-0.246	0.067
-424.559	7.033	0.318	0.239
-423.544	162.273	0.129	0.183
-422.530	-118.466	-0.386	-0.069
-421.515	800.000	0.070	0.202
-420.500	-155.329	0.295	0.019
-419.486	190.460	-0.111	-0.168
-418.471	130.164	0.205	-0.264
-417.457	140.550	-0.109	-0.144
-416.442	-123.214	0.235	0.038
-415.428	33.096	0.219	-0.191
-414.413	-200.000	-0.007	0.172
-413.398	-200.000	-0.036	0.227
-412.384	69.436	-0.035	-0.037
-411.369	56.803	-0.211	-0.207
-410.355	800.000	-0.064	0.213
-409.340	-200.000	-0.044	0.230
-408.325	-144.498	-0.299	0.028
-407.311	-99.158	0.099	-0.025
-406.296	-0.062	-0.441	-0.316
-405.282	800.000	-0.119	0.341
-404.267	-108.674	-0.207	-0.045
-403.252	800.000	-0.109	0.329
-402.238	6.250	0.372	0.278
-401.223	428.754	-0.098	0.212
-400.209	-37.437	0.030	0.016
-399.194	800.000	0.045	0.173
-398.179	-200.000	-0.003	0.333
-397.165	800.000	0.125	0.373
-396.150	136.300	0.136	0.179
-395.136	277.393	-0.195	-0.349
-394.121	-200.000	-0.007	0.251
-393.106	545.493	0.119	-0.286
-392.092	254.150	0.111	-0.192
-391.077	133.702	-0.116	0.151
-390.063	-116.893	-0.129	0.024
-389.048	-31.093	0.068	-0.039
-388.033	245.096	0.154	0.261
-387.019	-114.562	0.060	0.012
-386.004	-200.000	-0.003	-0.322
-384.990	183.237	0.104	0.155
-383.975	800.000	-0.050	-0.191
-382.960	42.140	0.214	0.195
-381.946	499.640	-0.219	0.507
-380.931	-20.324	0.043	0.026
-379.917	-10.628	-0.132	-0.088
-378.902	48.282	0.097	-0.091
-377.888	-184.590	-0.182	-0.003
-376.873	54.598	0.026	-0.025
-375.858	-200.000	0.003	0.133
-374.844	-200.000	-0.016	0.137
-373.829	-121.598	0.462	-0.077
-372.815	-85.019	-0.106	-0.033
-371.800	646.438	0.079	0.203
-370.785	312.660	0.177	0.334
-369.771	-77.845	0.240	0.083
-368.756	-41.141	0.123	-0.064
-367.742	212.490	0.202	0.321
-366.727	128.822	0.185	-0.237
-365.712	580.278	-0.014	-0.034
-364.698	316.778	0.067	-0.127
-363.683	202.332	0.256	0.397
-362.669	404.907	0.082	-0.174
-361.654	-200.000	0.061	0.324
-360.639	-109.656	-0.273	0.058
-359.625	800.000	-0.022	0.088
-358.610	411.961	0.062	0.133
-357.596	-3.447	-0.079	-0.055
-356.581	68.419	0.179	0.185
-355.566	751.368	-0.088	0.238
-354.552	-200.000	-0.030	0.294
-353.537	-86.354	0.057	-0.018
-352.523	800.000	-0.028	-0.112
-351.508	-121.739	-0.256	0.043
-350.493	187.425	0.120	-0.179
-349.479	-63.366	-0.140	-0.058
-348.464	-200.000	0.020	0.319
-347.450	14.549	0.315	0.247
-346.435	126.953	-0.121	0.154
-345.420	800.000	-0.071	0.228
-344.406	14.678	0.313	-0.246
-343.391	330.268	0.147	0.285
-342.377	83.860	-0.203	-0.222
-341.362	-11.432	0.166	0.109
-340.348	-110.229	-0.321	0.067
-339.333	-123.073	0.185	0.030
-338.318	-5.812	-0.231	-0.159
-337.304	-17.033	-0.141	0.089
-336.289	26.976	-0.193	0.163
-335.275	-200.000	0.028	0.312
-334.260	-82.749	0.075	0.024
-333.245	159.900	0.076	-0.106
-332.231	800.000	0.049	-0.195
-331.216	-200.000	0.027	-0.149
-330.202	113.630	-0.071	-0.086
-329.187	187.575	-0.100	0.149
-328.172	59.918	-0.116	0.115
-327.158	-92.899	-0.308	0.086
-326.143	-48.981	-0.415	-0.199
-325.129	-200.000	0.039	-0.250
-324.114	800.000	-0.033	0.110
-323.099	-123.365	-0.127	-0.020
-322.085	357.789	0.191	-0.382
-321.070	-200.000	0.014	0.282
-320.056	109.429	-0.192	-0.230
-319.041	-65.379	0.237	0.096
-318.026	-7.645	-0.207	0.141
-317.012	800.000	0.144	-0.398
-315.997	-51.933	0.118	0.055
-314.983	2.089	0.093	-0.067
-313.968	-57.767	-0.268	0.118
-312.953	356.189	0.046	0.092
-311.939	20.413	-0.114	0.093
-310.924	-193.963	0.123	-0.001
-309.910	-153.584	-0.136	-0.009
-308.895	232.677	0.111	0.182
-307.880	-200.000	0.007	0.144
-306.866	800.000	-0.035	-0.127
-305.851	-200.000	0.086	0.426
-304.837	-200.000	0.010	0.130
-303.822	457.317	-0.149	-0.332
-302.807	39.028	-0.068	0.061
-301.793	-200.000	0.014	0.370
-300.778	800.000	0.194	-0.604
-299.764	-118.964	-0.116	0.020
-298.749	100.881	-0.109	-0.127
-297.735	66.117	-0.129	0.131
-296.720	-200.000	0.019	-0.277
-295.705	-200.000	0.024	-0.139
-294.691	-25.449	-0.430	0.255
-293.676	-59.483	0.197	0.085
-292.662	7.024	0.213	0.159
-291.647	-2.826	0.271	0.190
-290.632	-0.695	-0.222	-0.158
-289.618	23.752	-0.142	0.117
-288.603	17.906	0.201	0.161
-287.589	77.897	0.080	-0.085
-286.574	-149.136	-0.037	-0.003
-285.559	168.732	-0.248	0.355
-284.545	800.000	0.075	0.256
-283.530	-72.907	-0.204	-0.075
-282.516	109.708	0.201	-0.241
-281.501	800.000	0.054	-0.193
-280.486	11.238	-0.262	-0.201
-279.472	-72.717	-0.238	0.088
-278.457	76.315	-0.113	-0.120
-277.443	800.000	-0.096	-0.322
-276.428	800.000	0.007	0.023
-275.413	89.963	0.162	0.181
-274.399	36.257	0.172	0.152
-273.384	-200.000	0.069	-0.386
-272.370	800.000	0.116	-0.472
-271.355	434.778	0.132	0.286
-270.340	-1.373	-0.330	-0.233
-269.326	5.445	-0.325	0.240
-268.311	93.522	-0.094	0.107
-267.297	39.087	-0.105	0.094
-266.282	403.796	0.114	-0.241
-265.267	-11.005	0.035	-0.023
-264.253	311.006	-0.096	-0.181
-263.238	800.000	-0.116	0.454
-262.224	-124.559	-0.079	-0.012
-261.209	-200.000	0.009	0.172
-260.195	-117.607	0.177	-0.032
-259.180	-127.430	0.196	-0.029
-258.165	2.406	0.133	-0.097
-257.151	223.525	-0.093	-0.150
-256.136	800.000	-0.016	-0.058
-255.122	-200.000	0.063	-0.324
-254.107	12.412	0.197	0.152
-253.092	527.916	0.043	-0.103
-252.078	80.717	-0.037	-0.040
-251.063	-6.850	-0.155	0.106
-250.049	-200.000	-0.020	0.284
-249.034	82.049	0.151	0.164
-248.019	-83.603	0.105	0.034
-247.005	-88.040	-0.237	-0.071
-245.990	82.174	-0.160	-0.174
-244.976	-56.973	0.402	-0.178
-243.961	-79.364	-0.190	-0.065
-242.946	-177.987	-0.247	-0.006
-241.932	699.159	0.043	-0.114
-240.917	-121.491	0.322	0.054
-239.903	-112.560	-0.376	0.075
-238.888	-200.000	0.072	-0.512
-237.873	-60.284	0.243	-0.104
-236.859	-129.858	-0.306	0.042
-235.844	87.044	0.230	0.254
-234.830	-58.288	0.233	0.101
-233.815	3.401	-0.111	0.081
-232.800	-69.104	0.032	0.013
-231.786	2.510	-0.148	-0.107
-230.771	213.987	0.057	0.091
-229.757	641.750	-0.081	-0.208
-228.742	-71.569	0.546	-0.204
-227.727	37.805	-0.303	0.269
-226.713	163.548	0.129	0.181
-225.698	30.877	0.083	0.072
-224.684	-89.000	-0.143	0.042
-223.669	800.000	0.017	-0.072
-222.655	144.584	0.069	0.092
-221.640	361.288	0.017	0.034
-220.625	-63.900	-0.360	0.147
-219.611	4.558	-0.041	0.030
-218.596	-200.000	0.019	-0.218
-217.582	-200.000	0.030	0.134
-216.567	-155.535	0.200	-0.013
-215.552	394.153	0.015	0.032
-214.538	24.725	-0.049	-0.040
-213.523	-130.805	0.201	-0.027
-212.509	448.953	0.124	-0.274
-211.494	518.618	-0.060	-0.140
-210.479	-84.535	-0.337	0.106
-209.465	-151.019	0.357	0.027
-208.450	-94.009	-0.081	0.022
-207.436	800.000	0.034	0.118
-206.421	-79.694	-0.292	-0.098
-205.406	-52.775	0.110	0.051
-204.392	-200.000	0.013	0.146
-203.377	-132.768	0.200	0.026
-202.363	111.199	0.155	0.186
-201.348	138.771	0.036	-0.047
-200.333	-200.000	0.052	-0.232
-199.319	643.566	-0.088	-0.225
-198.304	44.408	-0.094	-0.086
-197.290	353.815	-0.153	-0.304
-196.275	-87.327	0.174	0.053
-195.260	163.604	-0.019	0.027
-194.246	108.774	-0.082	0.097
-193.231	531.450	-0.097	0.228
-192.217	80.296	0.080	0.086
-191.202	800.000	-0.078	-0.244
-190.187	-92.843	-0.107	-0.030
-189.173	-162.046	0.192	-0.010
-188.158	-110.398	0.283	0.059
-187.144	53.037	-0.370	0.354
-186.129	-1.541	0.290	-0.204
-185.114	536.188	-0.028	-0.067
-184.100	14.205	0.194	-0.151
-183.085	-200.000	-0.060	-0.410
-182.071	-113.562	0.212	0.041
-181.056	-33.439	0.042	0.023
-180.042	10.321	-0.281	0.214
-179.027	-94.955	-0.054	0.015
-178.012	-44.507	-0.113	0.056
-176.998	800.000	0.045	-0.149
-175.983	584.742	-0.090	0.221
-174.969	800.000	0.073	0.269
-173.954	-116.847	-0.164	0.030
-172.939	264.980	-0.080	-0.139
-171.925	340.629	-0.058	-0.112
-170.910	408.577	-0.094	0.199
-169.896	800.000	0.097	-0.293
-168.881	4.829	0.249	0.182
-167.866	204.534	0.242	0.374
-166.852	218.912	0.026	-0.042
-165.837	-60.074	-0.207	0.088
-164.823	281.666	0.117	-0.210
-163.808	714.070	0.026	0.069
-162.793	-200.000	-0.047	0.220
-161.779	-75.876	-0.348	0.123
-160.764	199.855	0.065	0.099
-159.750	-168.576	-0.173	0.007
-158.735	-51.191	-0.218	-0.102
-157.720	23.921	0.082	0.068
-156.706	-133.462	0.151	0.019
-155.691	-196.361	0.210	-0.001
-154.677	-102.679	0.195	-0.046
-153.662	800.000	0.129	-0.473
-152.647	121.322	-0.112	-0.139
-151.633	-82.180	-0.018	-0.006
-150.618	-55.978	0.226	-0.101
-149.604	-64.174	0.136	0.055
-148.589	131.875	-0.112	-0.143
-147.574	-200.000	0.004	0.026
-146.560	-152.967	-0.108	0.008
-145.545	-131.449	-0.029	-0.004
-144.531	-71.533	-0.111	0.041
-143.516	767.418	-0.070	-0.189
-142.502	63.156	-0.111	0.110
-141.487	-58.729	0.334	-0.144
-140.472	187.745	0.168	-0.249
-139.458	-200.000	0.019	0.190
-138.443	330.286	-0.142	0.273
-137.429	-200.000	0.038	-0.245
-136.414	536.853	-0.061	0.144
-135.399	800.000	-0.073	-0.276
-134.385	-110.300	0.303	-0.063
-133.370	-33.955	0.043	-0.024
-132.356	-163.118	0.120	-0.006
-131.341	421.632	-0.161	-0.344
-130.326	161.416	-0.088	0.122
-129.312	176.054	0.112	0.162
-128.297	362.579	-0.086	0.172
-127.283	-84.927	0.167	0.052
-126.268	-117.404	-0.193	0.035
-125.253	-200.000	-0.004	0.073
-124.239	175.208	0.089	0.128
-123.224	-45.209	0.349	-0.172
-122.210	-45.236	0.192	-0.095
-121.195	-50.390	-0.301	-0.142
-120.180	-82.714	-0.099	-0.032
-119.166	164.954	-0.103	-0.145
-118.151	-125.793	-0.360	0.054
-117.137	363.316	-0.120	0.239
-116.122	12.143	0.049	-0.037
-115.107	400.863	0.051	-0.107
-114.093	73.951	0.142	0.148
-113.078	800.000	0.078	-0.229
-112.064	-88.957	0.034	0.010
-111.049	400.892	-0.118	-0.247
-110.034	40.545	0.110	-0.099
-109.020	-65.784	0.163	-0.065
-108.005	731.475	-0.081	0.216
-106.991	-200.000	0.060	0.314
-105.976	193.305	-0.169	-0.255
-104.962	-200.000	-0.004	-0.353
-103.947	-63.113	0.061	-0.025
-102.932	601.617	-0.061	-0.150
-101.918	119.107	0.111	-0.136
-100.903	155.787	-0.085	-0.117
-99.889	6.444	-0.294	0.218
-98.874	-200.000	-0.019	-0.165
-97.859	-200.000	-0.013	0.078
-96.845	800.000	0.058	-0.195
-95.830	-200.000	-0.033	-0.221
-94.816	-115.737	0.314	-0.059
-93.801	-200.000	-0.022	-0.115
-92.786	800.000	0.053	0.174
-91.772	-118.374	0.054	0.010
-90.757	-58.210	0.117	0.051
-89.743	-103.975	-0.312	0.072
-88.728	-200.000	0.003	0.175
-87.713	-127.841	0.349	-0.050
-86.699	421.000	0.048	0.102
-85.684	-186.669	0.063	-0.001
-84.670	-200.000	-0.003	0.188
-83.655	149.583	-0.107	0.144
-82.640	-200.000	-0.006	-0.149
-81.626	-200.000	0.026	-0.373
-80.611	100.535	0.350	-0.404
-79.597	215.959	0.303	0.479
-78.582	-191.326	-0.342	0.003
-77.567	205.926	-0.304	0.470
-76.553	800.000	0.157	0.443
-75.538	33.368	0.010	-0.008
-74.524	-106.404	0.158	0.035
-73.509	-200.000	-0.031	-0.303
-72.494	88.869	0.103	0.114
-71.480	-37.059	0.315	0.168
-70.465	-200.000	0.020	-0.460
-69.451	-75.543	0.201	-0.071
-68.436	-200.000	-0.083	0.471
-67.422	31.255	-0.089	0.076
-66.407	357.673	0.210	0.417
-65.392	-200.000	-0.013	-0.145
-64.378	-65.650	-0.183	0.073
-63.363	-200.000	0.017	0.300
-62.349	101.099	-0.109	0.126
-61.334	128.140	-0.769	-0.971
-60.319	-66.460	0.291	0.115
-59.305	-200.000	-0.005	-0.516
-58.290	109.335	0.467	0.555
-57.276	606.388	0.691	1.710
-56.261	-200.000	84.362	504.745
-55.246	552.000	1386.715	3307.402
-54.232	178.103	2638.017	3822.615
-53.217	120.580	2275.710	2808.088
-52.203	49.497	1720.514	1608.230
-51.188	41.599	1449.019	1303.129
-50.173	38.328	1404.587	1242.378
-49.159	56.622	1443.711	1394.918
-48.144	61.628	1461.868	1444.552
-47.130	41.906	1423.487	1281.928
-46.115	38.371	1406.194	1243.877
-45.100	38.135	1401.638	1238.301
-44.086	38.113	1398.903	1235.694
-43.071	38.083	1395.964	1232.863
-42.057	38.034	1394.101	1230.856
-41.042	38.109	1392.537	1229.900
-40.027	38.134	1391.137	1228.774
-39.013	38.134	1389.112	1226.932
-37.998	38.111	1387.647	1225.450
-36.984	38.181	1385.816	1224.219
-35.969	38.231	1383.728	1222.641
-34.954	38.272	1382.110	1221.421
-33.940	38.260	1380.955	1220.276
-32.925	38.370	1378.785	1218.996
-31.911	38.225	1377.734	1217.116
-30.896	38.393	1375.950	1216.533
-29.881	38.318	1374.864	1215.057
-28.867	38.321	1372.964	1213.349
-27.852	38.308	1371.748	1212.148
-26.838	38.400	1369.838	1210.980
-25.823	38.322	1368.729	1209.467
-24.809	38.281	1367.125	1207.752
-23.794	38.388	1365.478	1206.911
-22.779	38.442	1364.214	1206.080
-21.765	38.367	1363.180	1204.652
-20.750	38.280	1361.471	1202.556
-19.736	38.277	1360.299	1201.458
-18.721	38.137	1358.896	1199.309
-17.706	38.215	1357.704	1198.689
-16.692	38.235	1356.284	1197.511
-15.677	38.153	1355.556	1196.317
-14.663	38.215	1353.976	1195.256
-13.648	38.265	1352.917	1194.579
-12.633	38.102	1352.228	1192.928
-11.619	38.124	1351.059	1191.984
-10.604	38.207	1350.198	1191.682
-9.590	38.117	1349.308	1190.299
-8.575	38.056	1348.473	1189.146
-7.560	38.153	1347.334	1188.685
-6.546	38.213	1346.052	1187.873
-5.531	38.143	1345.338	1186.771
-4.517	38.149	1344.703	1186.198
-3.502	38.139	1343.546	1185.071
-2.487	38.327	1342.023	1184.819
-1.473	38.157	1338.601	1180.724
-0.458	36.760	1322.378	1158.016
0.556	30.540	1301.613	1113.169
1.571	26.318	1305.452	1090.932
2.586	25.244	1321.607	1097.764
3.600	24.682	1311.920	1086.207
4.615	18.847	1233.593	987.826
5.629	6.942	1147.716	854.939
6.644	0.277	1121.408	799.963
7.659	-0.405	1117.992	793.848
8.673	-0.493	1116.789	792.459
9.688	-0.497	1115.440	791.410
10.702	0.182	1114.747	794.432
11.717	7.868	1126.932	843.922
12.731	16.801	1139.583	901.026
13.746	16.903	1137.378	899.746
14.761	14.359	1132.975	882.720
15.775	13.626	1131.868	877.900
16.790	13.211	1130.574	874.624
17.804	13.021	1130.127	873.195
18.819	12.968	1129.383	872.260
19.834	12.880	1128.653	871.152
20.848	12.744	1127.809	869.708
21.863	12.711	1127.155	868.952
22.877	12.634	1126.223	867.752
23.892	12.681	1125.361	867.258
24.907	12.685	1125.146	867.037
25.921	12.755	1124.110	866.532
26.936	12.730	1122.000	864.694
27.950	12.755	1120.846	863.860
28.965	12.758	1118.493	861.988
29.980	12.722	1116.778	860.401
30.994	12.631	1115.275	858.692
32.009	12.781	1114.114	858.502
33.023	12.762	1112.643	857.196
34.038	12.768	1111.971	856.631
35.053	12.700	1111.134	855.560
36.067	12.808	1109.734	854.965
37.082	12.799	1108.805	854.127
38.096	12.759	1108.116	853.316
39.111	12.742	1107.485	852.667
40.126	12.743	1105.939	851.404
41.140	12.701	1104.457	849.970
42.155	12.692	1102.996	848.727
43.169	12.708	1102.002	847.967
44.184	12.673	1100.652	846.673
45.199	12.689	1099.674	845.929
46.213	12.699	1098.444	844.962
47.228	12.693	1096.937	843.695
48.242	12.660	1096.319	842.977
49.257	12.720	1094.959	842.163
50.271	12.757	1093.563	841.202
51.286	12.727	1092.570	840.214
52.301	12.628	1091.893	839.114
53.315	12.740	1090.495	838.536
54.330	12.707	1089.340	837.405
55.344	12.678	1088.793	836.760
56.359	12.771	1087.684	836.308
57.374	12.713	1086.908	835.344
58.388	12.732	1085.825	834.532
59.403	12.715	1085.050	833.779
60.417	12.685	1084.267	832.950
61.432	12.605	1083.509	831.889
62.447	12.754	1082.425	831.738
63.461	12.798	1081.412	831.107
64.476	12.606	1080.782	829.579
65.490	12.751	1079.938	829.591
66.505	12.758	1079.047	828.868
67.520	12.641	1078.544	827.820
68.534	12.802	1077.134	827.474
69.549	12.725	1076.197	826.291
70.563	12.657	1075.753	825.536
71.578	12.717	1074.676	824.938
72.593	12.737	1073.869	824.346
73.607	12.652	1073.319	823.428
74.622	12.804	1072.721	823.656
75.636	12.768	1072.020	822.864
76.651	12.749	1070.822	821.775
77.666	12.688	1070.664	821.278
78.680	12.728	1069.887	820.808
79.695	12.729	1068.902	819.987
80.709	12.754	1068.182	819.484
81.724	12.683	1067.261	818.352
82.739	12.792	1066.352	818.126
83.753	12.769	1065.421	817.223
84.768	12.937	1064.124	816.991
85.782	12.777	1063.411	815.576
86.797	12.740	1062.266	814.442
87.812	12.910	1061.116	814.330
88.826	12.788	1060.297	813.028
89.841	12.885	1058.856	812.328
90.855	12.887	1057.762	811.429
91.870	12.909	1056.995	810.876
92.884	12.901	1056.100	810.079
93.899	12.869	1055.264	809.208
94.914	12.927	1054.456	808.800
95.928	12.893	1053.787	808.048
96.943	12.799	1052.783	806.749
97.957	12.923	1050.998	805.916
98.972	12.745	1050.287	804.430
99.987	12.820	1049.375	804.026
101.001	12.804	1048.905	803.514
102.016	12.886	1047.712	802.929
103.030	12.864	1047.061	802.254
104.045	12.881	1045.683	801.209
105.060	12.772	1044.832	799.957
106.074	12.795	1044.167	799.489
107.089	12.899	1043.377	799.316
108.103	12.870	1042.326	798.303
109.118	12.881	1040.829	797.139
110.133	12.929	1040.133	796.763
111.147	13.036	1039.075	796.400
112.162	12.898	1037.575	794.517
113.176	12.872	1037.211	794.044
114.191	12.927	1036.157	793.429
115.206	12.755	1035.548	792.066
116.220	12.722	1034.490	791.030
117.235	12.867	1033.505	790.898
118.249	12.955	1032.073	790.158
119.264	12.912	1031.420	789.382
120.279	12.916	1030.458	788.593
121.293	12.998	1029.319	788.042
122.308	12.979	1028.523	787.273
123.322	12.889	1027.435	785.943
124.337	12.988	1026.132	785.349
125.352	12.774	1025.039	783.424
126.366	12.759	1023.671	782.236
127.381	12.922	1022.459	782.014
128.395	12.920	1021.895	781.505
129.410	13.088	1020.711	781.327
130.424	13.039	1019.523	780.117
131.439	13.060	1018.531	779.388
132.454	12.991	1017.758	778.403
133.468	13.089	1016.627	777.928
134.483	13.094	1015.618	777.111
135.497	13.134	1014.577	776.433
136.512	13.015	1013.722	775.155
137.527	13.154	1012.654	774.921
138.541	13.154	1011.817	774.208
139.556	13.068	1011.274	773.325
140.570	13.070	1010.103	772.371
141.585	13.144	1008.970	771.778
142.600	13.040	1008.173	770.616
143.614	13.091	1007.052	769.930
144.629	13.048	1006.424	769.178
145.643	13.061	1005.341	768.347
146.658	13.026	1004.564	767.523
147.673	12.989	1003.153	766.204
148.687	13.038	1002.171	765.611
149.702	13.004	1001.340	764.750
150.716	13.111	1000.423	764.481
151.731	13.034	999.818	763.594
152.746	13.056	999.053	763.043
153.760	13.126	998.363	762.772
154.775	12.984	997.602	761.469
155.789	13.107	996.805	761.361
156.804	13.239	995.875	761.190
157.819	13.146	995.146	760.139
158.833	13.042	994.416	759.035
159.848	12.967	993.267	757.747
160.862	13.139	991.955	757.468
161.877	13.194	991.351	757.192
162.892	13.161	990.319	756.185
163.906	13.103	989.309	755.083
164.921	13.006	988.839	754.211
165.935	13.135	987.410	753.645
166.950	13.190	986.090	752.822
167.964	13.062	985.268	751.542
168.979	13.076	984.238	750.753
169.994	13.112	983.294	750.132
171.008	13.224	982.333	749.841
172.023	13.065	981.646	748.528
173.037	12.916	980.729	747.088
174.052	12.989	980.125	746.893
175.067	13.151	979.318	746.947
176.081	13.121	978.618	746.210
177.096	13.220	977.786	745.955
178.110	13.227	976.904	745.248
179.125	13.122	976.201	744.172
180.140	13.083	975.761	743.595
181.154	13.127	975.443	743.487
182.169	13.153	974.796	743.043
183.183	13.252	974.133	742.917
184.198	13.128	973.284	741.646
185.213	13.193	972.403	741.203
186.227	13.146	971.982	740.606
187.242	13.299	970.585	740.159
188.256	13.121	970.538	739.264
189.271	13.233	969.062	738.574
190.286	13.163	968.844	738.031
191.300	13.240	967.576	737.341
192.315	13.127	967.152	736.448
193.329	13.093	966.585	735.802
194.344	13.250	965.972	735.970
195.359	13.291	965.146	735.455
196.373	13.370	964.154	734.988
197.388	13.107	964.258	733.833
198.402	13.223	963.213	733.486
199.417	13.350	962.058	733.106
200.432	13.372	961.584	732.774
201.446	13.155	961.438	731.637
202.461	13.207	960.362	730.984
203.475	13.131	959.768	730.132
204.490	13.023	958.640	728.735
205.504	13.159	957.929	728.728
206.519	13.294	956.904	728.480
207.534	13.254	956.288	727.767
208.548	13.314	955.841	727.630
209.563	13.297	955.198	726.998
210.577	13.403	953.920	726.429
211.592	13.401	953.538	726.065
212.607	13.416	952.411	725.209
213.621	13.261	951.843	724.032
214.636	13.497	950.762	724.179
215.650	13.392	950.154	723.191
216.665	13.493	949.367	722.970
217.680	13.487	948.391	722.136
218.694	13.353	947.722	720.981
219.709	13.455	947.034	720.837
220.723	13.396	946.483	720.095
221.738	13.464	945.967	719.937
222.753	13.405	945.317	719.123
223.767	13.472	944.200	718.499
224.782	13.571	943.693	718.479
225.796	13.494	942.998	717.554
226.811	13.281	942.771	716.394
227.826	13.334	941.359	715.486
228.840	13.383	940.924	715.305
229.855	13.352	939.736	714.205
230.869	13.423	938.856	713.778
231.884	13.343	938.260	712.918
232.899	13.422	937.900	712.920
233.913	13.439	936.853	712.137
234.928	13.434	936.291	711.621
235.942	13.544	935.710	711.593
236.957	13.454	934.992	710.598
237.972	13.446	934.444	710.081
238.986	13.548	933.411	709.671
240.001	13.419	932.980	708.727
241.015	13.491	931.866	708.127
242.030	13.550	931.028	707.680
243.045	13.511	930.591	707.119
244.059	13.524	929.639	706.390
245.074	13.521	928.773	705.653
246.088	13.712	928.187	705.959
247.103	13.583	927.726	704.997
248.117	13.641	926.897	704.553
249.132	13.660	926.061	703.936
250.147	13.569	925.012	702.689
251.161	13.706	924.354	702.709
252.176	13.645	923.631	701.839
253.190	13.757	923.088	701.836
254.205	13.630	922.443	700.750
255.220	13.616	921.746	700.098
256.234	13.658	920.857	699.537
257.249	13.690	920.043	698.992
258.263	13.631	919.298	698.115
259.278	13.775	918.421	697.994
260.293	13.788	917.802	697.515
261.307	13.652	917.554	696.697
262.322	13.701	916.662	696.163
263.336	13.765	915.753	695.677
264.351	13.644	915.189	694.682
265.366	13.589	914.397	693.789
266.380	13.768	913.464	693.767
267.395	13.918	912.367	693.498
268.409	13.772	911.879	692.459
269.424	13.844	911.289	692.249
270.439	13.817	910.482	691.464
271.453	13.858	909.784	691.040
272.468	13.783	909.197	690.223
273.482	13.828	908.635	689.920
274.497	13.791	907.799	689.072
275.512	13.876	907.428	689.084
276.526	13.850	906.691	688.356
277.541	13.952	906.011	688.200
278.555	13.891	905.451	687.459
279.570	13.906	904.538	686.770
280.585	14.013	903.317	686.221
281.599	13.879	903.118	685.457
282.614	13.852	902.417	684.755
283.628	14.001	901.610	684.695
284.643	13.990	901.033	684.149
285.657	13.927	900.361	683.321
286.672	14.128	899.658	683.552
287.687	14.026	898.652	682.311
288.701	13.960	898.329	681.731
289.716	13.995	897.634	681.290
290.730	14.041	897.181	681.074
291.745	13.932	896.709	680.207
292.760	13.988	895.765	679.661
293.774	13.979	894.980	678.967
294.789	13.879	894.261	677.954
295.803	13.960	893.388	677.565
296.818	13.905	893.026	677.005
297.833	14.024	892.067	676.703
298.847	14.075	891.329	676.291
299.862	14.039	891.128	675.929
300.876	13.897	890.424	674.761
301.891	14.134	889.354	674.851
302.906	14.165	888.564	674.316
303.920	14.077	888.418	673.793
304.935	14.009	888.010	673.145
305.949	14.132	886.900	672.743
306.964	14.235	886.192	672.564
307.979	14.091	885.631	671.495
308.993	14.003	884.916	670.539
310.008	13.926	884.844	670.114
311.022	14.106	883.800	669.992
312.037	14.139	883.564	669.885
313.052	14.074	883.088	669.205
314.066	14.230	882.523	669.345
315.081	14.144	881.959	668.511
316.095	14.151	881.178	667.888
317.110	14.096	880.551	667.133
318.125	14.267	880.001	667.344
319.139	14.268	880.180	667.423
320.154	14.291	879.165	666.688
321.168	14.254	878.342	665.854
322.183	14.231	877.631	665.164
323.197	14.140	877.063	664.311
324.212	14.278	876.421	664.318
325.227	14.127	875.814	663.196
326.241	14.052	875.526	662.623
327.256	14.107	875.085	662.449
328.270	14.061	874.263	661.586
329.285	14.114	873.583	661.222
330.300	14.110	873.236	660.885
331.314	14.170	872.361	660.403
332.329	14.087	871.758	659.559
333.343	14.099	870.979	658.957
334.358	14.067	870.643	658.517
335.373	14.137	870.256	658.446
336.387	14.258	869.612	658.379
337.402	14.128	869.452	657.685
338.416	14.277	868.895	657.792
339.431	14.174	868.546	657.063
340.446	14.121	868.056	656.427
341.460	14.095	868.094	656.293
342.475	14.165	867.590	656.132
343.489	14.098	866.978	655.345
344.504	14.104	866.183	654.710
345.519	14.075	865.911	654.333
346.533	14.018	865.393	653.658
347.548	14.110	864.649	653.402
348.562	14.088	864.294	652.990
349.577	14.239	863.286	652.764
350.592	14.171	862.915	652.160
351.606	14.147	862.096	651.386
352.621	14.115	861.257	650.570
353.635	14.237	860.542	650.447
354.650	14.312	860.326	650.520
355.665	14.585	859.738	651.083
356.679	14.423	859.136	649.940
357.694	14.449	858.101	649.199
358.708	14.386	857.553	648.484
359.723	14.166	856.754	646.966
360.738	14.316	855.968	646.898
361.752	14.131	855.607	645.849
362.767	14.168	855.205	645.631
363.781	14.043	854.319	644.423
364.796	14.195	853.543	644.368
365.810	14.244	852.971	644.069
366.825	14.199	852.747	643.669
367.840	14.179	852.849	643.612
368.854	14.387	851.614	643.424
369.869	14.323	851.330	642.906
370.883	14.334	850.980	642.630
371.898	14.472	850.761	642.939
372.913	14.348	850.371	642.108
373.927	14.216	849.633	640.986
374.942	14.288	848.986	640.718
375.956	14.464	848.239	640.773
376.971	14.410	847.795	640.177
377.986	14.140	847.504	638.861
379.000	14.237	847.224	638.969
380.015	14.227	846.803	638.555
381.029	14.426	845.858	638.550
382.044	14.274	845.165	637.387
383.059	14.438	844.517	637.470
384.073	14.364	843.830	636.611
385.088	14.356	843.078	635.955
386.102	14.313	842.735	635.478
387.117	14.296	842.315	635.038
388.132	14.510	841.823	635.427
389.146	14.597	841.599	635.534
390.161	14.678	840.953	635.299
391.175	14.531	840.218	634.130
392.190	14.622	839.863	634.150
393.205	14.969	840.061	635.562
394.219	15.304	840.168	636.860
395.234	15.423	839.673	636.879
396.248	14.862	838.506	633.809
397.263	14.361	837.640	631.201
398.278	14.514	836.640	630.971
399.292	14.489	836.488	630.708
400.307	14.454	836.301	630.378
401.321	14.411	835.987	629.923
402.336	14.340	834.944	628.812
403.350	14.288	834.440	628.184
404.365	14.236	833.528	627.244
405.380	14.225	833.002	626.750
406.394	14.288	832.042	626.210
407.409	14.357	832.280	626.594
408.423	14.162	832.013	625.606
409.438	14.290	831.286	625.485
410.453	14.274	830.559	624.822
411.467	14.271	830.144	624.441
412.482	14.214	829.875	623.969
413.496	14.087	829.551	623.195
414.511	14.215	828.748	623.016
415.526	14.324	828.628	623.278
416.540	14.375	828.250	623.131
417.555	14.625	827.370	623.348
418.569	14.574	826.641	622.551
419.584	14.562	826.496	622.343
420.599	14.622	826.166	622.264
421.613	150.154	1356.871	1774.921
422.628	131.088	1434.203	1775.010
