DTS Sentinel unit serial number:	SN413079Multiplexer serial number:	ORYXHardware model number:	OX4-SRSoftware version number:	ORYX F/W v4.00 Oryx Data Collector v3.7.2.0data status	okinstallation	princeton_trtdifferential loss correction	single-endedforward channel	channel 1reverse channel	N/Adate	2019/09/11time	03:40:11forward acquisition time	60.00reverse acquisition time	0.00gamma	496.2192k internal	0.2330k external	0.2330temperature offset calibration	0.9926default loss term (dB/km)	0.3790temperature slope calibration	1.0000multiplexer offset coefficient	1.0000multiplexer slope coefficient	1.0000fibre end	0.00T internal ref (°C)	29.50T ext. ref 1 (°C)	-0.29T ext. ref 2 (°C)	23.98length (m)	temperature (°C)	Stokes	anti-Stokes-747.200	228.859	0.072	-0.118
-746.185	-200.000	-0.042	-0.263
-745.171	10.192	-0.246	-0.189
-744.156	-200.000	-0.019	0.139
-743.142	172.787	-0.251	-0.364
-742.127	158.068	0.173	0.242
-741.112	662.436	0.077	-0.201
-740.098	-200.000	-0.096	0.432
-739.083	-27.438	0.148	0.087
-738.069	244.936	-0.137	0.232
-737.054	-197.664	-0.068	-0.000
-736.039	-71.130	-0.444	0.168
-735.025	-23.004	0.409	-0.248
-734.010	36.001	0.193	-0.171
-732.996	-88.277	-0.115	-0.035
-731.981	123.588	-0.113	0.143
-730.966	-77.264	-0.177	-0.062
-729.952	79.282	-0.061	-0.065
-728.937	-66.590	-0.246	-0.098
-727.923	800.000	-0.043	-0.132
-726.908	-200.000	0.079	-0.404
-725.894	800.000	-0.041	-0.143
-724.879	-98.068	-0.217	-0.056
-723.864	512.472	-0.166	-0.388
-722.850	800.000	0.115	-0.332
-721.835	13.515	-0.125	0.097
-720.821	318.483	-0.081	-0.154
-719.806	-200.000	0.042	0.309
-718.791	-16.782	0.110	0.070
-717.777	16.478	-0.113	-0.090
-716.762	-10.380	-0.086	-0.057
-715.748	75.147	0.107	-0.113
-714.733	-106.966	0.195	0.043
-713.718	82.191	0.102	0.111
-712.704	-184.435	-0.171	-0.003
-711.689	41.251	0.073	0.067
-710.675	62.752	0.130	0.131
-709.660	-53.323	0.136	0.063
-708.645	231.723	0.142	-0.234
-707.631	800.000	-0.038	-0.125
-706.616	-49.220	-0.268	-0.129
-705.602	-74.759	-0.157	-0.057
-704.587	19.811	-0.410	-0.332
-703.572	505.692	0.110	-0.255
-702.558	176.548	-0.108	0.157
-701.543	-200.000	-0.019	0.174
-700.529	266.598	-0.126	-0.221
-699.514	-200.000	-0.015	-0.099
-698.499	2.874	0.265	-0.194
-697.485	800.000	-0.054	-0.157
-696.470	-111.408	0.319	0.065
-695.456	-45.826	0.132	0.065
-694.441	-97.401	0.245	-0.064
-693.426	38.914	0.149	0.134
-692.412	553.871	0.067	0.163
-691.397	281.536	-0.195	0.352
-690.383	-122.516	-0.226	0.037
-689.368	800.000	-0.115	0.344
-688.354	-200.000	0.018	-0.138
-687.339	207.592	-0.139	-0.219
-686.324	-130.906	0.285	0.038
-685.310	414.292	0.033	-0.071
-684.295	34.339	0.339	-0.297
-683.281	289.651	-0.203	-0.369
-682.266	800.000	-0.079	-0.296
-681.251	15.739	0.381	-0.301
-680.237	52.821	-0.200	0.192
-679.222	-200.000	-0.005	0.093
-678.208	72.677	-0.103	-0.108
-677.193	-52.666	-0.159	-0.074
-676.178	-15.014	0.269	-0.173
-675.164	-150.144	-0.170	0.013
-674.149	-19.336	0.267	-0.166
-673.135	-176.230	0.066	-0.002
-672.120	266.912	0.055	0.097
-671.105	-200.000	-0.002	0.117
-670.091	65.448	-0.123	-0.125
-669.076	-23.095	-0.052	0.031
-668.062	-20.252	0.441	0.273
-667.047	573.178	0.126	0.308
-666.032	-2.196	-0.211	-0.149
-665.018	334.601	-0.173	-0.336
-664.003	-111.370	-0.488	0.100
-662.989	285.628	0.099	-0.179
-661.974	-119.643	-0.259	0.045
-660.959	-200.000	-0.040	0.335
-659.945	342.357	0.116	-0.229
-658.930	-11.326	-0.202	-0.134
-657.916	-200.000	-0.012	-0.089
-656.901	98.588	-0.374	-0.432
-655.886	-200.000	-0.071	0.369
-654.872	-40.511	-0.174	-0.090
-653.857	-200.000	0.025	0.203
-652.843	595.502	-0.010	0.025
-651.828	-79.407	-0.253	-0.086
-650.814	2.476	0.157	0.114
-649.799	-143.607	-0.580	0.055
-648.784	26.930	0.040	0.034
-647.770	265.513	-0.023	-0.041
-646.755	193.435	-0.193	-0.292
-645.741	-19.268	-0.022	0.014
-644.726	-20.177	-0.127	0.079
-643.711	-16.936	0.158	-0.100
-642.697	76.180	0.031	0.033
-641.682	-181.360	-0.225	-0.004
-640.668	-200.000	-0.032	0.462
-639.653	5.211	0.118	0.087
-638.638	-200.000	0.018	0.086
-637.624	-200.000	0.061	-0.415
-636.609	359.184	-0.077	0.155
-635.595	153.463	0.060	-0.082
-634.580	-144.279	-0.163	-0.015
-633.565	-18.737	-0.220	-0.137
-632.551	-1.897	0.269	0.190
-631.536	49.611	0.358	0.338
-630.522	343.768	-0.057	-0.113
-629.507	21.156	-0.210	-0.171
-628.492	17.863	-0.160	-0.128
-627.478	154.853	0.078	0.107
-626.463	23.709	0.178	-0.147
-625.449	-94.868	-0.123	0.033
-624.434	-16.590	0.210	-0.133
-623.419	23.459	0.100	0.082
-622.405	50.282	0.080	-0.076
-621.390	-83.175	0.172	0.055
-620.376	-4.167	-0.116	-0.080
-619.361	-2.282	-0.104	-0.073
-618.346	800.000	-0.032	0.110
-617.332	-22.193	0.311	-0.189
-616.317	256.088	0.108	-0.185
-615.303	127.505	0.168	0.213
-614.288	-40.537	-0.058	-0.030
-613.273	800.000	-0.043	-0.181
-612.259	313.791	-0.079	0.150
-611.244	800.000	0.083	0.336
-610.230	95.587	0.120	0.137
-609.215	26.119	0.160	-0.134
-608.201	-77.143	0.388	-0.136
-607.186	-11.920	-0.200	-0.131
-606.171	-82.957	-0.098	0.032
-605.157	-31.197	-0.153	0.086
-604.142	-200.000	-0.027	0.262
-603.128	-87.483	-0.082	0.025
-602.113	-121.260	0.081	0.014
-601.098	92.169	0.316	0.357
-600.084	510.847	-0.101	0.234
-599.069	800.000	0.088	0.312
-598.055	1.659	0.262	-0.189
-597.040	-20.430	-0.482	-0.297
-596.025	-200.000	-0.017	0.146
-595.011	-167.583	-0.212	-0.008
-593.996	-108.852	0.190	0.041
-592.982	-166.928	0.325	-0.013
-591.967	-86.686	-0.088	-0.027
-590.952	800.000	0.048	-0.172
-589.938	-32.218	-0.175	0.098
-588.923	11.751	-0.182	-0.140
-587.909	213.562	-0.107	0.170
-586.894	375.694	0.053	0.109
-585.879	-23.241	0.105	0.063
-584.865	-159.331	0.307	-0.017
-583.850	-34.724	-0.145	-0.079
-582.836	-200.000	0.005	-0.164
-581.821	-47.480	-0.172	0.084
-580.806	-4.366	-0.266	-0.184
-579.792	-106.049	-0.279	0.063
-578.777	92.480	0.101	0.114
-577.763	23.794	-0.357	-0.294
-576.748	150.745	0.168	-0.229
-575.733	227.123	-0.167	-0.272
-574.719	-169.288	0.467	-0.017
-573.704	-30.440	0.035	0.020
-572.690	800.000	0.050	-0.194
-571.675	169.062	-0.217	-0.309
-570.661	-126.619	-0.155	-0.023
-569.646	-167.407	-0.261	-0.010
-568.631	-135.785	0.123	0.015
-567.617	-7.528	0.138	-0.093
-566.602	393.498	-0.017	-0.036
-565.588	-174.535	0.147	0.004
-564.573	-200.000	0.008	0.145
-563.558	134.274	0.247	0.320
-562.544	81.543	0.067	-0.072
-561.529	35.978	-0.199	-0.175
-560.515	-200.000	-0.033	-0.156
-559.500	-95.291	-0.238	0.064
-558.485	117.333	-0.316	-0.389
-557.471	-127.835	-0.126	-0.018
-556.456	-169.156	0.305	0.011
-555.442	-200.000	-0.000	-0.267
-554.427	-54.544	0.098	0.044
-553.412	179.838	-0.127	-0.187
-552.398	31.344	0.111	-0.096
-551.383	250.852	0.094	-0.160
-550.369	-200.000	0.010	-0.053
-549.354	315.638	-0.071	0.133
-548.339	419.100	-0.029	0.062
-547.325	110.335	0.175	-0.210
-546.310	5.083	0.294	0.217
-545.296	19.088	-0.041	-0.033
-544.281	-200.000	-0.041	0.243
-543.266	63.669	-0.037	0.037
-542.252	-66.238	-0.256	0.102
-541.237	-115.477	0.225	0.042
-540.223	143.145	0.071	-0.094
-539.208	800.000	0.147	-0.545
-538.193	538.887	0.059	-0.139
-537.179	-76.086	-0.044	-0.016
-536.164	-69.875	-0.051	0.019
-535.150	800.000	-0.063	-0.224
-534.135	-79.839	0.238	0.080
-533.121	101.065	-0.067	-0.078
-532.106	-191.742	-0.103	-0.001
-531.091	-84.134	-0.266	-0.084
-530.077	-65.404	-0.181	0.073
-529.062	-83.086	-0.144	-0.046
-528.048	-152.744	0.542	-0.038
-527.033	-95.661	-0.230	-0.061
-526.018	65.587	-0.103	0.104
-525.004	660.691	0.067	-0.171
-523.989	6.563	-0.215	-0.159
-522.975	-82.975	0.144	-0.046
-521.960	265.245	0.196	-0.340
-520.945	319.990	0.194	-0.367
-519.931	-200.000	-0.043	0.314
-518.916	354.228	-0.048	-0.095
-517.902	-14.640	-0.326	0.209
-516.887	-104.706	0.233	0.054
-515.872	704.643	0.092	-0.243
-514.858	800.000	-0.058	-0.234
-513.843	-114.605	-0.220	-0.042
-512.829	-31.134	-0.311	-0.175
-511.814	-200.000	-0.074	0.353
-510.799	386.692	-0.084	0.173
-509.785	-117.785	0.210	0.038
-508.770	800.000	-0.194	0.609
-507.756	800.000	-0.036	-0.112
-506.741	-200.000	-0.023	0.123
-505.726	-101.114	-0.232	0.057
-504.712	-200.000	-0.019	0.216
-503.697	697.875	0.067	0.175
-502.683	800.000	-0.054	0.212
-501.668	-157.557	-0.604	-0.036
-500.653	-136.017	-0.249	0.029
-499.639	-80.013	-0.145	-0.048
-498.624	-200.000	0.021	0.126
-497.610	564.523	-0.072	-0.175
-496.595	-200.000	-0.025	-0.141
-495.581	800.000	0.078	-0.234
-494.566	-115.262	-0.263	-0.050
-493.551	-105.152	0.190	0.043
-492.537	50.536	-0.068	-0.064
-491.522	15.180	-0.232	-0.181
-490.508	-200.000	0.028	-0.179
-489.493	166.481	-0.207	0.293
-488.478	-126.282	-0.189	-0.028
-487.464	37.074	-0.165	-0.145
-486.449	425.831	-0.155	-0.333
-485.435	51.104	-0.271	-0.256
-484.420	-76.411	0.122	-0.043
-483.405	24.041	0.121	0.100
-482.391	-84.576	0.286	0.090
-481.376	99.558	-0.142	0.164
-480.362	-132.807	-0.121	0.015
-479.347	-58.429	0.314	0.136
-478.332	-200.000	0.009	0.047
-477.318	17.377	-0.137	0.108
-476.303	417.693	-0.035	-0.075
-475.289	800.000	-0.038	-0.110
-474.274	137.447	-0.135	0.176
-473.259	173.824	0.213	0.307
-472.245	316.919	0.160	0.300
-471.230	416.168	0.127	0.270
-470.216	-102.044	0.191	-0.046
-469.201	0.876	-0.018	-0.013
-468.186	-140.306	-0.099	-0.010
-467.172	51.103	0.082	-0.077
-466.157	-80.954	-0.232	0.077
-465.143	-50.870	-0.200	-0.094
-464.128	45.731	-0.105	0.097
-463.113	62.869	-0.063	0.063
-462.099	242.528	-0.106	0.177
-461.084	800.000	0.065	-0.187
-460.070	-54.149	-0.069	-0.031
-459.055	146.027	-0.242	-0.324
-458.040	-200.000	0.005	-0.117
-457.026	-118.054	0.229	-0.041
-456.011	-58.602	0.131	-0.056
-454.997	-160.548	0.122	-0.007
-453.982	148.913	-0.054	0.072
-452.968	436.201	-0.144	-0.312
-451.953	48.453	-0.011	-0.010
-450.938	800.000	0.065	-0.266
-449.924	-84.952	-0.294	0.092
-448.909	-77.653	-0.119	-0.041
-447.895	-132.975	0.586	0.074
-446.880	-200.000	0.021	-0.160
-445.865	125.945	-0.156	-0.197
-444.851	-136.127	0.253	-0.030
-443.836	-106.817	0.338	-0.075
-442.822	-17.482	-0.199	0.125
-441.807	-134.374	-0.123	0.015
-440.792	-103.601	0.195	0.046
-439.778	-200.000	0.052	0.374
-438.763	-181.720	0.371	-0.007
-437.749	32.265	-0.045	0.039
-436.734	-200.000	0.009	0.220
-435.719	249.109	0.083	0.140
-434.705	160.905	-0.177	-0.246
-433.690	-126.253	0.121	0.018
-432.676	-64.836	-0.089	0.036
-431.661	-32.694	0.294	-0.162
-430.646	333.940	-0.070	-0.134
-429.632	166.968	-0.084	0.119
-428.617	200.932	-0.078	0.119
-427.603	209.319	0.182	0.284
-426.588	320.198	0.142	0.268
-425.573	800.000	-0.063	-0.186
-424.559	129.286	-0.023	-0.029
-423.544	-106.943	-0.414	0.091
-422.530	-115.142	-0.140	-0.026
-421.515	-156.678	0.434	-0.027
-420.500	-27.113	-0.202	-0.117
-419.486	584.154	-0.079	-0.192
-418.471	-200.000	-0.014	-0.193
-417.457	195.776	-0.205	0.310
-416.442	-200.000	-0.027	-0.314
-415.428	278.105	-0.052	0.091
-414.413	-16.724	-0.298	-0.187
-413.398	-117.832	0.138	-0.025
-412.384	800.000	0.037	-0.114
-411.369	-200.000	-0.125	0.553
-410.355	256.102	-0.079	0.135
-409.340	135.853	0.130	0.169
-408.325	161.426	-0.090	0.125
-407.311	800.000	0.166	-0.474
-406.296	61.786	-0.176	0.174
-405.282	11.390	0.170	-0.129
-404.267	293.155	0.174	0.316
-403.252	246.383	0.153	-0.257
-402.238	98.475	0.102	0.117
-401.223	50.938	-0.079	-0.074
-400.209	-16.108	-0.252	0.159
-399.194	-200.000	0.048	-0.247
-398.179	800.000	0.045	0.163
-397.165	-45.572	-0.187	0.092
-396.150	148.390	-0.188	-0.252
-395.136	89.221	0.148	0.164
-394.121	-200.000	0.001	-0.014
-393.106	-1.270	-0.070	0.049
-392.092	800.000	0.057	0.198
-391.077	-200.000	-0.043	0.218
-390.063	-152.900	0.127	-0.009
-389.048	-48.948	-0.108	-0.051
-388.033	-200.000	0.019	-0.180
-387.019	-11.532	0.149	-0.097
-386.004	0.383	0.030	-0.022
-384.990	-5.737	0.122	-0.083
-383.975	800.000	-0.022	-0.064
-382.960	41.969	0.203	-0.183
-381.946	149.135	0.017	0.023
-380.931	213.511	-0.160	0.251
-379.917	-155.083	0.391	0.025
-378.902	-200.000	-0.010	-0.357
-377.888	-200.000	0.020	-0.212
-376.873	34.963	0.267	0.232
-375.858	194.759	-0.175	0.263
-374.844	-100.716	0.309	-0.076
-373.829	562.086	0.118	-0.284
-372.815	-6.765	0.225	0.152
-371.800	-107.202	-0.067	0.015
-370.785	800.000	0.051	0.196
-369.771	800.000	0.122	0.460
-368.756	-6.337	-0.068	0.046
-367.742	37.151	0.160	-0.141
-366.727	-29.661	-0.149	0.084
-365.712	44.423	-0.113	0.103
-364.698	-200.000	-0.027	0.347
-363.683	-60.926	0.411	0.172
-362.669	-17.497	-0.169	0.106
-361.654	-76.372	-0.163	-0.057
-360.639	327.293	0.207	-0.394
-359.625	-200.000	0.062	-0.293
-358.610	-27.746	0.090	0.052
-357.596	38.548	-0.079	0.070
-356.581	-107.381	-0.252	-0.055
-355.566	800.000	-0.079	0.251
-354.552	418.110	-0.235	-0.498
-353.537	-90.183	-0.231	0.067
-352.523	-167.034	0.366	-0.015
-351.508	-103.949	0.109	0.025
-350.493	184.172	0.103	-0.151
-349.479	-107.241	0.149	0.033
-348.464	650.375	0.062	-0.156
-347.450	-200.000	-0.087	0.405
-346.435	-37.189	0.265	-0.140
-345.420	-154.733	0.290	0.019
-344.406	800.000	0.076	-0.212
-343.391	-64.011	-0.299	-0.121
-342.377	-27.972	0.173	0.099
-341.362	196.685	-0.217	-0.327
-340.348	29.146	-0.223	0.188
-339.333	-42.509	0.407	-0.205
-338.318	-193.231	0.147	-0.001
-337.304	-13.363	0.121	0.078
-336.289	-89.809	0.183	-0.053
-335.275	-148.805	-0.317	0.025
-334.260	101.226	-0.074	0.086
-333.245	-114.829	0.073	-0.014
-332.231	800.000	-0.067	0.265
-331.216	16.150	0.149	0.116
-330.202	-200.000	-0.033	0.164
-329.187	148.830	0.159	0.212
-328.172	800.000	-0.054	-0.190
-327.158	-200.000	-0.002	-0.341
-326.143	536.487	-0.055	0.129
-325.129	-14.484	0.145	-0.092
-324.114	-200.000	0.050	-0.324
-323.099	582.774	0.102	0.248
-322.085	4.752	0.202	0.147
-321.070	213.361	0.162	0.253
-320.056	-143.920	-0.048	0.005
-319.041	-166.204	0.152	-0.006
-318.026	-200.000	-0.043	-0.292
-317.012	-94.354	0.145	0.039
-315.997	98.129	0.087	-0.100
-314.983	-200.000	0.038	-0.189
-313.968	157.225	0.173	-0.236
-312.953	41.862	0.210	-0.188
-311.939	-26.317	0.082	-0.048
-310.924	-29.344	0.075	0.042
-309.910	-200.000	-0.026	-0.116
-308.895	562.049	0.066	-0.159
-307.880	680.678	-0.046	-0.119
-306.866	222.070	-0.070	0.111
-305.851	439.764	0.155	0.335
-304.837	-106.323	0.217	-0.048
-303.822	-28.694	-0.177	-0.101
-302.807	129.159	0.045	-0.057
-301.793	800.000	0.041	-0.147
-300.778	-81.209	-0.190	-0.062
-299.764	586.583	-0.136	0.330
-298.749	89.722	0.069	-0.076
-297.735	-200.000	0.017	-0.085
-296.720	153.188	-0.181	0.245
-295.705	-71.279	-0.153	0.057
-294.691	-85.927	0.143	0.044
-293.676	-63.890	0.342	0.138
-292.662	196.193	0.196	-0.295
-291.647	-200.000	0.024	-0.143
-290.632	-110.227	0.260	0.054
-289.618	293.385	0.364	-0.657
-288.603	-151.972	0.383	0.028
-287.589	800.000	0.052	0.163
-286.574	312.595	0.116	0.215
-285.559	-161.349	0.094	0.005
-284.545	-200.000	0.021	-0.137
-283.530	-102.578	-0.256	0.061
-282.516	51.085	0.170	-0.160
-281.501	2.678	-0.216	-0.155
-280.486	104.736	-0.095	0.111
-279.472	-67.875	-0.070	0.027
-278.457	800.000	-0.030	-0.111
-277.443	-200.000	0.020	-0.133
-276.428	800.000	0.035	0.117
-275.413	-108.931	0.342	0.072
-274.399	-200.000	-0.019	0.407
-273.384	-200.000	-0.021	0.108
-272.370	-116.712	0.086	0.016
-271.355	-200.000	0.008	0.137
-270.340	-162.996	-0.108	-0.005
-269.326	-61.705	-0.199	0.082
-268.311	-100.819	0.112	0.027
-267.297	800.000	-0.074	0.215
-266.282	-200.000	0.014	0.120
-265.267	-125.224	0.102	-0.015
-264.253	75.232	-0.200	0.209
-263.238	-200.000	-0.043	0.386
-262.224	238.080	0.124	0.203
-261.209	800.000	-0.090	0.311
-260.195	172.819	-0.096	0.136
-259.180	45.778	0.183	0.167
-258.165	556.193	-0.198	0.471
-257.151	-144.553	-0.365	0.033
-256.136	107.241	-0.286	-0.336
-255.122	625.037	-0.133	-0.331
-254.107	800.000	-0.025	0.086
-253.092	-170.333	0.233	0.008
-252.078	-108.120	-0.237	-0.051
-251.063	14.285	0.225	-0.173
-250.049	800.000	0.132	0.452
-249.034	44.370	0.052	0.048
-248.019	-120.086	-0.155	0.026
-247.005	-186.447	-0.130	0.002
-245.990	-137.882	0.222	-0.024
-244.976	92.967	-0.081	0.090
-243.961	-200.000	-0.016	0.233
-242.946	-5.262	0.093	0.063
-241.932	-89.492	-0.162	0.047
-240.917	-144.664	0.311	-0.028
-239.903	-200.000	0.039	-0.227
-238.888	-1.372	-0.282	0.197
-237.873	-139.905	-0.292	0.030
-236.859	800.000	0.133	0.377
-235.844	506.712	0.046	0.105
-234.830	-75.361	-0.148	-0.052
-233.815	-200.000	-0.020	-0.231
-232.800	41.180	-0.260	0.232
-231.786	86.529	-0.049	-0.053
-230.771	-8.216	-0.348	-0.231
-229.757	-185.316	-0.272	-0.004
-228.742	-200.000	0.011	0.222
-227.727	-171.767	0.336	0.011
-226.713	606.017	0.076	-0.186
-225.698	679.241	0.072	0.184
-224.684	-87.218	-0.262	-0.078
-223.669	-200.000	-0.010	0.107
-222.655	-51.146	0.080	0.037
-221.640	-76.371	0.273	-0.095
-220.625	-69.225	0.124	-0.047
-219.611	800.000	0.098	-0.330
-218.596	800.000	0.071	0.220
-217.582	132.738	0.109	-0.138
-216.567	-177.289	0.197	0.005
-215.552	338.502	-0.156	-0.300
-214.538	-200.000	-0.008	-0.121
-213.523	-200.000	0.034	-0.159
-212.509	151.223	-0.131	-0.176
-211.494	504.339	0.095	0.217
-210.479	161.724	-0.080	0.110
-209.465	100.097	0.065	0.075
-208.450	-200.000	-0.052	-0.238
-207.436	27.297	-0.210	-0.174
-206.421	-104.865	-0.514	0.116
-205.406	139.544	-0.184	-0.239
-204.392	800.000	0.032	-0.111
-203.377	-71.472	0.224	0.082
-202.363	-43.844	-0.242	0.120
-201.348	-200.000	-0.044	0.193
-200.333	54.567	-0.111	0.105
-199.319	105.265	0.097	-0.113
-198.304	261.387	0.049	0.083
-197.290	198.706	0.083	0.125
-196.275	-200.000	0.055	-0.314
-195.260	-92.051	-0.374	-0.104
-194.246	-137.566	0.158	0.018
-193.231	214.237	0.167	0.261
-192.217	-200.000	-0.020	0.327
-191.202	637.995	-0.154	-0.386
-190.187	-110.170	0.074	-0.015
-189.173	-66.265	0.169	0.066
-188.158	-132.805	-0.059	-0.007
-187.144	800.000	0.116	-0.394
-186.129	-134.819	-0.172	-0.021
-185.114	-83.944	-0.258	-0.081
-184.100	-72.778	-0.271	-0.098
-183.085	-59.301	0.290	0.123
-182.071	-181.798	0.381	0.007
-181.056	-78.265	-0.273	-0.092
-180.042	274.726	-0.045	0.078
-179.027	-200.000	0.005	-0.092
-178.012	-140.265	0.207	-0.021
-176.998	800.000	-0.071	0.265
-175.983	63.354	0.208	-0.206
-174.969	-110.982	-0.590	-0.119
-173.954	-156.138	0.362	0.022
-172.939	401.668	0.126	0.261
-171.925	-200.000	-0.001	0.067
-170.910	102.756	0.072	-0.083
-169.896	-121.732	0.267	0.043
-168.881	702.218	-0.040	0.103
-167.866	-19.050	-0.088	0.054
-166.852	-98.410	-0.361	-0.091
-165.837	248.120	0.227	0.378
-164.823	-166.223	-0.340	0.014
-163.808	595.307	0.147	-0.359
-162.793	78.233	0.060	-0.064
-161.779	-24.809	0.085	0.050
-160.764	800.000	-0.047	-0.177
-159.750	397.789	-0.167	0.344
-158.735	259.994	-0.066	0.112
-157.720	524.454	-0.045	-0.104
-156.706	-200.000	-0.046	0.340
-155.691	-100.097	0.096	-0.024
-154.677	-67.863	0.066	0.025
-153.662	146.198	-0.137	-0.181
-152.647	-200.000	-0.042	0.197
-151.633	381.922	-0.094	0.190
-150.618	-72.079	-0.277	-0.101
-149.604	-45.827	-0.195	-0.095
-148.589	795.555	0.131	-0.354
-147.574	9.156	-0.211	0.157
-146.560	-87.763	0.393	0.116
-145.545	53.606	0.329	-0.311
-144.531	-42.024	0.044	0.022
-143.516	152.242	-0.140	-0.188
-142.502	-125.343	0.087	-0.013
-141.487	-49.378	0.131	0.062
-140.472	-43.022	0.225	0.112
-139.458	-200.000	-0.015	0.263
-138.443	180.578	0.089	0.129
-137.429	-42.471	0.208	0.104
-136.414	241.601	-0.149	-0.244
-135.399	180.984	0.140	-0.202
-134.385	6.099	0.286	-0.209
-133.370	-99.521	-0.289	-0.072
-132.356	170.189	0.065	0.092
-131.341	-121.049	-0.275	0.045
-130.326	708.400	-0.082	-0.212
-129.312	-117.885	-0.083	-0.015
-128.297	-200.000	0.074	0.331
-127.283	-200.000	0.026	-0.396
-126.268	-24.571	-0.211	0.124
-125.253	606.668	-0.113	-0.277
-124.239	43.295	-0.124	0.111
-123.224	-200.000	-0.002	0.399
-122.210	13.684	-0.105	-0.080
-121.195	-68.793	-0.192	-0.073
-120.180	553.998	-0.031	0.074
-119.166	-124.839	0.234	0.036
-118.151	98.835	0.185	0.210
-117.137	-35.690	0.154	0.082
-116.122	450.764	-0.013	-0.028
-115.107	-35.483	0.356	0.190
-114.093	-145.739	-0.138	0.012
-113.078	371.190	-0.114	0.227
-112.064	-59.497	-0.107	0.045
-111.049	471.822	0.204	0.452
-110.034	91.406	0.243	-0.268
-109.020	-145.733	-0.271	-0.024
-108.005	-89.720	-0.290	-0.083
-106.991	-4.509	0.111	0.075
-105.976	-200.000	0.007	0.202
-104.962	12.283	-0.122	-0.093
-103.947	800.000	-0.162	0.473
-102.932	189.808	-0.278	-0.409
-101.918	-116.575	-0.329	-0.060
-100.903	4.509	0.207	0.149
-99.889	157.185	-0.156	-0.211
-98.874	-96.440	-0.200	0.052
-97.859	-126.977	0.333	-0.048
-96.845	24.559	-0.383	0.311
-95.830	-61.936	-0.084	0.034
-94.816	280.795	-0.244	0.429
-93.801	305.560	-0.084	-0.154
-92.786	-32.884	0.290	0.158
-91.772	168.280	0.290	0.405
-90.757	-178.403	-0.100	0.002
-89.743	457.750	-0.071	-0.155
-88.728	377.786	-0.052	0.105
-87.713	276.357	0.119	0.207
-86.699	114.373	0.118	-0.141
-85.684	800.000	-0.173	-0.488
-84.670	-73.560	-0.155	0.055
-83.655	2.305	0.194	-0.138
-82.640	-35.556	-0.161	0.085
-81.626	453.675	-0.215	-0.467
-80.611	-200.000	0.013	0.168
-79.597	-19.201	-0.216	0.132
-78.582	14.182	-0.305	-0.233
-77.567	21.114	0.211	-0.168
-76.553	-112.032	-0.274	0.054
-75.538	-200.000	0.004	-0.061
-74.524	-200.000	0.051	-0.442
-73.509	240.576	-0.059	0.096
-72.494	-178.629	0.261	-0.006
-71.480	204.115	-0.252	-0.383
-70.465	-178.492	0.055	0.001
-69.451	-117.392	0.106	0.019
-68.436	203.839	0.129	-0.196
-67.422	-200.000	-0.286	0.001
-66.407	63.693	-0.051	0.050
-65.392	800.000	0.077	0.321
-64.378	800.000	-0.014	0.043
-63.363	-167.916	-0.069	-0.003
-62.349	675.854	0.100	0.254
-61.334	351.833	-0.724	-1.406
-60.319	544.144	0.338	0.792
-59.305	800.000	-0.475	-1.458
-58.290	162.090	0.751	1.032
-57.276	582.969	0.660	1.588
-56.261	-200.000	105.075	609.342
-55.246	504.297	1506.300	3416.269
-54.232	176.234	2701.591	3844.874
-53.217	111.752	2165.733	2561.597
-52.203	41.493	1598.426	1417.612
-51.188	32.990	1332.159	1130.784
-50.173	29.831	1290.422	1076.959
-49.159	54.181	1345.066	1267.959
-48.144	54.637	1360.458	1285.125
-47.130	33.148	1314.727	1116.743
-46.115	29.685	1297.088	1081.497
-45.100	29.369	1292.473	1075.764
-44.086	29.387	1289.813	1073.608
-43.071	29.244	1287.491	1070.806
-42.057	29.239	1285.674	1069.221
-41.042	29.406	1283.523	1068.360
-40.027	29.436	1282.028	1067.246
-39.013	29.401	1280.205	1065.479
-37.998	29.427	1278.388	1064.077
-36.984	29.380	1276.957	1062.575
-35.969	29.564	1274.629	1061.655
-34.954	29.461	1273.260	1059.881
-33.940	29.518	1271.945	1059.070
-32.925	29.599	1270.630	1058.398
-31.911	29.576	1269.283	1057.098
-30.896	29.651	1267.359	1055.886
-29.881	29.604	1266.322	1054.712
-28.867	29.594	1264.958	1053.478
-27.852	29.626	1263.446	1052.355
-26.838	29.521	1262.674	1051.075
-25.823	29.633	1260.934	1050.222
-24.809	29.505	1259.725	1048.446
-23.794	29.548	1258.231	1047.402
-22.779	29.537	1256.631	1045.968
-21.765	29.729	1255.284	1045.894
-20.750	29.628	1254.012	1044.222
-19.736	29.506	1252.857	1042.528
-18.721	29.544	1251.566	1041.628
-17.706	29.536	1250.184	1040.393
-16.692	29.513	1249.447	1039.604
-15.677	29.398	1248.401	1038.047
-14.663	29.468	1247.754	1037.864
-13.648	29.461	1246.377	1036.637
-12.633	29.436	1245.398	1035.641
-11.619	29.419	1244.754	1034.966
-10.604	29.522	1243.525	1034.484
-9.590	29.401	1242.794	1033.155
-8.575	29.341	1242.030	1032.144
-7.560	29.397	1241.089	1031.632
-6.546	29.473	1240.000	1031.114
-5.531	29.315	1239.509	1029.778
-4.517	29.446	1238.360	1029.517
-3.502	29.381	1238.041	1028.849
-2.487	29.346	1236.917	1027.675
-1.473	29.480	1232.234	1024.490
-0.458	28.078	1218.088	1004.989
0.556	22.472	1201.086	969.100
1.571	19.035	1206.440	954.300
2.586	18.397	1220.772	961.969
3.600	18.128	1211.140	952.797
4.615	13.552	1139.693	872.465
5.629	4.526	1064.776	770.450
6.644	-0.052	1044.860	733.662
7.659	-0.272	1042.083	730.575
8.673	-0.452	1040.811	728.747
9.688	-0.403	1039.599	728.072
10.702	0.044	1038.381	729.321
11.717	5.958	1046.464	763.772
12.731	15.150	1059.425	818.255
13.746	19.415	1065.528	843.803
14.761	20.425	1065.826	848.902
15.775	20.425	1065.710	848.739
16.790	20.310	1064.542	847.170
17.804	20.218	1064.202	846.378
18.819	20.292	1063.946	846.457
19.834	20.320	1063.331	846.030
20.848	20.424	1062.855	846.084
21.863	20.456	1062.070	845.541
22.877	20.281	1061.896	844.474
23.892	20.270	1060.891	843.545
24.907	20.345	1060.400	843.447
25.921	20.405	1059.303	842.788
26.936	20.256	1057.905	840.883
27.950	20.294	1056.202	839.635
28.965	20.250	1053.898	837.518
29.980	20.305	1052.391	836.514
30.994	20.377	1051.774	836.293
32.009	20.421	1050.445	835.377
33.023	20.175	1049.364	833.259
34.038	20.308	1048.410	833.065
35.053	20.300	1047.926	832.570
36.067	20.327	1047.228	832.071
37.082	20.489	1046.413	832.125
38.096	20.603	1045.719	832.045
39.111	20.607	1044.857	831.304
40.126	20.460	1043.784	829.676
41.140	20.157	1041.747	826.537
42.155	20.006	1040.157	824.487
43.169	20.021	1039.387	823.875
44.184	20.112	1038.430	823.474
45.199	20.087	1037.189	822.298
46.213	20.115	1035.807	821.265
47.228	20.137	1035.639	821.164
48.242	20.280	1034.696	821.018
49.257	20.350	1033.852	820.607
50.271	20.492	1032.861	820.419
51.286	20.370	1031.904	819.009
52.301	20.471	1030.682	818.444
53.315	20.485	1029.785	817.725
54.330	20.265	1029.537	816.423
55.344	20.514	1028.127	816.402
56.359	20.341	1027.342	814.894
57.374	20.052	1026.635	812.904
58.388	20.288	1025.377	812.942
59.403	20.178	1024.770	811.874
60.417	20.111	1023.461	810.452
61.432	20.171	1022.929	810.239
62.447	20.329	1022.425	810.506
63.461	20.366	1021.403	809.797
64.476	20.189	1020.628	808.284
65.490	20.084	1019.798	807.067
66.505	20.192	1019.049	806.907
67.520	20.262	1018.489	806.717
68.534	19.866	1017.638	804.130
69.549	19.848	1015.899	802.602
70.563	19.726	1015.717	801.822
71.578	19.695	1014.688	800.795
72.593	19.567	1013.742	799.385
73.607	19.675	1013.467	799.598
74.622	20.079	1012.621	800.724
75.636	20.006	1012.357	800.112
76.651	19.907	1011.164	798.640
77.666	19.914	1010.194	797.835
78.680	19.868	1009.900	797.319
79.695	19.943	1009.220	797.059
80.709	20.109	1008.573	797.240
81.724	20.025	1007.508	795.940
82.739	20.073	1006.967	795.662
83.753	20.529	1005.888	796.833
84.768	20.695	1005.025	796.838
85.782	20.748	1004.372	796.493
86.797	20.635	1003.086	794.886
87.812	20.467	1002.207	793.352
88.826	20.518	1001.638	793.062
89.841	20.613	1000.580	792.587
90.855	20.674	999.706	792.102
91.870	20.511	998.756	790.542
92.884	20.496	997.079	789.074
93.899	20.457	996.311	788.222
94.914	20.623	995.642	788.375
95.928	20.552	994.717	787.249
96.943	20.145	993.724	784.554
97.957	19.932	992.295	782.393
98.972	19.808	991.494	781.133
99.987	20.126	990.866	782.002
101.001	20.292	989.635	781.710
102.016	20.381	988.805	781.384
103.030	20.199	988.067	779.917
104.045	20.103	986.803	778.418
105.060	19.909	986.154	776.965
106.074	20.024	985.692	777.051
107.089	20.412	984.974	778.155
108.103	20.315	983.366	776.381
109.118	20.151	982.744	775.087
110.133	20.209	981.788	774.524
111.147	20.021	980.565	772.651
112.162	19.812	979.815	771.059
113.176	20.005	979.446	771.560
114.191	20.034	978.064	770.534
115.206	19.773	977.016	768.479
116.220	19.769	976.155	767.718
117.235	19.905	975.616	767.828
118.249	19.926	974.391	766.890
119.264	19.780	973.472	765.454
120.279	19.942	972.505	765.339
121.293	19.892	972.317	764.903
122.308	19.989	970.815	764.083
123.322	19.906	969.993	763.002
124.337	19.831	968.283	761.258
125.352	19.319	967.042	757.967
126.366	19.245	965.993	756.753
127.381	20.012	966.041	760.088
128.395	20.222	965.936	760.861
129.410	20.382	964.874	760.657
130.424	20.349	963.663	759.491
131.439	20.239	962.877	758.323
132.454	20.236	961.869	757.453
133.468	20.221	961.034	756.660
134.483	20.351	960.197	756.500
135.497	20.646	959.260	756.980
136.512	20.687	958.575	756.553
137.527	20.801	957.624	756.228
138.541	20.585	956.865	754.624
139.556	20.595	956.045	753.956
140.570	20.804	955.148	754.084
141.585	20.694	954.094	752.710
142.600	20.576	953.089	751.343
143.614	20.862	952.555	752.088
144.629	20.871	951.706	751.391
145.643	20.666	950.763	749.697
146.658	20.599	949.216	748.123
147.673	20.387	948.483	746.566
148.687	20.465	947.190	745.821
149.702	20.440	946.135	744.813
150.716	20.416	945.510	744.152
151.731	20.544	944.659	743.967
152.746	20.698	944.508	744.439
153.760	20.914	943.292	744.338
154.775	20.735	943.000	743.279
155.789	20.753	941.796	742.341
156.804	20.730	941.025	741.570
157.819	20.627	940.719	740.822
158.833	20.943	939.596	741.218
159.848	20.918	938.683	740.328
160.862	20.749	937.491	738.605
161.877	20.802	936.343	737.857
162.892	20.874	935.681	737.574
163.906	20.799	934.335	736.131
164.921	20.655	933.777	735.019
165.935	20.797	933.085	735.009
166.950	20.731	932.288	734.038
167.964	20.775	931.342	733.416
168.979	20.463	930.842	731.642
169.994	20.681	928.886	730.956
171.008	20.758	928.828	731.169
172.023	20.821	928.118	730.809
173.037	20.487	926.924	728.405
174.052	20.279	926.292	726.970
175.067	20.540	924.983	726.972
176.081	20.743	924.757	727.579
177.096	20.596	924.015	726.317
178.110	20.210	923.177	723.981
179.125	20.220	922.081	723.100
180.140	20.294	921.601	722.969
181.154	20.327	921.508	722.969
182.169	20.607	921.417	724.001
183.183	20.860	920.846	724.541
184.198	20.666	920.242	723.193
185.213	20.653	919.430	722.438
186.227	20.856	918.238	722.278
187.242	20.868	917.603	721.765
188.256	20.828	917.051	721.103
189.271	20.682	916.524	720.019
190.286	20.696	914.880	718.722
191.300	20.077	913.667	715.151
192.315	19.233	912.466	710.667
193.329	19.282	911.949	710.406
194.344	20.097	912.572	714.186
195.359	20.810	911.723	716.394
196.373	20.770	911.503	715.995
197.388	20.499	910.834	714.291
198.402	20.521	910.409	713.983
199.417	20.594	909.546	713.544
200.432	20.398	907.980	711.448
201.446	20.200	907.790	710.428
202.461	20.190	906.945	709.662
203.475	19.305	905.287	704.685
204.490	18.716	904.027	701.235
205.504	19.613	904.622	705.301
206.519	20.303	904.267	707.774
207.534	20.327	903.931	707.549
208.548	20.691	903.776	708.848
209.563	20.546	902.044	706.838
210.577	20.399	902.026	706.162
211.592	20.767	901.664	707.312
212.607	20.632	900.709	705.954
213.621	20.792	900.325	706.240
214.636	20.867	899.179	705.580
215.650	20.853	898.503	704.931
216.665	20.840	898.203	704.581
217.680	20.783	897.189	703.494
218.694	20.417	896.042	701.055
219.709	20.193	895.272	699.486
220.723	20.503	895.256	700.662
221.738	20.639	894.527	700.577
222.753	20.607	893.967	699.948
223.767	20.695	893.394	699.791
224.782	20.950	893.006	700.449
225.796	20.756	892.750	699.409
226.811	20.164	891.241	695.790
227.826	19.690	889.747	692.661
228.840	19.836	889.643	693.104
229.855	19.911	888.384	692.362
230.869	19.639	887.428	690.467
231.884	19.960	887.613	691.833
232.899	20.746	887.808	695.064
233.913	20.712	886.621	693.940
234.928	20.659	886.264	693.387
235.942	20.473	885.604	692.067
236.957	20.278	884.731	690.548
237.972	20.299	884.148	690.114
238.986	20.337	883.809	689.941
240.001	20.304	883.198	689.274
241.015	20.425	882.769	689.356
242.030	20.693	881.659	689.490
243.045	20.684	881.340	689.147
244.059	20.942	880.897	689.760
245.074	20.638	880.278	688.013
246.088	20.475	878.684	686.061
247.103	20.619	878.720	686.598
248.117	21.016	878.540	687.960
249.132	21.134	878.313	688.189
250.147	21.335	877.777	688.498
251.161	21.464	876.961	688.308
252.176	21.383	876.364	687.458
253.190	21.529	875.762	687.498
254.205	21.694	875.476	687.861
255.220	21.538	874.769	686.632
256.234	21.418	873.894	685.413
257.249	21.299	873.281	684.409
258.263	21.346	872.432	683.866
259.278	21.600	871.734	684.250
260.293	21.471	871.607	683.584
261.307	21.328	870.848	682.371
262.322	21.118	869.729	680.617
263.336	20.439	867.772	676.383
264.351	19.381	866.111	670.913
265.366	19.533	865.654	671.091
266.380	20.737	866.410	676.298
267.395	21.186	865.724	677.445
268.409	21.023	865.262	676.391
269.424	21.251	864.766	676.829
270.439	21.353	864.188	676.712
271.453	21.326	863.877	676.302
272.468	21.500	863.581	676.684
273.482	21.592	862.983	676.511
274.497	21.136	861.773	673.745
275.512	20.823	860.611	671.567
276.526	21.244	860.522	673.064
277.541	21.368	860.548	673.501
278.555	21.192	859.426	671.886
279.570	20.950	858.774	670.388
280.585	21.093	858.333	670.531
281.599	21.273	856.878	670.027
282.614	20.504	855.921	666.273
283.628	20.666	855.064	666.166
284.643	20.963	855.147	667.310
285.657	20.558	854.105	664.889
286.672	20.313	853.387	663.336
287.687	21.120	852.876	665.958
288.701	20.989	852.780	665.326
289.716	20.513	851.998	662.843
290.730	20.637	850.914	662.413
291.745	20.369	850.124	660.717
292.760	20.669	850.196	661.859
293.774	21.627	850.400	665.601
294.789	21.970	850.007	666.536
295.803	21.810	850.171	665.999
296.818	21.971	849.077	665.695
297.833	21.502	847.253	662.429
298.847	21.368	846.947	661.627
299.862	21.662	846.994	662.715
300.876	21.768	846.549	662.710
301.891	21.809	845.513	661.996
302.906	21.320	844.351	659.182
303.920	21.403	844.703	659.712
304.935	21.989	844.165	661.443
305.949	21.839	843.541	660.328
306.964	21.500	842.672	658.314
307.979	21.642	842.386	658.568
308.993	22.037	842.099	659.769
310.008	21.902	841.557	658.778
311.022	21.774	840.468	657.389
312.037	21.600	840.100	656.389
313.052	21.115	839.561	654.096
314.066	20.438	837.929	650.233
315.081	20.394	837.120	649.383
316.095	21.102	837.577	652.325
317.110	21.548	836.969	653.462
318.125	20.845	835.693	649.784
319.139	19.766	834.605	644.859
320.154	19.903	834.055	644.887
321.168	20.595	834.484	647.743
322.183	21.282	834.563	650.304
323.197	21.384	834.300	650.421
324.212	21.647	834.063	651.156
325.227	21.613	833.256	650.342
326.241	21.533	832.508	649.405
327.256	21.533	831.675	648.699
328.270	21.412	830.947	647.624
329.285	21.162	830.322	646.156
330.300	20.963	829.806	644.958
331.314	21.170	829.423	645.368
332.329	21.661	829.046	646.834
333.343	21.644	828.772	646.500
334.358	21.774	827.991	646.311
335.373	21.839	827.566	646.163
336.387	22.209	827.363	647.311
337.402	22.010	827.889	646.932
338.416	22.109	827.178	646.682
339.431	22.133	826.799	646.419
340.446	22.414	826.225	646.944
341.460	22.260	826.010	646.155
342.475	22.111	825.211	644.924
343.489	22.094	825.088	644.709
344.504	22.244	824.761	644.944
345.519	22.315	824.634	645.049
346.533	22.595	823.735	645.314
347.548	22.560	823.268	644.763
348.562	22.500	822.845	644.157
349.577	22.586	822.512	644.153
350.592	22.542	821.391	643.059
351.606	22.497	820.990	642.520
352.621	22.315	820.101	641.106
353.635	22.198	819.218	639.934
354.650	21.522	817.760	636.280
355.665	20.684	815.991	631.805
356.679	21.174	816.009	633.543
357.694	21.622	815.469	634.692
358.708	21.230	815.240	633.038
359.723	21.929	815.068	635.378
360.738	22.214	814.938	636.255
361.752	22.259	814.280	635.848
362.767	22.618	813.847	636.750
363.781	22.861	813.486	637.288
364.796	22.875	813.248	637.097
365.810	22.925	812.673	636.769
366.825	22.847	812.154	636.024
367.840	22.424	811.735	634.117
368.854	22.201	810.438	632.246
369.869	22.255	810.130	632.145
370.883	22.302	809.806	632.004
371.898	22.178	809.309	631.116
372.913	22.304	809.082	631.332
373.927	22.361	808.794	631.258
374.942	22.421	808.529	631.210
375.956	22.524	807.884	631.020
376.971	22.652	807.778	631.339
377.986	22.856	807.401	631.717
379.000	22.660	806.700	630.414
380.015	22.691	805.988	629.913
381.029	22.779	805.523	629.809
382.044	22.914	804.843	629.702
383.059	22.959	804.065	629.198
384.073	22.975	803.617	628.849
385.088	22.815	803.150	627.859
386.102	22.562	802.711	626.559
387.117	22.573	802.009	625.993
388.132	22.259	800.946	623.997
389.146	21.855	799.866	621.666
390.161	22.177	799.927	622.803
391.175	22.634	799.585	624.100
392.190	22.272	798.565	621.967
393.205	20.906	796.578	615.542
394.219	19.470	795.007	609.207
395.234	19.671	794.568	609.528
396.248	21.231	796.153	616.197
397.263	22.530	796.979	621.369
398.278	22.381	796.486	620.404
399.292	22.017	796.235	618.869
400.307	22.119	795.172	618.347
401.321	22.273	795.361	618.981
402.336	22.640	794.915	619.870
403.350	23.161	794.726	621.497
404.365	23.130	794.568	621.212
405.380	23.431	794.308	622.009
406.394	23.545	793.743	621.911
407.409	23.368	793.204	620.814
408.423	23.230	793.196	620.271
409.438	23.411	792.845	620.572
410.453	23.419	791.955	619.850
411.467	23.373	791.081	618.952
412.482	23.421	790.796	618.839
413.496	23.562	790.886	619.348
414.511	23.620	790.102	618.883
415.526	23.380	789.952	617.873
416.540	23.383	789.083	617.148
417.555	23.115	788.604	615.787
418.569	23.239	788.121	615.788
419.584	23.126	787.479	614.837
420.599	23.020	787.001	614.042
421.613	158.069	1364.246	1798.703
422.628	136.814	1448.319	1798.798
