DTS Sentinel unit serial number:	SN413079Multiplexer serial number:	ORYXHardware model number:	OX4-SRSoftware version number:	ORYX F/W v4.00 Oryx Data Collector v3.7.2.0data status	okinstallation	princeton_trtdifferential loss correction	single-endedforward channel	channel 1reverse channel	N/Adate	2019/09/12time	21:06:35forward acquisition time	60.00reverse acquisition time	0.00gamma	496.2192k internal	0.2325k external	0.2325temperature offset calibration	1.0149default loss term (dB/km)	0.3790temperature slope calibration	1.0000multiplexer offset coefficient	1.0000multiplexer slope coefficient	1.0000fibre end	0.00T internal ref (°C)	30.75T ext. ref 1 (°C)	3.61T ext. ref 2 (°C)	25.25length (m)	temperature (°C)	Stokes	anti-Stokes-747.200	151.271	-0.202	0.277
-746.185	-150.517	-0.164	-0.013
-745.171	-91.114	0.145	0.042
-744.156	8.092	0.049	0.037
-743.142	-35.733	-0.202	-0.110
-742.127	-190.624	0.225	-0.002
-741.112	-200.000	-0.074	-0.482
-740.098	-87.714	0.139	0.042
-739.083	-200.000	-0.015	-0.209
-738.069	800.000	0.026	0.101
-737.054	800.000	-0.031	0.092
-736.039	-114.601	-0.408	-0.079
-735.025	11.344	-0.246	-0.190
-734.010	-176.623	-0.044	0.001
-732.996	-11.967	0.038	-0.025
-731.981	-199.682	-0.219	0.001
-730.966	-200.000	0.041	-0.187
-729.952	305.894	0.185	-0.347
-728.937	-163.894	-0.261	-0.012
-727.923	-6.873	0.067	0.046
-726.908	-162.013	-0.531	-0.027
-725.894	335.853	-0.037	-0.073
-724.879	-109.504	-0.094	0.020
-723.864	-144.144	-0.094	-0.009
-722.850	-5.307	-0.079	0.054
-721.835	545.380	0.038	-0.092
-720.821	-67.458	0.099	-0.039
-719.806	-47.436	-0.396	0.194
-718.791	-162.875	0.102	-0.005
-717.777	476.200	0.132	-0.301
-716.762	-84.208	0.266	-0.085
-715.748	-116.219	-0.259	-0.048
-714.733	-200.000	0.024	0.213
-713.718	-154.233	-0.139	0.009
-712.704	-200.000	-0.098	-0.445
-711.689	89.306	0.157	0.177
-710.675	-36.746	-0.184	0.099
-709.660	38.167	-0.205	-0.184
-708.645	800.000	-0.065	-0.214
-707.631	-200.000	-0.030	0.326
-706.616	37.743	-0.032	-0.028
-705.602	-100.968	0.092	-0.023
-704.587	158.444	-0.116	0.162
-703.572	-74.080	0.085	0.031
-702.558	-164.508	-0.189	0.009
-701.543	107.476	0.087	0.104
-700.529	800.000	0.061	-0.222
-699.514	-200.000	0.010	-0.218
-698.499	800.000	0.030	-0.085
-697.485	-200.000	-0.001	-0.215
-696.470	477.561	0.111	0.252
-695.456	-146.051	-0.318	-0.028
-694.441	-171.709	-0.245	-0.008
-693.426	-115.428	0.298	-0.057
-692.412	-124.663	0.120	-0.019
-691.397	265.600	0.067	0.118
-690.383	92.358	0.038	0.043
-689.368	318.161	-0.033	-0.063
-688.354	800.000	-0.094	0.399
-687.339	-125.847	-0.235	-0.036
-686.324	196.583	0.084	-0.129
-685.310	-23.646	-0.171	-0.103
-684.295	-128.124	-0.037	0.005
-683.281	55.445	-0.031	-0.030
-682.266	-95.101	-0.462	0.125
-681.251	-99.538	0.186	0.047
-680.237	72.605	-0.079	-0.083
-679.222	-63.514	0.173	0.072
-678.208	60.176	0.138	0.137
-677.193	800.000	0.067	-0.229
-676.178	-73.758	0.298	-0.109
-675.164	300.168	0.135	-0.250
-674.149	678.130	-0.119	0.311
-673.135	224.947	0.210	-0.342
-672.120	522.325	-0.088	-0.208
-671.105	-154.821	0.024	0.002
-670.091	175.161	-0.041	-0.060
-669.076	171.526	0.197	-0.284
-668.062	64.426	0.115	0.116
-667.047	-137.191	0.224	0.026
-666.032	800.000	-0.045	0.128
-665.018	165.192	0.172	-0.244
-664.003	114.389	-0.117	-0.144
-662.989	26.564	-0.189	-0.159
-661.974	-125.594	-0.267	-0.041
-660.959	800.000	-0.134	-0.470
-659.945	-36.069	0.060	0.032
-658.930	800.000	0.020	0.070
-657.916	268.888	0.119	-0.209
-656.901	-56.238	-0.158	0.071
-655.886	321.957	-0.053	0.101
-654.872	-76.073	-0.241	-0.086
-653.857	-200.000	0.012	-0.217
-652.843	170.494	0.119	-0.171
-651.828	-185.016	-0.081	-0.001
-650.814	628.546	-0.179	0.455
-649.799	115.886	-0.298	0.366
-648.784	-79.470	-0.346	0.118
-647.770	-105.356	0.235	-0.054
-646.755	15.857	-0.158	-0.125
-645.741	-133.915	-0.111	-0.014
-644.726	32.556	-0.314	0.272
-643.711	182.072	-0.346	0.512
-642.697	-200.000	-0.006	-0.037
-641.682	282.305	0.066	-0.118
-640.668	-116.884	0.178	-0.033
-639.653	-200.000	0.027	0.236
-638.638	-200.000	0.038	0.217
-637.624	-200.000	-0.034	0.276
-636.609	70.132	0.128	-0.133
-635.595	70.664	-0.134	-0.139
-634.580	-116.176	-0.249	-0.046
-633.565	-75.764	-0.077	-0.027
-632.551	497.316	0.107	0.248
-631.536	-200.000	-0.011	0.054
-630.522	460.005	-0.107	0.240
-629.507	77.487	0.141	-0.151
-628.492	-126.224	0.099	-0.015
-627.478	164.510	-0.171	0.242
-626.463	-154.932	-0.111	0.007
-625.449	65.549	0.066	0.067
-624.434	800.000	-0.121	-0.347
-623.419	-106.453	-0.134	-0.030
-622.405	-159.639	-0.191	-0.011
-621.390	-100.967	-0.124	-0.031
-620.376	-8.563	-0.140	-0.094
-619.361	92.443	0.249	0.282
-618.346	-200.000	0.058	0.381
-617.332	-117.871	-0.158	0.028
-616.317	109.157	-0.228	0.274
-615.303	579.039	0.038	0.095
-614.288	800.000	0.031	-0.089
-613.273	-107.159	-0.216	0.048
-612.259	-42.369	-0.189	-0.097
-611.244	-200.000	-0.039	-0.480
-610.230	-135.579	-0.248	0.030
-609.215	-175.218	-0.346	-0.010
-608.201	-48.999	-0.258	0.124
-607.186	340.538	-0.182	-0.357
-606.171	185.283	-0.207	0.308
-605.157	-82.308	0.199	-0.065
-604.142	800.000	0.043	0.174
-603.128	-174.243	-0.406	-0.012
-602.113	-200.000	0.061	-0.379
-601.098	-33.805	0.153	0.084
-600.084	-86.501	-0.112	-0.035
-599.069	89.420	0.155	0.173
-598.055	-32.705	-0.096	-0.054
-597.040	-200.000	-0.026	0.261
-596.025	45.087	0.060	0.056
-595.011	-108.075	0.165	0.036
-593.996	-200.000	0.074	-0.610
-592.982	-44.790	-0.219	0.109
-591.967	800.000	0.025	-0.073
-590.952	270.577	-0.037	-0.066
-589.938	-199.192	0.150	-0.001
-588.923	-36.211	-0.065	-0.035
-587.909	591.069	0.098	-0.242
-586.894	66.250	0.167	-0.170
-585.879	-129.734	0.242	-0.033
-584.865	800.000	-0.088	-0.252
-583.850	39.120	-0.061	-0.055
-582.836	259.479	0.195	-0.338
-581.821	-65.462	0.183	0.074
-580.806	107.859	0.179	-0.213
-579.792	18.973	0.109	-0.087
-578.777	154.898	0.015	0.020
-577.763	-116.516	0.236	0.044
-576.748	-200.000	-0.002	0.136
-575.733	288.762	-0.031	-0.056
-574.719	-37.835	0.112	0.060
-573.704	-200.000	-0.005	-0.241
-572.690	-31.241	-0.040	0.023
-571.675	-91.267	-0.295	-0.085
-570.661	-200.000	-0.027	0.298
-569.646	-40.932	0.126	0.065
-568.631	-178.416	-0.074	-0.002
-567.617	153.763	-0.125	-0.171
-566.602	-143.940	-0.161	0.015
-565.588	449.622	0.068	-0.150
-564.573	200.396	0.173	-0.267
-563.558	-200.000	-0.001	-0.134
-562.544	9.216	0.115	-0.087
-561.529	142.315	-0.164	-0.219
-560.515	659.072	0.068	-0.175
-559.500	-71.154	-0.207	-0.078
-558.485	510.690	0.039	-0.092
-557.471	-63.739	-0.155	0.064
-556.456	92.177	-0.201	-0.227
-555.442	-117.753	-0.117	-0.021
-554.427	225.708	0.128	-0.208
-553.412	800.000	0.044	0.169
-552.398	-102.066	0.166	-0.040
-551.383	430.094	0.110	0.238
-550.369	394.915	0.072	-0.151
-549.354	74.430	-0.090	-0.095
-548.339	800.000	-0.029	-0.082
-547.325	-154.464	-0.112	-0.007
-546.310	101.363	-0.133	0.155
-545.296	377.789	0.235	0.482
-544.281	171.819	-0.169	-0.243
-543.266	543.230	-0.048	-0.114
-542.252	380.406	0.092	-0.188
-541.237	800.000	0.055	-0.184
-540.223	-7.805	-0.256	-0.173
-539.208	186.281	-0.044	-0.065
-538.193	-47.662	-0.262	-0.127
-537.179	-0.072	-0.066	0.047
-536.164	-27.638	0.080	0.046
-535.150	-71.752	0.271	-0.101
-534.135	-66.496	0.276	-0.110
-533.121	87.388	-0.065	0.072
-532.106	800.000	0.062	0.228
-531.091	-200.000	-0.020	0.272
-530.077	42.147	-0.072	-0.066
-529.062	-31.009	-0.062	0.035
-528.048	-164.043	-0.024	-0.001
-527.033	146.054	0.104	-0.139
-526.018	-116.794	-0.272	0.050
-525.004	-91.838	0.056	-0.016
-523.989	-121.544	-0.107	-0.018
-522.975	-117.371	0.178	-0.032
-521.960	705.524	-0.041	-0.107
-520.945	701.821	-0.151	-0.398
-519.931	499.646	-0.118	0.273
-518.916	735.451	0.071	-0.189
-517.902	24.493	-0.030	0.025
-516.887	-80.088	0.151	-0.051
-515.872	-200.000	-0.023	-0.227
-514.858	-74.600	0.203	-0.073
-513.843	800.000	0.038	-0.123
-512.829	-159.255	0.197	0.011
-511.814	800.000	0.039	0.125
-510.799	60.496	-0.017	0.016
-509.785	-14.735	-0.053	-0.034
-508.770	354.688	-0.138	0.274
-507.756	-139.752	0.430	-0.046
-506.741	-145.520	-0.254	0.023
-505.726	-200.000	-0.016	0.215
-504.712	-45.413	-0.077	0.038
-503.697	-141.823	-0.199	0.020
-502.683	227.061	-0.055	-0.089
-501.668	-134.329	0.284	0.035
-500.653	-99.594	-0.145	-0.036
-499.639	-28.459	0.311	-0.179
-498.624	142.747	0.127	-0.169
-497.610	29.491	0.122	-0.104
-496.595	-200.000	0.011	-0.066
-495.581	70.780	-0.231	0.239
-494.566	800.000	-0.049	0.165
-493.551	364.107	-0.055	0.110
-492.537	52.609	-0.193	-0.184
-491.522	74.492	-0.197	-0.207
-490.508	-101.045	-0.382	0.094
-489.493	43.456	0.162	0.148
-488.478	-69.025	-0.175	0.067
-487.464	104.896	0.076	0.090
-486.449	61.820	0.113	-0.112
-485.435	463.788	0.090	-0.201
-484.420	-63.206	-0.437	-0.180
-483.405	-51.967	0.174	-0.081
-482.391	397.514	-0.078	0.163
-481.376	138.729	0.319	0.419
-480.362	-93.536	-0.263	0.073
-479.347	189.573	0.129	-0.193
-478.332	-141.214	0.326	0.033
-477.318	-176.471	0.153	-0.004
-476.303	800.000	-0.053	-0.216
-475.289	-200.000	0.011	0.054
-474.274	214.593	-0.051	0.081
-473.259	-76.073	-0.291	-0.103
-472.245	-48.296	-0.050	0.024
-471.230	-101.333	-0.520	0.127
-470.216	-98.987	0.224	-0.057
-469.201	-73.743	0.139	-0.050
-468.186	602.455	-0.049	0.123
-467.172	-132.547	0.288	0.037
-466.157	800.000	0.059	-0.199
-465.143	331.085	0.048	-0.091
-464.128	-27.792	0.126	0.073
-463.113	-138.397	-0.301	-0.033
-462.099	-66.358	0.089	-0.035
-461.084	17.624	-0.147	-0.117
-460.070	-133.188	0.295	0.037
-459.055	95.367	0.168	-0.191
-458.040	-200.000	0.011	0.109
-457.026	-61.690	-0.153	0.064
-456.011	784.509	0.042	0.115
-454.997	-47.020	0.098	0.048
-453.982	-15.236	0.160	0.102
-452.968	360.625	-0.090	-0.180
-451.953	-73.790	0.023	0.008
-450.938	458.595	0.017	-0.039
-449.924	182.724	-0.102	0.150
-448.909	-105.288	-0.287	0.065
-447.895	117.129	-0.086	-0.106
-446.880	800.000	-0.023	0.065
-445.865	-122.436	-0.087	0.014
-444.851	-200.000	0.037	0.414
-443.836	800.000	0.044	0.138
-442.822	-24.234	-0.190	-0.113
-441.807	145.894	-0.097	0.130
-440.792	-118.911	-0.258	-0.045
-439.778	-200.000	0.011	-0.159
-438.763	-137.516	0.102	-0.012
-437.749	-200.000	0.006	0.198
-436.734	132.924	0.097	-0.124
-435.719	-200.000	-0.036	-0.199
-434.705	16.885	-0.055	0.043
-433.690	-200.000	0.026	-0.196
-432.676	-158.682	0.123	0.007
-431.661	-154.239	-0.231	0.016
-430.646	-150.914	0.281	0.021
-429.632	-67.821	0.270	0.105
-428.617	-73.600	-0.092	-0.034
-427.603	-1.276	0.175	0.123
-426.588	-39.645	0.045	0.023
-425.573	-71.477	0.317	0.118
-424.559	-66.017	0.245	-0.097
-423.544	530.157	0.072	0.169
-422.530	46.003	0.104	0.096
-421.515	-200.000	-0.024	0.204
-420.500	537.093	0.152	0.359
-419.486	-16.823	-0.159	-0.100
-418.471	-28.781	-0.244	-0.140
-417.457	-135.393	0.220	-0.026
-416.442	194.643	-0.162	0.245
-415.428	-56.397	-0.145	-0.064
-414.413	696.368	0.159	0.415
-413.398	42.248	0.195	-0.177
-412.384	-71.893	0.290	0.108
-411.369	-75.641	-0.092	0.033
-410.355	800.000	0.069	-0.215
-409.340	6.857	-0.131	-0.097
-408.325	168.748	-0.109	0.155
-407.311	267.300	-0.095	0.165
-406.296	800.000	-0.111	0.440
-405.282	-200.000	-0.012	-0.065
-404.267	17.486	-0.201	-0.159
-403.252	404.419	0.104	-0.217
-402.238	-80.204	0.197	-0.066
-401.223	41.335	0.183	0.165
-400.209	184.308	-0.057	-0.084
-399.194	113.744	-0.213	0.258
-398.179	636.220	0.036	-0.090
-397.165	-115.175	0.102	-0.019
-396.150	-200.000	-0.045	0.347
-395.136	-74.285	0.295	-0.106
-394.121	-87.828	-0.115	-0.035
-393.106	8.786	0.111	0.083
-392.092	393.244	0.072	-0.150
-391.077	147.422	0.112	-0.151
-390.063	14.109	0.159	0.123
-389.048	286.212	-0.023	0.042
-388.033	-200.000	-0.037	-0.322
-387.019	506.258	-0.029	-0.067
-386.004	-48.961	-0.073	0.035
-384.990	-33.536	0.088	0.049
-383.975	-200.000	0.016	0.097
-382.960	-142.265	-0.124	-0.012
-381.946	786.662	-0.074	-0.201
-380.931	-16.735	0.239	-0.151
-379.917	127.456	-0.135	0.170
-378.902	100.128	0.012	0.014
-377.888	12.753	-0.184	-0.141
-376.873	-87.418	-0.045	0.013
-375.858	569.917	0.040	-0.097
-374.844	-54.581	0.294	-0.132
-373.829	-130.660	-0.130	-0.017
-372.815	-35.640	0.291	0.157
-371.800	-68.338	-0.084	0.033
-370.785	195.462	0.029	0.044
-369.771	-50.836	0.247	0.115
-368.756	383.240	0.084	-0.172
-367.742	-55.090	-0.160	0.072
-366.727	-69.028	0.230	-0.088
-365.712	-124.027	0.123	-0.019
-364.698	800.000	-0.079	0.340
-363.683	-67.009	-0.085	-0.034
-362.669	752.016	0.024	0.065
-361.654	47.003	0.072	0.066
-360.639	80.676	-0.101	-0.109
-359.625	-56.619	-0.162	0.071
-358.610	-200.000	-0.010	0.053
-357.596	-75.957	0.209	0.074
-356.581	88.265	-0.010	0.011
-355.566	800.000	0.067	-0.283
-354.552	263.107	0.088	-0.153
-353.537	13.236	-0.072	-0.055
-352.523	238.626	-0.117	0.192
-351.508	-1.985	-0.088	0.061
-350.493	-1.401	-0.161	-0.113
-349.479	35.011	0.071	-0.062
-348.464	800.000	-0.039	-0.121
-347.450	-161.327	0.079	0.004
-346.435	-200.000	-0.033	-0.147
-345.420	80.122	-0.219	-0.234
-344.406	-91.227	-0.058	0.016
-343.391	-5.347	-0.119	-0.081
-342.377	800.000	-0.068	0.270
-341.362	-17.470	0.083	0.052
-340.348	93.150	-0.122	-0.137
-339.333	-113.144	0.198	-0.039
-338.318	-200.000	-0.031	-0.201
-337.304	-200.000	0.033	0.181
-336.289	-200.000	0.007	-0.315
-335.275	-122.368	0.117	0.019
-334.260	8.662	-0.219	-0.164
-333.245	614.434	-0.047	0.117
-332.231	-96.346	-0.069	0.018
-331.216	-200.000	0.060	0.437
-330.202	502.222	-0.055	0.127
-329.187	-175.691	-0.270	-0.007
-328.172	-17.713	-0.264	0.165
-327.158	-123.634	-0.219	-0.034
-326.143	800.000	0.024	-0.088
-325.129	-8.610	0.141	0.094
-324.114	83.782	-0.044	-0.048
-323.099	250.535	0.055	0.092
-322.085	-200.000	0.039	-0.239
-321.070	-60.631	-0.131	-0.055
-320.056	-118.228	-0.076	0.013
-319.041	-200.000	0.011	-0.110
-318.026	800.000	-0.073	-0.259
-317.012	-82.764	-0.231	-0.074
-315.997	-128.431	0.430	-0.061
-314.983	800.000	-0.031	0.094
-313.968	-200.000	-0.014	-0.144
-312.953	-67.102	0.250	0.098
-311.939	-119.900	0.108	-0.018
-310.924	158.913	-0.081	-0.112
-309.910	317.861	-0.075	-0.141
-308.895	-105.689	0.427	0.096
-307.880	-8.383	0.086	-0.057
-306.866	-85.388	0.275	0.085
-305.851	63.145	-0.148	-0.147
-304.837	1.967	0.227	-0.162
-303.822	53.389	0.210	0.200
-302.807	-93.113	-0.461	0.127
-301.793	-39.673	0.281	0.146
-300.778	800.000	0.084	-0.302
-299.764	-10.231	0.158	-0.104
-298.749	-73.808	0.243	0.088
-297.735	-61.953	-0.335	-0.139
-296.720	2.810	0.133	0.095
-295.705	-183.278	0.209	-0.004
-294.691	211.818	-0.029	-0.046
-293.676	461.578	-0.058	-0.129
-292.662	147.134	-0.090	-0.120
-291.647	256.200	-0.087	-0.149
-290.632	-32.473	-0.264	-0.146
-289.618	800.000	0.044	0.125
-288.603	-24.381	0.199	-0.117
-287.589	-137.859	0.189	-0.021
-286.574	-12.173	0.196	0.127
-285.559	-55.000	0.259	-0.116
-284.545	46.074	-0.035	0.032
-283.530	244.817	-0.044	0.073
-282.516	-200.000	0.025	0.117
-281.501	1.100	0.244	0.173
-280.486	-48.205	0.089	0.043
-279.472	-52.719	-0.302	-0.138
-278.457	11.806	-0.138	-0.105
-277.443	57.898	0.267	0.259
-276.428	-39.029	0.212	0.111
-275.413	4.076	0.046	0.034
-274.399	562.886	-0.078	0.188
-273.384	-200.000	0.070	-0.304
-272.370	-92.147	0.388	0.109
-271.355	31.289	-0.082	0.069
-270.340	135.755	0.105	-0.136
-269.326	-137.831	-0.151	-0.017
-268.311	47.868	0.331	-0.306
-267.297	-200.000	-0.039	-0.280
-266.282	-85.414	-0.231	-0.071
-265.267	800.000	0.059	-0.233
-264.253	-83.162	0.437	-0.139
-263.238	152.835	-0.121	0.163
-262.224	-3.449	0.384	-0.264
-261.209	268.094	-0.063	0.109
-260.195	800.000	0.105	-0.293
-259.180	145.284	0.125	-0.166
-258.165	166.794	-0.248	0.348
-257.151	9.262	-0.064	0.048
-256.136	50.686	0.096	0.090
-255.122	-162.899	0.329	0.016
-254.107	73.088	0.135	0.140
-253.092	293.499	-0.025	-0.046
-252.078	-90.956	-0.160	-0.046
-251.063	-200.000	-0.026	0.223
-250.049	-158.609	0.215	0.012
-249.034	-26.132	0.278	0.162
-248.019	13.306	-0.187	-0.143
-247.005	-200.000	-0.006	-0.090
-245.990	247.006	0.091	0.152
-244.976	73.867	-0.177	-0.184
-243.961	800.000	-0.075	0.289
-242.946	21.372	-0.104	0.084
-241.932	35.569	0.100	0.087
-240.917	-43.591	0.120	-0.060
-239.903	476.121	-0.087	-0.194
-238.888	-200.000	-0.005	0.050
-237.873	-50.292	0.149	0.070
-236.859	-200.000	-0.000	0.083
-235.844	389.258	-0.083	0.171
-234.830	17.763	-0.217	0.171
-233.815	71.199	-0.211	0.216
-232.800	93.501	0.218	0.244
-231.786	59.060	0.124	0.121
-230.771	19.719	-0.172	0.137
-229.757	-36.252	-0.306	0.163
-228.742	-200.000	0.035	0.361
-227.727	-78.014	0.092	-0.031
-226.713	12.479	0.127	0.097
-225.698	139.927	-0.221	0.288
-224.684	68.815	-0.027	-0.027
-223.669	385.400	0.112	0.228
-222.655	-138.874	0.400	-0.043
-221.640	-200.000	-0.002	-0.128
-220.625	37.138	-0.105	0.092
-219.611	800.000	0.054	0.192
-218.596	108.728	0.115	0.136
-217.582	368.915	-0.113	-0.226
-216.567	-95.620	-0.378	0.100
-215.552	268.510	-0.059	-0.101
-214.538	71.236	-0.200	-0.205
-213.523	-162.103	-0.178	-0.009
-212.509	800.000	-0.018	0.065
-211.494	-82.393	0.153	0.049
-210.479	-101.303	0.328	-0.079
-209.465	-200.000	-0.062	-0.380
-208.450	800.000	0.063	0.202
-207.436	800.000	0.056	-0.152
-206.421	-92.139	0.497	0.139
-205.406	10.619	0.136	0.102
-204.392	-51.268	0.162	0.075
-203.377	42.207	0.108	-0.097
-202.363	120.677	0.083	-0.102
-201.348	-200.000	-0.022	0.144
-200.333	193.010	-0.121	0.181
-199.319	-113.406	-0.072	-0.014
-198.304	28.271	0.497	0.415
-197.290	-48.927	-0.264	0.125
-196.275	-26.031	0.073	-0.042
-195.260	662.600	0.135	0.344
-194.246	-177.081	-0.099	-0.002
-193.231	-11.376	0.223	-0.145
-192.217	-110.350	0.447	0.092
-191.202	800.000	-0.102	-0.282
-190.187	-200.000	0.005	-0.051
-189.173	800.000	0.061	0.183
-188.158	100.111	-0.069	-0.080
-187.144	-200.000	-0.019	0.095
-186.129	-162.788	-0.276	0.013
-185.114	470.635	-0.152	-0.337
-184.100	-55.440	-0.327	0.145
-183.085	79.210	0.202	0.214
-182.071	-200.000	-0.017	-0.259
-181.056	20.803	-0.178	-0.142
-180.042	800.000	0.027	0.077
-179.027	-200.000	0.002	-0.272
-178.012	800.000	0.045	-0.174
-176.998	89.111	-0.158	-0.174
-175.983	-5.656	-0.111	-0.075
-174.969	-78.761	-0.094	0.032
-173.954	-200.000	-0.005	-0.108
-172.939	-10.860	0.048	-0.031
-171.925	-200.000	-0.045	0.444
-170.910	-74.539	0.169	0.060
-169.896	228.894	-0.133	0.214
-168.881	101.490	0.083	-0.095
-167.866	-45.257	-0.278	-0.136
-166.852	-200.000	0.014	-0.208
-165.837	-68.053	-0.179	-0.069
-164.823	800.000	0.076	0.232
-163.808	-52.412	-0.175	0.080
-162.793	-23.903	-0.261	-0.154
-161.779	-65.271	0.140	0.056
-160.764	-39.688	-0.052	-0.027
-159.750	-200.000	-0.039	0.195
-158.735	92.924	-0.170	-0.190
-157.720	-119.904	-0.196	-0.033
-156.706	-85.955	-0.121	-0.037
-155.691	339.601	-0.068	0.132
-154.677	-103.849	0.192	0.044
-153.662	-84.345	0.274	0.086
-152.647	-86.365	-0.170	0.052
-151.633	-79.224	-0.226	-0.076
-150.618	800.000	0.048	-0.142
-149.604	-200.000	-0.022	0.200
-148.589	435.234	0.146	-0.314
-147.574	-200.000	0.022	-0.276
-146.560	-126.076	0.213	0.032
-145.545	166.321	0.134	-0.187
-144.531	-76.933	0.439	-0.151
-143.516	84.778	0.107	0.116
-142.502	-67.703	0.441	-0.170
-141.487	-126.270	-0.305	-0.045
-140.472	-161.525	0.444	-0.023
-139.458	-48.270	-0.342	-0.162
-138.443	57.016	-0.284	-0.272
-137.429	-200.000	0.042	-0.226
-136.414	-200.000	-0.055	-0.273
-135.399	-47.482	0.239	0.114
-134.385	349.036	-0.124	-0.241
-133.370	-17.806	0.215	0.133
-132.356	538.681	0.069	-0.162
-131.341	13.570	-0.206	0.157
-130.326	92.031	-0.055	0.061
-129.312	722.551	0.086	0.225
-128.297	-200.000	0.078	0.400
-127.283	800.000	0.061	0.221
-126.268	-80.816	0.143	-0.047
-125.253	-74.936	0.311	0.110
-124.239	-200.000	-0.014	-0.237
-123.224	-161.121	-0.166	0.009
-122.210	-24.531	-0.178	-0.105
-121.195	289.914	-0.059	0.106
-120.180	56.438	0.245	-0.234
-119.166	12.455	0.156	0.119
-118.151	23.448	0.155	0.125
-117.137	47.249	0.010	0.009
-116.122	44.661	0.193	-0.175
-115.107	383.694	0.203	0.411
-114.093	467.164	-0.165	-0.364
-113.078	-84.455	-0.103	-0.032
-112.064	60.202	0.154	0.150
-111.049	800.000	0.011	-0.037
-110.034	-149.264	-0.445	0.035
-109.020	800.000	-0.078	0.244
-108.005	699.960	-0.103	-0.267
-106.991	282.134	-0.196	-0.346
-105.976	-60.107	0.146	-0.061
-104.962	-200.000	-0.041	0.207
-103.947	-200.000	0.046	0.258
-102.932	292.942	0.125	0.224
-101.918	-200.000	-0.005	-0.204
-100.903	-200.000	0.073	-0.385
-99.889	7.641	0.058	0.043
-98.874	800.000	-0.057	-0.180
-97.859	-108.231	0.262	0.056
-96.845	800.000	0.038	-0.115
-95.830	-110.150	-0.141	0.029
-94.816	-98.285	-0.139	-0.035
-93.801	-125.631	0.304	0.045
-92.786	-179.556	0.191	0.004
-91.772	-200.000	0.051	-0.265
-90.757	703.853	0.020	-0.052
-89.743	-112.948	0.178	-0.035
-88.728	10.231	-0.124	0.093
-87.713	-77.600	0.293	0.100
-86.699	-135.045	-0.201	0.024
-85.684	-106.034	-0.221	-0.049
-84.670	-39.027	0.186	-0.096
-83.655	-200.000	-0.036	-0.343
-82.640	-66.722	-0.135	0.052
-81.626	800.000	-0.058	-0.216
-80.611	-155.751	0.150	0.009
-79.597	-25.758	0.230	0.133
-78.582	800.000	-0.051	-0.208
-77.567	-139.678	0.099	-0.010
-76.553	193.991	0.097	0.144
-75.538	-200.000	-0.027	0.154
-74.524	29.652	0.098	0.082
-73.509	-58.458	0.152	0.065
-72.494	188.603	-0.093	-0.137
-71.480	-200.000	-0.022	-0.176
-70.465	283.715	0.013	-0.023
-69.451	-71.732	0.211	-0.077
-68.436	-55.473	-0.099	-0.043
-67.422	133.397	-0.032	-0.040
-66.407	18.449	0.172	-0.135
-65.392	800.000	-0.148	0.443
-64.378	17.441	0.053	-0.042
-63.363	574.711	-0.036	-0.087
-62.349	137.143	0.178	-0.228
-61.334	124.988	-0.999	-1.236
-60.319	261.422	0.269	0.457
-59.305	717.343	-0.462	-1.205
-58.290	168.570	0.824	1.154
-57.276	800.000	0.490	1.603
-56.261	-200.000	101.619	587.113
-55.246	570.372	1421.236	3396.102
-54.232	190.577	2604.255	3843.610
-53.217	117.812	2133.512	2580.119
-52.203	42.625	1586.526	1418.168
-51.188	34.284	1323.223	1133.395
-50.173	31.050	1281.422	1078.872
-49.159	54.918	1332.433	1263.129
-48.144	56.563	1349.428	1288.878
-47.130	34.521	1305.633	1119.539
-46.115	30.905	1288.079	1083.459
-45.100	30.758	1283.237	1078.493
-44.086	30.595	1280.407	1075.130
-43.071	30.665	1278.488	1073.880
-42.057	30.620	1276.089	1071.564
-41.042	30.648	1274.704	1070.520
-40.027	30.632	1273.434	1069.321
-39.013	30.610	1271.684	1067.678
-37.998	30.689	1269.716	1066.441
-36.984	30.755	1268.199	1065.499
-35.969	30.862	1266.011	1064.231
-34.954	30.802	1264.075	1062.220
-33.940	30.912	1263.165	1062.039
-32.925	30.833	1261.738	1060.348
-31.911	30.737	1260.782	1058.953
-30.896	30.774	1259.174	1057.773
-29.881	30.891	1257.774	1057.218
-28.867	30.941	1256.052	1056.013
-27.852	30.883	1254.726	1054.532
-26.838	30.892	1252.983	1053.074
-25.823	30.786	1252.211	1051.781
-24.809	30.882	1250.606	1050.936
-23.794	30.782	1249.963	1049.787
-22.779	30.830	1248.618	1048.886
-21.765	30.906	1246.859	1047.799
-20.750	30.863	1245.599	1046.452
-19.736	30.769	1244.304	1044.799
-18.721	30.710	1243.155	1043.463
-17.706	30.712	1242.313	1042.721
-16.692	30.613	1240.937	1040.971
-15.677	30.760	1239.858	1040.847
-14.663	30.644	1238.955	1039.399
-13.648	30.653	1237.822	1038.460
-12.633	30.634	1236.921	1037.558
-11.619	30.646	1235.822	1036.662
-10.604	30.735	1234.915	1036.356
-9.590	30.643	1234.436	1035.398
-8.575	30.642	1233.406	1034.485
-7.560	30.717	1231.870	1033.576
-6.546	30.622	1231.292	1032.520
-5.531	30.606	1230.797	1031.975
-4.517	30.719	1229.852	1031.769
-3.502	30.778	1228.619	1031.019
-2.487	30.687	1227.998	1029.954
-1.473	30.606	1223.803	1025.952
-0.458	29.058	1208.716	1004.817
0.556	26.997	1191.303	966.281
1.571	23.129	1195.779	949.121
2.586	22.054	1210.681	955.018
3.600	21.707	1199.412	944.180
4.615	16.524	1129.023	862.329
5.629	7.814	1056.501	765.135
6.644	4.045	1037.115	733.206
7.659	3.624	1034.383	729.224
8.673	3.342	1033.709	727.353
9.688	3.411	1032.204	726.557
10.702	3.999	1030.045	727.738
11.717	9.441	1037.750	758.834
12.731	18.248	1050.246	809.756
13.746	23.193	1056.125	837.686
14.761	23.884	1057.087	841.647
15.775	23.366	1055.681	838.002
16.790	22.830	1054.024	834.085
17.804	22.388	1053.285	831.337
18.819	22.243	1052.352	829.842
19.834	22.480	1051.502	830.214
20.848	22.386	1051.506	829.702
21.863	22.399	1050.865	829.184
22.877	22.147	1049.917	827.179
23.892	21.998	1049.338	825.947
24.907	22.010	1048.172	825.013
25.921	21.905	1047.291	823.754
26.936	21.993	1045.476	822.665
27.950	21.908	1044.532	821.453
28.965	22.021	1042.881	820.611
29.980	22.075	1041.752	819.901
30.994	22.280	1040.756	820.001
32.009	22.374	1040.350	820.046
33.023	22.296	1039.025	818.566
34.038	22.160	1038.139	817.161
35.053	22.007	1037.317	815.732
36.067	21.900	1036.337	814.394
37.082	21.966	1035.819	814.218
38.096	22.205	1034.481	814.202
39.111	22.211	1034.200	813.939
40.126	22.176	1032.515	812.376
41.140	21.676	1030.969	808.784
42.155	21.493	1029.541	806.746
43.169	21.430	1029.149	806.077
44.184	21.315	1027.994	804.574
45.199	21.397	1027.303	804.336
46.213	21.559	1026.639	804.488
47.228	22.122	1026.074	806.562
48.242	22.175	1025.158	806.015
49.257	22.140	1024.520	805.278
50.271	22.198	1023.828	804.931
51.286	22.350	1023.156	805.028
52.301	22.294	1022.314	804.039
53.315	22.076	1021.138	802.047
54.330	22.041	1020.058	800.965
55.344	21.891	1018.998	799.378
56.359	21.849	1018.332	798.596
57.374	21.655	1017.851	797.265
58.388	21.535	1016.537	795.619
59.403	21.380	1015.927	794.365
60.417	21.524	1014.877	794.130
61.432	21.433	1014.227	793.138
62.447	21.385	1013.843	792.552
63.461	21.440	1012.763	791.885
64.476	21.235	1012.251	790.488
65.490	21.103	1011.064	788.895
66.505	21.263	1010.580	789.166
67.520	21.332	1010.298	789.189
68.534	21.227	1009.119	787.726
69.549	21.056	1008.166	786.142
70.563	20.974	1007.400	785.107
71.578	20.682	1006.446	782.978
72.593	20.582	1005.505	781.726
73.607	20.692	1004.929	781.706
74.622	20.753	1004.685	781.719
75.636	20.763	1003.934	781.112
76.651	20.864	1003.470	781.133
77.666	21.030	1002.455	781.016
78.680	20.998	1001.815	780.307
79.695	21.044	1001.096	779.883
80.709	21.258	1000.826	780.562
81.724	21.287	1000.608	780.453
82.739	21.357	999.918	780.155
83.753	21.915	999.729	782.431
84.768	22.496	998.840	784.254
85.782	22.527	998.608	784.136
86.797	22.572	997.435	783.347
87.812	22.307	996.418	781.303
88.826	22.331	995.836	780.884
89.841	22.412	994.789	780.351
90.855	22.358	994.265	779.632
91.870	22.488	992.973	779.128
92.884	22.561	991.725	778.400
93.899	22.464	990.943	777.289
94.914	22.351	990.272	776.198
95.928	22.378	989.107	775.334
96.943	22.180	988.061	773.576
97.957	22.102	987.302	772.570
98.972	22.162	986.900	772.450
99.987	22.269	986.119	772.240
101.001	22.185	984.908	770.855
102.016	22.274	983.569	770.129
103.030	22.383	982.947	770.051
104.045	22.411	982.510	769.762
105.060	22.197	981.736	768.151
106.074	21.893	980.305	765.639
107.089	21.687	979.224	763.828
108.103	21.612	977.859	762.367
109.118	21.377	976.730	760.398
110.133	21.090	975.688	758.276
111.147	21.047	974.922	757.426
112.162	21.118	974.528	757.359
113.176	21.503	973.792	758.389
114.191	21.384	973.643	757.690
115.206	21.486	972.393	757.090
116.220	21.212	971.924	755.476
117.235	21.263	970.463	754.494
118.249	21.170	969.907	753.593
119.264	21.138	968.663	752.421
120.279	21.047	968.097	751.522
121.293	20.857	967.289	750.013
122.308	20.779	966.426	748.938
123.322	20.680	965.423	747.671
124.337	20.680	964.055	746.547
125.352	20.709	963.336	746.046
126.366	20.779	962.553	745.676
127.381	20.911	962.125	745.843
128.395	21.073	961.268	745.805
129.410	21.119	960.249	745.144
130.424	21.278	959.589	745.244
131.439	21.604	958.952	746.072
132.454	21.376	958.718	744.852
133.468	21.553	957.458	744.562
134.483	21.380	957.412	743.727
135.497	21.392	956.475	742.983
136.512	21.613	954.779	742.538
137.527	21.469	954.659	741.767
138.541	21.755	953.788	742.236
139.556	21.618	953.368	741.265
140.570	21.910	952.544	741.793
141.585	22.238	952.147	742.804
142.600	22.274	950.977	741.978
143.614	22.513	950.355	742.431
144.629	22.462	950.017	741.889
145.643	22.341	948.630	740.230
146.658	22.060	947.354	737.987
147.673	21.772	946.223	735.832
148.687	21.751	944.904	734.654
149.702	21.565	944.360	733.389
150.716	21.555	943.649	732.727
151.731	21.683	942.993	732.691
152.746	21.711	942.444	732.316
153.760	21.858	941.631	732.233
154.775	22.020	941.212	732.517
155.789	21.984	940.520	731.765
156.804	21.986	939.534	730.939
157.819	21.939	939.231	730.445
158.833	22.335	938.417	731.392
159.848	22.360	937.874	731.011
160.862	22.236	936.582	729.422
161.877	21.747	935.132	726.206
162.892	21.558	934.243	724.665
163.906	21.404	933.163	723.129
164.921	21.563	931.501	722.434
165.935	21.506	931.082	721.807
166.950	21.703	930.906	722.421
167.964	21.950	929.391	722.199
168.979	21.645	928.685	720.331
169.994	21.660	927.653	719.529
171.008	21.735	927.685	719.797
172.023	22.125	926.849	720.683
173.037	22.281	926.390	720.906
174.052	22.135	925.482	719.536
175.067	21.612	924.398	716.490
176.081	21.420	923.547	714.981
177.096	21.265	922.972	713.839
178.110	21.320	922.573	713.691
179.125	21.380	921.797	713.274
180.140	21.594	921.498	713.853
181.154	21.870	921.633	715.019
182.169	22.006	921.477	715.389
183.183	22.132	920.812	715.322
184.198	22.018	919.982	714.151
185.213	22.028	919.305	713.605
186.227	22.097	918.476	713.176
187.242	22.084	918.227	712.867
188.256	22.327	917.427	713.168
189.271	22.286	917.362	712.889
190.286	21.986	915.363	710.059
191.300	21.503	914.161	707.111
192.315	21.032	913.744	704.822
193.329	21.381	913.293	705.822
194.344	21.639	912.861	706.466
195.359	21.651	912.289	706.012
196.373	21.948	911.769	706.743
197.388	22.041	911.971	707.211
198.402	22.443	911.545	708.437
199.417	22.507	911.363	708.488
200.432	22.839	910.528	709.111
201.446	22.819	909.648	708.284
202.461	22.740	909.708	707.950
203.475	22.462	909.026	706.239
204.490	22.147	907.730	703.912
205.504	22.069	906.636	702.689
206.519	21.993	906.119	701.921
207.534	22.074	905.529	701.725
208.548	22.152	905.035	701.591
209.563	22.144	904.141	700.807
210.577	22.211	903.707	700.675
211.592	22.464	903.661	701.584
212.607	22.605	902.931	701.515
213.621	22.543	901.734	700.277
214.636	22.543	901.064	699.697
215.650	22.493	900.424	698.938
216.665	22.550	899.609	698.467
217.680	22.653	899.298	698.576
218.694	22.538	898.630	697.538
219.709	22.399	897.990	696.431
220.723	22.540	896.976	696.137
221.738	22.277	896.652	694.787
222.753	22.247	895.862	693.996
223.767	22.367	895.688	694.272
224.782	22.660	895.516	695.232
225.796	22.719	894.751	694.810
226.811	22.474	893.986	693.192
227.826	22.215	893.201	691.501
228.840	21.943	892.608	689.914
229.855	22.114	891.677	689.804
230.869	22.048	890.683	688.714
231.884	22.075	890.430	688.564
232.899	22.275	888.802	688.027
233.913	21.915	888.674	686.458
234.928	21.693	888.222	685.179
235.942	21.571	887.534	684.111
236.957	21.612	886.779	683.629
237.972	21.540	886.482	683.058
238.986	21.617	885.691	682.688
240.001	21.744	885.161	682.715
241.015	21.920	884.595	682.905
242.030	21.987	884.419	682.966
243.045	22.277	883.253	683.135
244.059	22.082	883.399	682.428
245.074	22.079	883.303	682.282
246.088	22.235	882.532	682.231
247.103	22.452	882.103	682.681
248.117	22.854	882.267	684.307
249.132	23.283	882.039	685.728
250.147	23.489	882.191	686.583
251.161	23.678	880.851	686.213
252.176	23.449	880.596	685.069
253.190	23.637	880.024	685.290
254.205	23.815	878.705	684.888
255.220	23.543	878.588	683.685
256.234	23.350	878.113	682.511
257.249	23.381	877.277	681.923
258.263	23.326	876.400	680.967
259.278	23.339	875.645	680.372
260.293	23.401	875.271	680.258
261.307	23.536	874.883	680.416
262.322	23.580	874.252	680.033
263.336	23.462	873.422	678.874
264.351	23.440	872.438	677.965
265.366	23.483	872.240	677.917
266.380	23.589	871.669	677.818
267.395	23.392	871.062	676.533
268.409	23.326	870.060	675.442
269.424	23.307	869.390	674.792
270.439	23.102	868.843	673.526
271.453	23.020	868.111	672.587
272.468	23.150	867.377	672.454
273.482	23.143	867.084	672.141
274.497	23.118	866.168	671.277
275.512	23.050	865.601	670.520
276.526	23.182	865.442	670.837
277.541	23.233	865.195	670.779
278.555	23.447	864.900	671.301
279.570	23.657	864.137	671.445
280.585	23.731	863.007	670.788
281.599	23.319	862.321	668.640
282.614	22.902	861.683	666.512
283.628	22.947	861.215	666.260
284.643	23.055	860.552	666.094
285.657	23.127	859.548	665.532
286.672	23.114	859.381	665.292
287.687	23.238	858.704	665.176
288.701	23.155	858.155	664.380
289.716	23.268	857.582	664.303
290.730	23.201	857.645	664.040
291.745	23.215	856.578	663.210
292.760	23.366	856.320	663.517
293.774	23.773	855.603	664.425
294.789	23.535	855.397	663.316
295.803	23.450	853.884	661.765
296.818	23.174	853.495	660.378
297.833	23.102	852.577	659.339
298.847	23.002	852.571	658.906
299.862	23.258	851.982	659.345
300.876	23.508	851.796	660.072
301.891	23.790	851.271	660.654
302.906	23.853	850.883	660.529
303.920	24.066	850.703	661.124
304.935	24.082	850.305	660.813
305.949	23.803	849.426	659.038
306.964	23.527	848.102	656.930
307.979	23.566	847.852	656.823
308.993	23.706	847.557	657.053
310.008	23.683	847.241	656.665
311.022	23.601	846.426	655.675
312.037	23.473	845.456	654.392
313.052	23.082	844.710	652.316
314.066	22.905	843.972	651.034
315.081	23.062	843.184	650.946
316.095	23.107	842.532	650.551
317.110	23.070	842.094	650.021
318.125	22.832	841.574	648.685
319.139	22.760	840.962	647.895
320.154	22.662	840.888	647.419
321.168	22.863	840.443	647.757
322.183	23.263	839.679	648.575
323.197	23.102	839.454	647.757
324.212	23.291	838.363	647.547
325.227	23.178	838.010	646.805
326.241	22.823	837.679	645.195
327.256	23.093	836.540	645.246
328.270	22.832	836.169	643.951
329.285	22.843	835.838	643.678
330.300	22.923	835.050	643.307
331.314	23.040	834.665	643.378
332.329	23.275	834.835	644.308
333.343	23.390	834.625	644.505
334.358	23.449	833.965	644.153
335.373	23.505	833.402	643.865
336.387	23.627	832.999	643.940
337.402	23.610	833.165	643.950
338.416	23.847	833.082	644.689
339.431	24.284	832.498	645.762
340.446	24.141	832.742	645.378
341.460	24.192	832.385	645.228
342.475	24.215	832.094	645.028
343.489	24.329	831.627	645.020
344.504	24.504	831.235	645.291
345.519	24.512	830.731	644.874
346.533	24.438	829.728	643.769
347.548	24.084	828.986	641.861
348.562	23.723	828.159	639.866
349.577	23.685	827.535	639.190
350.592	23.558	826.812	638.116
351.606	23.427	825.984	636.953
352.621	23.428	825.331	636.396
353.635	23.584	824.791	636.483
354.650	23.478	824.245	635.625
355.665	23.718	823.348	635.735
356.679	23.829	823.048	635.843
357.694	23.769	822.538	635.180
358.708	23.598	821.743	633.901
359.723	23.687	821.319	633.834
360.738	23.628	820.549	632.972
361.752	23.749	820.656	633.430
362.767	24.095	819.843	633.981
363.781	24.396	819.457	634.696
364.796	24.557	819.242	635.046
365.810	24.635	819.033	635.103
366.825	24.762	818.358	634.975
367.840	24.625	817.988	634.146
368.854	24.477	817.231	632.979
369.869	24.207	816.750	631.593
370.883	24.146	816.380	631.033
371.898	24.500	816.012	631.947
372.913	24.506	816.043	631.936
373.927	24.229	815.114	630.184
374.942	24.317	814.353	629.848
375.956	24.344	814.647	630.116
376.971	24.654	813.837	630.528
377.986	24.722	813.524	630.468
379.000	24.709	813.306	630.200
380.015	24.605	812.539	629.183
381.029	24.760	811.695	629.019
382.044	24.738	811.462	628.706
383.059	24.798	810.933	628.451
384.073	24.640	810.049	627.155
385.088	24.160	809.472	624.971
386.102	24.047	808.370	623.668
387.117	24.031	807.504	622.888
388.132	23.954	807.608	622.645
389.146	24.164	806.825	622.719
390.161	24.504	806.663	623.728
391.175	24.693	806.156	623.942
392.190	24.361	805.501	622.218
393.205	23.962	804.533	620.025
394.219	23.833	804.196	619.263
395.234	23.678	803.701	618.285
396.248	23.855	803.293	618.536
397.263	23.980	802.763	618.504
398.278	23.699	802.348	617.154
399.292	23.636	801.424	616.170
400.307	23.735	800.941	616.090
401.321	23.683	800.917	615.835
402.336	23.897	800.742	616.389
403.350	24.393	800.311	617.718
404.365	24.493	800.526	618.177
405.380	24.884	800.011	619.076
406.394	25.066	799.317	619.115
407.409	25.047	799.107	618.830
408.423	25.048	799.174	618.830
409.438	25.159	798.643	618.750
410.453	25.141	798.076	618.193
411.467	25.005	797.950	617.570
412.482	25.135	797.395	617.536
413.496	25.298	797.057	617.780
414.511	25.148	796.509	616.786
415.526	25.208	795.740	616.341
416.540	25.004	795.425	615.343
417.555	25.042	794.858	614.979
418.569	25.064	794.422	614.661
419.584	25.157	794.054	614.644
420.599	24.943	793.802	613.660
421.613	163.601	1370.086	1796.565
422.628	141.926	1454.041	1796.664
