DTS Sentinel unit serial number:	SN413079Multiplexer serial number:	ORYXHardware model number:	OX4-SRSoftware version number:	ORYX F/W v4.00 Oryx Data Collector v3.7.2.0data status	okinstallation	princeton_trtdifferential loss correction	single-endedforward channel	channel 1reverse channel	N/Adate	2019/09/18time	19:02:35forward acquisition time	60.00reverse acquisition time	0.00gamma	496.2192k internal	0.2311k external	0.2311temperature offset calibration	1.0018default loss term (dB/km)	0.3790temperature slope calibration	1.0000multiplexer offset coefficient	1.0000multiplexer slope coefficient	1.0000fibre end	0.00T internal ref (°C)	35.80T ext. ref 1 (°C)	0.93T ext. ref 2 (°C)	24.94length (m)	temperature (°C)	Stokes	anti-Stokes-747.200	800.000	-0.056	-0.172
-746.185	-196.425	0.254	-0.002
-745.171	-30.869	0.150	-0.086
-744.156	59.283	0.059	0.059
-743.142	15.379	0.147	0.117
-742.127	800.000	-0.104	0.420
-741.112	-111.248	-0.174	0.036
-740.098	-171.830	-0.388	-0.013
-739.083	800.000	-0.028	0.090
-738.069	-88.186	0.132	0.040
-737.054	-189.586	0.240	-0.003
-736.039	800.000	-0.112	-0.438
-735.025	25.888	-0.134	0.114
-734.010	367.805	-0.172	-0.353
-732.996	-165.128	0.142	0.006
-731.981	-115.605	-0.164	0.031
-730.966	-200.000	-0.004	-0.211
-729.952	261.613	0.010	0.018
-728.937	-200.000	-0.055	0.308
-727.923	800.000	-0.092	-0.346
-726.908	-80.060	-0.149	0.051
-725.894	-200.000	-0.005	-0.389
-724.879	431.146	-0.085	-0.187
-723.864	-200.000	0.007	0.264
-722.850	-82.932	0.098	-0.032
-721.835	-131.360	0.201	-0.027
-720.821	241.796	-0.016	-0.027
-719.806	-150.263	-0.425	0.033
-718.791	109.207	0.164	0.198
-717.777	-138.626	0.278	-0.031
-716.762	-127.685	0.313	0.046
-715.748	800.000	0.035	0.140
-714.733	224.203	0.098	-0.160
-713.718	-84.001	-0.146	-0.047
-712.704	-101.685	0.275	-0.068
-711.689	-9.796	0.254	0.171
-710.675	800.000	-0.102	0.369
-709.660	-200.000	0.003	0.122
-708.645	-16.524	-0.206	-0.133
-707.631	-155.119	0.271	-0.018
-706.616	764.825	-0.086	0.236
-705.602	800.000	-0.103	0.289
-704.587	641.258	0.112	0.289
-703.572	15.377	-0.267	-0.213
-702.558	50.918	-0.260	0.250
-701.543	236.289	0.115	0.193
-700.529	-46.451	-0.288	-0.143
-699.514	-200.000	0.018	-0.113
-698.499	53.693	0.163	0.158
-697.485	-200.000	0.085	-0.557
-696.470	-200.000	0.010	-0.068
-695.456	-200.000	-0.009	-0.206
-694.441	-200.000	-0.010	-0.079
-693.426	-95.467	-0.300	-0.082
-692.412	-25.527	0.106	-0.064
-691.397	210.323	0.130	0.207
-690.383	-178.295	-0.282	0.007
-689.368	151.940	-0.200	0.277
-688.354	-200.000	0.033	0.453
-687.339	-200.000	-0.032	0.250
-686.324	800.000	0.068	-0.290
-685.310	100.313	0.184	0.216
-684.295	800.000	-0.057	-0.201
-683.281	-42.152	-0.336	-0.174
-682.266	-200.000	0.054	0.244
-681.251	-200.000	-0.005	0.144
-680.237	533.046	0.094	-0.224
-679.222	-136.562	-0.271	0.032
-678.208	-3.939	-0.103	0.073
-677.193	226.606	0.177	-0.291
-676.178	-44.520	0.145	0.074
-675.164	305.458	-0.030	-0.056
-674.149	213.197	0.089	0.142
-673.135	800.000	-0.031	0.107
-672.120	135.455	-0.376	-0.495
-671.105	-117.875	-0.204	-0.037
-670.091	144.718	-0.116	-0.157
-669.076	-68.747	-0.333	-0.130
-668.062	-200.000	0.048	-0.357
-667.047	-32.071	0.104	0.059
-666.032	-200.000	0.280	0.001
-665.018	135.813	0.063	-0.083
-664.003	254.505	-0.081	-0.141
-662.989	-78.232	0.142	0.049
-661.974	28.072	-0.182	-0.156
-660.959	-200.000	-0.000	0.060
-659.945	37.031	0.332	-0.297
-658.930	-194.578	-0.578	0.005
-657.916	215.465	-0.037	-0.060
-656.901	-200.000	-0.003	-0.323
-655.886	46.051	-0.045	0.042
-654.872	-76.512	0.189	0.067
-653.857	-101.954	0.242	0.059
-652.843	-118.459	0.178	-0.032
-651.828	800.000	0.009	-0.027
-650.814	205.594	0.118	0.186
-649.799	-56.401	-0.043	-0.019
-648.784	-120.752	-0.355	0.061
-647.770	-79.978	0.170	0.058
-646.755	-183.317	0.393	-0.007
-645.741	37.127	0.112	-0.100
-644.726	698.217	0.107	0.285
-643.711	-48.712	-0.166	0.081
-642.697	-88.003	0.401	-0.122
-641.682	-200.000	-0.101	-0.457
-640.668	547.151	0.028	0.067
-639.653	-132.917	-0.091	0.012
-638.638	250.613	-0.195	0.336
-637.624	-148.363	-0.340	0.028
-636.609	-59.178	-0.296	0.129
-635.595	142.137	0.141	-0.189
-634.580	-200.000	-0.041	0.330
-633.565	-128.067	0.210	0.030
-632.551	-102.902	-0.187	-0.045
-631.536	800.000	-0.038	0.112
-630.522	58.328	0.108	-0.107
-629.507	-69.273	-0.087	0.034
-628.492	800.000	-0.073	-0.226
-627.478	101.095	-0.223	-0.262
-626.463	-147.054	0.155	0.013
-625.449	800.000	-0.067	-0.213
-624.434	-105.372	-0.187	-0.043
-623.419	-77.252	0.085	0.030
-622.405	-200.000	-0.033	0.239
-621.390	64.106	-0.160	0.162
-620.376	-198.251	0.122	-0.001
-619.361	28.737	-0.135	-0.116
-618.346	212.877	-0.090	-0.143
-617.332	306.996	0.072	-0.136
-616.317	45.050	0.234	-0.218
-615.303	-48.670	-0.385	0.187
-614.288	-94.179	0.126	0.035
-613.273	-181.396	0.217	-0.004
-612.259	87.217	-0.316	0.353
-611.244	-28.241	0.105	-0.061
-610.230	-77.772	-0.417	-0.146
-609.215	32.495	-0.265	-0.231
-608.201	800.000	0.072	0.240
-607.186	99.508	0.080	-0.093
-606.171	-200.000	0.069	-0.323
-605.157	-68.267	0.093	0.037
-604.142	492.831	0.130	0.301
-603.128	-200.000	-0.035	0.314
-602.113	90.434	-0.147	-0.167
-601.098	-200.000	-0.016	0.091
-600.084	33.536	-0.053	-0.047
-599.069	-135.836	0.190	0.023
-598.055	-200.000	-0.022	0.132
-597.040	211.476	-0.245	-0.390
-596.025	-200.000	0.027	-0.427
-595.011	-150.680	-0.479	0.037
-593.996	86.299	0.144	-0.160
-592.982	-146.088	-0.030	-0.003
-591.967	-200.000	0.012	-0.155
-590.952	-200.000	0.023	0.267
-589.938	-200.000	-0.013	-0.188
-588.923	-2.597	-0.067	0.047
-587.909	-94.629	-0.231	0.063
-586.894	-39.555	-0.177	-0.093
-585.879	-26.854	-0.146	0.086
-584.865	343.317	0.288	0.570
-583.850	8.692	-0.149	0.113
-582.836	-125.144	0.230	0.036
-581.821	-42.366	0.136	0.070
-580.806	22.518	0.326	0.269
-579.792	-200.000	-0.000	-0.095
-578.777	-34.478	-0.178	-0.099
-577.763	25.147	-0.116	-0.097
-576.748	-200.000	0.002	-0.174
-575.733	485.126	-0.065	-0.150
-574.719	-124.688	-0.367	-0.057
-573.704	202.552	-0.166	-0.258
-572.690	-200.000	0.001	0.168
-571.675	41.760	-0.191	0.175
-570.661	-101.200	-0.474	-0.117
-569.646	157.857	0.153	0.214
-568.631	-16.963	0.177	-0.113
-567.617	-21.792	0.051	-0.031
-566.602	47.734	-0.237	0.223
-565.588	-67.806	0.263	0.104
-564.573	-122.171	0.258	0.043
-563.558	-8.421	-0.071	-0.048
-562.544	189.742	-0.119	0.180
-561.529	-4.734	-0.162	-0.113
-560.515	-200.000	0.020	-0.123
-559.500	520.926	0.072	0.170
-558.485	2.762	-0.198	0.145
-557.471	-116.976	-0.119	-0.022
-556.456	-73.926	-0.126	0.046
-555.442	93.114	0.162	0.185
-554.427	-61.234	-0.100	0.042
-553.412	-80.829	-0.325	0.109
-552.398	-200.000	0.030	-0.181
-551.383	72.699	-0.231	-0.243
-550.369	428.212	-0.281	-0.612
-549.354	-197.996	0.178	0.001
-548.339	-200.000	-0.031	-0.153
-547.325	21.412	-0.125	0.103
-546.310	-31.530	-0.179	0.102
-545.296	199.935	-0.122	-0.189
-544.281	-200.000	-0.025	-0.263
-543.266	800.000	-0.122	-0.396
-542.252	24.135	-0.135	-0.112
-541.237	-200.000	-0.052	0.285
-540.223	-46.685	0.154	-0.076
-539.208	150.068	0.227	-0.310
-538.193	-19.900	-0.201	-0.125
-537.179	57.387	-0.210	0.207
-536.164	-16.670	0.251	0.160
-535.150	-22.951	-0.114	0.069
-534.135	-200.000	-0.027	0.156
-533.121	-71.260	-0.097	-0.037
-532.106	40.198	0.138	0.125
-531.091	-54.596	-0.216	-0.098
-530.077	39.946	-0.080	-0.072
-529.062	-79.662	0.123	-0.042
-528.048	-200.000	-0.011	-0.210
-527.033	-200.000	-0.014	-0.232
-526.018	-200.000	0.011	-0.063
-525.004	-80.648	0.192	0.064
-523.989	256.927	0.039	0.068
-522.975	142.206	-0.060	0.080
-521.960	5.666	-0.301	0.224
-520.945	114.885	0.112	0.137
-519.931	155.596	-0.205	0.284
-518.916	122.112	0.032	0.040
-517.902	800.000	0.063	-0.201
-516.887	800.000	-0.090	0.321
-515.872	-35.872	0.087	0.048
-514.858	-200.000	0.037	0.443
-513.843	800.000	-0.021	0.090
-512.829	154.075	0.128	0.177
-511.814	20.156	0.375	0.304
-510.799	18.630	-0.105	0.085
-509.785	-3.481	-0.176	0.123
-508.770	234.024	-0.149	0.246
-507.756	800.000	0.005	0.017
-506.741	-200.000	-0.093	0.440
-505.726	-106.539	0.339	0.076
-504.712	114.582	-0.145	0.177
-503.697	-52.966	0.099	0.046
-502.683	-148.592	0.123	0.010
-501.668	222.138	-0.052	-0.083
-500.653	-30.165	-0.207	-0.118
-499.639	-128.488	-0.434	0.062
-498.624	-200.000	0.055	0.264
-497.610	547.568	0.092	-0.222
-496.595	92.237	0.141	-0.160
-495.581	-200.000	-0.006	0.049
-494.566	-39.786	0.378	-0.199
-493.551	75.972	-0.112	0.119
-492.537	-84.803	0.065	0.021
-491.522	-125.150	0.117	-0.018
-490.508	-133.991	0.147	-0.018
-489.493	100.532	0.063	-0.074
-488.478	502.818	0.081	-0.189
-487.464	-115.150	-0.134	0.026
-486.449	-200.000	-0.035	0.574
-485.435	-200.000	-0.033	-0.150
-484.420	800.000	0.122	0.399
-483.405	140.753	-0.079	0.105
-482.391	-72.168	0.121	-0.045
-481.376	119.488	0.050	-0.062
-480.362	531.590	0.089	-0.212
-479.347	-60.373	-0.255	-0.109
-478.332	481.226	0.018	0.041
-477.318	53.613	-0.208	0.201
-476.303	31.737	-0.079	0.068
-475.289	-175.769	0.143	-0.004
-474.274	-35.653	-0.072	0.039
-473.259	-83.476	0.338	0.109
-472.245	800.000	-0.096	-0.267
-471.230	137.199	-0.134	0.176
-470.216	-40.222	-0.045	-0.024
-469.201	-200.000	0.012	-0.185
-468.186	138.920	0.237	0.313
-467.172	19.184	0.228	-0.184
-466.157	800.000	-0.084	0.295
-465.143	27.240	0.171	0.145
-464.128	238.386	0.139	0.232
-463.113	2.840	-0.176	0.128
-462.099	273.004	-0.053	0.093
-461.084	-114.728	0.218	0.042
-460.070	115.467	0.030	-0.037
-459.055	534.191	-0.026	-0.061
-458.040	10.201	0.142	-0.109
-457.026	257.494	-0.169	-0.292
-456.011	-80.735	-0.249	-0.083
-454.997	79.970	0.012	-0.013
-453.982	-200.000	-0.010	0.085
-452.968	702.287	-0.069	0.183
-451.953	-55.877	-0.111	0.050
-450.938	-200.000	-0.007	0.151
-449.924	14.638	-0.146	-0.114
-448.909	-200.000	-0.014	-0.265
-447.895	217.821	0.204	0.326
-446.880	60.313	0.222	0.220
-445.865	312.321	0.044	0.083
-444.851	-2.965	0.244	0.171
-443.836	11.240	-0.364	-0.280
-442.822	-107.601	-0.249	0.055
-441.807	-22.522	0.039	0.024
-440.792	255.788	0.038	0.066
-439.778	-115.923	0.021	-0.004
-438.763	-8.867	-0.276	0.186
-437.749	-77.919	-0.240	-0.083
-436.734	194.360	0.190	-0.289
-435.719	167.760	-0.141	0.201
-434.705	678.742	-0.155	0.405
-433.690	800.000	0.053	-0.200
-432.676	-56.878	0.185	-0.082
-431.661	800.000	0.079	-0.312
-430.646	50.157	0.201	-0.190
-429.632	800.000	0.132	0.536
-428.617	800.000	-0.051	0.175
-427.603	800.000	-0.037	-0.146
-426.588	-146.821	0.057	-0.005
-425.573	-178.789	0.235	0.005
-424.559	47.277	0.302	0.282
-423.544	-20.425	-0.194	-0.120
-422.530	800.000	-0.183	0.599
-421.515	-200.000	0.073	-0.324
-420.500	800.000	0.076	-0.245
-419.486	-175.765	0.286	-0.008
-418.471	178.226	0.068	0.100
-417.457	8.311	-0.049	0.037
-416.442	8.703	-0.373	-0.282
-415.428	77.203	0.118	0.126
-414.413	286.943	-0.044	-0.081
-413.398	-71.732	0.300	0.112
-412.384	217.226	0.215	-0.343
-411.369	-158.277	0.260	0.015
-410.355	760.876	0.095	0.257
-409.340	-57.095	-0.304	-0.134
-408.325	406.754	-0.116	0.245
-407.311	242.617	-0.077	0.129
-406.296	-124.135	0.058	-0.009
-405.282	-98.356	-0.131	0.034
-404.267	-174.747	0.246	-0.007
-403.252	173.144	-0.073	0.105
-402.238	-126.256	0.187	-0.028
-401.223	25.412	-0.248	0.207
-400.209	532.408	-0.050	0.117
-399.194	160.473	-0.210	0.294
-398.179	-11.226	-0.204	0.134
-397.165	37.839	0.109	0.097
-396.150	800.000	-0.028	0.112
-395.136	7.213	0.081	-0.060
-394.121	24.902	-0.226	0.188
-393.106	89.144	-0.089	0.100
-392.092	-200.000	-0.033	0.302
-391.077	367.730	-0.050	0.101
-390.063	208.237	-0.121	0.190
-389.048	800.000	0.034	-0.098
-388.033	20.052	0.061	0.050
-387.019	-200.000	0.043	0.246
-386.004	147.653	-0.130	0.176
-384.990	45.163	0.147	-0.136
-383.975	13.466	0.149	-0.116
-382.960	-200.000	0.074	-0.417
-381.946	-172.044	-0.335	0.011
-380.931	-100.232	-0.149	0.037
-379.917	-174.759	-0.179	0.005
-378.902	800.000	0.051	0.200
-377.888	-193.203	0.237	0.002
-376.873	456.922	-0.046	-0.103
-375.858	457.235	-0.025	0.056
-374.844	-56.874	0.183	0.081
-373.829	-200.000	-0.013	0.149
-372.815	-16.343	-0.117	-0.074
-371.800	318.516	-0.053	-0.101
-370.785	144.675	-0.286	-0.382
-369.771	175.117	-0.156	0.226
-368.756	-55.622	-0.123	-0.055
-367.742	-200.000	-0.015	0.143
-366.727	-200.000	0.023	0.101
-365.712	-200.000	-0.019	0.243
-364.698	-196.896	0.163	0.001
-363.683	-93.319	-0.237	0.066
-362.669	172.534	0.133	0.191
-361.654	-82.078	0.144	-0.047
-360.639	775.319	0.148	0.403
-359.625	113.585	-0.070	0.086
-358.610	37.215	0.175	-0.155
-357.596	-50.531	0.022	0.011
-356.581	3.096	-0.090	0.065
-355.566	106.147	0.039	-0.046
-354.552	-67.652	0.165	-0.065
-353.537	-200.000	-0.021	-0.118
-352.523	-143.749	-0.203	0.019
-351.508	-141.028	0.223	-0.023
-350.493	800.000	-0.072	-0.235
-349.479	-51.409	-0.235	-0.110
-348.464	-200.000	-0.014	-0.108
-347.450	800.000	-0.039	-0.109
-346.435	800.000	-0.048	0.137
-345.420	523.099	0.076	0.179
-344.406	97.238	-0.064	-0.073
-343.391	106.874	-0.116	-0.138
-342.377	-11.577	0.142	0.093
-341.362	15.356	0.214	0.168
-340.348	-7.325	0.176	0.119
-339.333	800.000	-0.018	0.066
-338.318	800.000	-0.069	-0.208
-337.304	-53.568	-0.094	-0.043
-336.289	-133.779	-0.348	-0.043
-335.275	-146.494	0.408	-0.035
-334.260	-200.000	0.058	0.390
-333.245	182.006	0.164	0.241
-332.231	-35.517	-0.220	0.119
-331.216	-49.048	0.186	-0.089
-330.202	15.425	-0.187	-0.147
-329.187	62.057	0.140	-0.140
-328.172	-200.000	0.025	-0.311
-327.158	800.000	-0.151	-0.469
-326.143	39.358	0.252	-0.226
-325.129	146.786	0.149	0.199
-324.114	-113.256	0.246	0.048
-323.099	-200.000	-0.003	-0.482
-322.085	-93.798	-0.038	0.011
-321.070	-13.648	0.069	0.045
-320.056	800.000	0.018	-0.076
-319.041	458.475	-0.050	-0.111
-318.026	782.052	0.043	0.117
-317.012	800.000	0.033	0.131
-315.997	478.168	0.062	0.140
-314.983	-144.356	-0.568	0.053
-313.968	56.608	0.239	0.232
-312.953	-166.152	0.267	0.011
-311.939	800.000	0.068	-0.207
-310.924	800.000	0.097	0.389
-309.910	-71.057	0.337	0.127
-308.895	-200.000	0.020	-0.178
-307.880	24.297	0.249	-0.206
-306.866	-90.310	-0.031	0.009
-305.851	800.000	-0.074	0.245
-304.837	181.209	-0.074	0.108
-303.822	-104.814	0.090	-0.021
-302.807	-113.656	0.091	-0.018
-301.793	112.282	0.223	-0.269
-300.778	39.610	-0.271	-0.243
-299.764	-200.000	0.088	-0.444
-298.749	-108.557	0.129	0.028
-297.735	-64.439	0.328	-0.133
-296.720	800.000	-0.017	0.067
-295.705	436.348	0.132	0.287
-294.691	-16.749	0.288	0.182
-293.676	694.605	0.033	-0.085
-292.662	131.648	-0.249	-0.320
-291.647	800.000	-0.099	-0.334
-290.632	-200.000	0.035	0.214
-289.618	-52.656	-0.128	-0.059
-288.603	-200.000	0.067	0.305
-287.589	-93.780	-0.031	-0.008
-286.574	-109.559	0.251	-0.053
-285.559	-0.869	-0.180	0.127
-284.545	-41.763	0.351	0.180
-283.530	120.955	-0.086	0.106
-282.516	800.000	-0.039	0.151
-281.501	144.172	0.171	-0.227
-280.486	-112.234	0.700	0.140
-279.472	800.000	0.016	-0.057
-278.457	-66.254	-0.290	0.115
-277.443	152.729	-0.083	-0.113
-276.428	54.202	0.207	-0.199
-275.413	13.250	-0.234	0.181
-274.399	99.035	0.353	0.406
-273.384	-9.180	-0.028	-0.019
-272.370	-77.126	-0.303	0.105
-271.355	-130.908	0.237	0.032
-270.340	279.593	-0.142	0.252
-269.326	-16.936	0.132	0.083
-268.311	85.728	0.238	-0.261
-267.297	-200.000	0.011	-0.064
-266.282	-91.706	0.208	0.059
-265.267	-52.784	0.284	-0.131
-264.253	800.000	0.021	-0.078
-263.238	-106.952	-0.386	0.085
-262.224	441.869	0.135	-0.295
-261.209	-200.000	0.044	0.323
-260.195	-8.002	0.169	-0.113
-259.180	279.353	0.066	-0.117
-258.165	-200.000	0.000	0.015
-257.151	-200.000	-0.004	-0.036
-256.136	-200.000	0.026	0.130
-255.122	-56.686	0.308	0.136
-254.107	115.447	-0.046	0.056
-253.092	-118.323	0.124	0.022
-252.078	-17.125	0.254	0.160
-251.063	-91.235	-0.035	-0.010
-250.049	119.284	-0.052	0.064
-249.034	277.445	0.140	-0.247
-248.019	-200.000	0.005	-0.167
-247.005	59.222	0.215	-0.210
-245.990	-97.486	-0.340	-0.088
-244.976	-53.674	0.151	0.069
-243.961	-108.240	-0.148	0.032
-242.946	276.488	0.095	0.167
-241.932	-194.522	-0.376	0.003
-240.917	-104.787	-0.261	-0.060
-239.903	423.719	0.144	0.308
-238.888	-200.000	0.015	0.222
-237.873	-102.270	0.339	-0.081
-236.859	-129.669	-0.240	-0.033
-235.844	800.000	0.075	-0.309
-234.830	183.073	-0.172	-0.253
-233.815	69.248	0.291	-0.298
-232.800	-200.000	-0.073	0.344
-231.786	-200.000	-0.002	-0.019
-230.771	-78.922	-0.143	0.048
-229.757	-101.910	0.140	-0.034
-228.742	-90.052	-0.411	0.119
-227.727	-65.795	-0.167	-0.066
-226.713	-99.039	0.259	-0.065
-225.698	-176.906	-0.190	0.005
-224.684	-40.391	0.159	-0.082
-223.669	800.000	0.022	0.065
-222.655	-0.752	0.305	0.215
-221.640	9.121	-0.227	0.170
-220.625	-200.000	0.041	-0.406
-219.611	264.040	-0.304	-0.527
-218.596	-200.000	-0.012	-0.075
-217.582	-61.063	0.427	-0.179
-216.567	-4.976	-0.203	-0.139
-215.552	103.779	0.214	-0.250
-214.538	25.927	-0.165	0.137
-213.523	-5.399	0.169	-0.116
-212.509	275.998	0.061	-0.108
-211.494	-146.620	0.152	0.013
-210.479	-200.000	0.014	0.221
-209.465	16.474	0.252	0.198
-208.450	266.959	-0.155	-0.269
-207.436	800.000	0.040	-0.118
-206.421	161.319	0.080	-0.111
-205.406	-33.228	0.160	-0.088
-204.392	-116.829	-0.223	-0.041
-203.377	2.352	-0.154	-0.111
-202.363	39.228	0.135	-0.120
-201.348	114.701	-0.058	0.070
-200.333	-200.000	0.037	-0.294
-199.319	-61.069	-0.279	0.117
-198.304	399.862	0.149	-0.310
-197.290	331.248	0.135	-0.259
-196.275	-90.680	-0.365	0.105
-195.260	-200.000	0.009	0.040
-194.246	590.432	-0.131	0.320
-193.231	54.450	-0.071	-0.068
-192.217	-200.000	-0.023	-0.180
-191.202	-200.000	0.011	-0.299
-190.187	800.000	0.096	-0.364
-189.173	-100.133	0.247	-0.061
-188.158	-82.311	0.239	0.077
-187.144	97.193	0.120	-0.137
-186.129	-200.000	0.012	-0.181
-185.114	35.247	0.042	-0.037
-184.100	-200.000	-0.027	-0.193
-183.085	146.814	-0.292	-0.390
-182.071	-148.350	-0.102	-0.008
-181.056	66.624	-0.082	-0.083
-180.042	-176.071	0.095	-0.002
-179.027	800.000	-0.023	-0.078
-178.012	-107.221	-0.215	-0.047
-176.998	599.199	-0.047	0.116
-175.983	-200.000	-0.007	-0.065
-174.969	-154.386	0.154	-0.010
-173.954	-121.515	-0.167	0.028
-172.939	-200.000	0.027	-0.121
-171.925	800.000	-0.131	-0.472
-170.910	170.473	-0.051	0.072
-169.896	-200.000	-0.050	-0.233
-168.881	-60.927	-0.277	0.116
-167.866	372.106	-0.034	0.069
-166.852	-200.000	-0.003	-0.336
-165.837	145.759	0.087	0.115
-164.823	110.082	0.133	0.159
-163.808	-143.766	0.404	0.038
-162.793	-200.000	-0.015	-0.301
-161.779	208.823	0.196	-0.304
-160.764	800.000	-0.048	-0.171
-159.750	-200.000	-0.008	0.085
-158.735	-200.000	-0.072	0.339
-157.720	-84.111	-0.160	0.050
-156.706	392.663	0.102	-0.211
-155.691	-5.085	0.200	-0.136
-154.677	800.000	-0.089	-0.316
-153.662	468.240	-0.027	-0.060
-152.647	-187.591	0.146	-0.002
-151.633	-141.137	-0.192	0.019
-150.618	75.444	0.150	0.157
-149.604	-114.257	0.097	0.019
-148.589	-41.034	0.043	-0.022
-147.574	83.411	-0.104	0.112
-146.560	-8.942	0.248	-0.165
-145.545	52.982	-0.023	-0.022
-144.531	-36.398	-0.153	-0.082
-143.516	213.960	-0.122	-0.192
-142.502	55.563	0.167	0.160
-141.487	6.801	0.181	-0.133
-140.472	196.488	-0.153	0.231
-139.458	-200.000	0.015	0.122
-138.443	-132.099	-0.397	-0.051
-137.429	68.780	0.080	-0.082
-136.414	376.132	0.102	0.206
-135.399	97.540	0.283	-0.322
-134.385	132.792	0.241	-0.308
-133.370	-47.681	0.115	-0.055
-132.356	-145.264	0.368	-0.033
-131.341	-85.474	-0.338	0.104
-130.326	137.611	0.091	-0.119
-129.312	127.498	-0.093	-0.117
-128.297	-200.000	0.094	0.513
-127.283	300.381	-0.094	0.173
-126.268	-200.000	0.003	-0.161
-125.253	-175.744	0.278	-0.007
-124.239	7.891	-0.420	0.312
-123.224	-113.837	-0.101	-0.019
-122.210	705.057	-0.056	-0.147
-121.195	-200.000	-0.005	0.022
-120.180	729.940	-0.142	0.375
-119.166	-28.071	0.203	0.116
-118.151	270.939	-0.157	-0.274
-117.137	78.205	-0.265	-0.280
-116.122	-200.000	0.001	0.168
-115.107	-63.752	0.100	-0.041
-114.093	49.771	0.174	-0.162
-113.078	249.643	-0.066	-0.111
-112.064	-200.000	0.015	0.200
-111.049	7.321	0.208	-0.154
-110.034	65.238	-0.200	0.200
-109.020	-27.248	0.157	-0.091
-108.005	119.728	-0.141	0.173
-106.991	168.497	-0.138	0.195
-105.976	-200.000	-0.003	-0.354
-104.962	-147.228	0.384	-0.032
-103.947	-200.000	0.174	-0.001
-102.932	-125.847	0.392	-0.059
-101.918	-200.000	-0.042	0.295
-100.903	-200.000	0.025	0.215
-99.889	-194.887	0.099	0.001
-98.874	-183.684	0.133	0.002
-97.859	431.058	-0.022	-0.047
-96.845	-88.170	0.125	-0.037
-95.830	7.765	-0.052	-0.039
-94.816	-42.952	0.140	-0.070
-93.801	800.000	0.057	-0.218
-92.786	595.889	-0.061	-0.150
-91.772	704.179	-0.048	-0.124
-90.757	113.143	0.166	-0.199
-89.743	-15.522	0.100	-0.063
-88.728	-42.566	0.191	-0.096
-87.713	-200.000	0.025	-0.195
-86.699	130.629	0.121	0.154
-85.684	-115.147	0.282	0.053
-84.670	-200.000	-0.020	-0.151
-83.655	-55.623	-0.366	-0.162
-82.640	-40.073	-0.027	0.014
-81.626	371.769	-0.134	-0.269
-80.611	-132.558	-0.176	0.022
-79.597	143.948	0.230	0.303
-78.582	489.389	0.172	0.390
-77.567	-165.830	0.286	-0.012
-76.553	-146.582	0.223	0.019
-75.538	800.000	-0.078	0.220
-74.524	331.812	0.053	-0.101
-73.509	-46.506	-0.214	-0.104
-72.494	-200.000	-0.041	0.193
-71.480	10.797	-0.447	0.338
-70.465	-148.101	0.368	0.030
-69.451	800.000	-0.129	-0.371
-68.436	248.045	-0.053	0.088
-67.422	-90.549	0.280	-0.080
-66.407	800.000	-0.030	-0.087
-65.392	370.680	0.088	-0.176
-64.378	246.859	-0.155	-0.259
-63.363	-97.208	-0.184	0.047
-62.349	-159.749	0.491	0.027
-61.334	-83.589	-0.995	-0.314
-60.319	-42.977	0.629	0.315
-59.305	800.000	-0.254	-1.032
-58.290	214.009	0.485	0.759
-57.276	800.000	0.517	1.450
-56.261	-200.000	95.906	571.752
-55.246	544.774	1386.611	3273.248
-54.232	152.769	2584.315	3490.221
-53.217	114.113	2180.894	2621.919
-52.203	47.497	1634.995	1506.166
-51.188	39.287	1370.144	1211.837
-50.173	35.966	1327.835	1154.499
-49.159	57.533	1374.198	1326.635
-48.144	61.381	1392.271	1367.428
-47.130	39.623	1348.218	1194.288
-46.115	35.928	1330.981	1156.824
-45.100	35.565	1326.634	1150.826
-44.086	35.604	1324.035	1148.759
-43.071	35.620	1321.337	1146.469
-42.057	35.525	1319.300	1144.087
-41.042	35.689	1317.640	1143.579
-40.027	35.667	1316.600	1142.500
-39.013	35.755	1314.324	1141.002
-37.998	35.725	1312.356	1139.072
-36.984	35.709	1310.554	1137.369
-35.969	35.759	1308.836	1136.127
-34.954	35.752	1307.428	1134.819
-33.940	35.779	1306.366	1134.011
-32.925	35.745	1305.153	1132.714
-31.911	35.968	1303.051	1132.152
-30.896	35.904	1301.817	1130.664
-29.881	36.021	1300.325	1130.005
-28.867	35.869	1299.166	1128.061
-27.852	35.989	1297.108	1126.932
-26.838	35.935	1295.848	1125.477
-25.823	35.791	1295.075	1123.920
-24.809	35.874	1293.573	1123.057
-23.794	35.954	1292.048	1122.159
-22.779	35.834	1291.043	1120.542
-21.765	35.913	1289.670	1119.766
-20.750	35.919	1288.199	1118.478
-19.736	35.808	1287.153	1116.879
-18.721	35.691	1286.300	1115.416
-17.706	35.703	1285.248	1114.531
-16.692	35.804	1283.045	1113.158
-15.677	35.830	1282.543	1112.832
-14.663	35.710	1281.575	1111.251
-13.648	35.799	1280.303	1110.617
-12.633	35.743	1279.568	1109.617
-11.619	35.750	1278.896	1109.029
-10.604	35.679	1277.967	1107.769
-9.590	35.768	1276.507	1106.969
-8.575	35.793	1275.649	1106.325
-7.560	35.639	1275.219	1105.025
-6.546	35.664	1274.555	1104.551
-5.531	35.759	1273.066	1103.758
-4.517	35.683	1272.180	1102.515
-3.502	35.617	1271.533	1101.531
-2.487	35.752	1270.551	1101.409
-1.473	35.441	1266.051	1095.686
-0.458	32.994	1248.153	1066.360
0.556	26.380	1226.624	1010.783
1.571	20.353	1229.606	979.266
2.586	18.430	1243.166	978.998
3.600	17.723	1231.949	966.072
4.615	13.200	1160.529	885.795
5.629	5.292	1084.158	787.692
6.644	1.225	1063.164	752.237
7.659	0.887	1060.845	748.855
8.673	0.813	1059.968	747.806
9.688	0.795	1058.871	746.877
10.702	1.061	1057.132	746.896
11.717	5.446	1062.290	772.155
12.731	13.127	1072.344	817.543
13.746	17.274	1077.032	841.621
14.761	17.535	1076.880	842.719
15.775	16.800	1075.386	837.844
16.790	15.813	1073.226	831.211
17.804	15.196	1071.482	826.746
18.819	14.644	1070.595	823.268
19.834	14.453	1069.466	821.382
20.848	14.196	1068.851	819.575
21.863	13.965	1068.073	817.766
22.877	13.753	1067.267	816.032
23.892	13.779	1066.396	815.427
24.907	13.818	1065.432	814.807
25.921	13.786	1064.843	814.125
26.936	13.923	1063.821	813.944
27.950	13.719	1063.594	812.698
28.965	13.803	1062.132	811.922
29.980	13.921	1060.691	811.324
30.994	13.922	1059.682	810.486
32.009	14.002	1058.835	810.156
33.023	14.045	1057.538	809.301
34.038	14.013	1056.598	808.353
35.053	13.845	1055.801	806.855
36.067	13.997	1054.593	806.602
37.082	13.888	1054.376	805.836
38.096	14.041	1053.277	805.666
39.111	14.077	1051.972	804.771
40.126	13.876	1051.461	803.334
41.140	13.804	1050.007	801.804
42.155	13.755	1048.878	800.638
43.169	13.743	1048.085	799.903
44.184	13.557	1047.515	798.498
45.199	13.840	1045.699	798.406
46.213	13.735	1045.019	797.312
47.228	13.793	1043.764	796.562
48.242	13.851	1042.984	796.176
49.257	13.784	1042.219	795.198
50.271	13.924	1041.004	794.871
51.286	13.859	1040.307	793.958
52.301	13.847	1039.587	793.281
53.315	13.911	1038.305	792.539
54.330	13.828	1037.174	791.208
55.344	13.861	1036.137	790.505
56.359	13.741	1035.979	789.742
57.374	13.729	1034.995	788.864
58.388	13.744	1033.852	787.999
59.403	13.722	1033.141	787.283
60.417	13.702	1032.477	786.611
61.432	13.822	1031.366	786.262
62.447	13.730	1030.245	784.905
63.461	13.675	1029.547	784.041
64.476	13.737	1028.336	783.343
65.490	13.603	1028.287	782.606
66.505	13.710	1027.667	782.566
67.520	13.732	1026.669	781.840
68.534	13.762	1026.066	781.457
69.549	13.868	1025.179	781.211
70.563	13.729	1024.669	780.096
71.578	13.647	1023.892	779.053
72.593	13.745	1023.012	778.774
73.607	13.666	1022.558	777.989
74.622	13.693	1021.540	777.271
75.636	13.533	1021.276	776.251
76.651	13.584	1020.285	775.668
77.666	13.611	1019.446	775.087
78.680	13.683	1018.797	774.862
79.695	13.668	1018.088	774.183
80.709	13.709	1017.737	774.041
81.724	13.716	1017.034	773.468
82.739	13.853	1015.709	773.032
83.753	13.814	1015.073	772.300
84.768	13.835	1014.600	771.966
85.782	13.970	1013.413	771.624
86.797	13.886	1012.132	770.191
87.812	13.834	1011.450	769.364
88.826	13.810	1010.704	768.614
89.841	13.860	1009.402	767.788
90.855	14.018	1008.648	767.878
91.870	13.932	1007.831	766.790
92.884	14.026	1006.719	766.309
93.899	13.944	1006.241	765.499
94.914	13.957	1005.392	764.848
95.928	13.954	1004.961	764.439
96.943	14.016	1003.740	763.726
97.957	13.873	1003.312	762.675
98.972	13.845	1002.659	761.984
99.987	13.917	1001.213	761.146
101.001	13.933	1000.385	760.526
102.016	13.864	999.223	759.255
103.030	14.024	998.018	759.004
104.045	13.851	998.267	758.335
105.060	13.888	997.166	757.602
106.074	13.751	996.524	756.421
107.089	13.833	995.117	755.660
108.103	13.854	994.049	754.881
109.118	13.867	992.729	753.867
110.133	13.781	992.190	753.001
111.147	13.794	991.619	752.563
112.162	13.832	990.300	751.665
113.176	13.909	990.182	751.858
114.191	13.983	989.242	751.411
115.206	13.926	988.156	750.264
116.220	13.853	987.929	749.694
117.235	13.951	986.441	748.944
118.249	13.835	985.697	747.787
119.264	13.854	985.025	747.300
120.279	13.820	984.474	746.663
121.293	13.840	983.602	746.024
122.308	13.945	982.393	745.513
123.322	13.743	981.957	744.210
124.337	13.948	980.218	743.745
125.352	13.893	979.821	743.130
126.366	13.968	978.131	742.116
127.381	13.946	977.450	741.436
128.395	13.970	976.336	740.634
129.410	13.877	975.839	739.778
130.424	13.864	974.875	738.921
131.439	13.932	974.046	738.530
132.454	14.023	973.267	738.277
133.468	13.975	972.368	737.318
134.483	13.893	971.641	736.338
135.497	13.956	970.553	735.730
136.512	13.999	969.819	735.296
137.527	13.926	969.304	734.517
138.541	13.933	968.376	733.781
139.556	14.100	967.511	733.798
140.570	14.052	967.257	733.329
141.585	14.007	966.157	732.234
142.600	14.117	965.024	731.793
143.614	14.260	964.233	731.758
144.629	14.044	963.610	730.269
145.643	14.122	962.500	729.707
146.658	14.027	961.387	728.381
147.673	13.992	960.808	727.727
148.687	14.047	960.204	727.444
149.702	13.865	959.485	726.039
150.716	14.091	958.200	725.989
151.731	13.941	957.759	724.936
152.746	13.991	956.974	724.497
153.760	14.132	956.512	724.698
154.775	14.134	955.450	723.836
155.789	14.043	955.246	723.221
156.804	14.203	954.296	723.132
157.819	14.201	953.846	722.721
158.833	14.212	953.012	722.073
159.848	14.088	952.388	720.999
160.862	14.151	951.054	720.199
161.877	14.252	950.148	719.886
162.892	14.135	949.323	718.690
163.906	14.238	948.500	718.448
164.921	14.054	947.633	716.934
165.935	14.094	946.929	716.512
166.950	14.214	945.756	716.075
167.964	14.181	944.817	715.162
168.979	14.233	944.140	714.810
169.994	14.169	943.386	713.900
171.008	14.307	942.605	713.837
172.023	14.354	941.831	713.390
173.037	14.368	941.090	712.824
174.052	14.241	940.510	711.780
175.067	14.198	939.641	710.873
176.081	14.193	939.392	710.600
177.096	14.203	938.705	710.063
178.110	14.328	937.775	709.827
179.125	14.341	937.310	709.470
180.140	14.235	937.044	708.753
181.154	14.427	936.400	709.019
182.169	14.448	935.683	708.503
183.183	14.515	935.029	708.230
184.198	14.504	934.215	707.505
185.213	14.442	933.431	706.584
186.227	14.545	932.825	706.502
187.242	14.551	932.473	706.195
188.256	14.534	931.783	705.541
189.271	14.588	930.892	705.030
190.286	14.378	930.526	703.805
191.300	14.344	929.407	702.753
192.315	14.317	929.123	702.360
193.329	14.513	928.284	702.492
194.344	14.463	927.707	701.783
195.359	14.560	926.658	701.335
196.373	14.576	926.273	701.045
197.388	14.541	926.274	700.841
198.402	14.592	925.641	700.514
199.417	14.765	924.510	700.321
200.432	14.779	923.859	699.823
201.446	14.710	923.903	699.505
202.461	14.752	923.353	699.203
203.475	14.796	922.428	698.626
204.490	14.661	921.952	697.636
205.504	14.638	921.042	696.793
206.519	14.667	920.025	696.082
207.534	14.697	919.533	695.773
208.548	14.790	918.965	695.667
209.563	14.818	918.379	695.280
210.577	14.769	917.806	694.580
211.592	14.871	917.111	694.419
212.607	14.844	916.473	693.762
213.621	14.954	915.374	693.325
214.636	14.877	914.663	692.407
215.650	14.944	914.018	692.134
216.665	14.944	913.565	691.726
217.680	14.989	912.402	690.972
218.694	14.941	911.907	690.338
219.709	14.956	911.421	689.972
220.723	15.013	910.651	689.564
221.738	14.919	910.045	688.654
222.753	15.042	909.354	688.578
223.767	14.967	908.779	687.773
224.782	14.930	908.342	687.231
225.796	14.973	908.000	687.086
226.811	14.999	907.150	686.489
227.826	14.949	906.219	685.518
228.840	14.986	905.816	685.306
229.855	15.069	904.647	684.697
230.869	15.115	903.559	684.005
231.884	14.957	903.414	683.188
232.899	14.952	902.447	682.375
233.913	15.012	901.986	682.211
234.928	14.993	900.936	681.281
235.942	15.085	900.497	681.261
236.957	15.071	900.052	680.807
237.972	15.009	899.873	680.359
238.986	14.977	899.216	679.673
240.001	14.982	898.400	679.016
241.015	15.155	897.573	679.031
242.030	15.169	896.942	678.550
243.045	15.259	896.286	678.361
244.059	15.142	896.065	677.657
245.074	15.180	895.139	677.052
246.088	15.252	894.157	676.540
247.103	15.359	893.362	676.310
248.117	15.254	893.266	675.755
249.132	15.477	892.470	675.992
250.147	15.552	891.701	675.650
251.161	15.524	891.453	675.290
252.176	15.558	890.874	674.929
253.190	15.510	889.793	673.857
254.205	15.541	889.312	673.556
255.220	15.541	888.530	672.906
256.234	15.515	888.197	672.488
257.249	15.460	887.451	671.645
258.263	15.415	886.773	670.894
259.278	15.579	886.142	671.011
260.293	15.507	885.539	670.208
261.307	15.712	884.928	670.505
262.322	15.645	884.520	669.868
263.336	15.703	883.935	669.594
264.351	15.591	883.109	668.466
265.366	15.717	882.585	668.513
266.380	15.795	881.618	668.028
267.395	15.746	880.670	667.056
268.409	15.649	880.258	666.303
269.424	15.810	879.237	666.109
270.439	15.745	878.800	665.461
271.453	15.777	877.831	664.793
272.468	15.682	877.379	664.018
273.482	15.768	876.734	663.812
274.497	15.742	876.402	663.397
275.512	15.791	875.984	663.214
276.526	15.771	875.360	662.605
277.541	15.882	874.731	662.506
278.555	15.919	874.253	662.233
279.570	15.858	873.529	661.387
280.585	15.966	872.466	660.945
281.599	15.912	871.942	660.279
282.614	15.991	871.256	660.013
283.628	15.981	870.646	659.450
284.643	15.891	870.303	658.782
285.657	16.005	869.607	658.643
286.672	16.073	868.425	657.955
287.687	15.894	868.461	657.223
288.701	16.005	867.770	657.076
289.716	16.072	867.301	656.925
290.730	16.090	866.531	656.354
291.745	16.106	866.136	656.055
292.760	16.196	865.248	655.678
293.774	16.300	864.718	655.619
294.789	16.195	863.912	654.544
295.803	16.056	863.462	653.607
296.818	16.035	862.806	652.972
297.833	16.140	862.058	652.755
298.847	16.201	861.263	652.328
299.862	16.221	860.707	651.926
300.876	16.243	860.451	651.761
301.891	16.195	859.745	650.982
302.906	16.255	859.182	650.731
303.920	16.390	858.613	650.764
304.935	16.371	857.795	650.011
305.949	16.399	857.157	649.578
306.964	16.497	856.739	649.580
307.979	16.434	856.070	648.774
308.993	16.352	855.608	648.053
310.008	16.407	854.721	647.534
311.022	16.474	854.420	647.504
312.037	16.525	853.528	646.966
313.052	16.419	853.417	646.419
314.066	16.276	853.176	645.632
315.081	16.301	852.344	645.041
316.095	16.419	851.740	644.978
317.110	16.303	851.293	644.142
318.125	16.430	850.773	644.172
319.139	16.530	850.057	643.954
320.154	16.414	849.934	643.365
321.168	16.453	848.869	642.649
322.183	16.666	847.818	642.605
323.197	16.498	847.672	641.802
324.212	16.463	847.414	641.414
325.227	16.591	846.801	641.380
326.241	16.593	846.391	641.021
327.256	16.602	845.634	640.424
328.270	16.590	844.984	639.829
329.285	16.519	844.398	639.062
330.300	16.596	843.790	638.837
331.314	16.615	843.114	638.339
332.329	16.677	842.684	638.192
333.343	16.613	842.539	637.783
334.358	16.625	842.439	637.695
335.373	16.730	841.583	637.387
336.387	16.763	841.280	637.226
337.402	16.749	841.213	637.067
338.416	16.627	841.059	636.434
339.431	16.730	840.260	636.158
340.446	16.971	839.526	636.453
341.460	16.754	839.699	635.712
342.475	16.816	839.008	635.366
343.489	16.917	838.836	635.557
344.504	17.021	838.204	635.413
345.519	16.850	837.978	634.546
346.533	17.011	837.092	634.420
347.548	16.927	836.402	633.526
348.562	16.968	835.771	633.144
349.577	17.039	834.914	632.706
350.592	16.991	834.953	632.500
351.606	16.838	834.183	631.289
352.621	17.006	833.194	631.110
353.635	16.992	833.092	630.924
354.650	16.949	832.676	630.396
355.665	17.109	831.468	630.018
356.679	17.025	830.822	629.163
357.694	16.982	830.611	628.788
358.708	17.081	829.823	628.500
359.723	17.143	829.240	628.233
360.738	17.108	828.875	627.770
361.752	16.987	828.269	626.811
362.767	17.230	827.341	626.950
363.781	17.272	826.865	626.689
364.796	17.291	826.455	626.390
365.810	17.336	826.000	626.157
366.825	17.232	825.947	625.677
367.840	17.260	825.262	625.208
368.854	17.272	824.906	624.927
369.869	17.245	824.673	624.594
370.883	17.355	823.963	624.406
371.898	17.329	823.583	623.969
372.913	17.413	823.448	624.118
373.927	17.461	822.597	623.593
374.942	17.455	822.211	623.223
375.956	17.517	821.994	623.232
376.971	17.642	821.191	623.023
377.986	17.561	820.828	622.399
379.000	17.585	820.532	622.206
380.015	17.624	819.912	621.824
381.029	17.638	819.322	621.373
382.044	17.521	818.964	620.619
383.059	17.581	818.356	620.320
384.073	17.716	817.368	620.008
385.088	17.626	817.063	619.396
386.102	17.616	816.965	619.231
387.117	17.534	816.082	618.209
388.132	17.556	815.480	617.776
389.146	17.670	814.996	617.768
390.161	17.709	814.448	617.440
391.175	17.733	814.067	617.182
392.190	17.761	813.029	616.445
393.205	17.763	812.705	616.152
394.219	17.760	812.601	616.005
395.234	17.612	812.261	615.161
396.248	17.775	812.036	615.524
397.263	17.648	811.712	614.766
398.278	17.680	811.101	614.362
399.292	17.682	810.851	614.127
400.307	17.705	810.102	613.587
401.321	17.807	809.341	613.325
402.336	17.804	809.058	613.044
403.350	17.802	808.811	612.797
404.365	17.857	808.476	612.684
405.380	17.855	807.540	611.916
406.394	17.997	806.949	611.921
407.409	17.889	806.971	611.498
408.423	17.969	806.547	611.409
409.438	18.126	806.146	611.613
410.453	17.957	805.701	610.616
411.467	17.931	805.271	610.144
412.482	17.988	804.960	610.056
413.496	18.190	804.505	610.379
414.511	18.270	804.038	610.254
415.526	18.101	803.704	609.344
416.540	18.048	803.420	608.888
417.555	18.115	802.683	608.515
418.569	18.060	802.419	608.062
419.584	18.187	801.991	608.138
420.599	18.244	801.562	607.961
421.613	105.515	1284.336	1442.203
422.628	90.753	1354.677	1442.310
