DTS Sentinel unit serial number:	SN413079Multiplexer serial number:	ORYXHardware model number:	OX4-SRSoftware version number:	ORYX F/W v4.00 Oryx Data Collector v3.7.2.0data status	okinstallation	princeton_trtdifferential loss correction	single-endedforward channel	channel 1reverse channel	N/Adate	2019/09/16time	01:54:35forward acquisition time	60.00reverse acquisition time	0.00gamma	496.2192k internal	0.2333k external	0.2333temperature offset calibration	0.9975default loss term (dB/km)	0.3790temperature slope calibration	1.0000multiplexer offset coefficient	1.0000multiplexer slope coefficient	1.0000fibre end	0.00T internal ref (°C)	27.41T ext. ref 1 (°C)	10.05T ext. ref 2 (°C)	22.32length (m)	temperature (°C)	Stokes	anti-Stokes-747.200	86.114	0.288	-0.319
-746.185	448.513	-0.193	0.427
-745.171	102.321	0.084	-0.099
-744.156	72.923	-0.160	-0.168
-743.142	-90.313	0.428	0.125
-742.127	800.000	0.078	0.230
-741.112	18.319	-0.152	0.122
-740.098	225.682	-0.121	0.198
-739.083	269.058	-0.113	0.200
-738.069	-17.782	0.156	-0.099
-737.054	315.410	-0.148	-0.280
-736.039	-67.781	-0.008	0.003
-735.025	154.992	-0.057	-0.079
-734.010	-8.346	-0.088	-0.060
-732.996	-0.056	0.029	-0.021
-731.981	-63.327	-0.183	0.076
-730.966	-200.000	-0.070	-0.403
-729.952	-75.639	-0.144	0.052
-728.937	-151.181	0.134	0.010
-727.923	-200.000	0.067	0.303
-726.908	-73.202	-0.311	-0.114
-725.894	665.534	-0.138	0.357
-724.879	-130.730	0.109	0.015
-723.864	28.484	0.222	-0.188
-722.850	340.710	0.155	-0.305
-721.835	96.181	-0.247	-0.283
-720.821	-4.619	-0.239	-0.166
-719.806	-200.000	-0.022	0.182
-718.791	-40.772	-0.080	-0.042
-717.777	-25.436	0.292	-0.173
-716.762	26.000	-0.091	-0.076
-715.748	-105.943	0.143	-0.032
-714.733	800.000	-0.105	-0.339
-713.718	-200.000	0.007	-0.202
-712.704	8.154	-0.094	0.071
-711.689	-59.575	-0.068	-0.029
-710.675	-200.000	-0.020	-0.140
-709.660	-22.900	0.161	-0.098
-708.645	126.764	0.069	-0.088
-707.631	11.972	-0.207	0.160
-706.616	139.021	0.164	0.217
-705.602	324.896	0.105	0.202
-704.587	678.731	-0.033	0.086
-703.572	-41.258	0.381	-0.197
-702.558	-200.000	-0.006	-0.181
-701.543	-200.000	0.035	-0.183
-700.529	52.242	-0.264	-0.253
-699.514	252.282	-0.145	0.248
-698.499	800.000	0.033	-0.112
-697.485	326.587	0.135	-0.260
-696.470	-174.793	0.235	-0.007
-695.456	-96.854	-0.125	-0.033
-694.441	-8.449	0.086	0.058
-693.426	-33.460	-0.376	-0.209
-692.412	800.000	0.113	0.347
-691.397	-200.000	-0.000	-0.136
-690.383	-200.000	0.010	-0.447
-689.368	-137.610	-0.439	-0.050
-688.354	119.487	0.163	0.202
-687.339	-102.182	-0.353	0.085
-686.324	-200.000	0.059	-0.310
-685.310	191.711	0.096	0.145
-684.295	-175.245	0.189	0.005
-683.281	-142.293	-0.070	0.007
-682.266	-171.149	0.170	-0.006
-681.251	-36.352	-0.133	-0.072
-680.237	-118.711	0.508	-0.090
-679.222	177.687	-0.058	-0.085
-678.208	-79.339	0.149	-0.051
-677.193	-90.464	-0.268	0.078
-676.178	-119.691	0.169	0.029
-675.164	-200.000	-0.029	-0.246
-674.149	800.000	-0.061	-0.260
-673.135	-23.851	-0.332	-0.199
-672.120	37.664	-0.048	0.043
-671.105	-200.000	0.011	0.169
-670.091	-200.000	0.015	0.154
-669.076	-105.637	0.296	-0.067
-668.062	-37.655	-0.273	-0.146
-667.047	-200.000	-0.035	-0.368
-666.032	-131.129	-0.262	-0.035
-665.018	-11.186	0.138	0.091
-664.003	-200.000	-0.052	-0.228
-662.989	9.824	0.096	-0.073
-661.974	124.211	0.073	-0.092
-660.959	800.000	-0.026	0.094
-659.945	677.152	-0.036	-0.093
-658.930	-47.641	-0.182	-0.088
-657.916	57.801	0.115	0.113
-656.901	-200.000	-0.013	0.144
-655.886	-112.674	0.260	-0.052
-654.872	-73.699	-0.297	-0.108
-653.857	305.656	-0.036	-0.068
-652.843	-96.315	0.070	-0.019
-651.828	60.171	0.171	-0.169
-650.814	-100.523	-0.395	0.098
-649.799	-200.000	0.027	0.352
-648.784	10.372	0.312	0.238
-647.770	-127.074	0.331	0.049
-646.755	307.249	0.131	-0.244
-645.741	4.532	-0.188	0.138
-644.726	-173.427	0.061	0.002
-643.711	-53.621	0.047	0.022
-642.697	-200.000	0.014	-0.128
-641.682	-85.787	-0.251	-0.078
-640.668	126.612	0.242	0.307
-639.653	-162.863	0.296	0.014
-638.638	-114.076	-0.349	0.068
-637.624	-107.537	-0.145	0.032
-636.609	82.968	0.166	-0.180
-635.595	54.858	0.194	-0.187
-634.580	20.379	0.026	-0.021
-633.565	-9.203	0.103	0.069
-632.551	-75.860	-0.447	0.159
-631.536	-200.000	-0.036	-0.160
-630.522	800.000	-0.018	0.059
-629.507	-53.884	0.144	0.066
-628.492	-54.846	0.308	-0.139
-627.478	20.065	0.204	0.164
-626.463	-73.740	-0.280	0.102
-625.449	-125.326	0.128	-0.020
-624.434	-120.520	-0.306	-0.052
-623.419	318.907	0.129	-0.246
-622.405	800.000	0.090	-0.331
-621.390	-6.376	0.093	0.063
-620.376	542.598	-0.053	0.126
-619.361	-15.228	0.060	0.039
-618.346	6.014	0.067	-0.049
-617.332	7.034	0.035	-0.026
-616.317	90.418	0.061	-0.069
-615.303	-146.683	-0.207	-0.018
-614.288	235.482	-0.055	-0.090
-613.273	92.933	-0.221	-0.250
-612.259	71.451	-0.273	-0.284
-611.244	110.731	0.068	0.081
-610.230	616.214	-0.106	-0.267
-609.215	-34.240	0.252	0.138
-608.201	108.507	0.253	0.302
-607.186	4.276	-0.188	-0.138
-606.171	-200.000	-0.020	-0.176
-605.157	-52.821	0.121	0.056
-604.142	422.809	-0.082	-0.177
-603.128	-23.050	-0.123	-0.074
-602.113	-200.000	0.135	0.000
-601.098	97.228	0.065	0.075
-600.084	12.367	0.117	0.090
-599.069	101.458	0.150	-0.175
-598.055	-105.285	-0.308	-0.070
-597.040	-96.442	-0.261	-0.069
-596.025	800.000	0.038	-0.125
-595.011	187.063	-0.284	-0.423
-593.996	800.000	-0.078	0.253
-592.982	670.786	-0.044	0.113
-591.967	119.497	0.139	-0.172
-590.952	-200.000	-0.007	0.097
-589.938	800.000	0.069	0.195
-588.923	-200.000	-0.018	0.281
-587.909	-87.947	-0.277	-0.083
-586.894	-200.000	0.007	-0.259
-585.879	-90.868	-0.300	0.086
-584.865	-200.000	-0.019	-0.145
-583.850	-154.063	0.078	-0.005
-582.836	-200.000	0.082	0.466
-581.821	149.233	-0.185	-0.250
-580.806	638.208	0.092	0.233
-579.792	-34.641	-0.185	0.101
-578.777	-19.323	-0.227	0.141
-577.763	212.733	-0.090	-0.143
-576.748	-122.197	-0.266	0.044
-575.733	-200.000	-0.079	0.408
-574.719	158.625	0.063	-0.087
-573.704	-146.022	0.303	0.027
-572.690	2.499	-0.429	-0.310
-571.675	-129.997	0.263	-0.036
-570.661	-28.893	-0.173	-0.100
-569.646	469.525	-0.056	0.126
-568.631	62.879	0.172	-0.172
-567.617	-200.000	-0.022	0.142
-566.602	199.873	0.161	0.247
-565.588	109.592	0.108	0.130
-564.573	226.100	0.049	0.080
-563.558	-129.229	-0.242	-0.034
-562.544	-200.000	0.035	-0.435
-561.529	-43.493	-0.033	0.016
-560.515	61.037	-0.310	0.308
-559.500	79.393	0.291	-0.311
-558.485	99.087	0.245	-0.283
-557.471	-36.988	-0.114	-0.061
-556.456	-147.145	-0.413	0.035
-555.442	-86.490	-0.077	-0.024
-554.427	-60.594	-0.167	0.071
-553.412	-139.105	-0.258	0.028
-552.398	239.871	0.062	-0.104
-551.383	309.334	-0.248	0.462
-550.369	-144.340	-0.205	0.019
-549.354	256.182	-0.074	-0.126
-548.339	-200.000	0.023	0.423
-547.325	-164.215	-0.231	-0.011
-546.310	192.810	0.291	0.438
-545.296	800.000	0.100	-0.313
-544.281	72.409	-0.031	0.033
-543.266	800.000	-0.056	0.177
-542.252	-50.631	0.360	0.169
-541.237	490.996	0.089	-0.204
-540.223	-131.343	-0.182	-0.024
-539.208	-200.000	-0.047	-0.231
-538.193	168.849	-0.100	0.143
-537.179	646.700	-0.148	-0.377
-536.164	240.779	0.130	0.216
-535.150	-45.573	-0.099	-0.049
-534.135	-119.320	0.014	0.002
-533.121	-115.820	0.296	-0.055
-532.106	179.239	-0.076	0.111
-531.091	-200.000	-0.019	-0.138
-530.077	800.000	-0.027	0.104
-529.062	-138.911	-0.139	-0.015
-528.048	800.000	0.108	0.344
-527.033	-114.479	-0.034	0.006
-526.018	-40.679	-0.201	0.104
-525.004	213.197	-0.052	0.082
-523.989	-200.000	-0.009	-0.116
-522.975	-99.360	0.193	0.048
-521.960	-200.000	-0.032	0.158
-520.945	16.421	0.165	0.130
-519.931	-21.388	-0.462	0.281
-518.916	-22.896	-0.345	0.207
-517.902	-200.000	-0.012	0.057
-516.887	-103.281	0.090	-0.021
-515.872	-169.223	0.190	0.007
-514.858	-141.759	0.115	-0.011
-513.843	5.693	0.261	-0.192
-512.829	119.681	-0.209	0.259
-511.814	800.000	-0.088	-0.269
-510.799	-200.000	-0.005	-0.076
-509.785	-74.172	0.334	0.120
-508.770	800.000	0.020	-0.078
-507.756	-189.081	0.134	-0.002
-506.741	516.459	-0.018	0.041
-505.726	-200.000	-0.029	0.265
-504.712	181.113	0.099	0.145
-503.697	-137.969	-0.072	0.008
-502.683	20.498	0.132	-0.107
-501.668	110.017	-0.316	0.378
-500.653	-200.000	-0.010	0.453
-499.639	-102.846	-0.157	-0.037
-498.624	514.031	0.064	-0.149
-497.610	220.264	-0.039	0.063
-496.595	66.181	-0.164	-0.166
-495.581	63.948	-0.371	0.372
-494.566	175.805	0.160	-0.231
-493.551	279.912	0.146	0.260
-492.537	421.832	0.064	-0.136
-491.522	354.516	0.120	-0.237
-490.508	-26.189	-0.145	0.085
-489.493	-200.000	-0.438	0.000
-488.478	135.149	0.171	-0.222
-487.464	5.308	-0.231	-0.169
-486.449	-200.000	0.007	0.235
-485.435	47.411	-0.087	0.081
-484.420	-200.000	-0.012	0.172
-483.405	-135.298	-0.016	0.002
-482.391	-123.050	-0.250	0.040
-481.376	64.112	0.276	0.277
-480.362	800.000	0.087	-0.244
-479.347	-200.000	-0.073	-0.347
-478.332	238.547	-0.131	-0.216
-477.318	20.918	0.201	-0.162
-476.303	1.887	-0.118	0.085
-475.289	-66.954	-0.095	0.037
-474.274	6.433	0.128	0.095
-473.259	-144.071	-0.241	-0.023
-472.245	284.369	0.069	-0.123
-471.230	-118.263	0.011	-0.002
-470.216	-55.524	-0.103	0.046
-469.201	218.768	0.071	0.114
-468.186	50.505	-0.233	0.219
-467.172	772.177	-0.119	0.324
-466.157	218.105	0.234	0.371
-465.143	-57.582	-0.154	0.067
-464.128	-161.671	-0.185	0.009
-463.113	104.234	0.277	-0.324
-462.099	-200.000	0.030	0.244
-461.084	800.000	-0.075	-0.237
-460.070	-200.000	0.019	0.095
-459.055	23.794	-0.404	0.331
-458.040	-200.000	0.012	0.162
-457.026	193.555	-0.146	-0.219
-456.011	281.983	0.049	0.088
-454.997	-200.000	0.009	0.155
-453.982	-200.000	-0.035	-0.181
-452.968	18.580	0.038	-0.030
-451.953	800.000	0.040	0.119
-450.938	235.155	-0.148	0.242
-449.924	-200.000	-0.032	0.231
-448.909	-189.667	-0.231	-0.003
-447.895	-200.000	-0.002	-0.019
-446.880	-82.586	-0.143	0.046
-445.865	326.073	-0.072	-0.136
-444.851	-200.000	-0.051	-0.311
-443.836	114.866	-0.155	-0.188
-442.822	800.000	-0.075	-0.227
-441.807	537.877	-0.053	-0.124
-440.792	-161.009	0.227	-0.012
-439.778	-200.000	0.005	-0.151
-438.763	103.565	0.157	-0.184
-437.749	-8.973	0.136	0.090
-436.734	-38.192	-0.276	-0.145
-435.719	-95.517	-0.180	-0.048
-434.705	800.000	0.063	0.194
-433.690	228.259	0.146	0.236
-432.676	800.000	-0.031	0.094
-431.661	-200.000	-0.022	-0.375
-430.646	-200.000	-0.020	-0.211
-429.632	-76.618	-0.138	-0.048
-428.617	800.000	-0.083	-0.356
-427.603	-200.000	0.036	0.276
-426.588	-200.000	0.022	0.192
-425.573	-136.108	-0.137	0.016
-424.559	112.392	-0.113	-0.136
-423.544	-105.132	0.295	-0.067
-422.530	16.446	-0.473	-0.371
-421.515	35.137	-0.077	-0.067
-420.500	-23.052	0.016	0.010
-419.486	-200.000	0.030	-0.146
-418.471	-172.618	-0.423	0.013
-417.457	-57.806	0.169	0.074
-416.442	689.225	-0.088	0.228
-415.428	413.759	0.016	-0.033
-414.413	-23.063	-0.145	-0.087
-413.398	-158.707	0.345	-0.020
-412.384	108.723	0.139	-0.165
-411.369	-200.000	0.031	0.243
-410.355	-184.955	0.282	-0.004
-409.340	-200.000	-0.001	0.097
-408.325	800.000	-0.020	-0.059
-407.311	-20.785	-0.281	0.171
-406.296	-125.215	0.132	-0.020
-405.282	-200.000	-0.036	0.164
-404.267	265.410	-0.088	0.153
-403.252	29.602	0.148	0.125
-402.238	-200.000	0.048	-0.485
-401.223	-111.915	0.153	-0.031
-400.209	19.432	0.308	0.245
-399.194	-156.924	-0.472	-0.029
-398.179	41.492	0.154	-0.138
-397.165	-122.653	-0.430	-0.069
-396.150	800.000	0.031	0.104
-395.136	373.871	0.108	0.219
-394.121	402.166	-0.060	-0.125
-393.106	-22.937	-0.202	-0.121
-392.092	76.133	0.094	-0.098
-391.077	-64.760	-0.103	-0.041
-390.063	57.451	-0.145	0.141
-389.048	-52.992	-0.060	-0.027
-388.033	-2.979	0.249	0.172
-387.019	-86.841	-0.180	0.055
-386.004	800.000	0.026	0.112
-384.990	-81.443	-0.258	0.084
-383.975	95.034	-0.070	-0.079
-382.960	-200.000	0.018	0.129
-381.946	-68.548	-0.184	0.071
-380.931	247.513	0.148	-0.247
-379.917	123.519	-0.065	-0.080
-378.902	-52.793	-0.059	0.027
-377.888	39.114	0.079	0.070
-376.873	157.567	-0.075	-0.103
-375.858	195.419	0.075	0.113
-374.844	-163.240	-0.239	0.011
-373.829	-182.377	-0.082	0.002
-372.815	18.439	0.137	0.109
-371.800	-18.364	-0.222	0.137
-370.785	800.000	-0.055	0.225
-369.771	-17.710	-0.137	0.085
-368.756	53.591	0.037	0.036
-367.742	-43.332	0.130	0.065
-366.727	182.651	-0.158	-0.232
-365.712	-200.000	-0.033	-0.338
-364.698	450.862	0.056	-0.122
-363.683	-20.017	0.165	0.101
-362.669	546.086	0.104	-0.247
-361.654	0.292	-0.154	-0.109
-360.639	-200.000	0.084	0.448
-359.625	-116.309	-0.192	-0.035
-358.610	800.000	0.074	-0.279
-357.596	-106.088	-0.316	-0.070
-356.581	-80.917	0.348	0.114
-355.566	91.064	-0.213	-0.237
-354.552	223.876	-0.145	0.233
-353.537	44.937	0.319	0.291
-352.523	13.424	0.140	0.107
-351.508	-200.000	0.018	-0.111
-350.493	-51.531	-0.217	-0.101
-349.479	14.258	0.120	0.092
-348.464	800.000	-0.032	-0.104
-347.450	554.885	0.083	-0.198
-346.435	-146.022	0.186	-0.016
-345.420	-200.000	-0.005	-0.116
-344.406	134.430	0.183	-0.234
-343.391	-93.517	0.162	0.044
-342.377	7.104	-0.150	-0.110
-341.362	-41.639	0.258	0.131
-340.348	-200.000	0.011	0.048
-339.333	52.326	0.260	-0.245
-338.318	-200.000	-0.013	0.161
-337.304	23.921	0.191	0.156
-336.289	-160.895	0.530	-0.028
-335.275	160.475	0.103	0.142
-334.260	-58.097	-0.226	-0.097
-333.245	-200.000	-0.006	-0.146
-332.231	-200.000	0.015	0.166
-331.216	-25.764	0.080	-0.047
-330.202	147.271	-0.113	0.150
-329.187	800.000	0.068	0.223
-328.172	743.222	0.028	-0.075
-327.158	-176.721	-0.187	-0.005
-326.143	-13.829	0.224	0.143
-325.129	-81.592	0.383	-0.124
-324.114	71.124	0.148	0.152
-323.099	175.006	-0.201	0.288
-322.085	-134.758	-0.146	-0.018
-321.070	-57.456	0.231	-0.100
-320.056	631.417	0.101	-0.252
-319.041	-130.811	-0.288	-0.038
-318.026	261.425	0.124	-0.213
-317.012	-101.402	-0.215	0.052
-315.997	172.542	-0.078	-0.111
-314.983	-200.000	-0.013	0.088
-313.968	-86.180	0.399	0.122
-312.953	178.236	0.164	0.237
-311.939	-95.055	-0.166	-0.044
-310.924	422.715	0.100	-0.212
-309.910	-200.000	-0.046	0.297
-308.895	185.685	0.198	-0.290
-307.880	-200.000	-0.020	-0.193
-306.866	-64.869	-0.242	-0.097
-305.851	24.332	0.145	-0.118
-304.837	-200.000	-0.004	0.060
-303.822	-200.000	-0.046	-0.220
-302.807	167.617	0.035	0.049
-301.793	-99.810	-0.044	0.011
-300.778	-200.000	0.004	-0.327
-299.764	52.372	-0.023	-0.021
-298.749	-98.125	0.243	-0.062
-297.735	-50.636	-0.387	-0.180
-296.720	63.209	0.163	-0.161
-295.705	638.619	-0.077	-0.194
-294.691	-48.182	-0.127	0.061
-293.676	800.000	0.056	-0.198
-292.662	-200.000	-0.025	-0.315
-291.647	89.225	-0.142	-0.156
-290.632	-47.657	0.270	0.129
-289.618	33.810	0.120	-0.103
-288.603	-96.545	-0.134	-0.035
-287.589	123.245	0.115	0.142
-286.574	-200.000	0.001	0.006
-285.559	-161.462	0.497	-0.025
-284.545	139.962	0.085	0.111
-283.530	27.748	-0.103	-0.086
-282.516	-200.000	-0.000	-0.117
-281.501	88.235	0.271	-0.297
-280.486	-178.755	-0.341	-0.008
-279.472	20.719	0.236	-0.189
-278.457	-37.046	-0.084	0.044
-277.443	95.386	-0.039	-0.044
-276.428	800.000	-0.020	-0.067
-275.413	643.580	0.032	-0.080
-274.399	101.926	0.293	0.338
-273.384	699.405	-0.006	-0.016
-272.370	-200.000	-0.038	-0.172
-271.355	-176.956	0.224	0.006
-270.340	-29.917	-0.203	-0.114
-269.326	-200.000	0.031	0.137
-268.311	-61.425	0.160	-0.066
-267.297	64.541	0.160	0.159
-266.282	-97.362	0.113	0.029
-265.267	55.917	0.109	-0.105
-264.253	59.527	0.039	0.038
-263.238	233.853	0.128	0.209
-262.224	-200.000	-0.026	-0.130
-261.209	152.271	0.120	0.162
-260.195	3.028	-0.104	0.075
-259.180	-82.005	0.170	-0.055
-258.165	-200.000	0.033	0.209
-257.151	800.000	-0.092	0.348
-256.136	367.241	-0.162	-0.322
-255.122	-86.330	-0.280	0.085
-254.107	578.005	-0.131	0.316
-253.092	233.364	0.028	-0.045
-252.078	409.741	-0.081	-0.170
-251.063	-124.816	0.188	-0.029
-250.049	154.138	0.234	-0.317
-249.034	800.000	0.045	-0.146
-248.019	97.810	0.152	0.173
-247.005	-16.624	-0.124	-0.078
-245.990	800.000	-0.060	-0.200
-244.976	7.968	0.070	-0.052
-243.961	81.929	0.055	-0.059
-242.946	21.587	-0.251	0.202
-241.932	69.724	0.176	-0.179
-240.917	156.908	0.097	-0.132
-239.903	-145.386	-0.312	-0.028
-238.888	-200.000	0.009	-0.124
-237.873	800.000	0.031	-0.116
-236.859	198.911	-0.056	-0.084
-235.844	166.166	-0.085	-0.118
-234.830	564.696	0.087	-0.208
-233.815	360.434	0.050	-0.098
-232.800	-200.000	-0.019	0.214
-231.786	539.773	0.026	0.060
-230.771	-200.000	0.006	-0.360
-229.757	516.375	-0.099	-0.229
-228.742	77.173	0.239	0.250
-227.727	441.010	0.075	-0.161
-226.713	-57.443	0.136	-0.059
-225.698	800.000	0.099	-0.274
-224.684	-25.347	-0.266	-0.155
-223.669	122.150	-0.101	0.124
-222.655	215.335	0.197	-0.308
-221.640	292.124	-0.064	-0.115
-220.625	-200.000	0.006	0.032
-219.611	-54.904	0.133	0.059
-218.596	38.607	-0.196	0.172
-217.582	-50.837	0.383	0.177
-216.567	113.226	0.058	0.069
-215.552	394.736	-0.079	-0.162
-214.538	-106.219	0.308	-0.068
-213.523	-200.000	-0.056	-0.267
-212.509	0.143	-0.204	0.143
-211.494	800.000	-0.050	0.203
-210.479	43.600	0.294	0.265
-209.465	45.138	0.208	0.188
-208.450	-82.598	0.344	0.110
-207.436	76.098	-0.218	-0.228
-206.421	22.750	-0.268	0.216
-205.406	74.369	0.147	-0.152
-204.392	800.000	-0.060	0.192
-203.377	16.888	0.399	0.311
-202.363	-93.888	-0.231	-0.063
-201.348	776.907	-0.061	0.163
-200.333	171.306	-0.173	0.245
-199.319	-135.603	0.119	0.014
-198.304	120.662	0.101	-0.124
-197.290	-71.967	0.254	0.093
-196.275	-104.597	0.481	0.109
-195.260	618.509	-0.086	-0.212
-194.246	-69.570	0.162	-0.061
-193.231	-61.381	0.180	0.074
-192.217	330.421	0.064	0.121
-191.202	-46.364	-0.453	0.219
-190.187	-200.000	-0.033	-0.162
-189.173	800.000	0.043	-0.149
-188.158	-45.499	0.101	-0.049
-187.144	800.000	-0.066	-0.180
-186.129	-200.000	0.008	0.299
-185.114	9.899	-0.206	0.154
-184.100	-200.000	-0.060	0.340
-183.085	35.231	0.316	-0.272
-182.071	50.426	0.305	-0.283
-181.056	-200.000	-0.028	0.186
-180.042	165.926	-0.079	0.110
-179.027	-15.615	-0.062	-0.039
-178.012	-200.000	-0.064	0.279
-176.998	11.130	0.110	0.083
-175.983	581.172	0.057	-0.137
-174.969	-110.413	0.193	0.039
-173.954	800.000	-0.101	0.289
-172.939	175.628	-0.062	0.089
-171.925	-147.162	0.089	0.007
-170.910	240.981	0.129	-0.212
-169.896	565.900	0.149	0.356
-168.881	-144.738	0.505	-0.046
-167.866	-113.639	-0.102	0.020
-166.852	-117.379	-0.078	0.014
-165.837	-16.145	0.035	-0.022
-164.823	118.667	0.152	0.184
-163.808	-86.757	0.302	-0.091
-162.793	-200.000	-0.060	0.266
-161.779	-175.364	-0.333	0.009
-160.764	53.988	-0.188	0.177
-159.750	109.666	-0.113	-0.133
-158.735	129.545	-0.096	-0.120
-157.720	168.668	0.125	-0.175
-156.706	-152.481	0.270	0.019
-155.691	103.444	-0.236	-0.272
-154.677	-175.023	0.293	0.008
-153.662	-68.122	-0.205	-0.079
-152.647	-19.363	0.246	0.150
-151.633	-120.451	-0.279	0.047
-150.618	69.113	0.159	0.161
-149.604	114.115	0.076	0.090
-148.589	187.984	-0.075	-0.110
-147.574	-200.000	0.029	0.212
-146.560	-200.000	0.008	0.301
-145.545	-200.000	0.019	0.130
-144.531	-200.000	-0.013	0.171
-143.516	-200.000	0.050	-0.314
-142.502	-9.027	0.056	-0.037
-141.487	-116.755	-0.381	0.069
-140.472	537.016	0.137	-0.319
-139.458	71.423	-0.116	0.119
-138.443	-200.000	0.035	-0.257
-137.429	-154.741	0.388	0.025
-136.414	-200.000	0.016	0.072
-135.399	4.860	-0.229	0.166
-134.385	97.325	0.267	0.301
-133.370	56.844	-0.033	-0.032
-132.356	800.000	-0.062	0.195
-131.341	-79.930	0.249	0.082
-130.326	800.000	0.050	0.150
-129.312	800.000	0.040	-0.133
-128.297	159.174	0.146	-0.200
-127.283	47.070	-0.176	-0.161
-126.268	-187.074	-0.156	0.002
-125.253	-40.702	-0.347	-0.176
-124.239	-200.000	-0.035	-0.176
-123.224	314.600	-0.104	0.192
-122.210	669.302	0.029	0.074
-121.195	-1.163	0.109	-0.076
-120.180	-116.058	0.287	-0.052
-119.166	-20.124	-0.059	0.036
-118.151	-80.561	0.116	-0.038
-117.137	-74.135	-0.260	-0.092
-116.122	19.926	0.118	-0.093
-115.107	-150.448	0.271	0.020
-114.093	351.465	-0.208	0.403
-113.078	260.791	-0.123	0.210
-112.064	167.772	0.007	-0.009
-111.049	24.928	-0.087	-0.071
-110.034	800.000	-0.017	0.051
-109.020	62.437	0.267	0.262
-108.005	800.000	-0.123	-0.363
-106.991	285.987	-0.131	0.231
-105.976	-3.594	-0.103	-0.070
-104.962	419.915	0.074	0.155
-103.947	-151.328	0.202	-0.015
-102.932	-42.399	-0.164	-0.082
-101.918	-81.655	0.173	0.056
-100.903	-71.416	0.275	0.101
-99.889	-83.368	-0.252	0.079
-98.874	85.970	-0.096	0.104
-97.859	-37.244	-0.106	-0.056
-96.845	800.000	-0.112	0.422
-95.830	-94.810	0.130	-0.035
-94.816	45.955	-0.264	-0.239
-93.801	-80.410	0.122	-0.040
-92.786	-200.000	0.004	0.046
-91.772	5.705	-0.097	-0.070
-90.757	-200.000	0.019	0.216
-89.743	-200.000	0.017	-0.144
-88.728	-73.076	-0.018	-0.006
-87.713	214.976	0.127	0.197
-86.699	-120.693	0.074	0.012
-85.684	31.382	0.197	-0.166
-84.670	409.026	0.118	-0.246
-83.655	800.000	-0.067	-0.182
-82.640	257.865	-0.145	0.244
-81.626	800.000	-0.142	0.434
-80.611	800.000	0.046	-0.130
-79.597	-88.003	-0.079	-0.023
-78.582	-70.099	-0.139	-0.052
-77.567	-14.125	0.102	0.064
-76.553	163.297	-0.027	-0.037
-75.538	-149.060	0.466	0.037
-74.524	-35.057	0.063	0.034
-73.509	83.454	0.467	0.499
-72.494	-200.000	-0.056	-0.246
-71.480	14.100	0.213	0.162
-70.465	253.931	0.166	0.278
-69.451	-142.388	0.142	0.014
-68.436	-74.494	-0.382	-0.135
-67.422	-71.041	-0.224	0.083
-66.407	750.829	0.020	0.052
-65.392	16.866	0.289	0.224
-64.378	-82.980	-0.283	0.089
-63.363	592.499	0.045	0.108
-62.349	-200.000	-0.029	0.180
-61.334	86.616	-0.875	-0.945
-60.319	-60.201	0.470	0.196
-59.305	800.000	-0.155	-0.518
-58.290	253.491	0.686	1.147
-57.276	800.000	0.646	1.755
-56.261	-200.000	113.301	642.973
-55.246	474.108	1501.021	3314.428
-54.232	148.815	2663.232	3524.436
-53.217	103.517	2146.702	2466.128
-52.203	38.661	1596.513	1394.429
-51.188	30.633	1343.012	1124.664
-50.173	27.776	1305.429	1076.323
-49.159	55.643	1360.045	1289.503
-48.144	54.351	1375.769	1296.618
-47.130	31.085	1330.850	1117.008
-46.115	27.566	1313.563	1081.611
-45.100	27.426	1308.276	1076.387
-44.086	27.244	1306.253	1073.607
-43.071	27.210	1303.772	1071.328
-42.057	27.165	1302.086	1069.635
-41.042	27.235	1300.593	1068.772
-40.027	27.256	1298.676	1067.280
-39.013	27.326	1296.486	1065.847
-37.998	27.272	1294.805	1064.108
-36.984	27.380	1292.906	1063.138
-35.969	27.374	1291.427	1061.845
-34.954	27.532	1289.255	1060.933
-33.940	27.437	1288.697	1059.879
-32.925	27.440	1287.057	1058.508
-31.911	27.491	1285.495	1057.477
-30.896	27.439	1283.871	1055.798
-29.881	27.489	1283.109	1055.416
-28.867	27.484	1281.585	1054.097
-27.852	27.498	1279.908	1052.755
-26.838	27.535	1278.279	1051.584
-25.823	27.426	1277.465	1050.243
-24.809	27.511	1275.638	1049.194
-23.794	27.469	1274.826	1048.240
-22.779	27.474	1273.344	1047.009
-21.765	27.511	1272.197	1046.236
-20.750	27.450	1270.889	1044.768
-19.736	27.361	1269.833	1043.348
-18.721	27.387	1268.512	1042.374
-17.706	27.406	1267.160	1041.327
-16.692	27.468	1266.291	1040.926
-15.677	27.362	1265.494	1039.623
-14.663	27.276	1264.230	1038.055
-13.648	27.385	1262.518	1037.230
-12.633	27.394	1261.794	1036.642
-11.619	27.304	1261.118	1035.534
-10.604	27.436	1259.977	1035.307
-9.590	27.281	1259.491	1033.987
-8.575	27.370	1258.140	1033.344
-7.560	27.351	1257.099	1032.336
-6.546	27.420	1256.346	1032.070
-5.531	27.303	1256.036	1031.112
-4.517	27.301	1255.354	1030.498
-3.502	27.430	1253.990	1030.069
-2.487	27.363	1253.052	1028.881
-1.473	27.412	1248.649	1025.501
-0.458	25.893	1234.071	1005.021
0.556	21.207	1218.123	970.034
1.571	17.965	1224.235	956.683
2.586	17.146	1239.955	964.235
3.600	17.319	1228.281	956.045
4.615	15.538	1161.849	894.774
5.629	11.958	1095.133	825.313
6.644	10.157	1078.303	803.619
7.659	10.047	1075.761	801.109
8.673	10.054	1074.353	800.025
9.688	9.951	1073.221	798.602
10.702	10.104	1071.520	798.019
11.717	12.308	1073.692	810.456
12.731	15.686	1078.246	830.534
13.746	17.648	1080.039	841.541
14.761	17.499	1079.314	840.163
15.775	16.515	1077.124	833.538
16.790	15.561	1075.117	827.217
17.804	14.760	1073.895	822.258
18.819	14.332	1072.790	819.237
19.834	14.090	1071.360	816.883
20.848	13.799	1070.816	814.966
21.863	13.636	1069.787	813.312
22.877	13.475	1069.077	811.911
23.892	13.529	1068.022	811.302
24.907	13.489	1067.554	810.679
25.921	13.541	1066.420	810.001
26.936	13.488	1064.773	808.421
27.950	13.584	1063.782	808.064
28.965	13.771	1061.962	807.518
29.980	13.612	1060.855	805.834
30.994	13.733	1059.395	805.241
32.009	13.691	1058.610	804.368
33.023	13.814	1057.197	803.822
34.038	13.704	1056.289	802.526
35.053	13.603	1055.289	801.207
36.067	13.611	1054.698	800.728
37.082	13.697	1053.836	800.417
38.096	13.666	1053.370	799.844
39.111	13.629	1052.653	799.048
40.126	13.646	1051.039	797.835
41.140	13.496	1050.088	796.319
42.155	13.505	1048.632	795.192
43.169	13.366	1047.964	793.944
44.184	13.380	1046.893	793.130
45.199	13.470	1045.633	792.537
46.213	13.478	1044.600	791.724
47.228	13.682	1043.194	791.563
48.242	13.620	1042.387	790.584
49.257	13.636	1041.399	789.838
50.271	13.681	1040.838	789.557
51.286	13.635	1039.847	788.516
52.301	13.645	1039.344	788.113
53.315	13.595	1038.198	786.940
54.330	13.571	1036.676	785.603
55.344	13.451	1036.061	784.496
56.359	13.611	1034.951	784.342
57.374	13.514	1034.017	783.108
58.388	13.470	1033.117	782.151
59.403	13.490	1032.162	781.453
60.417	13.402	1031.576	780.522
61.432	13.345	1031.006	779.753
62.447	13.277	1030.226	778.778
63.461	13.293	1029.241	778.036
64.476	13.347	1028.445	777.622
65.490	13.403	1027.537	777.128
66.505	13.276	1026.897	775.980
67.520	13.408	1025.844	775.734
68.534	13.482	1025.595	775.823
69.549	13.337	1024.710	774.408
70.563	13.330	1023.882	773.679
71.578	13.322	1023.020	772.922
72.593	13.430	1022.452	772.930
73.607	13.175	1021.936	771.283
74.622	13.341	1020.925	771.225
75.636	13.302	1020.457	770.620
76.651	13.390	1019.742	770.423
77.666	13.419	1018.769	769.754
78.680	13.399	1018.534	769.417
79.695	13.341	1017.730	768.472
80.709	13.441	1017.197	768.466
81.724	13.437	1016.860	768.122
82.739	13.473	1015.897	767.494
83.753	13.616	1014.908	767.343
84.768	13.704	1014.024	767.010
85.782	13.825	1013.237	766.910
86.797	13.660	1012.199	765.293
87.812	13.613	1011.247	764.291
88.826	13.701	1010.139	763.787
89.841	13.644	1009.631	763.073
90.855	13.723	1008.621	762.609
91.870	13.683	1008.083	761.950
92.884	13.716	1006.915	761.152
93.899	13.666	1006.387	760.456
94.914	13.768	1005.820	760.428
95.928	13.779	1004.579	759.473
96.943	13.755	1003.709	758.638
97.957	13.735	1002.923	757.883
98.972	13.768	1001.745	757.077
99.987	13.818	1000.951	756.639
101.001	13.725	1000.141	755.536
102.016	13.718	999.463	754.925
103.030	13.789	998.445	754.411
104.045	13.860	997.049	753.612
105.060	13.639	996.818	752.369
106.074	13.490	995.843	750.889
107.089	13.488	994.492	749.794
108.103	13.585	993.390	749.336
109.118	13.595	992.688	748.788
110.133	13.575	991.708	747.891
111.147	13.452	991.186	746.876
112.162	13.672	989.773	746.737
113.176	13.597	989.313	745.985
114.191	13.549	988.637	745.194
115.206	13.660	987.468	744.747
116.220	13.580	986.908	743.898
117.235	13.628	985.816	743.224
118.249	13.404	985.204	741.693
119.264	13.376	984.577	741.030
120.279	13.537	983.423	740.818
121.293	13.473	982.594	739.843
122.308	13.422	981.820	738.966
123.322	13.466	980.688	738.245
124.337	13.511	979.610	737.569
125.352	13.433	978.534	736.347
126.366	13.587	977.074	735.863
127.381	13.425	976.589	734.715
128.395	13.458	975.567	734.028
129.410	13.369	974.728	732.939
130.424	13.590	973.946	733.265
131.439	13.567	973.360	732.655
132.454	13.552	972.590	731.947
133.468	13.635	971.548	731.463
134.483	13.648	970.676	730.797
135.497	13.670	969.654	730.061
136.512	13.654	968.714	729.218
137.527	13.628	968.210	728.658
138.541	13.682	967.348	728.182
139.556	13.666	967.006	727.793
140.570	13.688	966.090	727.133
141.585	13.747	965.420	726.826
142.600	13.799	964.447	726.258
143.614	13.793	963.613	725.538
144.629	13.869	963.133	725.445
145.643	13.798	961.525	723.858
146.658	13.777	960.784	723.144
147.673	13.763	959.930	722.377
148.687	13.709	958.661	721.124
149.702	13.688	958.059	720.518
150.716	13.666	957.601	720.012
151.731	13.766	956.445	719.513
152.746	13.769	956.046	719.163
153.760	13.831	955.447	718.917
154.775	13.858	954.528	718.278
155.789	13.775	954.052	717.498
156.804	13.782	953.104	716.751
157.819	13.848	952.763	716.715
158.833	13.920	951.916	716.324
159.848	13.939	951.351	715.920
160.862	14.016	950.023	715.188
161.877	13.922	949.078	714.009
162.892	13.709	948.637	712.698
163.906	13.738	947.345	711.792
164.921	13.884	946.415	711.653
165.935	13.863	945.662	710.934
166.950	13.871	944.947	710.369
167.964	13.899	943.740	709.518
168.979	13.908	942.846	708.820
169.994	13.821	942.179	707.887
171.008	13.868	941.746	707.697
172.023	14.032	940.287	707.239
173.037	14.092	940.111	707.299
174.052	13.951	939.172	705.929
175.067	14.000	938.751	705.761
176.081	13.742	938.198	704.187
177.096	13.941	937.576	704.502
178.110	14.028	936.726	704.170
179.125	13.897	936.274	703.212
180.140	14.029	936.089	703.568
181.154	14.054	935.345	703.055
182.169	13.946	935.207	702.432
183.183	14.130	933.958	702.209
184.198	14.151	933.486	701.879
185.213	14.364	932.273	701.802
186.227	14.284	932.082	701.257
187.242	14.390	931.115	700.914
188.256	14.320	930.854	700.363
189.271	14.333	929.855	699.602
190.286	14.096	929.463	698.254
191.300	13.900	928.669	696.771
192.315	13.960	927.968	696.437
193.329	13.943	927.571	696.005
194.344	14.004	926.926	695.714
195.359	14.242	925.854	695.843
196.373	14.169	925.671	695.338
197.388	14.266	925.485	695.544
198.402	14.345	924.651	695.185
199.417	14.271	924.385	694.614
200.432	14.497	923.494	694.824
201.446	14.619	923.062	694.948
202.461	14.490	922.597	693.998
203.475	14.427	921.901	693.152
204.490	14.509	920.785	692.593
205.504	14.473	919.783	691.626
206.519	14.414	919.600	691.185
207.534	14.467	918.622	690.605
208.548	14.506	918.069	690.292
209.563	14.269	917.444	688.781
210.577	14.432	917.059	689.104
211.592	14.755	915.700	689.354
212.607	14.670	915.073	688.470
213.621	14.507	914.729	687.478
214.636	14.535	914.241	687.168
215.650	14.628	912.949	686.518
216.665	14.671	912.652	686.410
217.680	14.707	912.177	686.141
218.694	14.680	911.329	685.332
219.709	14.724	911.008	685.211
220.723	14.601	910.344	684.145
221.738	14.611	909.343	683.373
222.753	14.579	908.432	682.499
223.767	14.699	908.190	682.745
224.782	14.878	907.453	682.861
225.796	14.777	906.800	681.901
226.811	14.704	906.349	681.201
227.826	14.823	905.561	681.035
228.840	14.713	904.893	680.025
229.855	14.700	903.868	679.139
230.869	14.847	902.908	678.958
231.884	14.597	902.789	677.790
232.899	14.641	901.899	677.240
233.913	14.700	900.945	676.703
234.928	14.595	900.669	676.013
235.942	14.677	900.154	675.899
236.957	14.718	899.295	675.360
237.972	14.819	898.723	675.276
238.986	14.705	898.089	674.281
240.001	14.658	897.632	673.687
241.015	14.813	896.954	673.744
242.030	14.724	896.733	673.161
243.045	14.968	895.421	673.098
244.059	14.953	895.100	672.738
245.074	14.963	894.460	672.237
246.088	14.938	894.088	671.799
247.103	14.936	893.339	671.167
248.117	15.155	892.717	671.519
249.132	15.107	892.417	671.041
250.147	15.106	891.642	670.394
251.161	15.237	891.098	670.448
252.176	15.087	890.711	669.500
253.190	15.222	889.823	669.313
254.205	15.221	889.005	668.636
255.220	15.466	887.964	668.770
256.234	15.444	887.328	668.143
257.249	15.247	887.229	667.224
258.263	15.312	886.400	666.802
259.278	15.311	885.630	666.158
260.293	15.420	885.323	666.302
261.307	15.506	884.285	665.803
262.322	15.511	883.904	665.478
263.336	15.305	883.409	664.231
264.351	15.541	882.291	664.261
265.366	15.542	881.861	663.884
266.380	15.388	881.469	662.921
267.395	15.391	880.807	662.377
268.409	15.348	879.811	661.399
269.424	15.425	879.126	661.129
270.439	15.422	878.198	660.364
271.453	15.457	877.301	659.769
272.468	15.387	877.619	659.670
273.482	15.423	876.506	658.920
274.497	15.438	876.095	658.609
275.512	15.446	875.863	658.408
276.526	15.585	874.655	657.986
277.541	15.523	874.451	657.533
278.555	15.702	873.797	657.684
279.570	15.653	873.297	657.059
280.585	15.645	872.325	656.235
281.599	15.735	871.378	655.815
282.614	15.581	870.814	654.733
283.628	15.679	869.991	654.441
284.643	15.708	870.076	654.559
285.657	15.567	869.330	653.390
286.672	15.771	868.240	653.307
287.687	15.815	867.153	652.600
288.701	15.631	867.337	651.966
289.716	15.735	866.955	652.024
290.730	15.739	866.434	651.593
291.745	15.899	865.385	651.365
292.760	15.863	864.857	650.768
293.774	15.863	864.282	650.281
294.789	15.954	863.657	650.105
295.803	15.857	862.834	649.054
296.818	15.810	862.141	648.291
297.833	15.833	861.782	648.054
298.847	15.790	861.407	647.549
299.862	15.916	860.456	647.261
300.876	15.896	859.943	646.741
301.891	15.993	859.310	646.581
302.906	16.136	858.666	646.586
303.920	15.990	858.917	646.160
304.935	15.886	858.240	645.195
305.949	16.100	857.345	645.284
306.964	16.121	856.769	644.874
307.979	16.285	855.828	644.733
308.993	16.065	855.721	643.754
310.008	16.237	854.929	643.760
311.022	16.093	854.374	642.736
312.037	16.012	853.812	641.947
313.052	16.110	852.711	641.437
314.066	16.073	852.594	641.150
315.081	16.112	851.781	640.632
316.095	16.041	851.669	640.218
317.110	16.110	850.603	639.622
318.125	16.149	850.338	639.515
319.139	16.159	849.878	639.150
320.154	16.140	849.430	638.684
321.168	16.290	848.789	638.713
322.183	16.347	848.018	638.293
323.197	16.133	847.916	637.352
324.212	16.214	847.285	637.126
325.227	16.235	846.592	636.630
326.241	16.131	846.472	636.087
327.256	16.182	845.560	635.541
328.270	16.103	845.334	635.015
329.285	16.281	844.485	634.992
330.300	16.235	843.858	634.292
331.314	16.147	843.685	633.775
332.329	16.201	842.966	633.381
333.343	16.265	842.520	633.229
334.358	16.398	842.235	633.458
335.373	16.318	841.909	632.857
336.387	16.343	841.548	632.624
337.402	16.443	841.130	632.626
338.416	16.654	840.819	633.128
339.431	16.500	840.184	632.017
340.446	16.550	840.072	632.065
341.460	16.593	839.458	631.707
342.475	16.543	839.196	631.266
343.489	16.614	838.575	631.010
344.504	16.680	837.973	630.745
345.519	16.785	837.491	630.718
346.533	16.887	836.978	630.654
347.548	16.648	836.578	629.410
348.562	16.509	836.126	628.497
349.577	16.559	835.562	628.202
350.592	16.579	834.951	627.762
351.606	16.627	834.019	627.185
352.621	16.636	833.312	626.631
353.635	16.688	832.651	626.269
354.650	16.667	832.249	625.833
355.665	16.725	831.501	625.431
356.679	16.855	830.619	625.193
357.694	16.749	830.542	624.688
358.708	16.792	829.529	624.028
359.723	16.716	829.092	623.364
360.738	16.847	828.485	623.336
361.752	16.845	827.811	622.766
362.767	16.931	827.376	622.701
363.781	16.908	826.897	622.200
364.796	16.949	826.627	622.091
365.810	16.942	826.296	621.759
366.825	17.015	825.943	621.707
367.840	17.089	825.133	621.314
368.854	17.028	825.005	620.940
369.869	16.987	824.504	620.356
370.883	17.217	823.665	620.511
371.898	17.072	823.437	619.754
372.913	17.023	823.321	619.436
373.927	17.181	822.506	619.344
374.942	17.002	822.392	618.550
375.956	17.250	821.759	618.923
376.971	17.239	821.389	618.548
377.986	17.355	820.841	618.502
379.000	17.343	820.228	617.943
380.015	17.288	819.893	617.436
381.029	17.248	819.274	616.769
382.044	17.320	818.659	616.516
383.059	17.385	818.211	616.356
384.073	17.310	817.532	615.521
385.088	17.173	817.176	614.702
386.102	17.338	816.012	614.368
387.117	17.305	815.584	613.871
388.132	17.204	815.443	613.347
389.146	17.304	814.656	613.061
390.161	17.324	814.451	612.923
391.175	17.298	813.947	612.397
392.190	17.256	813.281	611.691
393.205	17.238	813.077	611.418
394.219	17.403	812.186	611.287
395.234	17.293	812.332	610.948
396.248	17.224	811.574	610.077
397.263	17.231	811.273	609.819
398.278	17.221	810.881	609.435
399.292	17.283	810.220	609.107
400.307	17.381	809.719	609.028
401.321	17.191	809.406	608.058
402.336	17.193	809.184	607.846
403.350	17.438	808.576	608.213
404.365	17.589	808.152	608.378
405.380	17.410	807.830	607.443
406.394	17.506	807.109	607.188
407.409	17.586	806.703	607.116
408.423	17.560	806.802	607.043
409.438	17.754	806.039	607.107
410.453	17.727	805.429	606.498
411.467	17.756	805.212	606.382
412.482	17.752	804.614	605.863
413.496	17.813	804.360	605.835
414.511	17.868	803.828	605.578
415.526	17.678	803.464	604.575
416.540	17.556	803.175	603.871
417.555	17.751	802.648	604.114
418.569	17.815	802.046	603.832
419.584	17.781	802.042	603.655
420.599	17.785	801.484	603.198
421.613	111.745	1294.089	1476.782
422.628	96.330	1365.809	1476.878
