DTS Sentinel unit serial number:	SN413079Multiplexer serial number:	ORYXHardware model number:	OX4-SRSoftware version number:	ORYX F/W v4.00 Oryx Data Collector v3.7.2.0data status	okinstallation	princeton_trtdifferential loss correction	single-endedforward channel	channel 1reverse channel	N/Adate	2019/09/14time	19:34:35forward acquisition time	60.00reverse acquisition time	0.00gamma	496.2192k internal	0.2313k external	0.2313temperature offset calibration	1.0027default loss term (dB/km)	0.3790temperature slope calibration	1.0000multiplexer offset coefficient	1.0000multiplexer slope coefficient	1.0000fibre end	0.00T internal ref (°C)	34.67T ext. ref 1 (°C)	4.85T ext. ref 2 (°C)	28.87length (m)	temperature (°C)	Stokes	anti-Stokes-747.200	753.618	0.101	0.277
-746.185	-74.616	-0.236	0.086
-745.171	-88.239	-0.132	-0.040
-744.156	-29.200	-0.077	0.045
-743.142	-62.276	-0.126	0.053
-742.127	61.533	-0.098	-0.099
-741.112	17.530	0.053	0.043
-740.098	-167.129	0.194	0.008
-739.083	-140.778	-0.618	-0.065
-738.069	800.000	0.078	0.233
-737.054	-23.839	-0.214	0.130
-736.039	-14.643	-0.283	-0.184
-735.025	135.930	0.277	0.366
-734.010	-175.406	-0.494	-0.014
-732.996	207.833	0.031	-0.049
-731.981	-200.000	-0.034	-0.341
-730.966	-67.187	-0.162	-0.065
-729.952	-26.312	-0.133	0.079
-728.937	800.000	-0.086	0.303
-727.923	-92.745	-0.383	0.109
-726.908	-90.643	-0.110	-0.032
-725.894	-200.000	-0.044	0.274
-724.879	-22.258	-0.093	-0.057
-723.864	800.000	0.032	0.104
-722.850	258.275	-0.084	0.146
-721.835	800.000	-0.063	-0.275
-720.821	-95.249	-0.190	-0.052
-719.806	-65.517	-0.094	0.038
-718.791	-200.000	0.017	-0.216
-717.777	131.818	-0.100	-0.130
-716.762	234.390	0.047	-0.078
-715.748	-142.752	0.158	-0.016
-714.733	64.292	-0.189	-0.193
-713.718	102.541	0.148	-0.176
-712.704	308.401	-0.133	0.251
-711.689	-17.010	-0.095	0.061
-710.675	-163.935	-0.238	0.011
-709.660	61.676	0.390	-0.393
-708.645	-16.961	0.219	0.140
-707.631	800.000	-0.079	0.261
-706.616	-32.725	-0.113	-0.064
-705.602	-94.296	-0.178	-0.049
-704.587	800.000	-0.080	-0.289
-703.572	29.747	0.101	0.087
-702.558	-14.652	0.162	0.105
-701.543	-100.560	-0.191	-0.048
-700.529	800.000	-0.076	-0.304
-699.514	33.939	-0.085	-0.075
-698.499	-200.000	0.007	-0.252
-697.485	-79.536	0.172	-0.059
-696.470	291.694	0.130	0.240
-695.456	93.306	0.250	0.286
-694.441	800.000	-0.086	0.330
-693.426	279.788	-0.114	-0.206
-692.412	-200.000	-0.015	0.116
-691.397	163.813	-0.111	-0.158
-690.383	-73.919	-0.177	-0.065
-689.368	28.943	-0.055	0.047
-688.354	1.939	-0.249	-0.182
-687.339	57.716	-0.178	0.176
-686.324	-200.000	-0.013	-0.424
-685.310	-55.931	0.374	-0.169
-684.295	800.000	0.053	0.161
-683.281	-181.477	-0.074	0.001
-682.266	3.054	0.078	0.057
-681.251	-111.647	0.077	0.016
-680.237	-200.000	-0.009	0.112
-679.222	578.592	0.053	0.132
-678.208	-200.000	-0.031	-0.246
-677.193	-68.420	0.158	0.062
-676.178	-200.000	-0.015	-0.071
-675.164	-35.951	0.072	-0.039
-674.149	2.111	0.170	0.124
-673.135	-153.717	0.277	0.019
-672.120	800.000	0.137	0.415
-671.105	-8.415	-0.119	0.081
-670.091	-100.228	0.238	-0.060
-669.076	800.000	0.049	-0.162
-668.062	-120.224	0.389	0.067
-667.047	-9.668	-0.083	0.056
-666.032	328.049	0.079	-0.153
-665.018	114.071	0.218	0.268
-664.003	82.930	-0.097	0.107
-662.989	-200.000	-0.028	0.186
-661.974	-125.314	0.098	0.015
-660.959	-6.881	-0.352	-0.242
-659.945	-112.900	-0.445	-0.089
-658.930	4.564	-0.184	-0.136
-657.916	-200.000	-0.002	0.127
-656.901	110.802	-0.070	0.086
-655.886	-150.704	0.122	-0.009
-654.872	68.677	-0.264	-0.274
-653.857	4.597	0.155	-0.115
-652.843	71.246	0.026	-0.027
-651.828	-200.000	0.036	0.268
-650.814	32.957	-0.166	0.145
-649.799	-122.146	0.206	-0.034
-648.784	1.900	-0.146	0.107
-647.770	373.746	0.126	0.258
-646.755	800.000	0.040	-0.157
-645.741	59.203	-0.207	-0.205
-644.726	-37.476	-0.128	0.069
-643.711	199.124	0.145	-0.224
-642.697	-200.000	0.007	0.054
-641.682	-33.457	-0.038	-0.021
-640.668	800.000	0.106	-0.356
-639.653	-143.679	0.410	0.039
-638.638	230.363	0.159	0.263
-637.624	-85.591	0.220	-0.069
-636.609	69.237	0.282	-0.293
-635.595	169.606	-0.045	0.064
-634.580	121.100	-0.114	-0.144
-633.565	-7.138	-0.038	0.026
-632.551	-134.739	-0.352	0.043
-631.536	800.000	-0.132	0.403
-630.522	800.000	0.024	0.105
-629.507	-38.611	0.128	0.068
-628.492	-103.722	0.136	0.032
-627.478	362.168	0.235	-0.476
-626.463	-200.000	-0.029	-0.249
-625.449	212.502	-0.131	-0.208
-624.434	800.000	-0.021	-0.068
-623.419	-200.000	0.020	-0.208
-622.405	-200.000	-0.009	0.116
-621.390	145.308	-0.019	-0.026
-620.376	372.435	-0.130	0.267
-619.361	211.351	-0.087	-0.139
-618.346	-200.000	-0.039	-0.324
-617.332	149.570	-0.173	-0.236
-616.317	794.490	-0.131	0.364
-615.303	-50.531	-0.151	0.072
-614.288	-66.956	0.166	-0.066
-613.273	-65.656	0.246	0.100
-612.259	-9.149	-0.065	-0.044
-611.244	-60.971	0.191	-0.081
-610.230	-200.000	-0.010	0.049
-609.215	-127.030	0.154	0.023
-608.201	89.088	-0.238	0.267
-607.186	49.342	0.148	-0.141
-606.171	24.812	-0.112	0.093
-605.157	-72.368	-0.376	-0.141
-604.142	-10.906	0.199	-0.133
-603.128	-200.000	-0.064	-0.382
-602.113	800.000	0.051	0.192
-601.098	-75.818	0.111	-0.040
-600.084	-82.887	-0.349	0.114
-599.069	-200.000	-0.017	-0.191
-598.055	74.324	-0.190	-0.201
-597.040	-98.386	-0.141	0.036
-596.025	-24.384	0.060	0.036
-595.011	-200.000	-0.203	-0.000
-593.996	-140.183	0.528	0.056
-592.982	204.750	0.057	-0.090
-591.967	-200.000	0.005	-0.179
-590.952	-12.656	-0.181	-0.119
-589.938	45.759	-0.162	-0.151
-588.923	-4.615	-0.257	-0.179
-587.909	-200.000	0.075	0.366
-586.894	-82.071	-0.185	-0.061
-585.879	425.951	0.098	-0.214
-584.865	-200.000	-0.027	-0.184
-583.850	-126.536	0.091	-0.014
-582.836	131.689	0.084	0.109
-581.821	-200.000	-0.028	-0.475
-580.806	800.000	-0.072	-0.202
-579.792	-200.000	0.016	0.121
-578.777	176.095	-0.045	-0.066
-577.763	-174.081	-0.338	-0.010
-576.748	800.000	0.043	-0.155
-575.733	9.700	-0.144	0.110
-574.719	185.267	0.055	0.082
-573.704	66.902	-0.152	0.156
-572.690	-31.392	-0.193	0.110
-571.675	800.000	-0.032	-0.107
-570.661	-17.680	0.365	0.231
-569.646	33.757	-0.117	0.102
-568.631	49.698	0.264	0.250
-567.617	800.000	-0.045	-0.139
-566.602	-122.548	-0.112	0.018
-565.588	657.285	-0.052	-0.134
-564.573	-200.000	0.005	-0.204
-563.558	161.895	-0.214	-0.302
-562.544	-95.926	0.232	-0.062
-561.529	132.753	-0.217	-0.282
-560.515	800.000	-0.072	0.226
-559.500	800.000	-0.068	-0.266
-558.485	-28.381	-0.311	0.181
-557.471	-200.000	-0.009	0.188
-556.456	-79.998	0.388	0.131
-555.442	-200.000	0.045	0.275
-554.427	-61.313	0.110	-0.047
-553.412	460.175	-0.183	-0.409
-552.398	-65.009	0.097	0.039
-551.383	-97.500	-0.071	0.019
-550.369	-116.502	0.069	-0.013
-549.354	-118.967	0.172	0.030
-548.339	-65.476	0.334	-0.135
-547.325	487.066	0.074	-0.170
-546.310	-200.000	-0.018	-0.297
-545.296	66.328	-0.179	-0.183
-544.281	-37.360	0.246	-0.132
-543.266	-200.000	-0.031	0.221
-542.252	74.731	0.145	0.154
-541.237	800.000	-0.024	-0.073
-540.223	800.000	-0.088	0.309
-539.208	-106.835	-0.219	-0.049
-538.193	-149.019	0.293	0.024
-537.179	-38.277	0.232	0.124
-536.164	-200.000	-0.015	-0.246
-535.150	-5.789	-0.231	-0.159
-534.135	603.197	-0.156	-0.390
-533.121	-122.841	-0.128	-0.021
-532.106	-118.921	0.327	0.058
-531.091	106.577	-0.076	-0.091
-530.077	-50.734	-0.243	-0.115
-529.062	250.974	0.038	0.065
-528.048	641.055	-0.059	-0.150
-527.033	-50.929	0.358	-0.169
-526.018	-167.005	-0.082	0.003
-525.004	110.900	0.151	0.182
-523.989	33.291	-0.164	-0.143
-522.975	202.728	0.036	0.056
-521.960	-98.708	0.237	-0.061
-520.945	27.078	-0.075	-0.063
-519.931	-36.866	0.132	-0.071
-518.916	-55.595	0.425	-0.191
-517.902	-200.000	-0.248	-0.000
-516.887	-77.098	0.158	-0.055
-515.872	189.052	0.049	-0.073
-514.858	67.276	-0.015	0.015
-513.843	-92.900	-0.169	0.047
-512.829	-200.000	0.019	-0.127
-511.814	-3.245	0.096	0.068
-510.799	-74.769	-0.196	-0.071
-509.785	205.588	-0.163	-0.254
-508.770	-107.887	-0.195	-0.043
-507.756	467.918	0.086	-0.193
-506.741	-96.748	-0.229	0.061
-505.726	-67.455	-0.034	-0.013
-504.712	-15.188	-0.046	0.030
-503.697	-98.568	-0.243	-0.062
-502.683	800.000	-0.029	-0.123
-501.668	324.090	-0.043	0.082
-500.653	181.745	0.103	-0.153
-499.639	-97.592	0.048	0.013
-498.624	151.041	-0.152	-0.208
-497.610	180.482	0.204	0.300
-496.595	-109.616	0.317	-0.067
-495.581	800.000	0.009	-0.026
-494.566	-69.524	0.227	-0.087
-493.551	-133.829	0.264	0.033
-492.537	557.270	0.106	0.256
-491.522	304.624	-0.051	0.095
-490.508	173.110	0.071	0.102
-489.493	-200.000	0.041	0.331
-488.478	56.112	0.115	-0.112
-487.464	174.789	-0.098	-0.142
-486.449	-160.949	0.099	-0.005
-485.435	191.241	-0.216	-0.327
-484.420	-99.226	-0.185	-0.047
-483.405	96.162	-0.358	0.411
-482.391	-200.000	0.046	0.204
-481.376	-117.305	-0.383	-0.070
-480.362	-200.000	0.000	-0.421
-479.347	800.000	-0.037	0.116
-478.332	269.915	-0.186	0.328
-477.318	-102.742	-0.192	0.046
-476.303	581.414	-0.099	0.245
-475.289	7.258	-0.301	0.225
-474.274	-114.729	-0.217	0.042
-473.259	-200.000	-0.014	0.251
-472.245	-47.346	0.287	0.140
-471.230	-200.000	-0.035	-0.187
-470.216	-200.000	-0.045	0.281
-469.201	-132.357	0.114	0.015
-468.186	284.009	-0.150	-0.270
-467.172	325.770	0.154	-0.296
-466.157	-200.000	0.009	0.088
-465.143	119.299	-0.045	-0.056
-464.128	587.969	0.069	0.170
-463.113	800.000	-0.103	-0.292
-462.099	-200.000	-0.012	0.278
-461.084	474.387	-0.133	0.301
-460.070	-149.113	0.072	-0.006
-459.055	622.648	-0.094	0.237
-458.040	-7.199	0.163	0.111
-457.026	-144.904	-0.217	0.020
-456.011	-200.000	0.018	-0.273
-454.997	-200.000	0.014	0.131
-453.982	368.162	-0.209	-0.423
-452.968	-27.758	-0.100	-0.058
-451.953	-110.999	0.100	-0.021
-450.938	800.000	0.159	0.450
-449.924	1.818	0.117	-0.084
-448.909	770.345	-0.039	-0.107
-447.895	232.288	0.136	0.225
-446.880	-69.545	0.205	0.079
-445.865	-116.976	0.358	0.066
-444.851	-32.471	0.265	-0.148
-443.836	-32.260	0.226	-0.126
-442.822	427.371	-0.060	-0.130
-441.807	-200.000	-0.014	-0.192
-440.792	108.577	0.179	0.214
-439.778	-115.294	-0.198	-0.037
-438.763	406.201	-0.095	0.200
-437.749	-99.752	0.215	-0.054
-436.734	736.664	0.112	-0.302
-435.719	-32.798	-0.064	-0.036
-434.705	800.000	-0.082	0.270
-433.690	-31.916	-0.096	0.054
-432.676	-168.390	-0.155	-0.006
-431.661	-80.120	0.182	0.061
-430.646	-200.000	-0.021	0.237
-429.632	-172.526	0.027	0.001
-428.617	-200.000	-0.040	-0.293
-427.603	215.791	0.086	-0.137
-426.588	-73.340	0.284	0.104
-425.573	-138.688	-0.084	-0.009
-424.559	800.000	0.088	-0.277
-423.544	800.000	-0.049	-0.206
-422.530	-85.221	-0.208	0.065
-421.515	800.000	-0.078	0.327
-420.500	14.907	-0.090	-0.071
-419.486	48.098	-0.129	0.121
-418.471	50.224	0.156	-0.148
-417.457	151.564	-0.233	-0.318
-416.442	-91.676	0.182	-0.052
-415.428	164.586	0.129	0.183
-414.413	56.145	0.197	-0.192
-413.398	-90.948	-0.219	0.063
-412.384	328.845	-0.109	-0.210
-411.369	734.891	0.059	0.158
-410.355	800.000	-0.108	-0.325
-409.340	71.678	0.137	0.143
-408.325	800.000	-0.043	-0.162
-407.311	-162.102	0.222	-0.011
-406.296	201.353	-0.154	-0.238
-405.282	-200.000	-0.034	0.287
-404.267	11.383	-0.181	0.139
-403.252	-135.234	-0.087	-0.010
-402.238	-40.013	-0.118	-0.062
-401.223	-86.883	0.387	0.118
-400.209	-76.819	0.048	-0.017
-399.194	-200.000	0.011	0.254
-398.179	-93.185	0.162	0.045
-397.165	182.133	-0.344	0.507
-396.150	31.435	0.298	0.256
-395.136	137.203	0.169	0.221
-394.121	27.855	-0.192	0.162
-393.106	32.616	0.160	0.139
-392.092	-200.000	0.026	-0.404
-391.077	-138.464	-0.207	-0.023
-390.063	-3.161	0.119	-0.083
-389.048	800.000	-0.067	-0.224
-388.033	-25.612	-0.210	0.124
-387.019	55.905	-0.077	0.074
-386.004	-200.000	0.006	-0.127
-384.990	-200.000	-0.024	0.115
-383.975	389.862	0.060	-0.125
-382.960	800.000	0.020	-0.085
-381.946	529.320	0.037	-0.087
-380.931	667.251	0.051	-0.131
-379.917	-80.208	-0.219	-0.073
-378.902	120.546	0.066	0.082
-377.888	800.000	-0.087	-0.286
-376.873	109.292	-0.062	0.074
-375.858	-44.924	0.102	0.051
-374.844	-74.656	-0.247	-0.089
-373.829	-200.000	0.026	0.228
-372.815	-16.742	-0.221	-0.140
-371.800	-97.608	-0.205	-0.053
-370.785	127.828	-0.100	-0.127
-369.771	358.675	0.064	-0.127
-368.756	-200.000	-0.010	0.063
-367.742	53.916	0.167	0.160
-366.727	784.613	0.021	0.056
-365.712	-154.850	-0.225	0.015
-364.698	45.252	0.288	-0.266
-363.683	-200.000	0.016	-0.226
-362.669	-83.175	0.152	0.049
-361.654	-143.079	0.297	0.029
-360.639	-33.301	0.063	0.035
-359.625	-62.254	-0.268	0.112
-358.610	43.724	-0.094	-0.086
-357.596	-200.000	0.003	-0.028
-356.581	-48.535	-0.227	0.109
-355.566	-59.746	-0.048	-0.020
-354.552	-69.171	0.172	0.066
-353.537	-86.869	-0.198	0.060
-352.523	54.867	0.163	-0.157
-351.508	-108.824	-0.208	-0.044
-350.493	361.830	0.125	0.250
-349.479	-200.000	-0.012	0.169
-348.464	800.000	0.057	-0.203
-347.450	-129.112	0.135	-0.019
-346.435	-200.000	-0.033	-0.318
-345.420	125.960	0.167	-0.210
-344.406	50.963	0.256	-0.242
-343.391	108.055	-0.115	-0.137
-342.377	-29.491	0.186	-0.106
-341.362	-61.387	-0.164	0.069
-340.348	-168.563	0.219	-0.008
-339.333	-200.000	-0.039	-0.288
-338.318	6.778	-0.120	0.089
-337.304	800.000	-0.054	0.166
-336.289	13.241	0.170	-0.131
-335.275	18.953	0.064	-0.051
-334.260	-200.000	0.016	0.264
-333.245	800.000	-0.091	-0.380
-332.231	-159.519	-0.078	-0.004
-331.216	-48.869	0.317	0.151
-330.202	-29.500	0.147	-0.084
-329.187	96.477	-0.196	0.223
-328.172	12.327	0.161	0.124
-327.158	-129.051	0.219	0.031
-326.143	-121.578	-0.264	0.044
-325.129	-123.422	0.261	-0.041
-324.114	-13.846	-0.082	-0.053
-323.099	-200.000	-0.009	0.188
-322.085	77.902	-0.146	0.156
-321.070	-88.578	-0.136	0.040
-320.056	593.416	0.085	0.209
-319.041	346.091	-0.063	0.124
-318.026	136.557	0.119	-0.155
-317.012	94.536	-0.204	0.231
-315.997	87.418	-0.318	0.351
-314.983	-105.406	0.223	0.051
-313.968	115.386	0.108	-0.131
-312.953	-57.550	0.151	-0.066
-311.939	-200.000	0.009	-0.172
-310.924	92.333	0.062	0.069
-309.910	215.153	0.223	-0.352
-308.895	-200.000	-0.063	-0.321
-307.880	500.507	-0.106	0.244
-306.866	-152.104	-0.215	0.016
-305.851	682.565	-0.059	0.154
-304.837	-162.613	-0.148	0.007
-303.822	-71.893	0.271	0.101
-302.807	-43.242	0.331	0.167
-301.793	-200.000	0.178	0.000
-300.778	-79.153	-0.264	0.089
-299.764	-50.671	-0.449	-0.211
-298.749	-175.337	0.200	0.005
-297.735	69.740	-0.221	0.227
-296.720	-121.558	-0.116	0.019
-295.705	-200.000	-0.053	0.363
-294.691	79.651	-0.194	0.208
-293.676	64.397	-0.294	0.295
-292.662	107.596	0.180	-0.213
-291.647	196.803	-0.104	-0.158
-290.632	172.463	-0.281	0.403
-289.618	-161.131	-0.109	-0.006
-288.603	-200.000	-0.003	-0.112
-287.589	-83.633	-0.197	-0.063
-286.574	-40.279	0.208	-0.108
-285.559	-94.043	-0.185	-0.051
-284.545	209.083	0.049	-0.077
-283.530	76.708	-0.172	-0.182
-282.516	-200.000	-0.004	-0.155
-281.501	-200.000	0.009	0.385
-280.486	-163.766	0.247	0.012
-279.472	-106.560	-0.132	-0.029
-278.457	-48.829	-0.393	0.188
-277.443	-71.680	0.157	0.058
-276.428	-200.000	0.016	-0.244
-275.413	142.208	0.163	0.215
-274.399	-17.384	-0.052	-0.033
-273.384	-161.471	-0.147	0.008
-272.370	519.339	-0.060	-0.141
-271.355	-10.033	0.248	0.164
-270.340	136.809	0.049	0.064
-269.326	-200.000	0.013	-0.321
-268.311	-200.000	0.002	0.074
-267.297	-200.000	-0.106	0.508
-266.282	28.354	0.232	0.195
-265.267	511.109	-0.043	-0.101
-264.253	-96.837	-0.251	-0.066
-263.238	-44.223	-0.137	0.068
-262.224	-50.642	-0.156	-0.073
-261.209	197.263	0.073	-0.111
-260.195	-157.026	-0.021	0.001
-259.180	800.000	-0.021	0.069
-258.165	-200.000	0.005	0.344
-257.151	-145.928	-0.189	-0.017
-256.136	212.797	0.152	-0.238
-255.122	-173.151	-0.038	0.001
-254.107	800.000	-0.038	0.121
-253.092	-183.180	0.221	-0.004
-252.078	-53.860	-0.149	0.068
-251.063	35.277	0.201	-0.175
-250.049	-118.544	0.185	0.032
-249.034	346.665	-0.161	-0.316
-248.019	-10.826	0.278	0.183
-247.005	335.096	0.144	0.278
-245.990	-54.507	0.123	-0.055
-244.976	12.793	-0.045	0.035
-243.961	-184.865	-0.284	-0.004
-242.946	-88.470	-0.034	-0.010
-241.932	-200.000	-0.048	0.232
-240.917	220.930	-0.054	0.086
-239.903	-200.000	0.025	0.341
-238.888	-101.113	0.337	-0.082
-237.873	800.000	-0.053	0.167
-236.859	-51.564	-0.196	0.091
-235.844	-43.237	0.098	0.049
-234.830	-13.085	-0.326	0.211
-233.815	-200.000	-0.028	0.237
-232.800	620.252	-0.120	0.300
-231.786	-155.219	-0.243	-0.016
-230.771	359.811	-0.072	-0.143
-229.757	18.372	-0.072	0.057
-228.742	147.825	-0.062	0.083
-227.727	-138.308	0.110	-0.012
-226.713	14.189	-0.101	-0.079
-225.698	-39.566	0.179	-0.093
-224.684	84.210	0.111	-0.121
-223.669	-53.806	0.054	0.024
-222.655	-200.000	-0.020	0.364
-221.640	-16.047	0.163	0.103
-220.625	-200.000	-0.003	-0.144
-219.611	-52.577	0.293	-0.135
-218.596	800.000	-0.120	-0.408
-217.582	-51.246	0.109	-0.051
-216.567	370.526	0.060	0.120
-215.552	2.331	0.256	0.184
-214.538	-200.000	-0.034	0.336
-213.523	800.000	-0.095	-0.362
-212.509	-41.394	0.110	0.056
-211.494	342.561	-0.106	-0.207
-210.479	11.856	0.252	0.192
-209.465	-31.306	-0.148	0.083
-208.450	-87.155	0.340	-0.103
-207.436	-40.639	-0.133	-0.068
-206.421	164.900	-0.080	-0.112
-205.406	93.971	-0.120	0.135
-204.392	-51.411	0.211	0.098
-203.377	-200.000	-0.023	0.158
-202.363	37.862	-0.118	0.104
-201.348	-200.000	0.026	0.289
-200.333	-100.820	-0.077	-0.019
-199.319	-150.996	-0.174	0.013
-198.304	-200.000	0.008	-0.158
-197.290	66.657	0.173	0.175
-196.275	800.000	-0.058	-0.197
-195.260	-34.679	-0.145	0.079
-194.246	1.836	0.087	-0.062
-193.231	-130.259	0.214	0.029
-192.217	-134.532	0.126	-0.015
-191.202	197.079	0.192	0.291
-190.187	-200.000	0.035	-0.362
-189.173	800.000	0.052	0.207
-188.158	-57.208	0.300	0.131
-187.144	-200.000	0.008	0.182
-186.129	-113.608	0.278	0.054
-185.114	800.000	0.066	0.251
-184.100	109.168	-0.146	0.174
-183.085	-54.041	0.222	0.100
-182.071	-200.000	-0.011	-0.085
-181.056	800.000	0.043	0.128
-180.042	-101.273	-0.519	-0.126
-179.027	-63.787	0.087	0.035
-178.012	267.830	0.168	0.292
-176.998	45.858	-0.132	-0.121
-175.983	124.088	0.154	-0.192
-174.969	-200.000	0.015	0.233
-173.954	-138.011	-0.215	-0.024
-172.939	-179.032	-0.155	-0.003
-171.925	-200.000	-0.005	-0.022
-170.910	-200.000	0.002	0.082
-169.896	-30.471	0.262	-0.147
-168.881	-56.205	-0.348	-0.153
-167.866	-200.000	-0.042	-0.218
-166.852	-111.204	-0.137	0.028
-165.837	800.000	-0.043	-0.165
-164.823	800.000	0.149	0.448
-163.808	262.599	-0.163	-0.280
-162.793	117.945	-0.272	0.333
-161.779	-116.585	0.202	0.037
-160.764	740.605	-0.043	-0.116
-159.750	229.825	0.079	-0.127
-158.735	66.499	0.114	-0.115
-157.720	-144.654	0.345	-0.032
-156.706	-200.000	0.027	-0.273
-155.691	1.837	0.177	0.126
-154.677	-64.517	0.158	-0.063
-153.662	299.883	0.093	0.170
-152.647	27.510	0.142	0.119
-151.633	800.000	-0.049	0.155
-150.618	-200.000	0.025	-0.116
-149.604	43.129	-0.193	-0.174
-148.589	800.000	0.091	-0.294
-147.574	213.343	-0.143	-0.224
-146.560	-200.000	-0.025	0.418
-145.545	157.824	0.017	-0.024
-144.531	116.577	-0.073	-0.089
-143.516	430.884	-0.155	-0.333
-142.502	-134.903	-0.269	0.032
-141.487	231.316	-0.101	-0.164
-140.472	777.339	-0.081	0.221
-139.458	561.196	-0.103	0.245
-138.443	-18.251	-0.133	-0.082
-137.429	-200.000	0.051	-0.411
-136.414	43.091	-0.365	0.330
-135.399	-131.060	0.254	-0.034
-134.385	309.244	-0.091	0.169
-133.370	-200.000	-0.033	0.283
-132.356	-31.986	0.300	-0.166
-131.341	-79.808	0.049	0.016
-130.326	100.678	-0.164	0.189
-129.312	-200.000	-0.076	0.354
-128.297	125.105	-0.073	0.091
-127.283	333.480	0.243	-0.465
-126.268	-19.192	-0.103	0.063
-125.253	178.299	-0.122	-0.177
-124.239	-172.708	-0.264	-0.008
-123.224	51.654	-0.277	0.260
-122.210	-116.543	-0.295	0.054
-121.195	-107.880	0.192	0.041
-120.180	160.048	0.217	0.300
-119.166	-118.945	0.137	0.024
-118.151	-41.019	-0.267	0.137
-117.137	636.878	-0.171	0.429
-116.122	800.000	0.081	0.242
-115.107	457.390	-0.021	0.046
-114.093	-189.626	0.185	-0.002
-113.078	94.494	0.115	-0.130
-112.064	-141.468	0.395	-0.040
-111.049	425.909	-0.122	-0.261
-110.034	-111.520	0.140	-0.028
-109.020	-71.517	0.159	0.059
-108.005	-19.763	0.059	-0.036
-106.991	124.166	0.265	0.330
-105.976	-160.762	0.258	-0.014
-104.962	26.591	-0.181	0.150
-103.947	73.236	0.200	0.207
-102.932	-48.117	0.211	-0.101
-101.918	67.378	0.153	0.154
-100.903	236.282	-0.095	0.156
-99.889	-58.207	-0.143	-0.062
-98.874	244.262	0.115	-0.191
-97.859	-200.000	-0.021	0.244
-96.845	-200.000	0.018	-0.159
-95.830	-91.262	0.372	-0.105
-94.816	154.083	0.193	-0.262
-93.801	-34.698	-0.310	-0.168
-92.786	-19.538	0.203	-0.124
-91.772	13.077	-0.111	0.085
-90.757	800.000	-0.045	-0.192
-89.743	258.589	-0.053	-0.090
-88.728	-200.000	0.021	-0.164
-87.713	103.119	-0.046	-0.054
-86.699	-22.512	0.012	0.007
-85.684	149.623	0.241	0.322
-84.670	800.000	-0.085	0.311
-83.655	14.130	-0.133	0.103
-82.640	118.127	-0.208	-0.254
-81.626	-130.772	-0.353	0.047
-80.611	232.940	0.040	-0.064
-79.597	28.251	-0.346	-0.289
-78.582	-114.295	-0.098	-0.019
-77.567	-57.735	-0.019	0.008
-76.553	-9.610	0.278	-0.183
-75.538	-36.750	0.100	-0.053
-74.524	-122.173	-0.225	0.036
-73.509	-200.000	0.073	0.399
-72.494	800.000	-0.039	0.134
-71.480	6.768	0.178	0.131
-70.465	-23.771	-0.190	0.112
-69.451	3.394	-0.103	0.074
-68.436	-26.838	-0.200	0.116
-67.422	-74.250	0.457	-0.163
-66.407	800.000	0.073	-0.262
-65.392	-200.000	0.023	0.192
-64.378	507.306	-0.161	-0.369
-63.363	27.289	-0.361	-0.300
-62.349	-30.846	0.033	0.019
-61.334	100.702	-1.016	-1.166
-60.319	273.031	0.234	0.407
-59.305	800.000	-0.371	-1.071
-58.290	374.578	0.580	1.167
-57.276	-200.000	0.297	1.733
-56.261	-200.000	97.765	583.246
-55.246	649.041	1390.840	3512.626
-54.232	190.323	2588.049	3837.238
-53.217	122.978	2162.845	2673.037
-52.203	46.470	1618.997	1482.461
-51.188	38.159	1355.940	1191.130
-50.173	34.844	1314.259	1134.835
-49.159	57.882	1362.800	1316.320
-48.144	61.670	1380.869	1356.529
-47.130	38.375	1336.108	1174.822
-46.115	34.817	1317.840	1137.585
-45.100	34.547	1313.476	1132.168
-44.086	34.536	1311.049	1129.964
-43.071	34.492	1308.671	1127.612
-42.057	34.366	1306.893	1125.291
-41.042	34.404	1305.344	1124.137
-40.027	34.573	1303.689	1123.662
-39.013	34.612	1301.171	1121.675
-37.998	34.492	1299.879	1119.817
-36.984	34.715	1297.736	1119.232
-35.969	34.743	1295.933	1117.795
-34.954	34.648	1294.621	1116.066
-33.940	34.727	1293.355	1115.391
-32.925	34.692	1292.156	1114.109
-31.911	34.845	1290.307	1113.358
-30.896	34.866	1288.896	1112.219
-29.881	34.846	1287.453	1110.818
-28.867	34.734	1286.708	1109.477
-27.852	34.680	1285.098	1107.734
-26.838	34.699	1283.385	1106.319
-25.823	34.808	1282.108	1105.810
-24.809	34.762	1280.929	1104.482
-23.794	34.765	1279.617	1103.326
-22.779	34.835	1278.062	1102.340
-21.765	34.760	1276.981	1100.935
-20.750	34.677	1275.739	1099.340
-19.736	34.691	1274.507	1098.316
-18.721	34.652	1273.069	1096.809
-17.706	34.625	1271.935	1095.637
-16.692	34.627	1271.016	1094.810
-15.677	34.652	1269.798	1093.859
-14.663	34.483	1269.492	1092.588
-13.648	34.603	1267.445	1091.466
-12.633	34.595	1266.929	1090.933
-11.619	34.609	1265.651	1089.872
-10.604	34.563	1264.920	1088.938
-9.590	34.587	1264.479	1088.651
-8.575	34.606	1262.721	1087.201
-7.560	34.635	1262.018	1086.715
-6.546	34.631	1261.080	1085.847
-5.531	34.609	1260.398	1085.088
-4.517	34.623	1259.546	1084.392
-3.502	34.626	1258.659	1083.602
-2.487	34.609	1258.029	1082.920
-1.473	34.645	1253.064	1078.809
-0.458	33.013	1238.316	1056.945
0.556	28.575	1220.035	1015.547
1.571	24.482	1225.048	996.827
2.586	23.352	1239.984	1002.499
3.600	22.672	1228.713	989.489
4.615	17.191	1156.638	902.329
5.629	8.874	1081.488	802.161
6.644	5.014	1061.491	768.270
7.659	4.694	1058.776	764.669
8.673	4.899	1057.704	764.829
9.688	4.794	1056.606	763.454
10.702	4.856	1054.922	762.473
11.717	9.631	1060.785	790.101
12.731	17.049	1071.492	834.617
13.746	19.735	1074.244	849.908
14.761	18.845	1072.556	844.129
15.775	17.735	1070.390	836.904
16.790	16.803	1068.256	830.596
17.804	16.040	1066.682	825.559
18.819	15.664	1065.601	822.810
19.834	15.504	1064.421	821.046
20.848	15.185	1063.744	818.893
21.863	14.996	1063.172	817.454
22.877	14.911	1062.410	816.381
23.892	14.795	1061.790	815.266
24.907	14.863	1060.929	814.866
25.921	14.925	1059.855	814.271
26.936	14.909	1058.574	813.137
27.950	14.961	1057.385	812.407
28.965	15.039	1055.477	811.247
29.980	15.168	1054.139	810.770
30.994	15.285	1052.754	810.198
32.009	15.170	1052.360	809.265
33.023	15.128	1051.312	808.188
34.038	15.083	1050.237	807.072
35.053	14.971	1049.499	805.896
36.067	14.964	1048.540	805.052
37.082	15.094	1047.324	804.674
38.096	15.029	1046.618	803.749
39.111	15.195	1045.910	803.929
40.126	14.948	1044.382	801.499
41.140	14.875	1043.152	800.136
42.155	14.811	1041.816	798.734
43.169	14.780	1040.800	797.737
44.184	14.676	1040.040	796.585
45.199	14.821	1038.627	796.123
46.213	14.893	1038.093	795.989
47.228	14.962	1037.338	795.667
48.242	14.958	1035.708	794.330
49.257	14.955	1034.728	793.492
50.271	15.111	1034.237	793.785
51.286	15.008	1033.227	792.453
52.301	15.045	1032.171	791.748
53.315	14.989	1030.979	790.495
54.330	14.822	1030.336	789.147
55.344	14.690	1029.783	788.029
56.359	14.763	1028.645	787.434
57.374	14.822	1027.439	786.720
58.388	14.885	1026.106	785.924
59.403	14.793	1025.735	785.138
60.417	14.753	1025.064	784.367
61.432	14.679	1024.444	783.475
62.447	14.845	1022.995	783.074
63.461	14.653	1022.677	781.862
64.476	14.642	1021.770	781.049
65.490	14.704	1020.783	780.517
66.505	14.801	1020.076	780.359
67.520	14.805	1019.288	779.707
68.534	14.846	1018.442	779.183
69.549	14.724	1018.330	778.457
70.563	14.705	1017.383	777.576
71.578	14.556	1016.404	776.065
72.593	14.599	1015.493	775.505
73.607	14.594	1015.009	775.040
74.622	14.578	1014.556	774.553
75.636	14.716	1013.392	774.235
76.651	14.698	1012.997	773.783
77.666	14.702	1011.975	772.948
78.680	14.653	1011.760	772.492
79.695	14.595	1011.078	771.632
80.709	14.605	1010.732	771.346
81.724	14.767	1009.622	771.179
82.739	14.933	1008.492	771.013
83.753	15.120	1008.064	771.481
84.768	15.145	1007.518	771.109
85.782	15.199	1006.739	770.694
86.797	15.051	1005.873	769.281
87.812	14.976	1004.796	768.045
88.826	15.035	1003.908	767.569
89.841	15.079	1002.918	766.946
90.855	15.130	1001.854	766.297
91.870	15.228	1001.125	766.119
92.884	15.184	1000.197	765.144
93.899	15.150	999.633	764.489
94.914	15.161	999.032	764.009
95.928	15.186	998.043	763.299
96.943	15.058	997.284	762.069
97.957	15.205	996.062	761.737
98.972	15.148	995.422	760.919
99.987	15.196	994.573	760.424
101.001	15.099	993.619	759.189
102.016	14.989	993.418	758.466
103.030	15.188	992.369	758.498
104.045	15.179	991.431	757.676
105.060	15.141	990.407	756.654
106.074	14.874	989.592	754.761
107.089	14.700	988.779	753.289
108.103	14.855	987.002	752.563
109.118	14.842	986.002	751.676
110.133	14.745	985.692	750.938
111.147	14.792	984.934	750.506
112.162	14.823	984.128	749.963
113.176	14.778	983.155	748.955
114.191	14.900	982.498	748.934
115.206	14.981	981.891	748.770
116.220	14.880	980.951	747.532
117.235	14.805	979.970	746.383
118.249	14.956	978.834	746.128
119.264	14.786	978.570	745.102
120.279	14.831	977.709	744.581
121.293	14.848	976.898	743.971
122.308	14.844	975.925	743.146
123.322	14.712	974.947	741.750
124.337	14.778	973.513	740.886
125.352	14.642	972.635	739.551
126.366	14.683	972.167	739.311
127.381	14.844	971.018	739.083
128.395	14.760	970.035	737.899
129.410	14.837	969.263	737.586
130.424	14.872	968.573	737.151
131.439	15.018	967.674	737.044
132.454	15.052	966.722	736.406
133.468	15.107	966.069	736.084
134.483	15.020	965.468	735.176
135.497	15.023	964.502	734.392
136.512	14.966	963.995	733.687
137.527	15.009	962.911	732.988
138.541	14.929	961.928	731.824
139.556	15.155	961.168	732.170
140.570	15.140	961.021	731.927
141.585	15.241	959.777	731.356
142.600	15.127	959.405	730.511
143.614	15.316	958.265	730.402
144.629	15.293	957.570	729.708
145.643	15.192	956.538	728.416
146.658	15.234	955.253	727.555
147.673	15.082	954.582	726.320
148.687	14.949	953.887	725.151
149.702	15.013	952.620	724.403
150.716	14.890	952.308	723.568
151.731	14.894	951.642	723.016
152.746	15.077	950.937	723.207
153.760	15.094	950.190	722.646
154.775	15.240	949.715	722.850
155.789	15.143	949.211	721.985
156.804	15.245	948.357	721.712
157.819	15.289	947.566	721.235
158.833	15.372	946.589	720.784
159.848	15.450	946.157	720.727
160.862	15.225	945.053	718.856
161.877	15.209	943.990	717.915
162.892	15.089	943.145	716.697
163.906	15.116	942.241	716.060
164.921	15.151	941.246	715.393
165.935	15.176	940.484	714.855
166.950	15.173	939.868	714.311
167.964	15.237	938.682	713.621
168.979	15.147	937.923	712.597
169.994	15.151	937.400	712.155
171.008	15.383	936.220	712.180
172.023	15.398	935.867	711.912
173.037	15.318	934.956	710.817
174.052	15.267	934.676	710.324
175.067	15.188	933.739	709.216
176.081	15.144	933.298	708.630
177.096	15.144	932.592	708.030
178.110	15.161	932.176	707.727
179.125	15.333	931.173	707.625
180.140	15.320	930.711	707.160
181.154	15.409	930.468	707.286
182.169	15.493	929.964	707.196
183.183	15.400	929.548	706.423
184.198	15.389	928.713	705.680
185.213	15.467	927.957	705.373
186.227	15.527	927.292	705.054
187.242	15.619	926.327	704.646
188.256	15.633	925.886	704.306
189.271	15.542	925.331	703.441
190.286	15.387	924.502	702.099
191.300	15.198	923.924	700.809
192.315	15.171	922.787	699.772
193.329	15.301	922.326	699.901
194.344	15.274	921.613	699.185
195.359	15.403	920.794	699.042
196.373	15.440	920.945	699.249
197.388	15.617	920.581	699.646
198.402	15.652	919.942	699.246
199.417	15.725	918.696	698.538
200.432	15.906	918.420	699.021
201.446	15.779	918.552	698.529
202.461	15.968	917.620	698.544
203.475	15.894	916.969	697.680
204.490	15.793	915.871	696.363
205.504	15.690	915.605	695.673
206.519	15.697	914.860	695.077
207.534	15.706	913.799	694.244
208.548	15.508	913.586	693.204
209.563	15.810	912.580	693.626
210.577	15.711	912.265	692.916
211.592	15.832	911.429	692.716
212.607	15.982	910.378	692.474
213.621	15.690	910.454	691.271
214.636	15.838	909.400	691.018
215.650	15.733	909.183	690.361
216.665	15.853	908.037	689.918
217.680	15.957	907.204	689.651
218.694	15.957	906.724	689.228
219.709	16.012	906.197	688.990
220.723	16.071	905.425	688.585
221.738	15.960	904.563	687.413
222.753	15.987	904.199	687.186
223.767	16.108	903.721	687.254
224.782	15.998	903.566	686.627
225.796	16.136	902.574	686.374
226.811	16.071	901.783	685.449
227.826	16.123	901.064	685.051
228.840	15.965	900.473	683.901
229.855	15.985	899.408	683.114
230.869	16.075	898.898	683.028
231.884	16.094	897.929	682.312
232.899	15.931	897.803	681.495
233.913	15.705	897.179	680.047
234.928	16.104	895.670	680.454
235.942	15.972	895.628	679.828
236.957	15.919	895.035	679.104
237.972	16.050	894.170	678.918
238.986	15.983	893.513	678.088
240.001	16.012	892.821	677.619
241.015	16.052	892.593	677.545
242.030	16.038	891.983	676.967
243.045	16.130	891.408	676.840
244.059	16.082	890.995	676.273
245.074	16.167	890.248	675.988
246.088	16.287	889.459	675.811
247.103	16.234	889.190	675.332
248.117	16.350	888.451	675.178
249.132	16.435	888.290	675.333
250.147	16.480	887.640	674.960
251.161	16.548	886.902	674.610
252.176	16.525	886.247	673.960
253.190	16.686	885.561	674.019
254.205	16.765	885.191	673.993
255.220	16.708	884.206	672.957
256.234	16.751	883.505	672.533
257.249	16.805	883.070	672.358
258.263	16.671	882.609	671.416
259.278	16.694	881.370	670.506
260.293	16.707	880.829	670.088
261.307	16.694	880.715	669.890
262.322	16.800	879.845	669.585
263.336	16.797	878.826	668.739
264.351	16.791	878.673	668.541
265.366	16.722	878.011	667.707
266.380	16.683	877.234	666.901
267.395	16.744	876.566	666.575
268.409	16.836	875.374	665.971
269.424	16.975	874.265	665.613
270.439	16.906	873.840	664.961
271.453	16.770	873.486	664.100
272.468	16.875	872.950	664.043
273.482	16.698	872.723	663.118
274.497	16.776	871.869	662.718
275.512	16.757	871.187	662.065
276.526	16.684	870.982	661.568
277.541	16.868	870.339	661.739
278.555	16.948	869.794	661.580
279.570	16.993	869.638	661.578
280.585	16.982	868.362	660.503
281.599	16.880	867.583	659.455
282.614	16.921	866.946	659.074
283.628	16.851	866.518	658.417
284.643	16.878	865.705	657.844
285.657	17.044	865.113	657.984
286.672	17.081	864.490	657.593
287.687	16.977	864.257	656.955
288.701	16.965	863.459	656.244
289.716	17.078	862.954	656.239
290.730	17.072	862.193	655.578
291.745	16.995	861.788	654.915
292.760	17.132	861.267	654.990
293.774	17.206	860.460	654.602
294.789	17.060	859.921	653.572
295.803	17.010	859.215	652.786
296.818	17.155	858.227	652.534
297.833	17.177	857.836	652.266
298.847	17.134	857.280	651.621
299.862	17.078	857.135	651.238
300.876	17.264	856.099	651.104
301.891	17.270	855.656	650.733
302.906	17.287	855.106	650.324
303.920	17.481	854.731	650.722
304.935	17.506	854.188	650.344
305.949	17.543	853.168	649.652
306.964	17.443	852.519	648.721
307.979	17.490	852.239	648.627
308.993	17.353	852.078	647.927
310.008	17.353	851.485	647.417
311.022	17.487	850.507	647.126
312.037	17.378	850.233	646.446
313.052	17.334	849.485	645.654
314.066	17.246	848.710	644.675
315.081	17.182	848.137	643.938
316.095	17.209	847.533	643.527
317.110	17.276	847.178	643.454
318.125	17.357	846.321	643.052
319.139	17.343	845.706	642.476
320.154	17.258	845.728	642.112
321.168	17.412	844.815	641.944
322.183	17.443	844.488	641.756
323.197	17.302	844.123	640.891
324.212	17.546	843.335	641.155
325.227	17.402	842.629	640.017
326.241	17.473	842.458	640.099
327.256	17.361	841.689	639.037
328.270	17.409	840.988	638.630
329.285	17.470	840.600	638.506
330.300	17.454	839.915	637.871
331.314	17.403	839.367	637.208
332.329	17.466	839.300	637.337
333.343	17.597	838.817	637.403
334.358	17.670	837.947	636.955
335.373	17.673	837.581	636.634
336.387	17.627	837.262	636.166
337.402	17.636	837.525	636.342
338.416	17.753	837.074	636.380
339.431	17.779	836.440	635.936
340.446	17.806	836.108	635.729
341.460	17.960	835.981	636.151
342.475	17.800	835.674	635.265
343.489	17.973	835.073	635.396
344.504	17.918	834.684	634.839
345.519	17.930	834.032	634.329
346.533	18.110	833.381	634.446
347.548	17.869	832.891	633.125
348.562	17.833	832.057	632.300
349.577	17.723	831.713	631.577
350.592	17.856	830.958	631.438
351.606	17.950	829.685	630.763
352.621	17.754	829.232	629.639
353.635	17.912	828.782	629.823
354.650	17.822	828.463	629.196
355.665	17.843	828.072	628.919
356.679	17.847	827.467	628.417
357.694	18.005	826.495	628.205
358.708	17.989	825.974	627.696
359.723	17.943	825.183	626.869
360.738	17.950	824.603	626.401
361.752	18.033	824.170	626.320
362.767	18.109	823.793	626.258
363.781	18.061	823.500	625.803
364.796	18.251	822.791	625.904
365.810	18.326	822.528	625.924
366.825	18.456	822.329	626.190
367.840	18.311	821.812	625.212
368.854	18.162	821.319	624.238
369.869	18.242	821.043	624.265
370.883	18.338	820.471	624.124
371.898	18.366	820.148	623.927
372.913	18.419	819.092	623.260
373.927	18.304	819.042	622.747
374.942	18.382	818.732	622.742
375.956	18.255	818.824	622.295
376.971	18.571	817.774	622.589
377.986	18.531	817.120	621.889
379.000	18.588	816.545	621.602
380.015	18.367	816.805	620.946
381.029	18.562	815.840	620.862
382.044	18.596	815.325	620.540
383.059	18.613	814.485	619.908
384.073	18.574	814.071	619.396
385.088	18.499	813.376	618.542
386.102	18.592	812.711	618.317
387.117	18.525	811.888	617.393
388.132	18.525	811.355	616.934
389.146	18.492	811.178	616.628
390.161	18.645	810.491	616.598
391.175	18.597	810.211	616.159
392.190	18.544	809.676	615.507
393.205	18.530	809.223	615.059
394.219	18.435	809.166	614.621
395.234	18.320	808.465	613.622
396.248	18.398	808.163	613.617
397.263	18.382	807.962	613.351
398.278	18.357	807.330	612.729
399.292	18.381	806.884	612.422
400.307	18.430	806.362	612.149
401.321	18.439	805.961	611.822
402.336	18.571	805.205	611.664
403.350	18.589	804.994	611.514
404.365	18.486	804.833	610.969
405.380	18.793	803.918	611.314
406.394	18.800	803.283	610.800
407.409	18.755	803.443	610.711
408.423	18.805	803.135	610.597
409.438	19.008	802.464	610.756
410.453	19.104	801.786	610.528
411.467	19.118	801.162	610.046
412.482	19.085	801.295	609.978
413.496	19.007	801.104	609.500
414.511	19.064	800.677	609.325
415.526	19.059	799.952	608.701
416.540	19.062	799.707	608.471
417.555	19.013	799.134	607.809
418.569	19.080	798.660	607.630
419.584	19.234	798.061	607.666
420.599	19.156	797.445	606.869
421.613	155.721	1369.865	1789.767
422.628	134.929	1453.272	1789.882
