DTS Sentinel unit serial number:	SN413079Multiplexer serial number:	ORYXHardware model number:	OX4-SRSoftware version number:	ORYX F/W v4.00 Oryx Data Collector v3.7.2.0data status	okinstallation	princeton_trtdifferential loss correction	single-endedforward channel	channel 1reverse channel	N/Adate	2019/09/16time	19:34:35forward acquisition time	60.00reverse acquisition time	0.00gamma	496.2192k internal	0.2316k external	0.2316temperature offset calibration	0.9959default loss term (dB/km)	0.3790temperature slope calibration	1.0000multiplexer offset coefficient	1.0000multiplexer slope coefficient	1.0000fibre end	0.00T internal ref (°C)	34.31T ext. ref 1 (°C)	0.08T ext. ref 2 (°C)	27.26length (m)	temperature (°C)	Stokes	anti-Stokes-747.200	-127.018	0.076	-0.011
-746.185	800.000	-0.020	-0.060
-745.171	237.635	-0.168	-0.282
-744.156	-135.971	-0.352	0.042
-743.142	640.301	-0.088	0.228
-742.127	-200.000	0.033	0.393
-741.112	-10.786	0.184	-0.124
-740.098	-119.146	-0.272	-0.048
-739.083	5.799	-0.164	-0.123
-738.069	-85.312	0.087	0.028
-737.054	-28.481	0.106	-0.062
-736.039	-152.374	-0.355	0.026
-735.025	-112.137	0.142	0.029
-734.010	41.770	-0.451	-0.414
-732.996	-200.000	-0.023	-0.212
-731.981	800.000	0.099	-0.346
-730.966	17.161	0.151	-0.121
-729.952	-43.793	-0.238	0.121
-728.937	-114.211	-0.294	-0.057
-727.923	800.000	-0.057	-0.226
-726.908	-10.823	0.122	-0.082
-725.894	-200.000	-0.020	0.099
-724.879	53.875	-0.352	-0.342
-723.864	363.497	0.058	-0.118
-722.850	423.944	0.148	-0.322
-721.835	227.222	0.195	0.322
-720.821	213.625	0.018	0.029
-719.806	-200.000	0.031	0.173
-718.791	116.203	0.176	-0.218
-717.777	-42.460	-0.245	-0.126
-716.762	361.672	0.192	0.390
-715.748	-106.408	-0.112	-0.025
-714.733	-67.559	0.278	0.110
-713.718	-154.818	-0.168	-0.011
-712.704	55.026	0.110	-0.108
-711.689	53.811	0.079	-0.077
-710.675	88.074	-0.059	-0.067
-709.660	-200.000	0.012	0.155
-708.645	-200.000	0.006	0.169
-707.631	-200.000	0.003	-0.113
-706.616	-91.396	-0.532	-0.154
-705.602	-48.733	-0.060	0.029
-704.587	-47.987	-0.182	-0.089
-703.572	-200.000	0.007	0.033
-702.558	120.479	-0.290	-0.364
-701.543	-123.590	0.299	0.048
-700.529	-8.035	0.090	0.062
-699.514	-57.585	-0.120	0.053
-698.499	800.000	0.033	-0.134
-697.485	-166.673	-0.161	0.007
-696.470	-186.603	-0.429	0.006
-695.456	-200.000	-0.008	0.047
-694.441	-31.849	-0.210	-0.119
-693.426	-12.678	-0.179	-0.118
-692.412	-87.572	0.249	0.076
-691.397	189.900	-0.029	0.044
-690.383	-171.633	-0.251	0.008
-689.368	-42.126	0.346	0.179
-688.354	-108.433	0.332	-0.072
-687.339	53.122	-0.160	-0.155
-686.324	127.330	-0.160	-0.205
-685.310	-76.395	-0.279	-0.099
-684.295	-29.671	0.147	-0.085
-683.281	89.490	-0.136	-0.153
-682.266	-133.251	-0.167	0.021
-681.251	-200.000	-0.031	-0.193
-680.237	-52.589	0.146	0.068
-679.222	-39.457	0.287	-0.152
-678.208	24.572	0.117	-0.098
-677.193	-60.521	-0.261	0.112
-676.178	-200.000	0.019	-0.111
-675.164	312.024	-0.073	0.139
-674.149	-105.819	-0.179	0.041
-673.135	57.576	0.106	0.105
-672.120	-80.894	-0.082	0.027
-671.105	800.000	-0.082	-0.291
-670.091	-81.247	0.116	-0.039
-669.076	-149.113	-0.204	0.017
-668.062	-53.397	-0.438	-0.203
-667.047	-66.764	0.406	0.162
-666.032	-66.016	-0.154	-0.062
-665.018	300.511	0.224	0.417
-664.003	-16.121	-0.039	0.025
-662.989	-200.000	-0.025	-0.136
-661.974	-200.000	0.012	-0.078
-660.959	-76.227	0.129	-0.046
-659.945	-200.000	-0.007	-0.213
-658.930	-93.760	-0.139	-0.039
-657.916	141.663	-0.139	-0.185
-656.901	-106.197	0.367	0.083
-655.886	148.880	0.169	-0.231
-654.872	96.392	-0.237	-0.273
-653.857	261.725	0.066	-0.116
-652.843	800.000	0.021	-0.089
-651.828	128.616	-0.083	-0.107
-650.814	78.019	0.270	0.290
-649.799	-104.055	-0.192	-0.045
-648.784	-200.000	0.010	-0.107
-647.770	190.621	-0.089	0.135
-646.755	-5.618	-0.181	0.125
-645.741	55.452	-0.127	-0.124
-644.726	800.000	-0.089	-0.289
-643.711	47.493	0.127	0.120
-642.697	137.780	0.071	0.094
-641.682	126.497	0.012	-0.016
-640.668	-58.976	0.101	-0.044
-639.653	-158.938	-0.242	0.014
-638.638	-67.358	-0.167	0.066
-637.624	800.000	0.040	0.128
-636.609	800.000	-0.065	0.217
-635.595	-48.196	-0.037	-0.018
-634.580	-136.399	0.146	0.017
-633.565	494.941	-0.155	0.360
-632.551	412.933	0.116	-0.248
-631.536	115.139	0.161	-0.198
-630.522	-200.000	-0.004	0.181
-629.507	800.000	0.051	-0.214
-628.492	207.087	0.067	0.105
-627.478	16.595	0.230	-0.183
-626.463	10.159	0.256	-0.196
-625.449	21.280	-0.227	-0.186
-624.434	-200.000	-0.011	-0.104
-623.419	-14.098	-0.241	-0.157
-622.405	-200.000	-0.035	-0.171
-621.390	-6.883	-0.285	-0.195
-620.376	-70.940	0.263	-0.100
-619.361	-95.163	-0.442	-0.120
-618.346	36.406	0.062	-0.055
-617.332	-47.339	-0.146	-0.072
-616.317	-75.446	-0.047	-0.017
-615.303	-144.775	-0.152	-0.014
-614.288	-147.983	0.061	-0.005
-613.273	-59.254	-0.166	0.072
-612.259	-56.830	0.253	-0.113
-611.244	800.000	0.019	-0.082
-610.230	-3.761	-0.139	0.098
-609.215	-200.000	-0.040	0.335
-608.201	239.479	-0.013	-0.021
-607.186	-200.000	0.002	-0.197
-606.171	22.110	-0.135	0.111
-605.157	536.383	0.034	0.080
-604.142	565.577	0.115	-0.282
-603.128	800.000	-0.077	-0.260
-602.113	-200.000	-0.044	0.205
-601.098	181.783	-0.125	0.185
-600.084	-83.426	0.402	-0.130
-599.069	800.000	-0.024	0.074
-598.055	-200.000	-0.013	-0.111
-597.040	55.133	-0.134	0.131
-596.025	-22.707	0.240	0.146
-595.011	154.576	0.027	-0.037
-593.996	-15.463	0.209	0.134
-592.982	800.000	0.025	0.108
-591.967	-58.898	-0.257	-0.112
-590.952	-46.160	0.231	-0.114
-589.938	-68.484	0.179	0.070
-588.923	-200.000	0.007	-0.299
-587.909	560.740	-0.090	-0.218
-586.894	-75.186	0.291	0.105
-585.879	328.818	0.099	0.191
-584.865	304.026	-0.098	0.183
-583.850	800.000	-0.087	0.283
-582.836	-154.404	-0.249	0.017
-581.821	800.000	-0.024	-0.090
-580.806	-14.307	-0.108	0.070
-579.792	104.954	-0.072	0.086
-578.777	-63.323	0.227	-0.094
-577.763	-66.130	-0.148	0.060
-576.748	-15.692	-0.202	0.129
-575.733	-113.637	0.158	-0.031
-574.719	-200.000	-0.018	-0.222
-573.704	-190.528	0.144	-0.002
-572.690	178.601	-0.118	0.173
-571.675	-200.000	-0.004	-0.164
-570.661	-85.321	0.021	0.006
-569.646	-147.770	-0.341	0.029
-568.631	-155.803	0.417	0.027
-567.617	800.000	0.079	0.222
-566.602	-110.718	0.063	-0.013
-565.588	-21.162	-0.140	-0.086
-564.573	800.000	0.102	-0.287
-563.558	-71.084	0.353	-0.134
-562.544	-200.000	0.011	-0.104
-561.529	237.964	0.097	-0.161
-560.515	-52.667	0.071	-0.033
-559.500	-200.000	0.015	-0.308
-558.485	-72.092	0.185	0.069
-557.471	-106.393	0.097	-0.022
-556.456	192.731	0.110	0.167
-555.442	473.831	-0.040	0.091
-554.427	284.508	-0.157	-0.284
-553.412	152.277	0.114	0.157
-552.398	-200.000	-0.010	-0.149
-551.383	420.394	0.054	-0.117
-550.369	-200.000	0.017	-0.133
-549.354	-88.646	0.263	-0.079
-548.339	106.316	-0.168	-0.201
-547.325	-170.563	-0.130	-0.005
-546.310	417.635	-0.175	-0.375
-545.296	151.755	0.104	0.143
-544.281	296.217	-0.128	-0.235
-543.266	-39.524	0.104	0.055
-542.252	282.611	0.127	0.229
-541.237	-63.830	0.072	-0.030
-540.223	-200.000	0.041	0.370
-539.208	-174.023	-0.158	0.005
-538.193	-151.244	-0.262	-0.020
-537.179	-92.869	-0.153	0.043
-536.164	601.139	0.159	-0.396
-535.150	152.231	0.175	0.241
-534.135	0.734	0.112	-0.080
-533.121	-200.000	-0.012	-0.141
-532.106	47.200	0.169	-0.158
-531.091	-66.715	-0.081	-0.032
-530.077	-6.671	-0.062	0.042
-529.062	26.550	0.242	-0.203
-528.048	434.407	-0.033	0.071
-527.033	130.003	0.105	-0.134
-526.018	800.000	-0.057	-0.203
-525.004	-197.034	-0.379	-0.002
-523.989	-37.395	0.036	-0.019
-522.975	-200.000	0.009	0.358
-521.960	76.624	-0.187	-0.199
-520.945	-200.000	0.169	0.001
-519.931	73.798	-0.141	0.148
-518.916	-66.847	-0.188	-0.075
-517.902	230.503	-0.179	0.294
-516.887	80.296	0.158	-0.171
-515.872	-200.000	0.043	0.230
-514.858	-200.000	0.010	-0.291
-513.843	-142.739	0.119	0.012
-512.829	800.000	-0.087	0.312
-511.814	800.000	-0.040	0.173
-510.799	99.734	-0.077	-0.089
-509.785	8.869	-0.039	-0.030
-508.770	331.289	-0.097	0.188
-507.756	3.119	-0.138	-0.101
-506.741	-49.638	-0.113	-0.054
-505.726	-200.000	0.050	-0.336
-504.712	63.032	0.332	-0.334
-503.697	-26.947	-0.218	0.128
-502.683	-200.000	0.011	0.056
-501.668	293.495	-0.088	0.161
-500.653	-133.197	0.252	-0.032
-499.639	15.052	0.197	0.155
-498.624	357.940	-0.218	-0.436
-497.610	167.301	0.198	0.282
-496.595	800.000	-0.096	0.273
-495.581	-200.000	0.055	-0.312
-494.566	800.000	-0.056	0.221
-493.551	71.520	0.192	0.201
-492.537	18.921	-0.336	-0.270
-491.522	-54.607	0.087	0.040
-490.508	-200.000	0.044	0.208
-489.493	-200.000	0.004	0.229
-488.478	-200.000	-0.023	-0.103
-487.464	-77.869	0.227	0.079
-486.449	-53.192	-0.175	0.081
-485.435	483.358	-0.039	0.088
-484.420	-200.000	-0.001	0.076
-483.405	62.831	0.188	0.189
-482.391	29.668	0.130	-0.111
-481.376	443.846	0.113	0.249
-480.362	-121.063	-0.067	0.011
-479.347	-21.234	-0.098	-0.060
-478.332	64.472	0.058	-0.059
-477.318	72.584	-0.426	-0.445
-476.303	89.812	-0.020	-0.022
-475.289	-200.000	-0.038	-0.167
-474.274	-128.425	0.128	0.018
-473.259	123.932	0.052	-0.065
-472.245	53.621	-0.077	-0.074
-471.230	-10.242	0.263	-0.175
-470.216	64.230	-0.101	0.102
-469.201	-5.640	0.401	-0.275
-468.186	62.664	-0.332	-0.333
-467.172	-87.574	0.271	0.082
-466.157	92.664	0.125	0.141
-465.143	384.287	0.043	0.089
-464.128	-95.300	-0.059	0.016
-463.113	244.989	0.185	-0.311
-462.099	125.084	-0.034	0.043
-461.084	401.650	0.098	0.206
-460.070	-14.902	-0.106	0.068
-459.055	84.498	-0.134	0.147
-458.040	249.837	-0.159	0.270
-457.026	-200.000	-0.033	0.165
-456.011	-132.188	-0.144	0.019
-454.997	49.940	0.161	-0.152
-453.982	146.356	0.239	-0.321
-452.968	-136.759	-0.300	-0.035
-451.953	-127.009	-0.407	0.060
-450.938	28.180	-0.054	-0.045
-449.924	409.674	-0.075	-0.160
-448.909	-95.218	0.121	0.033
-447.895	-114.133	0.277	0.054
-446.880	183.490	-0.125	0.185
-445.865	708.334	-0.211	0.559
-444.851	59.535	-0.071	0.070
-443.836	-200.000	0.069	0.317
-442.822	-5.922	0.091	-0.063
-441.807	-200.000	0.019	0.153
-440.792	-188.862	0.103	0.001
-439.778	-103.467	-0.140	0.033
-438.763	210.492	0.079	-0.124
-437.749	-114.466	-0.336	0.065
-436.734	-150.660	-0.370	0.028
-435.719	-123.333	-0.337	0.054
-434.705	276.834	0.148	0.263
-433.690	58.537	0.135	0.133
-432.676	-86.776	-0.302	0.092
-431.661	251.270	-0.075	-0.127
-430.646	-108.088	0.065	-0.014
-429.632	-200.000	0.007	-0.257
-428.617	-38.533	-0.204	-0.108
-427.603	262.810	-0.046	0.080
-426.588	-96.186	-0.162	-0.043
-425.573	800.000	0.064	-0.179
-424.559	-200.000	0.008	0.049
-423.544	141.203	-0.141	0.187
-422.530	408.817	0.016	-0.034
-421.515	-2.125	0.154	0.108
-420.500	76.745	-0.167	-0.177
-419.486	-200.000	-0.002	-0.141
-418.471	-36.316	0.016	-0.009
-417.457	-72.036	-0.325	0.121
-416.442	-36.418	0.110	0.059
-415.428	800.000	0.034	0.113
-414.413	800.000	-0.047	-0.142
-413.398	800.000	-0.100	0.426
-412.384	800.000	-0.072	-0.225
-411.369	-103.673	-0.154	0.036
-410.355	712.418	0.026	-0.068
-409.340	-36.523	0.067	-0.036
-408.325	119.872	-0.100	-0.124
-407.311	59.594	-0.222	0.218
-406.296	-95.838	0.316	-0.084
-405.282	-200.000	0.041	-0.227
-404.267	-200.000	-0.020	0.163
-403.252	419.459	-0.002	-0.004
-402.238	-200.000	-0.028	-0.252
-401.223	296.445	-0.070	-0.129
-400.209	-67.719	0.148	-0.058
-399.194	484.912	-0.070	-0.160
-398.179	-120.079	0.308	0.053
-397.165	-200.000	0.033	-0.276
-396.150	800.000	-0.045	0.164
-395.136	-200.000	0.004	-0.153
-394.121	98.015	-0.165	-0.190
-393.106	-200.000	-0.063	0.295
-392.092	347.923	-0.046	-0.091
-391.077	-103.801	-0.218	0.051
-390.063	-200.000	-0.034	-0.263
-389.048	57.608	-0.094	-0.091
-388.033	800.000	-0.016	-0.063
-387.019	-93.008	0.383	-0.107
-386.004	409.898	0.134	-0.285
-384.990	-73.922	-0.148	-0.053
-383.975	800.000	-0.050	-0.192
-382.960	800.000	-0.063	-0.222
-381.946	1.194	-0.179	0.128
-380.931	-106.167	0.153	0.034
-379.917	-200.000	-0.012	-0.152
-378.902	166.345	0.006	-0.008
-377.888	-137.900	0.060	0.007
-376.873	189.005	0.055	-0.082
-375.858	146.171	0.166	0.223
-374.844	-77.796	0.173	0.060
-373.829	57.703	-0.088	0.086
-372.815	-26.016	0.236	0.139
-371.800	-64.031	0.171	0.070
-370.785	356.185	0.122	0.243
-369.771	352.630	0.081	-0.160
-368.756	-133.571	-0.160	0.020
-367.742	50.639	-0.145	0.137
-366.727	289.191	0.011	-0.021
-365.712	53.142	-0.279	0.266
-364.698	-200.000	0.064	0.293
-363.683	94.102	0.117	0.132
-362.669	-116.063	-0.199	-0.037
-361.654	-200.000	0.032	-0.153
-360.639	72.733	0.204	-0.212
-359.625	-200.000	-0.020	0.433
-358.610	64.314	-0.062	0.062
-357.596	93.673	-0.237	-0.268
-356.581	-200.000	0.028	0.226
-355.566	-58.860	0.124	0.053
-354.552	-20.678	-0.122	0.075
-353.537	800.000	0.024	0.068
-352.523	-85.388	-0.346	0.108
-351.508	-129.694	-0.180	0.025
-350.493	-9.171	0.136	0.091
-349.479	281.417	0.071	-0.127
-348.464	-133.301	-0.079	-0.010
-347.450	-33.307	0.114	-0.063
-346.435	486.626	0.035	-0.080
-345.420	57.052	0.192	-0.187
-344.406	111.000	0.137	-0.165
-343.391	-40.946	-0.144	0.074
-342.377	-200.000	0.013	-0.105
-341.362	-44.812	0.285	0.142
-340.348	-200.000	-0.017	-0.229
-339.333	-195.107	0.089	-0.001
-338.318	291.445	0.074	0.134
-337.304	-138.374	-0.187	-0.021
-336.289	30.804	-0.083	0.071
-335.275	92.155	0.162	0.182
-334.260	150.656	-0.060	0.081
-333.245	338.360	0.030	-0.059
-332.231	124.640	0.126	-0.159
-331.216	142.518	-0.071	0.094
-330.202	-27.027	-0.132	0.077
-329.187	335.032	-0.062	0.120
-328.172	-200.000	-0.072	-0.405
-327.158	-129.666	-0.141	-0.019
-326.143	-11.173	0.228	0.150
-325.129	-95.863	0.018	-0.005
-324.114	229.381	0.134	0.218
-323.099	-133.300	-0.208	0.026
-322.085	-200.000	0.035	0.194
-321.070	800.000	0.061	-0.169
-320.056	-33.802	-0.279	0.153
-319.041	-200.000	0.053	-0.279
-318.026	-44.161	-0.185	-0.092
-317.012	-146.524	-0.066	0.006
-315.997	-1.449	0.205	-0.144
-314.983	-53.081	-0.166	0.076
-313.968	41.129	0.096	-0.087
-312.953	-39.616	-0.228	-0.119
-311.939	-120.769	-0.256	0.043
-310.924	-49.814	-0.225	0.106
-309.910	-195.705	0.071	0.001
-308.895	-200.000	0.001	0.036
-307.880	-109.308	-0.274	0.058
-306.866	-200.000	-0.030	-0.194
-305.851	800.000	-0.053	0.162
-304.837	-200.000	-0.059	0.365
-303.822	-50.682	0.192	-0.090
-302.807	503.000	-0.056	-0.128
-301.793	25.197	0.129	0.107
-300.778	92.098	-0.187	0.210
-299.764	88.833	-0.159	-0.176
-298.749	800.000	0.083	0.270
-297.735	800.000	0.056	-0.216
-296.720	125.041	0.128	-0.161
-295.705	-200.000	-0.018	-0.123
-294.691	-117.483	-0.228	-0.041
-293.676	-106.849	0.021	-0.005
-292.662	-19.536	0.186	-0.115
-291.647	240.083	-0.208	-0.344
-290.632	58.625	0.337	-0.330
-289.618	-5.181	-0.215	-0.147
-288.603	-200.000	-0.017	0.137
-287.589	85.768	-0.344	0.376
-286.574	-200.000	0.060	0.314
-285.559	120.285	0.110	0.136
-284.545	296.367	0.113	0.207
-283.530	11.486	0.198	0.151
-282.516	22.090	0.106	-0.086
-281.501	-124.884	0.282	-0.043
-280.486	-200.000	0.028	0.242
-279.472	-91.823	-0.133	0.038
-278.457	135.378	0.121	-0.156
-277.443	717.792	-0.090	0.238
-276.428	-200.000	-0.023	-0.199
-275.413	-200.000	0.035	-0.596
-274.399	-200.000	-0.035	-0.256
-273.384	383.894	-0.012	-0.024
-272.370	-15.267	0.174	-0.110
-271.355	800.000	-0.060	0.210
-270.340	323.818	-0.098	0.186
-269.326	137.566	0.051	-0.066
-268.311	203.182	0.179	-0.276
-267.297	48.316	0.184	-0.171
-266.282	-55.336	-0.165	-0.074
-265.267	-61.083	0.075	0.032
-264.253	-200.000	0.002	0.183
-263.238	211.116	-0.195	0.305
-262.224	-200.000	0.007	0.257
-261.209	33.182	0.106	-0.092
-260.195	-25.364	-0.213	-0.125
-259.180	119.570	0.201	0.247
-258.165	-75.102	-0.266	-0.094
-257.151	81.180	-0.030	0.033
-256.136	-91.911	-0.356	-0.100
-255.122	126.727	0.110	-0.139
-254.107	366.316	0.061	0.121
-253.092	-21.831	-0.222	-0.134
-252.078	323.100	-0.148	0.281
-251.063	95.749	0.104	0.118
-250.049	-200.000	0.022	0.119
-249.034	165.008	-0.205	-0.288
-248.019	502.619	0.110	-0.252
-247.005	684.699	-0.086	0.223
-245.990	41.772	0.332	0.299
-244.976	193.336	-0.028	-0.042
-243.961	282.882	-0.099	-0.176
-242.946	88.731	-0.256	-0.282
-241.932	-95.154	0.115	0.031
-240.917	188.884	-0.194	0.288
-239.903	-110.338	0.205	-0.042
-238.888	-200.000	0.038	0.274
-237.873	-86.998	0.142	0.043
-236.859	502.068	0.118	-0.270
-235.844	-28.579	0.105	-0.060
-234.830	28.524	-0.258	-0.217
-233.815	-200.000	0.016	-0.233
-232.800	58.196	0.249	0.242
-231.786	800.000	-0.059	-0.170
-230.771	275.654	0.140	0.247
-229.757	48.906	0.150	-0.140
-228.742	800.000	0.063	-0.266
-227.727	113.496	0.063	-0.076
-226.713	224.609	-0.163	0.261
-225.698	-38.459	-0.046	-0.024
-224.684	455.496	-0.085	-0.188
-223.669	-80.107	0.078	0.026
-222.655	800.000	0.058	-0.219
-221.640	800.000	0.061	0.172
-220.625	144.715	0.101	-0.134
-219.611	79.455	-0.106	-0.113
-218.596	-112.954	0.281	0.055
-217.582	71.375	0.194	0.200
-216.567	-154.126	-0.158	-0.011
-215.552	158.074	-0.068	0.093
-214.538	-135.139	0.108	-0.013
-213.523	252.255	0.170	0.287
-212.509	-200.000	-0.003	-0.207
-211.494	-122.500	-0.321	-0.052
-210.479	-71.201	-0.150	0.056
-209.465	239.560	-0.098	0.162
-208.450	-92.032	0.111	-0.031
-207.436	-200.000	-0.032	-0.237
-206.421	800.000	-0.041	-0.117
-205.406	800.000	0.036	0.126
-204.392	-132.659	0.432	0.055
-203.377	56.940	-0.151	-0.145
-202.363	-200.000	0.075	0.379
-201.348	278.234	0.106	0.188
-200.333	-122.308	0.214	0.035
-199.319	-39.885	-0.265	0.137
-198.304	-73.569	-0.339	-0.122
-197.290	125.686	-0.165	0.207
-196.275	401.474	0.106	-0.220
-195.260	13.995	0.216	0.166
-194.246	9.143	0.075	0.056
-193.231	-52.340	0.249	-0.114
-192.217	-1.592	-0.086	0.060
-191.202	-70.288	-0.115	0.043
-190.187	-200.000	0.041	0.293
-189.173	-82.586	0.341	0.110
-188.158	-117.262	0.185	0.033
-187.144	-200.000	0.026	-0.122
-186.129	-85.478	0.136	-0.042
-185.114	800.000	-0.112	0.383
-184.100	-102.001	0.052	-0.012
-183.085	83.267	0.244	0.263
-182.071	0.717	-0.025	-0.018
-181.056	-10.547	-0.120	-0.079
-180.042	177.945	-0.174	0.251
-179.027	683.441	0.072	0.186
-178.012	272.328	-0.104	-0.181
-176.998	-46.012	0.279	0.136
-175.983	-28.958	0.095	-0.054
-174.969	-84.413	0.357	-0.112
-173.954	17.996	0.134	-0.106
-172.939	115.977	0.096	0.117
-171.925	26.660	-0.077	-0.064
-170.910	-200.000	0.013	-0.061
-169.896	-147.279	-0.165	0.014
-168.881	-10.730	0.125	0.082
-167.866	800.000	-0.056	0.205
-166.852	-158.942	-0.012	-0.001
-165.837	-200.000	-0.014	-0.073
-164.823	-200.000	-0.072	0.359
-163.808	800.000	0.084	-0.269
-162.793	-121.428	-0.077	0.013
-161.779	-200.000	-0.028	-0.205
-160.764	-200.000	0.030	0.195
-159.750	-120.901	0.087	0.014
-158.735	179.981	0.018	-0.027
-157.720	-94.960	0.248	0.066
-156.706	-132.290	0.268	-0.034
-155.691	-97.183	0.183	0.047
-154.677	-43.066	-0.259	-0.130
-153.662	-39.174	0.328	0.171
-152.647	49.903	0.180	0.168
-151.633	-200.000	-0.036	0.315
-150.618	338.550	-0.099	0.190
-149.604	-200.000	0.000	-0.139
-148.589	-53.046	0.357	-0.162
-147.574	-29.156	0.241	-0.137
-146.560	-175.832	0.165	0.004
-145.545	543.271	-0.085	-0.202
-144.531	475.473	-0.120	0.269
-143.516	249.564	-0.131	-0.220
-142.502	-100.905	0.110	-0.027
-141.487	515.805	-0.139	-0.321
-140.472	-21.981	-0.182	-0.110
-139.458	800.000	0.061	-0.222
-138.443	673.665	-0.107	0.275
-137.429	-200.000	-0.011	0.249
-136.414	800.000	-0.037	-0.132
-135.399	75.323	-0.051	0.053
-134.385	249.959	0.195	0.327
-133.370	-96.349	-0.182	-0.048
-132.356	-115.651	0.158	-0.029
-131.341	-109.545	0.185	-0.039
-130.326	-65.515	0.302	0.120
-129.312	-200.000	0.004	0.399
-128.297	-200.000	-0.029	0.180
-127.283	1.452	0.141	0.101
-126.268	800.000	-0.106	0.391
-125.253	-108.085	-0.270	-0.058
-124.239	-113.047	0.246	0.048
-123.224	164.200	-0.126	-0.176
-122.210	1.641	-0.263	0.187
-121.195	338.230	-0.240	0.462
-120.180	-200.000	0.051	0.335
-119.166	800.000	0.064	0.219
-118.151	-106.524	0.229	-0.050
-117.137	-109.527	0.367	-0.076
-116.122	-103.622	-0.327	-0.076
-115.107	-200.000	0.032	-0.405
-114.093	309.924	-0.049	-0.090
-113.078	257.649	0.027	0.046
-112.064	-90.914	0.106	0.030
-111.049	152.587	0.051	0.069
-110.034	-101.179	-0.218	0.053
-109.020	394.084	0.057	0.117
-108.005	-200.000	-0.007	-0.061
-106.991	-84.758	-0.106	0.033
-105.976	495.709	0.214	-0.486
-104.962	-13.740	-0.267	0.171
-103.947	-2.799	-0.108	-0.075
-102.932	-200.000	-0.008	-0.062
-101.918	32.494	0.126	0.107
-100.903	-122.953	0.331	-0.053
-99.889	-162.470	0.214	0.010
-98.874	-71.710	0.184	0.068
-97.859	800.000	0.078	0.246
-96.845	196.550	0.120	-0.180
-95.830	45.601	-0.230	0.210
-94.816	-49.996	0.524	-0.245
-93.801	-113.417	0.144	-0.028
-92.786	-92.238	-0.273	0.076
-91.772	-98.634	-0.082	0.021
-90.757	161.171	0.062	-0.085
-89.743	-200.000	-0.022	0.199
-88.728	800.000	0.042	0.136
-87.713	260.941	0.035	0.059
-86.699	52.975	0.086	0.081
-85.684	-43.233	0.355	-0.178
-84.670	-114.583	0.236	-0.045
-83.655	416.162	0.066	-0.138
-82.640	207.582	-0.125	0.193
-81.626	-96.098	-0.100	0.026
-80.611	800.000	-0.037	-0.116
-79.597	-5.512	-0.165	0.112
-78.582	388.994	0.136	0.278
-77.567	29.018	0.284	0.238
-76.553	478.668	-0.097	-0.216
-75.538	104.959	-0.298	0.347
-74.524	-107.846	0.095	0.020
-73.509	-200.000	-0.023	-0.128
-72.494	481.106	0.184	0.413
-71.480	751.175	-0.103	-0.274
-70.465	800.000	-0.071	0.220
-69.451	43.205	-0.094	-0.085
-68.436	341.028	-0.216	0.416
-67.422	-200.000	0.004	0.120
-66.407	318.798	0.096	-0.179
-65.392	-128.649	-0.286	0.040
-64.378	36.429	0.179	0.156
-63.363	-19.271	0.437	0.268
-62.349	-200.000	0.065	0.455
-61.334	113.163	-0.796	-0.952
-60.319	25.891	0.696	0.572
-59.305	232.939	-0.414	-0.670
-58.290	159.901	0.807	1.109
-57.276	558.739	0.608	1.446
-56.261	-200.000	94.551	557.253
-55.246	542.071	1371.523	3223.863
-54.232	158.246	2554.672	3493.741
-53.217	112.203	2156.622	2570.533
-52.203	45.544	1616.631	1471.877
-51.188	37.838	1354.710	1186.676
-50.173	34.600	1312.490	1130.513
-49.159	56.304	1358.436	1301.167
-48.144	59.480	1375.659	1336.696
-47.130	38.054	1333.842	1169.505
-46.115	34.446	1317.182	1133.454
-45.100	34.315	1311.966	1128.146
-44.086	34.171	1309.666	1125.271
-43.071	34.185	1307.280	1123.262
-42.057	34.090	1305.478	1121.107
-41.042	34.170	1303.667	1119.981
-40.027	34.269	1302.498	1119.510
-39.013	34.317	1300.086	1117.675
-37.998	34.081	1299.137	1115.430
-36.984	34.319	1296.644	1114.639
-35.969	34.297	1295.472	1113.458
-34.954	34.399	1293.401	1112.230
-33.940	34.412	1292.443	1111.437
-32.925	34.368	1291.549	1110.372
-31.911	34.440	1289.743	1109.190
-30.896	34.350	1288.208	1107.307
-29.881	34.461	1286.841	1106.728
-28.867	34.415	1285.578	1105.332
-27.852	34.520	1283.873	1104.433
-26.838	34.435	1282.893	1103.051
-25.823	34.405	1281.170	1101.353
-24.809	34.291	1280.524	1100.097
-23.794	34.406	1278.642	1099.099
-22.779	34.453	1277.112	1098.013
-21.765	34.312	1276.152	1096.334
-20.750	34.258	1275.199	1095.157
-19.736	34.277	1273.793	1094.017
-18.721	34.243	1272.733	1092.869
-17.706	34.364	1271.546	1092.498
-16.692	34.291	1269.992	1090.701
-15.677	34.321	1268.706	1089.725
-14.663	34.262	1268.191	1088.901
-13.648	34.278	1266.971	1087.907
-12.633	34.239	1265.990	1086.796
-11.619	34.239	1264.836	1085.764
-10.604	34.263	1264.178	1085.291
-9.590	34.280	1263.180	1084.488
-8.575	34.168	1262.220	1082.985
-7.560	34.203	1261.551	1082.566
-6.546	34.242	1260.594	1081.920
-5.531	34.246	1259.922	1081.327
-4.517	34.253	1258.845	1080.401
-3.502	34.246	1258.118	1079.695
-2.487	34.148	1257.444	1078.516
-1.473	34.085	1252.978	1074.286
-0.458	32.348	1237.555	1051.323
0.556	26.337	1219.323	1008.283
1.571	22.104	1224.594	988.783
2.586	20.878	1239.961	994.114
3.600	20.435	1229.069	982.787
4.615	15.106	1155.787	895.679
5.629	5.383	1078.374	786.877
6.644	0.449	1056.714	746.625
7.659	0.046	1054.021	742.670
8.673	-0.072	1053.062	741.344
9.688	-0.121	1051.534	739.962
10.702	0.243	1050.343	740.852
11.717	5.840	1057.221	773.285
12.731	14.690	1069.296	826.009
13.746	18.031	1072.158	844.686
14.761	17.126	1070.700	838.997
15.775	16.126	1068.611	832.352
16.790	15.122	1066.597	825.760
17.804	14.384	1064.921	820.759
18.819	14.082	1063.824	818.350
19.834	13.777	1062.950	816.107
20.848	13.485	1061.942	813.827
21.863	13.286	1060.831	811.923
22.877	13.136	1060.384	810.773
23.892	13.131	1059.592	810.074
24.907	13.038	1059.070	809.149
25.921	13.119	1058.485	809.026
26.936	13.135	1057.575	808.337
27.950	13.146	1056.646	807.608
28.965	13.324	1055.519	807.546
29.980	13.370	1053.863	806.430
30.994	13.379	1053.098	805.818
32.009	13.373	1052.075	804.934
33.023	13.343	1051.217	804.062
34.038	13.270	1050.532	803.112
35.053	13.271	1049.395	802.175
36.067	13.296	1048.355	801.429
37.082	13.292	1047.266	800.508
38.096	13.387	1046.949	800.657
39.111	13.310	1046.144	799.594
40.126	13.316	1044.641	798.408
41.140	13.006	1044.343	796.613
42.155	13.126	1042.901	796.021
43.169	13.056	1041.656	794.663
44.184	13.023	1041.026	793.950
45.199	12.984	1040.416	793.228
46.213	13.049	1039.196	792.540
47.228	13.090	1038.016	791.769
48.242	13.219	1036.877	791.445
49.257	13.286	1035.800	790.874
50.271	13.260	1035.062	790.115
51.286	13.267	1034.089	789.338
52.301	13.211	1033.559	788.597
53.315	13.087	1032.723	787.298
54.330	13.175	1031.242	786.517
55.344	13.176	1030.486	785.875
56.359	13.161	1030.010	785.372
57.374	13.284	1028.789	784.954
58.388	13.218	1027.528	783.611
59.403	12.999	1027.718	782.647
60.417	12.984	1026.649	781.693
61.432	13.025	1026.044	781.359
62.447	12.915	1025.200	780.126
63.461	13.002	1024.070	779.610
64.476	13.079	1023.028	779.111
65.490	12.920	1023.083	778.331
66.505	12.977	1021.864	777.605
67.520	13.122	1021.157	777.678
68.534	13.079	1020.632	777.007
69.549	13.184	1019.071	776.247
70.563	12.859	1019.410	774.908
71.578	12.903	1018.041	774.005
72.593	13.007	1017.308	773.867
73.607	13.088	1016.496	773.561
74.622	12.935	1016.031	772.423
75.636	12.934	1015.514	771.955
76.651	12.990	1014.412	771.313
77.666	13.162	1013.837	771.609
78.680	12.964	1013.501	770.359
79.695	12.903	1013.073	769.681
80.709	13.111	1012.350	770.035
81.724	13.162	1011.447	769.516
82.739	13.069	1011.118	768.768
83.753	13.202	1010.089	768.533
84.768	13.353	1008.895	768.261
85.782	13.381	1008.039	767.670
86.797	13.436	1006.969	767.040
87.812	13.246	1006.502	765.737
88.826	13.154	1005.417	764.417
89.841	13.181	1004.726	763.952
90.855	13.224	1003.790	763.368
91.870	13.235	1002.996	762.748
92.884	13.386	1002.151	762.735
93.899	13.330	1001.263	761.733
94.914	13.374	1000.340	761.166
95.928	13.337	999.805	760.524
96.943	13.297	998.903	759.584
97.957	13.302	998.022	758.872
98.972	13.249	997.213	757.946
99.987	13.270	996.536	757.461
101.001	13.268	995.041	756.250
102.016	13.238	994.327	755.503
103.030	13.285	993.149	754.753
104.045	13.361	992.604	754.619
105.060	13.284	991.858	753.633
106.074	13.199	991.094	752.600
107.089	13.225	989.931	751.767
108.103	13.000	989.209	750.130
109.118	13.170	988.441	750.253
110.133	13.172	986.843	748.982
111.147	13.185	986.385	748.630
112.162	13.174	985.693	747.988
113.176	13.301	984.884	747.881
114.191	13.330	984.436	747.610
115.206	13.299	983.437	746.645
116.220	13.272	982.429	745.689
117.235	13.259	981.755	745.055
118.249	13.263	980.848	744.318
119.264	13.211	980.433	743.700
120.279	13.211	979.636	743.032
121.293	13.175	978.839	742.202
122.308	13.193	978.107	741.662
123.322	13.082	977.132	740.357
124.337	13.166	976.008	739.815
125.352	13.133	975.050	738.877
126.366	13.159	974.279	738.344
127.381	13.160	972.957	737.282
128.395	13.055	972.459	736.369
129.410	13.207	971.092	735.948
130.424	13.127	970.432	735.028
131.439	13.330	969.625	735.254
132.454	13.314	968.768	734.467
133.468	13.278	968.145	733.770
134.483	13.316	967.033	733.031
135.497	13.349	966.129	732.425
136.512	13.296	965.474	731.628
137.527	13.278	964.821	730.992
138.541	13.251	964.302	730.415
139.556	13.292	963.489	729.914
140.570	13.301	962.560	729.185
141.585	13.554	961.723	729.604
142.600	13.554	961.304	729.217
143.614	13.501	959.567	727.606
144.629	13.554	959.109	727.425
145.643	13.393	958.674	726.323
146.658	13.426	957.250	725.325
147.673	13.389	956.382	724.441
148.687	13.404	955.580	723.834
149.702	13.310	955.073	722.975
150.716	13.342	954.012	722.250
151.731	13.270	953.782	721.697
152.746	13.395	952.971	721.565
153.760	13.431	952.008	720.928
154.775	13.465	951.678	720.763
155.789	13.522	950.817	720.295
156.804	13.439	949.786	719.088
157.819	13.476	949.550	719.009
158.833	13.534	948.987	718.771
159.848	13.621	948.148	718.448
160.862	13.419	947.250	716.831
161.877	13.327	946.475	715.782
162.892	13.580	944.909	715.627
163.906	13.501	944.172	714.665
164.921	13.416	943.528	713.746
165.935	13.482	942.494	713.187
166.950	13.540	941.610	712.702
167.964	13.582	940.642	712.088
168.979	13.528	940.168	711.433
169.994	13.629	939.039	710.949
171.008	13.709	938.199	710.593
172.023	13.524	937.999	709.587
173.037	13.546	936.996	708.861
174.052	13.616	936.365	708.619
175.067	13.674	935.696	708.299
176.081	13.577	935.424	707.617
177.096	13.626	934.612	707.149
178.110	13.482	934.536	706.415
179.125	13.606	933.325	705.964
180.140	13.748	933.001	706.262
181.154	13.670	932.809	705.718
182.169	13.784	932.117	705.617
183.183	13.803	931.139	704.897
184.198	13.797	930.641	704.432
185.213	13.814	929.996	703.954
186.227	13.745	929.180	702.982
187.242	13.824	928.701	702.890
188.256	13.947	928.107	702.902
189.271	13.918	927.347	702.141
190.286	13.807	926.608	701.050
191.300	13.734	925.600	699.917
192.315	13.661	924.933	699.042
193.329	13.653	924.662	698.745
194.344	13.794	924.267	698.975
195.359	13.759	923.556	698.229
196.373	13.818	923.366	698.271
197.388	13.947	922.329	697.969
198.402	13.980	922.059	697.841
199.417	14.059	921.223	697.480
200.432	13.992	921.236	697.143
201.446	14.016	920.546	696.663
202.461	14.115	919.806	696.454
203.475	13.980	919.708	695.751
204.490	13.921	918.588	694.597
205.504	14.003	917.780	694.267
206.519	13.928	917.117	693.393
207.534	14.055	916.269	693.220
208.548	14.091	915.442	692.681
209.563	14.009	915.053	691.984
210.577	14.100	914.262	691.704
211.592	14.144	913.570	691.302
212.607	14.321	912.482	691.152
213.621	14.267	912.170	690.632
214.636	14.208	911.307	689.672
215.650	14.119	910.709	688.790
216.665	14.225	910.139	688.736
217.680	14.218	909.489	688.154
218.694	14.315	908.682	687.883
219.709	14.284	908.475	687.540
220.723	14.376	907.299	686.968
221.738	14.416	906.426	686.408
222.753	14.310	905.976	685.573
223.767	14.345	905.646	685.405
224.782	14.353	905.079	684.950
225.796	14.394	904.347	684.502
226.811	14.366	903.992	684.057
227.826	14.299	903.096	683.043
228.840	14.344	902.412	682.654
229.855	14.319	901.202	681.572
230.869	14.448	900.547	681.546
231.884	14.410	900.027	680.937
232.899	14.390	899.752	680.588
233.913	14.228	898.913	679.229
234.928	14.328	898.341	679.145
235.942	14.407	897.665	678.897
236.957	14.308	897.418	678.246
237.972	14.234	896.500	677.191
238.986	14.433	895.726	677.356
240.001	14.529	895.017	677.148
241.015	14.524	894.604	676.757
242.030	14.482	894.151	676.182
243.045	14.478	893.356	675.505
244.059	14.536	892.605	675.113
245.074	14.444	892.564	674.651
246.088	14.665	891.296	674.528
247.103	14.597	890.923	673.909
248.117	14.587	890.491	673.482
249.132	14.686	890.237	673.631
250.147	14.730	889.260	673.009
251.161	14.668	888.684	672.265
252.176	14.715	888.290	672.096
253.190	14.773	887.246	671.478
254.205	14.937	886.390	671.429
255.220	14.893	886.071	670.954
256.234	14.870	885.707	670.525
257.249	14.803	885.136	669.763
258.263	14.738	883.929	668.534
259.278	14.983	883.345	669.011
260.293	15.085	882.680	668.854
261.307	15.122	881.786	668.268
262.322	15.081	881.511	667.835
263.336	15.077	880.448	666.956
264.351	15.126	880.104	666.830
265.366	15.136	879.218	666.141
266.380	15.082	878.720	665.491
267.395	15.105	878.109	665.061
268.409	15.153	877.128	664.446
269.424	15.175	876.472	663.981
270.439	15.041	875.625	662.748
271.453	15.064	874.804	662.159
272.468	15.124	874.472	662.086
273.482	14.998	874.320	661.416
274.497	15.083	873.685	661.213
275.512	15.023	873.058	660.444
276.526	15.128	872.397	660.298
277.541	15.167	872.033	660.117
278.555	15.205	871.332	659.677
279.570	15.298	870.702	659.508
280.585	15.276	870.148	658.946
281.599	15.288	869.133	658.166
282.614	15.291	868.427	657.582
283.628	15.488	867.548	657.632
284.643	15.323	867.302	656.739
285.657	15.307	866.818	656.253
286.672	15.346	866.180	655.866
287.687	15.422	865.281	655.424
288.701	15.396	864.918	654.989
289.716	15.374	864.346	654.411
290.730	15.479	863.996	654.497
291.745	15.431	863.290	653.717
292.760	15.488	862.277	653.116
293.774	15.568	861.858	653.051
294.789	15.415	861.466	652.101
295.803	15.426	860.887	651.648
296.818	15.460	859.765	650.872
297.833	15.461	859.273	650.446
298.847	15.449	858.686	649.899
299.862	15.468	858.421	649.712
300.876	15.584	857.694	649.553
301.891	15.605	856.972	649.031
302.906	15.607	856.426	648.568
303.920	15.718	855.931	648.564
304.935	15.728	855.372	648.120
305.949	15.593	854.893	647.180
306.964	15.779	853.872	647.067
307.979	15.770	853.375	646.597
308.993	15.666	853.014	645.867
310.008	15.690	852.535	645.539
311.022	15.703	851.858	645.021
312.037	15.739	851.055	644.495
313.052	15.667	850.539	643.769
314.066	15.661	849.806	643.136
315.081	15.625	849.276	642.541
316.095	15.652	848.933	642.328
317.110	15.653	848.417	641.881
318.125	15.689	847.822	641.514
319.139	15.764	847.416	641.435
320.154	15.774	847.219	641.269
321.168	15.873	846.481	641.029
322.183	15.872	845.716	640.389
323.197	15.876	845.305	640.037
324.212	15.971	844.318	639.592
325.227	15.839	844.196	638.944
326.241	15.787	843.743	638.347
327.256	15.932	843.030	638.302
328.270	15.815	842.765	637.600
329.285	15.775	841.797	636.659
330.300	15.778	841.370	636.294
331.314	15.959	840.514	636.271
332.329	15.874	840.655	636.002
333.343	15.998	840.116	636.006
334.358	15.987	839.226	635.234
335.373	15.936	839.070	634.869
336.387	16.030	838.820	634.977
337.402	16.106	838.443	634.920
338.416	16.079	838.204	634.580
339.431	16.156	837.943	634.617
340.446	16.152	837.401	634.134
341.460	16.122	836.901	633.589
342.475	16.137	836.458	633.254
343.489	16.083	836.376	632.931
344.504	16.255	835.665	632.985
345.519	16.330	834.900	632.627
346.533	16.294	834.452	632.099
347.548	16.341	833.562	631.543
348.562	16.222	833.139	630.722
349.577	16.367	832.832	630.975
350.592	16.126	832.411	629.703
351.606	16.198	831.340	629.105
352.621	16.209	830.734	628.630
353.635	16.297	829.909	628.279
354.650	16.328	829.342	627.908
355.665	16.262	828.873	627.253
356.679	16.294	828.148	626.767
357.694	16.436	827.574	626.807
358.708	16.386	826.892	626.050
359.723	16.264	826.810	625.479
360.738	16.277	825.980	624.843
361.752	16.471	825.329	625.012
362.767	16.449	824.812	624.486
363.781	16.579	824.045	624.329
364.796	16.595	824.034	624.322
365.810	16.530	823.524	623.641
366.825	16.647	822.996	623.617
367.840	16.702	822.539	623.421
368.854	16.555	821.970	622.393
369.869	16.750	821.486	622.688
370.883	16.642	821.152	621.983
371.898	16.664	820.577	621.574
372.913	16.710	820.527	621.648
373.927	16.696	819.961	621.113
374.942	16.738	819.363	620.762
375.956	16.710	819.128	620.424
376.971	16.824	818.665	620.437
377.986	16.867	818.060	620.080
379.000	16.901	817.731	619.899
380.015	16.887	817.188	619.384
381.029	17.022	816.553	619.339
382.044	16.984	816.006	618.732
383.059	16.890	815.432	617.899
384.073	16.921	814.536	617.280
385.088	16.699	814.395	616.308
386.102	16.865	813.689	616.324
387.117	16.906	812.878	615.802
388.132	16.837	812.601	615.289
389.146	16.815	812.263	614.898
390.161	16.827	811.431	614.257
391.175	16.940	811.285	614.503
392.190	16.918	810.916	614.087
393.205	16.880	810.323	613.448
394.219	16.929	809.894	613.246
395.234	16.802	809.552	612.473
396.248	16.818	809.154	612.176
397.263	16.861	808.784	611.999
398.278	16.983	807.886	611.703
399.292	16.976	807.433	611.281
400.307	16.842	807.203	610.569
401.321	16.905	806.923	610.531
402.336	16.991	806.410	610.397
403.350	16.935	806.052	609.872
404.365	16.964	805.621	609.597
405.380	17.153	804.604	609.450
406.394	17.240	804.325	609.497
407.409	17.373	803.765	609.496
408.423	17.293	803.542	608.987
409.438	17.307	803.241	608.753
410.453	17.436	802.576	608.658
411.467	17.347	802.813	608.467
412.482	17.437	802.250	608.307
413.496	17.244	801.994	607.369
414.511	17.472	801.017	607.389
415.526	17.464	800.769	607.120
416.540	17.319	800.576	606.404
417.555	17.262	800.378	605.994
418.569	17.356	799.599	605.685
419.584	17.502	798.966	605.673
420.599	17.487	798.496	605.208
421.613	104.742	1286.197	1445.814
422.628	89.924	1357.241	1445.933
