DTS Sentinel unit serial number:	SN413079Multiplexer serial number:	ORYXHardware model number:	OX4-SRSoftware version number:	ORYX F/W v4.00 Oryx Data Collector v3.7.2.0data status	okinstallation	princeton_trtdifferential loss correction	single-endedforward channel	channel 1reverse channel	N/Adate	2019/09/13time	12:30:35forward acquisition time	60.00reverse acquisition time	0.00gamma	496.2192k internal	0.2306k external	0.2306temperature offset calibration	1.0169default loss term (dB/km)	0.3790temperature slope calibration	1.0000multiplexer offset coefficient	1.0000multiplexer slope coefficient	1.0000fibre end	0.00T internal ref (°C)	34.41T ext. ref 1 (°C)	4.61T ext. ref 2 (°C)	31.77length (m)	temperature (°C)	Stokes	anti-Stokes-747.200	137.279	0.096	0.128
-746.185	-60.610	0.262	0.113
-745.171	-159.042	0.085	0.005
-744.156	313.712	-0.093	0.178
-743.142	-121.664	0.351	-0.059
-742.127	-148.192	-0.201	-0.017
-741.112	66.474	-0.187	0.193
-740.098	-38.850	-0.170	0.091
-739.083	112.815	0.132	0.163
-738.069	800.000	-0.028	0.096
-737.054	-158.935	-0.311	0.018
-736.039	-58.995	-0.292	-0.128
-735.025	800.000	-0.070	0.302
-734.010	71.989	0.192	-0.203
-732.996	-37.099	-0.354	-0.192
-731.981	637.160	-0.076	0.196
-730.966	-8.334	0.067	-0.046
-729.952	70.413	-0.126	-0.132
-728.937	800.000	-0.090	0.384
-727.923	-169.392	-0.364	0.014
-726.908	-200.000	-0.008	-0.082
-725.894	-37.105	-0.199	0.108
-724.879	-86.512	-0.158	-0.049
-723.864	-93.691	-0.389	0.109
-722.850	-200.000	-0.038	-0.277
-721.835	-65.155	-0.507	0.208
-720.821	-75.922	-0.101	0.036
-719.806	800.000	-0.096	-0.327
-718.791	-200.000	-0.022	0.445
-717.777	61.198	-0.208	-0.210
-716.762	537.323	-0.045	0.108
-715.748	139.913	-0.211	-0.282
-714.733	71.313	0.143	0.151
-713.718	800.000	-0.082	-0.256
-712.704	-200.000	0.025	-0.123
-711.689	-200.000	-0.002	-0.251
-710.675	-107.939	-0.038	-0.008
-709.660	-76.796	-0.301	-0.107
-708.645	-200.000	0.020	0.137
-707.631	-200.000	0.010	0.200
-706.616	63.581	0.147	0.150
-705.602	-200.000	-0.008	0.191
-704.587	-200.000	0.008	-0.246
-703.572	22.249	-0.147	-0.122
-702.558	-136.474	0.239	0.028
-701.543	-37.820	0.087	0.047
-700.529	199.688	-0.042	0.066
-699.514	-60.809	0.285	0.122
-698.499	-88.086	0.165	-0.050
-697.485	-53.123	0.448	-0.209
-696.470	119.076	-0.015	0.019
-695.456	-49.361	0.137	0.066
-694.441	-104.170	-0.110	-0.026
-693.426	595.752	0.086	-0.216
-692.412	-200.000	-0.014	-0.082
-691.397	592.099	-0.122	0.307
-690.383	-200.000	0.024	-0.317
-689.368	46.588	0.236	0.223
-688.354	448.805	0.233	0.521
-687.339	17.884	0.068	-0.055
-686.324	2.138	0.157	-0.115
-685.310	-34.955	-0.209	0.116
-684.295	2.871	0.084	-0.062
-683.281	289.035	-0.147	0.271
-682.266	-120.446	-0.318	0.055
-681.251	90.760	0.059	-0.068
-680.237	-122.614	-0.239	0.039
-679.222	-200.000	0.031	-0.151
-678.208	-23.056	0.208	-0.127
-677.193	800.000	-0.085	-0.276
-676.178	-42.681	0.294	-0.152
-675.164	800.000	-0.096	-0.324
-674.149	-81.130	0.108	0.036
-673.135	390.413	0.062	-0.130
-672.120	32.521	-0.296	-0.260
-671.105	-116.665	0.129	-0.024
-670.091	5.049	0.238	-0.178
-669.076	-200.000	-0.081	-0.464
-668.062	464.758	-0.065	-0.148
-667.047	-200.000	0.035	0.167
-666.032	-99.508	-0.069	-0.018
-665.018	152.904	-0.082	0.113
-664.003	-114.074	0.160	-0.031
-662.989	33.974	-0.391	0.345
-661.974	800.000	-0.055	-0.234
-660.959	800.000	0.029	-0.088
-659.945	800.000	0.091	0.318
-658.930	-112.712	-0.179	-0.036
-657.916	232.391	-0.210	0.349
-656.901	78.304	-0.141	-0.152
-655.886	41.110	-0.112	-0.102
-654.872	235.962	-0.040	0.067
-653.857	1.533	-0.180	0.131
-652.843	-85.779	-0.278	0.087
-651.828	-0.284	0.094	0.068
-650.814	-90.747	-0.349	0.102
-649.799	138.201	0.113	-0.150
-648.784	-126.810	-0.153	-0.023
-647.770	800.000	0.023	-0.066
-646.755	285.342	0.150	-0.274
-645.741	-173.957	0.050	0.001
-644.726	800.000	-0.043	-0.158
-643.711	100.651	0.010	-0.012
-642.697	-200.000	-0.042	-0.191
-641.682	-36.319	0.120	0.065
-640.668	680.955	-0.021	0.055
-639.653	800.000	0.052	-0.191
-638.638	61.848	0.191	0.193
-637.624	800.000	-0.021	0.090
-636.609	-86.454	0.261	0.081
-635.595	-59.636	0.122	0.053
-634.580	357.109	-0.028	0.056
-633.565	-200.000	0.015	-0.229
-632.551	624.522	-0.091	0.231
-631.536	89.419	-0.262	0.295
-630.522	-200.000	-0.023	0.470
-629.507	-200.000	-0.019	-0.176
-628.492	629.164	-0.102	0.262
-627.478	-200.000	0.001	-0.232
-626.463	168.793	0.129	0.186
-625.449	-54.818	-0.291	0.133
-624.434	800.000	0.034	-0.135
-623.419	-200.000	0.066	0.567
-622.405	258.897	0.232	0.405
-621.390	-200.000	-0.001	0.382
-620.376	128.554	0.162	-0.209
-619.361	105.253	0.055	-0.066
-618.346	-102.673	-0.344	0.083
-617.332	-34.781	-0.268	0.148
-616.317	257.003	0.046	-0.080
-615.303	-38.693	-0.156	0.083
-614.288	-93.945	-0.345	-0.096
-613.273	8.895	0.301	-0.230
-612.259	129.548	0.108	-0.140
-611.244	-139.676	0.198	-0.021
-610.230	-28.018	-0.153	0.090
-609.215	170.976	-0.039	0.057
-608.201	55.198	-0.237	-0.232
-607.186	-59.513	0.073	0.032
-606.171	87.845	0.158	0.177
-605.157	-100.591	-0.106	0.027
-604.142	9.580	-0.059	-0.045
-603.128	392.144	0.068	-0.142
-602.113	-10.380	-0.106	0.071
-601.098	173.144	-0.166	-0.243
-600.084	-105.074	-0.479	0.111
-599.069	104.878	0.105	-0.125
-598.055	-21.533	0.289	-0.178
-597.040	-87.876	-0.171	0.052
-596.025	269.323	0.142	-0.252
-595.011	-200.000	0.034	-0.329
-593.996	319.516	0.206	-0.396
-592.982	2.439	0.113	0.083
-591.967	800.000	0.080	-0.290
-590.952	-119.824	0.123	-0.021
-589.938	6.495	-0.262	-0.197
-588.923	-160.478	0.154	0.008
-587.909	-191.736	-0.230	0.002
-586.894	151.199	-0.079	0.108
-585.879	12.046	0.322	0.250
-584.865	-151.975	-0.191	0.014
-583.850	276.815	0.131	0.235
-582.836	-99.137	0.106	0.027
-581.821	81.224	-0.091	-0.099
-580.806	-20.261	0.244	-0.152
-579.792	275.878	0.190	0.340
-578.777	517.023	-0.094	-0.223
-577.763	-179.505	0.358	0.008
-576.748	130.956	-0.178	-0.230
-575.733	-57.388	-0.357	0.159
-574.719	-96.534	0.121	0.032
-573.704	-3.132	0.290	0.204
-572.690	-200.000	-0.044	-0.252
-571.675	-9.982	-0.134	-0.090
-570.661	25.640	0.315	0.265
-569.646	-71.056	-0.124	-0.047
-568.631	-147.283	0.218	0.019
-567.617	-118.513	-0.215	-0.039
-566.602	205.623	-0.087	-0.136
-565.588	800.000	0.065	-0.249
-564.573	-200.000	-0.010	-0.237
-563.558	-114.767	-0.187	-0.036
-562.544	318.221	0.136	-0.260
-561.529	-200.000	0.049	0.283
-560.515	-23.265	-0.332	-0.202
-559.500	0.371	0.062	0.045
-558.485	-94.808	0.210	-0.058
-557.471	-157.155	-0.195	-0.012
-556.456	-98.177	-0.104	0.027
-555.442	-200.000	0.024	-0.184
-554.427	120.029	-0.083	0.104
-553.412	72.702	-0.141	-0.149
-552.398	37.663	-0.255	0.229
-551.383	354.123	-0.129	-0.258
-550.369	-59.795	0.183	0.079
-549.354	800.000	-0.095	0.333
-548.339	800.000	0.093	0.396
-547.325	-200.000	0.020	0.143
-546.310	-200.000	0.035	-0.187
-545.296	-28.793	-0.248	-0.144
-544.281	-0.864	-0.253	0.181
-543.266	130.429	-0.217	-0.280
-542.252	218.364	-0.077	0.123
-541.237	22.813	0.208	-0.172
-540.223	117.700	0.093	-0.115
-539.208	-200.000	0.008	-0.107
-538.193	574.749	-0.047	0.116
-537.179	38.210	-0.204	-0.183
-536.164	183.464	0.066	0.099
-535.150	-10.764	0.048	-0.032
-534.135	-114.242	-0.065	-0.013
-533.121	800.000	-0.084	0.247
-532.106	800.000	0.022	-0.076
-531.091	393.721	0.070	-0.147
-530.077	-177.282	-0.024	-0.001
-529.062	-94.657	-0.434	-0.119
-528.048	800.000	-0.091	0.324
-527.033	-10.800	0.156	0.104
-526.018	-67.693	0.245	-0.097
-525.004	-123.440	-0.197	-0.032
-523.989	800.000	-0.082	0.291
-522.975	-200.000	-0.008	-0.158
-521.960	800.000	0.048	0.191
-520.945	-93.775	0.176	0.049
-519.931	-173.919	-0.105	0.003
-518.916	438.881	-0.063	-0.138
-517.902	-0.362	0.233	0.167
-516.887	49.172	0.147	-0.140
-515.872	-167.260	-0.022	0.001
-514.858	-200.000	-0.045	0.211
-513.843	-103.697	-0.376	0.089
-512.829	452.859	0.016	0.036
-511.814	800.000	-0.069	0.304
-510.799	800.000	0.049	0.182
-509.785	7.269	0.071	-0.053
-508.770	-0.258	-0.081	0.058
-507.756	-35.709	-0.244	-0.134
-506.741	705.384	-0.087	0.231
-505.726	82.351	0.174	0.190
-504.712	298.789	0.068	0.126
-503.697	800.000	0.061	0.182
-502.683	800.000	-0.043	0.177
-501.668	127.735	0.118	0.151
-500.653	-200.000	-0.000	0.133
-499.639	80.310	-0.142	0.154
-498.624	-180.780	-0.278	0.006
-497.610	-98.193	-0.154	0.040
-496.595	28.190	0.305	-0.259
-495.581	157.078	-0.230	-0.321
-494.566	348.878	0.093	-0.185
-493.551	186.844	0.122	0.183
-492.537	-200.000	0.009	-0.127
-491.522	201.936	-0.132	0.204
-490.508	-84.634	-0.030	-0.010
-489.493	-200.000	0.024	-0.253
-488.478	80.699	-0.063	-0.068
-487.464	-89.552	0.415	-0.123
-486.449	14.730	-0.139	-0.109
-485.435	-121.497	0.205	0.034
-484.420	12.903	0.038	0.029
-483.405	66.459	0.129	-0.132
-482.391	-108.069	-0.191	0.042
-481.376	161.660	0.060	-0.084
-480.362	-36.141	0.147	0.080
-479.347	204.318	-0.060	-0.094
-478.332	-144.603	0.367	-0.034
-477.318	-10.634	-0.066	0.044
-476.303	-200.000	-0.055	0.298
-475.289	-77.348	-0.215	0.075
-474.274	0.894	0.197	-0.142
-473.259	-69.552	-0.309	0.119
-472.245	-14.332	0.234	0.152
-471.230	800.000	-0.032	-0.123
-470.216	498.753	-0.067	-0.155
-469.201	-126.302	0.120	-0.018
-468.186	-200.000	0.015	0.304
-467.172	-137.100	0.151	0.017
-466.157	414.718	0.132	-0.283
-465.143	-156.873	-0.298	0.018
-464.128	418.499	0.124	0.266
-463.113	184.833	-0.029	-0.044
-462.099	102.133	0.252	0.296
-461.084	-200.000	0.017	0.360
-460.070	49.725	0.103	0.098
-459.055	67.104	0.096	-0.098
-458.040	125.215	-0.233	0.295
-457.026	-19.266	-0.232	0.145
-456.011	-158.996	-0.300	0.017
-454.997	423.173	0.056	0.121
-453.982	79.230	0.137	0.148
-452.968	259.345	0.062	-0.108
-451.953	-152.378	-0.417	0.030
-450.938	290.531	-0.097	-0.177
-449.924	-92.643	0.239	-0.067
-448.909	-123.511	0.353	0.056
-447.895	-121.292	0.149	0.025
-446.880	-200.000	-0.016	-0.106
-445.865	-178.628	0.209	-0.005
-444.851	100.263	0.060	-0.070
-443.836	30.568	0.155	0.133
-442.822	-200.000	0.027	-0.166
-441.807	800.000	0.079	-0.318
-440.792	13.718	-0.065	0.050
-439.778	-58.470	0.114	-0.050
-438.763	-200.000	-0.038	-0.327
-437.749	57.425	-0.112	-0.110
-436.734	-200.000	-0.005	-0.055
-435.719	-200.000	-0.033	-0.152
-434.705	-164.622	0.297	0.014
-433.690	56.965	-0.107	-0.105
-432.676	800.000	0.086	0.285
-431.661	-200.000	-0.018	0.203
-430.646	-93.210	0.225	0.063
-429.632	-200.000	-0.018	-0.164
-428.617	-23.950	-0.131	-0.079
-427.603	781.973	0.078	-0.213
-426.588	-142.187	0.109	0.011
-425.573	2.766	0.144	-0.105
-424.559	-125.525	-0.152	-0.023
-423.544	-200.000	0.006	0.214
-422.530	-154.436	0.104	0.007
-421.515	212.035	-0.098	0.154
-420.500	-71.725	0.414	-0.155
-419.486	800.000	0.002	-0.008
-418.471	114.873	0.147	-0.180
-417.457	55.238	-0.502	-0.488
-416.442	-200.000	-0.034	-0.242
-415.428	-6.063	0.166	-0.114
-414.413	-84.110	-0.110	-0.035
-413.398	-76.861	0.216	-0.076
-412.384	38.126	0.188	0.168
-411.369	-19.823	0.154	-0.095
-410.355	-37.510	-0.303	-0.162
-409.340	612.206	-0.070	0.176
-408.325	111.066	0.163	-0.198
-407.311	68.424	-0.103	-0.106
-406.296	-149.121	-0.335	-0.027
-405.282	800.000	0.038	0.126
-404.267	-42.319	0.192	-0.098
-403.252	-0.785	0.149	-0.106
-402.238	800.000	-0.107	-0.315
-401.223	562.219	0.017	0.041
-400.209	123.020	-0.084	0.106
-399.194	366.441	-0.262	-0.531
-398.179	-200.000	0.043	0.203
-397.165	-77.935	-0.282	0.098
-396.150	300.004	0.081	0.150
-395.136	-75.735	0.209	0.074
-394.121	800.000	0.063	-0.273
-393.106	-200.000	0.004	0.165
-392.092	800.000	-0.020	-0.056
-391.077	561.318	0.061	-0.147
-390.063	121.912	-0.262	-0.328
-389.048	4.230	-0.104	-0.076
-388.033	-31.850	0.244	-0.137
-387.019	115.204	0.134	-0.164
-386.004	-6.597	0.051	0.035
-384.990	523.110	-0.072	-0.169
-383.975	-124.898	0.369	0.057
-382.960	238.732	-0.088	0.147
-381.946	18.447	0.048	-0.039
-380.931	188.527	0.085	0.128
-379.917	-200.000	-0.018	0.152
-378.902	800.000	0.083	-0.252
-377.888	-24.796	-0.423	0.252
-376.873	114.197	0.092	-0.113
-375.858	407.486	-0.048	-0.101
-374.844	-105.507	0.242	0.055
-373.829	-5.322	0.222	-0.153
-372.815	-200.000	0.032	-0.176
-371.800	-19.183	-0.351	-0.218
-370.785	47.367	0.259	-0.242
-369.771	-3.073	0.268	0.188
-368.756	340.506	0.040	0.079
-367.742	-13.457	-0.144	-0.093
-366.727	-66.887	0.234	-0.093
-365.712	47.090	0.259	0.241
-364.698	-90.223	0.229	-0.067
-363.683	-27.770	-0.294	0.171
-362.669	-200.000	-0.003	-0.060
-361.654	800.000	0.109	0.399
-360.639	198.211	-0.153	0.235
-359.625	800.000	0.079	0.239
-358.610	327.331	-0.038	0.074
-357.596	-29.185	-0.126	-0.073
-356.581	3.612	0.175	-0.128
-355.566	122.240	-0.162	0.202
-354.552	-200.000	0.002	-0.235
-353.537	-200.000	-0.088	-0.422
-352.523	575.371	0.040	0.098
-351.508	-148.424	0.260	0.021
-350.493	-64.188	-0.333	-0.136
-349.479	-28.808	-0.390	0.224
-348.464	61.489	0.120	-0.119
-347.450	38.166	0.043	-0.039
-346.435	-200.000	-0.027	0.327
-345.420	-117.586	-0.233	-0.042
-344.406	8.057	0.151	0.113
-343.391	44.236	0.105	0.097
-342.377	-69.756	0.162	0.062
-341.362	-120.584	-0.166	-0.028
-340.348	467.558	-0.117	-0.263
-339.333	59.934	0.102	0.101
-338.318	-117.879	0.200	0.036
-337.304	-138.232	0.143	-0.016
-336.289	166.999	-0.015	0.022
-335.275	-10.752	0.161	-0.107
-334.260	-116.018	0.243	-0.045
-333.245	-79.742	-0.175	-0.059
-332.231	-187.491	0.216	0.003
-331.216	800.000	-0.107	0.305
-330.202	-114.793	0.470	-0.090
-329.187	141.576	-0.059	0.078
-328.172	-146.628	0.191	-0.017
-327.158	561.994	0.064	-0.154
-326.143	-114.318	-0.341	-0.066
-325.129	-200.000	0.035	0.222
-324.114	298.756	-0.085	-0.157
-323.099	-53.594	-0.285	0.130
-322.085	-64.987	-0.355	0.144
-321.070	16.993	0.078	0.062
-320.056	0.898	-0.179	0.128
-319.041	269.246	0.105	0.184
-318.026	-200.000	-0.045	0.432
-317.012	800.000	-0.019	-0.062
-315.997	-200.000	0.014	0.148
-314.983	-118.844	0.214	0.038
-313.968	-29.769	-0.207	-0.118
-312.953	29.144	0.184	-0.156
-311.939	-200.000	-0.037	-0.390
-310.924	277.850	0.071	0.127
-309.910	106.231	-0.133	0.157
-308.895	301.306	-0.111	-0.206
-307.880	800.000	0.012	0.053
-306.866	785.064	-0.053	-0.147
-305.851	-200.000	0.097	-0.466
-304.837	105.343	0.098	-0.116
-303.822	44.496	-0.085	-0.078
-302.807	-200.000	-0.010	-0.192
-301.793	-200.000	-0.003	-0.136
-300.778	800.000	0.109	0.425
-299.764	-48.573	-0.144	0.069
-298.749	-60.997	-0.203	-0.086
-297.735	192.487	-0.158	-0.239
-296.720	-120.152	0.320	0.055
-295.705	-137.503	-0.227	0.026
-294.691	800.000	0.067	-0.293
-293.676	269.069	0.139	-0.244
-292.662	140.126	0.102	-0.135
-291.647	-155.767	-0.282	-0.018
-290.632	-105.841	-0.122	-0.028
-289.618	-200.000	0.029	-0.163
-288.603	-56.323	0.202	0.090
-287.589	7.904	0.163	0.122
-286.574	737.468	-0.088	-0.237
-285.559	800.000	0.031	0.095
-284.545	13.755	-0.211	-0.164
-283.530	-200.000	0.039	0.344
-282.516	-42.052	-0.280	0.143
-281.501	800.000	-0.101	-0.381
-280.486	6.357	-0.388	0.288
-279.472	128.496	-0.229	0.291
-278.457	54.369	-0.228	-0.219
-277.443	-200.000	0.027	0.180
-276.428	800.000	-0.017	-0.054
-275.413	121.891	0.243	0.303
-274.399	-152.332	0.369	0.027
-273.384	110.023	0.059	-0.071
-272.370	-200.000	0.013	0.291
-271.355	-48.824	-0.200	0.096
-270.340	800.000	0.100	0.414
-269.326	-11.627	-0.477	-0.313
-268.311	14.022	-0.349	0.271
-267.297	186.557	-0.161	0.239
-266.282	-5.361	-0.035	0.024
-265.267	-106.059	0.218	0.049
-264.253	-200.000	-0.009	0.207
-263.238	-200.000	0.028	0.192
-262.224	-200.000	0.031	-0.283
-261.209	-200.000	0.020	0.121
-260.195	107.266	-0.090	-0.107
-259.180	-31.963	0.225	0.126
-258.165	-34.542	-0.114	0.062
-257.151	93.560	0.015	0.017
-256.136	-200.000	-0.053	-0.415
-255.122	-50.087	0.201	0.095
-254.107	-200.000	-0.037	0.445
-253.092	343.010	0.083	0.163
-252.078	14.386	0.132	0.103
-251.063	-30.017	-0.242	-0.137
-250.049	-76.238	-0.268	0.094
-249.034	-200.000	-0.013	0.251
-248.019	800.000	0.050	-0.162
-247.005	-200.000	-0.017	0.079
-245.990	356.679	0.078	-0.155
-244.976	56.354	-0.141	0.136
-243.961	11.350	-0.137	-0.105
-242.946	88.296	-0.129	-0.143
-241.932	-200.000	-0.001	0.187
-240.917	624.405	-0.037	0.092
-239.903	-60.111	-0.128	-0.054
-238.888	670.308	-0.086	0.223
-237.873	-200.000	-0.050	-0.231
-236.859	-108.435	0.351	-0.075
-235.844	-76.290	0.340	0.119
-234.830	-61.598	-0.264	0.110
-233.815	-87.903	0.116	0.035
-232.800	67.845	-0.061	0.063
-231.786	-0.152	0.055	-0.039
-230.771	-200.000	0.002	-0.199
-229.757	-200.000	-0.030	-0.154
-228.742	-200.000	-0.017	-0.205
-227.727	-30.657	0.210	-0.119
-226.713	-145.956	-0.307	-0.027
-225.698	-37.041	-0.198	0.106
-224.684	-200.000	-0.117	0.586
-223.669	-50.274	-0.314	-0.148
-222.655	-6.375	0.305	0.208
-221.640	800.000	0.093	-0.283
-220.625	-200.000	0.037	0.254
-219.611	107.678	-0.199	-0.236
-218.596	41.661	0.150	0.135
-217.582	-200.000	0.002	0.240
-216.567	-200.000	-0.249	-0.000
-215.552	-200.000	0.004	0.041
-214.538	-52.101	0.120	-0.055
-213.523	289.006	-0.063	-0.113
-212.509	101.912	0.031	-0.036
-211.494	441.435	-0.127	-0.277
-210.479	570.042	0.104	-0.251
-209.465	28.852	0.289	-0.244
-208.450	513.059	-0.149	0.345
-207.436	-89.697	0.125	-0.036
-206.421	-90.200	-0.240	0.070
-205.406	191.021	0.082	0.122
-204.392	800.000	-0.053	0.205
-203.377	800.000	-0.061	0.243
-202.363	23.860	-0.224	0.184
-201.348	161.958	-0.183	0.255
-200.333	-58.674	0.131	0.056
-199.319	800.000	-0.074	0.279
-198.304	-89.281	0.417	-0.122
-197.290	298.714	0.129	-0.237
-196.275	800.000	0.031	0.096
-195.260	2.791	0.111	0.080
-194.246	727.977	-0.114	-0.302
-193.231	800.000	-0.051	-0.202
-192.217	-21.717	0.096	-0.058
-191.202	-200.000	0.017	-0.430
-190.187	-200.000	-0.028	-0.281
-189.173	800.000	0.056	-0.189
-188.158	-140.608	-0.270	-0.028
-187.144	-69.048	-0.183	-0.070
-186.129	-200.000	-0.011	-0.245
-185.114	-200.000	0.011	-0.235
-184.100	-200.000	-0.003	-0.050
-183.085	-51.758	0.213	0.099
-182.071	-200.000	-0.009	-0.122
-181.056	-180.795	0.059	0.001
-180.042	184.093	0.055	0.080
-179.027	800.000	-0.103	0.318
-178.012	-31.838	0.077	-0.043
-176.998	640.845	-0.052	0.132
-175.983	-193.179	-0.094	-0.001
-174.969	126.748	-0.097	-0.122
-173.954	-79.036	0.234	-0.079
-172.939	73.423	-0.125	0.130
-171.925	-140.073	0.271	0.028
-170.910	-200.000	0.033	0.317
-169.896	50.332	0.200	-0.188
-168.881	157.474	0.053	-0.073
-167.866	104.276	0.213	-0.250
-166.852	-64.072	0.166	-0.068
-165.837	-18.566	-0.224	-0.139
-164.823	-68.843	0.032	0.012
-163.808	155.371	0.185	0.253
-162.793	-62.993	0.177	0.073
-161.779	-23.379	-0.226	0.135
-160.764	-37.442	-0.221	-0.117
-159.750	800.000	-0.069	0.190
-158.735	-76.343	0.199	-0.070
-157.720	800.000	-0.027	-0.081
-156.706	-74.644	0.292	0.104
-155.691	74.365	0.203	0.212
-154.677	-34.096	0.119	0.065
-153.662	800.000	-0.039	-0.154
-152.647	-129.744	-0.247	0.034
-151.633	185.039	0.096	0.141
-150.618	-165.716	0.356	-0.015
-149.604	-200.000	0.067	0.365
-148.589	-200.000	0.004	0.338
-147.574	800.000	0.045	-0.190
-146.560	-14.593	0.141	0.090
-145.545	-131.679	-0.297	-0.039
-144.531	-64.322	-0.338	-0.137
-143.516	-61.052	0.143	-0.060
-142.502	-100.373	0.248	0.061
-141.487	44.305	0.061	-0.055
-140.472	152.972	-0.143	0.194
-139.458	237.491	0.047	-0.077
-138.443	-73.693	0.233	-0.084
-137.429	-33.192	0.023	-0.013
-136.414	800.000	0.062	0.253
-135.399	-154.397	0.148	0.010
-134.385	-111.558	0.105	0.021
-133.370	-168.549	-0.218	-0.008
-132.356	-52.472	0.165	-0.076
-131.341	161.155	-0.094	0.130
-130.326	-112.177	0.212	-0.042
-129.312	-27.874	-0.055	-0.032
-128.297	298.333	-0.221	0.404
-127.283	-200.000	0.014	-0.315
-126.268	-68.621	0.245	0.094
-125.253	800.000	-0.106	0.348
-124.239	127.081	0.086	0.108
-123.224	-125.035	-0.226	0.034
-122.210	762.007	0.111	0.300
-121.195	800.000	0.020	-0.056
-120.180	721.503	0.089	0.235
-119.166	-55.493	-0.267	-0.119
-118.151	-200.000	-0.024	0.118
-117.137	25.243	0.033	-0.027
-116.122	310.686	0.113	-0.210
-115.107	-119.264	0.197	0.034
-114.093	-24.174	-0.153	0.091
-113.078	120.825	-0.135	0.167
-112.064	97.087	0.211	0.240
-111.049	-120.924	0.142	-0.024
-110.034	66.761	-0.040	0.040
-109.020	148.291	0.156	-0.209
-108.005	-38.186	0.285	-0.150
-106.991	366.086	0.137	-0.275
-105.976	-200.000	-0.010	-0.131
-104.962	-200.000	0.001	-0.020
-103.947	-168.310	-0.194	0.007
-102.932	-124.237	-0.201	-0.031
-101.918	-74.610	-0.110	0.039
-100.903	-138.024	0.201	-0.022
-99.889	491.254	-0.035	0.080
-98.874	5.715	0.203	0.149
-97.859	46.522	0.094	0.087
-96.845	-29.679	-0.427	-0.242
-95.830	-200.000	0.006	-0.193
-94.816	-26.909	0.132	-0.076
-93.801	-76.624	0.121	0.042
-92.786	16.822	0.320	0.251
-91.772	-35.924	-0.069	0.037
-90.757	-200.000	-0.045	-0.409
-89.743	-51.519	-0.081	0.037
-88.728	75.300	0.110	-0.115
-87.713	800.000	0.057	-0.242
-86.699	-200.000	-0.035	-0.287
-85.684	-85.201	0.240	-0.074
-84.670	94.064	0.215	0.242
-83.655	-100.483	-0.319	0.078
-82.640	15.813	0.020	-0.016
-81.626	98.319	-0.152	-0.174
-80.611	800.000	-0.059	-0.232
-79.597	-200.000	-0.004	0.201
-78.582	51.696	-0.142	0.134
-77.567	208.951	0.182	-0.282
-76.553	-91.715	0.195	0.055
-75.538	-39.903	0.344	-0.178
-74.524	269.159	-0.117	0.204
-73.509	72.815	-0.222	0.230
-72.494	4.220	-0.064	0.047
-71.480	305.313	-0.074	0.135
-70.465	-49.881	0.114	-0.054
-69.451	-17.526	-0.207	0.129
-68.436	39.120	-0.139	-0.123
-67.422	241.369	-0.180	0.298
-66.407	469.142	-0.049	0.108
-65.392	38.449	0.070	0.062
-64.378	171.978	-0.099	0.141
-63.363	199.539	0.098	0.149
-62.349	42.659	0.127	0.115
-61.334	68.015	-0.859	-0.871
-60.319	57.051	0.380	0.367
-59.305	-200.000	-0.062	-0.568
-58.290	800.000	0.317	0.968
-57.276	256.213	0.779	1.325
-56.261	-200.000	95.804	558.647
-55.246	618.725	1390.860	3459.418
-54.232	184.356	2617.293	3838.334
-53.217	120.520	2201.165	2707.342
-52.203	46.217	1647.870	1511.592
-51.188	37.945	1380.136	1214.709
-50.173	34.615	1336.939	1156.510
-49.159	56.106	1385.668	1331.637
-48.144	59.898	1404.200	1372.746
-47.130	38.187	1358.520	1196.976
-46.115	34.508	1340.475	1158.734
-45.100	34.283	1335.631	1153.142
-44.086	34.225	1333.515	1150.915
-43.071	34.141	1331.540	1148.662
-42.057	34.187	1328.960	1146.665
-41.042	34.319	1327.272	1145.959
-40.027	34.319	1325.614	1144.485
-39.013	34.205	1323.861	1142.238
-37.998	34.331	1321.765	1141.141
-36.984	34.448	1319.690	1140.002
-35.969	34.426	1317.943	1138.320
-34.954	34.437	1316.447	1137.048
-33.940	34.402	1314.910	1135.466
-32.925	34.581	1313.636	1135.387
-31.911	34.482	1312.354	1133.645
-30.896	34.503	1310.813	1132.391
-29.881	34.378	1309.332	1130.324
-28.867	34.598	1307.691	1130.167
-27.852	34.529	1306.518	1128.702
-26.838	34.510	1305.192	1127.398
-25.823	34.490	1303.777	1126.011
-24.809	34.487	1302.099	1124.499
-23.794	34.445	1300.882	1123.155
-22.779	34.541	1299.102	1122.144
-21.765	34.562	1297.992	1121.261
-20.750	34.428	1297.285	1119.820
-19.736	34.368	1295.731	1118.082
-18.721	34.433	1293.985	1116.911
-17.706	34.441	1293.080	1116.132
-16.692	34.380	1291.774	1114.607
-15.677	34.446	1290.634	1113.960
-14.663	34.445	1289.483	1112.917
-13.648	34.343	1288.525	1111.454
-12.633	34.319	1287.649	1110.514
-11.619	34.225	1287.011	1109.372
-10.604	34.361	1285.833	1109.105
-9.590	34.354	1284.707	1108.044
-8.575	34.347	1283.789	1107.173
-7.560	34.294	1283.199	1106.311
-6.546	34.217	1282.760	1105.439
-5.531	34.289	1281.877	1105.055
-4.517	34.310	1280.473	1103.921
-3.502	34.244	1279.768	1102.887
-2.487	34.259	1279.014	1102.279
-1.473	34.403	1274.793	1099.430
-0.458	33.452	1259.553	1080.818
0.556	31.848	1240.965	1039.902
1.571	27.717	1244.835	1020.013
2.586	26.070	1258.798	1022.041
3.600	24.134	1246.154	1000.821
4.615	18.007	1171.591	908.380
5.629	9.121	1094.592	804.274
6.644	4.952	1073.625	768.280
7.659	4.605	1070.995	764.624
8.673	4.470	1069.459	762.799
9.688	4.434	1068.227	761.678
10.702	5.143	1067.056	764.245
11.717	10.710	1075.716	797.796
12.731	19.241	1087.370	848.562
13.746	22.431	1091.025	867.075
14.761	22.161	1089.695	864.614
15.775	21.251	1087.960	858.688
16.790	20.227	1085.821	851.898
17.804	19.603	1083.939	847.288
18.819	19.369	1083.497	845.718
19.834	19.110	1082.593	843.671
20.848	19.046	1081.815	842.677
21.863	18.836	1081.085	841.005
22.877	18.683	1080.230	839.516
23.892	18.736	1079.278	838.963
24.907	18.767	1078.647	838.550
25.921	18.603	1077.743	836.970
26.936	18.605	1076.349	835.826
27.950	18.590	1075.327	834.884
28.965	18.798	1073.638	834.508
29.980	19.010	1071.989	834.182
30.994	19.084	1071.236	833.879
32.009	19.137	1070.167	833.233
33.023	18.999	1069.173	831.716
34.038	18.995	1068.181	830.853
35.053	18.720	1067.342	828.800
36.067	18.811	1066.261	828.325
37.082	18.928	1065.365	828.120
38.096	18.917	1064.936	827.658
39.111	19.025	1064.105	827.458
40.126	18.861	1062.565	825.402
41.140	18.502	1061.625	822.874
42.155	18.452	1059.744	821.102
43.169	18.338	1058.380	819.428
44.184	18.317	1057.817	818.820
45.199	18.324	1057.137	818.256
46.213	18.571	1056.214	818.648
47.228	18.618	1055.302	818.095
48.242	18.798	1054.466	818.230
49.257	18.745	1053.290	816.992
50.271	18.773	1052.640	816.549
51.286	18.842	1051.916	816.241
52.301	18.772	1051.040	815.159
53.315	18.598	1049.786	813.290
54.330	18.506	1048.712	811.951
55.344	18.578	1047.166	811.020
56.359	18.574	1046.682	810.555
57.374	18.487	1045.745	809.350
58.388	18.402	1044.787	808.134
59.403	18.311	1044.175	807.158
60.417	18.425	1043.219	806.887
61.432	18.309	1042.442	805.667
62.447	18.217	1041.800	804.667
63.461	18.213	1041.002	803.962
64.476	18.161	1039.850	802.756
65.490	18.266	1038.877	802.427
66.505	18.233	1038.519	801.926
67.520	18.216	1037.753	801.183
68.534	18.227	1037.164	800.709
69.549	18.080	1036.307	799.288
70.563	18.110	1035.340	798.611
71.578	17.992	1034.345	797.222
72.593	17.891	1033.632	796.130
73.607	17.875	1033.056	795.543
74.622	18.072	1032.466	795.934
75.636	18.045	1031.911	795.310
76.651	18.111	1030.834	794.719
77.666	18.042	1030.412	794.004
78.680	18.155	1029.808	793.992
79.695	18.192	1028.944	793.426
80.709	18.458	1028.259	794.060
81.724	18.506	1027.868	793.909
82.739	18.466	1027.319	793.232
83.753	18.678	1026.812	793.750
84.768	18.968	1025.831	794.261
85.782	19.215	1024.774	794.513
86.797	19.152	1024.078	793.611
87.812	18.775	1023.596	791.430
88.826	18.947	1022.044	790.953
89.841	18.953	1021.406	790.418
90.855	19.032	1020.588	790.077
91.870	18.924	1020.333	789.315
92.884	18.999	1018.741	788.355
93.899	19.050	1017.887	787.858
94.914	19.115	1017.216	787.569
95.928	18.969	1016.418	786.213
96.943	18.998	1015.336	785.439
97.957	18.868	1014.289	783.964
98.972	18.896	1013.810	783.653
99.987	18.970	1012.943	783.251
101.001	19.078	1011.126	782.269
102.016	18.976	1010.772	781.462
103.030	19.052	1009.824	781.004
104.045	19.047	1009.345	780.542
105.060	18.810	1008.093	778.429
106.074	18.596	1006.787	776.386
107.089	18.323	1006.233	774.656
108.103	18.262	1004.851	773.248
109.118	18.333	1004.005	772.848
110.133	18.230	1002.753	771.349
111.147	18.197	1002.284	770.775
112.162	18.243	1001.355	770.196
113.176	18.419	1001.165	770.775
114.191	18.647	1000.177	770.973
115.206	18.594	999.179	769.897
116.220	18.398	998.438	768.380
117.235	18.470	997.384	767.820
118.249	18.366	996.441	766.562
119.264	18.352	995.849	765.974
120.279	18.378	995.037	765.400
121.293	18.120	994.028	763.403
122.308	18.058	993.206	762.427
123.322	18.101	991.957	761.594
124.337	18.133	991.126	761.032
125.352	18.141	989.798	759.977
126.366	18.223	988.904	759.592
127.381	18.072	988.215	758.323
128.395	18.185	987.141	757.931
129.410	18.234	986.172	757.338
130.424	18.224	986.170	757.225
131.439	18.545	984.984	757.668
132.454	18.461	984.013	756.483
133.468	18.399	983.900	756.056
134.483	18.487	982.372	755.202
135.497	18.488	981.795	754.694
136.512	18.545	980.920	754.207
137.527	18.533	980.059	753.426
138.541	18.465	979.878	752.920
139.556	18.680	978.509	752.746
140.570	18.773	978.043	752.727
141.585	18.978	976.975	752.736
142.600	18.948	976.581	752.238
143.614	19.074	976.116	752.362
144.629	19.146	975.059	751.797
145.643	18.995	973.780	750.085
146.658	18.836	972.862	748.619
147.673	18.663	971.697	746.903
148.687	18.634	970.857	746.065
149.702	18.541	970.037	744.962
150.716	18.609	968.749	744.202
151.731	18.543	968.157	743.397
152.746	18.497	967.542	742.662
153.760	18.619	967.245	742.895
154.775	18.661	967.070	742.874
155.789	18.782	965.925	742.456
156.804	18.893	965.396	742.463
157.819	18.798	965.077	741.738
158.833	18.993	964.382	741.981
159.848	19.043	963.137	741.175
160.862	18.962	962.060	739.929
161.877	18.753	960.639	737.875
162.892	18.542	959.565	736.080
163.906	18.467	958.552	734.913
164.921	18.468	958.035	734.457
165.935	18.610	957.063	734.256
166.950	18.681	956.468	734.038
167.964	18.719	955.655	733.510
168.979	18.614	954.723	732.283
169.994	18.497	953.639	730.885
171.008	18.684	953.055	731.173
172.023	18.933	952.052	731.397
173.037	18.987	951.917	731.458
174.052	18.956	950.974	730.535
175.067	18.672	949.692	728.282
176.081	18.528	949.564	727.508
177.096	18.511	948.789	726.778
178.110	18.619	948.028	726.590
179.125	18.782	947.495	726.806
180.140	18.680	946.996	725.927
181.154	18.977	946.573	726.794
182.169	19.008	946.610	726.890
183.183	19.148	945.755	726.759
184.198	19.020	945.173	725.707
185.213	19.177	944.076	725.462
186.227	19.148	943.754	725.030
187.242	19.313	942.922	725.021
188.256	19.354	942.460	724.772
189.271	19.255	941.558	723.600
190.286	18.880	940.331	721.019
191.300	18.431	939.480	718.422
192.315	18.476	938.881	718.087
193.329	18.431	938.776	717.755
194.344	18.675	938.126	718.217
195.359	18.883	937.240	718.346
196.373	18.952	936.892	718.301
197.388	19.262	936.565	719.284
198.402	19.289	936.193	719.045
199.417	19.462	935.480	719.157
200.432	19.456	935.198	718.848
201.446	19.614	935.028	719.314
202.461	19.652	934.542	719.035
203.475	19.569	933.341	717.702
204.490	19.210	932.816	715.742
205.504	19.241	931.414	714.731
206.519	19.145	930.656	713.691
207.534	19.060	930.420	713.093
208.548	18.965	929.488	711.922
209.563	19.170	929.124	712.430
210.577	19.308	928.448	712.417
211.592	19.418	928.246	712.656
212.607	19.488	927.399	712.230
213.621	19.415	926.560	711.224
214.636	19.434	925.654	710.540
215.650	19.398	925.092	709.899
216.665	19.449	924.517	709.604
217.680	19.731	923.752	710.113
218.694	19.635	923.346	709.343
219.709	19.577	922.616	708.484
220.723	19.471	921.990	707.505
221.738	19.475	921.260	706.900
222.753	19.774	920.214	707.257
223.767	19.648	920.142	706.623
224.782	19.669	919.706	706.312
225.796	19.781	919.070	706.218
226.811	19.647	918.245	704.976
227.826	19.536	917.442	703.844
228.840	19.522	916.332	702.874
229.855	19.455	915.791	702.124
230.869	19.405	914.893	701.170
231.884	19.415	914.355	700.736
232.899	19.342	913.403	699.648
233.913	19.429	912.435	699.199
234.928	19.172	912.535	698.170
235.942	19.099	911.824	697.267
236.957	19.223	911.560	697.506
237.972	19.300	910.642	697.054
238.986	19.351	909.703	696.480
240.001	19.292	909.532	696.049
241.015	19.290	908.658	695.310
242.030	19.511	908.200	695.790
243.045	19.569	907.964	695.780
244.059	19.554	906.934	694.868
245.074	19.540	906.817	694.660
246.088	19.696	906.266	694.806
247.103	19.841	905.072	694.412
248.117	19.993	904.863	694.801
249.132	20.180	904.918	695.531
250.147	20.323	904.405	695.649
251.161	20.410	903.626	695.335
252.176	20.397	902.905	694.666
253.190	20.573	902.152	694.730
254.205	20.522	901.743	694.149
255.220	20.467	901.169	693.424
256.234	20.405	900.015	692.229
257.249	20.336	899.993	691.877
258.263	20.358	898.421	690.695
259.278	20.444	898.260	690.853
260.293	20.372	897.546	689.956
261.307	20.519	897.273	690.267
262.322	20.607	896.303	689.812
263.336	20.629	895.468	689.195
264.351	20.734	894.809	689.040
265.366	20.632	894.101	688.033
266.380	20.577	893.824	687.541
267.395	20.442	892.926	686.255
268.409	20.411	891.991	685.352
269.424	20.544	891.063	685.105
270.439	20.338	890.397	683.719
271.453	20.377	889.935	683.456
272.468	20.087	889.564	681.970
273.482	20.370	888.866	682.488
274.497	20.211	888.231	681.318
275.512	20.190	888.048	681.033
276.526	20.389	887.094	681.020
277.541	20.315	886.978	680.581
278.555	20.611	886.343	681.197
279.570	20.604	886.093	680.913
280.585	20.820	884.703	680.629
281.599	20.477	883.737	678.489
282.614	20.335	883.372	677.594
283.628	20.479	882.804	677.660
284.643	20.516	881.864	677.021
285.657	20.438	881.708	676.537
286.672	20.543	880.954	676.310
287.687	20.555	880.198	675.716
288.701	20.706	879.459	675.676
289.716	20.482	878.940	674.346
290.730	20.645	878.718	674.750
291.745	20.680	877.696	674.039
292.760	20.696	877.287	673.730
293.774	20.790	877.002	673.815
294.789	20.739	876.681	673.309
295.803	20.583	875.122	671.450
296.818	20.505	874.443	670.569
297.833	20.562	874.179	670.528
298.847	20.621	873.433	670.125
299.862	20.649	873.091	669.911
300.876	20.646	872.663	669.512
301.891	20.904	872.038	669.966
302.906	20.978	871.675	669.912
303.920	21.002	871.331	669.677
304.935	21.039	870.674	669.257
305.949	21.044	869.798	668.542
306.964	20.964	868.888	667.479
307.979	20.916	868.499	666.935
308.993	21.070	868.011	667.091
310.008	21.037	867.312	666.368
311.022	21.035	866.500	665.678
312.037	20.772	866.215	664.398
313.052	20.608	865.249	662.972
314.066	20.527	864.591	662.103
315.081	20.612	863.958	661.883
316.095	20.580	863.506	661.353
317.110	20.721	862.563	661.111
318.125	20.719	862.357	660.886
319.139	20.583	862.016	660.051
320.154	20.778	861.635	660.439
321.168	20.779	860.721	659.683
322.183	20.741	860.692	659.459
323.197	20.787	860.086	659.110
324.212	20.755	859.745	658.669
325.227	20.754	858.871	657.937
326.241	20.699	858.197	657.156
327.256	20.721	857.505	656.653
328.270	20.841	856.681	656.414
329.285	20.731	856.512	655.812
330.300	20.866	855.258	655.303
331.314	20.810	855.366	655.116
332.329	20.935	855.044	655.282
333.343	20.999	854.546	655.083
334.358	21.092	854.099	655.030
335.373	21.065	853.725	654.583
336.387	21.228	853.429	654.912
337.402	21.229	853.168	654.656
338.416	21.308	853.371	655.051
339.431	21.569	852.806	655.537
340.446	21.526	852.384	654.993
341.460	21.547	851.778	654.548
342.475	21.579	851.414	654.331
343.489	21.426	851.666	653.894
344.504	21.774	850.751	654.432
345.519	21.713	850.227	653.745
346.533	21.685	849.480	653.010
347.548	21.372	848.850	651.301
348.562	21.251	847.908	650.068
349.577	21.292	847.137	649.572
350.592	21.174	846.668	648.719
351.606	21.046	845.955	647.637
352.621	21.171	845.319	647.559
353.635	21.302	844.586	647.425
354.650	21.206	844.396	646.868
355.665	21.327	843.695	646.721
356.679	21.498	842.825	646.629
357.694	21.587	842.337	646.526
358.708	21.412	841.782	645.397
359.723	21.382	841.470	644.989
360.738	21.423	840.897	644.644
361.752	21.493	840.509	644.545
362.767	21.693	839.539	644.481
363.781	21.725	839.439	644.464
364.796	21.755	838.946	644.141
365.810	21.919	838.560	644.388
366.825	21.943	838.422	644.314
367.840	21.839	837.612	643.255
368.854	21.788	837.081	642.602
369.869	21.715	836.814	642.073
370.883	21.707	836.299	641.592
371.898	21.874	836.004	641.919
372.913	21.961	835.277	641.621
373.927	21.667	835.008	640.286
374.942	21.876	834.189	640.365
375.956	22.049	833.694	640.558
376.971	22.083	833.588	640.542
377.986	22.154	833.161	640.419
379.000	22.093	832.904	639.940
380.015	22.052	832.404	639.353
381.029	22.173	831.225	638.829
382.044	22.184	830.473	638.233
383.059	22.210	830.070	637.961
384.073	22.189	828.998	637.004
385.088	21.868	828.700	635.557
386.102	21.752	827.966	634.518
387.117	21.733	827.107	633.737
388.132	21.842	826.932	633.940
389.146	21.887	826.549	633.754
390.161	22.108	826.142	634.184
391.175	22.129	825.829	633.961
392.190	21.996	825.362	633.066
393.205	21.842	824.514	631.807
394.219	21.757	824.154	631.167
395.234	21.818	823.539	630.862
396.248	21.560	823.237	629.645
397.263	21.578	822.840	629.351
398.278	21.625	822.518	629.218
399.292	21.741	821.675	628.932
400.307	21.863	820.888	628.714
401.321	21.631	821.043	627.943
402.336	21.771	820.640	628.080
403.350	21.913	820.015	628.056
404.365	22.005	819.850	628.203
405.380	22.270	819.124	628.537
406.394	22.353	818.498	628.298
407.409	22.283	818.488	627.988
408.423	22.393	818.225	628.121
409.438	22.625	817.550	628.375
410.453	22.605	817.269	628.033
411.467	22.592	816.968	627.698
412.482	22.636	816.749	627.631
413.496	22.747	816.368	627.679
414.511	22.580	815.960	626.714
415.526	22.535	815.127	625.861
416.540	22.569	814.602	625.520
417.555	22.557	814.228	625.135
418.569	22.609	814.211	625.253
419.584	22.668	813.328	624.727
420.599	22.568	813.182	624.207
421.613	160.157	1369.487	1790.863
422.628	139.494	1450.525	1790.962
