DTS Sentinel unit serial number:	SN413079Multiplexer serial number:	ORYXHardware model number:	OX4-SRSoftware version number:	ORYX F/W v4.00 Oryx Data Collector v3.7.2.0data status	okinstallation	princeton_trtdifferential loss correction	single-endedforward channel	channel 1reverse channel	N/Adate	2019/09/16time	19:42:35forward acquisition time	60.00reverse acquisition time	0.00gamma	496.2192k internal	0.2317k external	0.2317temperature offset calibration	0.9955default loss term (dB/km)	0.3790temperature slope calibration	1.0000multiplexer offset coefficient	1.0000multiplexer slope coefficient	1.0000fibre end	0.00T internal ref (°C)	34.03T ext. ref 1 (°C)	0.13T ext. ref 2 (°C)	27.02length (m)	temperature (°C)	Stokes	anti-Stokes-747.200	800.000	-0.036	0.153
-746.185	800.000	-0.088	0.322
-745.171	-127.873	0.191	0.028
-744.156	-87.565	-0.154	-0.047
-743.142	181.493	-0.080	-0.120
-742.127	-62.662	0.240	0.101
-741.112	543.176	-0.072	0.173
-740.098	-38.747	-0.273	-0.146
-739.083	-64.510	0.202	0.083
-738.069	26.550	0.119	-0.101
-737.054	-83.420	-0.199	0.065
-736.039	18.256	0.151	0.122
-735.025	-100.419	0.442	0.111
-734.010	146.799	-0.192	0.261
-732.996	304.500	0.110	-0.207
-731.981	159.014	0.090	-0.127
-730.966	594.837	0.146	0.366
-729.952	100.539	0.084	-0.099
-728.937	64.130	0.092	-0.093
-727.923	86.807	-0.104	0.116
-726.908	-76.519	-0.094	-0.033
-725.894	35.759	-0.167	-0.148
-724.879	800.000	-0.082	0.304
-723.864	209.090	-0.193	0.306
-722.850	230.041	0.208	-0.344
-721.835	-200.000	-0.011	-0.236
-720.821	81.410	-0.213	-0.233
-719.806	-112.847	-0.210	0.042
-718.791	-20.698	-0.090	-0.056
-717.777	-200.000	-0.044	0.231
-716.762	669.793	-0.106	-0.277
-715.748	-15.375	-0.108	-0.070
-714.733	800.000	-0.021	-0.080
-713.718	-113.673	-0.254	-0.050
-712.704	-116.648	0.036	-0.007
-711.689	491.634	0.118	0.274
-710.675	-134.955	0.185	-0.023
-709.660	87.603	0.152	-0.170
-708.645	31.191	0.152	-0.132
-707.631	-122.380	-0.188	-0.031
-706.616	-200.000	-0.039	0.175
-705.602	-200.000	-0.023	0.112
-704.587	-200.000	-0.008	-0.185
-703.572	-182.847	0.229	-0.004
-702.558	22.977	-0.252	-0.209
-701.543	-68.279	0.209	0.082
-700.529	103.679	-0.205	-0.244
-699.514	-35.500	-0.134	0.073
-698.499	46.403	0.366	-0.343
-697.485	174.602	0.236	0.345
-696.470	188.020	0.208	-0.314
-695.456	-151.635	-0.295	0.022
-694.441	800.000	-0.090	-0.343
-693.426	-59.897	0.179	0.077
-692.412	309.913	-0.105	-0.198
-691.397	572.712	-0.119	0.293
-690.383	800.000	-0.213	-0.613
-689.368	24.395	0.149	-0.125
-688.354	281.064	0.240	0.434
-687.339	127.630	-0.081	0.104
-686.324	-200.000	0.061	-0.381
-685.310	-92.261	0.233	-0.066
-684.295	-158.689	0.206	0.012
-683.281	127.838	-0.206	-0.264
-682.266	405.945	-0.109	-0.233
-681.251	29.631	0.325	-0.279
-680.237	-199.288	-0.152	0.001
-679.222	800.000	-0.063	-0.216
-678.208	-44.475	0.352	0.178
-677.193	800.000	0.080	-0.235
-676.178	-17.512	-0.142	0.090
-675.164	800.000	0.049	0.167
-674.149	-155.453	-0.124	0.008
-673.135	-53.231	0.125	0.058
-672.120	-105.367	0.063	-0.014
-671.105	-87.704	0.290	-0.088
-670.091	-79.774	-0.167	-0.057
-669.076	77.756	0.239	0.257
-668.062	571.162	0.123	-0.302
-667.047	592.771	0.091	0.227
-666.032	-200.000	0.035	-0.184
-665.018	16.149	-0.140	0.112
-664.003	235.750	-0.117	-0.196
-662.989	800.000	-0.051	-0.193
-661.974	-77.344	0.151	0.053
-660.959	0.025	0.138	-0.099
-659.945	294.597	-0.178	-0.328
-658.930	205.157	-0.132	0.207
-657.916	-177.913	0.181	0.004
-656.901	800.000	-0.033	0.137
-655.886	800.000	-0.053	-0.172
-654.872	-44.577	0.302	0.152
-653.857	-200.000	0.007	0.099
-652.843	-67.917	-0.191	0.075
-651.828	-114.498	0.318	-0.062
-650.814	32.132	0.177	-0.154
-649.799	9.560	0.074	0.056
-648.784	-200.000	0.008	0.244
-647.770	-110.454	-0.211	-0.044
-646.755	755.181	0.043	-0.117
-645.741	122.397	-0.080	-0.101
-644.726	-200.000	0.069	0.426
-643.711	289.121	-0.030	-0.055
-642.697	800.000	-0.037	0.145
-641.682	116.458	0.310	0.383
-640.668	537.847	0.080	-0.192
-639.653	800.000	-0.056	-0.220
-638.638	226.052	0.106	0.173
-637.624	-158.306	-0.125	-0.007
-636.609	800.000	0.089	-0.303
-635.595	158.462	0.097	-0.136
-634.580	-200.000	-0.002	0.352
-633.565	-149.150	-0.109	0.009
-632.551	-67.536	-0.174	-0.069
-631.536	800.000	0.060	0.223
-630.522	552.756	0.040	0.097
-629.507	-45.507	-0.158	-0.079
-628.492	-103.800	0.125	0.029
-627.478	-103.846	0.240	-0.057
-626.463	-26.792	-0.291	-0.171
-625.449	-109.376	-0.287	-0.061
-624.434	-102.525	-0.132	0.032
-623.419	-200.000	0.003	-0.029
-622.405	10.211	-0.056	-0.043
-621.390	-46.015	-0.080	-0.040
-620.376	-200.000	-0.055	0.445
-619.361	-39.968	0.330	-0.173
-618.346	-113.074	0.152	-0.030
-617.332	223.919	-0.062	0.101
-616.317	-200.000	0.007	-0.102
-615.303	-60.500	-0.271	0.116
-614.288	175.135	-0.071	0.104
-613.273	800.000	-0.102	-0.324
-612.259	-8.408	-0.059	0.040
-611.244	-89.625	-0.341	0.101
-610.230	800.000	0.109	-0.361
-609.215	800.000	-0.060	0.212
-608.201	-106.311	0.173	-0.039
-607.186	-200.000	-0.010	-0.180
-606.171	800.000	0.064	-0.195
-605.157	-200.000	-0.020	0.521
-604.142	-200.000	0.024	0.295
-603.128	25.248	-0.168	-0.140
-602.113	-0.551	0.096	-0.068
-601.098	57.081	0.137	0.134
-600.084	800.000	0.039	-0.159
-599.069	-150.930	0.434	0.033
-598.055	215.079	0.082	-0.131
-597.040	-124.050	-0.247	0.039
-596.025	-200.000	-0.030	-0.139
-595.011	402.263	-0.136	0.287
-593.996	33.669	0.122	-0.107
-592.982	601.300	-0.076	-0.189
-591.967	-200.000	-0.007	0.109
-590.952	800.000	-0.017	0.065
-589.938	63.962	-0.149	-0.151
-588.923	800.000	-0.084	0.264
-587.909	724.493	0.032	0.087
-586.894	82.438	0.147	0.160
-585.879	-200.000	-0.028	-0.199
-584.865	40.629	0.288	-0.261
-583.850	-98.552	-0.042	-0.011
-582.836	-113.747	0.275	0.054
-581.821	281.590	-0.116	0.209
-580.806	-87.536	-0.175	-0.053
-579.792	-80.876	0.299	-0.100
-578.777	3.549	0.152	-0.111
-577.763	800.000	0.088	0.285
-576.748	-194.740	-0.085	0.001
-575.733	57.551	-0.191	-0.188
-574.719	70.503	-0.130	0.135
-573.704	-169.361	0.141	0.005
-572.690	-200.000	-0.047	0.325
-571.675	139.375	0.202	0.268
-570.661	-200.000	-0.028	-0.194
-569.646	356.991	-0.055	-0.110
-568.631	-46.099	-0.088	0.044
-567.617	74.184	0.019	0.020
-566.602	77.441	-0.123	0.132
-565.588	237.401	0.103	0.171
-564.573	800.000	-0.049	-0.174
-563.558	-97.348	-0.322	-0.084
-562.544	403.070	-0.060	0.127
-561.529	-200.000	-0.022	0.195
-560.515	-144.793	-0.231	0.021
-559.500	800.000	-0.070	0.201
-558.485	37.432	-0.362	-0.322
-557.471	-142.653	-0.496	-0.049
-556.456	-6.568	-0.084	-0.058
-555.442	71.540	-0.085	-0.088
-554.427	800.000	-0.070	0.222
-553.412	263.213	-0.237	0.413
-552.398	281.981	-0.157	0.283
-551.383	800.000	0.038	0.140
-550.369	11.078	0.112	-0.086
-549.354	-79.996	-0.036	-0.012
-548.339	-200.000	0.037	-0.204
-547.325	632.621	0.104	-0.264
-546.310	45.620	0.258	0.239
-545.296	-200.000	0.039	0.287
-544.281	412.416	0.111	0.238
-543.266	-136.607	-0.562	-0.065
-542.252	800.000	0.070	-0.222
-541.237	-144.186	0.312	0.029
-540.223	800.000	0.084	-0.266
-539.208	116.858	-0.143	-0.176
-538.193	-200.000	0.002	-0.023
-537.179	-200.000	-0.013	0.065
-536.164	-74.537	-0.453	0.164
-535.150	30.677	-0.122	-0.104
-534.135	-162.215	0.362	0.018
-533.121	20.978	0.178	0.145
-532.106	68.661	-0.217	0.223
-531.091	800.000	0.072	0.246
-530.077	-115.451	-0.249	0.047
-529.062	-20.449	0.027	-0.016
-528.048	209.310	0.168	-0.264
-527.033	-165.014	-0.130	0.006
-526.018	414.772	0.106	0.227
-525.004	243.344	0.133	-0.223
-523.989	80.191	-0.231	0.249
-522.975	-200.000	-0.011	-0.197
-521.960	-23.608	-0.114	0.069
-520.945	374.592	-0.093	-0.191
-519.931	65.613	-0.182	-0.185
-518.916	-29.304	-0.163	-0.094
-517.902	800.000	0.001	0.006
-516.887	79.400	0.321	0.345
-515.872	800.000	-0.074	0.287
-514.858	-61.888	0.148	0.062
-513.843	800.000	-0.039	-0.161
-512.829	-59.257	-0.107	0.046
-511.814	369.644	0.103	-0.210
-510.799	-151.855	-0.348	-0.026
-509.785	66.247	0.152	0.155
-508.770	-85.038	-0.115	-0.036
-507.756	-82.134	0.255	-0.083
-506.741	-20.117	0.082	0.051
-505.726	-91.975	0.096	0.027
-504.712	-200.000	-0.078	-0.503
-503.697	-22.446	-0.261	0.158
-502.683	245.657	0.118	0.199
-501.668	13.344	-0.117	0.091
-500.653	78.784	-0.177	-0.190
-499.639	-163.236	0.066	-0.003
-498.624	-21.959	-0.246	-0.150
-497.610	-200.000	-0.024	0.246
-496.595	-200.000	0.027	-0.161
-495.581	229.522	-0.125	-0.205
-494.566	103.845	-0.232	0.273
-493.551	-13.482	-0.275	-0.179
-492.537	-99.637	0.122	-0.031
-491.522	-120.333	0.183	0.031
-490.508	45.907	0.106	0.098
-489.493	-132.287	-0.218	-0.028
-488.478	-8.864	0.199	-0.134
-487.464	246.113	-0.124	0.209
-486.449	246.444	-0.107	-0.182
-485.435	-148.702	0.231	-0.019
-484.420	-77.566	0.313	0.109
-483.405	-91.214	0.193	0.055
-482.391	-200.000	0.065	-0.317
-481.376	-125.707	0.024	0.004
-480.362	19.378	-0.450	-0.362
-479.347	800.000	0.022	0.089
-478.332	-26.350	-0.187	-0.110
-477.318	-53.263	-0.189	0.087
-476.303	-91.221	-0.194	0.056
-475.289	161.011	-0.140	-0.197
-474.274	282.038	-0.051	-0.092
-473.259	800.000	0.030	-0.121
-472.245	-36.777	0.328	-0.177
-471.230	-138.488	-0.280	0.031
-470.216	657.539	0.074	0.191
-469.201	59.716	-0.102	-0.101
-468.186	-89.237	-0.195	0.058
-467.172	-93.522	0.284	-0.079
-466.157	-18.833	0.039	-0.024
-465.143	211.217	-0.034	0.053
-464.128	97.197	-0.200	-0.230
-463.113	-4.615	-0.183	0.127
-462.099	-97.041	0.311	-0.081
-461.084	-200.000	-0.037	-0.165
-460.070	-18.144	0.442	0.277
-459.055	197.349	-0.246	0.375
-458.040	-47.534	-0.082	0.040
-457.026	-152.660	-0.157	0.011
-456.011	-119.824	0.139	0.024
-454.997	537.189	0.049	-0.117
-453.982	-200.000	-0.014	0.067
-452.968	-200.000	0.018	0.214
-451.953	270.538	-0.106	0.186
-450.938	64.974	-0.220	0.223
-449.924	29.410	-0.209	-0.178
-448.909	-200.000	0.021	0.215
-447.895	28.526	0.144	-0.122
-446.880	-6.353	-0.125	-0.086
-445.865	106.240	-0.116	-0.138
-444.851	649.707	-0.083	-0.213
-443.836	-12.068	0.068	-0.045
-442.822	-200.000	0.010	-0.124
-441.807	-30.825	-0.050	-0.028
-440.792	-200.000	-0.020	0.088
-439.778	-200.000	-0.017	0.144
-438.763	-97.472	0.378	0.098
-437.749	-38.124	-0.109	-0.058
-436.734	800.000	-0.061	-0.184
-435.719	14.234	-0.053	0.042
-434.705	17.862	-0.303	0.241
-433.690	280.934	-0.161	-0.288
-432.676	166.754	-0.104	-0.148
-431.661	269.600	0.037	-0.065
-430.646	-134.219	0.154	-0.019
-429.632	800.000	0.059	-0.221
-428.617	27.704	0.089	-0.075
-427.603	-200.000	0.042	0.305
-426.588	47.365	0.104	-0.097
-425.573	-77.309	0.201	-0.070
-424.559	-21.706	0.093	-0.056
-423.544	-195.000	-0.155	-0.001
-422.530	-139.426	-0.242	0.026
-421.515	-40.637	0.203	0.105
-420.500	137.950	0.007	0.009
-419.486	-56.488	-0.151	-0.067
-418.471	200.509	-0.148	-0.228
-417.457	800.000	-0.093	0.350
-416.442	145.659	0.134	0.180
-415.428	-3.207	-0.154	0.108
-414.413	-117.510	-0.166	0.030
-413.398	-178.000	-0.325	0.008
-412.384	800.000	0.061	0.239
-411.369	-54.111	-0.175	-0.079
-410.355	800.000	-0.103	0.291
-409.340	-10.150	0.232	0.154
-408.325	-110.096	0.212	-0.044
-407.311	50.041	-0.247	0.233
-406.296	-200.000	0.017	0.162
-405.282	125.739	0.105	0.132
-404.267	-70.973	0.069	-0.026
-403.252	288.014	-0.047	0.086
-402.238	-80.510	-0.024	0.008
-401.223	-70.134	0.132	-0.050
-400.209	15.270	0.071	-0.056
-399.194	74.246	-0.254	-0.267
-398.179	533.244	-0.079	-0.186
-397.165	-93.689	-0.183	0.050
-396.150	306.706	-0.050	0.094
-395.136	-104.821	-0.194	0.045
-394.121	-128.727	-0.450	-0.063
-393.106	-200.000	-0.002	0.021
-392.092	39.859	0.043	-0.038
-391.077	-189.018	-0.037	0.000
-390.063	230.818	0.079	0.129
-389.048	-200.000	0.008	0.490
-388.033	503.004	-0.107	-0.247
-387.019	-105.448	0.185	-0.042
-386.004	89.243	0.123	-0.137
-384.990	-37.107	0.069	-0.037
-383.975	-17.746	0.041	0.026
-382.960	-171.396	-0.125	-0.004
-381.946	-161.571	0.289	0.015
-380.931	-0.282	0.250	-0.177
-379.917	-200.000	0.027	-0.174
-378.902	-4.327	-0.195	0.135
-377.888	-200.000	-0.019	0.154
-376.873	29.634	0.149	0.126
-375.858	144.983	0.209	0.279
-374.844	412.459	0.088	0.187
-373.829	5.716	0.095	0.070
-372.815	263.356	-0.226	0.392
-371.800	-200.000	0.072	-0.441
-370.785	190.372	0.186	-0.279
-369.771	-200.000	-0.045	-0.432
-368.756	16.308	-0.108	0.085
-367.742	-25.510	0.343	-0.202
-366.727	248.485	-0.060	-0.102
-365.712	581.587	-0.016	0.040
-364.698	-200.000	0.047	0.274
-363.683	-55.045	-0.052	0.023
-362.669	-117.807	0.034	0.006
-361.654	-200.000	0.029	0.172
-360.639	-34.711	0.159	-0.087
-359.625	100.663	-0.089	-0.103
-358.610	268.947	-0.067	-0.117
-357.596	99.548	-0.305	0.352
-356.581	51.400	0.143	0.135
-355.566	11.127	-0.184	-0.140
-354.552	-200.000	0.035	-0.237
-353.537	-63.040	-0.190	0.078
-352.523	-161.803	-0.246	0.012
-351.508	-94.809	-0.198	-0.054
-350.493	120.543	-0.070	-0.087
-349.479	-178.464	0.022	0.001
-348.464	-200.000	0.053	0.399
-347.450	-102.877	0.007	-0.002
-346.435	108.899	0.329	0.392
-345.420	-200.000	0.043	-0.441
-344.406	-200.000	-0.013	-0.062
-343.391	800.000	-0.051	0.195
-342.377	800.000	0.054	0.236
-341.362	49.394	0.128	-0.120
-340.348	219.211	-0.063	-0.100
-339.333	63.313	-0.167	-0.166
-338.318	671.071	-0.021	0.055
-337.304	48.435	0.173	0.161
-336.289	32.983	0.025	0.021
-335.275	-36.119	-0.112	0.060
-334.260	-200.000	0.038	-0.288
-333.245	241.432	0.087	-0.145
-332.231	157.301	0.191	-0.263
-331.216	800.000	0.098	-0.324
-330.202	-200.000	0.042	0.201
-329.187	-72.353	-0.171	0.063
-328.172	-200.000	0.030	-0.216
-327.158	520.145	0.098	0.228
-326.143	53.010	0.094	0.090
-325.129	-74.363	0.342	-0.123
-324.114	-200.000	-0.013	-0.096
-323.099	-128.664	-0.127	-0.018
-322.085	466.742	0.066	-0.147
-321.070	41.470	0.383	0.345
-320.056	-30.850	0.217	-0.122
-319.041	3.330	-0.131	-0.095
-318.026	-157.257	-0.323	-0.019
-317.012	40.020	0.228	0.204
-315.997	646.672	0.058	0.148
-314.983	104.202	-0.090	-0.106
-313.968	93.846	-0.125	-0.141
-312.953	-200.000	-0.011	-0.054
-311.939	-118.925	0.327	0.057
-310.924	83.115	0.088	-0.095
-309.910	23.900	0.163	0.134
-308.895	-200.000	0.005	-0.307
-307.880	235.378	0.233	-0.383
-306.866	739.382	-0.086	-0.231
-305.851	121.348	-0.095	-0.117
-304.837	251.520	-0.097	0.165
-303.822	-200.000	0.047	0.222
-302.807	-33.162	0.262	0.145
-301.793	-52.140	-0.204	0.094
-300.778	-156.491	-0.246	-0.015
-299.764	179.196	-0.034	-0.050
-298.749	-65.396	-0.235	0.094
-297.735	74.427	-0.094	0.098
-296.720	800.000	0.032	0.117
-295.705	159.692	0.142	-0.197
-294.691	-23.576	-0.020	-0.012
-293.676	-23.617	0.117	-0.070
-292.662	-3.465	0.262	-0.181
-291.647	800.000	-0.059	0.233
-290.632	-132.055	-0.115	0.015
-289.618	-28.016	0.142	-0.082
-288.603	800.000	0.055	-0.167
-287.589	79.133	0.130	-0.139
-286.574	-31.607	0.064	0.036
-285.559	27.668	-0.310	-0.260
-284.545	-123.646	-0.155	-0.024
-283.530	800.000	-0.024	0.094
-282.516	-200.000	-0.063	0.420
-281.501	26.593	-0.035	-0.029
-280.486	793.380	-0.037	0.102
-279.472	-112.131	0.348	0.070
-278.457	94.317	0.150	0.169
-277.443	-137.628	0.234	-0.026
-276.428	55.865	-0.070	0.068
-275.413	275.943	-0.123	0.217
-274.399	800.000	-0.038	0.119
-273.384	-33.454	-0.195	-0.107
-272.370	-200.000	0.014	-0.169
-271.355	-53.034	-0.308	0.141
-270.340	142.117	0.310	-0.408
-269.326	579.057	0.113	0.275
-268.311	759.830	-0.063	0.170
-267.297	-39.002	0.214	0.112
-266.282	-200.000	0.007	0.189
-265.267	333.245	0.044	-0.085
-264.253	-155.083	-0.097	0.006
-263.238	707.957	-0.089	0.232
-262.224	-129.577	0.149	-0.020
-261.209	-137.016	0.225	0.026
-260.195	-83.521	0.385	0.122
-259.180	249.572	-0.134	-0.226
-258.165	-200.000	-0.023	-0.316
-257.151	22.861	-0.290	-0.236
-256.136	-147.199	0.064	-0.005
-255.122	68.909	0.223	0.228
-254.107	-74.361	0.330	0.118
-253.092	72.271	0.173	-0.179
-252.078	113.604	0.151	-0.183
-251.063	290.595	-0.203	-0.366
-250.049	205.901	0.035	-0.054
-249.034	-111.107	-0.301	0.061
-248.019	382.876	0.070	0.142
-247.005	33.987	0.048	-0.042
-245.990	-0.553	-0.196	0.138
-244.976	-200.000	-0.080	0.411
-243.961	-148.002	-0.199	-0.016
-242.946	138.524	0.133	-0.173
-241.932	-41.137	-0.165	-0.084
-240.917	416.010	0.072	0.152
-239.903	800.000	0.061	-0.231
-238.888	-96.276	-0.105	0.028
-237.873	-62.216	-0.126	0.052
-236.859	105.316	0.159	-0.186
-235.844	-95.366	0.187	-0.050
-234.830	765.683	0.035	0.094
-233.815	800.000	0.050	0.204
-232.800	-107.775	-0.122	-0.026
-231.786	-200.000	-0.035	0.171
-230.771	-98.503	-0.119	0.030
-229.757	68.771	0.025	0.025
-228.742	-31.744	-0.238	-0.132
-227.727	14.049	-0.160	-0.124
-226.713	9.196	0.071	0.053
-225.698	-91.616	0.406	0.115
-224.684	759.650	0.051	0.138
-223.669	-200.000	0.019	0.334
-222.655	25.374	0.144	0.119
-221.640	101.983	-0.192	0.222
-220.625	-86.151	0.112	-0.034
-219.611	800.000	0.057	0.204
-218.596	-200.000	0.022	-0.096
-217.582	-85.216	-0.180	0.056
-216.567	800.000	0.145	-0.399
-215.552	158.191	0.034	0.047
-214.538	182.638	0.063	0.092
-213.523	115.642	0.163	-0.198
-212.509	196.871	0.087	-0.131
-211.494	241.632	-0.073	-0.120
-210.479	311.320	-0.070	0.130
-209.465	-200.000	0.028	-0.313
-208.450	-104.893	0.489	-0.111
-207.436	-200.000	-0.031	0.414
-206.421	178.840	-0.207	-0.300
-205.406	35.924	0.162	-0.142
-204.392	-57.067	-0.218	-0.095
-203.377	-117.610	0.344	-0.061
-202.363	-200.000	-0.013	0.102
-201.348	-200.000	-0.050	-0.299
-200.333	-200.000	0.029	-0.234
-199.319	162.529	0.125	-0.173
-198.304	-200.000	-0.022	-0.357
-197.290	-75.586	0.144	0.051
-196.275	-126.310	0.231	0.034
-195.260	68.238	-0.069	0.070
-194.246	-5.790	0.281	0.191
-193.231	-104.547	0.181	-0.041
-192.217	604.906	0.099	0.244
-191.202	67.325	0.126	0.128
-190.187	31.542	-0.116	0.099
-189.173	-168.152	0.261	-0.010
-188.158	-200.000	0.051	0.261
-187.144	341.288	0.109	0.211
-186.129	38.287	-0.222	0.196
-185.114	67.795	-0.296	0.300
-184.100	465.838	0.099	0.220
-183.085	-200.000	-0.008	-0.228
-182.071	121.438	-0.186	0.229
-181.056	52.576	0.285	-0.269
-180.042	175.076	0.145	-0.208
-179.027	-123.322	0.123	-0.019
-178.012	-126.242	0.421	0.062
-176.998	-123.062	0.302	-0.048
-175.983	183.389	0.166	-0.243
-174.969	-114.027	-0.168	-0.032
-173.954	-74.189	0.221	-0.079
-172.939	-92.691	-0.327	0.091
-171.925	98.817	0.106	-0.122
-170.910	-34.969	-0.134	-0.073
-169.896	313.060	0.137	-0.254
-168.881	774.636	0.132	-0.356
-167.866	160.223	0.125	-0.172
-166.852	-200.000	-0.013	-0.368
-165.837	736.066	0.108	-0.286
-164.823	27.128	0.020	0.017
-163.808	-200.000	0.036	0.237
-162.793	-122.859	0.248	-0.040
-161.779	2.686	-0.344	-0.247
-160.764	-124.206	0.119	0.018
-159.750	16.433	-0.216	0.169
-158.735	159.695	0.068	-0.094
-157.720	-166.938	-0.179	0.007
-156.706	8.749	0.389	-0.290
-155.691	-200.000	0.030	-0.152
-154.677	326.868	-0.126	-0.240
-153.662	51.472	-0.079	0.075
-152.647	241.272	0.085	-0.141
-151.633	-70.482	-0.297	0.111
-150.618	800.000	-0.146	-0.408
-149.604	-1.545	0.075	-0.052
-148.589	-9.374	0.266	0.176
-147.574	800.000	-0.016	-0.064
-146.560	-77.208	0.397	-0.137
-145.545	-170.652	0.069	-0.002
-144.531	800.000	-0.072	0.305
-143.516	-200.000	0.030	-0.371
-142.502	183.641	0.114	-0.166
-141.487	-55.790	-0.339	-0.150
-140.472	319.493	0.004	-0.007
-139.458	6.385	-0.305	-0.224
-138.443	-102.815	0.582	0.137
-137.429	327.856	-0.138	-0.261
-136.414	-144.810	-0.075	0.007
-135.399	-200.000	-0.036	0.307
-134.385	-182.711	-0.211	0.004
-133.370	800.000	0.162	0.517
-132.356	-200.000	0.003	0.023
-131.341	-165.371	-0.230	0.010
-130.326	-200.000	-0.005	-0.116
-129.312	54.496	-0.069	0.066
-128.297	291.514	0.170	-0.305
-127.283	125.929	0.181	-0.226
-126.268	-131.850	0.112	0.014
-125.253	405.014	0.074	-0.154
-124.239	24.788	0.296	0.242
-123.224	-89.629	0.208	0.060
-122.210	-119.268	-0.345	-0.059
-121.195	-149.780	0.239	0.019
-120.180	-4.833	-0.022	-0.015
-119.166	681.379	0.118	0.303
-118.151	-144.284	0.177	0.016
-117.137	800.000	-0.034	-0.139
-116.122	101.279	-0.132	-0.151
-115.107	-48.598	0.165	-0.078
-114.093	-122.426	-0.121	-0.020
-113.078	-137.207	-0.476	0.053
-112.064	-125.042	0.165	-0.025
-111.049	-76.725	0.044	-0.015
-110.034	342.746	-0.099	0.192
-109.020	-115.240	0.284	0.053
-108.005	57.193	-0.162	-0.156
-106.991	-124.916	-0.268	0.041
-105.976	-200.000	0.066	0.372
-104.962	-134.266	-0.038	0.005
-103.947	116.042	0.061	0.073
-102.932	-104.296	-0.073	-0.017
-101.918	493.924	0.018	0.040
-100.903	-173.021	0.395	0.012
-99.889	800.000	0.022	0.093
-98.874	-200.000	0.000	0.098
-97.859	32.188	-0.139	-0.118
-96.845	-136.651	-0.116	0.013
-95.830	-61.663	-0.192	0.080
-94.816	800.000	-0.059	0.251
-93.801	-114.951	0.197	-0.037
-92.786	-56.779	-0.182	0.080
-91.772	-53.602	-0.101	0.046
-90.757	83.388	0.228	0.245
-89.743	699.966	-0.129	0.336
-88.728	201.802	0.034	-0.052
-87.713	494.740	-0.105	-0.237
-86.699	-85.082	-0.346	-0.107
-85.684	75.952	0.103	-0.107
-84.670	49.906	0.168	0.157
-83.655	169.030	-0.194	0.272
-82.640	274.655	-0.211	0.368
-81.626	-50.795	0.162	0.075
-80.611	800.000	-0.072	-0.254
-79.597	-94.468	0.386	-0.104
-78.582	203.172	0.115	0.176
-77.567	-134.413	0.122	-0.015
-76.553	-25.589	0.076	-0.044
-75.538	-67.390	0.077	0.030
-74.524	-104.550	-0.230	0.052
-73.509	-55.870	0.196	0.086
-72.494	-16.104	0.320	0.201
-71.480	-35.176	-0.053	0.028
-70.465	-198.224	0.155	-0.001
-69.451	-200.000	-0.023	-0.155
-68.436	-84.076	-0.368	0.115
-67.422	220.730	-0.056	0.088
-66.407	-7.221	0.205	0.137
-65.392	166.667	-0.048	-0.067
-64.378	-200.000	0.008	-0.188
-63.363	-29.178	0.083	-0.047
-62.349	127.076	-0.132	0.165
-61.334	73.240	-1.101	-1.135
-60.319	-200.000	0.045	0.349
-59.305	-200.000	-0.100	-1.075
-58.290	123.778	0.762	0.942
-57.276	434.359	0.775	1.660
-56.261	-200.000	93.633	555.555
-55.246	545.417	1370.437	3227.346
-54.232	159.890	2547.536	3497.067
-53.217	112.926	2152.760	2570.544
-52.203	45.467	1614.710	1468.665
-51.188	37.426	1352.371	1181.399
-50.173	34.360	1310.471	1126.657
-49.159	56.956	1356.364	1302.252
-48.144	59.260	1373.444	1332.406
-47.130	37.693	1332.710	1165.635
-46.115	34.186	1315.175	1129.489
-45.100	33.957	1310.643	1124.198
-44.086	34.027	1307.938	1122.245
-43.071	33.818	1306.352	1119.607
-42.057	33.894	1303.837	1117.857
-41.042	33.855	1302.196	1116.177
-40.027	33.810	1301.021	1114.860
-39.013	33.883	1299.192	1113.679
-37.998	33.958	1297.054	1112.239
-36.984	33.983	1295.484	1110.994
-35.969	34.050	1294.162	1110.209
-34.954	34.028	1292.225	1108.371
-33.940	34.059	1291.067	1107.518
-32.925	34.103	1289.350	1106.256
-31.911	34.232	1287.964	1105.769
-30.896	34.114	1286.632	1103.898
-29.881	34.165	1285.168	1102.897
-28.867	34.180	1283.652	1101.640
-27.852	34.198	1282.694	1100.874
-26.838	34.092	1281.310	1099.030
-25.823	34.130	1279.874	1097.973
-24.809	34.200	1278.225	1096.920
-23.794	34.138	1277.211	1095.650
-22.779	34.125	1275.902	1094.409
-21.765	34.177	1274.399	1093.377
-20.750	34.084	1273.111	1091.692
-19.736	34.009	1272.311	1090.532
-18.721	33.857	1270.940	1088.443
-17.706	33.958	1270.032	1088.205
-16.692	34.021	1268.879	1087.532
-15.677	33.837	1267.797	1085.507
-14.663	33.892	1266.919	1085.027
-13.648	33.962	1265.692	1084.333
-12.633	33.964	1264.592	1083.360
-11.619	34.001	1263.627	1082.700
-10.604	34.068	1262.537	1082.105
-9.590	34.074	1261.706	1081.382
-8.575	33.943	1260.964	1079.963
-7.560	34.001	1260.156	1079.552
-6.546	33.905	1259.754	1078.622
-5.531	33.908	1258.367	1077.408
-4.517	33.977	1257.386	1076.918
-3.502	33.894	1257.118	1076.178
-2.487	33.930	1255.783	1075.194
-1.473	33.814	1252.011	1071.269
-0.458	32.135	1236.014	1048.176
0.556	26.128	1217.726	1005.593
1.571	21.807	1223.431	985.975
2.586	20.679	1238.598	991.681
3.600	20.203	1227.801	980.264
4.615	15.041	1154.873	894.441
5.629	5.324	1076.851	785.309
6.644	0.535	1055.105	745.766
7.659	0.018	1052.658	741.422
8.673	-0.007	1051.910	740.706
9.688	-0.016	1050.758	739.786
10.702	0.272	1048.598	739.609
11.717	5.806	1056.704	772.586
12.731	14.739	1068.375	825.369
13.746	18.010	1070.721	843.282
14.761	17.146	1069.446	837.941
15.775	16.060	1067.517	831.008
16.790	15.058	1065.569	824.482
17.804	14.287	1063.930	819.348
18.819	14.024	1062.825	817.135
19.834	13.693	1061.792	814.638
20.848	13.535	1060.565	812.854
21.863	13.217	1059.686	810.548
22.877	13.079	1059.252	809.466
23.892	13.082	1058.493	808.827
24.907	13.068	1057.910	808.242
25.921	13.134	1057.068	807.852
26.936	13.115	1056.440	807.208
27.950	13.220	1055.438	806.883
28.965	13.234	1054.181	805.920
29.980	13.420	1052.824	805.716
30.994	13.409	1051.674	804.714
32.009	13.418	1051.183	804.306
33.023	13.371	1049.883	803.016
34.038	13.135	1049.495	801.499
35.053	13.195	1048.793	801.184
36.067	13.258	1047.339	800.310
37.082	13.168	1046.661	799.282
38.096	13.140	1046.480	798.941
39.111	13.103	1045.388	797.855
40.126	13.109	1044.130	796.857
41.140	13.115	1042.608	795.652
42.155	13.117	1041.524	794.762
43.169	13.094	1040.980	794.168
44.184	13.049	1039.719	792.920
45.199	13.065	1038.840	792.254
46.213	13.128	1037.635	791.567
47.228	13.236	1036.541	791.182
48.242	13.172	1035.798	790.236
49.257	13.115	1034.330	788.775
50.271	13.163	1034.000	788.682
51.286	13.243	1033.196	788.380
52.301	13.122	1031.922	786.763
53.315	13.147	1031.131	786.209
54.330	13.157	1029.826	785.193
55.344	13.225	1028.698	784.584
56.359	13.189	1028.137	783.920
57.374	12.974	1027.389	782.260
58.388	13.158	1025.895	781.922
59.403	13.040	1025.826	781.245
60.417	12.923	1025.131	780.092
61.432	13.005	1023.956	779.515
62.447	12.917	1023.723	778.853
63.461	12.918	1022.805	778.092
64.476	12.963	1021.725	777.415
65.490	12.892	1021.061	776.505
66.505	12.916	1020.325	775.989
67.520	12.988	1019.711	775.793
68.534	13.029	1019.310	775.608
69.549	12.977	1018.224	774.473
70.563	13.085	1017.223	774.149
71.578	12.921	1016.660	772.882
72.593	12.861	1015.724	771.824
73.607	12.815	1015.558	771.413
74.622	12.820	1014.773	770.769
75.636	12.852	1013.936	770.215
76.651	12.914	1013.278	769.940
77.666	12.995	1012.624	769.752
78.680	12.938	1012.038	768.971
79.695	13.034	1011.140	768.668
80.709	13.024	1010.547	768.101
81.724	12.981	1009.904	767.348
82.739	13.144	1009.095	767.420
83.753	13.205	1008.146	766.915
84.768	13.183	1007.320	766.117
85.782	13.206	1006.814	765.772
86.797	13.291	1005.451	765.060
87.812	13.190	1004.889	764.096
88.826	13.151	1003.952	763.138
89.841	13.073	1003.240	762.166
90.855	13.294	1001.925	762.120
91.870	13.277	1001.042	761.301
92.884	13.245	1000.687	760.818
93.899	13.190	1000.091	760.046
94.914	13.382	998.698	759.801
95.928	13.339	997.907	758.932
96.943	13.350	997.119	758.318
97.957	13.243	996.314	757.148
98.972	13.325	995.351	756.726
99.987	13.369	994.605	756.293
101.001	13.266	993.653	755.031
102.016	13.282	992.591	754.231
103.030	13.357	991.955	754.022
104.045	13.368	991.107	753.362
105.060	13.309	990.159	752.304
106.074	13.107	989.923	751.140
107.089	13.225	988.520	750.548
108.103	13.156	987.832	749.645
109.118	13.155	986.804	748.793
110.133	12.995	986.238	747.570
111.147	13.095	985.406	747.328
112.162	13.260	984.192	747.086
113.176	13.254	983.668	746.597
114.191	13.327	983.082	746.417
115.206	13.171	982.245	745.008
116.220	13.149	981.400	744.202
117.235	13.037	980.744	743.137
118.249	13.234	979.463	742.986
119.264	13.175	979.171	742.432
120.279	13.255	978.109	741.921
121.293	13.080	977.401	740.533
122.308	13.113	976.508	739.941
123.322	12.995	976.150	739.072
124.337	13.107	974.503	738.262
125.352	13.124	973.395	737.433
126.366	13.125	972.369	736.597
127.381	13.187	971.226	735.939
128.395	13.110	970.644	735.091
129.410	13.291	969.761	735.163
130.424	13.268	968.963	734.390
131.439	13.239	967.971	733.444
132.454	13.396	967.175	733.474
133.468	13.138	967.000	732.134
134.483	13.275	965.457	731.504
135.497	13.241	964.909	730.877
136.512	13.191	964.556	730.324
137.527	13.277	963.658	729.957
138.541	13.196	962.950	728.998
139.556	13.355	962.057	728.958
140.570	13.458	961.241	728.729
141.585	13.358	960.668	727.792
142.600	13.419	959.455	727.075
143.614	13.426	958.720	726.488
144.629	13.491	957.803	726.012
145.643	13.408	957.119	725.063
146.658	13.433	955.810	724.120
147.673	13.352	954.789	722.927
148.687	13.241	954.374	722.063
149.702	13.309	953.425	721.580
150.716	13.265	952.606	720.705
151.731	13.219	951.812	719.840
152.746	13.324	950.988	719.610
153.760	13.464	950.202	719.560
154.775	13.459	950.100	719.398
155.789	13.500	949.276	718.887
156.804	13.463	948.481	718.059
157.819	13.421	947.853	717.340
158.833	13.624	946.801	717.357
159.848	13.551	946.394	716.669
160.862	13.547	945.383	715.824
161.877	13.463	944.283	714.565
162.892	13.484	943.368	713.901
163.906	13.427	942.401	712.862
164.921	13.385	941.745	712.121
165.935	13.456	940.906	711.730
166.950	13.449	939.642	710.678
167.964	13.526	939.045	710.494
168.979	13.587	937.512	709.534
169.994	13.535	937.318	709.103
171.008	13.599	936.582	708.754
172.023	13.670	936.175	708.687
173.037	13.740	935.276	708.244
174.052	13.604	934.730	707.187
175.067	13.523	934.220	706.395
176.081	13.646	933.009	705.940
177.096	13.586	932.521	705.252
178.110	13.616	932.183	705.061
179.125	13.579	931.523	704.344
180.140	13.540	931.170	703.849
181.154	13.711	930.625	704.099
182.169	13.703	930.025	703.550
183.183	13.768	929.237	703.166
184.198	13.762	928.672	702.650
185.213	13.662	928.106	701.737
186.227	13.744	927.560	701.609
187.242	13.910	926.532	701.470
188.256	13.850	925.895	700.672
189.271	13.768	924.996	699.587
190.286	13.750	924.456	699.041
191.300	13.561	923.836	697.713
192.315	13.639	922.791	697.190
193.329	13.642	922.738	697.101
194.344	13.573	922.312	696.426
195.359	13.759	921.304	696.384
196.373	13.825	920.753	696.184
197.388	13.920	920.513	696.341
198.402	13.911	919.893	695.773
199.417	13.977	918.992	695.303
200.432	14.048	917.910	694.723
201.446	14.053	917.763	694.571
202.461	14.137	917.291	694.502
203.475	14.057	917.058	693.929
204.490	14.069	915.716	692.904
205.504	14.049	915.257	692.412
206.519	14.057	914.420	691.750
207.534	14.084	913.903	691.411
208.548	14.178	913.019	691.068
209.563	14.018	912.862	690.224
210.577	14.069	911.844	689.605
211.592	14.129	911.116	689.242
212.607	14.269	910.255	689.111
213.621	14.074	910.080	688.110
214.636	14.062	909.517	687.575
215.650	14.210	908.374	687.259
216.665	14.180	907.748	686.601
217.680	14.299	907.411	686.777
218.694	14.190	906.817	685.817
219.709	14.260	905.952	685.389
220.723	14.108	905.568	684.415
221.738	14.336	904.232	684.283
222.753	14.207	903.932	683.462
223.767	14.340	903.278	683.456
224.782	14.396	903.034	683.438
225.796	14.407	902.128	682.736
226.811	14.315	901.503	681.828
227.826	14.392	900.994	681.697
228.840	14.300	899.955	680.474
229.855	14.287	899.121	679.732
230.869	14.363	898.600	679.589
231.884	14.355	897.849	678.927
232.899	14.313	897.095	678.127
233.913	14.422	896.434	678.010
234.928	14.284	896.046	677.095
235.942	14.364	895.084	676.632
236.957	14.383	894.349	676.096
237.972	14.372	894.025	675.746
238.986	14.540	893.103	675.669
240.001	14.357	892.809	674.647
241.015	14.447	892.136	674.440
242.030	14.388	891.987	674.029
243.045	14.507	890.988	673.697
244.059	14.456	890.631	673.162
245.074	14.395	890.167	672.505
246.088	14.482	889.055	671.957
247.103	14.487	888.835	671.749
248.117	14.605	888.117	671.622
249.132	14.714	887.561	671.582
250.147	14.865	886.431	671.272
251.161	14.779	885.955	670.510
252.176	14.809	885.883	670.514
253.190	14.644	885.323	669.372
254.205	14.796	884.286	669.138
255.220	14.776	883.794	668.624
256.234	14.732	883.306	668.019
257.249	14.912	882.353	667.958
258.263	14.856	881.504	667.034
259.278	14.867	880.749	666.446
260.293	14.910	880.298	666.221
261.307	15.028	879.775	666.233
262.322	14.931	879.200	665.352
263.336	15.112	878.246	665.294
264.351	15.065	877.705	664.636
265.366	15.053	877.091	664.064
266.380	15.137	876.250	663.705
267.395	15.050	875.838	662.986
268.409	15.046	875.099	662.354
269.424	15.113	874.386	662.020
270.439	15.099	873.391	661.151
271.453	15.050	872.747	660.414
272.468	15.160	872.213	660.384
273.482	14.932	872.083	659.330
274.497	15.130	871.308	659.466
275.512	15.133	870.715	658.969
276.526	15.037	870.326	658.240
277.541	15.117	870.018	658.261
278.555	15.183	868.889	657.610
279.570	15.236	868.606	657.544
280.585	15.159	867.915	656.663
281.599	15.247	867.068	656.306
282.614	15.174	866.497	655.532
283.628	15.207	865.655	654.966
284.643	15.340	865.436	655.261
285.657	15.227	864.705	654.207
286.672	15.379	864.013	654.221
287.687	15.306	863.313	653.347
288.701	15.376	862.850	653.211
289.716	15.470	861.594	652.568
290.730	15.340	861.689	652.078
291.745	15.439	860.856	651.775
292.760	15.452	860.288	651.337
293.774	15.560	859.550	651.139
294.789	15.471	859.343	650.578
295.803	15.360	858.507	649.461
296.818	15.385	858.011	649.125
297.833	15.540	857.086	648.965
298.847	15.566	856.489	648.554
299.862	15.495	855.860	647.750
300.876	15.477	855.773	647.554
301.891	15.428	855.171	646.856
302.906	15.463	854.542	646.457
303.920	15.680	853.912	646.758
304.935	15.762	853.114	646.412
305.949	15.671	852.694	645.685
306.964	15.620	852.146	645.019
307.979	15.803	851.416	645.111
308.993	15.889	850.795	644.911
310.008	15.742	850.128	643.788
311.022	15.751	849.854	643.557
312.037	15.594	849.825	642.878
313.052	15.717	848.095	641.980
314.066	15.682	848.008	641.726
315.081	15.647	847.678	641.283
316.095	15.830	846.521	641.048
317.110	15.742	846.499	640.639
318.125	15.755	846.158	640.376
319.139	15.743	845.496	639.774
320.154	15.838	844.604	639.401
321.168	15.806	844.189	638.911
322.183	15.793	843.293	638.126
323.197	15.854	842.960	638.048
324.212	15.843	842.832	637.851
325.227	15.926	841.545	637.136
326.241	15.852	841.371	636.669
327.256	15.806	841.335	636.412
328.270	15.844	840.367	635.766
329.285	15.731	840.340	635.263
330.300	15.836	839.336	634.843
331.314	15.773	838.492	633.910
332.329	15.996	838.085	634.387
333.343	15.941	837.798	633.907
334.358	15.852	837.613	633.376
335.373	16.126	836.914	633.820
336.387	15.989	837.055	633.357
337.402	15.979	836.588	632.912
338.416	16.042	836.442	632.980
339.431	16.069	835.887	632.605
340.446	16.193	835.352	632.611
341.460	16.185	834.961	632.228
342.475	16.282	834.561	632.232
343.489	16.163	834.324	631.553
344.504	16.316	833.518	631.458
345.519	16.263	833.119	630.901
346.533	16.235	832.548	630.307
347.548	16.214	832.333	630.012
348.562	16.311	831.339	629.566
349.577	16.106	831.276	628.697
350.592	16.273	830.126	628.395
351.606	16.272	829.215	627.644
352.621	16.179	828.911	627.015
353.635	16.254	828.173	626.680
354.650	16.329	827.765	626.594
355.665	16.323	827.281	626.149
356.679	16.296	826.380	625.312
357.694	16.595	825.325	625.564
358.708	16.281	825.180	624.235
359.723	16.241	824.772	623.724
360.738	16.384	823.704	623.390
361.752	16.460	823.481	623.446
362.767	16.502	822.914	623.117
363.781	16.512	822.606	622.864
364.796	16.440	822.111	622.171
365.810	16.458	821.849	621.985
366.825	16.540	821.595	622.037
367.840	16.718	820.735	621.985
368.854	16.432	820.949	621.042
369.869	16.571	820.244	620.962
370.883	16.638	819.412	620.525
371.898	16.691	818.847	620.238
372.913	16.705	819.045	620.384
373.927	16.610	818.192	619.335
374.942	16.785	817.691	619.540
375.956	16.830	817.215	619.290
376.971	16.874	816.473	618.831
377.986	16.971	816.167	618.898
379.000	16.894	816.169	618.566
380.015	16.841	815.494	617.805
381.029	16.778	815.227	617.318
382.044	16.878	814.147	616.812
383.059	16.846	813.414	616.085
384.073	16.949	813.050	616.129
385.088	16.825	812.541	615.239
386.102	16.849	811.673	614.614
387.117	16.883	811.535	614.576
388.132	16.749	810.986	613.621
389.146	16.852	810.663	613.697
390.161	16.824	810.005	613.042
391.175	17.005	809.114	612.969
392.190	16.845	808.895	612.169
393.205	16.735	808.729	611.593
394.219	16.921	808.283	611.871
395.234	16.767	807.973	611.029
396.248	16.820	807.401	610.732
397.263	16.868	806.827	610.418
398.278	16.788	806.416	609.765
399.292	16.902	805.923	609.749
400.307	16.874	805.784	609.488
401.321	17.042	804.903	609.372
402.336	16.987	804.345	608.697
403.350	17.069	804.093	608.747
404.365	17.123	803.756	608.631
405.380	17.148	803.147	608.206
406.394	17.167	802.603	607.809
407.409	17.084	802.377	607.286
408.423	17.242	801.998	607.512
409.438	17.229	801.283	606.869
410.453	17.216	800.770	606.380
411.467	17.249	800.565	606.290
412.482	17.226	800.445	606.062
413.496	17.267	800.220	605.987
414.511	17.415	799.834	606.167
415.526	17.352	799.128	605.355
416.540	17.459	798.633	605.306
417.555	17.338	798.300	604.569
418.569	17.440	797.471	604.252
419.584	17.428	797.364	604.072
420.599	17.508	796.734	603.825
421.613	105.539	1285.820	1449.095
422.628	90.614	1357.080	1449.224
