DTS Sentinel unit serial number:	SN413079Multiplexer serial number:	ORYXHardware model number:	OX4-SRSoftware version number:	ORYX F/W v4.00 Oryx Data Collector v3.7.2.0data status	okinstallation	princeton_trtdifferential loss correction	single-endedforward channel	channel 1reverse channel	N/Adate	2019/09/19time	12:26:35forward acquisition time	60.00reverse acquisition time	0.00gamma	496.2192k internal	0.2333k external	0.2333temperature offset calibration	1.0014default loss term (dB/km)	0.3790temperature slope calibration	1.0000multiplexer offset coefficient	1.0000multiplexer slope coefficient	1.0000fibre end	0.00T internal ref (°C)	26.89T ext. ref 1 (°C)	0.87T ext. ref 2 (°C)	24.27length (m)	temperature (°C)	Stokes	anti-Stokes-747.200	800.000	0.059	-0.245
-746.185	-99.064	-0.083	-0.021
-745.171	800.000	0.046	0.161
-744.156	-31.258	-0.322	0.183
-743.142	307.655	0.127	0.238
-742.127	125.239	-0.092	0.116
-741.112	800.000	0.080	-0.351
-740.098	93.622	-0.183	-0.209
-739.083	800.000	-0.062	0.200
-738.069	277.636	-0.062	-0.111
-737.054	-135.721	0.388	0.046
-736.039	-145.537	-0.202	-0.018
-735.025	-4.676	0.190	0.132
-734.010	-169.227	-0.196	0.007
-732.996	-200.000	0.003	-0.129
-731.981	-115.611	-0.115	0.022
-730.966	800.000	0.056	0.213
-729.952	-200.000	-0.025	0.232
-728.937	-102.000	-0.105	-0.025
-727.923	-71.724	0.207	0.078
-726.908	260.514	-0.187	0.325
-725.894	-200.000	-0.069	0.470
-724.879	-200.000	-0.028	-0.186
-723.864	-29.206	-0.352	-0.203
-722.850	-178.166	0.185	-0.004
-721.835	-73.904	-0.301	-0.110
-720.821	-145.141	-0.155	0.014
-719.806	-79.751	-0.059	-0.020
-718.791	602.263	0.030	0.074
-717.777	-76.010	0.208	0.074
-716.762	87.759	-0.410	-0.456
-715.748	-45.431	-0.144	-0.072
-714.733	552.183	-0.060	0.145
-713.718	246.738	-0.094	-0.160
-712.704	-4.722	-0.366	-0.254
-711.689	-200.000	-0.013	-0.067
-710.675	22.861	-0.138	-0.114
-709.660	-74.031	0.444	0.162
-708.645	192.182	0.006	-0.010
-707.631	-33.552	-0.138	0.077
-706.616	361.032	-0.194	-0.390
-705.602	293.243	-0.064	-0.117
-704.587	800.000	0.071	0.200
-703.572	307.653	0.125	-0.233
-702.558	-27.877	-0.372	0.217
-701.543	-77.793	-0.207	-0.072
-700.529	77.984	-0.141	-0.151
-699.514	443.598	0.099	-0.217
-698.499	8.864	0.164	-0.124
-697.485	-200.000	0.010	0.167
-696.470	800.000	-0.078	-0.323
-695.456	550.615	-0.054	0.130
-694.441	-92.968	-0.287	-0.080
-693.426	-97.126	0.171	0.045
-692.412	40.442	-0.118	0.107
-691.397	33.039	-0.177	-0.154
-690.383	534.766	0.217	0.516
-689.368	-16.071	0.278	0.177
-688.354	-135.574	-0.174	-0.021
-687.339	-200.000	0.003	-0.088
-686.324	468.843	0.144	-0.323
-685.310	800.000	-0.077	-0.246
-684.295	-14.669	0.123	-0.079
-683.281	286.701	0.201	-0.363
-682.266	20.996	0.068	0.055
-681.251	10.027	-0.196	-0.150
-680.237	-200.000	-0.012	0.095
-679.222	-118.717	0.218	0.039
-678.208	-10.295	0.105	-0.070
-677.193	-139.255	0.362	-0.039
-676.178	497.173	0.119	-0.274
-675.164	-200.000	-0.036	-0.341
-674.149	-42.388	-0.087	-0.044
-673.135	-43.428	-0.211	-0.107
-672.120	10.669	0.163	-0.125
-671.105	-200.000	0.039	-0.271
-670.091	-43.845	0.134	-0.068
-669.076	114.596	0.130	-0.159
-668.062	-7.912	-0.263	0.178
-667.047	-200.000	-0.011	0.198
-666.032	271.244	0.057	-0.100
-665.018	163.430	0.138	0.195
-664.003	-200.000	0.011	0.055
-662.989	-59.331	0.107	-0.046
-661.974	34.239	0.348	-0.304
-660.959	-200.000	0.023	0.258
-659.945	156.018	-0.181	0.250
-658.930	-13.328	-0.221	-0.144
-657.916	12.899	0.057	0.044
-656.901	49.958	-0.148	0.139
-655.886	-200.000	0.043	-0.347
-654.872	-200.000	-0.009	0.063
-653.857	-118.205	0.391	-0.070
-652.843	-166.198	-0.232	0.010
-651.828	134.064	-0.093	-0.120
-650.814	-93.802	-0.234	0.065
-649.799	-101.595	0.279	0.068
-648.784	800.000	0.115	0.365
-647.770	-200.000	-0.020	-0.121
-646.755	722.337	-0.031	0.082
-645.741	-127.730	0.250	0.036
-644.726	81.485	0.204	0.221
-643.711	32.059	0.184	0.159
-642.697	-139.546	0.145	-0.016
-641.682	800.000	0.088	0.354
-640.668	800.000	-0.096	0.267
-639.653	-47.788	0.262	0.127
-638.638	-200.000	0.018	0.103
-637.624	800.000	-0.008	0.023
-636.609	2.759	0.199	-0.144
-635.595	-163.745	0.213	-0.010
-634.580	-98.180	-0.316	-0.081
-633.565	124.050	0.286	-0.360
-632.551	3.077	-0.262	0.191
-631.536	19.188	0.423	-0.340
-630.522	-54.928	0.108	-0.049
-629.507	-120.453	-0.205	-0.035
-628.492	-172.371	-0.060	-0.002
-627.478	640.669	-0.155	-0.394
-626.463	342.765	-0.070	-0.138
-625.449	-81.180	-0.266	0.088
-624.434	286.806	0.142	-0.256
-623.419	574.330	0.074	0.181
-622.405	-137.413	0.135	0.015
-621.390	-107.688	-0.232	0.051
-620.376	-21.173	0.284	-0.174
-619.361	455.061	-0.164	-0.363
-618.346	54.438	-0.063	0.061
-617.332	-143.273	-0.288	-0.028
-616.317	-61.662	0.318	0.133
-615.303	315.111	-0.129	-0.244
-614.288	454.814	-0.109	-0.242
-613.273	103.727	0.097	0.113
-612.259	-169.238	-0.382	0.014
-611.244	12.413	0.030	0.023
-610.230	-121.041	-0.135	0.023
-609.215	778.209	-0.055	-0.149
-608.201	268.394	-0.192	0.336
-607.186	253.827	0.089	0.152
-606.171	245.417	0.095	0.159
-605.157	-200.000	-0.016	0.330
-604.142	-200.000	0.024	0.136
-603.128	51.048	0.066	0.063
-602.113	120.888	-0.165	0.206
-601.098	-38.479	0.145	0.077
-600.084	4.080	-0.122	0.089
-599.069	-200.000	0.058	0.287
-598.055	58.238	0.130	0.127
-597.040	202.217	0.056	0.086
-596.025	-75.773	0.309	-0.110
-595.011	-100.533	0.411	0.102
-593.996	47.348	-0.317	-0.295
-592.982	48.582	0.054	-0.051
-591.967	766.294	-0.063	0.172
-590.952	-200.000	0.021	-0.306
-589.938	-200.000	0.027	0.159
-588.923	-102.338	0.021	0.005
-587.909	-200.000	-0.009	0.172
-586.894	-200.000	-0.005	-0.175
-585.879	-200.000	0.034	-0.167
-584.865	-44.718	0.107	0.053
-583.850	-66.546	0.335	-0.133
-582.836	-56.331	-0.311	-0.138
-581.821	152.601	-0.247	0.338
-580.806	264.233	-0.106	-0.185
-579.792	-111.505	-0.186	-0.038
-578.777	-101.756	0.016	-0.004
-577.763	11.840	-0.270	0.207
-576.748	-80.709	-0.130	0.043
-575.733	218.845	-0.085	0.136
-574.719	800.000	-0.110	0.308
-573.704	800.000	-0.044	0.137
-572.690	166.475	0.187	0.265
-571.675	589.842	0.086	-0.212
-570.661	5.374	-0.065	-0.048
-569.646	-200.000	0.039	-0.302
-568.631	-200.000	0.025	-0.353
-567.617	-200.000	-0.012	-0.349
-566.602	736.514	-0.200	-0.536
-565.588	-200.000	-0.008	-0.049
-564.573	800.000	0.062	0.215
-563.558	117.313	-0.157	-0.192
-562.544	51.954	-0.193	0.184
-561.529	-143.205	-0.197	-0.019
-560.515	-200.000	0.016	-0.279
-559.500	-75.994	-0.175	-0.062
-558.485	-74.206	0.234	0.085
-557.471	510.348	-0.156	-0.363
-556.456	800.000	-0.040	0.130
-555.442	-200.000	0.033	0.294
-554.427	-136.631	-0.294	0.034
-553.412	159.219	0.137	0.190
-552.398	-21.174	0.054	-0.033
-551.383	14.914	0.306	-0.239
-550.369	-143.751	0.247	0.023
-549.354	-200.000	-0.005	0.044
-548.339	-200.000	-0.050	-0.233
-547.325	-200.000	-0.009	0.129
-546.310	-78.359	-0.261	-0.089
-545.296	-131.565	-0.153	-0.020
-544.281	363.862	0.055	-0.111
-543.266	-102.353	0.126	-0.030
-542.252	-70.475	-0.390	0.147
-541.237	800.000	-0.051	0.148
-540.223	-200.000	0.009	-0.283
-539.208	-200.000	-0.027	0.271
-538.193	-64.744	-0.090	0.036
-537.179	25.453	0.210	-0.175
-536.164	-90.343	-0.200	-0.058
-535.150	-149.201	0.324	0.026
-534.135	239.146	-0.101	0.168
-533.121	-139.687	0.042	0.004
-532.106	-53.472	-0.269	-0.123
-531.091	-72.759	0.249	0.091
-530.077	425.078	-0.151	-0.325
-529.062	800.000	-0.033	0.107
-528.048	800.000	-0.034	0.138
-527.033	164.387	-0.163	0.230
-526.018	-56.224	-0.207	0.092
-525.004	800.000	0.030	-0.105
-523.989	-200.000	0.038	0.279
-522.975	173.260	0.065	-0.094
-521.960	800.000	0.064	0.278
-520.945	67.303	-0.094	0.096
-519.931	-32.788	0.059	0.033
-518.916	47.082	-0.250	0.232
-517.902	-39.622	-0.525	0.274
-516.887	-200.000	0.018	0.317
-515.872	-56.829	-0.451	-0.199
-514.858	45.140	-0.287	-0.264
-513.843	-200.000	0.003	0.274
-512.829	-38.465	-0.022	0.011
-511.814	-200.000	0.022	0.246
-510.799	-126.488	-0.288	0.043
-509.785	116.136	0.174	-0.213
-508.770	130.764	0.150	-0.192
-507.756	407.755	-0.156	-0.328
-506.741	800.000	-0.071	0.196
-505.726	570.854	-0.079	0.192
-504.712	-133.367	0.093	0.012
-503.697	-93.398	0.157	0.043
-502.683	777.644	0.063	0.171
-501.668	403.635	-0.110	-0.231
-500.653	-10.041	0.219	0.145
-499.639	800.000	-0.080	0.225
-498.624	80.452	0.212	0.227
-497.610	346.595	0.076	-0.149
-496.595	-67.830	-0.393	0.153
-495.581	-200.000	-0.045	-0.209
-494.566	-186.644	0.360	0.005
-493.551	49.780	-0.162	-0.152
-492.537	-39.760	0.155	0.081
-491.522	-37.762	0.177	-0.094
-490.508	800.000	-0.069	-0.293
-489.493	-168.713	0.215	-0.008
-488.478	236.155	0.183	0.302
-487.464	-200.000	0.006	0.049
-486.449	-200.000	-0.018	-0.126
-485.435	800.000	0.104	0.293
-484.420	301.340	-0.205	-0.376
-483.405	-76.999	0.236	0.082
-482.391	-74.736	-0.195	-0.070
-481.376	17.207	0.114	-0.090
-480.362	-96.418	0.144	0.038
-479.347	-28.401	0.215	-0.124
-478.332	-200.000	-0.017	0.155
-477.318	-200.000	0.029	-0.185
-476.303	84.010	0.223	-0.242
-475.289	-200.000	0.014	0.226
-474.274	-39.456	0.048	0.025
-473.259	-200.000	0.019	-0.154
-472.245	-19.678	0.159	0.098
-471.230	-200.000	-0.003	-0.320
-470.216	65.632	0.121	-0.122
-469.201	106.234	-0.222	-0.262
-468.186	1.166	-0.104	-0.074
-467.172	180.299	0.194	0.284
-466.157	121.724	-0.333	-0.413
-465.143	800.000	0.091	-0.256
-464.128	165.467	-0.210	-0.295
-463.113	-93.740	0.322	-0.088
-462.099	67.381	-0.152	-0.155
-461.084	-200.000	0.013	-0.207
-460.070	316.220	0.094	-0.176
-459.055	-86.401	-0.088	0.027
-458.040	404.759	-0.088	-0.185
-457.026	-44.335	-0.257	-0.128
-456.011	-31.351	-0.210	0.118
-454.997	-148.861	-0.270	-0.022
-453.982	-3.614	0.057	-0.039
-452.968	92.633	0.181	0.203
-451.953	443.695	-0.064	0.141
-450.938	121.504	0.054	0.067
-449.924	-35.489	0.220	-0.119
-448.909	297.223	0.218	-0.398
-447.895	-120.921	-0.406	0.068
-446.880	14.560	0.091	-0.071
-445.865	-200.000	-0.038	0.343
-444.851	373.461	-0.135	-0.272
-443.836	20.072	-0.106	-0.085
-442.822	-8.323	0.277	0.185
-441.807	800.000	-0.083	-0.237
-440.792	-200.000	0.038	0.342
-439.778	58.531	-0.293	-0.286
-438.763	227.257	-0.115	0.186
-437.749	-200.000	0.034	-0.166
-436.734	-66.458	-0.214	0.084
-435.719	-41.626	0.183	-0.094
-434.705	-77.678	0.250	-0.086
-433.690	151.030	-0.137	0.185
-432.676	-0.261	-0.141	-0.100
-431.661	-82.628	0.185	0.060
-430.646	253.861	-0.122	-0.208
-429.632	800.000	0.019	-0.084
-428.617	-110.411	0.231	-0.048
-427.603	128.019	-0.061	-0.077
-426.588	-139.659	0.186	0.020
-425.573	800.000	-0.107	0.295
-424.559	-120.722	-0.167	-0.028
-423.544	129.629	-0.350	-0.444
-422.530	516.588	0.049	0.113
-421.515	800.000	0.062	0.184
-420.500	-145.929	-0.308	-0.027
-419.486	-61.580	0.208	-0.087
-418.471	65.155	-0.086	0.087
-417.457	-101.728	-0.013	-0.003
-416.442	-118.274	0.125	0.022
-415.428	800.000	-0.021	0.074
-414.413	-55.212	-0.093	0.042
-413.398	-11.136	0.219	0.143
-412.384	-39.649	0.242	-0.126
-411.369	41.826	-0.284	0.255
-410.355	800.000	0.088	0.280
-409.340	-80.617	-0.427	-0.141
-408.325	421.521	-0.045	-0.095
-407.311	8.039	0.131	0.098
-406.296	-150.567	-0.353	0.027
-405.282	-27.745	0.381	0.219
-404.267	76.656	-0.107	0.113
-403.252	189.231	0.178	-0.265
-402.238	585.332	-0.081	0.197
-401.223	791.083	0.092	-0.251
-400.209	199.723	-0.176	-0.267
-399.194	-64.768	-0.569	-0.229
-398.179	-10.061	0.193	0.127
-397.165	-200.000	-0.001	-0.351
-396.150	-200.000	0.048	0.258
-395.136	431.777	0.137	-0.295
-394.121	-96.466	-0.072	0.019
-393.106	-6.265	0.149	-0.101
-392.092	-200.000	0.036	-0.355
-391.077	-98.587	-0.214	-0.054
-390.063	-200.000	0.035	0.252
-389.048	800.000	0.062	0.255
-388.033	13.627	0.218	0.168
-387.019	-43.919	0.117	-0.058
-386.004	-22.276	-0.107	0.064
-384.990	800.000	0.118	-0.344
-383.975	180.333	0.052	-0.075
-382.960	-70.667	-0.215	-0.081
-381.946	-166.802	0.089	0.004
-380.931	-200.000	0.000	0.025
-379.917	30.429	0.460	0.389
-378.902	39.600	0.155	0.138
-377.888	111.901	0.110	0.132
-376.873	53.349	-0.020	-0.019
-375.858	-19.054	0.433	-0.267
-374.844	-162.538	-0.512	-0.025
-373.829	504.669	0.193	-0.443
-372.815	165.709	-0.153	-0.214
-371.800	124.896	-0.258	0.322
-370.785	800.000	0.078	-0.253
-369.771	-25.416	0.063	-0.037
-368.756	-121.081	-0.231	-0.038
-367.742	800.000	0.040	0.113
-366.727	103.299	-0.159	0.185
-365.712	348.820	0.068	0.134
-364.698	392.779	-0.112	-0.231
-363.683	118.328	0.113	0.139
-362.669	-61.391	-0.140	-0.058
-361.654	-170.657	0.218	0.007
-360.639	57.686	-0.110	0.107
-359.625	-171.374	-0.410	-0.014
-358.610	598.590	0.057	0.140
-357.596	-49.862	-0.251	-0.118
-356.581	-81.292	-0.174	-0.057
-355.566	204.122	0.153	-0.236
-354.552	-124.892	0.299	-0.046
-353.537	128.463	-0.198	0.250
-352.523	53.399	0.175	-0.167
-351.508	18.379	-0.120	0.095
-350.493	-200.000	-0.030	0.498
-349.479	532.548	0.115	0.270
-348.464	542.196	-0.093	0.219
-347.450	-82.942	-0.273	-0.087
-346.435	-71.574	0.090	-0.033
-345.420	5.464	0.114	-0.083
-344.406	4.547	-0.045	0.033
-343.391	128.680	0.117	-0.148
-342.377	-100.536	-0.467	0.114
-341.362	-52.519	0.285	0.130
-340.348	579.254	0.020	0.048
-339.333	553.249	-0.077	-0.184
-338.318	767.885	-0.051	0.138
-337.304	82.266	0.195	-0.210
-336.289	555.181	0.075	0.178
-335.275	-200.000	-0.051	0.341
-334.260	535.248	0.142	-0.333
-333.245	345.260	0.155	0.301
-332.231	800.000	-0.095	-0.262
-331.216	109.604	0.237	-0.281
-330.202	800.000	0.036	0.122
-329.187	-83.409	0.031	0.010
-328.172	-86.696	-0.187	-0.056
-327.158	-97.881	0.170	0.043
-326.143	211.615	0.229	0.357
-325.129	27.284	0.109	-0.091
-324.114	-200.000	-0.045	-0.221
-323.099	26.610	-0.111	0.092
-322.085	-7.258	0.171	-0.114
-321.070	-200.000	0.012	-0.336
-320.056	-200.000	0.004	0.418
-319.041	-13.544	0.239	0.153
-318.026	5.727	-0.126	0.092
-317.012	87.583	-0.102	-0.111
-315.997	-37.656	0.105	0.055
-314.983	-200.000	-0.005	-0.158
-313.968	52.265	0.269	0.254
-312.953	52.990	-0.143	0.136
-311.939	800.000	0.059	-0.226
-310.924	-61.363	-0.049	0.020
-309.910	138.012	0.192	0.249
-308.895	-200.000	-0.019	0.541
-307.880	57.302	0.141	0.136
-306.866	-24.130	0.273	-0.161
-305.851	-131.685	-0.251	-0.033
-304.837	800.000	0.038	0.110
-303.822	456.935	0.141	-0.310
-302.807	-68.460	0.274	-0.105
-301.793	800.000	-0.111	-0.309
-300.778	-55.027	0.323	0.144
-299.764	-47.303	0.166	-0.080
-298.749	704.393	-0.028	0.072
-297.735	178.355	0.191	0.275
-296.720	-200.000	0.005	-0.146
-295.705	401.482	-0.035	-0.073
-294.691	-46.833	0.251	-0.121
-293.676	800.000	-0.088	0.342
-292.662	673.016	-0.117	-0.299
-291.647	-21.744	0.151	0.091
-290.632	800.000	0.034	0.103
-289.618	780.304	-0.053	0.145
-288.603	-137.262	-0.121	0.014
-287.589	-143.645	0.229	-0.021
-286.574	6.872	-0.255	-0.187
-285.559	195.392	0.166	-0.249
-284.545	73.890	0.331	-0.343
-283.530	800.000	0.145	0.427
-282.516	-200.000	0.020	0.130
-281.501	477.688	0.058	0.130
-280.486	-34.478	0.033	-0.018
-279.472	-136.085	0.189	0.022
-278.457	-200.000	-0.026	0.147
-277.443	-200.000	-0.015	-0.066
-276.428	-30.721	0.108	-0.060
-275.413	330.656	-0.113	0.215
-274.399	192.820	-0.141	-0.210
-273.384	249.922	-0.197	0.330
-272.370	-200.000	-0.013	0.206
-271.355	-200.000	0.001	-0.516
-270.340	-200.000	0.018	0.296
-269.326	321.489	-0.175	0.329
-268.311	800.000	0.065	-0.264
-267.297	-16.192	0.269	0.169
-266.282	-200.000	0.055	0.281
-265.267	321.080	-0.116	0.218
-264.253	40.055	-0.090	0.080
-263.238	800.000	-0.036	-0.103
-262.224	-200.000	0.007	0.228
-261.209	112.277	0.134	0.160
-260.195	-17.611	-0.410	0.254
-259.180	131.628	0.081	-0.103
-258.165	341.623	-0.074	-0.142
-257.151	44.865	0.308	-0.280
-256.136	-200.000	0.026	0.212
-255.122	-84.516	0.225	0.070
-254.107	-32.985	0.250	-0.137
-253.092	107.278	-0.312	-0.366
-252.078	67.013	0.143	0.144
-251.063	241.744	0.153	-0.252
-250.049	-9.868	-0.121	-0.080
-249.034	550.926	0.144	0.342
-248.019	-38.298	-0.187	-0.098
-247.005	65.426	-0.123	-0.123
-245.990	-200.000	-0.038	0.285
-244.976	152.964	0.134	-0.181
-243.961	-95.180	0.256	-0.068
-242.946	-152.622	0.219	-0.015
-241.932	111.665	-0.067	-0.080
-240.917	-26.144	-0.119	0.069
-239.903	-25.871	-0.361	-0.209
-238.888	148.330	0.212	-0.282
-237.873	-200.000	-0.090	0.541
-236.859	800.000	-0.051	0.141
-235.844	-27.695	0.264	-0.151
-234.830	800.000	0.118	0.342
-233.815	17.773	-0.258	-0.203
-232.800	225.883	-0.208	-0.332
-231.786	-23.598	-0.375	0.222
-230.771	-18.022	0.122	0.076
-229.757	20.283	-0.046	0.037
-228.742	14.984	0.082	-0.063
-227.727	120.991	0.142	0.174
-226.713	-200.000	0.010	-0.046
-225.698	159.386	-0.080	-0.110
-224.684	800.000	-0.074	0.254
-223.669	62.663	-0.299	0.295
-222.655	-200.000	0.011	-0.085
-221.640	-103.883	0.145	0.033
-220.625	28.502	-0.129	-0.107
-219.611	153.313	-0.206	-0.277
-218.596	-169.003	-0.243	0.009
-217.582	-200.000	0.063	0.379
-216.567	-200.000	-0.015	-0.274
-215.552	-70.378	-0.374	-0.140
-214.538	229.989	0.145	-0.233
-213.523	54.853	-0.292	-0.277
-212.509	-200.000	-0.037	0.191
-211.494	274.949	-0.054	0.094
-210.479	494.324	0.019	-0.042
-209.465	-200.000	-0.012	-0.216
-208.450	-200.000	-0.041	-0.265
-207.436	-150.929	-0.194	-0.014
-206.421	109.219	-0.087	-0.102
-205.406	76.444	-0.103	0.107
-204.392	800.000	0.012	0.047
-203.377	133.132	-0.321	-0.409
-202.363	-71.262	-0.055	0.020
-201.348	169.656	0.050	0.070
-200.333	359.987	-0.068	0.134
-199.319	-9.285	-0.241	-0.159
-198.304	-200.000	0.016	-0.085
-197.290	-51.880	-0.207	-0.095
-196.275	-200.000	0.040	0.176
-195.260	154.940	-0.069	0.094
-194.246	-63.093	0.066	0.027
-193.231	-72.097	-0.108	0.039
-192.217	123.819	-0.105	-0.129
-191.202	-64.993	0.276	0.110
-190.187	-200.000	0.068	0.363
-189.173	-61.514	-0.283	-0.117
-188.158	-58.668	0.313	0.133
-187.144	-34.562	0.127	0.068
-186.129	-166.486	-0.187	-0.008
-185.114	-45.238	0.031	0.015
-184.100	597.687	-0.054	-0.131
-183.085	-200.000	0.028	0.312
-182.071	-139.628	0.155	0.016
-181.056	-100.749	-0.275	0.067
-180.042	-125.581	0.327	0.049
-179.027	58.317	0.323	-0.311
-178.012	-177.321	0.343	0.008
-176.998	-72.752	0.334	0.121
-175.983	210.695	-0.134	-0.208
-174.969	-36.157	0.264	0.140
-173.954	-103.198	0.228	0.053
-172.939	83.571	-0.183	-0.197
-171.925	69.361	0.127	-0.129
-170.910	800.000	-0.060	0.179
-169.896	174.346	0.164	-0.234
-168.881	-49.007	0.162	-0.076
-167.866	-200.000	-0.008	-0.104
-166.852	-81.348	0.258	-0.083
-165.837	-178.231	-0.236	-0.005
-164.823	26.672	-0.078	0.064
-163.808	-200.000	-0.042	0.216
-162.793	-52.395	0.382	0.174
-161.779	-200.000	-0.031	-0.298
-160.764	-200.000	0.047	-0.334
-159.750	-129.500	-0.333	-0.045
-158.735	-44.557	-0.226	-0.111
-157.720	20.160	0.040	-0.032
-156.706	243.088	0.069	0.113
-155.691	-200.000	-0.011	0.425
-154.677	-60.119	-0.225	0.094
-153.662	43.987	0.210	-0.189
-152.647	80.049	0.018	-0.019
-151.633	127.520	0.119	0.148
-150.618	170.998	-0.082	-0.116
-149.604	647.863	-0.088	0.222
-148.589	48.632	0.126	-0.116
-147.574	151.180	-0.079	-0.106
-146.560	800.000	-0.056	-0.196
-145.545	-13.595	0.115	-0.073
-144.531	-200.000	0.012	-0.173
-143.516	-32.955	-0.074	0.040
-142.502	75.585	-0.108	-0.112
-141.487	-200.000	-0.031	0.155
-140.472	737.452	0.165	0.434
-139.458	-200.000	-0.032	-0.241
-138.443	86.341	0.193	0.209
-137.429	697.196	0.049	0.125
-136.414	800.000	0.028	0.112
-135.399	-200.000	-0.019	-0.248
-134.385	697.338	-0.090	-0.231
-133.370	-92.645	-0.282	0.078
-132.356	-33.619	0.161	0.087
-131.341	800.000	-0.110	-0.333
-130.326	49.969	0.109	-0.101
-129.312	-99.882	-0.207	0.051
-128.297	-49.388	-0.214	0.100
-127.283	-126.725	0.342	-0.050
-126.268	-200.000	0.005	0.117
-125.253	-73.531	0.309	-0.111
-124.239	-200.000	0.032	0.359
-123.224	-118.541	-0.320	-0.056
-122.210	-200.000	-0.050	-0.215
-121.195	-200.000	-0.012	-0.051
-120.180	8.631	0.111	-0.082
-119.166	32.666	-0.046	0.039
-118.151	-72.088	0.364	-0.133
-117.137	46.704	-0.221	0.202
-116.122	-89.690	-0.079	-0.023
-115.107	-111.462	-0.334	0.067
-114.093	249.612	0.044	-0.072
-113.078	75.143	-0.242	0.250
-112.064	-200.000	0.069	-0.404
-111.049	-39.475	-0.184	-0.095
-110.034	-33.811	-0.127	-0.069
-109.020	-80.324	0.144	0.047
-108.005	-99.781	0.316	-0.078
-106.991	-44.068	0.312	-0.154
-105.976	-17.724	0.085	-0.053
-104.962	-86.629	0.709	-0.213
-103.947	-111.402	0.089	0.018
-102.932	28.633	0.138	0.115
-101.918	-112.750	0.154	-0.030
-100.903	452.337	0.127	0.276
-99.889	-200.000	0.036	0.210
-98.874	-86.211	-0.198	0.060
-97.859	70.229	-0.246	-0.249
-96.845	130.436	0.149	-0.187
-95.830	-200.000	0.081	0.350
-94.816	-75.394	-0.145	-0.051
-93.801	-200.000	0.042	-0.192
-92.786	-200.000	0.010	0.285
-91.772	-10.205	0.114	0.074
-90.757	-52.106	-0.546	-0.248
-89.743	53.976	0.239	0.226
-88.728	800.000	-0.101	0.300
-87.713	-7.370	0.366	-0.243
-86.699	561.612	0.033	-0.079
-85.684	-20.878	-0.226	0.136
-84.670	800.000	0.037	0.155
-83.655	-30.416	0.052	0.029
-82.640	-126.075	0.106	-0.016
-81.626	43.863	0.181	0.163
-80.611	139.533	-0.110	-0.142
-79.597	25.841	0.229	-0.187
-78.582	-29.050	-0.360	-0.202
-77.567	-32.843	-0.266	-0.145
-76.553	-101.955	-0.352	0.083
-75.538	-63.810	0.224	-0.090
-74.524	-153.622	0.467	-0.032
-73.509	74.687	-0.281	-0.290
-72.494	-139.108	-0.034	0.004
-71.480	55.760	0.132	-0.125
-70.465	-23.241	-0.101	0.059
-69.451	-164.913	0.225	-0.010
-68.436	-111.325	0.240	-0.048
-67.422	800.000	0.086	-0.349
-66.407	-95.707	-0.064	0.017
-65.392	-19.072	0.030	-0.018
-64.378	-133.508	-0.136	-0.017
-63.363	359.163	0.107	0.210
-62.349	-82.573	-0.418	-0.133
-61.334	110.990	-1.005	-1.185
-60.319	67.624	0.617	0.617
-59.305	800.000	-0.325	-1.162
-58.290	142.001	0.811	1.053
-57.276	800.000	0.446	1.630
-56.261	-200.000	112.241	619.995
-55.246	438.755	1521.069	3249.472
-54.232	142.614	2712.561	3527.019
-53.217	101.351	2190.733	2497.409
-52.203	38.704	1625.394	1419.849
-51.188	30.028	1366.929	1140.869
-50.173	27.295	1327.998	1091.956
-49.159	54.155	1384.566	1303.669
-48.144	52.542	1399.019	1307.373
-47.130	30.570	1353.798	1133.036
-46.115	27.012	1335.824	1096.505
-45.100	26.769	1330.879	1090.940
-44.086	26.830	1328.183	1089.054
-43.071	26.751	1325.883	1086.650
-42.057	26.791	1323.702	1085.060
-41.042	26.706	1322.306	1083.365
-40.027	26.735	1320.418	1081.950
-39.013	26.654	1319.382	1080.575
-37.998	26.749	1316.812	1078.990
-36.984	26.840	1315.131	1078.114
-35.969	26.919	1313.201	1076.960
-34.954	26.898	1311.484	1075.382
-33.940	26.964	1310.047	1074.554
-32.925	26.947	1308.760	1073.352
-31.911	26.872	1307.439	1071.785
-30.896	26.860	1305.882	1070.393
-29.881	27.033	1304.181	1069.974
-28.867	27.017	1302.850	1068.746
-27.852	26.949	1301.613	1067.291
-26.838	27.019	1300.046	1066.374
-25.823	27.048	1298.727	1065.421
-24.809	26.996	1297.282	1063.889
-23.794	26.926	1296.175	1062.530
-22.779	26.997	1294.442	1061.481
-21.765	26.943	1293.605	1060.438
-20.750	26.980	1292.370	1059.598
-19.736	26.877	1291.120	1057.932
-18.721	26.892	1289.775	1056.875
-17.706	26.845	1288.815	1055.773
-16.692	26.925	1287.657	1055.244
-15.677	26.910	1286.587	1054.238
-14.663	26.764	1285.343	1052.330
-13.648	26.895	1283.899	1051.865
-12.633	26.743	1283.399	1050.533
-11.619	26.871	1282.201	1050.254
-10.604	26.815	1281.648	1049.437
-9.590	26.903	1280.326	1048.821
-8.575	26.841	1279.187	1047.487
-7.560	26.959	1278.085	1047.223
-6.546	26.829	1277.471	1045.931
-5.531	26.834	1276.374	1045.020
-4.517	26.880	1275.419	1044.458
-3.502	26.774	1275.289	1043.703
-2.487	26.855	1274.064	1043.124
-1.473	26.899	1270.095	1040.083
-0.458	26.091	1255.673	1023.650
0.556	22.366	1240.129	990.163
1.571	18.750	1247.298	975.301
2.586	17.492	1262.220	979.645
3.600	16.977	1249.921	967.076
4.615	12.576	1174.867	885.294
5.629	4.807	1099.931	789.485
6.644	1.106	1081.180	757.490
7.659	0.782	1079.089	754.340
8.673	0.749	1078.071	753.397
9.688	0.864	1076.593	752.869
10.702	1.024	1074.663	752.248
11.717	5.272	1080.560	777.486
12.731	12.596	1089.702	820.638
13.746	16.521	1094.310	843.655
14.761	17.394	1094.513	848.090
15.775	16.741	1093.253	843.786
16.790	15.688	1090.996	836.733
17.804	15.112	1089.138	832.371
18.819	14.521	1088.390	828.792
19.834	14.313	1087.685	827.145
20.848	14.041	1086.649	824.937
21.863	13.868	1085.329	823.003
22.877	13.834	1084.538	822.162
23.892	13.645	1084.318	820.987
24.907	13.662	1083.727	820.550
25.921	13.618	1082.606	819.413
26.936	13.767	1081.633	819.340
27.950	13.795	1080.288	818.384
28.965	13.892	1079.722	818.365
29.980	13.849	1078.360	817.047
30.994	13.945	1076.822	816.282
32.009	14.044	1076.113	816.157
33.023	13.820	1075.083	814.205
34.038	14.026	1073.271	813.769
35.053	13.917	1072.663	812.702
36.067	13.848	1072.388	812.083
37.082	13.932	1071.306	811.607
38.096	13.821	1070.704	810.535
39.111	13.857	1070.122	810.200
40.126	13.808	1068.879	808.945
41.140	13.748	1067.585	807.602
42.155	13.666	1066.748	806.502
43.169	13.608	1065.710	805.363
44.184	13.640	1065.029	804.933
45.199	13.665	1063.571	803.879
46.213	13.615	1062.115	802.465
47.228	13.630	1061.346	801.885
48.242	13.694	1060.009	801.114
49.257	13.917	1058.839	801.236
50.271	13.845	1057.619	799.896
51.286	13.713	1057.261	798.917
52.301	13.781	1056.574	798.657
53.315	13.851	1055.123	797.822
54.330	13.745	1054.386	796.686
55.344	13.759	1053.700	796.165
56.359	13.787	1052.919	795.641
57.374	13.762	1051.690	794.519
58.388	13.682	1050.904	793.472
59.403	13.583	1050.178	792.383
60.417	13.627	1049.374	791.913
61.432	13.656	1048.315	791.186
62.447	13.713	1048.043	791.182
63.461	13.607	1047.338	790.072
64.476	13.638	1046.102	789.217
65.490	13.633	1044.748	788.103
66.505	13.606	1044.695	787.867
67.520	13.771	1043.453	787.640
68.534	13.786	1042.818	787.167
69.549	13.706	1041.973	786.078
70.563	13.705	1041.345	785.532
71.578	13.669	1040.458	784.621
72.593	13.614	1039.845	783.830
73.607	13.591	1039.228	783.186
74.622	13.586	1038.699	782.694
75.636	13.625	1037.707	782.062
76.651	13.740	1036.663	781.746
77.666	13.596	1036.482	780.863
78.680	13.678	1035.798	780.666
79.695	13.596	1035.337	779.861
80.709	13.672	1034.453	779.484
81.724	13.639	1033.794	778.765
82.739	13.795	1032.633	778.554
83.753	13.797	1031.914	777.950
84.768	13.796	1031.064	777.235
85.782	13.924	1030.038	776.992
86.797	13.868	1029.185	776.020
87.812	13.786	1028.435	775.004
88.826	13.817	1027.570	774.429
89.841	13.846	1026.216	773.474
90.855	13.689	1025.977	772.494
91.870	13.839	1024.961	772.356
92.884	13.886	1023.895	771.703
93.899	13.752	1023.215	770.503
94.914	13.978	1021.896	770.486
95.928	13.902	1021.493	769.763
96.943	13.898	1020.478	768.914
97.957	13.921	1019.417	768.152
98.972	13.908	1018.908	767.639
99.987	13.913	1017.495	766.530
101.001	13.978	1016.853	766.279
102.016	13.880	1015.897	765.038
103.030	13.916	1014.920	764.403
104.045	13.910	1014.566	764.038
105.060	13.897	1013.481	763.094
106.074	13.876	1012.616	762.281
107.089	13.889	1011.435	761.384
108.103	13.823	1010.806	760.538
109.118	13.704	1010.106	759.400
110.133	13.747	1009.336	758.953
111.147	13.734	1008.071	757.873
112.162	13.823	1007.171	757.539
113.176	13.904	1006.524	757.352
114.191	13.845	1005.694	756.392
115.206	13.783	1005.166	755.646
116.220	13.895	1003.663	754.958
117.235	13.874	1002.917	754.236
118.249	13.872	1002.242	753.653
119.264	13.807	1001.748	752.917
120.279	13.864	1000.501	752.172
121.293	13.896	999.962	751.844
122.308	13.768	999.034	750.503
123.322	13.766	998.012	749.662
124.337	13.813	997.204	749.197
125.352	13.751	995.884	747.863
126.366	13.845	994.965	747.528
127.381	13.889	993.697	746.706
128.395	13.948	992.331	745.878
129.410	13.815	991.915	744.903
130.424	13.913	991.363	744.864
131.439	13.892	990.301	743.907
132.454	13.928	989.407	743.330
133.468	13.917	988.914	742.842
134.483	13.953	987.547	741.913
135.497	13.926	986.935	741.264
136.512	13.988	985.850	740.663
137.527	13.750	985.298	739.123
138.541	13.760	984.914	738.814
139.556	13.914	983.999	738.745
140.570	13.938	983.075	738.093
141.585	13.992	981.921	737.401
142.600	14.039	980.929	736.798
143.614	14.179	980.015	736.669
144.629	14.112	979.417	735.857
145.643	13.982	978.954	734.870
146.658	14.034	977.645	734.048
147.673	14.035	976.731	733.306
148.687	14.104	975.630	732.719
149.702	13.917	975.212	731.514
150.716	13.997	974.292	731.111
151.731	14.029	973.542	730.626
152.746	13.927	973.042	729.737
153.760	14.027	972.246	729.514
154.775	14.116	971.420	729.220
155.789	14.103	970.955	728.750
156.804	14.215	969.882	728.369
157.819	14.059	969.570	727.387
158.833	14.064	969.068	726.970
159.848	14.121	968.095	726.425
160.862	14.223	967.084	726.046
161.877	14.062	966.100	724.541
162.892	13.974	965.418	723.581
163.906	14.073	964.642	723.366
164.921	14.048	963.522	722.356
165.935	14.145	962.664	722.067
166.950	14.122	961.858	721.302
167.964	14.112	960.744	720.357
168.979	14.178	959.936	719.976
169.994	14.096	959.262	719.050
171.008	14.340	958.253	719.286
172.023	14.235	957.962	718.549
173.037	14.304	956.957	718.029
174.052	14.268	956.222	717.257
175.067	14.314	955.512	716.860
176.081	14.177	955.429	716.147
177.096	14.213	954.191	715.307
178.110	14.221	953.901	715.062
179.125	14.318	953.328	714.984
180.140	14.411	952.332	714.575
181.154	14.358	951.807	713.889
182.169	14.324	951.926	713.773
183.183	14.383	950.882	713.178
184.198	14.456	950.395	713.062
185.213	14.507	949.389	712.461
186.227	14.472	948.683	711.719
187.242	14.481	948.150	711.293
188.256	14.480	947.524	710.760
189.271	14.531	946.827	710.389
190.286	14.571	945.475	709.483
191.300	14.370	945.605	708.660
192.315	14.357	944.774	707.923
193.329	14.363	944.050	707.341
194.344	14.508	943.359	707.376
195.359	14.482	943.055	706.977
196.373	14.439	942.133	706.040
197.388	14.476	941.517	705.672
198.402	14.636	941.197	706.049
199.417	14.774	940.236	705.848
200.432	14.500	940.000	704.451
201.446	14.691	938.999	704.444
202.461	14.726	938.651	704.268
203.475	14.833	938.097	704.240
204.490	14.702	937.355	703.072
205.504	14.716	936.822	702.669
206.519	14.618	935.832	701.448
207.534	14.707	935.182	701.276
208.548	14.801	934.219	700.885
209.563	14.661	934.209	700.230
210.577	14.659	933.308	699.485
211.592	14.901	932.279	699.661
212.607	14.876	931.437	698.864
213.621	14.737	931.061	697.940
214.636	14.746	930.801	697.721
215.650	14.865	929.488	697.171
216.665	14.902	928.684	696.660
217.680	14.953	928.219	696.460
218.694	14.940	927.068	695.483
219.709	15.032	927.040	695.781
220.723	14.800	926.415	694.289
221.738	14.837	925.919	694.010
222.753	14.901	925.016	693.535
223.767	14.972	924.246	693.193
224.782	14.948	924.154	692.961
225.796	15.199	922.776	692.906
226.811	15.073	922.380	692.025
227.826	14.948	921.581	690.848
228.840	15.018	920.737	690.442
229.855	15.144	919.730	690.147
230.869	15.173	919.238	689.837
231.884	15.002	918.985	688.883
232.899	14.927	918.016	687.784
233.913	14.925	917.477	687.314
234.928	15.098	916.838	687.482
235.942	15.039	916.443	686.884
236.957	14.988	915.856	686.173
237.972	15.199	914.686	686.101
238.986	15.195	914.019	685.522
240.001	15.093	913.777	684.865
241.015	15.091	913.017	684.227
242.030	15.193	912.090	683.888
243.045	15.239	911.448	683.531
244.059	15.135	911.507	683.091
245.074	15.207	910.392	682.489
246.088	15.300	909.428	682.083
247.103	15.268	909.136	681.675
248.117	15.211	908.594	680.977
249.132	15.325	907.800	680.784
250.147	15.322	907.228	680.282
251.161	15.400	906.271	679.820
252.176	15.441	905.787	679.563
253.190	15.445	905.136	679.031
254.205	15.509	904.465	678.727
255.220	15.365	904.110	677.821
256.234	15.442	903.034	677.264
257.249	15.442	902.750	676.989
258.263	15.498	901.785	676.433
259.278	15.594	901.170	676.297
260.293	15.625	900.583	675.922
261.307	15.688	900.000	675.679
262.322	15.769	899.179	675.326
263.336	15.662	898.496	674.325
264.351	15.640	897.755	673.620
265.366	15.624	897.414	673.241
266.380	15.712	896.934	673.174
267.395	15.881	895.725	672.880
268.409	15.753	895.045	671.799
269.424	15.669	894.475	670.976
270.439	15.545	893.944	670.025
271.453	15.656	893.070	669.755
272.468	15.545	893.165	669.321
273.482	15.766	891.998	669.270
274.497	15.770	891.689	668.994
275.512	15.682	891.276	668.273
276.526	15.743	890.669	668.004
277.541	15.812	889.712	667.499
278.555	16.038	889.185	667.942
279.570	15.926	888.605	667.004
280.585	15.852	887.625	665.913
281.599	15.931	886.447	665.284
282.614	15.888	885.892	664.640
283.628	15.975	885.872	664.910
284.643	15.935	885.180	664.173
285.657	15.991	884.662	663.945
286.672	16.082	883.644	663.480
287.687	15.980	883.011	662.547
288.701	15.990	882.914	662.455
289.716	16.106	882.130	662.262
290.730	16.050	881.327	661.382
291.745	16.122	880.875	661.265
292.760	16.156	880.336	660.938
293.774	16.229	879.608	660.616
294.789	16.269	878.818	660.120
295.803	16.054	878.215	658.772
296.818	16.184	877.264	658.508
297.833	16.172	876.871	658.107
298.847	16.139	876.247	657.451
299.862	16.194	875.395	656.969
300.876	16.299	874.958	656.991
301.891	16.189	874.660	656.280
302.906	16.474	873.474	656.440
303.920	16.298	873.310	655.575
304.935	16.188	873.402	655.160
305.949	16.368	872.033	654.772
306.964	16.359	871.350	654.168
307.979	16.376	871.189	654.051
308.993	16.414	870.450	653.588
310.008	16.361	869.753	652.802
311.022	16.522	868.705	652.578
312.037	16.385	868.499	651.840
313.052	16.467	867.787	651.561
314.066	16.447	867.225	651.005
315.081	16.331	867.290	650.550
316.095	16.436	866.265	650.128
317.110	16.488	865.614	649.781
318.125	16.267	865.551	648.828
319.139	16.403	864.793	648.725
320.154	16.449	864.189	648.391
321.168	16.475	863.542	647.946
322.183	16.411	863.221	647.402
323.197	16.402	862.634	646.871
324.212	16.574	861.999	646.997
325.227	16.471	861.384	646.084
326.241	16.454	860.975	645.656
327.256	16.650	859.938	645.566
328.270	16.573	859.879	645.170
329.285	16.637	858.771	644.525
330.300	16.564	858.334	643.865
331.314	16.593	858.236	643.844
332.329	16.553	857.462	643.054
333.343	16.600	857.230	643.003
334.358	16.698	856.483	642.757
335.373	16.631	856.115	642.168
336.387	16.647	856.232	642.260
337.402	16.814	855.582	642.350
338.416	16.829	855.098	641.986
339.431	16.737	854.436	641.085
340.446	16.710	853.981	640.585
341.460	16.734	853.833	640.507
342.475	16.754	853.494	640.272
343.489	16.877	853.062	640.355
344.504	16.883	852.390	639.817
345.519	16.950	852.072	639.776
346.533	16.967	851.296	639.198
347.548	16.986	851.114	639.078
348.562	16.914	850.427	638.236
349.577	16.952	849.539	637.656
350.592	16.749	849.371	636.708
351.606	16.893	848.337	636.417
352.621	16.902	847.727	635.936
353.635	17.065	846.808	635.804
354.650	17.076	846.120	635.273
355.665	16.999	846.046	634.873
356.679	17.104	845.163	634.545
357.694	17.019	844.543	633.708
358.708	17.072	843.777	633.272
359.723	16.998	843.500	632.733
360.738	17.063	842.987	632.534
361.752	17.063	842.385	632.028
362.767	17.151	841.565	631.684
363.781	17.257	841.036	631.624
364.796	17.306	840.604	631.426
365.810	17.049	840.691	630.482
366.825	17.180	839.997	630.391
367.840	17.312	839.256	630.269
368.854	17.194	838.811	629.441
369.869	17.222	838.704	629.407
370.883	17.381	838.023	629.429
371.898	17.268	837.774	628.770
372.913	17.396	837.541	629.012
373.927	17.397	836.871	628.458
374.942	17.406	836.225	627.949
375.956	17.439	836.075	627.904
376.971	17.473	835.345	627.425
377.986	17.621	834.553	627.317
379.000	17.529	834.388	626.801
380.015	17.532	833.852	626.355
381.029	17.490	833.339	625.759
382.044	17.577	832.510	625.401
383.059	17.686	832.008	625.368
384.073	17.552	831.745	624.624
385.088	17.510	831.026	623.873
386.102	17.659	830.274	623.798
387.117	17.512	830.081	623.061
388.132	17.483	829.572	622.516
389.146	17.656	828.515	622.303
390.161	17.490	828.803	621.855
391.175	17.734	827.788	621.929
392.190	17.622	827.395	621.171
393.205	17.664	826.967	620.947
394.219	17.649	826.524	620.507
395.234	17.797	825.949	620.557
396.248	17.665	825.379	619.594
397.263	17.614	825.125	619.165
398.278	17.680	824.926	619.200
399.292	17.673	824.572	618.854
400.307	17.699	824.202	618.615
401.321	17.702	823.497	618.041
402.336	17.806	822.529	617.637
403.350	17.666	822.870	617.334
404.365	17.744	821.863	616.804
405.380	17.958	821.224	617.045
406.394	17.934	820.688	616.500
407.409	18.000	820.183	616.303
408.423	17.843	819.962	615.516
409.438	18.043	819.540	615.867
410.453	18.109	819.164	615.767
411.467	18.145	818.634	615.445
412.482	18.188	818.344	615.327
413.496	18.056	818.244	614.722
414.511	18.109	817.586	614.363
415.526	18.043	817.497	614.007
416.540	18.124	816.733	613.669
417.555	18.117	816.097	613.109
418.569	18.097	815.541	612.567
419.584	18.230	815.413	612.893
420.599	18.088	815.106	612.099
421.613	112.702	1297.303	1479.299
422.628	97.556	1367.513	1479.405
