DTS Sentinel unit serial number:	SN413079Multiplexer serial number:	ORYXHardware model number:	OX4-SRSoftware version number:	ORYX F/W v4.00 Oryx Data Collector v3.7.2.0data status	okinstallation	princeton_trtdifferential loss correction	single-endedforward channel	channel 1reverse channel	N/Adate	2019/09/13time	07:10:35forward acquisition time	60.00reverse acquisition time	0.00gamma	496.2192k internal	0.2335k external	0.2335temperature offset calibration	1.0158default loss term (dB/km)	0.3790temperature slope calibration	1.0000multiplexer offset coefficient	1.0000multiplexer slope coefficient	1.0000fibre end	0.00T internal ref (°C)	26.02T ext. ref 1 (°C)	4.14T ext. ref 2 (°C)	21.31length (m)	temperature (°C)	Stokes	anti-Stokes-747.200	-200.000	-0.022	0.233
-746.185	39.523	-0.117	-0.105
-745.171	29.314	-0.070	-0.060
-744.156	11.768	-0.242	0.187
-743.142	21.935	-0.166	-0.136
-742.127	53.529	-0.164	-0.158
-741.112	-200.000	-0.007	-0.038
-740.098	-107.641	-0.163	0.036
-739.083	-149.449	0.286	0.023
-738.069	-75.853	0.145	0.052
-737.054	-65.218	-0.344	-0.139
-736.039	11.808	-0.435	0.335
-735.025	-91.787	0.406	0.116
-734.010	-200.000	-0.011	-0.618
-732.996	-11.169	-0.186	-0.123
-731.981	-136.006	0.184	-0.022
-730.966	-69.918	-0.286	0.110
-729.952	-200.000	-0.065	-0.285
-728.937	26.425	-0.173	0.145
-727.923	195.475	-0.048	0.074
-726.908	92.521	-0.144	-0.163
-725.894	-127.706	0.143	-0.021
-724.879	150.363	-0.209	0.285
-723.864	800.000	-0.043	-0.121
-722.850	-200.000	-0.008	-0.314
-721.835	-2.559	0.244	0.172
-720.821	18.373	-0.091	0.073
-719.806	82.581	-0.144	0.157
-718.791	-134.964	0.237	0.029
-717.777	296.934	-0.191	0.351
-716.762	23.413	0.066	-0.055
-715.748	-200.000	-0.034	-0.207
-714.733	33.847	0.144	0.125
-713.718	800.000	-0.052	-0.175
-712.704	28.608	0.118	-0.100
-711.689	33.057	0.132	0.115
-710.675	800.000	0.029	0.091
-709.660	800.000	0.079	0.234
-708.645	-200.000	-0.028	-0.202
-707.631	-200.000	0.000	0.102
-706.616	-200.000	-0.017	0.228
-705.602	284.078	0.269	-0.485
-704.587	-59.824	-0.235	-0.101
-703.572	-111.968	-0.186	0.038
-702.558	-175.667	0.633	-0.017
-701.543	-128.800	0.295	0.042
-700.529	-78.865	-0.332	-0.113
-699.514	-83.018	0.182	-0.059
-698.499	-12.063	0.168	0.110
-697.485	-200.000	0.097	-0.549
-696.470	-200.000	0.213	-0.000
-695.456	-60.647	-0.318	-0.135
-694.441	356.258	-0.098	0.197
-693.426	-200.000	-0.006	-0.160
-692.412	68.678	0.119	-0.123
-691.397	-200.000	0.052	0.289
-690.383	-174.440	-0.168	0.005
-689.368	691.846	0.066	-0.172
-688.354	-90.176	0.292	0.085
-687.339	-121.639	-0.165	0.027
-686.324	-122.206	-0.271	0.044
-685.310	-90.531	-0.256	-0.074
-684.295	203.968	-0.098	0.152
-683.281	-90.932	-0.551	0.159
-682.266	-63.295	0.211	-0.087
-681.251	249.541	0.122	0.207
-680.237	800.000	0.085	0.249
-679.222	-42.107	-0.041	-0.021
-678.208	-200.000	-0.053	-0.256
-677.193	800.000	0.059	0.216
-676.178	77.123	0.317	-0.337
-675.164	-200.000	-0.025	-0.273
-674.149	208.452	-0.125	0.195
-673.135	476.656	-0.145	-0.328
-672.120	-168.557	-0.205	0.008
-671.105	800.000	-0.009	0.038
-670.091	-155.770	-0.330	-0.021
-669.076	-200.000	0.039	-0.500
-668.062	238.627	-0.021	0.035
-667.047	-39.532	-0.015	-0.008
-666.032	-119.522	-0.251	-0.044
-665.018	-155.788	-0.106	0.007
-664.003	-46.036	-0.118	-0.058
-662.989	-200.000	-0.006	0.237
-661.974	-200.000	-0.002	-0.269
-660.959	209.250	0.173	-0.272
-659.945	-200.000	-0.010	0.277
-658.930	-200.000	0.073	-0.356
-657.916	-6.575	-0.196	0.133
-656.901	-108.287	0.303	-0.065
-655.886	-71.718	-0.253	-0.094
-654.872	800.000	-0.032	0.121
-653.857	-142.594	-0.125	-0.012
-652.843	150.147	0.130	-0.177
-651.828	-111.874	0.046	-0.009
-650.814	800.000	0.074	0.240
-649.799	-154.295	-0.338	0.023
-648.784	179.406	-0.159	0.233
-647.770	-55.435	-0.314	-0.141
-646.755	263.479	0.214	0.372
-645.741	-92.504	-0.290	0.082
-644.726	-200.000	-0.025	0.190
-643.711	-200.000	-0.016	0.250
-642.697	-80.062	-0.262	-0.088
-641.682	-33.342	-0.104	-0.057
-640.668	800.000	-0.065	0.286
-639.653	30.087	0.028	-0.024
-638.638	0.502	-0.257	-0.184
-637.624	-200.000	0.010	-0.302
-636.609	-91.284	0.260	-0.075
-635.595	61.481	-0.179	0.178
-634.580	-13.224	-0.187	-0.121
-633.565	800.000	0.046	-0.153
-632.551	-198.651	0.288	0.002
-631.536	355.760	0.083	-0.166
-630.522	-55.750	0.354	0.158
-629.507	800.000	-0.074	0.315
-628.492	800.000	-0.033	0.094
-627.478	-55.162	0.050	-0.022
-626.463	-112.686	0.167	0.033
-625.449	165.706	0.046	-0.065
-624.434	116.265	0.070	0.086
-623.419	-111.673	-0.252	0.051
-622.405	-143.465	-0.148	-0.014
-621.390	-52.634	-0.136	0.063
-620.376	787.469	-0.066	-0.181
-619.361	-144.099	0.362	0.034
-618.346	-200.000	-0.030	-0.166
-617.332	-73.863	-0.224	0.081
-616.317	-200.000	-0.028	-0.199
-615.303	-16.498	0.123	-0.078
-614.288	800.000	0.059	0.165
-613.273	48.607	0.163	0.153
-612.259	-200.000	-0.048	-0.277
-611.244	599.864	0.138	-0.343
-610.230	294.261	-0.045	-0.082
-609.215	-200.000	-0.033	0.250
-608.201	376.825	0.098	-0.199
-607.186	79.916	-0.193	0.207
-606.171	-54.171	0.265	0.120
-605.157	-70.355	-0.221	-0.084
-604.142	73.134	-0.152	0.159
-603.128	-200.000	-0.055	0.568
-602.113	-137.336	-0.254	-0.029
-601.098	-136.155	0.120	0.014
-600.084	-199.263	0.087	-0.000
-599.069	-65.191	-0.206	-0.083
-598.055	-45.165	-0.318	-0.158
-597.040	2.805	-0.084	-0.061
-596.025	-200.000	0.012	-0.239
-595.011	-35.547	-0.077	-0.042
-593.996	16.735	0.189	0.150
-592.982	800.000	0.033	0.127
-591.967	-38.936	0.202	-0.106
-590.952	-101.582	0.290	0.070
-589.938	66.704	0.187	0.190
-588.923	-106.864	0.189	-0.042
-587.909	27.272	-0.204	0.171
-586.894	21.007	0.075	0.060
-585.879	800.000	0.054	0.163
-584.865	27.009	0.222	-0.186
-583.850	36.698	0.095	-0.084
-582.836	800.000	-0.019	0.064
-581.821	2.765	-0.202	0.146
-580.806	-200.000	0.037	0.423
-579.792	-200.000	-0.010	0.234
-578.777	-110.437	-0.086	-0.018
-577.763	-89.609	-0.370	0.108
-576.748	95.805	0.225	0.256
-575.733	325.533	0.108	0.207
-574.719	-36.615	-0.465	0.250
-573.704	-57.213	0.076	0.033
-572.690	-200.000	-0.055	0.355
-571.675	-116.204	0.251	0.046
-570.661	213.545	0.100	0.157
-569.646	-149.120	0.158	-0.013
-568.631	800.000	0.028	0.082
-567.617	-67.860	0.125	0.049
-566.602	800.000	-0.022	-0.097
-565.588	-97.120	-0.072	-0.019
-564.573	-8.397	-0.088	0.059
-563.558	-33.546	0.154	-0.085
-562.544	-69.317	-0.062	0.024
-561.529	-200.000	-0.062	0.273
-560.515	-200.000	0.004	-0.241
-559.500	-200.000	0.013	-0.271
-558.485	-200.000	0.015	0.079
-557.471	800.000	-0.105	-0.371
-556.456	-200.000	0.014	0.094
-555.442	-200.000	-0.023	-0.277
-554.427	-200.000	-0.009	0.276
-553.412	-35.969	0.172	0.093
-552.398	574.148	0.098	-0.239
-551.383	-164.254	0.282	-0.013
-550.369	-200.000	-0.035	-0.189
-549.354	543.164	-0.046	0.110
-548.339	-30.774	0.024	-0.013
-547.325	-94.815	0.201	-0.054
-546.310	305.875	-0.151	-0.279
-545.296	-144.362	-0.337	-0.031
-544.281	-200.000	-0.095	-0.462
-543.266	52.022	0.322	-0.306
-542.252	-198.969	-0.483	0.003
-541.237	374.009	0.169	0.343
-540.223	-90.772	0.284	-0.082
-539.208	-94.589	0.324	0.088
-538.193	610.722	0.067	-0.166
-537.179	-98.559	0.227	0.058
-536.164	-174.789	-0.239	-0.007
-535.150	120.599	-0.078	0.097
-534.135	-4.404	0.188	-0.130
-533.121	143.420	0.124	0.165
-532.106	344.126	-0.107	-0.209
-531.091	-200.000	-0.000	-0.059
-530.077	800.000	-0.081	-0.235
-529.062	800.000	0.078	-0.258
-528.048	800.000	-0.100	-0.299
-527.033	-87.509	0.229	0.069
-526.018	-105.318	0.262	-0.059
-525.004	-200.000	0.010	0.258
-523.989	800.000	0.124	0.357
-522.975	-54.260	-0.242	0.109
-521.960	37.604	-0.135	-0.119
-520.945	-200.000	0.021	-0.233
-519.931	-200.000	0.025	-0.151
-518.916	113.254	0.053	-0.064
-517.902	198.743	-0.098	-0.150
-516.887	417.764	0.207	0.440
-515.872	-200.000	0.009	-0.070
-514.858	107.418	-0.236	0.279
-513.843	-34.135	0.178	0.097
-512.829	182.949	0.091	0.134
-511.814	-200.000	-0.018	-0.322
-510.799	-22.765	0.089	0.053
-509.785	-200.000	0.042	-0.333
-508.770	-173.415	-0.094	-0.003
-507.756	-200.000	-0.055	-0.508
-506.741	800.000	0.023	-0.091
-505.726	202.377	-0.151	-0.232
-504.712	-5.902	0.094	0.064
-503.697	-3.202	-0.050	0.035
-502.683	535.975	0.068	-0.160
-501.668	-200.000	-0.005	-0.291
-500.653	24.866	0.224	0.185
-499.639	249.515	-0.051	0.086
-498.624	56.232	0.110	0.106
-497.610	-41.691	-0.060	-0.031
-496.595	82.853	-0.321	-0.348
-495.581	209.735	0.093	-0.145
-494.566	-178.764	-0.282	-0.006
-493.551	107.551	0.288	-0.341
-492.537	-46.207	0.325	0.159
-491.522	220.196	-0.069	-0.110
-490.508	111.269	-0.128	-0.153
-489.493	-151.088	0.152	0.011
-488.478	-28.354	-0.162	0.093
-487.464	366.958	-0.118	-0.236
-486.449	-138.424	0.103	0.011
-485.435	800.000	0.044	-0.164
-484.420	448.411	-0.013	0.028
-483.405	50.717	0.354	0.333
-482.391	172.780	0.151	-0.217
-481.376	738.605	-0.066	0.177
-480.362	38.830	-0.204	-0.181
-479.347	-162.524	0.243	-0.012
-478.332	-113.284	0.290	0.057
-477.318	329.942	0.111	-0.213
-476.303	40.467	-0.338	0.302
-475.289	-120.271	0.226	-0.038
-474.274	800.000	0.050	0.142
-473.259	116.353	0.127	-0.155
-472.245	48.931	-0.114	0.106
-471.230	330.224	-0.162	-0.310
-470.216	182.170	-0.061	0.089
-469.201	-154.757	-0.448	0.029
-468.186	78.263	-0.096	0.102
-467.172	-170.001	0.279	0.010
-466.157	800.000	0.034	-0.103
-465.143	-55.016	-0.194	-0.087
-464.128	-112.229	-0.277	-0.055
-463.113	195.217	0.167	0.252
-462.099	569.673	-0.100	-0.241
-461.084	-150.082	0.201	-0.015
-460.070	-198.367	-0.107	-0.001
-459.055	236.365	0.041	0.068
-458.040	-165.447	-0.287	-0.012
-457.026	800.000	0.026	-0.105
-456.011	-21.667	-0.085	-0.052
-454.997	410.490	0.070	0.148
-453.982	-200.000	-0.057	-0.290
-452.968	167.261	-0.045	0.063
-451.953	800.000	0.036	0.124
-450.938	800.000	0.014	-0.054
-449.924	-97.050	0.156	0.041
-448.909	-200.000	0.014	0.277
-447.895	71.813	-0.086	-0.089
-446.880	-72.306	0.096	0.035
-445.865	-111.319	0.325	0.066
-444.851	-200.000	0.013	0.063
-443.836	102.812	0.071	0.082
-442.822	-14.292	-0.023	0.015
-441.807	25.758	-0.071	-0.058
-440.792	-200.000	0.006	0.288
-439.778	-17.728	-0.247	-0.154
-438.763	-0.221	0.174	0.123
-437.749	-62.169	-0.293	-0.121
-436.734	-200.000	0.027	0.278
-435.719	-189.507	-0.385	0.004
-434.705	800.000	-0.114	0.319
-433.690	-200.000	-0.028	0.137
-432.676	-84.828	0.174	0.054
-431.661	-65.860	-0.280	-0.111
-430.646	600.366	-0.062	-0.153
-429.632	-145.248	0.382	0.034
-428.617	800.000	-0.096	0.377
-427.603	-200.000	0.013	0.165
-426.588	-200.000	0.007	-0.130
-425.573	-90.009	0.088	-0.026
-424.559	800.000	0.093	0.274
-423.544	-122.332	-0.321	-0.052
-422.530	-115.408	0.153	-0.029
-421.515	371.114	-0.125	0.253
-420.500	-136.455	0.267	-0.031
-419.486	-111.514	0.048	-0.010
-418.471	41.064	-0.131	0.118
-417.457	800.000	0.135	-0.428
-416.442	-25.479	-0.147	0.086
-415.428	-119.645	-0.383	0.066
-414.413	206.075	0.065	0.101
-413.398	240.109	-0.165	-0.273
-412.384	-10.240	0.060	-0.040
-411.369	-200.000	-0.013	0.067
-410.355	800.000	0.064	-0.182
-409.340	-58.733	-0.146	-0.063
-408.325	-23.111	0.143	-0.085
-407.311	800.000	0.123	-0.340
-406.296	-55.605	-0.033	-0.015
-405.282	-200.000	-0.232	-0.001
-404.267	-200.000	-0.008	0.039
-403.252	-79.508	-0.187	-0.063
-402.238	759.618	-0.100	-0.268
-401.223	-46.491	-0.126	-0.061
-400.209	508.802	-0.127	-0.294
-399.194	244.890	-0.158	0.263
-398.179	324.483	-0.102	-0.192
-397.165	-200.000	0.032	0.198
-396.150	800.000	0.023	-0.098
-395.136	800.000	-0.081	-0.313
-394.121	597.841	0.065	-0.160
-393.106	792.891	-0.065	-0.177
-392.092	800.000	-0.142	0.404
-391.077	800.000	-0.050	0.148
-390.063	-200.000	0.046	0.267
-389.048	-66.953	-0.197	-0.077
-388.033	-1.002	0.210	0.147
-387.019	-200.000	0.031	-0.229
-386.004	473.468	0.051	0.114
-384.990	-167.719	0.031	-0.001
-383.975	204.652	-0.049	0.075
-382.960	645.478	-0.006	0.014
-381.946	473.775	0.108	0.240
-380.931	91.244	-0.252	-0.280
-379.917	-121.412	0.128	-0.021
-378.902	-115.297	-0.180	0.034
-377.888	46.600	-0.069	-0.063
-376.873	-14.322	-0.326	-0.208
-375.858	-66.703	-0.395	-0.155
-374.844	-200.000	-0.046	-0.293
-373.829	206.079	0.092	-0.141
-372.815	800.000	-0.058	-0.189
-371.800	-112.540	0.093	0.018
-370.785	-200.000	0.036	-0.234
-369.771	-200.000	-0.021	-0.118
-368.756	-110.847	0.248	0.051
-367.742	156.469	-0.246	-0.336
-366.727	119.003	0.148	-0.181
-365.712	-133.826	-0.195	0.024
-364.698	413.601	0.054	-0.115
-363.683	-200.000	-0.090	-0.494
-362.669	-171.242	-0.174	-0.006
-361.654	100.366	-0.184	-0.212
-360.639	-166.453	-0.154	0.006
-359.625	265.357	0.112	0.193
-358.610	443.881	0.085	-0.185
-357.596	-7.732	-0.118	-0.079
-356.581	70.249	0.157	-0.161
-355.566	-37.889	0.177	0.093
-354.552	101.743	-0.149	0.172
-353.537	800.000	-0.044	0.170
-352.523	-143.368	0.016	-0.002
-351.508	-51.202	-0.155	0.072
-350.493	450.539	-0.049	0.106
-349.479	-200.000	0.046	-0.224
-348.464	-83.168	0.097	0.031
-347.450	-21.944	-0.148	0.089
-346.435	87.207	0.084	0.092
-345.420	-92.300	0.125	-0.035
-344.406	-96.726	-0.171	-0.045
-343.391	517.176	0.098	0.226
-342.377	36.371	-0.326	-0.285
-341.362	17.014	-0.135	-0.106
-340.348	93.994	-0.216	0.242
-339.333	-134.555	0.234	0.028
-338.318	800.000	0.064	-0.180
-337.304	-95.810	0.123	-0.032
-336.289	800.000	-0.011	-0.047
-335.275	-200.000	0.024	-0.309
-334.260	433.875	0.066	-0.142
-333.245	-200.000	0.012	-0.173
-332.231	12.206	0.069	0.052
-331.216	-42.810	0.160	0.080
-330.202	-33.211	-0.187	-0.102
-329.187	523.108	0.075	0.173
-328.172	-200.000	-0.009	0.109
-327.158	21.195	0.141	0.113
-326.143	-104.609	0.234	0.053
-325.129	-8.560	-0.165	0.109
-324.114	122.030	-0.185	0.229
-323.099	-200.000	0.002	-0.043
-322.085	573.138	-0.086	-0.207
-321.070	-133.570	-0.183	0.023
-320.056	234.657	0.041	-0.067
-319.041	42.045	0.090	-0.081
-318.026	297.851	0.122	0.221
-317.012	-154.526	-0.166	0.011
-315.997	-15.475	0.094	-0.060
-314.983	-52.469	0.073	-0.033
-313.968	-9.727	-0.245	0.162
-312.953	-75.135	0.077	0.027
-311.939	800.000	0.141	-0.580
-310.924	132.754	0.081	-0.103
-309.910	-120.415	0.018	-0.003
-308.895	173.258	0.185	0.263
-307.880	-9.836	0.120	0.079
-306.866	-91.606	-0.116	-0.033
-305.851	-200.000	0.035	0.358
-304.837	-79.085	0.178	-0.060
-303.822	-65.956	-0.125	-0.049
-302.807	9.123	0.111	-0.083
-301.793	210.495	0.193	-0.300
-300.778	-200.000	-0.012	-0.125
-299.764	-124.539	0.200	-0.031
-298.749	-156.141	-0.333	0.021
-297.735	43.009	0.240	0.216
-296.720	178.439	0.145	0.209
-295.705	69.145	0.054	-0.055
-294.691	41.527	0.161	0.144
-293.676	-66.993	0.151	0.059
-292.662	-145.245	0.212	-0.019
-291.647	-53.816	-0.160	-0.072
-290.632	800.000	0.051	-0.194
-289.618	-69.117	-0.241	-0.092
-288.603	-0.178	0.175	0.123
-287.589	-103.350	0.167	0.039
-286.574	237.024	-0.231	0.377
-285.559	-12.627	0.086	-0.055
-284.545	56.116	-0.118	-0.113
-283.530	30.850	-0.086	0.072
-282.516	9.287	0.210	-0.157
-281.501	-200.000	-0.021	-0.224
-280.486	-25.633	-0.128	-0.075
-279.472	-102.491	-0.262	0.062
-278.457	-57.115	-0.108	0.047
-277.443	-134.975	-0.038	0.005
-276.428	-20.370	0.135	0.082
-275.413	274.494	0.023	0.040
-274.399	62.474	-0.263	0.259
-273.384	60.410	0.261	0.255
-272.370	464.343	-0.028	0.061
-271.355	-109.107	0.111	0.023
-270.340	771.042	-0.044	0.118
-269.326	-101.729	-0.283	0.068
-268.311	-200.000	0.017	0.099
-267.297	62.606	-0.087	0.085
-266.282	-101.637	0.124	0.030
-265.267	-60.657	0.254	0.106
-264.253	-200.000	0.033	-0.226
-263.238	660.600	0.081	0.205
-262.224	-37.936	0.160	-0.084
-261.209	-58.025	0.395	0.170
-260.195	-22.293	0.106	-0.063
-259.180	-200.000	0.022	-0.121
-258.165	800.000	0.028	0.086
-257.151	-200.000	0.069	0.320
-256.136	481.455	-0.079	-0.177
-255.122	-53.550	0.412	0.186
-254.107	16.317	-0.142	0.111
-253.092	-200.000	-0.016	-0.198
-252.078	202.998	0.068	-0.104
-251.063	338.719	0.081	-0.155
-250.049	215.473	-0.135	-0.211
-249.034	-90.713	0.174	-0.050
-248.019	-89.647	-0.165	0.048
-247.005	-26.340	0.350	0.202
-245.990	386.801	-0.017	0.035
-244.976	-200.000	0.011	-0.236
-243.961	-140.239	-0.118	-0.012
-242.946	68.200	0.058	-0.059
-241.932	507.299	-0.021	-0.048
-240.917	-114.662	0.352	0.066
-239.903	-70.201	-0.208	0.078
-238.888	19.057	0.121	-0.095
-237.873	35.894	0.332	0.287
-236.859	-32.750	-0.130	0.071
-235.844	-78.128	-0.029	-0.010
-234.830	-200.000	0.023	0.152
-233.815	800.000	0.104	-0.307
-232.800	269.002	0.034	0.058
-231.786	358.782	-0.060	-0.119
-230.771	-80.681	-0.141	0.046
-229.757	210.927	0.099	-0.154
-228.742	-128.821	-0.256	-0.035
-227.727	800.000	-0.050	0.165
-226.713	-70.364	0.070	-0.026
-225.698	-21.979	-0.050	0.030
-224.684	-29.990	-0.130	0.073
-223.669	140.501	-0.032	-0.042
-222.655	800.000	-0.045	0.172
-221.640	-200.000	0.013	0.140
-220.625	-108.903	0.217	0.046
-219.611	9.725	0.220	-0.165
-218.596	800.000	-0.071	-0.216
-217.582	-49.258	-0.156	-0.074
-216.567	591.177	0.111	0.269
-215.552	380.688	-0.104	0.211
-214.538	-152.026	0.075	-0.005
-213.523	-99.455	0.158	-0.039
-212.509	-0.906	0.101	0.071
-211.494	35.837	0.210	-0.182
-210.479	73.669	-0.374	-0.386
-209.465	-200.000	-0.013	0.074
-208.450	191.375	-0.119	0.176
-207.436	-53.478	0.232	-0.105
-206.421	-25.520	-0.068	0.040
-205.406	-41.475	-0.176	0.089
-204.392	713.766	-0.173	-0.451
-203.377	-51.476	-0.151	0.069
-202.363	149.510	0.101	-0.134
-201.348	-12.994	-0.182	-0.116
-200.333	-135.907	-0.154	0.018
-199.319	34.180	-0.289	0.248
-198.304	-94.278	0.147	-0.040
-197.290	246.178	0.042	-0.070
-196.275	-200.000	0.003	-0.214
-195.260	419.561	-0.143	0.301
-194.246	159.666	-0.184	0.252
-193.231	-18.183	-0.056	0.035
-192.217	-139.975	0.356	0.037
-191.202	-59.489	-0.191	0.081
-190.187	297.572	-0.141	0.255
-189.173	284.671	0.184	0.326
-188.158	-200.000	0.000	0.166
-187.144	74.165	0.140	-0.144
-186.129	109.530	0.148	0.174
-185.114	-44.335	-0.112	0.055
-184.100	222.906	-0.038	-0.061
-183.085	40.334	0.245	-0.217
-182.071	800.000	0.120	0.372
-181.056	-129.089	0.155	0.021
-180.042	695.362	-0.020	0.051
-179.027	-155.759	-0.429	0.027
-178.012	-200.000	0.089	-0.481
-176.998	161.811	0.083	-0.114
-175.983	-200.000	0.006	0.118
-174.969	-51.478	-0.383	0.176
-173.954	393.234	0.033	-0.067
-172.939	-141.913	0.299	0.029
-171.925	18.573	0.138	0.109
-170.910	-28.471	0.201	-0.114
-169.896	-98.623	-0.175	-0.044
-168.881	505.321	0.166	0.377
-167.866	-200.000	0.010	-0.323
-166.852	-96.805	0.236	0.061
-165.837	-200.000	0.015	0.175
-164.823	93.916	-0.118	-0.132
-163.808	800.000	-0.070	-0.234
-162.793	61.896	-0.249	0.244
-161.779	-192.614	0.375	0.003
-160.764	290.643	0.067	-0.119
-159.750	-200.000	0.004	0.223
-158.735	800.000	0.099	0.338
-157.720	-10.684	-0.205	0.133
-156.706	30.467	0.050	0.042
-155.691	126.574	-0.064	0.080
-154.677	637.800	-0.096	0.239
-153.662	283.667	0.049	0.086
-152.647	-200.000	0.010	-0.113
-151.633	601.168	0.091	0.222
-150.618	-200.000	-0.045	0.267
-149.604	96.481	-0.074	0.083
-148.589	257.667	-0.095	0.160
-147.574	28.345	0.146	-0.121
-146.560	-7.939	-0.178	-0.118
-145.545	-200.000	0.003	0.193
-144.531	-112.485	-0.096	-0.019
-143.516	141.437	-0.156	-0.202
-142.502	-73.866	-0.097	-0.034
-141.487	48.361	-0.110	-0.101
-140.472	678.132	0.047	-0.119
-139.458	-200.000	0.023	-0.238
-138.443	-94.729	0.302	-0.080
-137.429	800.000	-0.059	-0.186
-136.414	-44.884	0.140	0.068
-135.399	7.777	0.148	0.109
-134.385	800.000	-0.046	-0.151
-133.370	146.787	-0.140	-0.184
-132.356	24.802	-0.091	0.074
-131.341	-85.435	-0.306	0.094
-130.326	159.164	0.155	-0.212
-129.312	295.469	0.117	0.210
-128.297	800.000	-0.131	0.400
-127.283	-41.463	0.129	0.065
-126.268	-128.587	-0.053	0.007
-125.253	120.032	0.098	-0.119
-124.239	-200.000	0.017	0.164
-123.224	800.000	-0.073	0.275
-122.210	0.009	0.180	0.126
-121.195	-78.390	0.310	-0.104
-120.180	-200.000	-0.019	0.101
-119.166	-106.841	-0.342	0.074
-118.151	800.000	-0.067	0.254
-117.137	-88.781	0.226	0.066
-116.122	-28.107	0.096	-0.054
-115.107	-200.000	-0.029	0.199
-114.093	800.000	0.071	0.283
-113.078	-20.412	0.149	0.090
-112.064	800.000	0.018	0.062
-111.049	52.899	-0.005	-0.005
-110.034	114.822	-0.061	-0.072
-109.020	-200.000	-0.001	0.080
-108.005	548.914	-0.155	-0.363
-106.991	800.000	0.096	-0.301
-105.976	-103.953	0.154	0.035
-104.962	-200.000	0.073	-0.346
-103.947	-99.661	0.040	0.010
-102.932	610.791	-0.097	0.237
-101.918	-200.000	-0.019	0.273
-100.903	11.169	0.041	-0.031
-99.889	-200.000	0.040	0.198
-98.874	-117.799	0.369	0.065
-97.859	32.765	-0.220	0.187
-96.845	312.881	-0.116	0.213
-95.830	-200.000	-0.030	0.157
-94.816	277.672	0.040	0.069
-93.801	-61.352	-0.143	0.059
-92.786	-200.000	0.009	-0.114
-91.772	800.000	0.053	-0.182
-90.757	405.756	0.094	-0.194
-89.743	-200.000	-0.002	-0.063
-88.728	-200.000	0.002	0.124
-87.713	-53.148	0.227	-0.102
-86.699	-200.000	-0.038	-0.184
-85.684	-1.481	-0.202	0.139
-84.670	158.642	0.027	0.036
-83.655	-200.000	0.026	-0.151
-82.640	47.269	0.228	0.208
-81.626	-200.000	0.032	0.177
-80.611	263.550	0.074	0.126
-79.597	414.155	0.059	-0.122
-78.582	-99.929	0.410	0.100
-77.567	-200.000	-0.030	0.347
-76.553	800.000	-0.169	0.480
-75.538	-72.686	0.286	0.103
-74.524	-200.000	-0.051	-0.362
-73.509	800.000	-0.037	-0.141
-72.494	-8.369	-0.141	-0.093
-71.480	74.220	0.164	0.168
-70.465	408.971	0.045	-0.094
-69.451	246.443	0.143	-0.236
-68.436	-91.523	0.111	0.031
-67.422	104.488	-0.307	-0.354
-66.407	167.895	-0.118	-0.165
-65.392	-96.742	0.322	0.083
-64.378	-100.388	0.173	0.042
-63.363	89.321	-0.145	0.158
-62.349	113.909	0.134	0.160
-61.334	88.440	-1.042	-1.133
-60.319	-2.743	0.566	0.387
-59.305	-200.000	-0.265	-1.367
-58.290	176.831	0.974	1.385
-57.276	478.357	0.818	1.812
-56.261	-200.000	117.810	646.532
-55.246	483.845	1555.628	3460.589
-54.232	173.477	2724.221	3842.708
-53.217	105.406	2155.820	2490.146
-52.203	37.819	1587.207	1378.795
-51.188	29.430	1330.046	1105.352
-50.173	26.460	1291.990	1056.371
-49.159	52.438	1350.997	1260.620
-48.144	50.773	1364.325	1263.075
-47.130	29.411	1318.186	1095.208
-46.115	26.177	1299.811	1060.932
-45.100	25.930	1294.543	1055.148
-44.086	25.881	1292.373	1053.051
-43.071	25.813	1289.830	1050.541
-42.057	25.831	1287.659	1048.836
-41.042	25.939	1286.250	1048.275
-40.027	25.943	1284.456	1046.793
-39.013	25.827	1282.680	1044.633
-37.998	25.944	1280.561	1043.541
-36.984	25.914	1279.226	1042.241
-35.969	26.037	1277.367	1041.391
-34.954	26.058	1275.716	1040.124
-33.940	26.062	1274.206	1038.879
-32.925	26.029	1273.151	1037.785
-31.911	26.152	1271.047	1036.737
-30.896	26.152	1269.650	1035.555
-29.881	26.027	1269.043	1034.300
-28.867	26.116	1267.680	1033.661
-27.852	26.176	1266.001	1032.591
-26.838	26.078	1264.919	1031.109
-25.823	26.156	1263.377	1030.254
-24.809	26.124	1261.943	1028.862
-23.794	26.032	1260.701	1027.287
-22.779	26.075	1259.171	1026.244
-21.765	26.024	1258.299	1025.203
-20.750	26.085	1256.953	1024.413
-19.736	26.090	1255.141	1022.921
-18.721	26.030	1253.928	1021.553
-17.706	26.014	1252.887	1020.574
-16.692	25.961	1252.007	1019.520
-15.677	25.912	1251.110	1018.471
-14.663	25.984	1249.609	1017.613
-13.648	25.941	1248.845	1016.706
-12.633	25.919	1247.805	1015.700
-11.619	25.974	1246.882	1015.215
-10.604	25.990	1245.779	1014.370
-9.590	25.971	1245.421	1013.931
-8.575	25.891	1244.340	1012.558
-7.560	25.974	1243.168	1012.033
-6.546	26.036	1242.357	1011.680
-5.531	26.006	1241.553	1010.815
-4.517	26.014	1241.057	1010.415
-3.502	26.015	1239.499	1009.112
-2.487	25.923	1238.953	1008.113
-1.473	25.960	1234.696	1004.816
-0.458	24.543	1220.280	985.234
0.556	22.808	1204.056	949.134
1.571	19.114	1210.238	933.919
2.586	18.362	1224.780	940.927
3.600	18.221	1212.507	930.647
4.615	14.012	1141.808	854.705
5.629	7.307	1070.657	768.938
6.644	4.349	1053.570	742.465
7.659	4.241	1051.006	740.077
8.673	3.997	1049.926	738.088
9.688	3.954	1048.447	736.777
10.702	4.247	1046.871	736.999
11.717	8.707	1052.043	761.838
12.731	16.195	1063.166	805.706
13.746	21.082	1069.020	833.477
14.761	22.058	1069.935	838.783
15.775	21.364	1068.482	834.259
16.790	20.360	1066.301	827.697
17.804	19.690	1065.038	823.450
18.819	19.455	1063.966	821.432
19.834	19.486	1063.358	821.040
20.848	19.380	1063.296	820.413
21.863	19.266	1061.693	818.563
22.877	19.066	1060.846	816.888
23.892	19.064	1060.374	816.443
24.907	18.924	1059.968	815.394
25.921	19.056	1058.491	814.810
26.936	19.006	1057.324	813.605
27.950	18.979	1055.701	812.155
28.965	19.180	1054.411	812.038
29.980	19.405	1053.179	812.076
30.994	19.352	1052.655	811.354
32.009	19.417	1051.948	811.041
33.023	19.321	1050.809	809.639
34.038	19.238	1049.580	808.230
35.053	19.042	1048.764	806.612
36.067	19.009	1047.950	805.761
37.082	19.125	1047.276	805.713
38.096	19.430	1046.102	806.164
39.111	19.214	1045.701	804.777
40.126	19.026	1044.535	802.930
41.140	18.734	1042.719	800.103
42.155	18.645	1041.395	798.603
43.169	18.535	1040.284	797.169
44.184	18.636	1039.309	796.820
45.199	18.721	1038.212	796.302
46.213	18.782	1038.117	796.443
47.228	19.127	1036.843	796.990
48.242	19.170	1035.857	796.361
49.257	19.042	1034.931	794.988
50.271	19.248	1034.359	795.428
51.286	19.317	1033.688	795.163
52.301	19.290	1032.620	794.146
53.315	18.970	1031.302	791.586
54.330	18.970	1030.241	790.705
55.344	18.860	1029.285	789.395
56.359	18.844	1028.709	788.811
57.374	18.768	1027.773	787.674
58.388	18.733	1026.823	786.716
59.403	18.473	1026.306	785.061
60.417	18.697	1025.032	785.042
61.432	18.586	1024.640	784.164
62.447	18.534	1023.782	783.201
63.461	18.388	1022.969	781.843
64.476	18.452	1021.838	781.201
65.490	18.330	1021.343	780.197
66.505	18.534	1020.472	780.390
67.520	18.524	1019.934	779.867
68.534	18.433	1018.765	778.489
69.549	18.511	1017.987	778.177
70.563	18.410	1017.482	777.267
71.578	18.240	1016.478	775.659
72.593	18.173	1015.567	774.591
73.607	18.096	1015.227	773.917
74.622	18.178	1014.807	773.897
75.636	18.196	1014.409	773.608
76.651	18.241	1013.431	772.995
77.666	18.302	1012.620	772.585
78.680	18.243	1012.087	771.843
79.695	18.409	1011.264	771.896
80.709	18.545	1010.703	772.013
81.724	18.741	1009.812	772.146
82.739	18.685	1009.626	771.681
83.753	19.015	1009.326	772.866
84.768	19.371	1008.467	773.741
85.782	19.581	1007.338	773.746
86.797	19.442	1006.404	772.338
87.812	19.316	1005.235	770.808
88.826	19.291	1004.810	770.301
89.841	19.338	1003.998	769.823
90.855	19.479	1003.128	769.714
91.870	19.482	1002.296	769.022
92.884	19.498	1001.149	768.145
93.899	19.469	1000.589	767.518
94.914	19.602	999.615	767.293
95.928	19.381	999.243	765.959
96.943	19.336	998.022	764.755
97.957	19.234	997.122	763.547
98.972	19.294	996.195	763.036
99.987	19.367	995.396	762.678
101.001	19.304	994.081	761.327
102.016	19.252	993.843	760.846
103.030	19.349	992.722	760.350
104.045	19.400	992.044	759.988
105.060	19.110	991.224	758.016
106.074	18.845	990.022	755.862
107.089	18.607	988.439	753.541
108.103	18.512	987.644	752.455
109.118	18.476	987.014	751.750
110.133	18.490	985.422	750.531
111.147	18.413	985.237	749.986
112.162	18.527	984.547	749.892
113.176	18.750	984.050	750.422
114.191	18.877	983.197	750.262
115.206	18.749	982.367	749.001
116.220	18.602	981.472	747.614
117.235	18.657	980.799	747.273
118.249	18.602	979.962	746.333
119.264	18.610	979.009	745.575
120.279	18.516	978.288	744.550
121.293	18.388	977.396	743.250
122.308	18.370	976.354	742.314
123.322	18.218	975.483	740.928
124.337	18.310	974.069	740.188
125.352	18.275	973.431	739.485
126.366	18.348	972.100	738.724
127.381	18.289	971.195	737.715
128.395	18.292	970.633	737.236
129.410	18.256	970.577	736.972
130.424	18.510	969.009	736.812
131.439	18.678	968.743	737.266
132.454	18.835	967.603	737.005
133.468	18.713	966.602	735.654
134.483	18.794	966.450	735.819
135.497	18.818	965.201	734.905
136.512	18.885	964.430	734.541
137.527	18.781	963.820	733.570
138.541	18.663	963.750	732.947
139.556	18.815	962.711	732.740
140.570	18.978	962.338	733.086
141.585	19.190	961.571	733.338
142.600	19.281	960.447	732.802
143.614	19.333	960.112	732.706
144.629	19.389	958.996	732.026
145.643	19.367	957.665	730.853
146.658	19.111	956.481	728.799
147.673	19.078	955.530	727.873
148.687	18.959	954.673	726.651
149.702	18.756	953.952	725.182
150.716	18.748	953.409	724.669
151.731	18.961	952.594	724.883
152.746	18.814	951.815	723.607
153.760	18.854	951.076	723.150
154.775	19.040	950.675	723.563
155.789	19.237	950.002	723.815
156.804	19.202	949.109	722.924
157.819	19.157	948.865	722.484
158.833	19.333	948.261	722.701
159.848	19.542	947.121	722.644
160.862	19.344	946.089	720.964
161.877	18.959	945.085	718.525
162.892	18.750	943.953	716.730
163.906	18.850	942.718	716.144
164.921	18.917	942.063	715.861
165.935	18.924	941.447	715.361
166.950	18.953	940.518	714.712
167.964	18.883	939.929	713.909
168.979	18.704	938.909	712.328
169.994	18.841	937.751	711.956
171.008	19.030	937.180	712.243
172.023	19.190	937.034	712.730
173.037	19.404	936.208	712.925
174.052	19.277	935.157	711.536
175.067	19.024	934.082	709.612
176.081	18.631	933.814	707.724
177.096	18.758	933.270	707.772
178.110	18.838	932.819	707.698
179.125	18.823	932.340	707.212
180.140	19.045	931.960	707.770
181.154	19.213	931.448	708.012
182.169	19.254	931.430	708.103
183.183	19.273	930.378	707.318
184.198	19.265	929.569	706.607
185.213	19.375	928.588	706.249
186.227	19.409	928.059	705.927
187.242	19.503	927.642	705.929
188.256	19.646	927.380	706.253
189.271	19.672	926.087	705.312
190.286	19.091	925.351	702.321
191.300	18.799	923.947	700.003
192.315	18.573	923.402	698.606
193.329	18.677	923.212	698.822
194.344	18.931	922.550	699.295
195.359	19.087	921.697	699.219
196.373	19.281	921.332	699.666
197.388	19.390	921.660	700.298
198.402	19.547	920.978	700.355
199.417	19.837	919.836	700.601
200.432	19.821	919.900	700.519
201.446	19.913	919.266	700.348
202.461	20.082	919.156	700.888
203.475	19.927	918.184	699.456
204.490	19.566	916.947	696.996
205.504	19.394	916.120	695.611
206.519	19.403	915.290	694.955
207.534	19.544	914.646	694.973
208.548	19.536	914.249	694.578
209.563	19.466	913.759	693.862
210.577	19.554	912.748	693.389
211.592	19.886	912.468	694.448
212.607	19.949	911.476	693.883
213.621	19.858	910.741	692.895
214.636	19.694	910.280	691.830
215.650	19.796	909.524	691.601
216.665	19.932	909.165	691.810
217.680	19.913	908.688	691.310
218.694	19.971	908.119	691.048
219.709	19.879	907.459	690.115
220.723	19.836	906.409	689.086
221.738	19.713	905.945	688.183
222.753	19.800	904.997	687.747
223.767	19.893	904.855	687.947
224.782	20.056	904.406	688.195
225.796	20.042	904.192	687.914
226.811	19.981	903.020	686.722
227.826	19.932	901.877	685.595
228.840	19.770	901.397	684.530
229.855	19.738	900.767	683.865
230.869	19.828	899.858	683.468
231.884	19.631	899.358	682.252
232.899	19.581	898.641	681.451
233.913	19.352	897.747	679.810
234.928	19.550	896.906	679.889
235.942	19.379	896.782	679.066
236.957	19.514	896.352	679.211
237.972	19.356	895.533	677.909
238.986	19.503	894.673	677.774
240.001	19.469	894.143	677.178
241.015	19.588	893.516	677.109
242.030	19.763	893.228	677.519
243.045	19.887	892.040	677.042
244.059	19.791	891.973	676.556
245.074	19.677	891.237	675.492
246.088	19.833	891.084	675.928
247.103	20.078	890.629	676.480
248.117	20.230	890.593	676.984
249.132	20.490	889.846	677.370
250.147	20.708	889.539	677.924
251.161	20.876	888.726	677.902
252.176	20.773	888.121	676.978
253.190	20.859	887.336	676.653
254.205	20.875	886.910	676.332
255.220	20.828	886.197	675.545
256.234	20.797	885.521	674.849
257.249	20.838	884.782	674.385
258.263	20.666	884.308	673.299
259.278	20.572	884.032	672.665
260.293	20.921	882.778	673.001
261.307	20.971	882.314	672.780
262.322	20.851	882.143	672.127
263.336	20.976	881.223	671.848
264.351	20.876	880.801	671.081
265.366	21.002	880.042	670.929
266.380	20.965	879.304	670.163
267.395	20.760	878.201	668.478
268.409	20.709	877.337	667.567
269.424	20.818	876.629	667.386
270.439	20.647	876.095	666.263
271.453	20.527	875.386	665.206
272.468	20.504	875.312	665.002
273.482	20.528	874.269	664.246
274.497	20.562	873.768	663.935
275.512	20.567	872.921	663.252
276.526	20.577	872.625	663.006
277.541	20.568	872.375	662.723
278.555	20.804	872.109	663.362
279.570	21.089	871.492	663.917
280.585	20.922	870.536	662.498
281.599	20.768	869.677	661.200
282.614	20.594	869.188	660.108
283.628	20.714	868.626	660.080
284.643	20.704	867.614	659.214
285.657	20.775	867.083	659.020
286.672	20.691	866.356	658.094
287.687	20.915	865.552	658.271
288.701	20.799	865.245	657.540
289.716	20.820	864.712	657.155
290.730	20.726	864.276	656.412
291.745	20.831	863.450	656.122
292.760	20.965	863.240	656.410
293.774	21.150	862.777	656.696
294.789	21.143	861.587	655.704
295.803	20.869	860.554	653.833
296.818	20.816	860.311	653.392
297.833	20.818	859.702	652.877
298.847	20.826	859.317	652.558
299.862	20.935	858.675	652.420
300.876	21.037	858.131	652.331
301.891	21.074	858.087	652.377
302.906	21.150	857.898	652.459
303.920	21.542	856.853	653.070
304.935	21.497	856.535	652.602
305.949	21.320	855.684	651.239
306.964	21.213	854.852	650.147
307.979	21.193	854.173	649.500
308.993	21.316	853.940	649.724
310.008	21.387	853.243	649.400
311.022	21.151	852.898	648.202
312.037	21.170	851.694	647.300
313.052	20.732	851.374	645.375
314.066	20.699	850.615	644.623
315.081	20.727	850.103	644.280
316.095	20.859	849.619	644.344
317.110	20.736	849.192	643.509
318.125	20.791	848.565	643.179
319.139	20.847	847.924	642.845
320.154	20.846	847.683	642.600
321.168	20.840	847.372	642.286
322.183	20.952	846.813	642.220
323.197	20.937	845.957	641.457
324.212	20.858	845.741	640.948
325.227	21.112	844.616	640.971
326.241	20.969	844.135	640.022
327.256	20.951	843.619	639.508
328.270	20.849	842.806	638.462
329.285	20.868	842.196	638.012
330.300	20.744	842.039	637.385
331.314	20.854	841.711	637.483
332.329	21.249	840.672	638.084
333.343	21.220	840.872	638.073
334.358	21.303	840.241	637.839
335.373	21.280	840.142	637.624
336.387	21.315	839.903	637.515
337.402	21.489	839.318	637.646
338.416	21.603	839.082	637.827
339.431	21.723	839.302	638.375
340.446	21.826	838.873	638.368
341.460	21.902	838.247	638.111
342.475	21.923	837.781	637.774
343.489	21.868	837.517	637.317
344.504	22.012	837.466	637.745
345.519	21.823	836.993	636.645
346.533	21.963	835.861	636.235
347.548	21.686	835.249	634.709
348.562	21.487	834.724	633.532
349.577	21.432	834.167	632.855
350.592	21.184	833.059	631.061
351.606	21.144	832.459	630.407
352.621	21.453	831.656	630.857
353.635	21.404	831.264	630.327
354.650	21.413	830.824	629.972
355.665	21.502	830.177	629.744
356.679	21.655	829.586	629.791
357.694	21.537	828.881	628.775
358.708	21.605	828.390	628.594
359.723	21.536	827.488	627.605
360.738	21.557	827.295	627.477
361.752	21.655	826.695	627.320
362.767	21.890	826.446	627.916
363.781	21.954	825.826	627.619
364.796	22.192	825.476	628.145
365.810	22.249	825.262	628.131
366.825	22.256	825.078	627.962
367.840	22.104	824.367	626.822
368.854	22.051	823.377	625.827
369.869	21.984	823.217	625.408
370.883	21.973	822.756	624.965
371.898	22.235	822.316	625.509
372.913	22.144	822.366	625.166
373.927	22.056	821.528	624.161
374.942	22.080	820.917	623.728
375.956	22.248	820.569	624.004
376.971	22.468	819.798	624.141
377.986	22.431	820.118	624.199
379.000	22.543	819.097	623.762
380.015	22.345	819.122	623.027
381.029	22.318	818.121	622.116
382.044	22.481	817.116	621.870
383.059	22.520	816.614	621.571
384.073	22.433	816.083	620.805
385.088	22.125	815.418	619.158
386.102	21.849	814.876	617.721
387.117	21.995	814.050	617.554
388.132	21.957	813.555	616.989
389.146	22.170	813.222	617.430
390.161	22.253	812.793	617.343
391.175	22.468	812.371	617.723
392.190	22.417	811.789	617.047
393.205	22.113	811.186	615.467
394.219	22.032	811.061	615.037
395.234	21.976	810.314	614.219
396.248	21.847	809.931	613.424
397.263	21.729	809.575	612.685
398.278	21.771	808.580	612.026
399.292	21.881	808.122	612.009
400.307	21.839	807.479	611.322
401.321	21.763	807.460	610.986
402.336	21.986	807.437	611.692
403.350	21.931	807.237	611.295
404.365	22.271	806.467	611.840
405.380	22.560	806.092	612.509
406.394	22.446	805.811	611.845
407.409	22.604	805.122	611.815
408.423	22.775	804.964	612.232
409.438	22.832	804.597	612.100
410.453	22.950	804.033	612.025
411.467	22.864	803.933	611.595
412.482	22.932	803.151	611.180
413.496	23.125	803.118	611.769
414.511	22.962	802.664	610.808
415.526	23.002	802.359	610.657
416.540	22.891	801.596	609.640
417.555	22.754	801.261	608.861
418.569	22.839	800.769	608.724
419.584	22.858	800.215	608.317
420.599	22.797	800.083	607.951
421.613	165.273	1371.845	1797.391
422.628	143.615	1455.143	1797.466
