DTS Sentinel unit serial number:	SN413079Multiplexer serial number:	ORYXHardware model number:	OX4-SRSoftware version number:	ORYX F/W v4.00 Oryx Data Collector v3.7.2.0data status	okinstallation	princeton_trtdifferential loss correction	single-endedforward channel	channel 1reverse channel	N/Adate	2019/09/13time	01:14:35forward acquisition time	60.00reverse acquisition time	0.00gamma	496.2192k internal	0.2330k external	0.2330temperature offset calibration	1.0141default loss term (dB/km)	0.3790temperature slope calibration	1.0000multiplexer offset coefficient	1.0000multiplexer slope coefficient	1.0000fibre end	0.00T internal ref (°C)	27.94T ext. ref 1 (°C)	3.69T ext. ref 2 (°C)	22.56length (m)	temperature (°C)	Stokes	anti-Stokes-747.200	-200.000	0.001	0.218
-746.185	-170.471	-0.144	0.005
-745.171	248.574	-0.056	0.095
-744.156	-200.000	-0.023	0.108
-743.142	-200.000	0.019	0.163
-742.127	-185.260	-0.200	-0.003
-741.112	-18.490	0.272	0.171
-740.098	800.000	-0.057	-0.175
-739.083	-89.524	-0.180	0.053
-738.069	47.788	-0.378	0.355
-737.054	-200.000	0.052	-0.320
-736.039	20.928	-0.244	-0.199
-735.025	330.980	0.203	0.393
-734.010	-75.635	-0.316	0.113
-732.996	-200.000	0.048	0.334
-731.981	-33.031	0.102	0.057
-730.966	95.823	-0.287	-0.330
-729.952	-178.964	-0.425	0.010
-728.937	257.854	0.113	0.195
-727.923	502.495	-0.035	-0.082
-726.908	-82.900	0.294	0.095
-725.894	0.535	-0.163	-0.117
-724.879	-111.598	-0.287	-0.059
-723.864	8.179	-0.314	-0.238
-722.850	168.039	-0.037	0.053
-721.835	-200.000	-0.021	-0.259
-720.821	68.443	0.083	-0.086
-719.806	-2.377	-0.241	0.170
-718.791	-200.000	0.011	-0.078
-717.777	-63.640	0.290	0.120
-716.762	178.710	-0.091	-0.134
-715.748	159.783	0.093	-0.131
-714.733	275.261	0.136	-0.243
-713.718	411.786	0.104	0.222
-712.704	17.402	0.179	0.143
-711.689	-90.112	-0.055	-0.016
-710.675	800.000	-0.125	-0.445
-709.660	-42.521	-0.262	0.134
-708.645	-60.605	-0.276	0.118
-707.631	-69.057	0.150	0.058
-706.616	800.000	0.072	0.202
-705.602	33.447	0.197	-0.172
-704.587	-200.000	-0.001	0.051
-703.572	-31.949	0.285	0.160
-702.558	800.000	0.061	-0.259
-701.543	-156.231	0.139	0.009
-700.529	-55.889	0.106	0.047
-699.514	235.621	0.061	-0.101
-698.499	-47.547	-0.275	-0.134
-697.485	800.000	0.056	-0.196
-696.470	17.504	-0.148	-0.118
-695.456	-50.697	0.128	-0.061
-694.441	44.123	-0.210	-0.194
-693.426	-129.561	0.236	-0.033
-692.412	212.628	-0.014	-0.023
-691.397	-105.761	0.088	-0.020
-690.383	54.243	0.291	0.282
-689.368	800.000	-0.042	0.120
-688.354	-200.000	0.002	0.329
-687.339	-132.956	0.231	-0.030
-686.324	-186.706	-0.211	-0.003
-685.310	-200.000	0.008	-0.118
-684.295	800.000	0.019	0.057
-683.281	-110.441	0.487	0.102
-682.266	176.387	-0.057	-0.084
-681.251	79.576	-0.167	0.180
-680.237	352.595	-0.072	-0.143
-679.222	-119.957	0.152	-0.026
-678.208	126.095	-0.194	0.247
-677.193	800.000	-0.041	-0.114
-676.178	-8.667	-0.205	-0.138
-675.164	-74.326	-0.181	0.066
-674.149	27.699	-0.156	-0.132
-673.135	126.028	-0.077	0.098
-672.120	136.634	0.137	0.180
-671.105	215.989	-0.085	-0.136
-670.091	343.741	0.084	-0.166
-669.076	800.000	0.088	-0.326
-668.062	-59.330	0.145	-0.062
-667.047	-68.799	-0.025	0.010
-666.032	-175.985	-0.363	-0.010
-665.018	-116.647	0.033	0.006
-664.003	-54.606	-0.396	-0.180
-662.989	252.118	-0.224	-0.383
-661.974	787.386	-0.084	-0.232
-660.959	242.841	-0.072	-0.122
-659.945	634.079	0.070	0.179
-658.930	-200.000	0.054	-0.277
-657.916	-0.836	0.089	-0.063
-656.901	-15.879	0.163	0.104
-655.886	-7.150	-0.267	-0.181
-654.872	-200.000	-0.001	0.112
-653.857	42.787	0.210	-0.192
-652.843	-73.119	-0.054	0.020
-651.828	-43.821	-0.389	-0.197
-650.814	67.653	-0.146	-0.149
-649.799	364.368	-0.136	0.274
-648.784	-200.000	-0.002	0.245
-647.770	-200.000	-0.005	0.309
-646.755	363.674	0.087	0.176
-645.741	-200.000	0.038	-0.351
-644.726	168.933	-0.159	-0.227
-643.711	101.190	-0.025	0.029
-642.697	-182.529	-0.105	-0.002
-641.682	61.637	0.045	-0.045
-640.668	117.994	0.154	0.191
-639.653	-21.302	-0.159	0.097
-638.638	274.202	-0.073	-0.130
-637.624	443.571	0.124	-0.273
-636.609	-11.381	-0.149	-0.098
-635.595	-145.034	0.156	0.014
-634.580	8.401	0.242	-0.183
-633.565	435.886	0.086	-0.187
-632.551	29.218	-0.212	-0.180
-631.536	439.504	-0.022	0.049
-630.522	243.641	0.029	0.049
-629.507	19.293	-0.108	0.087
-628.492	-200.000	0.032	0.180
-627.478	-200.000	0.013	-0.121
-626.463	292.581	0.106	0.193
-625.449	-187.453	-0.057	-0.001
-624.434	35.443	0.056	0.049
-623.419	-106.183	-0.137	0.031
-622.405	44.312	0.217	-0.200
-621.390	79.018	0.182	0.195
-620.376	-200.000	-0.081	0.389
-619.361	-200.000	0.001	0.133
-618.346	21.910	-0.270	-0.220
-617.332	-200.000	0.020	0.106
-616.317	-200.000	0.004	0.031
-615.303	33.888	-0.058	-0.051
-614.288	800.000	0.033	-0.102
-613.273	-133.535	0.079	-0.010
-612.259	214.794	-0.065	-0.102
-611.244	100.033	-0.233	-0.271
-610.230	-30.504	-0.305	0.173
-609.215	-46.514	0.326	0.160
-608.201	-15.569	0.212	-0.135
-607.186	-85.694	-0.116	0.036
-606.171	-162.253	-0.419	-0.021
-605.157	-200.000	0.009	-0.191
-604.142	574.109	-0.055	0.133
-603.128	-177.315	-0.217	-0.005
-602.113	152.089	-0.173	-0.236
-601.098	91.827	-0.252	0.284
-600.084	-73.217	-0.148	0.054
-599.069	566.583	0.122	0.295
-598.055	-138.483	-0.136	0.015
-597.040	-132.370	-0.234	-0.030
-596.025	75.915	-0.080	0.084
-595.011	118.226	0.132	-0.163
-593.996	113.830	-0.216	-0.262
-592.982	108.796	-0.038	0.046
-591.967	-32.866	0.171	0.095
-590.952	308.038	-0.155	0.289
-589.938	-95.903	-0.258	0.069
-588.923	-61.241	-0.287	-0.121
-587.909	-7.334	-0.356	0.241
-586.894	-112.861	-0.207	-0.041
-585.879	-74.475	0.322	0.116
-584.865	529.359	0.092	0.216
-583.850	148.897	0.032	-0.044
-582.836	-53.123	0.198	-0.091
-581.821	-200.000	-0.002	-0.035
-580.806	41.379	-0.316	0.286
-579.792	-82.333	-0.178	0.058
-578.777	-200.000	0.057	0.310
-577.763	-36.748	0.157	-0.084
-576.748	800.000	0.089	-0.314
-575.733	108.855	0.198	-0.237
-574.719	-5.096	0.331	-0.228
-573.704	689.700	0.095	-0.248
-572.690	64.646	-0.134	0.135
-571.675	-200.000	-0.016	-0.433
-570.661	193.006	-0.171	-0.258
-569.646	-63.034	0.145	-0.060
-568.631	-93.765	-0.295	0.081
-567.617	-187.442	0.465	-0.006
-566.602	192.203	-0.087	-0.132
-565.588	377.186	0.089	0.182
-564.573	26.372	-0.028	-0.023
-563.558	349.140	0.031	-0.062
-562.544	-60.236	-0.408	0.174
-561.529	700.304	-0.103	-0.270
-560.515	-157.303	0.164	0.010
-559.500	400.593	0.120	0.252
-558.485	-33.639	0.121	0.067
-557.471	-200.000	0.033	-0.324
-556.456	8.340	-0.264	0.198
-555.442	800.000	0.023	0.099
-554.427	-200.000	-0.002	0.087
-553.412	-200.000	0.004	0.091
-552.398	139.819	-0.291	0.383
-551.383	-16.079	-0.028	-0.018
-550.369	-94.865	-0.148	0.040
-549.354	-200.000	0.123	-0.552
-548.339	-96.535	-0.101	0.027
-547.325	111.330	-0.047	-0.057
-546.310	8.836	-0.123	-0.093
-545.296	479.154	0.057	-0.128
-544.281	800.000	0.040	0.156
-543.266	227.279	-0.148	0.240
-542.252	292.563	-0.142	-0.258
-541.237	-200.000	-0.002	-0.073
-540.223	-162.658	0.348	0.017
-539.208	-200.000	0.081	-0.460
-538.193	-200.000	0.065	0.427
-537.179	-110.157	0.197	-0.041
-536.164	577.586	-0.052	0.126
-535.150	-66.671	0.091	0.036
-534.135	-49.416	0.396	0.188
-533.121	-200.000	0.013	-0.173
-532.106	-87.186	0.103	-0.031
-531.091	40.441	-0.092	0.083
-530.077	-200.000	-0.043	0.232
-529.062	178.330	0.108	0.157
-528.048	145.766	-0.133	-0.178
-527.033	-67.854	-0.267	0.104
-526.018	-26.628	0.052	-0.031
-525.004	-162.441	-0.327	0.016
-523.989	115.034	0.157	-0.191
-522.975	800.000	0.132	-0.436
-521.960	800.000	-0.067	0.246
-520.945	-200.000	-0.008	-0.091
-519.931	57.044	-0.297	-0.289
-518.916	-198.249	-0.436	0.003
-517.902	20.707	0.150	-0.121
-516.887	301.298	-0.143	-0.264
-515.872	463.189	-0.036	-0.079
-514.858	-25.551	0.165	0.097
-513.843	52.477	0.205	-0.195
-512.829	160.176	-0.110	0.152
-511.814	-37.373	0.157	-0.084
-510.799	-121.150	0.062	0.010
-509.785	-200.000	-0.010	0.151
-508.770	-199.506	0.114	-0.001
-507.756	-200.000	-0.009	-0.067
-506.741	147.952	0.155	0.209
-505.726	800.000	-0.065	-0.248
-504.712	1.608	-0.451	-0.324
-503.697	5.725	-0.030	-0.022
-502.683	284.849	-0.134	-0.241
-501.668	-67.957	0.248	0.097
-500.653	2.751	-0.356	-0.258
-499.639	239.076	-0.124	-0.205
-498.624	-200.000	0.037	0.324
-497.610	89.936	0.258	-0.287
-496.595	724.881	-0.055	-0.146
-495.581	-200.000	0.021	0.094
-494.566	-200.000	0.007	0.089
-493.551	-56.086	-0.084	-0.037
-492.537	81.940	0.105	-0.114
-491.522	-33.711	-0.168	0.092
-490.508	-93.303	-0.248	-0.069
-489.493	800.000	-0.110	0.337
-488.478	29.189	0.304	0.257
-487.464	129.173	0.186	0.236
-486.449	-62.642	0.166	-0.069
-485.435	-33.345	0.256	0.141
-484.420	-115.989	0.124	-0.023
-483.405	32.989	-0.095	0.082
-482.391	-200.000	0.003	0.242
-481.376	-133.576	0.137	0.017
-480.362	-75.724	-0.071	-0.025
-479.347	800.000	-0.008	0.029
-478.332	217.062	-0.287	0.455
-477.318	-89.368	0.115	0.034
-476.303	-144.438	-0.224	0.021
-475.289	-59.059	-0.210	-0.090
-474.274	41.756	-0.133	-0.120
-473.259	-200.000	-0.003	0.171
-472.245	-96.235	-0.227	-0.060
-471.230	-158.932	-0.110	0.006
-470.216	-83.911	-0.111	0.035
-469.201	-39.882	0.317	-0.165
-468.186	800.000	-0.044	-0.149
-467.172	31.646	0.110	-0.095
-466.157	-57.589	0.132	-0.057
-465.143	-16.388	0.212	0.134
-464.128	800.000	0.116	0.355
-463.113	-141.579	-0.121	0.012
-462.099	-200.000	-0.056	-0.269
-461.084	227.000	0.149	0.242
-460.070	-127.923	-0.254	0.036
-459.055	422.493	-0.090	-0.193
-458.040	-200.000	-0.020	0.166
-457.026	-110.107	0.311	-0.065
-456.011	-41.775	0.129	0.066
-454.997	-200.000	0.020	-0.223
-453.982	12.491	-0.153	-0.118
-452.968	296.411	-0.074	0.136
-451.953	-200.000	0.014	0.077
-450.938	-64.405	-0.327	-0.132
-449.924	-200.000	0.018	-0.189
-448.909	-200.000	0.012	-0.158
-447.895	26.978	0.242	-0.202
-446.880	174.172	0.033	0.047
-445.865	-200.000	0.001	-0.255
-444.851	800.000	-0.036	0.120
-443.836	152.794	0.177	0.241
-442.822	-17.049	0.045	0.028
-441.807	-134.072	-0.198	0.024
-440.792	800.000	-0.058	-0.210
-439.778	-79.899	-0.250	-0.083
-438.763	-67.977	0.235	-0.091
-437.749	479.573	0.025	-0.057
-436.734	-200.000	-0.022	0.468
-435.719	163.821	-0.113	-0.158
-434.705	-152.339	-0.224	-0.016
-433.690	-200.000	0.020	0.087
-432.676	-76.941	-0.408	0.142
-431.661	-74.679	0.156	-0.056
-430.646	-73.452	-0.172	0.062
-429.632	-200.000	-0.011	0.059
-428.617	-73.350	0.278	0.101
-427.603	-200.000	-0.017	0.139
-426.588	800.000	-0.086	0.274
-425.573	-117.674	-0.457	-0.082
-424.559	-122.418	-0.063	0.010
-423.544	-200.000	-0.009	0.228
-422.530	-108.395	-0.181	0.039
-421.515	800.000	-0.073	-0.254
-420.500	-82.670	0.238	0.077
-419.486	-76.264	0.198	0.069
-418.471	375.906	-0.073	-0.149
-417.457	-130.656	-0.119	0.016
-416.442	-50.687	-0.091	-0.042
-415.428	112.917	0.036	0.044
-414.413	-57.467	-0.136	0.059
-413.398	233.834	-0.115	-0.188
-412.384	759.420	0.188	-0.507
-411.369	-63.125	0.244	-0.100
-410.355	-200.000	0.023	0.118
-409.340	800.000	-0.030	-0.114
-408.325	-1.157	0.125	0.088
-407.311	-88.336	-0.222	0.066
-406.296	479.047	-0.076	0.171
-405.282	800.000	0.088	0.365
-404.267	-107.315	-0.274	-0.060
-403.252	800.000	0.063	0.205
-402.238	-130.422	-0.284	-0.038
-401.223	20.903	-0.242	0.195
-400.209	-138.566	0.192	-0.021
-399.194	84.682	-0.046	-0.050
-398.179	74.466	-0.140	0.147
-397.165	-166.647	0.105	0.004
-396.150	-63.037	-0.280	0.115
-395.136	60.299	0.231	0.227
-394.121	493.456	-0.089	-0.203
-393.106	-200.000	-0.057	0.322
-392.092	-152.345	0.337	-0.024
-391.077	-54.716	-0.240	-0.108
-390.063	800.000	-0.092	0.353
-389.048	-108.702	-0.165	-0.035
-388.033	-60.129	0.272	0.115
-387.019	255.470	0.118	0.200
-386.004	-105.268	-0.133	0.030
-384.990	7.042	0.293	0.217
-383.975	-132.630	0.124	-0.016
-382.960	-45.443	0.162	-0.080
-381.946	-7.513	-0.101	0.068
-380.931	-65.914	0.125	-0.049
-379.917	-200.000	0.008	-0.195
-378.902	-200.000	0.009	0.170
-377.888	-145.814	0.264	0.023
-376.873	-1.513	-0.260	-0.182
-375.858	-79.861	0.358	-0.120
-374.844	-36.637	0.328	-0.175
-373.829	-200.000	-0.012	0.270
-372.815	800.000	-0.114	0.344
-371.800	-200.000	-0.033	-0.180
-370.785	37.772	0.179	0.158
-369.771	-57.604	-0.099	0.043
-368.756	-90.192	0.278	0.080
-367.742	218.125	0.155	-0.245
-366.727	525.600	0.044	-0.103
-365.712	-117.408	0.279	-0.050
-364.698	-200.000	0.011	0.294
-363.683	-87.299	0.190	0.057
-362.669	149.671	0.181	0.244
-361.654	-121.740	0.283	-0.046
-360.639	483.018	0.129	0.290
-359.625	-122.285	-0.476	-0.077
-358.610	27.710	0.170	0.142
-357.596	-124.231	-0.309	-0.048
-356.581	250.928	0.215	-0.363
-355.566	2.204	0.209	-0.150
-354.552	800.000	-0.091	-0.279
-353.537	-200.000	-0.077	-0.370
-352.523	96.096	-0.157	0.178
-351.508	91.386	0.106	-0.119
-350.493	37.202	0.101	0.089
-349.479	-5.147	0.181	-0.124
-348.464	234.250	0.144	0.235
-347.450	267.046	-0.034	0.059
-346.435	2.528	-0.049	-0.035
-345.420	207.511	-0.213	0.329
-344.406	-34.506	-0.136	0.074
-343.391	58.689	0.311	-0.303
-342.377	-194.185	-0.183	-0.001
-341.362	-200.000	-0.052	0.388
-340.348	-200.000	-0.239	-0.001
-339.333	219.943	-0.055	0.087
-338.318	-200.000	-0.014	0.064
-337.304	-35.611	0.085	0.046
-336.289	-45.797	0.116	-0.057
-335.275	121.900	-0.177	-0.218
-334.260	-200.000	0.014	-0.155
-333.245	144.341	-0.129	0.170
-332.231	-28.882	0.170	-0.097
-331.216	-200.000	0.005	-0.031
-330.202	800.000	-0.082	0.264
-329.187	-122.645	0.206	-0.033
-328.172	800.000	-0.111	0.306
-327.158	239.215	0.151	0.249
-326.143	-200.000	0.002	0.130
-325.129	-169.754	0.328	0.012
-324.114	-17.668	-0.299	0.186
-323.099	29.089	-0.151	-0.127
-322.085	-120.196	-0.420	-0.071
-321.070	800.000	0.145	-0.405
-320.056	-76.084	-0.206	-0.072
-319.041	-200.000	0.005	-0.369
-318.026	312.413	0.226	-0.420
-317.012	-34.805	-0.202	-0.109
-315.997	-200.000	0.082	0.357
-314.983	30.092	-0.118	0.100
-313.968	-39.054	0.235	0.122
-312.953	-54.036	-0.156	-0.070
-311.939	556.869	-0.059	0.141
-310.924	602.113	-0.093	-0.229
-309.910	516.688	0.173	-0.400
-308.895	800.000	-0.015	0.058
-307.880	67.497	-0.132	-0.134
-306.866	219.602	0.072	-0.113
-305.851	23.025	-0.317	0.257
-304.837	-70.079	-0.286	-0.108
-303.822	-200.000	0.023	-0.105
-302.807	84.040	0.196	-0.212
-301.793	55.420	0.263	-0.252
-300.778	-111.530	-0.085	-0.017
-299.764	-200.000	0.037	0.357
-298.749	167.144	-0.119	-0.167
-297.735	800.000	0.074	-0.211
-296.720	-100.724	0.074	-0.018
-295.705	3.190	0.147	0.106
-294.691	-50.544	-0.076	0.036
-293.676	-200.000	0.006	0.263
-292.662	-200.000	0.010	0.227
-291.647	-102.578	0.310	-0.073
-290.632	-14.760	-0.269	0.171
-289.618	-186.463	0.189	-0.003
-288.603	151.662	0.248	0.334
-287.589	-89.636	-0.308	0.089
-286.574	23.968	0.109	0.089
-285.559	463.867	0.102	0.226
-284.545	-181.910	0.332	-0.006
-283.530	-200.000	0.009	-0.116
-282.516	-200.000	0.018	-0.145
-281.501	-14.542	0.234	0.149
-280.486	-37.874	-0.271	0.142
-279.472	-200.000	0.029	-0.334
-278.457	-23.241	-0.182	0.108
-277.443	308.331	0.122	0.226
-276.428	-61.777	-0.127	0.052
-275.413	269.835	0.105	0.183
-274.399	-140.922	0.085	0.009
-273.384	380.250	-0.071	-0.143
-272.370	449.861	-0.025	-0.055
-271.355	-200.000	0.003	-0.022
-270.340	140.052	0.086	-0.112
-269.326	-26.446	0.238	0.138
-268.311	87.195	-0.187	0.205
-267.297	-70.024	-0.120	0.045
-266.282	-106.183	-0.383	0.085
-265.267	-140.148	0.331	0.034
-264.253	-200.000	-0.030	0.406
-263.238	-137.882	-0.254	-0.028
-262.224	87.254	0.160	-0.174
-261.209	-43.636	-0.112	-0.056
-260.195	800.000	-0.078	0.317
-259.180	147.158	0.158	-0.210
-258.165	-122.348	-0.208	-0.034
-257.151	198.402	-0.141	-0.213
-256.136	-119.515	0.240	-0.041
-255.122	43.262	-0.186	-0.168
-254.107	-81.748	-0.138	0.045
-253.092	130.849	-0.137	0.174
-252.078	-10.172	0.448	-0.294
-251.063	-78.838	0.225	0.076
-250.049	-108.338	-0.218	0.046
-249.034	429.303	-0.088	-0.187
-248.019	-50.714	0.370	-0.172
-247.005	-112.752	-0.242	0.047
-245.990	-144.856	0.202	0.018
-244.976	-169.099	0.267	0.010
-243.961	-79.666	0.115	0.038
-242.946	-200.000	0.045	0.434
-241.932	-9.088	-0.225	0.149
-240.917	178.821	0.167	-0.241
-239.903	90.647	-0.235	-0.260
-238.888	-200.000	0.009	-0.126
-237.873	-18.120	0.060	0.037
-236.859	777.827	0.058	-0.156
-235.844	800.000	0.063	-0.202
-234.830	-174.336	0.307	-0.009
-233.815	800.000	-0.032	0.114
-232.800	-138.756	-0.117	-0.013
-231.786	-200.000	0.056	-0.318
-230.771	-121.468	-0.426	0.070
-229.757	-200.000	-0.021	-0.359
-228.742	48.279	0.279	-0.258
-227.727	800.000	0.043	-0.140
-226.713	32.215	0.175	-0.149
-225.698	-123.935	-0.079	0.012
-224.684	-116.916	0.140	0.025
-223.669	-57.204	0.276	0.120
-222.655	71.905	0.130	-0.133
-221.640	3.162	-0.254	-0.182
-220.625	299.371	0.184	0.335
-219.611	-85.806	-0.054	-0.016
-218.596	-3.331	-0.084	-0.058
-217.582	-121.809	-0.175	-0.029
-216.567	167.058	-0.093	-0.130
-215.552	-85.817	-0.271	-0.083
-214.538	17.699	0.236	0.185
-213.523	-66.847	0.212	0.083
-212.509	139.752	0.148	0.193
-211.494	115.315	0.077	-0.092
-210.479	444.317	-0.049	0.106
-209.465	75.893	0.277	0.289
-208.450	-97.213	-0.147	-0.038
-207.436	-200.000	0.024	0.178
-206.421	372.458	0.079	0.157
-205.406	-200.000	-0.029	0.131
-204.392	446.351	-0.101	0.219
-203.377	321.421	-0.028	0.052
-202.363	-18.651	-0.206	-0.126
-201.348	0.035	0.209	-0.147
-200.333	615.680	0.073	-0.180
-199.319	705.153	0.074	0.193
-198.304	667.301	-0.093	-0.237
-197.290	25.339	0.149	0.122
-196.275	-115.413	0.261	0.049
-195.260	3.976	0.111	-0.080
-194.246	-162.030	0.156	0.008
-193.231	545.056	0.046	0.109
-192.217	800.000	-0.087	0.314
-191.202	-13.867	-0.280	-0.178
-190.187	-117.412	0.162	-0.029
-189.173	-200.000	0.048	-0.328
-188.158	116.525	-0.315	-0.381
-187.144	565.936	0.103	-0.246
-186.129	104.294	-0.182	-0.211
-185.114	800.000	-0.126	-0.454
-184.100	-121.213	0.088	0.015
-183.085	-24.113	0.214	-0.126
-182.071	288.730	-0.170	-0.304
-181.056	-78.825	0.613	-0.206
-180.042	-106.807	-0.224	-0.049
-179.027	800.000	0.022	-0.067
-178.012	-41.935	0.391	0.197
-176.998	-70.966	-0.068	0.025
-175.983	800.000	0.156	-0.442
-174.969	-31.666	-0.142	-0.079
-173.954	-71.730	-0.085	0.031
-172.939	70.191	-0.097	-0.099
-171.925	-11.999	-0.102	-0.066
-170.910	-34.668	0.162	0.087
-169.896	800.000	0.041	0.129
-168.881	-200.000	-0.017	0.144
-167.866	414.268	-0.169	0.355
-166.852	800.000	-0.108	0.317
-165.837	-91.653	0.384	0.108
-164.823	-47.516	-0.053	0.025
-163.808	-200.000	0.021	0.120
-162.793	88.338	0.071	0.077
-161.779	-44.227	0.333	0.164
-160.764	37.627	-0.109	-0.095
-159.750	-27.445	0.099	-0.057
-158.735	189.766	-0.157	0.232
-157.720	164.014	-0.162	0.224
-156.706	797.876	0.073	-0.198
-155.691	-200.000	-0.020	0.113
-154.677	-200.000	0.058	-0.294
-153.662	-200.000	0.033	-0.283
-152.647	-22.399	0.306	0.183
-151.633	800.000	0.078	-0.268
-150.618	300.823	0.231	0.419
-149.604	-138.562	0.073	0.008
-148.589	17.545	-0.219	0.172
-147.574	255.065	0.131	0.220
-146.560	406.778	-0.105	0.218
-145.545	508.973	0.049	-0.112
-144.531	-44.074	-0.060	-0.030
-143.516	53.829	0.148	0.140
-142.502	106.111	0.219	0.255
-141.487	668.621	0.035	0.089
-140.472	191.268	-0.183	-0.272
-139.458	79.003	0.149	0.156
-138.443	-152.034	-0.242	0.017
-137.429	-200.000	0.245	-0.000
-136.414	385.960	-0.131	0.265
-135.399	800.000	-0.028	-0.120
-134.385	-82.171	0.267	-0.085
-133.370	19.263	-0.098	0.077
-132.356	6.469	0.242	-0.176
-131.341	-88.111	-0.106	-0.031
-130.326	-182.210	0.114	-0.002
-129.312	-77.512	-0.094	-0.032
-128.297	800.000	0.067	0.212
-127.283	-89.777	0.240	0.069
-126.268	-100.987	-0.171	0.041
-125.253	-116.531	0.188	0.034
-124.239	295.386	-0.149	-0.269
-123.224	2.245	0.225	-0.160
-122.210	-138.783	-0.517	-0.055
-121.195	-134.139	0.062	-0.008
-120.180	116.382	-0.105	0.127
-119.166	174.958	-0.011	-0.015
-118.151	-89.721	-0.203	0.058
-117.137	449.601	0.058	0.125
-116.122	-38.489	-0.329	-0.171
-115.107	56.509	-0.052	-0.050
-114.093	60.885	0.277	0.269
-113.078	-11.124	0.166	-0.108
-112.064	119.128	-0.134	0.163
-111.049	800.000	0.042	0.158
-110.034	-154.099	-0.254	-0.017
-109.020	800.000	-0.108	-0.327
-108.005	368.887	0.070	-0.139
-106.991	-102.068	0.395	-0.094
-105.976	-200.000	0.007	-0.262
-104.962	-200.000	-0.018	0.197
-103.947	-71.346	0.384	-0.141
-102.932	-172.256	-0.274	-0.009
-101.918	-124.243	-0.286	0.044
-100.903	-1.431	0.169	0.117
-99.889	800.000	-0.067	0.203
-98.874	-39.092	0.039	-0.020
-97.859	686.411	-0.061	0.156
-96.845	355.984	-0.174	0.339
-95.830	-200.000	0.002	-0.170
-94.816	352.065	-0.020	-0.039
-93.801	-55.108	0.300	-0.133
-92.786	26.420	0.102	-0.084
-91.772	-91.819	-0.094	0.026
-90.757	83.878	0.074	-0.080
-89.743	-150.803	0.399	0.030
-88.728	-200.000	-0.015	-0.227
-87.713	-93.451	-0.341	0.093
-86.699	-200.000	0.333	0.001
-85.684	-200.000	-0.009	-0.335
-84.670	-52.071	0.383	-0.175
-83.655	325.345	-0.220	-0.412
-82.640	-25.262	0.256	-0.148
-81.626	27.786	-0.172	-0.142
-80.611	132.949	0.076	0.096
-79.597	-200.000	0.006	-0.103
-78.582	-99.674	0.318	0.078
-77.567	98.588	-0.106	-0.120
-76.553	-36.518	-0.393	-0.208
-75.538	59.660	0.077	0.075
-74.524	-200.000	-0.009	0.037
-73.509	22.838	-0.305	0.245
-72.494	-200.000	-0.012	-0.069
-71.480	183.599	0.101	-0.146
-70.465	-145.643	0.154	-0.014
-69.451	-49.829	-0.186	-0.087
-68.436	-35.711	-0.337	0.179
-67.422	27.531	-0.196	0.162
-66.407	-156.328	0.222	-0.014
-65.392	-44.011	0.176	-0.087
-64.378	434.140	0.084	0.179
-63.363	13.113	-0.234	-0.178
-62.349	-84.207	-0.131	-0.041
-61.334	4.561	-1.148	-0.825
-60.319	4.452	0.603	0.434
-59.305	-200.000	-0.013	-0.844
-58.290	261.030	0.611	1.036
-57.276	800.000	0.502	1.619
-56.261	-200.000	113.173	647.843
-55.246	544.191	1516.604	3548.510
-54.232	179.559	2680.171	3845.482
-53.217	111.742	2146.905	2539.265
-52.203	39.595	1596.955	1402.825
-51.188	31.333	1344.077	1130.890
-50.173	28.379	1306.239	1081.605
-49.159	55.979	1362.610	1295.189
-48.144	54.789	1376.902	1301.582
-47.130	31.551	1332.066	1121.913
-46.115	28.064	1314.760	1086.614
-45.100	27.947	1309.535	1081.561
-44.086	27.827	1307.538	1079.162
-43.071	27.885	1304.526	1076.972
-42.057	27.796	1303.277	1075.375
-41.042	27.793	1301.129	1073.541
-40.027	27.769	1299.902	1072.348
-39.013	27.816	1297.968	1070.983
-37.998	27.821	1296.330	1069.618
-36.984	28.067	1294.130	1069.202
-35.969	27.923	1292.396	1066.885
-34.954	27.904	1290.908	1065.500
-33.940	28.002	1289.550	1064.912
-32.925	28.040	1287.495	1063.395
-31.911	27.938	1287.089	1062.424
-30.896	28.028	1285.508	1061.595
-29.881	28.064	1284.331	1060.791
-28.867	28.100	1282.901	1059.775
-27.852	28.188	1280.793	1058.502
-26.838	28.044	1280.098	1057.053
-25.823	28.098	1278.316	1055.852
-24.809	28.051	1277.546	1054.902
-23.794	27.929	1276.558	1053.344
-22.779	27.878	1275.027	1051.742
-21.765	28.039	1273.031	1050.982
-20.750	27.951	1272.433	1049.940
-19.736	27.947	1270.876	1048.592
-18.721	27.807	1269.951	1046.981
-17.706	27.942	1268.364	1046.405
-16.692	27.940	1267.662	1045.776
-15.677	27.920	1266.436	1044.605
-14.663	27.894	1265.263	1043.446
-13.648	27.941	1263.767	1042.443
-12.633	27.893	1263.201	1041.662
-11.619	27.833	1262.338	1040.568
-10.604	27.898	1261.394	1040.116
-9.590	27.887	1260.588	1039.346
-8.575	27.828	1259.546	1038.111
-7.560	27.755	1258.799	1037.039
-6.546	27.907	1257.994	1037.198
-5.531	27.819	1257.109	1035.929
-4.517	27.928	1256.069	1035.647
-3.502	27.922	1255.535	1035.135
-2.487	27.928	1254.641	1034.389
-1.473	27.862	1250.213	1030.326
-0.458	26.265	1235.266	1009.055
0.556	24.154	1218.004	971.073
1.571	20.396	1223.297	954.589
2.586	19.340	1237.587	959.777
3.600	19.088	1225.937	949.270
4.615	14.798	1154.423	871.488
5.629	7.202	1082.656	779.959
6.644	3.973	1064.018	750.815
7.659	3.681	1061.738	747.726
8.673	3.586	1060.292	746.182
9.688	3.512	1058.809	744.716
10.702	3.952	1056.947	745.460
11.717	8.698	1063.352	772.871
12.731	16.834	1075.767	821.414
13.746	21.793	1081.612	849.908
14.761	22.650	1082.227	854.470
15.775	21.978	1080.370	849.677
16.790	21.042	1079.032	844.021
17.804	20.583	1077.119	840.232
18.819	20.356	1076.124	838.286
19.834	20.474	1075.445	838.256
20.848	20.345	1075.665	837.728
21.863	20.207	1074.797	836.311
22.877	20.105	1073.748	834.931
23.892	20.019	1073.144	833.975
24.907	20.014	1072.163	833.115
25.921	19.825	1071.246	831.419
26.936	19.910	1070.163	830.912
27.950	19.885	1068.523	829.444
28.965	20.020	1067.263	829.043
29.980	20.233	1065.742	828.806
30.994	20.431	1065.036	829.129
32.009	20.349	1064.158	827.981
33.023	20.257	1063.048	826.604
34.038	20.038	1061.946	824.632
35.053	20.067	1060.782	823.793
36.067	19.955	1059.825	822.443
37.082	20.117	1059.487	822.880
38.096	20.355	1058.378	823.074
39.111	20.181	1057.808	821.731
40.126	19.964	1056.241	819.416
41.140	19.610	1054.975	816.687
42.155	19.476	1053.827	815.092
43.169	19.420	1052.595	813.805
44.184	19.417	1051.799	813.104
45.199	19.433	1050.869	812.387
46.213	19.719	1049.900	812.910
47.228	19.977	1049.624	813.839
48.242	20.146	1048.434	813.635
49.257	19.967	1047.778	812.219
50.271	20.131	1047.192	812.460
51.286	20.317	1045.837	812.208
52.301	20.160	1045.087	810.817
53.315	19.872	1044.372	808.847
54.330	19.639	1043.498	807.011
55.344	19.631	1042.246	805.930
56.359	19.695	1041.029	805.216
57.374	19.728	1040.161	804.627
58.388	19.470	1039.530	802.871
59.403	19.239	1038.775	801.140
60.417	19.431	1037.971	801.343
61.432	19.376	1037.080	800.326
62.447	19.414	1035.971	799.576
63.461	19.145	1035.378	797.804
64.476	19.195	1034.626	797.384
65.490	19.185	1033.388	796.312
66.505	19.321	1032.784	796.406
67.520	19.216	1032.469	795.608
68.534	19.271	1031.334	794.914
69.549	19.179	1030.748	793.968
70.563	19.230	1029.436	793.123
71.578	18.885	1028.843	791.011
72.593	18.864	1027.930	790.142
73.607	18.836	1027.290	789.449
74.622	18.921	1027.107	789.632
75.636	19.007	1025.977	789.086
76.651	18.912	1025.493	788.209
77.666	19.106	1024.740	788.450
78.680	19.089	1024.052	787.772
79.695	19.067	1023.630	787.275
80.709	19.324	1023.115	787.985
81.724	19.466	1022.408	788.022
82.739	19.601	1021.530	787.892
83.753	19.909	1021.805	789.435
84.768	20.351	1021.093	790.831
85.782	20.445	1020.575	790.790
86.797	20.423	1019.693	789.935
87.812	20.011	1018.727	787.244
88.826	20.195	1017.533	787.089
89.841	20.410	1016.538	787.222
90.855	20.355	1015.411	786.032
91.870	20.389	1015.100	785.873
92.884	20.400	1013.911	784.935
93.899	20.263	1013.225	783.714
94.914	20.421	1012.020	783.426
95.928	20.345	1011.467	782.584
96.943	20.255	1010.319	781.224
97.957	20.175	1009.213	779.938
98.972	20.200	1008.748	779.623
99.987	20.252	1008.014	779.221
101.001	20.214	1006.791	778.034
102.016	20.169	1006.335	777.412
103.030	20.196	1005.949	777.167
104.045	20.278	1004.920	776.671
105.060	20.221	1003.396	775.168
106.074	19.745	1002.335	772.155
107.089	19.623	1000.411	770.063
108.103	19.423	999.669	768.531
109.118	19.237	998.954	767.085
110.133	19.224	997.969	766.202
111.147	19.318	996.861	765.703
112.162	19.267	996.244	764.935
113.176	19.576	995.883	765.961
114.191	19.588	994.982	765.253
115.206	19.518	994.272	764.327
116.220	19.308	993.722	762.910
117.235	19.387	992.353	762.139
118.249	19.316	991.377	761.008
119.264	19.337	990.846	760.629
120.279	19.156	989.845	758.993
121.293	18.994	988.992	757.558
122.308	18.940	988.151	756.612
123.322	18.796	987.114	755.116
124.337	18.889	985.972	754.585
125.352	18.805	985.264	753.608
126.366	18.808	984.240	752.771
127.381	18.933	983.095	752.377
128.395	18.936	982.621	751.960
129.410	19.060	981.692	751.721
130.424	19.271	980.695	751.813
131.439	19.428	980.276	752.111
132.454	19.557	979.571	752.065
133.468	19.451	979.058	751.143
134.483	19.363	978.062	749.928
135.497	19.485	977.303	749.810
136.512	19.482	976.450	749.077
137.527	19.568	975.483	748.642
138.541	19.569	974.782	748.043
139.556	19.652	974.189	747.881
140.570	19.794	973.997	748.282
141.585	20.017	973.385	748.709
142.600	20.152	972.218	748.326
143.614	20.235	971.559	748.112
144.629	20.298	970.942	747.841
145.643	20.245	969.739	746.621
146.658	19.928	968.421	744.179
147.673	19.812	967.464	742.881
148.687	19.757	965.887	741.369
149.702	19.585	964.958	739.852
150.716	19.551	964.324	739.155
151.731	19.629	963.657	738.912
152.746	19.747	962.930	738.790
153.760	19.701	962.781	738.417
154.775	19.781	962.302	738.324
155.789	19.901	961.327	738.025
156.804	19.916	960.571	737.441
157.819	20.031	960.101	737.507
158.833	20.161	959.724	737.702
159.848	20.356	958.774	737.738
160.862	20.162	957.779	736.082
161.877	19.769	955.454	732.566
162.892	19.707	954.351	731.394
163.906	19.553	953.910	730.339
164.921	19.631	952.897	729.827
165.935	19.673	952.036	729.282
166.950	19.682	951.455	728.812
167.964	19.803	950.180	728.278
168.979	19.493	949.474	726.370
169.994	19.546	948.421	725.722
171.008	19.648	947.960	725.733
172.023	20.023	947.933	727.223
173.037	20.212	947.260	727.434
174.052	19.984	946.034	725.476
175.067	19.470	945.043	722.497
176.081	19.275	944.509	721.211
177.096	19.290	944.057	720.864
178.110	19.448	943.018	720.667
179.125	19.579	942.392	720.671
180.140	19.581	942.202	720.470
181.154	19.967	941.844	721.744
182.169	20.054	941.832	722.030
183.183	20.147	940.861	721.612
184.198	20.007	940.301	720.537
185.213	20.194	938.877	720.159
186.227	20.174	938.671	719.852
187.242	20.288	938.586	720.196
188.256	20.162	938.178	719.298
189.271	20.491	937.091	719.763
190.286	20.038	935.965	716.961
191.300	19.499	934.376	713.452
192.315	19.193	933.865	711.735
193.329	19.356	933.519	712.082
194.344	19.506	932.950	712.203
195.359	19.699	932.309	712.445
196.373	19.779	931.912	712.409
197.388	20.087	932.229	713.857
198.402	20.336	931.849	714.527
199.417	20.659	931.049	715.182
200.432	20.655	930.429	714.626
201.446	20.688	930.304	714.602
202.461	20.802	929.573	714.444
203.475	20.642	928.836	713.160
204.490	20.280	927.683	710.728
205.504	20.269	926.844	709.976
206.519	20.236	925.815	708.993
207.534	20.006	925.939	708.081
208.548	20.073	925.274	707.785
209.563	20.044	924.468	706.987
210.577	20.295	923.607	707.291
211.592	20.445	923.430	707.701
212.607	20.551	923.071	707.795
213.621	20.496	921.772	706.516
214.636	20.406	920.975	705.477
215.650	20.566	920.546	705.734
216.665	20.621	919.977	705.460
217.680	20.804	919.286	705.607
218.694	20.779	918.499	704.839
219.709	20.559	918.116	703.594
220.723	20.582	917.146	702.880
221.738	20.487	916.881	702.233
222.753	20.377	916.292	701.273
223.767	20.533	915.625	701.331
224.782	20.908	915.105	702.384
225.796	20.871	914.822	701.955
226.811	20.611	913.975	700.196
227.826	20.356	912.952	698.323
228.840	20.311	912.666	697.863
229.855	20.389	911.247	697.031
230.869	20.382	910.654	696.487
231.884	20.433	909.993	696.122
232.899	20.180	909.107	694.369
233.913	19.987	908.320	692.936
234.928	19.791	907.601	691.543
235.942	19.981	907.085	691.846
236.957	19.881	906.832	691.194
237.972	20.035	905.985	691.103
238.986	19.948	905.478	690.306
240.001	19.968	904.761	689.780
241.015	20.155	904.009	689.890
242.030	20.271	903.906	690.212
243.045	20.396	903.489	690.327
244.059	20.359	902.991	689.740
245.074	20.421	902.402	689.476
246.088	20.514	901.869	689.376
247.103	20.714	901.713	689.986
248.117	20.951	901.264	690.521
249.132	21.378	900.707	691.726
250.147	21.611	900.477	692.410
251.161	21.592	900.059	691.951
252.176	21.569	899.690	691.513
253.190	21.545	898.707	690.605
254.205	21.684	898.174	690.680
255.220	21.708	897.438	690.148
256.234	21.578	896.791	689.079
257.249	21.543	896.080	688.333
258.263	21.589	895.001	687.625
259.278	21.431	894.746	686.748
260.293	21.702	893.962	687.146
261.307	21.668	893.664	686.722
262.322	21.778	893.001	686.585
263.336	21.589	892.478	685.381
264.351	21.626	891.398	684.636
265.366	21.601	891.046	684.206
266.380	21.749	890.576	684.363
267.395	21.523	889.468	682.569
268.409	21.428	888.621	681.492
269.424	21.567	887.673	681.244
270.439	21.408	887.378	680.339
271.453	21.258	886.714	679.186
272.468	21.224	885.816	678.305
273.482	21.281	884.986	677.830
274.497	21.277	884.771	677.592
275.512	21.128	884.458	676.714
276.526	21.278	883.794	676.728
277.541	21.289	883.830	676.739
278.555	21.559	883.709	677.630
279.570	21.810	882.536	677.640
280.585	21.775	881.720	676.818
281.599	21.520	880.904	675.152
282.614	21.290	879.919	673.450
283.628	21.220	879.432	672.747
284.643	21.407	878.679	672.831
285.657	21.245	878.228	671.802
286.672	21.294	877.701	671.528
287.687	21.420	876.888	671.333
288.701	21.534	876.035	671.056
289.716	21.417	875.748	670.329
290.730	21.515	875.121	670.164
291.745	21.365	874.944	669.393
292.760	21.515	874.533	669.595
293.774	21.907	874.028	670.648
294.789	21.759	873.120	669.328
295.803	21.417	872.005	667.109
296.818	21.347	871.510	666.402
297.833	21.541	870.251	666.122
298.847	21.486	869.869	665.560
299.862	21.456	869.861	665.379
300.876	21.760	869.210	665.979
301.891	21.825	869.042	666.038
302.906	22.104	868.713	666.786
303.920	22.149	868.192	666.498
304.935	22.221	867.645	666.293
305.949	22.142	866.785	665.275
306.964	21.945	866.095	663.941
307.979	21.871	865.280	662.976
308.993	22.028	865.039	663.326
310.008	22.082	864.470	663.036
311.022	21.740	863.915	661.262
312.037	21.643	863.195	660.286
313.052	21.505	862.220	658.960
314.066	21.349	861.315	657.624
315.081	21.275	861.013	657.060
316.095	21.377	860.295	656.837
317.110	21.334	859.771	656.217
318.125	21.310	859.316	655.718
319.139	21.299	858.939	655.333
320.154	21.426	858.329	655.286
321.168	21.523	857.782	655.173
322.183	21.529	857.292	654.763
323.197	21.657	856.843	654.842
324.212	21.521	856.515	654.023
325.227	21.503	855.571	653.178
326.241	21.428	855.060	652.451
327.256	21.429	854.787	652.190
328.270	21.257	854.361	651.164
329.285	21.400	853.001	650.604
330.300	21.284	852.636	649.836
331.314	21.441	852.569	650.312
332.329	21.736	851.836	650.788
333.343	21.797	852.156	651.204
334.358	21.832	851.519	650.789
335.373	21.836	851.115	650.437
336.387	21.860	851.050	650.418
337.402	22.056	850.533	650.694
338.416	22.114	850.764	651.026
339.431	22.326	850.185	651.309
340.446	22.386	850.265	651.536
341.460	22.613	849.543	651.763
342.475	22.726	848.883	651.618
343.489	22.581	848.836	650.990
344.504	22.701	848.379	651.025
345.519	22.788	848.075	651.052
346.533	22.416	847.465	649.156
347.548	22.330	846.361	647.935
348.562	22.220	845.276	646.645
349.577	21.899	844.589	644.880
350.592	21.866	843.796	644.099
351.606	21.756	843.407	643.341
352.621	21.873	842.972	643.381
353.635	21.969	842.065	642.982
354.650	21.991	841.487	642.566
355.665	22.006	840.726	641.981
356.679	22.193	840.611	642.521
357.694	22.204	839.540	641.685
358.708	22.252	838.870	641.294
359.723	22.144	838.373	640.463
360.738	22.146	838.047	640.162
361.752	22.156	837.407	639.653
362.767	22.480	836.830	640.334
363.781	22.641	836.918	640.930
364.796	22.924	836.196	641.351
365.810	22.939	836.152	641.314
366.825	23.123	835.750	641.616
367.840	23.023	835.002	640.621
368.854	22.674	834.439	638.869
369.869	22.616	833.404	637.812
370.883	22.599	833.459	637.735
371.898	22.798	833.437	638.381
372.913	22.878	832.709	638.057
373.927	22.763	832.055	637.084
374.942	22.713	831.669	636.552
375.956	22.881	831.296	636.817
376.971	23.079	830.825	637.112
377.986	23.196	830.470	637.206
379.000	23.247	829.879	636.879
380.015	23.046	829.441	635.764
381.029	22.973	828.542	634.753
382.044	23.026	828.431	634.805
383.059	23.220	827.409	634.660
384.073	23.013	826.818	633.409
385.088	22.752	825.857	631.682
386.102	22.480	825.470	630.356
387.117	22.552	824.620	629.910
388.132	22.489	824.056	629.197
389.146	22.647	823.651	629.397
390.161	22.847	823.455	629.905
391.175	23.004	823.046	630.098
392.190	22.851	822.392	628.995
393.205	22.621	821.794	627.664
394.219	22.407	821.302	626.470
395.234	22.326	820.699	625.668
396.248	22.385	820.038	625.319
397.263	22.221	819.821	624.514
398.278	22.306	819.283	624.352
399.292	22.203	818.605	623.414
400.307	22.335	818.266	623.567
401.321	22.438	817.971	623.653
402.336	22.459	817.722	623.483
403.350	22.587	817.307	623.564
404.365	22.862	816.866	624.146
405.380	23.063	816.589	624.588
406.394	23.158	816.364	624.695
407.409	23.322	816.119	625.033
408.423	23.284	815.983	624.739
409.438	23.458	815.224	624.714
410.453	23.483	814.895	624.495
411.467	23.436	814.561	624.020
412.482	23.611	814.326	624.398
413.496	23.674	813.844	624.196
414.511	23.526	813.552	623.397
415.526	23.411	812.820	622.376
416.540	23.252	812.434	621.468
417.555	23.331	812.128	621.458
418.569	23.350	811.679	621.126
419.584	23.551	810.510	620.879
420.599	23.398	810.565	620.329
421.613	164.117	1372.021	1798.973
422.628	142.935	1453.812	1799.050
