DTS Sentinel unit serial number:	SN413079Multiplexer serial number:	ORYXHardware model number:	OX4-SRSoftware version number:	ORYX F/W v4.00 Oryx Data Collector v3.7.2.0data status	okinstallation	princeton_trtdifferential loss correction	single-endedforward channel	channel 1reverse channel	N/Adate	2019/09/12time	19:58:34forward acquisition time	15.00reverse acquisition time	0.00gamma	496.2192k internal	0.2324k external	0.2324temperature offset calibration	1.0140default loss term (dB/km)	0.3790temperature slope calibration	1.0000multiplexer offset coefficient	1.0000multiplexer slope coefficient	1.0000fibre end	0.00T internal ref (°C)	31.81T ext. ref 1 (°C)	3.48T ext. ref 2 (°C)	26.34length (m)	temperature (°C)	Stokes	anti-Stokes-747.200	-47.485	0.334	0.164
-746.185	75.948	0.374	-0.399
-745.171	-68.283	-0.351	0.138
-744.156	-31.690	0.385	0.218
-743.142	436.685	-0.045	-0.098
-742.127	-176.521	0.188	0.005
-741.112	222.445	-0.127	0.207
-740.098	-200.000	-0.052	-0.306
-739.083	147.003	0.089	0.120
-738.069	202.151	0.162	0.253
-737.054	126.044	-0.649	-0.828
-736.039	-54.172	0.426	-0.196
-735.025	-56.827	0.996	0.444
-734.010	169.337	0.071	0.102
-732.996	-68.698	-0.670	0.261
-731.981	426.413	-0.291	-0.632
-730.966	116.935	-0.395	-0.489
-729.952	-148.045	-0.479	0.040
-728.937	-140.007	-0.931	-0.099
-727.923	22.803	-0.178	0.147
-726.908	-56.830	-0.407	0.181
-725.894	20.791	-0.433	-0.353
-724.879	-200.000	-0.022	0.151
-723.864	-200.000	0.083	-0.422
-722.850	-111.516	-0.281	0.058
-721.835	-120.048	-0.125	0.022
-720.821	661.872	-0.072	-0.188
-719.806	800.000	0.099	-0.372
-718.791	800.000	0.165	-0.645
-717.777	-32.221	-0.892	-0.503
-716.762	-99.078	-0.662	0.169
-715.748	-4.296	-0.440	-0.307
-714.733	-11.157	0.572	0.380
-713.718	-41.941	0.629	-0.325
-712.704	274.688	0.256	0.457
-711.689	-138.226	-0.635	-0.071
-710.675	70.639	-0.145	-0.152
-709.660	793.055	-0.153	-0.424
-708.645	800.000	-0.349	-1.213
-707.631	-94.177	0.909	0.251
-706.616	-66.206	0.337	0.135
-705.602	-200.000	0.049	0.423
-704.587	60.359	-0.623	0.622
-703.572	800.000	-0.149	-0.556
-702.558	354.349	-0.189	-0.378
-701.543	16.293	-0.077	0.061
-700.529	157.177	0.368	0.513
-699.514	104.380	0.416	0.493
-698.499	-3.188	0.821	0.576
-697.485	800.000	-0.153	0.426
-696.470	-200.000	0.125	-0.686
-695.456	-95.348	-0.367	-0.100
-694.441	-116.863	-0.399	0.074
-693.426	219.030	-0.121	-0.195
-692.412	800.000	0.220	0.881
-691.397	800.000	0.155	-0.510
-690.383	-110.229	-0.554	-0.116
-689.368	-86.785	0.346	0.107
-688.354	800.000	0.159	0.464
-687.339	800.000	0.247	-0.895
-686.324	-85.853	0.638	-0.199
-685.310	209.809	-0.223	-0.352
-684.295	675.379	0.034	-0.088
-683.281	160.249	-0.318	-0.447
-682.266	-200.000	-0.011	-0.258
-681.251	-27.879	0.484	-0.282
-680.237	-175.954	-0.349	0.009
-679.222	-200.000	-0.053	0.346
-678.208	468.815	0.527	1.191
-677.193	14.239	0.375	0.294
-676.178	-11.236	0.580	0.385
-675.164	213.343	-0.355	-0.565
-674.149	-200.000	-0.074	0.535
-673.135	-9.329	0.771	-0.518
-672.120	800.000	-0.162	0.545
-671.105	-190.897	-0.393	-0.004
-670.091	68.796	-0.449	-0.464
-669.076	-200.000	0.022	-0.139
-668.062	325.355	-0.225	-0.434
-667.047	24.329	0.226	-0.188
-666.032	800.000	0.106	0.297
-665.018	5.510	-0.830	0.617
-664.003	-77.324	0.241	0.084
-662.989	248.530	0.345	-0.588
-661.974	311.514	0.477	-0.901
-660.959	800.000	0.290	1.067
-659.945	-172.857	0.713	-0.022
-658.930	800.000	0.192	-0.668
-657.916	800.000	-0.191	-0.548
-656.901	28.115	0.655	-0.556
-655.886	-156.428	-0.539	-0.034
-654.872	60.661	0.302	-0.301
-653.857	-101.174	0.755	-0.186
-652.843	-200.000	-0.007	0.083
-651.828	-160.953	-0.572	0.030
-650.814	124.709	-0.715	0.905
-649.799	-181.781	0.919	-0.018
-648.784	-200.000	-0.020	-0.119
-647.770	-182.169	-0.561	-0.011
-646.755	224.530	0.413	-0.672
-645.741	-200.000	-0.051	-0.232
-644.726	-83.654	-0.794	-0.255
-643.711	26.977	-0.474	0.400
-642.697	-170.591	-0.378	0.013
-641.682	-133.111	-1.058	0.135
-640.668	-149.007	-0.219	-0.018
-639.653	-84.519	0.337	-0.107
-638.638	-200.000	-0.073	0.828
-637.624	-200.000	0.028	0.141
-636.609	29.829	0.243	0.208
-635.595	-51.253	-0.245	-0.115
-634.580	-119.957	-0.043	0.007
-633.565	117.070	-0.445	0.550
-632.551	-108.212	0.196	-0.043
-631.536	129.856	0.293	-0.377
-630.522	800.000	0.299	1.069
-629.507	-200.000	0.034	0.285
-628.492	678.912	-0.308	-0.806
-627.478	184.258	0.092	0.136
-626.463	-136.954	-0.374	-0.043
-625.449	-55.127	-0.375	0.169
-624.434	800.000	0.156	0.451
-623.419	-44.417	-0.257	-0.129
-622.405	6.480	-0.763	-0.569
-621.390	-191.581	-0.863	0.009
-620.376	-56.839	-0.824	0.366
-619.361	51.279	-0.121	0.115
-618.346	-60.324	-0.605	0.259
-617.332	-126.827	0.747	0.111
-616.317	50.831	-0.543	0.517
-615.303	428.443	-0.269	-0.584
-614.288	800.000	-0.232	0.661
-613.273	-10.081	-0.539	0.360
-612.259	-200.000	-0.066	-0.614
-611.244	106.091	-0.245	0.291
-610.230	-200.000	-0.025	0.242
-609.215	16.277	-0.380	-0.301
-608.201	-200.000	-0.026	-0.663
-607.186	-163.539	-0.281	0.013
-606.171	-144.275	-0.444	0.042
-605.157	251.603	-0.326	-0.557
-604.142	32.125	0.628	-0.544
-603.128	-30.499	-0.346	-0.197
-602.113	273.152	0.130	0.230
-601.098	-31.117	-0.309	-0.175
-600.084	-200.000	-0.007	0.461
-599.069	97.974	-0.550	-0.635
-598.055	800.000	0.224	-0.769
-597.040	65.305	0.347	0.353
-596.025	-43.187	-0.303	-0.154
-595.011	-105.519	-0.460	-0.105
-593.996	48.569	0.834	0.784
-592.982	800.000	-0.247	-0.761
-591.967	-118.068	-0.748	0.134
-590.952	281.814	-0.087	0.156
-589.938	48.448	0.190	-0.179
-588.923	800.000	-0.061	0.193
-587.909	573.383	-0.205	-0.502
-586.894	-200.000	-0.076	-0.516
-585.879	-200.000	-0.005	0.047
-584.865	87.440	0.722	-0.801
-583.850	128.034	0.163	-0.208
-582.836	-200.000	-0.033	-0.242
-581.821	-125.474	0.481	-0.073
-580.806	77.697	-0.392	0.419
-579.792	-96.976	1.286	0.338
-578.777	800.000	0.216	0.627
-577.763	-165.966	0.615	0.026
-576.748	-200.000	-0.083	-0.434
-575.733	219.519	-0.139	0.223
-574.719	79.786	0.355	0.383
-573.704	621.955	0.094	-0.238
-572.690	102.894	0.252	0.296
-571.675	-136.498	1.021	-0.119
-570.661	54.532	-0.090	0.087
-569.646	164.716	0.116	0.164
-568.631	17.439	0.455	-0.362
-567.617	-67.946	-1.250	-0.489
-566.602	-125.028	-0.953	-0.147
-565.588	327.094	0.417	-0.802
-564.573	-200.000	0.109	-0.877
-563.558	296.455	0.376	0.692
-562.544	-149.587	-0.480	-0.038
-561.529	14.683	-0.145	-0.113
-560.515	31.861	0.288	0.249
-559.500	800.000	-0.023	-0.097
-558.485	-34.080	0.510	0.281
-557.471	-200.000	0.113	0.658
-556.456	-180.550	0.322	0.007
-555.442	-186.217	-0.244	0.004
-554.427	800.000	-0.026	0.084
-553.412	-78.907	0.142	0.048
-552.398	-32.167	0.349	0.195
-551.383	125.785	0.264	0.334
-550.369	204.540	-0.094	-0.145
-549.354	-200.000	0.125	1.022
-548.339	14.321	0.280	-0.219
-547.325	50.244	-0.112	0.106
-546.310	-107.444	-0.744	-0.164
-545.296	-60.559	-0.751	-0.319
-544.281	492.169	-0.193	0.443
-543.266	306.310	-0.206	0.383
-542.252	294.657	-0.093	0.171
-541.237	510.798	0.274	-0.638
-540.223	-94.245	1.081	-0.296
-539.208	32.389	-0.442	0.383
-538.193	-45.791	0.102	0.050
-537.179	-200.000	-0.049	-0.396
-536.164	-200.000	-0.073	-0.442
-535.150	-28.961	0.133	-0.077
-534.135	-106.653	-0.529	-0.118
-533.121	-102.296	0.402	-0.097
-532.106	257.650	-0.132	0.227
-531.091	-32.049	-0.648	0.363
-530.077	45.589	-0.463	-0.428
-529.062	-200.000	0.038	-0.795
-528.048	405.236	0.258	-0.545
-527.033	234.250	0.258	0.426
-526.018	256.790	0.142	-0.244
-525.004	2.126	-0.520	0.376
-523.989	-77.885	0.302	0.104
-522.975	53.401	0.433	0.415
-521.960	613.974	0.319	0.799
-520.945	800.000	0.129	-0.566
-519.931	-94.575	0.445	0.121
-518.916	-87.650	-0.292	0.088
-517.902	800.000	-0.234	-0.777
-516.887	11.938	0.091	-0.070
-515.872	10.384	0.185	-0.141
-514.858	-131.322	0.359	-0.048
-513.843	-44.442	0.535	-0.268
-512.829	678.229	0.141	-0.366
-511.814	115.554	-0.317	0.388
-510.799	357.740	-0.175	0.350
-509.785	-94.552	1.103	-0.300
-508.770	33.490	-0.317	-0.275
-507.756	61.907	0.669	0.667
-506.741	-29.801	-0.041	0.023
-505.726	-162.357	-0.575	0.029
-504.712	6.861	-0.225	-0.168
-503.697	217.642	-0.664	-1.059
-502.683	-12.862	0.370	0.241
-501.668	-200.000	0.044	-0.276
-500.653	-57.945	-0.334	-0.146
-499.639	37.219	0.122	-0.108
-498.624	-94.378	-0.659	-0.180
-497.610	357.572	0.285	-0.569
-496.595	45.591	0.234	-0.217
-495.581	-196.457	0.222	0.002
-494.566	-75.230	0.534	0.191
-493.551	60.331	-0.361	0.357
-492.537	-200.000	-0.004	0.440
-491.522	344.939	0.296	-0.581
-490.508	-91.745	0.602	-0.171
-489.493	-80.897	-0.525	-0.174
-488.478	-174.933	-0.263	0.007
-487.464	-48.981	0.791	0.378
-486.449	-119.395	-0.195	-0.034
-485.435	-40.575	-0.606	0.314
-484.420	800.000	-0.245	1.032
-483.405	125.415	0.518	0.653
-482.391	79.478	-0.174	-0.186
-481.376	101.210	-0.180	-0.210
-480.362	683.199	0.127	-0.330
-479.347	-121.068	0.219	-0.037
-478.332	109.571	0.401	0.480
-477.318	117.734	0.823	-1.013
-476.303	-114.219	-0.267	0.051
-475.289	31.052	0.100	0.086
-474.274	-62.365	-0.813	0.338
-473.259	137.785	0.562	-0.735
-472.245	22.237	-0.581	0.474
-471.230	187.772	-0.036	0.053
-470.216	-40.526	0.527	-0.273
-469.201	-200.000	0.022	0.517
-468.186	-200.000	-0.044	-0.361
-467.172	58.459	0.545	0.534
-466.157	7.780	-0.732	0.548
-465.143	-39.963	-1.179	-0.614
-464.128	-115.201	-0.243	-0.046
-463.113	110.130	0.405	0.486
-462.099	-5.165	0.510	-0.350
-461.084	-200.000	0.032	-0.209
-460.070	-32.832	-0.307	0.170
-459.055	-5.487	-0.041	0.028
-458.040	-65.589	0.750	0.301
-457.026	800.000	0.194	-0.541
-456.011	-101.327	-0.673	-0.164
-454.997	-200.000	-0.044	1.050
-453.982	-34.350	-0.030	-0.017
-452.968	-200.000	0.060	-0.482
-451.953	650.751	0.169	0.432
-450.938	-200.000	-0.066	0.327
-449.924	29.242	-0.726	-0.616
-448.909	-200.000	0.070	0.524
-447.895	-200.000	-0.032	-0.167
-446.880	-136.078	-0.560	-0.066
-445.865	800.000	0.139	-0.596
-444.851	-117.985	-0.619	-0.110
-443.836	800.000	0.157	-0.616
-442.822	225.884	0.047	-0.077
-441.807	-200.000	0.069	-1.065
-440.792	800.000	0.193	0.545
-439.778	-152.362	0.996	0.072
-438.763	-34.590	0.161	-0.088
-437.749	-113.304	-0.766	-0.150
-436.734	-6.446	0.141	0.096
-435.719	86.602	-0.043	0.047
-434.705	-29.640	-0.651	-0.370
-433.690	800.000	0.183	-0.649
-432.676	12.281	0.371	-0.285
-431.661	142.041	-0.382	0.505
-430.646	-200.000	-0.040	-0.344
-429.632	800.000	-0.224	0.722
-428.617	-78.928	-0.201	-0.068
-427.603	47.709	-1.160	1.079
-426.588	80.968	-0.442	0.475
-425.573	-200.000	-0.015	-0.863
-424.559	184.727	-0.602	0.890
-423.544	-46.461	-0.546	0.267
-422.530	10.845	0.102	0.077
-421.515	-200.000	0.068	0.462
-420.500	800.000	-0.047	0.201
-419.486	523.323	0.249	-0.583
-418.471	34.500	-0.416	-0.362
-417.457	157.992	0.564	0.780
-416.442	78.790	0.081	0.086
-415.428	381.687	-0.226	-0.462
-414.413	-16.171	0.387	-0.245
-413.398	-9.555	0.718	0.477
-412.384	-200.000	0.022	0.182
-411.369	-200.000	-0.083	0.419
-410.355	565.663	-0.099	-0.240
-409.340	123.850	-0.069	0.086
-408.325	-118.632	-0.300	0.053
-407.311	-61.894	-0.763	-0.318
-406.296	296.346	0.125	0.229
-405.282	231.807	-0.240	0.393
-404.267	158.940	0.303	0.420
-403.252	-33.479	0.405	-0.223
-402.238	800.000	0.148	0.484
-401.223	81.100	0.247	-0.266
-400.209	229.348	-0.167	0.271
-399.194	-12.591	0.743	0.483
-398.179	-139.916	0.470	0.049
-397.165	378.953	0.296	0.603
-396.150	-35.992	-0.543	0.293
-395.136	-200.000	0.374	-0.001
-394.121	-23.376	-0.524	0.313
-393.106	-88.764	-0.336	-0.099
-392.092	-166.279	0.470	0.020
-391.077	-159.331	-0.537	0.030
-390.063	-129.892	0.875	0.120
-389.048	-200.000	0.017	0.263
-388.033	-81.624	-0.311	0.102
-387.019	-125.771	0.694	0.104
-386.004	-200.000	-0.052	0.735
-384.990	-119.886	0.740	0.127
-383.975	137.282	-0.152	0.198
-382.960	-200.000	-0.118	-0.548
-381.946	-91.690	-0.486	0.138
-380.931	-118.824	-0.313	0.055
-379.917	45.005	0.891	-0.817
-378.902	-47.610	0.678	0.327
-377.888	534.386	0.190	0.448
-376.873	-90.565	0.390	0.112
-375.858	426.765	-0.329	0.707
-374.844	-200.000	-0.076	0.799
-373.829	216.746	0.182	-0.289
-372.815	800.000	-0.115	-0.357
-371.800	157.241	-0.058	0.079
-370.785	800.000	-0.125	0.408
-369.771	105.314	0.585	-0.688
-368.756	-113.152	0.168	0.033
-367.742	-200.000	-0.001	1.331
-366.727	-43.673	-0.383	-0.192
-365.712	201.763	0.428	-0.656
-364.698	-200.000	-0.024	-0.206
-363.683	215.378	-0.341	0.538
-362.669	-128.475	0.633	0.089
-361.654	-158.468	-0.174	-0.010
-360.639	27.388	-0.028	0.024
-359.625	800.000	0.048	0.182
-358.610	407.319	-0.128	-0.270
-357.596	-70.080	0.866	0.328
-356.581	-102.503	-0.577	0.137
-355.566	-71.294	-0.598	-0.223
-354.552	-62.559	-0.269	0.111
-353.537	453.423	0.167	-0.367
-352.523	-95.080	0.469	0.126
-351.508	-103.419	-0.335	-0.078
-350.493	84.358	-0.145	-0.157
-349.479	20.497	0.274	-0.220
-348.464	800.000	0.215	-0.615
-347.450	-100.271	-0.599	-0.148
-346.435	5.483	1.037	0.761
-345.420	176.246	-0.295	0.426
-344.406	-116.116	0.651	-0.120
-343.391	403.892	0.181	0.379
-342.377	-139.715	0.625	0.066
-341.362	-166.908	-0.906	0.037
-340.348	-10.117	0.826	0.545
-339.333	-200.000	-0.008	0.648
-338.318	-139.420	0.588	-0.063
-337.304	-45.510	-0.169	0.083
-336.289	2.393	0.277	0.199
-335.275	-111.383	0.399	-0.081
-334.260	-159.748	-0.029	-0.002
-333.245	-195.258	-0.247	0.002
-332.231	330.780	-0.333	-0.638
-331.216	32.596	-0.178	0.153
-330.202	401.141	-0.263	-0.549
-329.187	-31.437	0.175	-0.098
-328.172	-200.000	-0.131	-0.644
-327.158	77.246	0.430	-0.454
-326.143	393.525	0.200	-0.413
-325.129	62.070	0.379	-0.375
-324.114	-183.565	-0.221	0.004
-323.099	80.413	-0.276	-0.295
-322.085	-200.000	-0.238	-0.000
-321.070	-35.042	1.120	0.606
-320.056	-90.219	-0.086	-0.025
-319.041	-200.000	0.040	0.333
-318.026	-166.760	0.532	-0.022
-317.012	-76.238	-0.215	-0.075
-315.997	-133.450	-0.285	-0.036
-314.983	104.246	-0.343	-0.401
-313.968	128.902	0.234	-0.296
-312.953	-200.000	0.141	0.742
-311.939	-122.680	-0.662	-0.106
-310.924	-47.218	-0.939	0.454
-309.910	-20.370	-0.554	0.338
-308.895	-22.733	-0.259	0.156
-307.880	8.783	0.559	0.418
-306.866	266.202	0.471	-0.816
-305.851	-118.936	-0.827	0.144
-304.837	158.496	0.285	0.392
-303.822	45.683	0.579	0.531
-302.807	566.683	-0.207	-0.499
-301.793	-79.723	-0.440	-0.147
-300.778	-200.000	-0.081	-0.457
-299.764	256.923	-0.472	0.805
-298.749	68.347	-0.521	0.529
-297.735	-200.000	-0.061	-0.698
-296.720	199.100	0.260	0.395
-295.705	99.351	-0.683	-0.784
-294.691	268.893	0.315	0.549
-293.676	150.695	0.160	-0.215
-292.662	-98.880	0.568	0.143
-291.647	-162.844	0.766	-0.037
-290.632	-200.000	-0.069	-0.545
-289.618	-41.211	-0.150	-0.077
-288.603	61.872	-0.475	0.469
-287.589	0.752	-0.412	0.292
-286.574	-42.958	0.577	0.291
-285.559	263.386	-0.660	-1.137
-284.545	800.000	-0.148	-0.504
-283.530	-109.053	0.813	-0.172
-282.516	-200.000	-0.256	1.240
-281.501	582.978	-0.191	-0.466
-280.486	-74.845	0.240	-0.085
-279.472	102.399	0.313	0.363
-278.457	-44.358	-0.901	0.447
-277.443	-102.995	0.810	0.191
-276.428	800.000	-0.045	-0.180
-275.413	426.391	0.047	0.101
-274.399	29.301	0.376	-0.316
-273.384	800.000	-0.192	-0.694
-272.370	-200.000	-0.094	1.001
-271.355	356.550	-0.418	0.826
-270.340	-40.394	0.255	0.131
-269.326	-200.000	0.145	-0.882
-268.311	86.394	0.494	-0.540
-267.297	-175.269	0.208	0.006
-266.282	-200.000	0.010	-0.137
-265.267	342.043	0.164	-0.317
-264.253	349.008	-0.066	0.130
-263.238	196.527	0.177	0.267
-262.224	41.382	-0.498	0.446
-261.209	482.465	0.184	0.413
-260.195	-54.760	0.563	-0.252
-259.180	525.199	-0.282	-0.658
-258.165	-30.965	-0.592	0.331
-257.151	460.537	-0.187	-0.412
-256.136	234.428	-0.346	0.565
-255.122	-163.766	0.713	-0.033
-254.107	-117.340	0.721	0.130
-253.092	-46.787	0.348	0.169
-252.078	-200.000	-0.004	-0.272
-251.063	545.737	-0.116	-0.274
-250.049	-200.000	-0.039	-0.468
-249.034	43.310	-0.664	0.600
-248.019	30.093	0.031	-0.026
-247.005	180.905	-0.076	-0.111
-245.990	800.000	0.215	-0.797
-244.976	-200.000	-0.099	-0.431
-243.961	-86.869	0.493	0.149
-242.946	-12.787	0.245	-0.158
-241.932	-21.561	-0.207	0.125
-240.917	48.729	-0.386	-0.358
-239.903	-129.574	0.247	0.034
-238.888	-123.269	0.700	0.111
-237.873	18.338	0.098	-0.078
-236.859	-155.780	-0.216	-0.014
-235.844	35.542	0.101	0.088
-234.830	446.169	0.296	-0.644
-233.815	-52.751	-0.223	-0.102
-232.800	-59.114	0.939	0.401
-231.786	-4.055	-0.233	-0.160
-230.771	-200.000	-0.050	-0.357
-229.757	-161.192	-0.363	0.019
-228.742	-200.000	-0.239	-1.276
-227.727	-18.689	-0.139	0.086
-226.713	-200.000	0.179	0.000
-225.698	-200.000	0.123	-0.586
-224.684	119.625	-0.685	-0.839
-223.669	-142.046	-0.462	0.045
-222.655	800.000	0.222	0.722
-221.640	-78.202	0.551	0.187
-220.625	800.000	0.246	0.696
-219.611	97.330	0.336	-0.382
-218.596	-200.000	-0.049	0.548
-217.582	-1.888	0.207	0.144
-216.567	-25.209	-0.089	-0.052
-215.552	38.856	-0.394	-0.348
-214.538	-165.105	1.219	-0.053
-213.523	-200.000	0.034	0.282
-212.509	487.619	-0.028	0.063
-211.494	25.807	-0.235	0.194
-210.479	59.907	0.710	0.693
-209.465	-200.000	-0.175	0.821
-208.450	115.148	-0.390	-0.471
-207.436	-194.203	0.311	0.003
-206.421	522.085	0.526	1.220
-205.406	-159.312	0.441	0.024
-204.392	800.000	-0.104	0.446
-203.377	302.607	0.060	-0.110
-202.363	-142.827	0.441	-0.042
-201.348	-200.000	0.024	-0.586
-200.333	-45.824	-0.807	0.394
-199.319	144.140	-0.336	-0.443
-198.304	-58.068	-0.799	-0.344
-197.290	-85.493	0.868	-0.267
-196.275	800.000	0.155	-0.613
-195.260	-64.350	0.449	-0.180
-194.246	8.089	-0.287	0.213
-193.231	800.000	0.165	-0.545
-192.217	-82.501	-0.528	-0.169
-191.202	800.000	-0.036	0.124
-190.187	46.935	-0.125	-0.115
-189.173	90.852	-0.536	-0.593
-188.158	800.000	0.115	-0.355
-187.144	-46.440	-0.437	-0.212
-186.129	574.595	0.203	-0.490
-185.114	-200.000	0.084	0.423
-184.100	11.637	0.528	0.400
-183.085	-157.589	0.577	-0.034
-182.071	-200.000	-0.017	-0.863
-181.056	-200.000	0.048	-0.345
-180.042	238.040	-0.200	0.329
-179.027	-10.548	0.753	-0.492
-178.012	46.159	0.317	-0.290
-176.998	15.770	-0.224	-0.174
-175.983	-40.553	-0.610	-0.313
-174.969	761.682	0.083	0.222
-173.954	103.439	0.306	0.354
-172.939	-21.362	-0.567	0.342
-171.925	404.247	-0.379	0.787
-170.910	40.483	-0.387	0.344
-169.896	-200.000	0.101	0.470
-168.881	-200.000	0.057	-0.780
-167.866	-81.455	-0.800	0.260
-166.852	482.794	-0.043	0.097
-165.837	800.000	-0.096	-0.405
-164.823	-43.729	0.433	-0.215
-163.808	149.416	0.205	-0.274
-162.793	-47.731	-0.157	-0.075
-161.779	767.872	-0.091	0.244
-160.764	-200.000	0.002	0.044
-159.750	-64.961	0.332	0.133
-158.735	-80.356	0.572	0.188
-157.720	-97.499	-0.464	0.119
-156.706	670.693	-0.220	-0.562
-155.691	-200.000	-0.033	0.457
-154.677	60.052	0.178	-0.174
-153.662	800.000	-0.359	-1.258
-152.647	64.975	-0.148	0.147
-151.633	-200.000	0.002	0.925
-150.618	-52.730	0.299	0.136
-149.604	-33.098	-0.118	0.065
-148.589	156.766	-0.196	-0.267
-147.574	-200.000	-0.009	0.455
-146.560	96.186	-0.727	-0.819
-145.545	-137.278	0.819	0.092
-144.531	-60.232	0.399	0.168
-143.516	-162.437	0.412	-0.020
-142.502	316.443	-0.163	0.303
-141.487	800.000	-0.173	-0.530
-140.472	-41.402	0.331	0.168
-139.458	-97.205	0.264	-0.068
-138.443	153.135	0.217	-0.293
-137.429	-179.439	-1.068	0.023
-136.414	-4.288	-0.232	0.158
-135.399	-129.510	0.410	0.056
-134.385	66.882	0.604	-0.606
-133.370	800.000	0.107	0.457
-132.356	-200.000	-0.044	-0.516
-131.341	85.284	-0.480	-0.520
-130.326	190.780	-0.521	-0.773
-129.312	-46.360	0.067	0.032
-128.297	-200.000	0.027	-0.281
-127.283	-200.000	-0.051	-0.346
-126.268	219.276	-0.494	-0.778
-125.253	59.419	0.752	0.730
-124.239	-91.002	-0.694	0.197
-123.224	-200.000	-0.086	-0.514
-122.210	-148.887	-0.070	0.006
-121.195	800.000	-0.232	-0.997
-120.180	-23.072	-0.336	0.199
-119.166	157.032	-0.418	-0.569
-118.151	-20.662	-0.344	-0.208
-117.137	-150.976	0.317	0.024
-116.122	-200.000	0.058	-1.040
-115.107	194.113	0.290	0.433
-114.093	-93.481	0.487	0.133
-113.078	-49.718	-0.316	-0.148
-112.064	-130.427	-0.219	0.029
-111.049	-72.747	1.026	-0.372
-110.034	-200.000	-0.004	0.076
-109.020	800.000	0.242	0.822
-108.005	330.214	0.194	0.367
-106.991	160.646	0.079	-0.109
-105.976	800.000	0.152	0.577
-104.962	77.408	-0.418	0.438
-103.947	249.740	-0.266	-0.444
-102.932	-87.871	-0.265	0.078
-101.918	-74.258	0.824	-0.293
-100.903	-190.452	-0.323	0.003
-99.889	124.463	-0.299	0.370
-98.874	-101.013	-0.812	0.196
-97.859	217.199	0.122	0.191
-96.845	50.521	-0.182	-0.169
-95.830	800.000	0.082	-0.347
-94.816	285.060	0.244	0.432
-93.801	-24.357	-0.916	0.537
-92.786	-102.802	1.396	-0.327
-91.772	800.000	-0.199	0.586
-90.757	-0.753	-0.503	0.350
-89.743	800.000	0.204	0.697
-88.728	800.000	-0.312	-1.006
-87.713	56.519	0.361	-0.346
-86.699	9.970	0.763	0.570
-85.684	80.694	-0.159	0.168
-84.670	-199.951	-0.498	0.002
-83.655	800.000	0.159	0.593
-82.640	55.078	-0.613	0.583
-81.626	-200.000	-0.058	-0.360
-80.611	9.449	1.057	0.787
-79.597	800.000	0.179	0.643
-78.582	-8.046	0.324	0.214
-77.567	-147.209	0.580	0.049
-76.553	108.117	-0.448	-0.525
-75.538	-200.000	-0.081	-0.716
-74.524	54.201	-0.309	-0.292
-73.509	-114.756	-0.720	0.135
-72.494	-200.000	-0.026	0.254
-71.480	315.032	0.131	0.242
-70.465	-15.336	0.753	-0.473
-69.451	123.805	0.371	-0.457
-68.436	800.000	0.060	0.166
-67.422	-200.000	0.023	0.542
-66.407	-94.904	-0.606	-0.161
-65.392	-167.164	-0.562	0.022
-64.378	209.227	0.568	-0.875
-63.363	-200.000	0.040	-0.309
-62.349	-52.448	0.257	0.117
-61.334	88.331	-1.100	-1.201
-60.319	91.261	-0.474	0.523
-59.305	800.000	-0.194	-0.794
-58.290	-200.000	0.046	0.501
-57.276	171.897	0.881	1.244
-56.261	-200.000	99.297	610.420
-55.246	625.871	1376.015	3411.563
-54.232	201.246	2538.089	3839.351
-53.217	117.614	2117.966	2561.116
-52.203	43.854	1582.962	1424.434
-51.188	35.486	1324.168	1141.997
-50.173	32.306	1283.656	1088.642
-49.159	57.206	1334.066	1278.714
-48.144	57.354	1350.810	1295.581
-47.130	35.520	1307.813	1127.914
-46.115	31.953	1290.541	1092.247
-45.100	31.468	1286.321	1085.819
-44.086	31.759	1283.056	1084.706
-43.071	31.811	1279.646	1082.079
-42.057	31.741	1278.254	1080.458
-41.042	31.733	1277.440	1079.676
-40.027	31.462	1276.352	1077.157
-39.013	31.769	1273.373	1076.362
-37.998	31.720	1272.087	1074.953
-36.984	31.722	1270.549	1073.622
-35.969	31.948	1267.444	1072.247
-34.954	31.849	1267.273	1071.495
-33.940	31.666	1265.743	1069.111
-32.925	31.808	1263.864	1068.295
-31.911	31.934	1262.935	1068.181
-30.896	31.937	1260.948	1066.475
-29.881	31.954	1259.691	1065.470
-28.867	31.697	1258.302	1062.793
-27.852	31.852	1257.924	1063.311
-26.838	31.781	1256.075	1061.306
-25.823	32.060	1254.578	1061.576
-24.809	31.941	1253.180	1059.677
-23.794	32.037	1251.524	1058.776
-22.779	31.861	1249.577	1056.097
-21.765	32.102	1249.334	1057.207
-20.750	31.813	1248.291	1054.652
-19.736	31.756	1246.335	1052.638
-18.721	31.845	1244.976	1051.948
-17.706	31.753	1244.775	1051.225
-16.692	31.746	1243.605	1050.152
-15.677	31.894	1242.035	1049.614
-14.663	31.952	1240.615	1048.698
-13.648	31.581	1240.369	1046.374
-12.633	31.680	1239.425	1046.091
-11.619	31.775	1238.276	1045.607
-10.604	31.806	1236.787	1044.484
-9.590	31.730	1236.398	1043.686
-8.575	31.519	1236.124	1042.242
-7.560	31.846	1234.673	1042.793
-6.546	31.716	1233.569	1041.098
-5.531	31.799	1233.223	1041.224
-4.517	31.770	1231.533	1039.596
-3.502	31.695	1231.206	1038.862
-2.487	31.585	1231.007	1038.047
-1.473	31.790	1225.453	1034.450
-0.458	30.485	1210.634	1014.778
0.556	28.049	1194.014	975.539
1.571	24.306	1198.380	958.935
2.586	23.238	1213.626	965.228
3.600	22.712	1202.180	953.200
4.615	17.357	1129.675	868.366
5.629	7.764	1057.433	766.710
6.644	3.857	1037.434	733.634
7.659	3.379	1035.016	729.595
8.673	3.421	1034.304	729.231
9.688	3.264	1032.338	727.039
10.702	3.757	1030.669	728.120
11.717	9.787	1037.524	761.428
12.731	18.985	1050.720	814.822
13.746	23.836	1056.153	842.004
14.761	24.201	1058.657	845.659
15.775	23.914	1056.171	842.234
16.790	23.225	1055.789	838.597
17.804	23.612	1053.006	838.140
18.819	23.162	1052.972	835.911
19.834	23.113	1052.826	835.488
20.848	23.091	1053.193	835.604
21.863	23.419	1052.018	836.143
22.877	23.450	1050.299	834.851
23.892	23.052	1050.334	832.932
24.907	22.876	1049.679	831.510
25.921	23.025	1047.966	830.780
26.936	23.184	1047.076	830.748
27.950	23.011	1045.583	828.677
28.965	22.838	1044.498	826.932
29.980	22.925	1043.704	826.638
30.994	23.167	1042.181	826.491
32.009	22.848	1041.864	824.677
33.023	23.317	1039.805	825.160
34.038	22.803	1040.465	823.213
35.053	22.763	1038.996	821.793
36.067	22.852	1037.435	820.900
37.082	22.827	1035.375	819.079
38.096	23.186	1036.550	821.601
39.111	23.262	1035.598	821.127
40.126	22.759	1034.438	817.807
41.140	22.658	1032.811	815.979
42.155	22.644	1030.628	814.118
43.169	22.315	1030.823	812.681
44.184	22.256	1028.792	810.737
45.199	22.045	1028.823	809.715
46.213	22.705	1028.707	812.593
47.228	23.113	1027.252	813.250
48.242	23.027	1026.775	812.404
49.257	23.253	1025.275	812.184
50.271	23.154	1025.772	812.052
51.286	23.266	1025.143	811.994
52.301	23.394	1024.397	811.917
53.315	23.202	1022.679	809.609
54.330	22.918	1021.763	807.511
55.344	23.126	1019.749	806.797
56.359	22.784	1020.510	805.764
57.374	22.886	1020.393	806.068
58.388	22.375	1018.671	802.308
59.403	22.254	1017.963	801.128
60.417	22.487	1016.366	800.858
61.432	22.495	1016.462	800.900
62.447	22.568	1015.226	800.189
63.461	22.265	1014.816	798.418
64.476	22.213	1014.231	797.651
65.490	22.314	1013.367	797.361
66.505	22.341	1012.430	796.673
67.520	22.233	1012.193	795.929
68.534	21.938	1010.633	793.296
69.549	22.019	1009.432	792.648
70.563	21.928	1009.205	791.989
71.578	21.954	1007.014	790.318
72.593	21.771	1007.064	789.466
73.607	21.866	1005.987	788.979
74.622	21.830	1006.463	789.120
75.636	21.869	1005.394	788.385
76.651	21.978	1004.939	788.449
77.666	22.240	1004.150	788.934
78.680	22.154	1002.506	787.188
79.695	22.089	1002.500	786.823
80.709	22.224	1001.538	786.604
81.724	22.504	1001.018	787.377
82.739	22.731	998.891	786.649
83.753	22.769	1000.965	788.381
84.768	23.615	999.734	791.112
85.782	23.614	999.275	790.675
86.797	23.571	998.099	789.484
87.812	23.181	997.492	787.202
88.826	23.372	996.648	787.311
89.841	23.479	995.810	787.057
90.855	23.457	995.245	786.440
91.870	23.621	993.969	786.089
92.884	23.584	992.763	784.903
93.899	23.234	992.599	783.157
94.914	23.398	992.541	783.769
95.928	23.338	990.051	781.466
96.943	23.199	988.679	779.702
97.957	23.090	988.950	779.367
98.972	23.465	987.719	779.978
99.987	23.389	987.433	779.348
101.001	23.112	986.414	777.258
102.016	23.003	985.121	775.695
103.030	23.133	984.388	775.616
104.045	23.221	984.265	775.835
105.060	23.311	982.646	774.887
106.074	23.010	982.021	773.009
107.089	22.520	981.054	770.036
108.103	22.339	980.989	769.128
109.118	22.140	979.702	767.179
110.133	22.053	977.029	764.643
111.147	22.254	976.067	764.697
112.162	22.373	975.825	764.957
113.176	22.347	975.400	764.443
114.191	22.769	974.289	765.335
115.206	22.408	974.069	763.528
116.220	22.225	973.102	761.912
117.235	22.222	971.597	760.652
118.249	22.049	970.797	759.210
119.264	21.862	970.371	758.003
120.279	21.612	969.904	756.489
121.293	21.973	967.953	756.458
122.308	21.827	967.172	755.148
123.322	21.384	966.857	752.931
124.337	21.731	965.629	753.400
125.352	21.671	964.970	752.560
126.366	21.724	964.072	752.021
127.381	22.214	962.706	752.990
128.395	21.928	962.099	751.222
129.410	22.264	961.353	752.011
130.424	22.687	960.379	752.989
131.439	22.591	960.055	752.260
132.454	22.599	959.308	751.642
133.468	22.550	958.412	750.663
134.483	22.537	958.373	750.512
135.497	22.740	957.153	750.352
136.512	22.547	957.409	749.667
137.527	22.778	955.633	749.189
138.541	22.706	954.961	748.292
139.556	22.706	953.792	747.309
140.570	22.820	953.931	747.834
141.585	23.012	953.526	748.266
142.600	23.109	953.506	748.593
143.614	23.645	951.357	749.104
144.629	23.499	951.416	748.466
145.643	23.474	949.850	747.062
146.658	23.133	948.021	744.124
147.673	22.610	947.986	741.829
148.687	22.533	947.184	740.813
149.702	22.723	944.926	739.781
150.716	22.721	944.082	739.044
151.731	22.968	943.427	739.498
152.746	22.638	943.683	738.255
153.760	22.760	943.482	738.542
154.775	23.099	942.280	738.953
155.789	23.360	941.402	739.288
156.804	22.965	941.171	737.392
157.819	23.061	941.003	737.597
158.833	23.175	940.917	737.939
159.848	23.333	939.662	737.545
160.862	23.486	937.518	736.433
161.877	23.045	935.501	732.956
162.892	22.739	935.030	731.257
163.906	22.471	933.983	729.264
164.921	22.585	933.281	729.123
165.935	22.735	933.071	729.512
166.950	23.020	931.710	729.562
167.964	22.920	931.157	728.652
168.979	22.972	928.681	726.862
169.994	22.893	928.120	726.032
171.008	22.726	928.379	725.488
172.023	23.604	926.948	727.907
173.037	23.739	927.435	728.779
174.052	23.071	926.015	724.862
175.067	22.816	925.287	723.183
176.081	22.469	924.350	720.964
177.096	21.997	924.485	719.075
178.110	22.341	923.676	719.790
179.125	22.205	923.000	718.644
180.140	22.305	923.466	719.350
181.154	22.922	922.499	721.052
182.169	22.992	922.482	721.260
183.183	23.707	921.051	722.992
184.198	22.671	921.673	719.192
185.213	23.041	919.696	719.091
186.227	23.364	919.105	719.878
187.242	23.064	919.391	718.820
188.256	23.445	917.720	718.997
189.271	23.294	917.249	717.950
190.286	23.051	916.852	716.590
191.300	22.324	915.061	712.188
192.315	22.149	915.014	711.380
193.329	22.002	914.315	710.179
194.344	22.745	913.464	712.456
195.359	23.098	911.908	712.603
196.373	23.212	912.360	713.352
197.388	23.112	913.215	713.552
198.402	23.404	912.925	714.440
199.417	23.465	912.034	713.925
200.432	24.011	910.793	715.084
201.446	23.804	910.622	714.057
202.461	23.641	910.093	712.925
203.475	23.497	909.707	711.981
204.490	23.106	908.237	709.201
205.504	22.821	907.720	707.593
206.519	23.358	907.314	709.363
207.534	23.038	906.185	707.139
208.548	23.235	906.129	707.820
209.563	23.183	904.611	706.363
210.577	23.042	904.813	705.896
211.592	23.821	904.555	708.741
212.607	23.494	904.486	707.319
213.621	23.789	902.739	707.063
214.636	23.498	902.713	705.823
215.650	23.602	901.061	704.881
216.665	23.360	900.942	703.763
217.680	23.322	900.537	703.235
218.694	23.680	900.310	704.417
219.709	23.492	898.959	702.552
220.723	23.667	897.490	702.033
221.738	23.254	896.869	699.852
222.753	23.289	896.858	699.923
223.767	23.353	896.393	699.749
224.782	23.684	896.367	700.974
225.796	23.500	896.663	700.418
226.811	23.138	895.616	698.108
227.826	22.955	894.033	696.093
228.840	22.976	893.532	695.724
229.855	23.125	892.036	695.084
230.869	22.889	891.509	693.686
231.884	22.787	891.506	693.220
232.899	22.834	891.324	693.200
233.913	22.859	890.062	692.256
234.928	22.793	889.000	691.110
235.942	22.485	888.540	689.487
236.957	22.346	887.349	687.959
237.972	22.423	888.124	688.799
238.986	22.630	886.787	688.509
240.001	22.622	886.277	688.021
241.015	22.684	886.441	688.332
242.030	22.972	885.448	688.621
243.045	22.757	885.973	688.130
244.059	22.917	884.482	687.533
245.074	23.382	883.220	688.297
246.088	23.174	883.537	687.675
247.103	23.454	883.590	688.744
248.117	23.729	883.155	689.413
249.132	24.346	883.078	691.687
250.147	24.731	881.322	691.738
251.161	24.702	881.275	691.528
252.176	24.591	880.572	690.485
253.190	24.167	881.581	689.576
254.205	24.606	880.578	690.425
255.220	24.660	878.715	689.113
256.234	24.421	878.697	688.118
257.249	23.919	878.609	686.052
258.263	24.068	877.020	685.322
259.278	23.838	876.573	684.027
260.293	24.623	875.059	685.801
261.307	24.138	875.567	684.273
262.322	24.308	875.393	684.731
263.336	24.598	874.234	684.877
264.351	24.640	872.063	683.274
265.366	24.054	872.847	681.584
266.380	24.331	872.128	682.024
267.395	24.689	871.287	682.673
268.409	24.274	870.247	680.216
269.424	24.150	869.852	679.371
270.439	24.334	868.957	679.314
271.453	23.936	868.527	677.401
272.468	24.172	868.814	678.464
273.482	24.215	867.413	677.474
274.497	24.247	867.199	677.369
275.512	24.162	866.685	676.584
276.526	24.283	865.918	676.384
277.541	24.222	865.066	675.428
278.555	24.171	865.532	675.539
279.570	24.465	864.907	676.106
280.585	24.645	863.354	675.511
281.599	24.345	861.945	673.218
282.614	23.783	861.706	670.849
283.628	23.742	861.165	670.216
284.643	24.025	860.114	670.405
285.657	23.771	861.004	670.081
286.672	23.717	859.103	668.340
287.687	23.855	860.206	669.658
288.701	24.390	858.524	670.300
289.716	23.943	858.000	668.155
290.730	24.014	857.757	668.173
291.745	24.153	856.865	667.938
292.760	24.376	857.230	669.002
293.774	24.505	856.931	669.193
294.789	24.773	855.569	669.072
295.803	23.844	855.625	665.579
296.818	24.188	853.300	664.995
297.833	23.931	854.062	664.569
298.847	24.325	852.271	664.586
299.862	24.076	852.880	664.073
300.876	24.445	852.388	665.007
301.891	24.563	851.832	664.953
302.906	24.466	851.759	664.475
303.920	24.851	851.084	665.324
304.935	24.989	850.332	665.187
305.949	24.697	849.793	663.625
306.964	24.487	848.600	661.857
307.979	24.361	847.492	660.466
308.993	24.760	847.520	661.907
310.008	24.688	847.448	661.527
311.022	24.467	846.697	660.062
312.037	24.773	845.193	659.964
313.052	24.493	844.233	658.124
314.066	23.988	844.812	656.654
315.081	23.575	844.850	655.099
316.095	23.835	843.582	655.014
317.110	24.296	842.552	655.854
318.125	23.698	841.981	653.154
319.139	23.297	842.461	651.992
320.154	23.558	840.929	651.708
321.168	23.681	840.994	652.154
322.183	23.924	841.000	652.992
323.197	24.065	839.796	652.514
324.212	23.986	840.301	652.562
325.227	23.951	839.286	651.586
326.241	24.057	837.995	650.915
327.256	24.020	836.941	649.903
328.270	23.942	836.312	649.073
329.285	23.548	836.562	647.772
330.300	23.754	834.850	647.137
331.314	23.671	835.175	647.031
332.329	24.102	835.460	648.766
333.343	24.635	834.944	650.247
334.358	24.533	834.121	649.177
335.373	24.110	834.749	648.069
336.387	24.504	833.702	648.630
337.402	24.608	834.210	649.345
338.416	24.535	834.324	649.114
339.431	24.788	833.818	649.579
340.446	25.123	833.569	650.544
341.460	25.238	832.055	649.722
342.475	25.322	831.721	649.707
343.489	25.310	832.553	650.256
344.504	25.187	831.725	649.107
345.519	25.371	832.178	650.069
346.533	25.308	830.147	648.198
347.548	25.097	829.577	646.934
348.562	24.730	829.020	645.119
349.577	24.618	828.431	644.199
350.592	24.209	827.823	642.198
351.606	24.320	826.551	641.551
352.621	24.257	826.215	641.009
353.635	24.489	824.684	640.597
354.650	24.436	824.699	640.361
355.665	24.492	824.269	640.171
356.679	24.572	823.931	640.140
357.694	24.914	822.743	640.383
358.708	24.510	822.522	638.708
359.723	24.404	821.356	637.370
360.738	24.602	821.561	638.178
361.752	24.781	821.128	638.426
362.767	25.080	820.346	638.826
363.781	25.295	820.585	639.721
364.796	25.300	819.934	639.175
365.810	25.400	819.298	638.981
366.825	25.183	819.377	638.211
367.840	25.307	819.104	638.385
368.854	25.431	817.054	637.170
369.869	25.163	816.455	635.697
370.883	25.213	816.398	635.773
371.898	25.400	816.384	636.368
372.913	25.264	816.526	635.942
373.927	25.077	815.498	634.421
374.942	25.264	814.993	634.634
375.956	25.398	814.811	634.909
376.971	25.441	814.991	635.145
377.986	25.343	814.759	634.563
379.000	25.586	812.902	633.918
380.015	25.286	813.448	633.229
381.029	25.316	813.029	632.953
382.044	25.508	812.218	632.939
383.059	26.080	810.791	633.784
384.073	25.814	809.295	631.624
385.088	25.182	809.811	629.752
386.102	24.742	808.337	627.008
387.117	24.794	808.380	627.167
388.132	24.609	807.827	626.037
389.146	24.847	807.351	626.447
390.161	25.159	807.225	627.382
391.175	25.669	806.564	628.595
392.190	25.433	806.624	627.761
393.205	24.653	805.316	623.967
394.219	24.380	805.087	622.782
395.234	24.402	804.306	622.198
396.248	24.589	804.703	623.105
397.263	24.624	803.344	622.117
398.278	24.745	802.268	621.650
399.292	24.677	801.240	620.563
400.307	24.546	801.976	620.624
401.321	24.419	801.664	619.885
402.336	24.860	800.831	620.716
403.350	25.302	800.605	622.017
404.365	25.151	800.989	621.738
405.380	25.843	800.036	623.337
406.394	26.098	798.974	623.337
407.409	25.992	800.128	623.815
408.423	25.901	799.876	623.248
409.438	25.887	800.099	623.319
410.453	26.087	798.604	622.789
411.467	25.848	798.541	621.861
412.482	25.870	797.788	621.295
413.496	26.302	797.265	622.322
414.511	25.744	797.448	620.484
415.526	25.732	796.235	619.445
416.540	25.874	795.542	619.341
417.555	26.014	795.331	619.603
418.569	26.070	796.022	620.276
419.584	25.749	795.140	618.433
420.599	25.975	793.904	618.193
421.613	162.203	1370.139	1792.759
422.628	140.663	1454.099	1792.858
