DTS Sentinel unit serial number:	SN413079Multiplexer serial number:	ORYXHardware model number:	OX4-SRSoftware version number:	ORYX F/W v4.00 Oryx Data Collector v3.7.2.0data status	okinstallation	princeton_trtdifferential loss correction	single-endedforward channel	channel 1reverse channel	N/Adate	2019/09/19time	06:30:35forward acquisition time	60.00reverse acquisition time	0.00gamma	496.2192k internal	0.2342k external	0.2342temperature offset calibration	1.0022default loss term (dB/km)	0.3790temperature slope calibration	1.0000multiplexer offset coefficient	1.0000multiplexer slope coefficient	1.0000fibre end	0.00T internal ref (°C)	19.00T ext. ref 1 (°C)	0.56T ext. ref 2 (°C)	12.79length (m)	temperature (°C)	Stokes	anti-Stokes-747.200	-162.670	0.159	-0.008
-746.185	130.879	-0.107	0.138
-745.171	53.571	0.145	-0.139
-744.156	11.693	-0.155	-0.119
-743.142	-51.655	0.123	0.057
-742.127	316.908	-0.020	0.037
-741.112	-68.351	-0.048	-0.019
-740.098	-162.527	-0.359	0.018
-739.083	10.709	-0.235	0.179
-738.069	800.000	-0.061	0.238
-737.054	-200.000	-0.035	-0.178
-736.039	800.000	-0.100	-0.405
-735.025	800.000	0.053	0.173
-734.010	-114.159	0.203	-0.039
-732.996	0.383	-0.220	0.157
-731.981	-65.704	0.299	-0.120
-730.966	82.508	0.219	0.238
-729.952	-82.762	0.253	-0.082
-728.937	-200.000	-0.040	0.307
-727.923	-115.309	-0.074	-0.014
-726.908	49.176	-0.142	-0.134
-725.894	-37.204	-0.213	-0.114
-724.879	108.425	-0.194	-0.232
-723.864	-35.830	-0.194	-0.105
-722.850	38.662	0.189	-0.168
-721.835	501.910	0.109	0.252
-720.821	134.740	-0.043	0.055
-719.806	-107.895	-0.263	-0.057
-718.791	-200.000	0.051	0.265
-717.777	37.260	0.296	-0.263
-716.762	-1.443	0.149	0.105
-715.748	-200.000	0.082	-0.636
-714.733	800.000	-0.065	0.228
-713.718	800.000	0.065	-0.243
-712.704	601.444	-0.142	0.353
-711.689	-42.266	0.113	0.058
-710.675	-200.000	0.018	0.307
-709.660	144.297	-0.298	0.398
-708.645	6.924	0.282	0.210
-707.631	-3.163	-0.180	0.125
-706.616	-103.812	-0.563	-0.132
-705.602	-200.000	-0.018	0.094
-704.587	787.286	-0.097	0.267
-703.572	697.555	0.032	-0.084
-702.558	-112.639	-0.207	-0.041
-701.543	800.000	-0.077	0.295
-700.529	553.121	-0.133	0.320
-699.514	104.287	0.063	-0.074
-698.499	30.444	-0.066	0.056
-697.485	800.000	-0.048	-0.187
-696.470	800.000	-0.085	0.321
-695.456	800.000	0.055	-0.217
-694.441	11.679	0.130	-0.100
-693.426	-200.000	0.028	0.139
-692.412	-200.000	0.023	-0.150
-691.397	800.000	-0.081	-0.229
-690.383	-53.015	0.230	-0.106
-689.368	153.618	0.085	0.116
-688.354	-114.071	0.206	0.040
-687.339	800.000	-0.127	-0.535
-686.324	-30.396	0.126	0.071
-685.310	800.000	0.120	-0.500
-684.295	178.312	0.225	-0.328
-683.281	-200.000	-0.011	-0.407
-682.266	-90.783	0.187	-0.054
-681.251	-105.209	-0.069	0.016
-680.237	-95.340	-0.087	0.023
-679.222	-16.267	0.329	0.209
-678.208	-200.000	-0.010	0.114
-677.193	-200.000	0.027	-0.228
-676.178	800.000	-0.078	-0.270
-675.164	-145.069	0.415	-0.038
-674.149	241.585	-0.097	-0.161
-673.135	800.000	-0.104	-0.444
-672.120	308.526	0.083	-0.155
-671.105	-67.313	0.160	0.063
-670.091	-122.174	-0.171	-0.028
-669.076	-10.353	0.096	-0.064
-668.062	-10.193	0.176	-0.117
-667.047	800.000	-0.062	-0.257
-666.032	-90.667	-0.283	0.082
-665.018	-26.657	0.108	-0.063
-664.003	-66.071	0.240	0.096
-662.989	-85.760	-0.036	0.011
-661.974	-112.737	-0.116	-0.023
-660.959	277.365	0.186	-0.331
-659.945	74.449	0.318	-0.334
-658.930	-115.252	-0.266	0.050
-657.916	-44.866	-0.036	0.018
-656.901	-28.899	0.169	-0.097
-655.886	51.389	-0.038	0.036
-654.872	-5.037	0.158	-0.108
-653.857	-133.285	-0.156	0.020
-652.843	338.382	0.289	-0.561
-651.828	800.000	0.029	-0.094
-650.814	-20.245	0.308	-0.190
-649.799	-84.662	-0.384	0.121
-648.784	-75.622	-0.103	-0.037
-647.770	280.564	0.017	-0.031
-646.755	157.642	-0.173	0.239
-645.741	-200.000	-0.029	-0.132
-644.726	-28.065	0.185	-0.107
-643.711	684.484	-0.084	0.219
-642.697	332.156	-0.104	-0.200
-641.682	-56.045	0.386	0.171
-640.668	-138.450	-0.168	-0.018
-639.653	-54.305	-0.154	-0.070
-638.638	775.709	-0.126	0.343
-637.624	-127.123	0.067	-0.010
-636.609	118.155	-0.152	-0.186
-635.595	145.541	-0.100	-0.134
-634.580	-51.438	0.248	-0.116
-633.565	-200.000	0.003	-0.087
-632.551	129.262	-0.136	-0.173
-631.536	169.219	0.205	-0.291
-630.522	158.082	-0.130	0.180
-629.507	-105.870	-0.183	-0.041
-628.492	483.554	0.146	0.332
-627.478	137.647	0.163	0.213
-626.463	-122.573	-0.063	0.010
-625.449	-24.025	0.070	0.042
-624.434	657.129	0.098	0.252
-623.419	-32.652	0.343	-0.190
-622.405	160.902	0.149	0.207
-621.390	-200.000	-0.058	-0.378
-620.376	264.426	0.046	-0.080
-619.361	97.571	-0.021	-0.024
-618.346	204.468	0.055	-0.085
-617.332	79.491	0.095	0.102
-616.317	-34.979	0.205	-0.112
-615.303	-151.986	-0.211	0.015
-614.288	-147.155	0.263	0.022
-613.273	800.000	0.070	0.236
-612.259	-130.963	-0.346	0.046
-611.244	-68.930	0.127	0.049
-610.230	20.318	0.148	-0.119
-609.215	800.000	0.094	0.322
-608.201	-102.513	-0.144	-0.034
-607.186	153.082	0.047	0.064
-606.171	114.706	-0.178	-0.216
-605.157	-145.493	0.137	-0.012
-604.142	-78.547	-0.363	0.124
-603.128	364.931	0.068	-0.137
-602.113	507.231	0.111	-0.256
-601.098	26.120	-0.056	-0.047
-600.084	-143.548	-0.254	-0.024
-599.069	-167.627	-0.297	0.012
-598.055	57.458	-0.136	0.132
-597.040	-136.427	-0.224	0.026
-596.025	800.000	0.052	0.185
-595.011	401.273	0.028	0.058
-593.996	-200.000	-0.021	-0.206
-592.982	-100.539	-0.236	0.058
-591.967	-3.948	0.086	0.060
-590.952	-200.000	-0.005	0.303
-589.938	663.792	0.139	0.357
-588.923	-79.956	-0.359	0.120
-587.909	107.463	0.181	0.214
-586.894	-104.028	0.231	0.054
-585.879	-200.000	-0.003	-0.194
-584.865	-71.659	-0.025	-0.009
-583.850	286.492	0.053	-0.095
-582.836	-200.000	0.001	-0.327
-581.821	-127.553	0.200	-0.029
-580.806	-61.256	0.270	-0.113
-579.792	-172.028	0.192	0.006
-578.777	-143.531	0.147	0.014
-577.763	-162.732	-0.231	0.011
-576.748	-200.000	-0.014	-0.092
-575.733	-128.177	-0.120	-0.017
-574.719	106.967	-0.311	0.368
-573.704	-200.000	0.002	0.131
-572.690	409.243	-0.100	-0.210
-571.675	-200.000	-0.015	-0.242
-570.661	-14.397	0.315	0.202
-569.646	-127.089	0.143	-0.021
-568.631	-40.520	0.185	-0.096
-567.617	77.036	-0.146	-0.154
-566.602	-73.910	0.195	0.070
-565.588	-37.114	-0.089	0.047
-564.573	-85.179	0.274	-0.085
-563.558	-30.674	-0.369	-0.208
-562.544	800.000	0.043	0.122
-561.529	-22.472	-0.131	-0.079
-560.515	-131.215	-0.384	-0.051
-559.500	86.416	0.050	-0.055
-558.485	-0.378	-0.265	-0.188
-557.471	19.324	-0.277	-0.221
-556.456	-47.785	0.157	0.076
-555.442	473.782	-0.106	-0.238
-554.427	164.843	0.115	-0.162
-553.412	-200.000	0.014	0.203
-552.398	253.003	0.166	0.281
-551.383	-149.142	0.220	-0.018
-550.369	-69.191	0.118	-0.045
-549.354	-145.046	-0.381	-0.034
-548.339	8.495	-0.151	-0.113
-547.325	-124.368	-0.131	0.020
-546.310	106.079	0.099	0.117
-545.296	134.985	0.060	0.078
-544.281	-200.000	-0.013	-0.312
-543.266	-200.000	-0.020	0.248
-542.252	-200.000	-0.035	-0.164
-541.237	-200.000	0.065	0.387
-540.223	340.591	0.127	0.246
-539.208	-132.568	-0.205	0.026
-538.193	-56.070	0.145	-0.064
-537.179	-160.181	-0.298	-0.016
-536.164	128.293	0.069	0.087
-535.150	800.000	0.007	0.019
-534.135	-51.481	-0.202	-0.094
-533.121	-15.510	0.301	-0.191
-532.106	-146.518	-0.247	0.021
-531.091	-44.181	0.095	-0.048
-530.077	800.000	0.044	-0.137
-529.062	32.228	0.215	0.184
-528.048	-79.754	-0.253	-0.085
-527.033	-46.645	0.258	-0.125
-526.018	-54.122	0.128	0.058
-525.004	-102.855	-0.339	-0.080
-523.989	-200.000	0.026	0.261
-522.975	-200.000	-0.020	0.308
-521.960	-3.943	-0.249	-0.171
-520.945	-55.546	-0.092	0.041
-519.931	-148.126	-0.133	-0.011
-518.916	25.691	-0.290	0.240
-517.902	-200.000	0.027	-0.379
-516.887	-141.162	-0.302	-0.031
-515.872	189.105	-0.009	-0.013
-514.858	193.529	0.157	-0.236
-513.843	735.024	0.209	0.557
-512.829	800.000	-0.082	-0.244
-511.814	-200.000	0.000	-0.132
-510.799	301.465	0.046	-0.085
-509.785	800.000	0.053	-0.197
-508.770	91.438	0.170	-0.189
-507.756	523.255	-0.023	-0.054
-506.741	152.324	-0.141	0.191
-505.726	580.173	0.033	-0.079
-504.712	168.960	0.242	0.342
-503.697	-6.318	0.321	0.217
-502.683	-23.178	0.293	-0.175
-501.668	-173.410	0.123	-0.004
-500.653	-112.732	-0.115	0.023
-499.639	-200.000	-0.017	0.330
-498.624	-200.000	0.012	0.140
-497.610	389.234	0.117	-0.241
-496.595	-18.096	0.078	-0.048
-495.581	162.309	-0.185	0.258
-494.566	177.783	0.146	-0.211
-493.551	160.210	0.135	0.187
-492.537	156.933	0.048	-0.066
-491.522	-18.142	0.169	-0.105
-490.508	-80.035	-0.120	0.040
-489.493	180.159	0.152	-0.221
-488.478	-200.000	0.023	0.206
-487.464	95.644	-0.164	-0.186
-486.449	49.133	-0.023	0.022
-485.435	-159.967	-0.134	-0.007
-484.420	209.553	-0.272	0.422
-483.405	-0.226	-0.322	-0.227
-482.391	-89.323	0.157	0.046
-481.376	-200.000	-0.032	-0.262
-480.362	-113.112	-0.229	-0.045
-479.347	-200.000	0.032	-0.181
-478.332	800.000	0.074	-0.270
-477.318	91.975	0.095	0.106
-476.303	697.692	-0.020	-0.052
-475.289	800.000	-0.074	-0.275
-474.274	351.338	0.058	-0.115
-473.259	800.000	-0.036	0.109
-472.245	222.016	-0.175	-0.280
-471.230	800.000	0.047	-0.154
-470.216	-200.000	0.006	-0.142
-469.201	-59.901	0.378	0.160
-468.186	-61.175	0.272	-0.114
-467.172	109.292	0.138	-0.164
-466.157	-200.000	-0.010	0.086
-465.143	-95.111	-0.189	-0.051
-464.128	-66.441	-0.185	-0.073
-463.113	79.552	-0.107	0.114
-462.099	94.017	0.198	0.222
-461.084	-81.647	-0.276	-0.090
-460.070	72.371	0.074	0.076
-459.055	-47.449	0.364	-0.175
-458.040	245.113	-0.140	0.233
-457.026	-112.470	-0.071	-0.014
-456.011	8.964	0.104	0.078
-454.997	-153.994	-0.363	-0.024
-453.982	-200.000	-0.010	0.187
-452.968	-3.072	-0.335	0.232
-451.953	-72.707	0.132	0.048
-450.938	-200.000	-0.091	-0.406
-449.924	-122.373	-0.137	-0.022
-448.909	800.000	0.061	0.220
-447.895	155.372	0.165	0.225
-446.880	-14.617	0.288	0.184
-445.865	800.000	0.061	0.203
-444.851	-173.652	-0.260	-0.008
-443.836	-125.311	0.272	-0.041
-442.822	800.000	0.050	0.204
-441.807	60.737	-0.273	-0.268
-440.792	-200.000	0.040	0.359
-439.778	10.921	-0.069	0.052
-438.763	569.465	-0.112	0.269
-437.749	-48.224	0.156	-0.075
-436.734	-121.076	0.435	0.072
-435.719	137.030	-0.065	-0.084
-434.705	-200.000	-0.028	0.147
-433.690	-44.137	-0.249	-0.124
-432.676	83.234	0.120	0.129
-431.661	418.636	-0.127	0.269
-430.646	175.771	-0.074	0.106
-429.632	-109.657	0.193	-0.040
-428.617	182.700	0.140	0.204
-427.603	-4.309	0.119	0.081
-426.588	638.890	-0.112	-0.283
-425.573	-16.203	0.299	-0.188
-424.559	-65.402	0.120	-0.048
-423.544	725.291	-0.113	0.298
-422.530	67.047	-0.063	-0.064
-421.515	-200.000	0.008	0.294
-420.500	800.000	0.095	0.360
-419.486	32.235	0.056	0.047
-418.471	37.979	-0.073	-0.065
-417.457	-200.000	-0.005	-0.195
-416.442	-56.176	0.167	0.073
-415.428	-2.457	-0.207	0.144
-414.413	-200.000	-0.047	-0.234
-413.398	77.487	-0.198	-0.208
-412.384	-148.473	-0.171	0.014
-411.369	361.954	-0.096	-0.190
-410.355	800.000	0.009	-0.039
-409.340	52.788	0.318	-0.301
-408.325	-85.550	-0.456	0.140
-407.311	137.547	-0.081	-0.104
-406.296	-102.672	-0.180	0.042
-405.282	-14.213	-0.180	0.115
-404.267	800.000	0.108	-0.430
-403.252	-200.000	0.043	0.187
-402.238	30.241	-0.261	0.220
-401.223	761.471	0.064	0.171
-400.209	-65.758	0.147	-0.058
-399.194	292.111	-0.067	-0.121
-398.179	-64.518	-0.121	0.049
-397.165	176.556	-0.116	0.166
-396.150	43.369	-0.179	0.162
-395.136	-200.000	0.026	-0.121
-394.121	46.861	0.299	0.275
-393.106	-200.000	-0.002	-0.229
-392.092	535.664	0.124	-0.292
-391.077	329.048	-0.139	-0.265
-390.063	800.000	0.033	0.093
-389.048	-88.848	-0.245	0.072
-388.033	66.111	-0.205	0.206
-387.019	-23.988	0.110	0.065
-386.004	0.148	0.161	-0.113
-384.990	-200.000	-0.070	-0.307
-383.975	-200.000	-0.109	0.578
-382.960	236.153	-0.033	-0.055
-381.946	-92.590	0.221	0.061
-380.931	-200.000	-0.006	0.151
-379.917	169.968	-0.133	0.187
-378.902	5.262	-0.190	0.139
-377.888	-200.000	0.034	0.479
-376.873	85.175	0.125	0.135
-375.858	-58.315	-0.057	-0.024
-374.844	-17.836	-0.199	0.123
-373.829	497.872	-0.166	-0.377
-372.815	-107.408	0.259	0.056
-371.800	-43.855	-0.265	0.132
-370.785	-94.429	0.153	-0.041
-369.771	-118.374	0.133	0.023
-368.756	-67.499	-0.262	-0.102
-367.742	-168.095	-0.216	-0.008
-366.727	-108.465	-0.311	0.066
-365.712	-76.530	0.192	0.067
-364.698	-200.000	0.013	-0.248
-363.683	38.928	0.180	0.159
-362.669	-105.840	-0.220	0.049
-361.654	-200.000	0.031	-0.263
-360.639	-114.129	-0.042	0.008
-359.625	701.074	-0.022	-0.056
-358.610	475.104	0.169	0.377
-357.596	128.637	-0.206	0.259
-356.581	-53.570	0.073	0.033
-355.566	69.428	0.204	0.207
-354.552	278.456	0.272	0.478
-353.537	-45.961	0.194	-0.094
-352.523	64.114	-0.084	-0.083
-351.508	32.154	0.176	0.149
-350.493	-200.000	0.010	0.048
-349.479	251.930	-0.131	0.220
-348.464	223.461	0.079	0.125
-347.450	-99.288	-0.398	0.099
-346.435	-14.477	0.339	0.215
-345.420	800.000	-0.094	-0.312
-344.406	-50.072	0.155	0.072
-343.391	-74.972	-0.327	-0.115
-342.377	211.785	-0.194	-0.302
-341.362	-135.672	0.123	0.014
-340.348	-200.000	0.027	0.182
-339.333	-200.000	0.033	0.152
-338.318	800.000	0.018	-0.055
-337.304	297.618	0.092	0.167
-336.289	643.374	0.030	0.074
-335.275	800.000	-0.189	-0.613
-334.260	109.970	-0.180	0.212
-333.245	406.399	-0.192	-0.399
-332.231	-81.181	-0.099	0.032
-331.216	-68.885	0.464	0.177
-330.202	408.752	0.116	0.243
-329.187	-109.207	0.210	0.044
-328.172	-105.529	0.457	-0.102
-327.158	-200.000	0.017	-0.265
-326.143	-192.308	0.186	0.002
-325.129	15.516	0.224	0.173
-324.114	-105.830	-0.347	-0.077
-323.099	359.687	-0.129	-0.254
-322.085	-6.884	0.189	-0.126
-321.070	-75.187	0.171	0.060
-320.056	744.313	0.053	-0.140
-319.041	91.133	0.158	-0.174
-318.026	-54.362	-0.221	0.099
-317.012	263.797	0.103	-0.176
-315.997	-15.209	-0.299	0.189
-314.983	32.849	0.136	-0.116
-313.968	477.503	-0.092	0.205
-312.953	46.344	0.067	0.062
-311.939	81.789	0.113	-0.121
-310.924	-172.634	0.363	-0.011
-309.910	-200.000	0.002	-0.152
-308.895	-200.000	-0.012	0.321
-307.880	19.271	-0.149	-0.118
-306.866	-179.462	-0.129	-0.003
-305.851	66.614	0.286	0.287
-304.837	-40.582	-0.254	-0.130
-303.822	2.534	-0.106	-0.076
-302.807	-200.000	0.016	0.150
-301.793	468.244	-0.005	-0.012
-300.778	-24.193	-0.202	0.119
-299.764	-200.000	0.033	0.181
-298.749	110.959	-0.109	-0.130
-297.735	238.566	0.215	0.352
-296.720	-200.000	-0.024	0.269
-295.705	-157.350	0.506	0.030
-294.691	71.746	-0.241	0.247
-293.676	-200.000	0.012	-0.082
-292.662	644.804	-0.173	-0.433
-291.647	-65.750	0.379	-0.150
-290.632	-110.398	0.245	-0.050
-289.618	107.888	-0.198	0.232
-288.603	679.069	-0.033	0.085
-287.589	48.389	-0.101	0.093
-286.574	-20.936	-0.015	0.009
-285.559	101.759	0.165	-0.189
-284.545	-132.945	0.229	-0.029
-283.530	800.000	-0.019	-0.062
-282.516	-200.000	0.003	0.260
-281.501	800.000	-0.180	-0.534
-280.486	-62.750	-0.027	0.011
-279.472	6.493	-0.299	-0.218
-278.457	-130.929	0.167	-0.022
-277.443	239.236	-0.343	-0.562
-276.428	-117.544	0.073	-0.013
-275.413	800.000	0.081	-0.298
-274.399	-200.000	-0.065	-0.398
-273.384	65.115	0.080	-0.079
-272.370	-74.177	0.307	0.109
-271.355	7.468	-0.219	-0.161
-270.340	-111.498	-0.087	0.017
-269.326	330.677	0.066	-0.125
-268.311	0.195	-0.212	-0.149
-267.297	31.972	0.100	0.085
-266.282	84.923	-0.323	0.348
-265.267	14.840	0.092	-0.071
-264.253	108.423	0.263	-0.308
-263.238	800.000	-0.013	-0.036
-262.224	89.146	0.068	-0.074
-261.209	15.032	0.295	0.227
-260.195	-200.000	-0.018	0.249
-259.180	-117.249	-0.390	0.070
-258.165	800.000	-0.049	-0.186
-257.151	11.493	-0.028	0.021
-256.136	-121.174	0.197	-0.032
-255.122	-15.348	0.261	0.164
-254.107	-88.104	-0.176	-0.052
-253.092	17.558	-0.208	-0.162
-252.078	-119.360	0.300	-0.051
-251.063	179.976	0.159	-0.229
-250.049	-200.000	-0.011	-0.192
-249.034	79.784	0.080	-0.084
-248.019	5.570	0.328	-0.238
-247.005	702.755	0.123	0.318
-245.990	-200.000	0.048	0.216
-244.976	-200.000	0.031	0.138
-243.961	705.609	-0.011	0.029
-242.946	-147.447	0.248	0.021
-241.932	-200.000	0.017	0.320
-240.917	-200.000	0.019	-0.146
-239.903	-137.247	-0.224	-0.025
-238.888	92.290	-0.107	-0.118
-237.873	39.289	0.097	-0.085
-236.859	154.599	0.113	-0.152
-235.844	-200.000	-0.026	0.273
-234.830	800.000	-0.025	-0.086
-233.815	-55.147	-0.267	-0.118
-232.800	-76.554	0.247	-0.085
-231.786	62.753	-0.328	-0.322
-230.771	-76.612	0.236	-0.081
-229.757	-107.280	-0.283	0.061
-228.742	300.118	-0.094	-0.169
-227.727	48.190	-0.059	0.054
-226.713	399.690	-0.172	0.355
-225.698	-200.000	0.005	-0.219
-224.684	-200.000	0.001	-0.251
-223.669	388.194	0.161	-0.327
-222.655	-169.806	-0.175	0.006
-221.640	-200.000	-0.010	0.132
-220.625	-58.705	-0.134	0.057
-219.611	-200.000	-0.037	0.167
-218.596	90.945	0.177	-0.194
-217.582	746.329	-0.088	0.232
-216.567	72.591	0.224	-0.229
-215.552	-19.423	0.156	-0.095
-214.538	-95.116	0.406	0.108
-213.523	-48.125	-0.057	0.027
-212.509	-180.118	-0.345	-0.007
-211.494	800.000	-0.093	-0.276
-210.479	-113.538	-0.265	-0.051
-209.465	180.614	0.113	0.163
-208.450	-70.506	-0.278	0.103
-207.436	-200.000	0.003	-0.037
-206.421	14.332	0.196	0.150
-205.406	59.870	-0.216	-0.209
-204.392	-89.438	0.382	-0.110
-203.377	-61.007	-0.199	-0.082
-202.363	351.422	0.068	-0.133
-201.348	374.168	-0.087	-0.173
-200.333	258.759	0.114	0.193
-199.319	800.000	0.076	0.248
-198.304	-124.944	-0.173	0.026
-197.290	-93.101	0.206	-0.056
-196.275	-123.658	0.112	-0.017
-195.260	-75.030	-0.087	-0.031
-194.246	-200.000	0.024	0.318
-193.231	-200.000	-0.046	-0.275
-192.217	-6.640	0.062	0.041
-191.202	79.949	0.064	-0.068
-190.187	329.541	-0.065	0.123
-189.173	-125.035	-0.121	-0.018
-188.158	-13.387	-0.167	0.106
-187.144	32.677	0.251	-0.213
-186.129	580.515	-0.025	0.059
-185.114	512.098	-0.090	0.205
-184.100	-70.300	0.231	-0.086
-183.085	-87.651	0.287	0.085
-182.071	12.782	-0.179	0.135
-181.056	-125.551	0.196	0.029
-180.042	-91.388	-0.156	0.044
-179.027	-200.000	0.041	0.363
-178.012	-167.377	0.123	0.005
-176.998	143.514	0.136	0.177
-175.983	-200.000	-0.012	-0.139
-174.969	28.881	0.268	-0.223
-173.954	-10.817	-0.173	-0.112
-172.939	112.533	0.116	0.137
-171.925	-53.802	0.235	-0.105
-170.910	147.716	-0.159	0.210
-169.896	12.786	0.220	-0.166
-168.881	6.538	-0.219	-0.160
-167.866	85.592	-0.093	-0.100
-166.852	2.971	-0.046	0.033
-165.837	49.609	0.139	0.128
-164.823	800.000	-0.208	-0.645
-163.808	-85.319	0.140	0.043
-162.793	-75.390	-0.162	-0.056
-161.779	-200.000	0.005	0.040
-160.764	-200.000	0.022	0.269
-159.750	35.377	-0.207	-0.177
-158.735	-200.000	-0.002	0.019
-157.720	-82.223	0.237	-0.075
-156.706	721.211	-0.084	-0.219
-155.691	-6.446	0.177	-0.118
-154.677	-200.000	0.003	-0.072
-153.662	8.193	-0.295	0.217
-152.647	-200.000	0.004	0.125
-151.633	6.610	0.199	-0.145
-150.618	589.776	-0.057	0.138
-149.604	28.226	0.055	-0.045
-148.589	63.478	0.163	-0.160
-147.574	35.860	-0.265	-0.228
-146.560	-200.000	0.008	0.115
-145.545	-80.159	0.352	0.115
-144.531	7.759	-0.098	-0.072
-143.516	382.876	-0.093	0.188
-142.502	12.739	0.025	0.019
-141.487	-200.000	-0.006	-0.253
-140.472	-152.508	0.402	0.028
-139.458	-88.944	0.450	0.131
-138.443	19.779	0.245	-0.193
-137.429	-132.172	-0.193	-0.025
-136.414	671.054	-0.165	0.417
-135.399	214.261	-0.097	-0.150
-134.385	-200.000	-0.026	-0.160
-133.370	800.000	0.074	0.292
-132.356	-200.000	-0.032	-0.227
-131.341	616.289	0.159	-0.390
-130.326	-3.287	-0.190	-0.129
-129.312	201.203	0.134	-0.201
-128.297	41.231	0.102	-0.090
-127.283	9.702	-0.256	0.190
-126.268	78.877	0.173	-0.181
-125.253	-106.835	0.324	0.070
-124.239	288.115	-0.063	-0.111
-123.224	-10.312	-0.128	0.083
-122.210	-67.916	0.206	0.079
-121.195	252.297	0.159	0.265
-120.180	-42.630	-0.069	0.034
-119.166	-34.900	-0.207	0.111
-118.151	173.766	0.194	-0.274
-117.137	101.885	-0.091	0.104
-116.122	243.802	0.029	-0.047
-115.107	-200.000	-0.034	0.165
-114.093	800.000	0.035	-0.142
-113.078	89.325	0.049	-0.054
-112.064	-37.480	-0.201	-0.105
-111.049	13.432	-0.082	-0.062
-110.034	661.335	-0.133	0.335
-109.020	-15.520	0.090	0.056
-108.005	-16.835	0.211	-0.130
-106.991	210.510	0.051	-0.078
-105.976	-200.000	-0.012	-0.091
-104.962	-119.321	-0.271	-0.046
-103.947	122.593	0.041	0.050
-102.932	199.611	0.115	-0.173
-101.918	-56.288	-0.144	0.062
-100.903	193.390	0.120	-0.178
-99.889	-67.188	-0.106	-0.041
-98.874	73.386	0.098	-0.100
-97.859	-67.878	0.214	-0.082
-96.845	-192.776	0.045	0.000
-95.830	191.829	0.075	-0.110
-94.816	-200.000	-0.014	-0.448
-93.801	12.179	0.308	0.231
-92.786	-25.849	0.285	-0.164
-91.772	23.088	-0.328	0.263
-90.757	-92.413	0.200	0.055
-89.743	-200.000	0.017	-0.263
-88.728	351.736	0.044	0.084
-87.713	520.853	-0.073	0.167
-86.699	-200.000	-0.023	0.202
-85.684	800.000	0.044	-0.143
-84.670	177.456	-0.071	0.102
-83.655	84.368	0.069	0.074
-82.640	111.831	0.254	-0.299
-81.626	621.546	-0.093	0.229
-80.611	-9.700	0.177	-0.115
-79.597	-87.940	0.183	0.054
-78.582	800.000	0.043	0.180
-77.567	514.737	0.166	-0.379
-76.553	139.582	-0.070	-0.090
-75.538	-96.969	0.384	-0.098
-74.524	226.385	-0.054	-0.086
-73.509	121.129	-0.077	0.094
-72.494	-121.212	-0.277	0.045
-71.480	-200.000	-0.029	-0.142
-70.465	800.000	0.052	0.142
-69.451	484.203	-0.098	0.217
-68.436	599.857	0.053	0.129
-67.422	-75.146	0.249	0.087
-66.407	-24.245	-0.187	0.109
-65.392	-133.913	0.145	0.018
-64.378	-175.118	-0.086	0.002
-63.363	283.019	0.117	-0.204
-62.349	800.000	-0.017	-0.074
-61.334	103.625	-1.083	-1.241
-60.319	41.192	0.922	0.813
-59.305	800.000	-0.419	-1.372
-58.290	800.000	0.477	1.287
-57.276	566.442	0.598	1.415
-56.261	-200.000	135.921	627.512
-55.246	344.845	1630.723	3121.705
-54.232	138.164	2765.589	3536.349
-53.217	81.043	2151.478	2264.592
-52.203	29.559	1588.007	1317.067
-51.188	22.055	1340.983	1066.753
-50.173	20.113	1307.040	1028.201
-49.159	46.802	1381.188	1251.191
-48.144	41.981	1390.637	1230.165
-47.130	22.065	1338.229	1064.454
-46.115	19.243	1319.132	1032.338
-45.100	18.946	1314.887	1027.201
-44.086	18.941	1311.953	1024.837
-43.071	18.886	1309.918	1022.878
-42.057	18.916	1307.497	1021.128
-41.042	18.910	1305.694	1019.646
-40.027	18.813	1304.862	1018.380
-39.013	18.927	1302.520	1017.185
-37.998	18.920	1300.886	1015.829
-36.984	18.912	1299.356	1014.543
-35.969	19.002	1297.354	1013.469
-34.954	19.055	1295.380	1012.204
-33.940	19.082	1294.413	1011.566
-32.925	19.060	1293.202	1010.448
-31.911	19.059	1291.776	1009.290
-30.896	19.120	1289.841	1008.092
-29.881	19.135	1288.520	1007.108
-28.867	19.107	1287.078	1005.778
-27.852	19.132	1286.038	1005.069
-26.838	19.107	1284.481	1003.670
-25.823	19.078	1283.385	1002.604
-24.809	19.100	1282.038	1001.637
-23.794	19.100	1280.441	1000.352
-22.779	19.124	1279.086	999.396
-21.765	19.152	1277.969	998.642
-20.750	19.086	1276.339	996.946
-19.736	18.941	1275.522	995.430
-18.721	18.899	1274.555	994.393
-17.706	18.972	1272.954	993.526
-16.692	18.990	1271.861	992.736
-15.677	18.914	1270.920	991.525
-14.663	18.954	1269.550	990.646
-13.648	18.888	1268.756	989.609
-12.633	18.823	1267.823	988.465
-11.619	18.956	1267.013	988.561
-10.604	18.999	1265.841	987.858
-9.590	18.847	1265.471	986.653
-8.575	18.929	1264.214	986.107
-7.560	18.967	1263.486	985.715
-6.546	18.904	1262.579	984.607
-5.531	18.979	1261.361	984.049
-4.517	18.868	1260.502	982.703
-3.502	18.972	1260.000	982.867
-2.487	18.910	1258.697	981.462
-1.473	18.869	1254.521	977.930
-0.458	17.288	1239.249	957.092
0.556	12.909	1224.075	920.339
1.571	9.573	1232.813	908.050
2.586	9.003	1247.517	915.546
3.600	9.230	1234.902	907.489
4.615	6.873	1163.808	842.611
5.629	2.768	1095.782	772.652
6.644	0.705	1080.897	751.830
7.659	0.462	1079.179	749.362
8.673	0.592	1078.003	749.127
9.688	0.502	1076.598	747.635
10.702	0.808	1074.065	747.323
11.717	3.502	1076.436	762.232
12.731	9.259	1084.781	796.678
13.746	15.040	1092.031	830.703
14.761	17.044	1094.535	842.489
15.775	16.507	1092.826	838.439
16.790	15.435	1090.875	831.561
17.804	14.726	1089.612	827.013
18.819	14.451	1088.497	824.734
19.834	14.269	1087.533	823.029
20.848	14.083	1086.860	821.532
21.863	13.766	1085.639	818.970
22.877	13.708	1084.634	817.855
23.892	13.616	1084.217	817.014
24.907	13.541	1083.749	816.218
25.921	13.601	1082.657	815.617
26.936	13.638	1082.211	815.392
27.950	13.734	1080.855	814.771
28.965	13.810	1079.342	813.933
29.980	13.755	1078.370	812.856
30.994	13.897	1076.957	812.413
32.009	13.730	1077.005	811.560
33.023	13.789	1075.528	810.663
34.038	13.801	1074.418	809.816
35.053	13.699	1073.571	808.608
36.067	13.707	1072.534	807.795
37.082	13.820	1071.719	807.660
38.096	13.740	1071.138	806.761
39.111	13.794	1070.149	806.205
40.126	13.649	1068.725	804.359
41.140	13.802	1067.537	804.133
42.155	13.652	1066.772	802.762
43.169	13.647	1065.354	801.597
44.184	13.585	1064.396	800.507
45.199	13.533	1063.427	799.457
46.213	13.479	1062.879	798.712
47.228	13.699	1061.303	798.520
48.242	13.740	1059.912	797.597
49.257	13.734	1058.718	796.602
50.271	13.661	1058.645	796.125
51.286	13.753	1057.479	795.617
52.301	13.877	1056.250	795.219
53.315	13.681	1055.719	793.811
54.330	13.632	1054.797	792.809
55.344	13.736	1053.288	792.103
56.359	13.673	1052.700	791.292
57.374	13.617	1051.902	790.353
58.388	13.539	1051.296	789.458
59.403	13.515	1050.303	788.525
60.417	13.476	1049.391	787.586
61.432	13.481	1048.717	787.035
62.447	13.399	1048.404	786.340
63.461	13.535	1047.139	785.967
64.476	13.476	1046.149	784.874
65.490	13.445	1045.419	784.111
66.505	13.722	1044.299	784.514
67.520	13.591	1044.156	783.714
68.534	13.550	1043.632	783.061
69.549	13.606	1042.246	782.214
70.563	13.500	1041.444	781.043
71.578	13.573	1040.707	780.768
72.593	13.643	1039.881	780.408
73.607	13.571	1039.434	779.663
74.622	13.508	1038.945	778.929
75.636	13.509	1037.758	777.978
76.651	13.535	1037.089	777.529
77.666	13.446	1036.725	776.770
78.680	13.541	1035.686	776.367
79.695	13.404	1035.089	775.211
80.709	13.461	1034.672	775.096
81.724	13.592	1033.881	775.047
82.739	13.648	1032.910	774.513
83.753	13.682	1032.319	774.160
84.768	13.749	1030.955	773.381
85.782	13.679	1030.394	772.567
86.797	13.676	1029.559	771.855
87.812	13.614	1028.603	770.781
88.826	13.704	1027.397	770.232
89.841	13.651	1026.602	769.319
90.855	13.690	1025.780	768.816
91.870	13.712	1025.068	768.318
92.884	13.856	1024.048	768.153
93.899	13.793	1023.140	767.112
94.914	13.743	1022.663	766.453
95.928	13.692	1021.867	765.552
96.943	13.820	1020.541	765.083
97.957	13.740	1019.872	764.143
98.972	13.849	1018.918	763.863
99.987	13.863	1018.103	763.251
101.001	13.835	1016.874	762.132
102.016	13.664	1016.549	761.037
103.030	13.726	1015.510	760.477
104.045	13.862	1014.105	759.979
105.060	13.837	1013.379	759.254
106.074	13.673	1012.886	758.067
107.089	13.683	1011.930	757.332
108.103	13.669	1010.965	756.478
109.118	13.680	1010.276	755.946
110.133	13.691	1009.224	755.142
111.147	13.629	1008.399	754.174
112.162	13.684	1007.625	753.778
113.176	13.685	1006.581	752.937
114.191	13.767	1005.827	752.676
115.206	13.791	1005.127	752.195
116.220	13.635	1004.224	750.748
117.235	13.703	1003.313	750.307
118.249	13.784	1002.393	749.919
119.264	13.766	1001.710	749.262
120.279	13.648	1001.467	748.481
121.293	13.776	1000.063	747.941
122.308	13.852	998.932	747.371
123.322	13.673	998.186	745.941
124.337	13.707	997.280	745.353
125.352	13.814	995.870	744.711
126.366	13.624	994.771	742.974
127.381	13.584	994.146	742.259
128.395	13.616	992.939	741.437
129.410	13.589	992.035	740.575
130.424	13.808	991.011	740.724
131.439	13.724	990.899	740.200
132.454	13.779	990.199	739.859
133.468	13.794	988.797	738.809
134.483	13.764	988.394	738.310
135.497	13.738	987.237	737.267
136.512	13.799	986.634	737.022
137.527	13.802	985.592	736.189
138.541	13.761	985.272	735.703
139.556	13.848	984.409	735.380
140.570	13.774	983.588	734.376
141.585	13.898	982.486	734.036
142.600	13.934	981.424	733.337
143.614	13.856	980.750	732.423
144.629	13.941	979.961	732.144
145.643	14.032	978.998	731.758
146.658	13.993	978.136	730.878
147.673	13.841	977.237	729.476
148.687	13.835	976.766	729.032
149.702	13.841	975.715	728.210
150.716	13.954	974.959	728.078
151.731	13.896	974.206	727.194
152.746	13.972	972.839	726.444
153.760	13.994	972.838	726.474
154.775	14.000	972.160	725.932
155.789	13.979	971.605	725.361
156.804	14.008	970.802	724.822
157.819	14.059	970.111	724.464
158.833	14.122	969.646	724.329
159.848	14.184	968.669	723.804
160.862	14.063	967.701	722.491
161.877	13.989	967.012	721.592
162.892	13.942	966.120	720.658
163.906	14.097	964.960	720.398
164.921	14.262	963.931	720.281
165.935	14.171	963.284	719.342
166.950	14.144	962.184	718.339
167.964	14.066	961.642	717.533
168.979	14.121	960.254	716.671
169.994	14.336	958.947	716.559
171.008	14.101	958.931	715.471
172.023	14.099	958.601	715.154
173.037	14.173	957.727	714.755
174.052	14.200	956.795	714.114
175.067	14.182	956.000	713.381
176.081	14.083	955.805	712.749
177.096	14.108	955.198	712.340
178.110	14.086	954.716	711.824
179.125	14.112	953.852	711.225
180.140	14.196	953.399	711.186
181.154	14.164	952.812	710.546
182.169	14.348	951.987	710.655
183.183	14.328	951.578	710.200
184.198	14.364	951.016	709.873
185.213	14.234	950.275	708.703
186.227	14.385	949.388	708.620
187.242	14.437	948.569	708.166
188.256	14.447	948.163	707.842
189.271	14.474	947.177	707.160
190.286	14.253	946.600	705.731
191.300	14.359	945.753	705.483
192.315	14.253	945.128	704.505
193.329	14.367	944.704	704.611
194.344	14.242	944.240	703.676
195.359	14.310	943.462	703.320
196.373	14.436	942.464	703.047
197.388	14.394	942.324	702.701
198.402	14.512	941.554	702.563
199.417	14.549	940.919	702.182
200.432	14.519	940.408	701.611
201.446	14.420	940.272	701.032
202.461	14.587	939.403	701.021
203.475	14.692	938.574	700.784
204.490	14.683	937.853	700.144
205.504	14.598	937.208	699.247
206.519	14.615	936.221	698.518
207.534	14.539	936.014	697.985
208.548	14.691	935.044	697.835
209.563	14.598	934.203	696.758
210.577	14.679	933.773	696.714
211.592	14.614	933.481	696.164
212.607	14.723	931.933	695.400
213.621	14.703	931.638	695.037
214.636	14.709	930.853	694.415
215.650	14.878	929.798	694.268
216.665	14.802	929.087	693.358
217.680	14.761	928.456	692.658
218.694	14.902	927.757	692.657
219.709	14.741	927.126	691.459
220.723	14.882	926.710	691.673
221.738	14.840	926.050	690.943
222.753	14.952	925.092	690.630
223.767	14.937	924.641	690.170
224.782	14.921	924.197	689.713
225.796	14.898	923.759	689.229
226.811	14.923	922.741	688.510
227.826	15.005	921.908	688.167
228.840	14.936	921.559	687.564
229.855	14.996	920.519	686.972
230.869	14.911	920.055	686.215
231.884	14.909	919.253	685.549
232.899	14.826	918.346	684.472
233.913	14.911	918.113	684.583
234.928	14.839	917.214	683.561
235.942	14.945	916.539	683.430
236.957	15.119	915.917	683.614
237.972	15.065	915.045	682.684
238.986	14.970	914.609	681.912
240.001	15.042	914.323	681.929
241.015	14.933	913.532	680.835
242.030	15.131	912.787	681.026
243.045	15.264	912.281	681.128
244.059	15.083	911.671	679.877
245.074	15.148	910.827	679.453
246.088	14.987	910.628	678.591
247.103	15.074	909.754	678.231
248.117	15.132	909.197	677.991
249.132	15.206	908.427	677.659
250.147	15.238	908.109	677.489
251.161	15.264	907.497	677.076
252.176	15.269	906.641	676.400
253.190	15.323	905.938	676.031
254.205	15.340	905.360	675.609
255.220	15.314	904.708	674.958
256.234	15.442	904.057	674.927
257.249	15.413	903.211	674.121
258.263	15.483	902.349	673.697
259.278	15.524	901.440	673.126
260.293	15.562	901.152	673.000
261.307	15.616	900.440	672.625
262.322	15.442	899.987	671.535
263.336	15.692	899.048	671.773
264.351	15.654	898.386	671.064
265.366	15.644	897.790	670.520
266.380	15.617	897.117	669.853
267.395	15.594	896.580	669.300
268.409	15.569	895.827	668.580
269.424	15.702	894.849	668.319
270.439	15.699	894.287	667.829
271.453	15.770	893.300	667.313
272.468	15.634	893.244	666.673
273.482	15.644	892.562	666.146
274.497	15.716	891.735	665.755
275.512	15.704	891.532	665.494
276.526	15.613	890.882	664.592
277.541	15.740	890.293	664.596
278.555	15.897	890.081	664.998
279.570	15.784	888.756	663.503
280.585	15.929	888.005	663.457
281.599	15.754	887.435	662.284
282.614	15.865	886.638	662.067
283.628	15.908	886.048	661.734
284.643	15.948	885.424	661.366
285.657	15.891	884.797	660.617
286.672	15.878	884.537	660.314
287.687	15.988	883.563	659.958
288.701	15.921	882.896	659.141
289.716	15.906	882.620	658.817
290.730	16.036	881.799	658.656
291.745	16.044	880.833	657.908
292.760	15.988	880.924	657.698
293.774	16.162	879.801	657.480
294.789	16.118	879.233	656.827
295.803	16.030	878.461	655.848
296.818	16.121	877.930	655.748
297.833	15.994	877.252	654.691
298.847	16.107	876.358	654.401
299.862	16.051	876.508	654.238
300.876	16.168	875.714	654.043
301.891	16.185	874.911	653.452
302.906	16.247	874.187	653.091
303.920	16.193	873.899	652.611
304.935	16.273	873.358	652.459
305.949	16.314	872.490	651.911
306.964	16.218	872.173	651.246
307.979	16.276	871.770	651.109
308.993	16.348	870.879	650.665
310.008	16.393	870.485	650.484
311.022	16.217	869.608	649.094
312.037	16.407	868.773	649.145
313.052	16.225	868.493	648.178
314.066	16.255	868.013	647.880
315.081	16.405	867.543	648.046
316.095	16.287	866.609	646.839
317.110	16.324	866.172	646.596
318.125	16.271	865.753	646.024
319.139	16.328	865.464	645.969
320.154	16.407	864.873	645.774
321.168	16.371	864.163	645.047
322.183	16.496	863.591	645.040
323.197	16.470	863.222	644.610
324.212	16.373	862.931	643.965
325.227	16.417	861.987	643.374
326.241	16.464	861.356	643.021
327.256	16.522	861.046	642.957
328.270	16.385	860.218	641.758
329.285	16.507	859.518	641.644
330.300	16.471	858.947	641.022
331.314	16.428	858.685	640.608
332.329	16.467	858.459	640.530
333.343	16.567	857.931	640.458
334.358	16.584	857.492	640.140
335.373	16.549	857.148	639.691
336.387	16.686	856.371	639.576
337.402	16.601	856.464	639.266
338.416	16.703	855.731	639.048
339.431	16.705	855.273	638.657
340.446	16.887	854.846	638.968
341.460	16.831	854.272	638.271
342.475	16.760	854.148	637.855
343.489	16.863	853.548	637.736
344.504	16.921	853.300	637.715
345.519	16.860	852.754	637.020
346.533	16.800	852.562	636.596
347.548	16.882	851.842	636.308
348.562	16.834	851.153	635.558
349.577	16.898	850.376	635.160
350.592	16.836	849.976	634.575
351.606	16.909	849.097	634.134
352.621	16.818	848.622	633.383
353.635	16.893	847.700	632.921
354.650	16.867	847.300	632.468
355.665	16.975	846.976	632.570
356.679	16.984	846.045	631.854
357.694	17.005	845.106	631.176
358.708	16.882	845.203	630.735
359.723	16.904	844.239	630.040
360.738	17.050	843.469	629.954
361.752	16.901	843.071	629.046
362.767	17.005	842.447	628.911
363.781	17.180	841.667	628.921
364.796	17.127	841.562	628.591
365.810	17.152	841.189	628.348
366.825	17.213	840.773	628.208
367.840	17.030	840.214	627.060
368.854	17.108	839.708	626.914
369.869	17.314	838.985	627.078
370.883	17.272	838.778	626.714
371.898	17.291	838.371	626.424
372.913	17.238	837.948	625.858
373.927	17.329	837.338	625.682
374.942	17.276	836.909	625.111
375.956	17.331	836.841	625.204
376.971	17.343	836.026	624.585
377.986	17.487	835.371	624.569
379.000	17.459	835.048	624.169
380.015	17.296	835.023	623.500
381.029	17.621	833.627	623.592
382.044	17.527	833.226	622.891
383.059	17.575	832.641	622.577
384.073	17.395	832.415	621.692
385.088	17.406	832.008	621.374
386.102	17.553	830.977	621.086
387.117	17.453	830.376	620.216
388.132	17.489	830.155	620.127
389.146	17.467	829.656	619.620
390.161	17.577	829.105	619.555
391.175	17.696	828.283	619.316
392.190	17.693	827.790	618.883
393.205	17.431	827.852	617.925
394.219	17.622	827.137	618.026
395.234	17.587	826.983	617.732
396.248	17.470	826.557	616.933
397.263	17.526	826.037	616.694
398.278	17.537	825.882	616.565
399.292	17.417	825.349	615.677
400.307	17.622	824.547	615.767
401.321	17.548	824.077	615.094
402.336	17.576	823.820	614.946
403.350	17.601	822.921	614.312
404.365	17.736	822.706	614.585
405.380	17.822	822.240	614.490
406.394	17.749	821.844	613.876
407.409	17.769	821.166	613.388
408.423	17.734	821.209	613.243
409.438	17.784	820.662	612.959
410.453	17.941	820.187	613.114
411.467	17.887	819.414	612.289
412.482	17.974	819.322	612.476
413.496	17.967	818.804	612.008
414.511	18.051	818.449	611.992
415.526	18.130	818.209	612.042
416.540	18.001	817.478	610.979
417.555	18.061	817.194	610.927
418.569	18.107	816.652	610.632
419.584	18.054	816.227	610.070
420.599	18.075	815.841	609.802
421.613	116.182	1301.531	1494.409
422.628	100.702	1372.230	1494.462
