DTS Sentinel unit serial number:	SN413079Multiplexer serial number:	ORYXHardware model number:	OX4-SRSoftware version number:	ORYX F/W v4.00 Oryx Data Collector v3.7.2.0data status	okinstallation	princeton_trtdifferential loss correction	single-endedforward channel	channel 1reverse channel	N/Adate	2019/09/12time	19:02:34forward acquisition time	15.00reverse acquisition time	0.00gamma	496.2192k internal	0.2320k external	0.2320temperature offset calibration	1.0106default loss term (dB/km)	0.3790temperature slope calibration	1.0000multiplexer offset coefficient	1.0000multiplexer slope coefficient	1.0000fibre end	0.00T internal ref (°C)	32.75T ext. ref 1 (°C)	3.03T ext. ref 2 (°C)	27.27length (m)	temperature (°C)	Stokes	anti-Stokes-747.200	80.153	-0.526	-0.572
-746.185	2.847	-0.310	0.228
-745.171	196.581	0.263	-0.405
-744.156	88.858	-0.265	-0.298
-743.142	-200.000	0.008	-0.153
-742.127	-145.139	0.138	-0.013
-741.112	-59.930	-0.805	0.348
-740.098	-200.000	-0.029	-0.352
-739.083	-200.000	-0.235	0.001
-738.069	-74.934	-0.214	0.078
-737.054	149.555	-0.872	-1.194
-736.039	186.894	-0.384	0.579
-735.025	-87.762	0.888	0.271
-734.010	45.269	-0.635	-0.592
-732.996	467.527	-0.117	-0.266
-731.981	-102.238	-0.446	0.108
-730.966	-162.323	0.373	-0.019
-729.952	-200.000	0.024	-0.405
-728.937	65.442	-0.818	0.836
-727.923	-50.093	0.135	0.065
-726.908	-48.174	-0.620	-0.303
-725.894	-200.000	-0.017	0.714
-724.879	-200.000	0.035	0.304
-723.864	-81.055	0.179	0.060
-722.850	142.437	0.435	0.584
-721.835	800.000	0.317	0.980
-720.821	-74.394	-0.581	0.212
-719.806	-93.110	1.019	0.286
-718.791	-3.607	-0.667	0.468
-717.777	-88.890	0.124	-0.037
-716.762	102.412	-0.407	0.481
-715.748	235.147	-0.387	-0.645
-714.733	123.828	-0.065	-0.083
-713.718	715.376	0.137	0.368
-712.704	146.690	-0.459	-0.623
-711.689	60.610	0.031	-0.031
-710.675	89.528	0.509	-0.573
-709.660	-81.051	-0.313	-0.105
-708.645	-7.441	-0.299	-0.205
-707.631	23.731	0.265	0.220
-706.616	-92.123	0.901	-0.257
-705.602	-76.880	-0.633	-0.223
-704.587	-200.000	-0.040	0.405
-703.572	11.286	-0.284	-0.220
-702.558	-58.508	-0.537	-0.235
-701.543	359.697	0.266	0.538
-700.529	-200.000	-0.138	1.305
-699.514	-123.374	-0.308	-0.050
-698.499	677.755	-0.245	-0.642
-697.485	-166.669	0.929	0.039
-696.470	321.666	-0.060	-0.116
-695.456	-200.000	-0.133	-0.940
-694.441	-191.625	0.117	0.001
-693.426	250.345	-0.255	-0.437
-692.412	755.255	-0.218	-0.596
-691.397	-122.732	-0.089	0.015
-690.383	-49.801	-0.216	-0.104
-689.368	-200.000	0.033	-0.365
-688.354	-98.820	0.374	-0.096
-687.339	-130.195	-0.232	-0.032
-686.324	-116.678	-0.236	0.044
-685.310	-29.373	0.939	0.542
-684.295	234.255	-0.340	0.565
-683.281	697.303	-0.342	0.906
-682.266	-28.502	-0.265	0.154
-681.251	-2.990	-0.320	-0.225
-680.237	-70.908	-0.744	-0.283
-679.222	2.939	0.344	0.252
-678.208	25.224	-0.482	0.404
-677.193	449.513	0.037	0.083
-676.178	-15.984	-0.350	0.225
-675.164	-109.421	-0.172	0.037
-674.149	222.563	0.397	-0.645
-673.135	247.716	0.483	0.822
-672.120	34.799	0.593	-0.523
-671.105	25.603	0.222	0.187
-670.091	-101.018	0.553	0.137
-669.076	635.039	-0.196	0.502
-668.062	-22.859	-0.754	-0.459
-667.047	199.321	-0.258	0.399
-666.032	113.775	0.219	-0.268
-665.018	214.980	-0.386	0.617
-664.003	412.066	-0.206	0.440
-662.989	-122.650	-0.512	-0.084
-661.974	82.189	-0.285	0.312
-660.959	-59.814	-0.936	0.404
-659.945	-190.538	-0.466	-0.005
-658.930	-164.490	0.816	0.037
-657.916	-114.947	0.699	-0.134
-656.901	-200.000	-0.064	0.535
-655.886	296.216	-0.364	-0.673
-654.872	-200.000	-0.051	0.695
-653.857	-162.932	-0.553	0.027
-652.843	83.645	-0.186	0.204
-651.828	-58.174	0.240	-0.105
-650.814	-32.669	0.758	0.425
-649.799	-40.911	-0.312	-0.162
-648.784	-200.000	-0.035	0.272
-647.770	18.202	-0.597	0.480
-646.755	800.000	-0.343	1.027
-645.741	-200.000	0.081	-0.000
-644.726	193.229	-0.470	0.715
-643.711	442.701	0.369	0.814
-642.697	-200.000	-0.044	-0.432
-641.682	-110.754	0.152	0.032
-640.668	234.523	-0.470	0.781
-639.653	800.000	0.107	-0.332
-638.638	29.348	-0.194	0.166
-637.624	316.366	-0.223	0.425
-636.609	800.000	0.066	-0.227
-635.595	67.590	-0.340	-0.349
-634.580	-15.625	0.448	-0.288
-633.565	-52.680	-0.568	-0.264
-632.551	-80.361	-0.759	0.255
-631.536	2.812	0.229	0.167
-630.522	-200.000	-0.138	0.841
-629.507	512.327	-0.180	0.421
-628.492	-200.000	0.049	-0.393
-627.478	80.822	-0.358	0.388
-626.463	-65.847	-0.640	-0.258
-625.449	328.601	-0.384	0.743
-624.434	-166.859	-0.611	0.025
-623.419	-110.246	0.366	-0.077
-622.405	155.931	0.682	-0.946
-621.390	162.145	0.089	0.126
-620.376	-159.013	0.504	0.029
-619.361	-84.947	0.534	0.168
-618.346	-11.684	-0.991	-0.655
-617.332	28.832	0.705	0.601
-616.317	114.155	0.135	-0.166
-615.303	800.000	-0.190	-0.589
-614.288	21.422	0.513	0.420
-613.273	-101.795	0.605	-0.147
-612.259	-18.222	-0.228	0.143
-611.244	-167.920	0.417	-0.016
-610.230	27.300	0.381	0.322
-609.215	-200.000	0.116	-0.678
-608.201	800.000	-0.240	-0.690
-607.186	800.000	-0.246	-0.930
-606.171	138.467	-0.206	0.272
-605.157	-200.000	0.086	-0.640
-604.142	797.818	0.245	-0.679
-603.128	-41.444	-0.479	0.248
-602.113	-200.000	-0.030	-0.502
-601.098	-97.648	-0.551	0.144
-600.084	31.169	-0.381	0.328
-599.069	-171.919	0.223	-0.007
-598.055	-110.907	0.832	-0.172
-597.040	56.589	0.321	0.314
-596.025	-200.000	0.080	0.570
-595.011	-191.312	0.496	0.005
-593.996	800.000	-0.305	-1.148
-592.982	74.062	0.160	-0.169
-591.967	124.369	-0.553	0.699
-590.952	244.314	0.139	-0.235
-589.938	-128.596	0.986	-0.140
-588.923	90.829	0.364	-0.410
-587.909	800.000	0.096	0.390
-586.894	-42.437	-1.382	0.708
-585.879	-78.816	0.471	0.161
-584.865	800.000	0.197	0.576
-583.850	800.000	-0.251	-0.783
-582.836	-140.723	0.366	0.038
-581.821	173.462	-0.658	0.954
-580.806	44.040	1.153	-1.062
-579.792	-97.483	-0.255	0.067
-578.777	225.145	-0.088	-0.143
-577.763	-140.972	-0.395	0.041
-576.748	-200.000	-0.118	0.535
-575.733	-200.000	-0.050	0.927
-574.719	108.562	0.248	0.298
-573.704	-62.173	-0.609	0.255
-572.690	-200.000	0.015	-0.167
-571.675	79.804	0.689	0.743
-570.661	-200.000	0.089	-0.752
-569.646	-46.117	0.257	-0.127
-568.631	-121.037	0.772	0.130
-567.617	-200.000	0.036	0.190
-566.602	-36.094	0.750	0.407
-565.588	-85.934	0.757	-0.235
-564.573	251.379	0.244	-0.416
-563.558	90.179	-0.260	0.291
-562.544	800.000	-0.126	0.504
-561.529	-30.161	0.551	-0.314
-560.515	800.000	0.180	0.716
-559.500	-135.348	-0.638	0.077
-558.485	30.848	0.169	-0.146
-557.471	-118.573	0.976	-0.173
-556.456	409.238	0.280	0.596
-555.442	-158.858	0.158	-0.009
-554.427	-113.708	0.392	-0.077
-553.412	-83.589	1.376	-0.442
-552.398	192.113	0.551	-0.834
-551.383	135.536	-0.281	-0.367
-550.369	-121.504	-0.375	-0.063
-549.354	-200.000	0.134	0.661
-548.339	800.000	0.192	0.818
-547.325	58.039	0.193	-0.190
-546.310	-66.291	-0.360	0.144
-545.296	-74.346	0.428	-0.155
-544.281	-19.991	-0.268	0.166
-543.266	-17.247	0.310	-0.196
-542.252	207.862	-0.381	-0.598
-541.237	-34.579	-0.769	0.422
-540.223	168.636	0.217	0.310
-539.208	80.373	0.048	-0.051
-538.193	-200.000	-0.004	-0.882
-537.179	139.886	-0.584	-0.772
-536.164	232.842	0.293	0.483
-535.150	-73.726	-0.350	0.128
-534.135	164.878	-0.103	-0.146
-533.121	-89.239	0.674	0.199
-532.106	800.000	0.118	0.485
-531.091	-88.994	-0.400	0.119
-530.077	-80.714	-0.867	0.289
-529.062	1.919	-0.024	0.017
-528.048	48.700	-0.437	0.411
-527.033	-39.544	0.420	0.220
-526.018	-104.740	0.390	0.090
-525.004	-200.000	0.047	-0.263
-523.989	-200.000	-0.057	-0.312
-522.975	65.156	-0.682	-0.691
-521.960	-200.000	0.030	-0.302
-520.945	134.724	-0.350	-0.455
-519.931	93.038	-0.220	-0.249
-518.916	-200.000	-0.060	-0.809
-517.902	560.570	0.092	0.224
-516.887	-200.000	0.024	0.247
-515.872	62.882	0.307	0.308
-514.858	-102.387	0.185	0.044
-513.843	-161.001	0.368	-0.019
-512.829	-125.712	0.178	-0.027
-511.814	800.000	-0.143	-0.623
-510.799	-12.246	0.983	-0.645
-509.785	800.000	-0.067	0.216
-508.770	-22.754	0.712	0.431
-507.756	81.984	0.455	0.494
-506.741	-83.029	0.649	0.210
-505.726	800.000	0.147	0.409
-504.712	172.146	0.213	0.307
-503.697	-85.453	-0.060	0.019
-502.683	800.000	-0.255	-0.928
-501.668	100.568	-0.264	-0.307
-500.653	-4.153	0.067	-0.046
-499.639	312.922	-0.171	0.322
-498.624	97.246	0.209	-0.240
-497.610	-56.411	0.053	0.023
-496.595	-77.699	0.235	0.081
-495.581	800.000	0.206	0.615
-494.566	800.000	-0.079	-0.263
-493.551	39.343	0.435	-0.390
-492.537	221.988	-0.209	0.337
-491.522	356.728	0.508	1.014
-490.508	-143.361	0.432	0.041
-489.493	-6.372	0.379	-0.259
-488.478	58.410	0.340	0.334
-487.464	800.000	-0.209	0.582
-486.449	-18.395	-0.045	0.028
-485.435	-200.000	0.097	-0.610
-484.420	-176.216	0.683	0.018
-483.405	275.318	-0.018	-0.032
-482.391	800.000	-0.068	0.224
-481.376	800.000	0.291	-0.975
-480.362	67.894	0.273	0.279
-479.347	15.077	0.173	0.136
-478.332	-162.572	-0.262	0.013
-477.318	800.000	0.013	-0.054
-476.303	800.000	-0.126	0.454
-475.289	-200.000	0.062	0.322
-474.274	-200.000	0.029	0.950
-473.259	-0.618	0.376	-0.267
-472.245	800.000	-0.059	-0.213
-471.230	-97.333	0.547	0.143
-470.216	492.371	0.073	-0.167
-469.201	-99.279	-0.864	0.218
-468.186	-128.540	-0.675	-0.096
-467.172	-200.000	-0.055	0.569
-466.157	8.524	0.343	-0.258
-465.143	69.310	-0.233	0.240
-464.128	-97.975	-0.482	0.124
-463.113	-34.861	-0.230	-0.125
-462.099	303.974	-0.475	-0.881
-461.084	237.668	0.206	-0.341
-460.070	-68.851	-0.367	0.142
-459.055	-53.937	-0.966	0.440
-458.040	48.395	-0.153	0.143
-457.026	-66.845	0.167	-0.066
-456.011	-115.366	-0.443	0.084
-454.997	-90.215	-0.786	0.229
-453.982	-151.920	0.065	0.005
-452.968	56.846	0.481	0.469
-451.953	100.621	-0.372	0.432
-450.938	55.777	-0.296	-0.287
-449.924	800.000	0.167	0.577
-448.909	-200.000	0.068	1.063
-447.895	-169.545	-0.541	0.020
-446.880	27.731	-0.242	-0.204
-445.865	-65.804	0.705	0.282
-444.851	252.747	-0.126	0.216
-443.836	-95.116	0.651	-0.176
-442.822	800.000	-0.192	-0.625
-441.807	48.462	0.366	-0.342
-440.792	-88.927	-0.718	0.213
-439.778	-116.055	0.687	-0.128
-438.763	-9.891	-0.446	-0.296
-437.749	218.120	0.075	-0.119
-436.734	12.782	-0.752	-0.580
-435.719	22.676	0.379	0.310
-434.705	-200.000	-0.208	-1.105
-433.690	-200.000	-0.108	-0.518
-432.676	-29.714	-0.283	-0.162
-431.661	-200.000	-0.028	-0.235
-430.646	25.049	0.795	-0.659
-429.632	-92.337	-0.112	0.032
-428.617	-17.677	0.159	-0.100
-427.603	74.531	-0.251	-0.264
-426.588	452.997	-0.214	0.474
-425.573	-76.476	-0.304	-0.107
-424.559	-1.902	-0.590	-0.414
-423.544	-128.983	0.810	0.113
-422.530	-50.598	-0.387	0.182
-421.515	99.550	-0.159	-0.184
-420.500	73.614	0.229	0.239
-419.486	-52.081	-0.680	0.315
-418.471	170.232	-0.216	0.308
-417.457	-200.000	0.079	-0.356
-416.442	704.481	0.365	0.961
-415.428	-200.000	-0.088	0.903
-414.413	800.000	-0.261	-0.866
-413.398	-154.942	-0.298	0.020
-412.384	-36.338	-0.599	-0.322
-411.369	-139.994	0.053	-0.006
-410.355	206.481	-0.168	0.260
-409.340	-20.025	0.323	-0.199
-408.325	-200.000	-0.019	-0.240
-407.311	427.004	-0.197	-0.423
-406.296	-56.885	-1.259	-0.555
-405.282	-81.757	0.908	0.297
-404.267	767.144	-0.194	0.527
-403.252	-200.000	-0.037	0.939
-402.238	800.000	0.024	0.086
-401.223	-17.744	-0.616	-0.386
-400.209	-200.000	-0.035	0.393
-399.194	31.305	0.217	-0.186
-398.179	-115.551	-0.163	-0.030
-397.165	-137.330	-0.477	0.054
-396.150	-108.604	-0.150	-0.032
-395.136	-200.000	-0.059	0.310
-394.121	339.923	0.332	-0.646
-393.106	265.700	-0.267	-0.464
-392.092	-200.000	-0.095	-0.705
-391.077	-138.064	-0.423	0.047
-390.063	62.893	-0.782	0.780
-389.048	-63.814	-0.201	0.082
-388.033	-200.000	-0.049	-0.346
-387.019	-68.512	0.343	-0.133
-386.004	800.000	-0.176	-0.489
-384.990	-185.258	0.728	0.011
-383.975	-200.000	-0.045	-0.230
-382.960	-38.853	1.005	0.528
-381.946	34.897	0.706	0.616
-380.931	17.150	-0.635	-0.502
-379.917	110.931	0.409	0.491
-378.902	-9.678	-0.174	-0.116
-377.888	-173.049	-0.608	0.019
-376.873	-37.336	0.138	0.073
-375.858	-114.838	0.816	-0.155
-374.844	-200.000	0.006	0.169
-373.829	-200.000	0.048	-0.314
-372.815	-200.000	0.042	-0.452
-371.800	-102.006	0.173	-0.042
-370.785	-58.055	-0.408	0.177
-369.771	-200.000	-0.001	1.167
-368.756	-167.440	0.606	-0.024
-367.742	336.423	-0.219	0.425
-366.727	29.821	0.241	0.205
-365.712	-44.672	0.697	-0.347
-364.698	77.068	-0.516	0.546
-363.683	3.394	0.520	-0.377
-362.669	-194.357	-0.656	-0.005
-361.654	206.137	0.176	0.273
-360.639	737.771	-0.157	0.419
-359.625	63.131	0.647	0.646
-358.610	-60.574	-0.688	0.291
-357.596	-115.108	0.670	-0.127
-356.581	276.983	0.129	0.229
-355.566	186.969	0.067	0.099
-354.552	-200.000	-0.068	-0.780
-353.537	116.807	0.270	-0.330
-352.523	74.292	0.349	-0.365
-351.508	-103.426	-0.785	-0.184
-350.493	-106.917	0.303	-0.067
-349.479	68.883	0.405	-0.414
-348.464	-200.000	0.032	-0.243
-347.450	-189.323	0.813	-0.010
-346.435	657.025	-0.322	-0.825
-345.420	23.203	-0.365	0.298
-344.406	15.642	0.274	0.215
-343.391	15.704	0.197	-0.154
-342.377	245.278	-0.199	-0.333
-341.362	164.813	-0.269	-0.378
-340.348	-200.000	0.004	-0.414
-339.333	-200.000	-0.033	0.692
-338.318	-200.000	-0.010	0.077
-337.304	800.000	-0.215	-0.643
-336.289	687.156	-0.338	-0.880
-335.275	-200.000	-0.215	0.980
-334.260	42.396	-0.059	-0.054
-333.245	-33.273	-0.088	-0.048
-332.231	560.931	0.009	0.022
-331.216	-112.485	-0.583	-0.116
-330.202	-200.000	0.005	0.657
-329.187	-31.997	0.166	0.093
-328.172	-184.593	0.307	-0.005
-327.158	138.933	0.151	0.197
-326.143	800.000	0.207	-0.864
-325.129	-29.217	0.525	-0.299
-324.114	558.216	-0.218	0.523
-323.099	-63.168	-0.659	-0.270
-322.085	800.000	-0.165	-0.629
-321.070	-41.123	-0.672	0.345
-320.056	800.000	0.143	0.405
-319.041	-139.832	0.692	0.073
-318.026	-86.705	-0.743	0.226
-317.012	212.826	0.366	0.575
-315.997	-49.472	-0.663	-0.314
-314.983	-28.534	0.433	-0.248
-313.968	-200.000	0.157	-0.967
-312.953	-88.635	-0.343	0.102
-311.939	-125.693	0.339	-0.051
-310.924	-83.003	0.517	-0.166
-309.910	-61.200	-0.853	-0.357
-308.895	77.922	0.373	-0.395
-307.880	-200.000	0.049	0.359
-306.866	-200.000	-0.040	0.628
-305.851	258.696	-0.222	-0.380
-304.837	26.705	0.361	-0.300
-303.822	-158.417	-0.458	0.026
-302.807	-106.271	-0.807	0.180
-301.793	363.975	-0.176	0.352
-300.778	-200.000	0.123	-1.025
-299.764	11.677	0.482	0.367
-298.749	-200.000	-0.073	0.571
-297.735	520.110	-0.445	-1.037
-296.720	606.136	-0.362	-0.896
-295.705	-63.490	0.247	-0.101
-294.691	127.472	0.361	0.455
-293.676	-83.374	0.274	-0.087
-292.662	-47.016	-0.284	-0.138
-291.647	800.000	-0.107	0.303
-290.632	-88.552	-0.516	-0.153
-289.618	206.585	0.408	0.631
-288.603	-94.912	-0.481	-0.129
-287.589	-45.787	-0.100	-0.049
-286.574	36.043	0.269	0.235
-285.559	800.000	-0.127	0.440
-284.545	-200.000	0.005	-0.143
-283.530	-200.000	-0.027	0.610
-282.516	177.022	0.235	0.340
-281.501	-32.775	-0.570	0.315
-280.486	-29.861	0.439	0.249
-279.472	-200.000	0.018	0.347
-278.457	-14.171	0.421	-0.269
-277.443	-114.907	0.486	0.092
-276.428	-69.818	0.374	0.142
-275.413	-71.788	0.729	0.270
-274.399	-200.000	0.149	-1.022
-273.384	800.000	-0.025	0.075
-272.370	-79.539	-0.363	0.122
-271.355	-102.412	1.402	0.334
-270.340	128.213	-0.520	0.657
-269.326	495.004	0.252	-0.574
-268.311	-200.000	-0.036	-0.293
-267.297	800.000	-0.400	1.373
-266.282	161.702	-0.299	0.415
-265.267	-39.877	-0.393	0.204
-264.253	42.130	0.216	0.195
-263.238	34.244	-0.338	-0.293
-262.224	-83.359	-0.801	0.255
-261.209	800.000	0.059	0.194
-260.195	424.250	-0.224	0.479
-259.180	800.000	0.069	-0.221
-258.165	343.644	0.351	-0.683
-257.151	-39.335	-0.572	-0.298
-256.136	71.341	0.296	0.304
-255.122	-200.000	-0.026	-0.944
-254.107	-164.011	-0.754	-0.035
-253.092	-79.870	0.541	0.180
-252.078	562.234	-0.315	-0.755
-251.063	800.000	0.238	-0.827
-250.049	152.906	0.068	0.092
-249.034	24.514	-0.365	-0.300
-248.019	-44.593	0.236	-0.117
-247.005	76.286	0.340	0.358
-245.990	363.312	0.292	-0.582
-244.976	678.761	-0.184	0.474
-243.961	-200.000	0.027	-0.181
-242.946	-127.761	-0.813	-0.116
-241.932	49.427	0.356	-0.332
-240.917	215.391	0.415	0.653
-239.903	-200.000	-0.029	-1.029
-238.888	-118.601	-0.950	-0.166
-237.873	455.606	0.433	0.951
-236.859	-80.404	0.233	0.077
-235.844	106.340	-0.210	0.246
-234.830	-49.417	0.572	0.270
-233.815	-47.678	-0.949	0.457
-232.800	-50.243	-0.219	-0.103
-231.786	725.386	0.415	1.097
-230.771	208.287	0.435	0.675
-229.757	-200.000	-0.098	-0.714
-228.742	-200.000	-0.098	-0.801
-227.727	-200.000	0.123	-0.839
-226.713	-63.035	-0.956	-0.391
-225.698	-6.194	-0.251	-0.170
-224.684	111.810	-0.397	0.476
-223.669	800.000	0.076	-0.218
-222.655	-200.000	0.160	-0.751
-221.640	149.808	0.673	0.903
-220.625	1.892	0.786	0.562
-219.611	-135.386	-0.931	0.110
-218.596	229.523	0.338	-0.547
-217.582	-200.000	-0.083	-0.530
-216.567	21.002	0.259	-0.208
-215.552	-5.602	0.539	-0.366
-214.538	168.945	0.346	0.489
-213.523	42.594	0.217	-0.196
-212.509	-25.579	0.305	-0.178
-211.494	54.499	0.295	0.282
-210.479	-26.802	0.272	-0.158
-209.465	121.442	-0.177	0.218
-208.450	-61.178	-0.380	-0.159
-207.436	-173.758	-0.328	0.010
-206.421	172.074	0.342	-0.487
-205.406	261.589	-0.216	-0.371
-204.392	-94.244	-0.553	0.150
-203.377	162.102	-0.276	-0.383
-202.363	53.749	-0.166	0.157
-201.348	-87.207	0.680	-0.205
-200.333	-75.414	-0.954	-0.336
-199.319	730.802	0.213	0.565
-198.304	-104.817	-0.026	0.006
-197.290	-76.690	0.808	-0.280
-196.275	800.000	-0.204	0.674
-195.260	-133.859	-0.766	0.094
-194.246	800.000	-0.105	0.322
-193.231	169.575	0.104	-0.147
-192.217	800.000	-0.087	0.313
-191.202	-80.379	-0.411	-0.136
-190.187	-116.253	0.367	-0.067
-189.173	-162.841	-0.427	0.021
-188.158	-127.945	0.522	-0.074
-187.144	-200.000	-0.096	-0.467
-186.129	-200.000	-0.066	-0.346
-185.114	800.000	-0.152	0.475
-184.100	207.293	0.075	-0.116
-183.085	-200.000	0.008	0.469
-182.071	109.343	-0.595	0.704
-181.056	224.707	0.372	-0.595
-180.042	143.692	0.705	-0.930
-179.027	-200.000	0.130	0.745
-178.012	748.939	-0.165	0.440
-176.998	-59.860	0.525	0.222
-175.983	82.214	0.207	0.222
-174.969	32.100	-0.964	-0.822
-173.954	800.000	0.110	-0.393
-172.939	-20.327	-0.387	0.235
-171.925	416.237	-0.446	-0.940
-170.910	254.674	0.223	-0.378
-169.896	-200.000	-0.038	0.337
-168.881	206.367	-0.279	0.429
-167.866	-15.233	0.323	-0.204
-166.852	331.308	0.225	-0.429
-165.837	-118.980	0.385	0.067
-164.823	-87.140	-0.638	-0.192
-163.808	34.483	0.168	0.145
-162.793	-129.983	-0.065	-0.009
-161.779	-200.000	0.023	0.449
-160.764	161.472	0.626	0.866
-159.750	-200.000	-0.040	0.301
-158.735	-200.000	0.147	-0.780
-157.720	144.813	-0.368	0.487
-156.706	-12.763	-0.835	-0.538
-155.691	-100.434	-0.245	-0.060
-154.677	-93.587	0.355	-0.097
-153.662	534.669	-0.274	-0.642
-152.647	-6.922	0.297	-0.199
-151.633	61.868	-0.244	0.240
-150.618	42.513	0.102	0.092
-149.604	-200.000	-0.029	0.449
-148.589	-23.504	0.373	0.221
-147.574	101.182	0.202	-0.232
-146.560	28.467	-0.706	-0.590
-145.545	251.534	0.433	-0.728
-144.531	-40.019	0.689	0.355
-143.516	-152.828	0.978	-0.069
-142.502	-31.635	0.649	0.360
-141.487	76.070	-0.336	0.351
-140.472	85.635	0.316	-0.343
-139.458	800.000	0.044	0.144
-138.443	167.881	0.152	0.213
-137.429	-45.058	0.171	0.084
-136.414	800.000	-0.139	-0.424
-135.399	426.035	0.679	1.444
-134.385	132.901	-1.062	1.354
-133.370	114.327	-0.508	0.610
-132.356	-137.866	0.595	0.066
-131.341	-169.124	-0.720	0.026
-130.326	210.616	-0.575	-0.892
-129.312	-200.000	-0.008	-0.562
-128.297	-15.213	-1.157	-0.731
-127.283	-19.823	-0.212	0.129
-126.268	47.819	0.535	-0.493
-125.253	-42.347	0.753	-0.379
-124.239	-200.000	-0.046	-0.336
-123.224	-68.111	-0.610	0.235
-122.210	-34.829	-0.293	-0.158
-121.195	224.215	0.181	0.288
-120.180	677.753	-0.163	0.417
-119.166	-165.831	0.860	-0.036
-118.151	-143.291	0.523	-0.050
-117.137	-109.537	-1.008	0.210
-116.122	109.367	0.198	0.234
-115.107	800.000	0.196	0.842
-114.093	-67.113	-0.533	-0.207
-113.078	-36.668	-0.488	-0.259
-112.064	54.434	-0.414	-0.394
-111.049	-14.520	0.603	0.383
-110.034	114.873	-0.315	-0.379
-109.020	-149.331	-0.706	-0.055
-108.005	52.566	0.163	0.154
-106.991	359.292	-0.280	0.552
-105.976	68.780	0.493	0.499
-104.962	247.540	0.315	0.524
-103.947	800.000	0.270	0.854
-102.932	507.335	0.411	0.940
-101.918	68.447	-0.212	-0.214
-100.903	-36.015	-0.308	0.164
-99.889	316.800	-0.118	-0.220
-98.874	800.000	-0.038	-0.154
-97.859	-60.623	1.099	0.460
-96.845	36.692	-0.560	-0.488
-95.830	513.461	0.445	1.023
-94.816	-200.000	-0.038	-0.218
-93.801	120.570	-0.192	0.236
-92.786	-181.368	0.125	0.002
-91.772	-5.185	0.225	0.152
-90.757	92.515	0.373	0.414
-89.743	-16.730	0.341	0.213
-88.728	-79.584	0.213	0.071
-87.713	800.000	0.172	0.678
-86.699	420.396	-0.463	-0.978
-85.684	36.068	-0.257	0.223
-84.670	266.912	0.281	-0.485
-83.655	-200.000	0.051	-0.562
-82.640	-200.000	0.057	-0.538
-81.626	-73.050	0.067	-0.024
-80.611	-200.000	0.003	-0.087
-79.597	-132.427	0.678	0.086
-78.582	-76.102	-0.751	0.261
-77.567	-112.899	0.484	-0.094
-76.553	-99.428	0.709	-0.176
-75.538	-200.000	-0.010	-1.208
-74.524	144.135	-0.518	-0.681
-73.509	-200.000	-0.059	-0.315
-72.494	-200.000	0.121	0.544
-71.480	-104.681	-0.234	0.053
-70.465	-78.425	-0.532	0.180
-69.451	-114.012	-0.274	-0.052
-68.436	35.493	0.326	-0.282
-67.422	136.730	0.147	0.189
-66.407	53.226	0.444	0.419
-65.392	-136.475	-0.162	0.019
-64.378	186.706	-0.286	-0.420
-63.363	288.411	-0.345	0.615
-62.349	89.563	-0.353	-0.387
-61.334	124.695	-1.158	-1.436
-60.319	-108.584	0.778	0.165
-59.305	-200.000	0.026	-1.085
-58.290	800.000	0.179	0.669
-57.276	800.000	0.529	2.074
-56.261	-200.000	95.214	585.431
-55.246	664.596	1358.963	3452.956
-54.232	203.639	2519.472	3837.907
-53.217	119.484	2121.234	2585.108
-52.203	44.695	1593.663	1442.514
-51.188	36.567	1333.096	1158.174
-50.173	33.335	1291.885	1103.525
-49.159	56.479	1342.611	1284.877
-48.144	57.389	1358.861	1305.772
-47.130	36.278	1316.979	1142.279
-46.115	32.960	1299.088	1107.305
-45.100	32.796	1294.403	1102.304
-44.086	32.426	1292.300	1098.315
-43.071	32.425	1289.731	1096.080
-42.057	32.671	1286.987	1095.134
-41.042	32.606	1285.589	1093.524
-40.027	32.649	1284.913	1093.156
-39.013	32.795	1281.865	1091.362
-37.998	32.638	1280.328	1089.107
-36.984	32.729	1279.236	1088.658
-35.969	32.972	1276.168	1087.404
-34.954	32.735	1275.185	1085.157
-33.940	32.650	1274.773	1084.275
-32.925	32.919	1271.986	1083.408
-31.911	32.879	1271.174	1082.440
-30.896	32.777	1270.181	1080.968
-29.881	32.793	1268.317	1079.432
-28.867	32.934	1267.152	1079.202
-27.852	32.967	1265.770	1078.170
-26.838	32.972	1263.261	1076.018
-25.823	33.008	1263.841	1076.679
-24.809	33.022	1261.951	1075.107
-23.794	32.629	1261.046	1072.053
-22.779	32.696	1259.040	1070.687
-21.765	32.838	1257.651	1070.268
-20.750	32.595	1257.130	1068.406
-19.736	32.795	1254.796	1067.510
-18.721	32.752	1253.778	1066.361
-17.706	32.661	1253.729	1065.763
-16.692	32.497	1252.177	1063.476
-15.677	32.800	1250.299	1063.543
-14.663	32.710	1249.324	1062.167
-13.648	32.565	1249.301	1061.285
-12.633	32.645	1246.855	1059.617
-11.619	32.790	1246.760	1060.311
-10.604	32.629	1245.367	1058.178
-9.590	32.676	1244.583	1057.738
-8.575	32.655	1243.999	1057.076
-7.560	32.702	1243.337	1056.739
-6.546	32.756	1242.361	1056.168
-5.531	32.556	1241.710	1054.453
-4.517	32.806	1239.808	1054.194
-3.502	32.590	1240.113	1053.203
-2.487	32.727	1239.753	1053.621
-1.473	32.562	1234.924	1048.556
-0.458	31.168	1219.172	1027.472
0.556	28.574	1201.556	989.559
1.571	24.634	1206.708	972.324
2.586	23.865	1219.715	978.485
3.600	23.120	1210.647	967.052
4.615	17.069	1138.566	878.187
5.629	7.549	1062.699	773.422
6.644	3.264	1043.470	738.833
7.659	2.936	1040.481	735.081
8.673	3.070	1037.922	733.849
9.688	2.850	1037.555	732.474
10.702	3.099	1036.457	732.822
11.717	9.176	1044.251	767.367
12.731	18.819	1057.994	823.863
13.746	23.513	1063.762	850.854
14.761	24.044	1065.193	854.477
15.775	24.172	1064.153	854.177
16.790	23.804	1063.205	851.578
17.804	23.683	1062.354	850.241
18.819	23.995	1061.160	850.706
19.834	24.060	1060.596	850.490
20.848	23.872	1061.439	850.190
21.863	23.895	1060.124	849.172
22.877	24.044	1058.612	848.595
23.892	24.193	1057.619	848.434
24.907	23.746	1057.511	846.142
25.921	23.603	1057.471	845.355
26.936	23.516	1055.247	843.090
27.950	23.512	1053.932	841.946
28.965	23.834	1051.317	841.307
29.980	23.551	1051.131	839.742
30.994	23.867	1049.906	840.185
32.009	23.564	1049.932	838.697
33.023	23.575	1049.212	838.101
34.038	23.699	1047.545	837.280
35.053	23.786	1046.414	836.711
36.067	23.543	1045.233	834.551
37.082	23.773	1044.376	834.872
38.096	23.967	1043.647	835.125
39.111	24.059	1042.978	834.948
40.126	23.942	1041.815	833.397
41.140	23.243	1040.852	829.281
42.155	23.229	1039.612	828.151
43.169	23.160	1039.573	827.727
44.184	23.090	1037.599	825.756
45.199	23.058	1037.073	825.115
46.213	23.171	1036.172	824.848
47.228	23.814	1035.562	827.287
48.242	23.802	1035.580	827.172
49.257	23.736	1035.216	826.501
50.271	23.871	1033.475	825.662
51.286	24.022	1031.705	824.876
52.301	23.843	1031.846	824.087
53.315	24.053	1030.746	824.106
54.330	23.771	1029.308	821.578
55.344	23.736	1028.673	820.840
56.359	23.783	1027.302	819.889
57.374	23.727	1026.975	819.297
58.388	23.375	1026.242	817.020
59.403	23.161	1025.554	815.414
60.417	23.546	1024.529	816.295
61.432	23.413	1024.042	815.226
62.447	23.615	1022.933	815.200
63.461	23.277	1022.487	813.216
64.476	23.291	1020.827	811.891
65.490	22.968	1021.180	810.616
66.505	23.430	1019.443	811.284
67.520	23.378	1019.809	811.266
68.534	22.950	1018.779	808.413
69.549	22.752	1018.407	807.144
70.563	22.993	1016.198	806.422
71.578	22.572	1014.846	803.356
72.593	22.664	1013.904	802.958
73.607	22.407	1014.328	802.055
74.622	22.799	1013.125	802.812
75.636	22.834	1012.617	802.500
76.651	22.623	1013.491	802.162
77.666	22.933	1011.872	802.217
78.680	22.972	1011.042	801.665
79.695	23.011	1010.480	801.327
80.709	23.212	1009.493	801.383
81.724	23.220	1009.060	801.001
82.739	23.530	1007.583	801.159
83.753	23.532	1008.268	801.642
84.768	24.215	1006.985	803.635
85.782	24.034	1007.801	803.394
86.797	24.214	1005.124	802.002
87.812	23.877	1005.368	800.610
88.826	24.005	1003.931	799.968
89.841	24.148	1002.965	799.771
90.855	24.097	1002.559	799.149
91.870	23.798	1001.229	796.676
92.884	24.239	999.943	797.556
93.899	24.062	999.101	796.023
94.914	24.113	998.897	796.016
95.928	23.933	997.781	794.254
96.943	23.576	997.467	792.340
97.957	23.915	995.994	792.611
98.972	23.545	995.122	790.199
99.987	23.695	995.506	791.102
101.001	23.840	992.928	789.628
102.016	23.862	992.245	789.113
103.030	23.839	992.527	789.166
104.045	24.072	990.633	788.621
105.060	24.109	989.835	788.079
106.074	23.579	989.220	785.178
107.089	23.509	988.741	784.415
108.103	23.768	987.265	784.320
109.118	23.218	986.980	781.594
110.133	23.219	984.733	779.752
111.147	22.794	984.437	777.577
112.162	22.705	983.631	776.480
113.176	23.222	982.741	777.981
114.191	23.568	981.607	778.534
115.206	23.141	980.714	775.886
116.220	23.078	980.390	775.283
117.235	23.137	978.726	774.157
118.249	23.188	977.509	773.347
119.264	23.062	977.039	772.360
120.279	23.050	975.693	771.171
121.293	22.647	975.511	769.205
122.308	22.919	974.648	769.641
123.322	22.431	973.925	766.875
124.337	22.639	972.494	766.587
125.352	22.698	971.550	766.032
126.366	22.855	970.951	766.173
127.381	23.195	970.933	767.564
128.395	23.648	969.661	768.451
129.410	23.277	969.585	766.720
130.424	23.532	968.602	766.978
131.439	23.559	967.551	766.194
132.454	23.350	967.881	765.481
133.468	23.455	966.287	764.608
134.483	23.398	965.596	763.746
135.497	23.700	964.850	764.389
136.512	23.798	962.905	763.203
137.527	23.524	962.228	761.421
138.541	23.546	962.836	761.931
139.556	23.836	961.571	762.106
140.570	23.763	961.211	761.440
141.585	24.198	960.212	762.443
142.600	24.242	959.566	762.050
143.614	23.982	958.396	759.943
144.629	24.259	957.797	760.585
145.643	24.295	955.610	758.931
146.658	23.829	954.271	755.823
147.673	23.799	953.891	755.326
148.687	23.572	953.225	753.768
149.702	23.601	952.383	753.159
150.716	23.722	950.602	752.194
151.731	23.420	951.453	751.523
152.746	24.071	949.808	752.910
153.760	24.087	948.684	752.019
154.775	23.958	948.806	751.504
155.789	23.883	948.720	751.053
156.804	23.863	947.085	749.608
157.819	23.813	947.101	749.345
158.833	24.116	945.902	749.607
159.848	24.324	944.299	749.143
160.862	24.300	943.829	748.601
161.877	23.711	942.362	744.904
162.892	23.318	942.111	742.989
163.906	23.890	940.328	743.915
164.921	23.387	940.341	741.754
165.935	24.093	938.652	743.301
166.950	23.723	938.928	741.911
167.964	23.906	938.133	741.979
168.979	23.774	936.316	739.926
169.994	23.382	936.473	738.352
171.008	23.824	935.267	739.174
172.023	24.040	935.776	740.412
173.037	24.165	934.715	740.028
174.052	23.886	932.154	736.778
175.067	23.691	931.251	735.191
176.081	23.364	930.632	733.283
177.096	23.464	930.569	733.584
178.110	23.153	929.733	731.572
179.125	23.314	929.365	731.887
180.140	23.327	929.066	731.638
181.154	23.343	929.415	731.914
182.169	23.991	928.264	733.615
183.183	24.185	928.052	734.185
184.198	23.507	927.522	730.905
185.213	23.826	927.272	731.957
186.227	24.267	926.050	732.740
187.242	24.007	925.787	731.401
188.256	24.461	924.423	732.121
189.271	24.183	923.927	730.522
190.286	24.028	922.986	729.080
191.300	23.311	921.443	724.862
192.315	22.795	920.957	722.305
193.329	23.015	920.375	722.683
194.344	23.615	920.229	724.956
195.359	23.771	919.439	724.909
196.373	24.065	919.044	725.730
197.388	24.238	918.990	726.328
198.402	24.465	918.362	726.694
199.417	24.691	916.856	726.355
200.432	24.652	916.642	725.964
201.446	24.233	917.624	724.971
202.461	24.269	916.973	724.539
203.475	24.252	915.298	723.083
204.490	23.519	914.860	719.700
205.504	23.677	914.619	720.089
206.519	23.734	913.350	719.257
207.534	23.895	913.242	719.758
208.548	23.818	913.194	719.345
209.563	23.802	911.904	718.202
210.577	23.742	911.922	717.910
211.592	24.628	910.083	719.969
212.607	24.755	909.428	719.898
213.621	24.231	909.665	717.912
214.636	24.296	908.423	717.132
215.650	24.187	907.631	716.005
216.665	24.120	907.576	715.627
217.680	24.412	906.266	715.702
218.694	24.366	905.145	714.571
219.709	24.167	904.920	713.531
220.723	23.848	904.928	712.197
221.738	23.963	903.705	711.632
222.753	23.939	903.267	711.131
223.767	24.131	903.170	711.757
224.782	24.559	903.218	713.440
225.796	24.393	902.270	711.966
226.811	24.235	900.755	710.080
227.826	23.957	901.000	709.103
228.840	23.326	899.978	705.722
229.855	23.978	898.557	707.137
230.869	23.616	898.721	705.765
231.884	23.581	897.500	704.603
232.899	23.926	897.209	705.684
233.913	23.840	896.788	704.948
234.928	23.797	896.014	704.107
235.942	23.273	894.987	701.165
236.957	23.371	894.451	701.071
237.972	23.467	893.265	700.457
238.986	23.594	893.005	700.691
240.001	23.625	891.724	699.749
241.015	23.371	891.933	698.849
242.030	23.640	892.063	699.948
243.045	23.903	891.241	700.279
244.059	23.992	890.868	700.275
245.074	23.814	890.427	699.166
246.088	24.131	889.782	699.841
247.103	24.442	888.654	700.112
248.117	24.705	889.076	701.415
249.132	24.898	889.416	702.378
250.147	25.184	888.186	702.468
251.161	25.077	887.993	701.830
252.176	25.427	887.122	702.449
253.190	25.541	885.961	701.914
254.205	25.142	886.185	700.472
255.220	25.088	885.308	699.505
256.234	24.803	884.951	698.048
257.249	24.764	884.157	697.208
258.263	24.932	883.286	697.114
259.278	24.658	883.240	695.951
260.293	24.730	882.723	695.759
261.307	24.679	882.730	695.506
262.322	24.724	881.972	695.024
263.336	25.029	879.906	694.515
264.351	24.444	878.878	691.377
265.366	24.501	878.381	691.144
266.380	25.142	878.392	693.573
267.395	24.834	878.331	692.272
268.409	24.836	877.639	691.672
269.424	24.868	876.584	690.904
270.439	24.660	875.683	689.331
271.453	24.242	875.484	687.501
272.468	24.809	874.223	688.633
273.482	24.966	873.925	688.940
274.497	25.302	872.323	688.907
275.512	24.687	872.992	687.012
276.526	24.805	872.802	687.257
277.541	24.798	872.791	687.159
278.555	25.426	871.788	688.717
279.570	24.896	871.551	686.439
280.585	24.744	871.002	685.360
281.599	24.691	869.817	684.167
282.614	24.284	868.184	681.267
283.628	24.357	868.148	681.456
284.643	24.666	867.267	681.883
285.657	24.582	866.792	681.129
286.672	24.476	865.907	679.969
287.687	25.044	865.837	682.015
288.701	24.701	865.184	680.138
289.716	24.732	864.633	679.764
290.730	24.644	865.076	679.715
291.745	24.556	864.261	678.682
292.760	24.731	863.871	678.981
293.774	25.215	862.365	679.568
294.789	25.154	862.712	679.552
295.803	25.204	860.730	678.119
296.818	24.911	859.942	676.332
297.833	24.967	859.395	676.053
298.847	24.549	859.813	674.744
299.862	24.900	858.131	674.686
300.876	25.181	858.228	675.761
301.891	25.369	858.586	676.693
302.906	25.325	857.478	675.594
303.920	25.163	857.453	674.906
304.935	25.477	857.087	675.739
305.949	24.993	856.525	673.415
306.964	24.761	855.083	671.354
307.979	24.835	854.352	670.996
308.993	25.356	853.466	672.190
310.008	25.408	853.595	672.429
311.022	25.325	852.600	671.276
312.037	25.198	852.317	670.519
313.052	25.021	851.034	668.789
314.066	24.368	851.266	666.472
315.081	24.496	850.397	666.210
316.095	24.825	849.875	666.969
317.110	24.552	849.491	665.593
318.125	24.575	848.376	664.745
319.139	23.945	848.239	662.235
320.154	23.966	847.418	661.612
321.168	24.274	847.983	663.142
322.183	24.133	847.382	662.088
323.197	24.400	846.518	662.348
324.212	24.784	845.420	662.851
325.227	24.799	845.637	663.019
326.241	24.293	845.235	660.771
327.256	24.479	843.762	660.250
328.270	24.798	842.458	660.349
329.285	24.414	841.972	658.492
330.300	24.396	841.881	658.294
331.314	24.493	841.218	658.077
332.329	24.626	842.034	659.146
333.343	25.210	840.080	659.708
334.358	24.873	840.830	658.996
335.373	25.025	840.906	659.559
336.387	25.295	840.082	659.847
337.402	25.120	839.821	658.941
338.416	25.641	839.481	660.528
339.431	25.681	839.482	660.618
340.446	25.422	839.889	659.929
341.460	25.579	838.499	659.354
342.475	25.686	838.978	660.062
343.489	25.537	838.167	658.823
344.504	25.603	837.868	658.769
345.519	25.809	837.767	659.385
346.533	25.730	836.607	658.125
347.548	25.550	836.189	657.080
348.562	25.429	835.482	656.025
349.577	25.527	834.962	655.918
350.592	25.321	833.474	653.939
351.606	25.215	832.544	652.765
352.621	25.363	831.898	652.742
353.635	25.256	831.453	651.943
354.650	25.197	830.739	651.113
355.665	25.044	830.335	650.182
356.679	25.535	828.877	650.762
357.694	24.811	829.439	648.524
358.708	25.129	827.702	648.255
359.723	25.182	827.474	648.212
360.738	25.229	826.522	647.579
361.752	25.414	825.983	647.769
362.767	25.568	826.578	648.734
363.781	25.711	825.683	648.486
364.796	25.648	826.287	648.679
365.810	25.797	825.327	648.403
366.825	25.930	824.782	648.394
367.840	25.572	824.860	647.113
368.854	25.599	823.942	646.430
369.869	25.304	823.076	644.636
370.883	25.190	822.267	643.536
371.898	25.761	822.434	645.656
372.913	25.833	822.291	645.746
373.927	25.346	821.340	643.197
374.942	25.325	821.170	642.933
375.956	25.491	820.854	643.221
376.971	25.560	820.874	643.429
377.986	25.715	819.775	643.065
379.000	25.719	820.076	643.258
380.015	25.797	818.699	642.397
381.029	25.631	818.038	641.233
382.044	26.211	817.382	642.726
383.059	26.248	817.316	642.748
384.073	25.826	816.981	640.925
385.088	25.595	815.493	638.884
386.102	25.178	815.078	637.020
387.117	25.394	813.755	636.696
388.132	25.117	813.735	635.641
389.146	25.174	813.601	635.684
390.161	25.908	813.471	638.123
391.175	25.880	812.267	637.023
392.190	25.565	811.999	635.646
393.205	25.163	810.491	632.990
394.219	24.385	810.379	630.101
395.234	24.469	809.278	629.483
396.248	25.216	809.453	632.197
397.263	24.957	809.753	631.464
398.278	25.011	809.515	631.411
399.292	24.528	808.661	628.989
400.307	24.914	807.271	629.208
401.321	24.913	807.365	629.222
402.336	25.416	806.419	630.195
403.350	25.306	807.405	630.523
404.365	25.930	806.779	632.168
405.380	26.313	805.935	632.791
406.394	26.207	806.498	632.806
407.409	26.550	804.852	632.658
408.423	26.459	805.051	632.441
409.438	26.001	805.611	631.221
410.453	26.151	804.858	631.102
411.467	26.090	804.306	630.397
412.482	26.447	802.708	630.335
413.496	25.979	803.311	629.119
414.511	26.238	803.399	630.036
415.526	25.817	802.474	627.790
416.540	26.007	802.928	628.750
417.555	26.150	801.978	628.449
418.569	26.439	800.040	627.878
419.584	26.035	800.293	626.617
420.599	26.103	800.019	626.583
421.613	159.847	1370.882	1791.755
422.628	138.726	1454.077	1791.862
