DTS Sentinel unit serial number:	SN413079Multiplexer serial number:	ORYXHardware model number:	OX4-SRSoftware version number:	ORYX F/W v4.00 Oryx Data Collector v3.7.2.0data status	okinstallation	princeton_trtdifferential loss correction	single-endedforward channel	channel 1reverse channel	N/Adate	2019/09/16time	01:18:35forward acquisition time	60.00reverse acquisition time	0.00gamma	496.2192k internal	0.2334k external	0.2334temperature offset calibration	0.9975default loss term (dB/km)	0.3790temperature slope calibration	1.0000multiplexer offset coefficient	1.0000multiplexer slope coefficient	1.0000fibre end	0.00T internal ref (°C)	27.28T ext. ref 1 (°C)	9.84T ext. ref 2 (°C)	21.83length (m)	temperature (°C)	Stokes	anti-Stokes-747.200	-36.520	-0.268	0.145
-746.185	-18.381	-0.244	0.153
-745.171	159.942	0.152	0.213
-744.156	331.914	-0.177	0.343
-743.142	-90.741	0.110	-0.032
-742.127	412.314	-0.054	0.115
-741.112	800.000	-0.038	0.164
-740.098	85.625	0.051	0.056
-739.083	8.991	-0.233	-0.177
-738.069	784.696	0.084	-0.231
-737.054	-18.141	0.206	0.130
-736.039	-38.958	-0.295	0.156
-735.025	-102.809	0.217	-0.052
-734.010	-200.000	-0.006	-0.161
-732.996	800.000	-0.093	-0.294
-731.981	-200.000	0.013	-0.146
-730.966	7.534	0.239	0.179
-729.952	-48.912	0.263	-0.126
-728.937	590.337	-0.201	0.497
-727.923	-10.925	-0.265	-0.176
-726.908	-78.382	-0.215	-0.074
-725.894	-200.000	0.007	-0.260
-724.879	-200.000	0.005	0.056
-723.864	-64.371	-0.362	0.148
-722.850	-200.000	-0.003	-0.056
-721.835	-200.000	-0.005	0.127
-720.821	38.394	0.237	-0.212
-719.806	-4.200	-0.179	-0.124
-718.791	-7.598	-0.133	-0.090
-717.777	-200.000	0.002	0.024
-716.762	74.502	0.315	-0.332
-715.748	12.829	0.106	-0.082
-714.733	548.778	-0.108	-0.259
-713.718	202.298	0.016	-0.025
-712.704	-200.000	0.016	0.230
-711.689	-200.000	-0.006	-0.043
-710.675	-83.950	-0.335	-0.107
-709.660	-72.472	-0.122	0.045
-708.645	-119.241	-0.139	0.024
-707.631	354.985	0.040	0.079
-706.616	-96.933	-0.324	-0.085
-705.602	-200.000	-0.014	0.068
-704.587	-14.998	-0.137	0.088
-703.572	800.000	-0.026	-0.106
-702.558	-106.966	0.284	-0.063
-701.543	-75.573	0.193	0.069
-700.529	12.310	-0.220	0.170
-699.514	-108.443	0.085	0.018
-698.499	-200.000	-0.008	-0.123
-697.485	-25.092	-0.346	-0.206
-696.470	119.538	0.224	-0.278
-695.456	-14.192	-0.308	0.199
-694.441	-200.000	0.012	0.126
-693.426	800.000	-0.092	0.369
-692.412	-18.828	-0.229	0.143
-691.397	-200.000	-0.000	0.047
-690.383	380.141	0.066	0.135
-689.368	800.000	-0.062	-0.251
-688.354	-200.000	0.045	0.442
-687.339	-87.062	0.076	-0.023
-686.324	800.000	0.012	0.048
-685.310	131.185	-0.148	0.190
-684.295	-150.564	-0.182	0.014
-683.281	-129.189	-0.333	0.047
-682.266	-24.981	-0.368	-0.219
-681.251	794.268	-0.038	0.105
-680.237	-200.000	-0.082	-0.366
-679.222	466.991	-0.053	0.119
-678.208	-121.095	0.209	0.035
-677.193	389.798	0.118	-0.245
-676.178	-75.032	0.191	0.069
-675.164	-200.000	0.000	0.147
-674.149	-93.562	-0.104	0.029
-673.135	90.109	-0.121	0.136
-672.120	-200.000	-0.052	0.273
-671.105	-27.711	-0.231	-0.134
-670.091	524.931	-0.107	0.251
-669.076	800.000	-0.117	0.334
-668.062	484.913	0.171	-0.391
-667.047	149.246	0.161	-0.219
-666.032	-106.726	-0.071	0.016
-665.018	-82.639	0.198	-0.064
-664.003	-69.604	-0.182	0.070
-662.989	800.000	0.085	-0.253
-661.974	800.000	0.085	-0.264
-660.959	758.732	-0.079	-0.216
-659.945	179.989	-0.185	0.272
-658.930	150.078	-0.026	0.035
-657.916	-176.607	-0.190	0.005
-656.901	-131.619	0.137	0.018
-655.886	-87.412	-0.506	-0.154
-654.872	527.623	-0.024	0.056
-653.857	-23.876	0.080	0.048
-652.843	-130.136	-0.177	-0.024
-651.828	-200.000	0.032	-0.393
-650.814	514.087	0.153	0.358
-649.799	-57.850	-0.461	0.202
-648.784	-77.936	-0.191	-0.066
-647.770	135.848	0.112	0.146
-646.755	58.497	-0.101	0.099
-645.741	-97.925	-0.190	0.049
-644.726	-200.000	0.007	-0.127
-643.711	76.278	0.187	-0.198
-642.697	90.855	0.143	-0.161
-641.682	112.538	-0.253	-0.306
-640.668	52.562	-0.191	-0.183
-639.653	17.267	0.160	0.127
-638.638	-136.851	0.234	0.027
-637.624	180.722	0.184	-0.270
-636.609	52.651	-0.175	-0.168
-635.595	21.383	0.197	-0.160
-634.580	800.000	0.132	0.405
-633.565	178.214	0.078	0.113
-632.551	-69.610	-0.207	-0.079
-631.536	800.000	-0.064	-0.231
-630.522	-8.830	-0.134	-0.090
-629.507	-200.000	-0.060	-0.360
-628.492	109.547	0.172	-0.206
-627.478	-15.458	-0.127	-0.081
-626.463	15.393	-0.195	-0.153
-625.449	-200.000	-0.014	0.093
-624.434	54.521	-0.197	-0.190
-623.419	800.000	0.108	-0.327
-622.405	22.288	-0.152	-0.124
-621.390	139.186	0.166	0.218
-620.376	-143.973	-0.197	-0.018
-619.361	-151.077	0.239	0.018
-618.346	-81.668	-0.270	-0.089
-617.332	-117.589	-0.241	-0.043
-616.317	-200.000	0.032	-0.553
-615.303	-79.660	-0.268	0.091
-614.288	-25.832	-0.181	-0.107
-613.273	335.791	-0.076	-0.147
-612.259	-200.000	-0.042	0.269
-611.244	329.910	-0.150	-0.289
-610.230	800.000	-0.068	-0.255
-609.215	91.312	0.071	0.080
-608.201	800.000	-0.052	-0.201
-607.186	-200.000	-0.015	0.067
-606.171	800.000	0.101	-0.378
-605.157	218.781	-0.211	0.337
-604.142	800.000	-0.036	0.106
-603.128	-76.531	0.276	0.097
-602.113	800.000	-0.025	-0.085
-601.098	-54.314	-0.128	-0.058
-600.084	-141.224	-0.333	0.034
-599.069	17.113	0.068	0.054
-598.055	-200.000	-0.004	-0.018
-597.040	-105.765	0.191	-0.043
-596.025	66.964	0.289	-0.294
-595.011	-27.052	0.223	-0.130
-593.996	800.000	-0.080	-0.223
-592.982	-76.643	-0.220	0.077
-591.967	33.967	-0.239	0.208
-590.952	31.873	-0.219	0.188
-589.938	39.671	0.224	-0.201
-588.923	-3.984	-0.213	-0.148
-587.909	42.712	-0.151	0.137
-586.894	-200.000	0.007	-0.051
-585.879	191.250	-0.066	0.099
-584.865	-3.961	-0.107	-0.074
-583.850	273.520	0.035	-0.063
-582.836	-200.000	-0.008	0.125
-581.821	61.229	0.232	-0.230
-580.806	-200.000	-0.003	0.049
-579.792	607.751	-0.105	0.260
-578.777	-58.928	0.156	-0.067
-577.763	-79.769	0.154	-0.052
-576.748	-200.000	0.053	-0.297
-575.733	-200.000	0.053	0.382
-574.719	800.000	-0.110	0.371
-573.704	90.797	0.131	0.146
-572.690	28.023	0.063	0.053
-571.675	-65.755	-0.210	-0.084
-570.661	180.359	0.145	-0.212
-569.646	-144.134	-0.315	-0.029
-568.631	-36.630	-0.186	0.100
-567.617	-200.000	0.023	-0.106
-566.602	800.000	-0.088	0.324
-565.588	-38.566	0.090	0.047
-564.573	-66.920	0.314	0.124
-563.558	343.826	-0.010	0.020
-562.544	148.175	-0.193	0.260
-561.529	1.157	0.095	0.068
-560.515	-3.880	-0.296	-0.205
-559.500	-200.000	0.074	-0.355
-558.485	11.251	-0.293	-0.224
-557.471	-135.781	-0.344	0.041
-556.456	800.000	-0.058	-0.227
-555.442	-200.000	-0.059	0.420
-554.427	-80.238	0.290	0.097
-553.412	313.058	0.181	-0.340
-552.398	703.387	-0.042	-0.110
-551.383	-85.732	0.052	-0.016
-550.369	-17.863	-0.142	-0.089
-549.354	-55.251	-0.109	-0.049
-548.339	-135.502	0.202	0.024
-547.325	-60.946	0.090	-0.038
-546.310	54.722	-0.258	-0.248
-545.296	-26.482	0.443	0.259
-544.281	21.485	0.077	0.062
-543.266	8.402	-0.205	-0.154
-542.252	456.863	0.048	0.107
-541.237	-62.775	-0.388	0.160
-540.223	181.205	0.180	-0.264
-539.208	491.087	-0.112	0.256
-538.193	-200.000	-0.024	0.468
-537.179	556.242	0.094	0.226
-536.164	-46.124	0.371	0.182
-535.150	-25.406	-0.212	0.125
-534.135	800.000	-0.032	0.107
-533.121	85.462	-0.248	0.271
-532.106	-92.968	0.289	-0.080
-531.091	-47.019	0.100	0.048
-530.077	-200.000	0.007	-0.152
-529.062	-117.371	0.327	0.059
-528.048	321.201	-0.076	0.144
-527.033	-133.245	-0.253	-0.032
-526.018	-77.459	0.316	-0.109
-525.004	488.248	0.025	-0.058
-523.989	112.280	0.062	0.075
-522.975	-6.328	0.213	0.145
-521.960	111.039	0.052	-0.062
-520.945	-76.381	0.338	-0.118
-519.931	-200.000	0.011	0.333
-518.916	47.429	0.310	0.288
-517.902	-15.931	0.248	-0.157
-516.887	46.492	0.034	0.031
-515.872	-55.043	0.157	-0.071
-514.858	371.743	0.108	-0.219
-513.843	83.006	-0.132	-0.143
-512.829	95.445	0.198	-0.225
-511.814	-119.442	-0.252	0.044
-510.799	800.000	0.027	-0.113
-509.785	-200.000	0.031	-0.227
-508.770	67.775	-0.011	-0.011
-507.756	-126.265	-0.035	0.005
-506.741	378.874	-0.139	0.283
-505.726	800.000	0.016	-0.071
-504.712	134.957	-0.052	-0.068
-503.697	352.577	0.052	0.103
-502.683	-62.842	-0.109	0.045
-501.668	-131.350	0.173	0.023
-500.653	800.000	0.097	0.298
-499.639	-0.057	0.227	-0.161
-498.624	800.000	0.042	-0.119
-497.610	29.964	0.126	-0.107
-496.595	-46.204	-0.234	-0.115
-495.581	800.000	0.066	0.230
-494.566	-200.000	0.005	0.036
-493.551	-49.557	-0.456	-0.216
-492.537	-38.746	0.243	0.128
-491.522	262.953	-0.159	0.274
-490.508	-90.514	-0.110	0.032
-489.493	-71.736	0.268	0.099
-488.478	-1.460	0.209	-0.147
-487.464	-29.729	0.266	-0.151
-486.449	-200.000	0.019	-0.171
-485.435	327.574	0.125	0.239
-484.420	-200.000	-0.006	-0.090
-483.405	25.044	0.286	0.236
-482.391	23.383	0.185	0.151
-481.376	-200.000	-0.026	0.386
-480.362	631.786	0.047	0.119
-479.347	-124.903	0.332	-0.051
-478.332	-132.714	0.039	-0.005
-477.318	-200.000	0.008	0.116
-476.303	152.502	-0.228	0.310
-475.289	-155.748	-0.112	-0.007
-474.274	-133.471	-0.212	-0.027
-473.259	-200.000	-0.002	0.180
-472.245	-7.643	0.315	0.212
-471.230	202.905	-0.041	0.063
-470.216	800.000	-0.076	-0.257
-469.201	-110.098	0.245	0.051
-468.186	324.435	-0.112	0.212
-467.172	-200.000	0.014	-0.097
-466.157	-169.004	-0.170	-0.006
-465.143	-18.008	0.115	0.071
-464.128	352.721	0.073	0.144
-463.113	109.743	0.083	0.099
-462.099	43.699	0.111	0.101
-461.084	800.000	-0.101	-0.293
-460.070	-66.089	-0.107	-0.042
-459.055	755.615	-0.071	-0.192
-458.040	-0.475	-0.040	0.028
-457.026	226.394	-0.048	-0.078
-456.011	199.729	-0.127	-0.193
-454.997	-165.653	-0.365	-0.016
-453.982	92.753	0.199	0.224
-452.968	-125.769	-0.220	-0.033
-451.953	-200.000	-0.002	-0.210
-450.938	-57.282	-0.302	0.132
-449.924	-200.000	-0.032	-0.150
-448.909	800.000	0.016	-0.050
-447.895	2.184	-0.286	0.205
-446.880	458.613	-0.096	-0.213
-445.865	-113.341	0.290	-0.057
-444.851	-4.986	-0.150	0.103
-443.836	800.000	0.019	0.072
-442.822	-58.383	-0.137	0.059
-441.807	-200.000	0.032	-0.188
-440.792	-59.124	0.041	0.017
-439.778	-138.171	-0.231	-0.025
-438.763	-166.754	-0.253	0.010
-437.749	-173.225	0.305	0.009
-436.734	98.084	-0.150	0.172
-435.719	-49.494	0.471	0.223
-434.705	580.636	0.072	0.174
-433.690	-200.000	-0.039	-0.238
-432.676	800.000	-0.058	0.237
-431.661	-112.739	0.214	0.042
-430.646	73.660	0.037	0.038
-429.632	-119.231	0.068	0.012
-428.617	243.246	0.271	0.451
-427.603	-96.647	-0.214	0.056
-426.588	90.989	0.263	-0.293
-425.573	103.129	0.102	0.119
-424.559	-118.438	0.068	0.012
-423.544	383.487	0.063	-0.128
-422.530	241.180	-0.130	0.215
-421.515	439.890	-0.123	0.268
-420.500	-87.269	-0.148	0.045
-419.486	-170.311	0.355	0.012
-418.471	800.000	0.007	0.028
-417.457	39.366	0.301	-0.268
-416.442	-51.308	0.191	-0.089
-415.428	800.000	0.044	0.152
-414.413	-39.820	0.287	-0.149
-413.398	180.261	-0.168	-0.245
-412.384	800.000	-0.025	0.099
-411.369	-185.432	0.074	-0.001
-410.355	-131.216	-0.282	0.037
-409.340	800.000	0.077	-0.226
-408.325	800.000	-0.110	0.304
-407.311	-83.976	0.267	0.084
-406.296	-200.000	-0.035	0.176
-405.282	100.962	-0.048	-0.055
-404.267	106.531	-0.189	-0.222
-403.252	-48.040	-0.047	-0.023
-402.238	-101.169	-0.278	0.067
-401.223	81.870	-0.155	-0.167
-400.209	-97.134	0.161	-0.042
-399.194	800.000	-0.035	-0.134
-398.179	-83.949	0.064	-0.020
-397.165	-200.000	-0.001	-0.364
-396.150	-32.777	-0.512	0.282
-395.136	-56.852	-0.236	-0.104
-394.121	-145.297	-0.427	0.038
-393.106	18.270	-0.240	0.190
-392.092	-41.498	0.334	-0.170
-391.077	44.721	-0.151	-0.138
-390.063	-64.496	-0.054	0.022
-389.048	108.823	-0.113	0.134
-388.033	-21.809	0.202	-0.122
-387.019	228.828	-0.072	0.117
-386.004	246.449	-0.216	-0.360
-384.990	80.721	0.325	0.347
-383.975	50.900	0.171	-0.160
-382.960	-79.046	0.490	-0.165
-381.946	-129.161	-0.253	-0.035
-380.931	61.301	-0.212	0.209
-379.917	-200.000	0.013	0.271
-378.902	-71.950	0.037	0.014
-377.888	68.166	0.184	0.187
-376.873	-16.591	-0.246	-0.154
-375.858	534.452	0.071	0.167
-374.844	800.000	-0.077	-0.258
-373.829	-32.321	-0.134	0.074
-372.815	-200.000	-0.022	-0.129
-371.800	-41.332	0.457	0.233
-370.785	273.203	0.162	0.283
-369.771	-134.098	-0.329	-0.040
-368.756	800.000	-0.029	0.100
-367.742	34.691	0.092	0.080
-366.727	516.593	-0.055	0.128
-365.712	-123.323	-0.328	0.052
-364.698	-80.073	-0.156	0.052
-363.683	339.301	-0.133	0.257
-362.669	50.309	0.208	0.195
-361.654	107.225	-0.247	-0.291
-360.639	-200.000	-0.010	-0.048
-359.625	-200.000	0.006	-0.206
-358.610	-118.924	-0.335	-0.058
-357.596	231.070	0.077	0.125
-356.581	36.457	-0.037	0.033
-355.566	-200.000	-0.034	0.223
-354.552	549.970	0.093	-0.220
-353.537	-146.561	0.166	0.014
-352.523	-14.051	-0.122	0.078
-351.508	-200.000	-0.022	-0.390
-350.493	-86.715	0.140	0.043
-349.479	-200.000	-0.015	0.095
-348.464	-35.830	-0.364	0.195
-347.450	-133.806	0.375	-0.046
-346.435	-17.376	-0.178	-0.111
-345.420	-36.177	-0.146	-0.078
-344.406	-80.660	0.427	0.141
-343.391	800.000	-0.047	0.168
-342.377	-42.593	-0.281	0.142
-341.362	800.000	0.121	-0.497
-340.348	-76.420	0.219	-0.076
-339.333	-29.355	0.145	0.082
-338.318	800.000	-0.069	-0.207
-337.304	-27.979	-0.066	0.038
-336.289	800.000	-0.113	0.340
-335.275	166.904	-0.160	0.225
-334.260	-47.664	-0.182	0.087
-333.245	800.000	-0.030	0.112
-332.231	-134.209	0.171	-0.021
-331.216	-4.385	0.039	0.027
-330.202	800.000	0.112	-0.463
-329.187	9.306	-0.343	-0.256
-328.172	-200.000	-0.041	0.327
-327.158	-200.000	0.015	0.087
-326.143	47.434	0.250	0.231
-325.129	800.000	-0.029	0.100
-324.114	295.406	-0.077	0.140
-323.099	-105.476	-0.190	-0.043
-322.085	-200.000	-0.006	0.095
-321.070	-113.974	-0.134	0.026
-320.056	800.000	0.059	0.251
-319.041	800.000	0.103	-0.294
-318.026	15.823	0.132	-0.103
-317.012	-200.000	0.004	-0.069
-315.997	-200.000	0.046	0.366
-314.983	53.450	0.245	0.232
-313.968	2.501	-0.267	-0.191
-312.953	800.000	0.039	0.161
-311.939	-124.925	-0.108	0.016
-310.924	-200.000	0.024	0.236
-309.910	800.000	-0.059	-0.247
-308.895	-81.211	0.085	-0.028
-307.880	-81.058	-0.176	-0.058
-306.866	-5.033	0.135	-0.092
-305.851	-106.123	0.224	-0.050
-304.837	-200.000	0.077	0.534
-303.822	46.478	-0.264	-0.242
-302.807	-9.694	-0.134	0.088
-301.793	800.000	0.103	-0.408
-300.778	-200.000	-0.082	-0.375
-299.764	-200.000	-0.019	-0.193
-298.749	34.951	0.174	0.151
-297.735	-116.897	0.404	-0.073
-296.720	-46.673	-0.210	-0.102
-295.705	3.560	0.088	0.063
-294.691	73.285	0.085	-0.088
-293.676	-116.214	0.222	0.041
-292.662	-200.000	0.209	0.001
-291.647	-191.647	-0.024	-0.000
-290.632	128.323	-0.264	0.332
-289.618	-116.599	-0.061	-0.011
-288.603	-200.000	0.013	0.233
-287.589	800.000	0.084	0.243
-286.574	147.841	-0.097	-0.130
-285.559	153.987	-0.020	0.027
-284.545	-172.266	0.061	0.002
-283.530	440.702	-0.115	0.249
-282.516	800.000	0.092	0.368
-281.501	-11.314	0.151	-0.098
-280.486	800.000	-0.035	-0.151
-279.472	81.666	-0.064	-0.068
-278.457	238.820	0.103	-0.169
-277.443	5.593	-0.124	0.091
-276.428	427.740	0.062	0.133
-275.413	294.146	-0.078	0.141
-274.399	229.116	-0.194	-0.312
-273.384	351.283	0.047	-0.092
-272.370	-100.823	-0.119	0.029
-271.355	-71.639	-0.176	0.065
-270.340	108.525	-0.203	-0.240
-269.326	-200.000	0.021	-0.208
-268.311	26.505	0.065	-0.053
-267.297	83.261	0.177	0.190
-266.282	-134.036	0.289	-0.035
-265.267	-121.748	0.112	-0.018
-264.253	-110.292	0.202	-0.041
-263.238	315.757	-0.094	0.175
-262.224	-11.824	0.319	-0.207
-261.209	143.503	0.110	-0.145
-260.195	-200.000	-0.018	0.251
-259.180	-76.807	-0.251	0.087
-258.165	-42.169	0.390	-0.197
-257.151	-200.000	-0.029	-0.193
-256.136	-37.055	-0.335	0.177
-255.122	-200.000	0.052	0.231
-254.107	142.486	0.054	-0.070
-253.092	597.413	0.086	-0.210
-252.078	-71.640	0.153	0.056
-251.063	413.572	-0.072	-0.151
-250.049	229.755	-0.085	-0.137
-249.034	785.499	-0.058	-0.157
-248.019	65.385	0.168	-0.167
-247.005	800.000	-0.116	-0.325
-245.990	194.555	0.193	0.288
-244.976	-200.000	-0.033	0.255
-243.961	161.126	0.193	-0.266
-242.946	800.000	0.057	0.157
-241.932	8.624	-0.183	-0.136
-240.917	246.114	-0.155	0.258
-239.903	63.197	0.036	-0.036
-238.888	-121.317	0.429	-0.071
-237.873	368.197	0.039	0.077
-236.859	-145.292	0.242	0.022
-235.844	-20.879	-0.164	-0.099
-234.830	-200.000	0.014	0.167
-233.815	280.942	0.053	0.093
-232.800	-76.690	-0.192	-0.066
-231.786	-200.000	-0.011	-0.267
-230.771	-61.699	0.269	0.111
-229.757	86.790	-0.160	-0.174
-228.742	17.190	0.124	-0.097
-227.727	-109.516	0.234	-0.049
-226.713	236.908	-0.177	-0.289
-225.698	-200.000	0.010	-0.184
-224.684	66.174	0.147	-0.147
-223.669	69.184	0.139	0.141
-222.655	-41.499	0.348	0.177
-221.640	-200.000	-0.019	0.511
-220.625	474.552	-0.105	0.233
-219.611	259.204	0.143	0.243
-218.596	-200.000	0.040	0.378
-217.582	228.073	-0.043	0.068
-216.567	361.081	-0.082	0.162
-215.552	800.000	0.056	0.156
-214.538	745.430	-0.034	-0.089
-213.523	44.526	0.219	-0.198
-212.509	-51.128	-0.224	0.104
-211.494	-200.000	-0.001	0.180
-210.479	463.625	0.103	-0.226
-209.465	-48.698	-0.378	-0.179
-208.450	127.595	0.163	0.204
-207.436	-167.446	-0.128	-0.005
-206.421	-88.199	0.071	0.021
-205.406	-200.000	-0.000	-0.240
-204.392	309.608	0.044	0.081
-203.377	180.249	-0.068	-0.098
-202.363	-197.715	-0.311	-0.002
-201.348	-181.607	-0.218	0.004
-200.333	256.183	0.189	-0.318
-199.319	461.787	-0.105	-0.231
-198.304	1.867	-0.121	0.086
-197.290	-57.759	0.172	-0.074
-196.275	208.032	-0.103	0.158
-195.260	-200.000	-0.012	-0.211
-194.246	-95.708	0.154	0.040
-193.231	-2.195	-0.079	0.055
-192.217	-19.841	-0.154	-0.094
-191.202	-86.318	-0.269	-0.081
-190.187	7.008	0.046	-0.034
-189.173	-146.560	-0.304	-0.026
-188.158	-200.000	-0.004	-0.341
-187.144	-38.986	-0.139	-0.072
-186.129	-200.000	-0.249	0.000
-185.114	21.851	0.196	-0.157
-184.100	-162.588	-0.094	-0.005
-183.085	800.000	0.103	-0.427
-182.071	236.324	0.173	0.281
-181.056	-200.000	0.019	-0.168
-180.042	-177.163	-0.246	-0.006
-179.027	800.000	-0.058	-0.180
-178.012	-12.250	-0.191	0.123
-176.998	-71.512	-0.094	0.034
-175.983	110.796	-0.276	0.327
-174.969	71.067	0.173	-0.176
-173.954	-200.000	-0.036	0.295
-172.939	-200.000	-0.060	-0.298
-171.925	547.048	0.052	-0.123
-170.910	-81.675	0.322	0.104
-169.896	-100.647	0.279	0.068
-168.881	-124.381	-0.269	-0.041
-167.866	-46.025	-0.153	-0.074
-166.852	-200.000	0.033	0.217
-165.837	-23.251	0.250	0.148
-164.823	-113.447	0.143	-0.028
-163.808	800.000	-0.063	-0.208
-162.793	58.910	-0.353	0.341
-161.779	-23.446	0.458	0.270
-160.764	33.791	0.269	0.230
-159.750	748.529	-0.117	-0.310
-158.735	-80.028	0.334	0.110
-157.720	-200.000	-0.014	0.160
-156.706	-123.228	-0.255	-0.040
-155.691	-89.816	0.627	-0.180
-154.677	-200.000	-0.003	-0.213
-153.662	46.709	-0.327	-0.298
-152.647	-130.137	0.267	0.036
-151.633	-89.708	-0.027	-0.008
-150.618	-26.054	-0.193	0.112
-149.604	-6.023	0.096	-0.064
-148.589	-117.350	0.142	-0.025
-147.574	-200.000	-0.024	-0.167
-146.560	218.310	-0.210	0.330
-145.545	174.627	0.141	-0.200
-144.531	303.046	0.154	0.279
-143.516	-200.000	-0.005	-0.211
-142.502	95.334	0.110	-0.123
-141.487	3.839	0.190	0.136
-140.472	-200.000	0.005	0.199
-139.458	-7.493	0.109	0.072
-138.443	-67.196	-0.220	0.085
-137.429	800.000	0.095	0.263
-136.414	130.030	0.132	0.166
-135.399	-111.255	-0.368	-0.074
-134.385	-22.976	-0.070	-0.041
-133.370	-61.491	-0.171	-0.071
-132.356	-142.840	-0.241	0.023
-131.341	-200.000	-0.038	-0.180
-130.326	338.775	0.069	0.131
-129.312	-70.723	0.367	0.136
-128.297	-39.191	-0.339	0.175
-127.283	-100.911	-0.087	-0.021
-126.268	800.000	-0.023	-0.072
-125.253	8.744	-0.344	0.255
-124.239	307.540	0.156	0.286
-123.224	144.990	0.113	0.148
-122.210	-200.000	-0.014	0.095
-121.195	430.166	-0.070	-0.149
-120.180	112.680	0.066	0.079
-119.166	-200.000	-0.056	-0.259
-118.151	-200.000	-0.031	0.206
-117.137	421.537	0.132	0.277
-116.122	58.250	-0.046	-0.044
-115.107	-121.419	0.176	-0.029
-114.093	-30.133	-0.061	-0.034
-113.078	-92.581	0.328	-0.090
-112.064	34.051	0.156	-0.133
-111.049	-200.000	0.054	-0.289
-110.034	-200.000	0.010	-0.089
-109.020	-78.566	0.182	0.061
-108.005	78.328	0.174	0.182
-106.991	-200.000	0.058	0.289
-105.976	800.000	-0.078	0.267
-104.962	-98.844	0.199	0.049
-103.947	456.939	-0.036	0.079
-102.932	7.768	0.131	-0.096
-101.918	-73.146	-0.183	0.066
-100.903	-121.688	-0.227	-0.037
-99.889	92.994	-0.272	0.301
-98.874	800.000	0.092	-0.302
-97.859	66.021	-0.179	0.178
-96.845	213.264	0.109	-0.169
-95.830	800.000	0.106	-0.307
-94.816	-35.588	-0.098	-0.052
-93.801	179.768	0.081	0.116
-92.786	-97.429	0.181	0.046
-91.772	-200.000	-0.058	-0.365
-90.757	154.339	0.155	-0.209
-89.743	-178.026	-0.351	-0.008
-88.728	343.591	0.132	0.253
-87.713	-200.000	0.039	0.228
-86.699	-18.692	0.187	0.114
-85.684	106.606	0.050	0.058
-84.670	100.926	0.067	-0.076
-83.655	-50.334	0.106	-0.049
-82.640	-64.413	0.235	-0.093
-81.626	-89.288	-0.196	0.057
-80.611	-200.000	0.019	-0.135
-79.597	-102.214	-0.366	0.086
-78.582	-20.932	0.159	-0.096
-77.567	-13.847	-0.210	0.133
-76.553	30.833	-0.076	-0.064
-75.538	-200.000	-0.076	0.426
-74.524	320.083	-0.183	0.340
-73.509	-88.974	-0.249	0.072
-72.494	-68.377	-0.188	-0.072
-71.480	800.000	0.099	0.347
-70.465	-52.064	0.106	-0.048
-69.451	93.359	0.056	0.062
-68.436	-79.585	-0.150	0.050
-67.422	-200.000	-0.019	0.097
-66.407	526.100	-0.034	0.078
-65.392	-37.404	0.158	-0.082
-64.378	-200.000	0.037	0.223
-63.363	72.423	-0.096	0.098
-62.349	-116.727	-0.173	-0.031
-61.334	1.793	-1.039	-0.733
-60.319	211.756	0.472	0.727
-59.305	361.913	-0.593	-1.164
-58.290	150.351	0.838	1.113
-57.276	739.398	0.575	1.511
-56.261	-200.000	114.788	646.853
-55.246	473.448	1503.397	3315.611
-54.232	149.146	2661.827	3523.578
-53.217	102.556	2139.301	2447.801
-52.203	38.435	1589.484	1385.806
-51.188	30.504	1336.202	1117.467
-50.173	27.804	1297.802	1069.515
-49.159	54.702	1353.840	1277.257
-48.144	53.142	1368.812	1282.020
-47.130	30.818	1324.197	1109.123
-46.115	27.499	1305.996	1074.302
-45.100	27.248	1301.573	1069.144
-44.086	27.115	1298.924	1066.147
-43.071	27.100	1296.417	1063.957
-42.057	27.085	1294.634	1062.362
-41.042	27.183	1292.856	1061.438
-40.027	27.133	1291.508	1059.997
-39.013	27.165	1289.545	1058.530
-37.998	27.216	1287.300	1056.939
-36.984	27.163	1285.912	1055.451
-35.969	27.257	1283.787	1054.207
-34.954	27.350	1281.810	1053.080
-33.940	27.341	1280.988	1052.315
-32.925	27.376	1279.546	1051.288
-31.911	27.459	1278.238	1050.653
-30.896	27.405	1276.871	1049.177
-29.881	27.350	1275.240	1047.476
-28.867	27.357	1274.321	1046.720
-27.852	27.327	1272.663	1045.147
-26.838	27.255	1271.420	1043.671
-25.823	27.371	1270.029	1043.151
-24.809	27.412	1268.346	1041.960
-23.794	27.348	1267.214	1040.624
-22.779	27.408	1265.798	1039.766
-21.765	27.322	1265.144	1038.692
-20.750	27.397	1263.849	1038.017
-19.736	27.232	1262.650	1036.051
-18.721	27.200	1261.558	1034.934
-17.706	27.288	1259.714	1033.881
-16.692	27.273	1258.829	1033.028
-15.677	27.202	1257.786	1031.725
-14.663	27.208	1256.903	1030.993
-13.648	27.272	1255.354	1030.045
-12.633	27.278	1254.538	1029.371
-11.619	27.266	1253.496	1028.405
-10.604	27.186	1252.941	1027.459
-9.590	27.177	1251.832	1026.456
-8.575	27.215	1250.956	1025.911
-7.560	27.289	1250.075	1025.565
-6.546	27.246	1249.190	1024.556
-5.531	27.176	1248.591	1023.632
-4.517	27.270	1247.082	1022.882
-3.502	27.320	1246.620	1022.740
-2.487	27.239	1245.615	1021.423
-1.473	27.247	1241.460	1018.020
-0.458	25.741	1226.639	997.488
0.556	20.958	1210.841	962.268
1.571	17.537	1217.105	948.144
2.586	16.722	1232.336	955.330
3.600	16.864	1221.417	947.571
4.615	15.086	1155.056	886.607
5.629	11.643	1088.541	818.265
6.644	10.129	1071.246	797.730
7.659	9.811	1069.716	794.953
8.673	9.717	1068.485	793.505
9.688	9.705	1066.843	792.156
10.702	10.006	1064.754	792.012
11.717	12.221	1066.735	804.284
12.731	15.617	1071.548	824.529
13.746	17.631	1073.709	836.012
14.761	17.443	1073.546	834.886
15.775	16.528	1071.090	828.420
16.790	15.562	1068.706	821.784
17.804	14.669	1067.813	816.657
18.819	14.311	1066.090	813.517
19.834	14.096	1065.252	811.756
20.848	13.885	1064.519	810.096
21.863	13.584	1063.600	807.859
22.877	13.448	1062.997	806.667
23.892	13.511	1061.688	805.908
24.907	13.404	1061.660	805.292
25.921	13.532	1060.104	804.667
26.936	13.532	1058.993	803.749
27.950	13.491	1057.910	802.659
28.965	13.719	1055.830	802.113
29.980	13.723	1054.798	801.277
30.994	13.778	1053.953	800.830
32.009	13.853	1052.682	800.153
33.023	13.693	1051.513	798.425
34.038	13.670	1050.471	797.451
35.053	13.633	1049.495	796.463
36.067	13.569	1048.927	795.654
37.082	13.750	1047.578	795.428
38.096	13.687	1047.295	794.844
39.111	13.609	1046.722	793.961
40.126	13.597	1045.334	792.784
41.140	13.520	1043.954	791.299
42.155	13.417	1042.847	789.896
43.169	13.425	1041.437	788.798
44.184	13.427	1040.784	788.243
45.199	13.515	1039.260	787.435
46.213	13.508	1038.492	786.753
47.228	13.549	1037.926	786.447
48.242	13.431	1037.109	785.201
49.257	13.482	1035.593	784.224
50.271	13.601	1034.746	784.077
51.286	13.590	1033.745	783.198
52.301	13.503	1033.077	782.213
53.315	13.544	1032.034	781.546
54.330	13.582	1030.655	780.611
55.344	13.501	1029.940	779.621
56.359	13.524	1028.620	778.658
57.374	13.541	1027.915	778.135
58.388	13.407	1027.249	776.932
59.403	13.335	1026.157	775.702
60.417	13.502	1025.154	775.658
61.432	13.414	1024.708	774.838
62.447	13.443	1023.889	774.288
63.461	13.248	1022.846	772.517
64.476	13.322	1022.121	772.246
65.490	13.266	1021.684	771.589
66.505	13.472	1020.183	771.348
67.520	13.484	1019.525	770.835
68.534	13.482	1018.857	770.254
69.549	13.521	1018.066	769.768
70.563	13.305	1017.609	768.351
71.578	13.434	1016.056	767.711
72.593	13.244	1016.059	766.761
73.607	13.386	1014.817	766.417
74.622	13.251	1014.778	765.692
75.636	13.249	1014.273	765.234
76.651	13.279	1013.251	764.535
77.666	13.307	1012.641	764.137
78.680	13.257	1012.160	763.477
79.695	13.368	1011.133	763.143
80.709	13.388	1010.839	762.949
81.724	13.506	1009.989	762.779
82.739	13.496	1009.436	762.250
83.753	13.602	1008.483	761.950
84.768	13.670	1007.865	761.727
85.782	13.718	1006.771	761.057
86.797	13.615	1006.100	760.008
87.812	13.601	1004.699	758.817
88.826	13.552	1004.081	758.061
89.841	13.680	1003.210	757.920
90.855	13.817	1002.119	757.658
91.870	13.777	1001.191	756.704
92.884	13.706	1000.382	755.704
93.899	13.618	999.881	754.857
94.914	13.767	999.069	754.854
95.928	13.763	997.962	753.935
96.943	13.710	997.147	753.010
97.957	13.681	996.207	752.102
98.972	13.744	995.534	751.814
99.987	13.635	995.033	750.874
101.001	13.755	993.289	750.033
102.016	13.549	993.385	749.110
103.030	13.765	991.952	748.938
104.045	13.788	991.398	748.556
105.060	13.716	990.685	747.625
106.074	13.617	989.220	746.008
107.089	13.497	988.337	744.740
108.103	13.523	987.284	743.998
109.118	13.350	986.892	742.856
110.133	13.525	985.773	742.734
111.147	13.312	984.891	741.049
112.162	13.563	984.191	741.582
113.176	13.669	983.350	741.358
114.191	13.719	982.660	740.994
115.206	13.574	982.005	739.787
116.220	13.743	980.554	739.383
117.235	13.616	979.652	738.071
118.249	13.586	979.176	737.513
119.264	13.582	978.349	736.807
120.279	13.587	977.160	735.866
121.293	13.500	976.640	735.024
122.308	13.501	975.856	734.373
123.322	13.501	974.816	733.526
124.337	13.560	973.636	732.837
125.352	13.489	972.496	731.599
126.366	13.389	971.844	730.604
127.381	13.459	970.938	730.164
128.395	13.408	970.149	729.283
129.410	13.524	968.938	728.820
130.424	13.454	968.157	727.860
131.439	13.646	967.443	728.100
132.454	13.543	966.765	727.074
133.468	13.635	965.577	726.521
134.483	13.552	964.700	725.431
135.497	13.556	963.821	724.723
136.512	13.660	963.419	724.811
137.527	13.577	962.266	723.517
138.541	13.689	961.519	723.380
139.556	13.752	960.573	722.882
140.570	13.727	960.211	722.438
141.585	13.817	959.454	722.196
142.600	13.848	958.291	721.389
143.614	13.802	957.744	720.714
144.629	13.850	957.117	720.385
145.643	13.804	956.247	719.467
146.658	13.804	955.091	718.536
147.673	13.752	954.194	717.572
148.687	13.740	953.193	716.703
149.702	13.637	952.281	715.511
150.716	13.626	951.923	715.132
151.731	13.716	950.994	714.757
152.746	13.660	950.282	713.918
153.760	13.732	950.100	714.026
154.775	13.713	949.476	713.415
155.789	13.929	948.540	713.576
156.804	13.952	947.547	712.864
157.819	13.901	947.171	712.297
158.833	13.988	946.721	712.271
159.848	13.923	945.625	711.103
160.862	13.932	944.714	710.396
161.877	13.818	943.791	709.150
162.892	13.634	942.839	707.589
163.906	13.910	942.009	708.079
164.921	13.793	941.184	706.897
165.935	13.929	940.008	706.533
166.950	13.870	939.292	705.678
167.964	13.908	938.190	704.952
168.979	13.917	937.458	704.375
169.994	13.883	936.849	703.713
171.008	13.925	935.942	703.145
172.023	14.079	935.002	703.028
173.037	13.971	934.886	702.423
174.052	13.981	933.822	701.606
175.067	13.850	933.535	700.772
176.081	13.830	933.000	700.223
177.096	13.848	932.445	699.823
178.110	13.997	931.472	699.660
179.125	13.920	931.114	699.003
180.140	14.015	931.009	699.262
181.154	14.008	930.423	698.731
182.169	14.152	929.757	698.772
183.183	14.103	929.075	697.995
184.198	14.137	927.944	697.226
185.213	14.125	927.643	696.889
186.227	14.241	926.708	696.608
187.242	14.269	926.157	696.249
188.256	14.257	925.746	695.827
189.271	14.188	925.152	695.034
190.286	13.983	924.367	693.527
191.300	13.949	923.396	692.594
192.315	13.783	923.089	691.610
193.329	13.932	922.196	691.499
194.344	14.043	921.530	691.402
195.359	14.065	921.208	691.192
196.373	14.206	920.517	691.194
197.388	14.389	919.483	691.118
198.402	14.399	919.299	690.961
199.417	14.255	918.708	689.858
200.432	14.419	918.173	690.076
201.446	14.523	917.646	690.046
202.461	14.555	917.034	689.660
203.475	14.445	916.726	688.913
204.490	14.391	915.820	687.949
205.504	14.356	915.159	687.246
206.519	14.358	914.254	686.514
207.534	14.499	913.177	686.223
208.548	14.366	913.082	685.546
209.563	14.553	912.146	685.552
210.577	14.608	911.247	685.038
211.592	14.538	911.078	684.566
212.607	14.576	910.060	683.893
213.621	14.593	909.526	683.503
214.636	14.512	908.798	682.563
215.650	14.693	908.198	682.794
216.665	14.609	907.759	682.056
217.680	14.630	906.593	681.207
218.694	14.755	906.029	681.234
219.709	14.579	905.579	680.116
220.723	14.735	904.640	679.987
221.738	14.757	904.453	679.874
222.753	14.624	903.706	678.714
223.767	14.715	903.048	678.529
224.782	14.714	903.037	678.457
225.796	14.733	902.221	677.860
226.811	14.789	901.320	677.350
227.826	14.745	900.567	676.549
228.840	14.655	899.649	675.431
229.855	14.834	898.985	675.599
230.869	14.662	898.398	674.401
231.884	14.691	897.585	673.851
232.899	14.822	897.216	674.043
233.913	14.756	895.965	672.776
234.928	14.749	895.297	672.188
235.942	14.693	895.320	671.918
236.957	14.826	894.242	671.586
237.972	14.632	893.878	670.475
238.986	14.768	893.017	670.313
240.001	14.712	892.637	669.744
241.015	14.743	891.767	669.159
242.030	14.939	891.312	669.543
243.045	14.785	890.939	668.587
244.059	14.927	889.892	668.308
245.074	14.817	889.661	667.634
246.088	14.899	888.570	667.085
247.103	14.906	888.210	666.783
248.117	15.056	887.879	667.075
249.132	15.073	887.144	666.530
250.147	15.115	886.605	666.235
251.161	15.196	885.991	666.034
252.176	15.325	885.148	665.855
253.190	15.293	884.544	665.217
254.205	15.299	883.739	664.572
255.220	15.320	883.183	664.182
256.234	15.215	882.745	663.378
257.249	15.225	882.112	662.882
258.263	15.225	881.317	662.227
259.278	15.392	880.290	662.055
260.293	15.300	879.943	661.373
261.307	15.515	879.331	661.703
262.322	15.446	879.063	661.170
263.336	15.535	877.691	660.428
264.351	15.541	877.354	660.140
265.366	15.561	876.556	659.562
266.380	15.507	876.240	659.051
267.395	15.534	875.810	658.777
268.409	15.611	874.473	658.013
269.424	15.489	873.790	656.963
270.439	15.410	873.333	656.253
271.453	15.462	872.378	655.682
272.468	15.404	872.290	655.329
273.482	15.384	871.708	654.758
274.497	15.515	870.958	654.648
275.512	15.525	870.232	654.083
276.526	15.449	870.164	653.677
277.541	15.609	869.407	653.673
278.555	15.620	869.243	653.535
279.570	15.734	867.893	652.904
280.585	15.732	867.339	652.421
281.599	15.703	866.359	651.514
282.614	15.658	866.008	651.019
283.628	15.630	865.348	650.357
284.643	15.678	864.933	650.174
285.657	15.692	864.217	649.633
286.672	15.651	863.699	649.027
287.687	15.811	862.889	648.976
288.701	15.733	862.795	648.548
289.716	15.759	862.257	648.185
290.730	15.907	861.148	647.864
291.745	15.802	860.738	647.097
292.760	15.826	860.066	646.625
293.774	15.984	859.488	646.740
294.789	15.819	859.343	645.939
295.803	15.832	858.480	645.285
296.818	15.774	857.570	644.321
297.833	15.859	857.018	644.173
298.847	15.825	856.287	643.438
299.862	16.003	855.818	643.710
300.876	15.930	855.512	643.145
301.891	16.023	854.506	642.686
302.906	15.944	854.217	642.109
303.920	16.041	853.753	642.074
304.935	16.187	853.097	642.078
305.949	16.145	852.684	641.553
306.964	15.991	852.040	640.425
307.979	15.978	851.410	639.846
308.993	16.089	850.921	639.843
310.008	16.171	850.194	639.550
311.022	16.128	849.558	638.854
312.037	16.193	848.959	638.590
313.052	16.161	848.155	637.809
314.066	15.981	848.220	637.119
315.081	16.084	847.517	636.925
316.095	16.106	846.441	636.142
317.110	16.058	845.975	635.554
318.125	16.105	845.602	635.398
319.139	16.127	845.211	635.130
320.154	16.177	844.571	634.781
321.168	16.088	844.258	634.154
322.183	16.175	843.407	633.786
323.197	16.150	843.551	633.744
324.212	16.181	842.612	633.100
325.227	16.212	842.064	632.747
326.241	16.237	841.288	632.202
327.256	16.143	840.854	631.466
328.270	16.289	839.866	631.215
329.285	16.164	839.945	630.752
330.300	16.054	839.241	629.757
331.314	16.220	838.729	629.937
332.329	16.297	837.961	629.590
333.343	16.352	837.846	629.654
334.358	16.428	837.185	629.386
335.373	16.462	836.866	629.218
336.387	16.466	836.521	628.916
337.402	16.521	836.196	628.819
338.416	16.507	836.319	628.807
339.431	16.453	835.646	628.044
340.446	16.703	835.038	628.457
341.460	16.675	834.964	628.242
342.475	16.570	834.727	627.621
343.489	16.499	834.063	626.803
344.504	16.644	833.640	626.966
345.519	16.882	833.075	627.366
346.533	16.749	832.143	626.117
347.548	16.655	831.618	625.319
348.562	16.550	831.337	624.663
349.577	16.629	830.554	624.313
350.592	16.625	830.098	623.898
351.606	16.568	829.437	623.138
352.621	16.542	828.991	622.652
353.635	16.630	828.264	622.373
354.650	16.729	827.465	622.082
355.665	16.702	826.981	621.563
356.679	16.662	826.296	620.849
357.694	16.699	825.531	620.353
358.708	16.819	824.844	620.221
359.723	16.800	824.446	619.800
360.738	16.705	824.132	619.161
361.752	16.610	823.877	618.568
362.767	16.857	822.593	618.448
363.781	16.990	822.401	618.735
364.796	16.951	821.901	618.164
365.810	16.841	821.740	617.587
366.825	17.081	820.924	617.791
367.840	17.048	820.991	617.667
368.854	16.878	820.461	616.596
369.869	17.052	819.774	616.655
370.883	16.993	819.355	616.071
371.898	17.100	818.798	615.988
372.913	17.261	818.489	616.284
373.927	17.177	817.963	615.530
374.942	17.136	817.538	615.007
375.956	17.141	817.195	614.713
376.971	17.260	817.097	615.013
377.986	17.301	816.247	614.469
379.000	17.307	815.709	614.032
380.015	17.227	815.407	613.460
381.029	17.168	814.861	612.781
382.044	17.455	814.061	613.161
383.059	17.359	813.520	612.352
384.073	17.274	812.952	611.566
385.088	17.259	812.321	610.982
386.102	17.122	812.311	610.430
387.117	17.157	811.677	610.023
388.132	17.339	810.637	609.840
389.146	17.388	810.259	609.678
390.161	17.310	809.786	608.991
391.175	17.428	809.251	608.957
392.190	17.383	808.667	608.302
393.205	17.252	808.049	607.314
394.219	17.196	808.131	607.123
395.234	17.271	807.785	607.076
396.248	17.196	807.293	606.386
397.263	17.211	806.850	606.051
398.278	17.191	806.318	605.527
399.292	17.405	805.865	605.896
400.307	17.129	805.651	604.699
401.321	17.188	805.212	604.528
402.336	17.369	804.391	604.500
403.350	17.351	804.208	604.244
404.365	17.429	803.434	603.888
405.380	17.516	802.841	603.696
406.394	17.603	802.210	603.478
407.409	17.700	802.019	603.624
408.423	17.618	801.887	603.178
409.438	17.771	801.452	603.339
410.453	17.700	801.001	602.698
411.467	17.724	800.373	602.255
412.482	17.766	800.057	602.114
413.496	17.757	800.013	601.993
414.511	17.871	799.234	601.756
415.526	17.840	798.975	601.398
416.540	17.829	798.423	600.892
417.555	17.712	798.069	600.160
418.569	17.895	797.298	600.171
419.584	17.776	797.218	599.641
420.599	17.847	797.086	599.738
421.613	111.727	1294.291	1476.017
422.628	96.171	1366.710	1476.092
