DTS Sentinel unit serial number:	SN413079Multiplexer serial number:	ORYXHardware model number:	OX4-SRSoftware version number:	ORYX F/W v4.00 Oryx Data Collector v3.7.2.0data status	okinstallation	princeton_trtdifferential loss correction	single-endedforward channel	channel 1reverse channel	N/Adate	2019/09/16time	01:10:35forward acquisition time	60.00reverse acquisition time	0.00gamma	496.2192k internal	0.2334k external	0.2334temperature offset calibration	0.9979default loss term (dB/km)	0.3790temperature slope calibration	1.0000multiplexer offset coefficient	1.0000multiplexer slope coefficient	1.0000fibre end	0.00T internal ref (°C)	27.25T ext. ref 1 (°C)	9.81T ext. ref 2 (°C)	21.70length (m)	temperature (°C)	Stokes	anti-Stokes-747.200	-69.515	-0.121	0.046
-746.185	-97.226	0.218	0.057
-745.171	10.947	-0.039	0.030
-744.156	-200.000	-0.025	0.176
-743.142	-25.997	-0.341	0.202
-742.127	204.772	0.178	0.278
-741.112	-124.325	-0.198	0.031
-740.098	11.011	0.162	0.125
-739.083	-83.863	0.168	-0.054
-738.069	259.744	0.151	0.261
-737.054	-200.000	-0.010	0.091
-736.039	-87.754	-0.335	-0.102
-735.025	-10.914	0.259	0.172
-734.010	-200.000	-0.047	0.283
-732.996	-108.716	-0.113	-0.024
-731.981	-72.978	0.275	-0.101
-730.966	363.660	-0.089	0.179
-729.952	-94.512	-0.388	0.106
-728.937	-146.220	-0.136	0.012
-727.923	-200.000	-0.001	-0.202
-726.908	-145.979	-0.221	0.020
-725.894	-200.000	-0.058	-0.321
-724.879	83.621	-0.143	-0.156
-723.864	-122.109	-0.344	-0.057
-722.850	594.049	-0.060	0.149
-721.835	-200.000	0.018	-0.100
-720.821	-194.047	-0.304	0.003
-719.806	800.000	-0.089	0.308
-718.791	47.556	-0.179	-0.168
-717.777	99.846	-0.097	-0.113
-716.762	-20.544	-0.428	-0.264
-715.748	526.589	-0.113	0.266
-714.733	-200.000	-0.062	0.391
-713.718	8.369	0.292	-0.221
-712.704	197.365	-0.057	0.088
-711.689	-200.000	0.419	-0.002
-710.675	115.263	-0.021	-0.026
-709.660	-200.000	0.057	0.315
-708.645	34.640	-0.148	0.130
-707.631	439.409	-0.052	-0.113
-706.616	208.560	-0.135	0.212
-705.602	151.952	-0.089	-0.122
-704.587	800.000	0.023	-0.082
-703.572	309.253	-0.225	0.423
-702.558	-23.879	0.123	-0.074
-701.543	-42.334	0.227	0.116
-700.529	-63.027	-0.077	0.032
-699.514	-200.000	-0.061	-0.462
-698.499	-169.273	0.096	0.004
-697.485	52.821	0.156	-0.150
-696.470	419.072	-0.110	-0.236
-695.456	-90.393	-0.566	0.165
-694.441	561.079	0.137	-0.332
-693.426	-101.268	0.201	-0.049
-692.412	-35.183	0.127	0.069
-691.397	-5.131	-0.144	0.100
-690.383	465.787	0.093	0.209
-689.368	230.963	0.065	-0.108
-688.354	-102.973	-0.462	0.110
-687.339	38.247	0.165	0.147
-686.324	78.350	-0.170	-0.182
-685.310	800.000	-0.036	-0.154
-684.295	-200.000	0.012	0.223
-683.281	-200.000	-0.023	0.334
-682.266	800.000	-0.105	-0.374
-681.251	309.008	-0.072	-0.134
-680.237	-200.000	-0.015	0.224
-679.222	123.840	-0.142	0.179
-678.208	-48.647	-0.157	0.076
-677.193	-200.000	-0.003	-0.048
-676.178	116.882	-0.312	0.384
-675.164	800.000	0.034	0.101
-674.149	800.000	-0.023	0.066
-673.135	103.235	-0.293	-0.345
-672.120	-9.593	-0.176	0.118
-671.105	-41.417	0.435	0.224
-670.091	-82.557	0.132	0.043
-669.076	175.864	-0.240	-0.349
-668.062	25.880	-0.369	0.309
-667.047	451.508	-0.165	0.366
-666.032	-123.128	0.138	0.022
-665.018	-200.000	-0.372	0.001
-664.003	800.000	-0.037	0.162
-662.989	-200.000	0.006	-0.082
-661.974	-200.000	0.073	0.365
-660.959	371.821	0.094	0.192
-659.945	-103.584	-0.311	-0.073
-658.930	-22.005	0.229	0.140
-657.916	-39.088	-0.195	-0.103
-656.901	-163.624	0.198	0.009
-655.886	195.039	-0.046	0.070
-654.872	139.170	-0.350	-0.461
-653.857	5.460	-0.301	-0.222
-652.843	-63.164	0.401	-0.166
-651.828	165.920	0.106	-0.151
-650.814	400.057	0.241	-0.505
-649.799	-106.374	-0.223	0.050
-648.784	800.000	-0.103	-0.291
-647.770	-200.000	-0.004	0.269
-646.755	-69.749	0.247	0.094
-645.741	-200.000	0.025	0.337
-644.726	-53.102	-0.311	-0.143
-643.711	-200.000	0.008	0.296
-642.697	251.165	-0.020	-0.033
-641.682	55.277	-0.097	-0.093
-640.668	-148.063	-0.079	-0.007
-639.653	199.080	0.132	-0.202
-638.638	-200.000	0.106	0.553
-637.624	-169.163	0.392	0.015
-636.609	-34.791	-0.248	-0.136
-635.595	362.834	-0.069	0.138
-634.580	-176.277	-0.039	-0.001
-633.565	800.000	-0.037	-0.158
-632.551	-200.000	-0.053	0.247
-631.536	192.285	0.079	-0.120
-630.522	-82.078	0.174	0.057
-629.507	800.000	0.079	-0.282
-628.492	401.448	0.099	0.208
-627.478	-200.000	-0.050	0.276
-626.463	315.022	-0.113	-0.213
-625.449	2.237	0.150	-0.109
-624.434	66.661	0.128	0.130
-623.419	26.393	0.103	-0.086
-622.405	-200.000	0.001	0.102
-621.390	47.492	-0.195	0.182
-620.376	491.627	-0.106	0.242
-619.361	79.562	-0.203	-0.218
-618.346	525.684	0.035	0.083
-617.332	635.634	0.124	-0.316
-616.317	145.497	-0.061	-0.081
-615.303	-1.120	0.297	0.210
-614.288	9.886	0.117	-0.089
-613.273	-138.360	-0.145	-0.016
-612.259	-200.000	-0.023	-0.295
-611.244	-200.000	0.024	-0.300
-610.230	732.493	-0.049	-0.132
-609.215	357.900	0.110	0.219
-608.201	745.666	0.069	0.185
-607.186	-98.260	0.032	0.008
-606.171	-200.000	0.015	0.110
-605.157	-127.923	0.265	-0.038
-604.142	-70.608	-0.095	-0.036
-603.128	11.211	0.096	-0.074
-602.113	-31.946	0.193	0.108
-601.098	157.123	0.323	-0.447
-600.084	-57.205	0.140	-0.061
-599.069	47.731	0.157	0.147
-598.055	475.151	-0.066	-0.149
-597.040	-184.554	-0.230	-0.004
-596.025	86.077	-0.248	0.273
-595.011	-200.000	0.004	0.146
-593.996	135.956	-0.098	-0.127
-592.982	-90.169	-0.002	-0.001
-591.967	62.392	-0.066	0.066
-590.952	40.558	-0.167	0.151
-589.938	156.200	-0.075	0.103
-588.923	72.164	0.147	0.153
-587.909	-39.117	-0.108	-0.057
-586.894	-113.111	0.274	0.054
-585.879	-105.169	-0.379	-0.087
-584.865	-200.000	0.017	0.173
-583.850	-200.000	-0.030	0.255
-582.836	108.405	-0.220	-0.262
-581.821	-13.884	0.129	0.083
-580.806	-200.000	-0.082	0.384
-579.792	45.787	0.184	-0.170
-578.777	-174.345	0.129	-0.004
-577.763	800.000	0.102	0.331
-576.748	319.651	-0.143	0.270
-575.733	-133.061	-0.240	-0.030
-574.719	93.033	-0.057	0.064
-573.704	-105.937	-0.176	-0.039
-572.690	-117.987	-0.232	-0.041
-571.675	-95.924	0.470	0.125
-570.661	-62.217	-0.187	-0.078
-569.646	-60.376	-0.257	-0.109
-568.631	-200.000	-0.077	0.413
-567.617	262.247	-0.123	-0.213
-566.602	-0.107	-0.076	0.054
-565.588	-48.297	-0.159	-0.077
-564.573	59.771	-0.107	0.105
-563.558	-76.460	-0.271	-0.095
-562.544	-26.371	-0.039	0.023
-561.529	602.291	0.063	-0.156
-560.515	310.010	0.082	0.153
-559.500	335.230	-0.023	0.044
-558.485	800.000	-0.039	0.137
-557.471	-200.000	-0.006	-0.152
-556.456	508.635	-0.050	0.117
-555.442	-52.509	0.101	-0.047
-554.427	-101.597	-0.168	-0.041
-553.412	-117.601	0.197	-0.035
-552.398	-126.826	-0.149	0.022
-551.383	-3.596	0.193	0.134
-550.369	97.638	-0.072	0.083
-549.354	29.674	-0.037	-0.031
-548.339	-94.560	0.317	0.086
-547.325	-118.164	-0.400	0.071
-546.310	652.176	-0.146	-0.374
-545.296	408.421	-0.274	-0.578
-544.281	-200.000	0.021	-0.476
-543.266	-200.000	-0.028	-0.199
-542.252	-60.486	0.163	-0.069
-541.237	693.340	-0.076	-0.199
-540.223	632.508	0.118	-0.298
-539.208	8.855	-0.227	-0.171
-538.193	-14.275	0.158	0.102
-537.179	228.475	0.221	-0.358
-536.164	87.627	0.097	-0.107
-535.150	-200.000	-0.048	0.418
-534.135	-82.503	0.338	0.109
-533.121	125.452	-0.095	0.120
-532.106	-29.742	0.053	0.030
-531.091	800.000	0.138	-0.384
-530.077	-55.919	-0.264	0.118
-529.062	421.120	0.106	0.226
-528.048	-41.827	0.126	-0.064
-527.033	415.548	0.082	-0.173
-526.018	534.876	-0.042	0.098
-525.004	-200.000	-0.101	0.470
-523.989	118.211	-0.107	0.132
-522.975	-119.835	0.241	-0.041
-521.960	800.000	-0.072	0.262
-520.945	31.104	-0.034	-0.029
-519.931	381.714	-0.027	-0.056
-518.916	-200.000	0.009	0.059
-517.902	-83.958	-0.111	0.035
-516.887	-22.368	-0.290	-0.175
-515.872	46.855	-0.124	0.114
-514.858	13.879	-0.108	-0.083
-513.843	-97.729	0.230	-0.059
-512.829	222.315	-0.127	-0.204
-511.814	442.596	0.073	-0.160
-510.799	-185.577	0.019	-0.000
-509.785	68.483	-0.186	-0.190
-508.770	123.011	-0.052	0.064
-507.756	-132.255	0.171	-0.022
-506.741	800.000	-0.029	0.081
-505.726	-37.449	-0.218	-0.116
-504.712	195.868	0.032	-0.049
-503.697	-75.825	0.405	-0.143
-502.683	22.920	0.185	-0.151
-501.668	-129.715	0.105	-0.014
-500.653	-53.280	0.284	-0.130
-499.639	540.394	-0.103	-0.245
-498.624	-0.509	0.238	0.168
-497.610	800.000	-0.047	-0.144
-496.595	-200.000	-0.026	0.139
-495.581	575.530	0.052	-0.127
-494.566	-6.300	-0.210	0.142
-493.551	231.069	-0.157	0.256
-492.537	-31.976	0.138	0.077
-491.522	-104.701	-0.174	0.040
-490.508	800.000	-0.089	0.364
-489.493	-200.000	-0.004	0.019
-488.478	-128.760	0.085	-0.012
-487.464	-101.956	-0.280	0.067
-486.449	800.000	-0.062	0.255
-485.435	800.000	-0.051	-0.212
-484.420	237.023	0.055	-0.090
-483.405	221.705	-0.142	-0.227
-482.391	-1.211	-0.183	-0.128
-481.376	-41.944	0.091	-0.046
-480.362	87.093	-0.115	0.127
-479.347	390.966	-0.049	0.102
-478.332	77.409	-0.183	-0.194
-477.318	-131.437	0.191	0.025
-476.303	-55.884	0.242	0.108
-475.289	-86.164	-0.336	0.103
-474.274	259.461	-0.198	-0.339
-473.259	718.361	-0.122	-0.323
-472.245	-64.034	-0.148	-0.060
-471.230	-56.985	-0.041	0.018
-470.216	28.887	0.054	-0.045
-469.201	-110.446	-0.146	-0.030
-468.186	127.894	0.201	0.254
-467.172	-15.532	0.078	0.050
-466.157	126.230	0.060	0.075
-465.143	271.997	-0.112	-0.195
-464.128	-87.506	0.341	0.103
-463.113	719.549	0.096	-0.254
-462.099	-72.860	0.228	-0.083
-461.084	-98.048	-0.224	-0.057
-460.070	-95.033	0.143	0.038
-459.055	-20.089	-0.073	-0.045
-458.040	213.230	0.165	0.259
-457.026	-28.545	-0.120	-0.069
-456.011	-23.189	0.446	-0.267
-454.997	-200.000	-0.117	-0.550
-453.982	-200.000	0.038	-0.218
-452.968	-123.247	-0.275	0.044
-451.953	-86.756	0.165	-0.050
-450.938	67.118	-0.190	0.192
-449.924	-134.644	0.030	0.004
-448.909	-46.202	-0.326	0.159
-447.895	39.430	-0.344	0.306
-446.880	-169.504	0.450	-0.016
-445.865	-73.168	-0.189	0.069
-444.851	-65.778	0.056	-0.022
-443.836	-27.065	-0.416	-0.241
-442.822	142.675	0.100	0.132
-441.807	131.546	0.102	0.130
-440.792	800.000	-0.071	-0.213
-439.778	-154.336	0.147	-0.010
-438.763	392.336	-0.107	0.221
-437.749	-200.000	-0.027	-0.254
-436.734	50.724	-0.086	0.081
-435.719	-200.000	0.055	0.351
-434.705	-200.000	0.084	-0.459
-433.690	-42.401	-0.248	-0.125
-432.676	-200.000	0.064	-0.302
-431.661	-200.000	-0.014	0.276
-430.646	-2.741	-0.112	-0.078
-429.632	800.000	0.024	-0.093
-428.617	-200.000	-0.002	0.444
-427.603	455.139	0.062	-0.137
-426.588	-200.000	-0.034	0.222
-425.573	-15.038	-0.081	0.051
-424.559	765.762	0.007	0.018
-423.544	800.000	-0.046	0.185
-422.530	266.441	-0.098	0.171
-421.515	25.028	-0.124	0.102
-420.500	10.750	0.146	0.110
-419.486	-67.628	-0.253	-0.098
-418.471	-95.442	0.160	-0.043
-417.457	216.407	0.013	0.020
-416.442	-98.886	-0.252	-0.063
-415.428	412.947	-0.110	0.232
-414.413	446.119	-0.145	0.316
-413.398	-200.000	-0.019	-0.188
-412.384	-7.589	0.228	0.153
-411.369	-39.308	0.364	0.189
-410.355	453.582	0.039	0.086
-409.340	47.873	0.204	-0.189
-408.325	-200.000	-0.074	0.402
-407.311	800.000	-0.060	0.168
-406.296	800.000	0.073	-0.300
-405.282	232.669	0.088	0.143
-404.267	20.383	0.023	0.018
-403.252	-14.215	0.066	0.042
-402.238	88.716	0.152	-0.167
-401.223	123.615	-0.130	-0.161
-400.209	-115.070	-0.009	-0.002
-399.194	2.354	-0.117	0.084
-398.179	112.794	-0.220	-0.265
-397.165	-200.000	0.062	0.294
-396.150	212.989	0.071	0.111
-395.136	157.647	0.209	0.287
-394.121	800.000	-0.031	-0.088
-393.106	-148.536	0.194	-0.016
-392.092	-200.000	-0.027	0.153
-391.077	-77.702	0.237	-0.081
-390.063	303.660	0.160	0.294
-389.048	491.745	-0.136	0.308
-388.033	-195.249	-0.260	-0.002
-387.019	-68.847	0.113	0.043
-386.004	-200.000	-0.018	0.285
-384.990	-105.284	0.254	-0.057
-383.975	19.257	0.261	-0.208
-382.960	-200.000	-0.016	-0.138
-381.946	-155.620	0.366	0.023
-380.931	257.383	-0.136	-0.232
-379.917	-105.601	0.157	0.035
-378.902	-77.666	0.087	-0.030
-377.888	86.335	0.092	-0.100
-376.873	31.404	0.055	-0.047
-375.858	22.567	-0.140	0.114
-374.844	-65.745	0.127	-0.050
-373.829	-200.000	-0.016	0.398
-372.815	-52.684	0.175	-0.080
-371.800	116.216	-0.249	-0.303
-370.785	238.194	0.101	-0.167
-369.771	-200.000	-0.004	-0.070
-368.756	-87.632	0.176	0.053
-367.742	-200.000	-0.041	-0.292
-366.727	-85.955	-0.061	-0.019
-365.712	-200.000	0.039	0.190
-364.698	536.282	-0.108	-0.254
-363.683	87.992	-0.220	-0.242
-362.669	-74.593	0.286	0.102
-361.654	11.745	0.049	-0.037
-360.639	64.790	-0.186	-0.186
-359.625	-74.074	-0.225	-0.081
-358.610	779.028	-0.089	-0.240
-357.596	-200.000	0.017	-0.121
-356.581	-64.421	-0.291	-0.117
-355.566	-130.524	0.389	0.052
-354.552	382.876	-0.112	0.228
-353.537	123.183	-0.055	0.068
-352.523	-160.081	0.240	0.013
-351.508	-122.142	-0.076	-0.012
-350.493	-100.674	-0.091	-0.022
-349.479	-159.893	0.140	0.008
-348.464	201.033	-0.127	0.193
-347.450	164.538	-0.054	0.076
-346.435	-132.977	-0.270	0.034
-345.420	-19.962	-0.264	0.161
-344.406	-78.276	0.072	0.025
-343.391	-148.223	-0.211	-0.017
-342.377	-22.666	-0.165	-0.099
-341.362	156.948	0.138	-0.189
-340.348	-200.000	-0.010	-0.078
-339.333	302.883	0.115	0.211
-338.318	-85.947	0.146	0.045
-337.304	-46.423	0.147	-0.071
-336.289	122.883	-0.355	-0.439
-335.275	-200.000	0.000	-0.011
-334.260	432.464	-0.076	0.162
-333.245	351.347	0.079	-0.154
-332.231	-21.976	0.218	0.131
-331.216	-120.965	-0.215	0.036
-330.202	-88.677	-0.253	0.074
-329.187	-99.489	-0.204	-0.051
-328.172	-200.000	-0.040	0.444
-327.158	84.806	0.109	-0.118
-326.143	-200.000	-0.024	0.157
-325.129	-60.873	-0.062	-0.026
-324.114	-124.616	0.289	-0.044
-323.099	-71.080	0.261	-0.097
-322.085	-21.629	0.189	0.114
-321.070	61.685	-0.054	-0.053
-320.056	222.187	0.226	-0.359
-319.041	-13.190	0.027	-0.017
-318.026	132.204	-0.153	0.194
-317.012	-200.000	0.039	-0.230
-315.997	-53.981	-0.053	0.024
-314.983	-200.000	0.006	0.388
-313.968	800.000	0.061	0.190
-312.953	-200.000	0.002	-0.152
-311.939	122.146	0.098	-0.121
-310.924	105.276	-0.302	-0.353
-309.910	53.093	-0.264	-0.250
-308.895	-91.660	-0.410	0.115
-307.880	109.902	0.071	-0.085
-306.866	-32.383	0.242	-0.133
-305.851	-25.186	0.316	-0.185
-304.837	-29.934	0.143	-0.080
-303.822	-116.653	-0.215	0.039
-302.807	31.228	0.221	-0.187
-301.793	-91.836	0.136	-0.038
-300.778	-3.877	0.104	0.072
-299.764	-73.162	-0.280	0.101
-298.749	-142.088	0.219	-0.022
-297.735	800.000	-0.103	0.359
-296.720	59.162	-0.366	0.356
-295.705	-200.000	0.020	0.128
-294.691	-137.210	0.160	0.018
-293.676	800.000	0.096	0.319
-292.662	149.275	0.173	0.231
-291.647	35.525	-0.213	-0.185
-290.632	-70.750	0.246	-0.092
-289.618	20.572	-0.177	-0.142
-288.603	10.933	-0.086	0.065
-287.589	-127.805	0.303	-0.043
-286.574	-200.000	0.022	0.434
-285.559	-200.000	0.017	0.103
-284.545	210.133	-0.145	-0.224
-283.530	-200.000	-0.016	0.225
-282.516	-119.293	-0.077	-0.013
-281.501	-200.000	-0.014	-0.116
-280.486	-8.118	-0.190	-0.126
-279.472	138.465	-0.126	-0.163
-278.457	-84.885	0.214	0.066
-277.443	-136.315	-0.289	-0.033
-276.428	-136.784	0.437	0.050
-275.413	783.419	-0.095	0.257
-274.399	87.887	0.106	0.116
-273.384	128.395	0.174	0.219
-272.370	-6.496	0.300	-0.202
-271.355	800.000	-0.065	-0.221
-270.340	800.000	-0.087	-0.255
-269.326	-200.000	-0.091	0.399
-268.311	-92.474	-0.327	0.091
-267.297	119.279	-0.097	-0.118
-266.282	-73.939	0.170	0.061
-265.267	560.240	0.050	0.120
-264.253	58.774	-0.129	0.125
-263.238	35.937	0.168	-0.146
-262.224	-52.168	-0.311	-0.142
-261.209	267.872	0.123	-0.212
-260.195	-10.807	0.148	0.097
-259.180	-141.975	-0.229	-0.023
-258.165	-200.000	-0.017	-0.308
-257.151	-19.315	0.294	0.180
-256.136	-82.255	-0.088	0.028
-255.122	214.584	-0.224	-0.350
-254.107	800.000	0.096	0.314
-253.092	473.185	-0.118	0.263
-252.078	-33.883	0.287	-0.156
-251.063	-200.000	0.012	0.122
-250.049	-30.933	-0.190	-0.106
-249.034	-2.034	0.138	0.096
-248.019	338.074	0.088	0.168
-247.005	-129.274	0.183	0.025
-245.990	277.188	0.095	0.167
-244.976	152.443	0.051	0.068
-243.961	-54.730	-0.210	0.094
-242.946	272.747	0.075	-0.130
-241.932	-187.385	0.202	0.003
-240.917	-45.353	-0.182	-0.089
-239.903	630.855	0.084	0.210
-238.888	107.301	-0.149	0.174
-237.873	-200.000	-0.104	0.520
-236.859	-64.996	0.178	-0.071
-235.844	-139.578	-0.157	-0.016
-234.830	592.149	-0.078	-0.190
-233.815	86.707	-0.036	-0.039
-232.800	-200.000	-0.000	0.043
-231.786	800.000	-0.010	-0.043
-230.771	-200.000	-0.024	-0.125
-229.757	-200.000	0.033	0.194
-228.742	-200.000	-0.020	0.189
-227.727	800.000	0.052	-0.212
-226.713	438.082	-0.104	-0.224
-225.698	-8.359	0.342	0.227
-224.684	-131.997	0.037	-0.005
-223.669	219.991	0.139	-0.220
-222.655	-76.521	-0.109	-0.038
-221.640	-200.000	0.016	0.385
-220.625	-83.160	0.110	-0.035
-219.611	-10.662	-0.256	0.166
-218.596	-32.315	0.260	-0.143
-217.582	-93.064	0.090	0.025
-216.567	-200.000	0.026	0.419
-215.552	149.974	0.175	-0.233
-214.538	800.000	-0.084	0.246
-213.523	-152.772	0.317	0.022
-212.509	385.216	0.142	0.287
-211.494	-123.110	0.083	0.013
-210.479	237.728	0.143	0.233
-209.465	422.513	0.094	-0.198
-208.450	-94.383	0.112	0.030
-207.436	-140.115	-0.280	0.029
-206.421	-34.256	-0.177	-0.095
-205.406	69.434	0.204	0.206
-204.392	-200.000	0.031	-0.214
-203.377	13.780	-0.107	-0.082
-202.363	-123.513	0.105	0.016
-201.348	-41.590	-0.107	0.054
-200.333	-50.148	0.180	0.084
-199.319	762.229	0.096	0.255
-198.304	-200.000	-0.031	-0.147
-197.290	-200.000	-0.010	-0.133
-196.275	-17.743	0.311	0.192
-195.260	-13.869	-0.172	-0.110
-194.246	800.000	0.064	-0.228
-193.231	-200.000	0.003	0.243
-192.217	69.334	0.050	-0.051
-191.202	-40.270	-0.243	-0.124
-190.187	-200.000	-0.089	-0.489
-189.173	162.249	0.129	-0.178
-188.158	-200.000	-0.043	-0.248
-187.144	-199.541	0.175	0.001
-186.129	291.194	0.049	-0.088
-185.114	-200.000	0.003	-0.320
-184.100	-66.457	-0.087	0.034
-183.085	800.000	0.093	-0.296
-182.071	193.086	0.148	-0.219
-181.056	567.915	0.085	-0.203
-180.042	-28.584	-0.136	-0.077
-179.027	634.021	-0.058	-0.145
-178.012	55.929	-0.051	0.049
-176.998	-56.985	0.248	0.108
-175.983	-200.000	0.002	-0.189
-174.969	559.056	0.072	-0.170
-173.954	-200.000	0.058	-0.312
-172.939	150.216	-0.111	0.149
-171.925	72.761	0.299	-0.307
-170.910	-200.000	0.008	0.106
-169.896	164.169	0.083	-0.114
-168.881	258.244	-0.076	-0.128
-167.866	-200.000	-0.013	0.059
-166.852	526.222	0.014	-0.033
-165.837	-58.321	-0.106	0.045
-164.823	-86.085	-0.212	-0.064
-163.808	-200.000	0.006	0.046
-162.793	-57.711	-0.252	-0.108
-161.779	-86.407	0.063	0.019
-160.764	-61.569	-0.312	0.129
-159.750	487.364	-0.117	-0.263
-158.735	251.065	0.155	-0.258
-157.720	420.881	0.029	0.060
-156.706	108.069	0.184	0.216
-155.691	-21.938	-0.241	-0.144
-154.677	800.000	0.034	0.101
-153.662	-200.000	-0.067	0.432
-152.647	-5.040	-0.193	0.130
-151.633	431.110	0.058	0.123
-150.618	-94.921	0.206	-0.055
-149.604	-29.205	0.046	-0.026
-148.589	88.810	-0.092	-0.101
-147.574	-200.000	0.074	-0.477
-146.560	352.849	-0.142	0.276
-145.545	32.641	0.209	0.178
-144.531	43.150	-0.219	-0.197
-143.516	-200.000	0.014	-0.317
-142.502	396.746	0.084	-0.172
-141.487	-200.000	-0.058	-0.348
-140.472	800.000	-0.037	0.148
-139.458	56.128	0.189	0.180
-138.443	-27.434	-0.036	0.020
-137.429	-200.000	0.004	-0.296
-136.414	-96.207	0.139	0.036
-135.399	-200.000	-0.022	0.140
-134.385	-200.000	0.003	0.215
-133.370	238.647	-0.165	0.270
-132.356	266.186	-0.156	0.268
-131.341	-200.000	-0.012	-0.135
-130.326	-114.744	-0.059	-0.011
-129.312	462.742	0.078	0.170
-128.297	-200.000	0.010	0.210
-127.283	-142.953	0.144	-0.014
-126.268	-14.315	-0.109	0.069
-125.253	354.044	-0.130	0.254
-124.239	-200.000	0.029	-0.228
-123.224	-29.252	0.156	-0.088
-122.210	-44.489	0.113	-0.055
-121.195	-161.597	-0.121	-0.006
-120.180	-200.000	0.018	-0.195
-119.166	-88.605	0.211	-0.062
-118.151	82.574	0.075	0.080
-117.137	-42.370	0.526	-0.263
-116.122	-148.192	-0.270	-0.022
-115.107	-89.981	-0.111	0.032
-114.093	-94.868	-0.224	-0.059
-113.078	40.057	-0.185	0.163
-112.064	800.000	-0.077	-0.265
-111.049	45.935	-0.106	0.096
-110.034	-98.999	0.197	-0.049
-109.020	70.226	0.073	0.074
-108.005	-4.866	0.080	-0.054
-106.991	784.533	0.069	-0.184
-105.976	111.446	-0.143	0.169
-104.962	44.744	0.059	-0.053
-103.947	-127.209	0.085	-0.012
-102.932	100.186	0.221	0.251
-101.918	800.000	-0.023	0.077
-100.903	-38.335	0.346	0.180
-99.889	666.132	0.042	0.106
-98.874	-200.000	-0.046	-0.303
-97.859	-200.000	-0.020	0.173
-96.845	-53.171	-0.258	-0.116
-95.830	800.000	-0.038	0.142
-94.816	-2.196	0.179	-0.123
-93.801	-200.000	-0.085	0.403
-92.786	5.795	0.185	0.134
-91.772	-112.433	0.511	0.100
-90.757	-200.000	-0.023	-0.190
-89.743	-149.523	0.257	0.020
-88.728	98.140	-0.200	0.225
-87.713	-98.334	-0.074	-0.019
-86.699	6.353	-0.149	-0.108
-85.684	248.303	0.140	-0.231
-84.670	489.707	0.152	-0.341
-83.655	520.151	-0.080	0.183
-82.640	-200.000	-0.060	0.376
-81.626	-200.000	0.012	0.162
-80.611	649.903	0.090	0.224
-79.597	-200.000	-0.033	0.284
-78.582	2.245	-0.315	-0.223
-77.567	-200.000	-0.005	-0.101
-76.553	29.236	0.195	-0.162
-75.538	214.839	-0.064	-0.100
-74.524	-20.135	0.170	-0.103
-73.509	800.000	0.142	0.423
-72.494	-200.000	0.002	0.236
-71.480	800.000	0.044	-0.165
-70.465	139.662	-0.064	-0.082
-69.451	-113.811	0.110	0.021
-68.436	207.197	0.093	-0.143
-67.422	353.697	-0.072	0.140
-66.407	560.860	-0.084	0.199
-65.392	-66.202	-0.216	-0.084
-64.378	-200.000	-0.029	0.153
-63.363	-144.740	-0.150	-0.014
-62.349	-200.000	-0.018	-0.329
-61.334	87.918	-1.072	-1.163
-60.319	41.673	0.753	0.668
-59.305	800.000	-0.376	-1.502
-58.290	152.283	0.928	1.239
-57.276	800.000	0.539	1.685
-56.261	-200.000	113.881	640.795
-55.246	476.542	1499.015	3314.701
-54.232	149.417	2660.789	3524.508
-53.217	102.562	2139.508	2447.845
-52.203	38.312	1589.433	1384.750
-51.188	30.504	1335.435	1116.716
-50.173	27.638	1297.372	1068.087
-49.159	54.301	1353.044	1274.016
-48.144	52.977	1367.745	1279.912
-47.130	30.774	1323.579	1108.234
-46.115	27.360	1305.501	1072.970
-45.100	27.201	1300.547	1067.918
-44.086	27.066	1298.270	1065.218
-43.071	27.053	1295.836	1063.101
-42.057	27.082	1293.703	1061.479
-41.042	27.208	1292.064	1060.825
-40.027	27.188	1290.291	1059.211
-39.013	27.195	1288.708	1057.910
-37.998	27.106	1287.012	1055.963
-36.984	27.239	1284.451	1054.588
-35.969	27.157	1283.694	1053.452
-34.954	27.255	1281.869	1052.480
-33.940	27.216	1280.701	1051.252
-32.925	27.375	1278.896	1050.648
-31.911	27.391	1277.604	1049.634
-30.896	27.336	1276.118	1048.057
-29.881	27.367	1274.934	1047.222
-28.867	27.422	1272.959	1045.873
-27.852	27.376	1271.632	1044.477
-26.838	27.336	1270.443	1043.232
-25.823	27.300	1269.670	1042.345
-24.809	27.324	1268.160	1041.204
-23.794	27.241	1266.860	1039.621
-22.779	27.375	1265.201	1038.985
-21.765	27.275	1264.218	1037.562
-20.750	27.168	1263.433	1036.271
-19.736	27.281	1261.500	1035.288
-18.721	27.175	1260.629	1033.926
-17.706	27.252	1259.196	1033.146
-16.692	27.226	1258.254	1032.187
-15.677	27.149	1257.079	1030.742
-14.663	27.264	1255.613	1030.152
-13.648	27.166	1255.332	1029.329
-12.633	27.279	1253.727	1028.607
-11.619	27.260	1253.185	1028.017
-10.604	27.253	1252.076	1027.024
-9.590	27.254	1251.278	1026.333
-8.575	27.227	1250.418	1025.436
-7.560	27.142	1249.472	1024.142
-6.546	27.203	1248.390	1023.555
-5.531	27.148	1247.920	1022.825
-4.517	27.231	1246.465	1022.058
-3.502	27.299	1245.528	1021.630
-2.487	27.189	1244.775	1020.355
-1.473	27.282	1240.526	1017.352
-0.458	25.670	1226.241	996.675
0.556	20.910	1210.111	960.974
1.571	17.429	1216.454	946.597
2.586	16.740	1231.283	954.168
3.600	16.803	1220.443	946.041
4.615	15.137	1154.334	885.906
5.629	11.642	1087.436	817.051
6.644	9.950	1071.330	796.539
7.659	9.730	1068.941	793.608
8.673	9.780	1067.588	792.783
9.688	9.761	1066.164	791.559
10.702	9.946	1063.884	790.703
11.717	12.110	1065.948	802.774
12.731	15.494	1070.843	823.002
13.746	17.529	1073.288	834.794
14.761	17.467	1072.868	834.091
15.775	16.684	1070.350	828.230
16.790	15.392	1068.505	820.414
17.804	14.804	1067.076	816.374
18.819	14.369	1065.597	813.048
19.834	14.095	1064.745	810.987
20.848	13.941	1063.406	809.147
21.863	13.591	1062.959	807.029
22.877	13.617	1062.286	806.575
23.892	13.558	1061.519	805.635
24.907	13.489	1060.794	804.675
25.921	13.537	1059.647	803.971
26.936	13.662	1058.362	803.528
27.950	13.715	1056.817	802.542
28.965	13.656	1055.732	801.363
29.980	13.768	1053.850	800.404
30.994	13.798	1052.692	799.599
32.009	13.776	1051.775	798.722
33.023	13.745	1051.140	798.020
34.038	13.732	1050.155	797.140
35.053	13.758	1048.977	796.299
36.067	13.646	1047.946	794.911
37.082	13.702	1047.461	794.738
38.096	13.763	1046.219	794.017
39.111	13.683	1045.920	793.339
40.126	13.555	1044.698	791.730
41.140	13.507	1043.449	790.486
42.155	13.557	1042.194	789.703
43.169	13.398	1041.116	788.060
44.184	13.546	1040.015	787.859
45.199	13.358	1038.857	786.018
46.213	13.473	1038.039	785.878
47.228	13.598	1036.774	785.441
48.242	13.578	1035.851	784.579
49.257	13.601	1034.998	783.972
50.271	13.742	1033.717	783.600
51.286	13.674	1033.163	782.789
52.301	13.580	1032.261	781.592
53.315	13.516	1031.447	780.607
54.330	13.559	1030.074	779.697
55.344	13.418	1029.341	778.411
56.359	13.467	1028.414	777.873
57.374	13.688	1027.027	777.794
58.388	13.589	1026.121	776.574
59.403	13.430	1025.895	775.588
60.417	13.397	1024.794	774.533
61.432	13.497	1024.244	774.516
62.447	13.415	1023.159	773.243
63.461	13.426	1022.104	772.428
64.476	13.316	1021.718	771.555
65.490	13.421	1020.640	771.164
66.505	13.524	1019.799	770.938
67.520	13.515	1019.353	770.492
68.534	13.469	1018.516	769.575
69.549	13.399	1017.976	768.775
70.563	13.427	1017.063	768.151
71.578	13.339	1015.739	766.675
72.593	13.159	1015.459	765.560
73.607	13.254	1014.866	765.486
74.622	13.244	1014.169	764.846
75.636	13.329	1013.544	764.698
76.651	13.361	1012.742	764.174
77.666	13.213	1012.416	763.177
78.680	13.294	1011.628	762.891
79.695	13.311	1010.657	762.166
80.709	13.299	1010.202	761.701
81.724	13.408	1009.656	761.725
82.739	13.463	1008.840	761.295
83.753	13.628	1007.895	761.272
84.768	13.681	1007.084	760.838
85.782	13.760	1006.475	760.672
86.797	13.678	1005.328	759.359
87.812	13.579	1004.445	758.172
88.826	13.776	1003.129	758.012
89.841	13.630	1002.597	756.879
90.855	13.801	1001.452	756.726
91.870	13.745	1000.719	755.850
92.884	13.799	999.987	755.474
93.899	13.774	999.318	754.788
94.914	13.889	998.323	754.496
95.928	13.756	997.486	753.190
96.943	13.830	996.769	752.920
97.957	13.694	995.445	751.235
98.972	13.701	995.205	751.019
99.987	13.879	993.810	750.706
101.001	13.752	993.165	749.579
102.016	13.724	992.094	748.579
103.030	14.008	991.066	749.018
104.045	13.688	990.673	747.209
105.060	13.708	989.686	746.490
106.074	13.548	989.165	745.310
107.089	13.455	987.943	743.907
108.103	13.424	986.932	742.939
109.118	13.486	986.430	742.777
110.133	13.529	985.301	742.053
111.147	13.521	984.427	741.294
112.162	13.515	983.237	740.302
113.176	13.593	982.612	740.116
114.191	13.651	981.622	739.563
115.206	13.630	980.999	738.935
116.220	13.547	980.476	738.105
117.235	13.497	979.291	736.928
118.249	13.611	978.327	736.645
119.264	13.532	977.559	735.651
120.279	13.599	976.821	735.328
121.293	13.605	975.988	734.661
122.308	13.522	974.989	733.476
123.322	13.584	974.279	733.150
124.337	13.531	972.861	731.784
125.352	13.558	971.952	731.154
126.366	13.527	971.206	730.394
127.381	13.604	970.331	730.008
128.395	13.603	969.137	729.040
129.410	13.548	968.282	728.093
130.424	13.544	967.529	727.444
131.439	13.716	966.930	727.686
132.454	13.597	966.242	726.581
133.468	13.621	965.367	725.963
134.483	13.664	964.570	725.488
135.497	13.782	963.246	724.945
136.512	13.675	962.408	723.781
137.527	13.800	961.697	723.727
138.541	13.623	961.094	722.438
139.556	13.661	960.341	721.976
140.570	13.774	959.786	721.983
141.585	13.811	958.941	721.445
142.600	13.915	958.068	721.176
143.614	13.908	957.181	720.415
144.629	13.913	956.425	719.804
145.643	13.773	955.566	718.486
146.658	13.873	954.404	717.983
147.673	13.834	953.356	716.961
148.687	13.792	953.072	716.506
149.702	13.684	951.919	715.109
150.716	13.755	951.246	714.848
151.731	13.715	950.721	714.217
152.746	13.747	949.785	713.588
153.760	13.974	948.813	713.770
154.775	13.808	948.767	712.957
155.789	13.863	948.008	712.562
156.804	13.889	947.262	712.049
157.819	13.981	946.459	711.774
158.833	14.062	945.778	711.547
159.848	13.940	945.349	710.641
160.862	14.070	944.295	710.341
161.877	13.889	942.795	708.377
162.892	13.826	942.074	707.503
163.906	13.797	941.185	706.650
164.921	13.974	940.718	706.989
165.935	13.935	939.461	705.816
166.950	13.791	938.999	704.796
167.964	13.886	938.031	704.411
168.979	13.973	936.780	703.778
169.994	13.798	936.396	702.684
171.008	13.945	935.513	702.581
172.023	14.021	934.906	702.387
173.037	14.004	934.314	701.808
174.052	14.013	933.445	701.130
175.067	14.024	932.655	700.521
176.081	13.926	932.144	699.663
177.096	13.982	931.652	699.467
178.110	13.908	931.243	698.786
179.125	14.008	930.623	698.681
180.140	14.064	929.766	698.209
181.154	14.035	929.757	698.018
182.169	14.178	928.983	697.975
183.183	14.225	928.527	697.769
184.198	14.072	927.468	696.273
185.213	14.166	927.207	696.408
186.227	14.219	926.288	695.876
187.242	14.161	925.653	695.095
188.256	14.323	924.972	695.201
189.271	14.389	924.327	694.929
190.286	14.085	923.569	693.030
191.300	13.926	922.759	691.701
192.315	14.009	922.122	691.504
193.329	13.906	921.771	690.754
194.344	14.038	920.975	690.642
195.359	14.050	920.714	690.438
196.373	14.089	920.145	690.109
197.388	14.358	919.842	690.937
198.402	14.318	919.131	690.179
199.417	14.411	918.274	689.858
200.432	14.390	918.193	689.649
201.446	14.438	917.638	689.369
202.461	14.472	916.793	688.814
203.475	14.533	916.081	688.468
204.490	14.362	915.553	687.306
205.504	14.489	914.741	687.162
206.519	14.339	914.047	685.961
207.534	14.367	913.394	685.524
208.548	14.261	912.812	684.590
209.563	14.451	912.166	684.827
210.577	14.560	910.960	684.308
211.592	14.535	910.637	683.903
212.607	14.624	909.960	683.700
213.621	14.514	909.464	682.814
214.636	14.523	908.525	682.087
215.650	14.513	908.223	681.759
216.665	14.729	906.805	681.516
217.680	14.634	906.452	680.801
218.694	14.707	905.705	680.478
219.709	14.638	904.995	679.605
220.723	14.743	904.652	679.715
221.738	14.666	903.954	678.814
222.753	14.747	902.741	678.173
223.767	14.732	902.510	677.878
224.782	14.783	902.050	677.681
225.796	14.879	901.429	677.541
226.811	14.696	901.455	676.761
227.826	14.706	900.250	675.838
228.840	14.834	898.980	675.339
229.855	14.817	898.341	674.731
230.869	14.769	897.711	674.005
231.884	14.684	897.430	673.393
232.899	14.697	896.497	672.685
233.913	14.722	895.626	672.073
234.928	14.735	895.188	671.735
235.942	14.696	894.443	670.962
236.957	14.736	894.022	670.748
237.972	14.709	893.271	670.016
238.986	14.748	892.501	669.537
240.001	14.767	892.203	669.329
241.015	14.896	891.218	669.048
242.030	14.918	890.671	668.664
243.045	14.895	890.178	668.142
244.059	14.891	889.978	667.918
245.074	14.859	889.162	667.120
246.088	14.857	888.781	666.766
247.103	15.100	887.360	666.607
248.117	14.982	887.383	666.095
249.132	15.230	886.562	666.411
250.147	15.298	885.432	665.771
251.161	15.207	885.348	665.288
252.176	15.286	884.404	664.832
253.190	15.254	884.127	664.439
254.205	15.349	883.370	664.187
255.220	15.279	882.973	663.554
256.234	15.328	882.221	663.123
257.249	15.350	881.291	662.453
258.263	15.337	880.353	661.637
259.278	15.436	880.164	661.825
260.293	15.381	879.612	661.137
261.307	15.486	878.956	660.997
262.322	15.644	878.189	660.985
263.336	15.609	877.450	660.231
264.351	15.552	877.189	659.751
265.366	15.523	876.339	658.941
266.380	15.573	876.083	658.885
267.395	15.493	874.886	657.614
268.409	15.393	874.607	656.956
269.424	15.458	873.690	656.461
270.439	15.538	872.736	656.001
271.453	15.440	872.131	655.104
272.468	15.493	871.857	655.048
273.482	15.538	871.181	654.658
274.497	15.607	870.311	654.214
275.512	15.519	869.816	653.441
276.526	15.536	869.704	653.368
277.541	15.622	869.225	653.282
278.555	15.624	868.353	652.579
279.570	15.826	867.542	652.693
280.585	15.652	867.042	651.585
281.599	15.732	865.835	650.929
282.614	15.712	865.495	650.540
283.628	15.547	865.028	649.493
284.643	15.665	864.192	649.265
285.657	15.736	863.797	649.184
286.672	15.694	863.312	648.599
287.687	15.773	862.624	648.331
288.701	15.657	862.630	647.828
289.716	15.714	862.005	647.525
290.730	15.864	861.026	647.307
291.745	15.716	860.485	646.273
292.760	15.850	859.987	646.356
293.774	15.931	859.145	645.979
294.789	16.014	858.587	645.822
295.803	15.922	857.950	644.931
296.818	15.852	857.262	644.089
297.833	15.896	856.132	643.350
298.847	15.900	855.908	643.141
299.862	16.145	855.130	643.434
300.876	16.029	854.576	642.519
301.891	15.991	854.092	641.952
302.906	16.029	853.840	641.852
303.920	16.043	853.102	641.292
304.935	16.147	852.751	641.369
305.949	16.093	851.752	640.357
306.964	15.996	851.464	639.714
307.979	16.031	850.802	639.292
308.993	16.254	850.143	639.584
310.008	16.217	849.391	638.823
311.022	16.244	849.053	638.613
312.037	16.101	848.723	637.767
313.052	16.095	847.900	637.071
314.066	16.114	847.487	636.775
315.081	16.182	846.838	636.489
316.095	16.061	846.282	635.559
317.110	16.128	845.510	635.174
318.125	16.006	845.356	634.543
319.139	16.175	844.667	634.608
320.154	16.152	844.315	634.200
321.168	16.251	843.691	634.045
322.183	16.259	842.989	633.493
323.197	16.278	842.445	633.101
324.212	16.107	842.704	632.598
325.227	16.238	841.526	632.148
326.241	16.192	841.114	631.607
327.256	16.191	840.312	630.945
328.270	16.299	840.036	631.087
329.285	16.279	839.175	630.312
330.300	16.275	838.506	629.736
331.314	16.255	838.322	629.470
332.329	16.341	838.041	629.522
333.343	16.385	837.424	629.167
334.358	16.339	837.215	628.785
335.373	16.471	836.459	628.650
336.387	16.384	836.344	628.186
337.402	16.443	836.038	628.120
338.416	16.503	835.805	628.111
339.431	16.500	835.354	627.707
340.446	16.561	834.678	627.370
341.460	16.504	834.738	627.149
342.475	16.678	834.234	627.359
343.489	16.659	833.719	626.846
344.504	16.799	832.667	626.517
345.519	16.644	832.145	625.493
346.533	16.806	832.053	625.968
347.548	16.685	831.506	625.057
348.562	16.647	830.992	624.472
349.577	16.544	830.162	623.415
350.592	16.574	829.736	623.149
351.606	16.737	828.903	623.068
352.621	16.541	828.412	621.926
353.635	16.575	827.775	621.516
354.650	16.818	826.819	621.634
355.665	16.842	826.048	621.088
356.679	16.667	826.157	620.475
357.694	16.904	824.881	620.328
358.708	16.816	824.405	619.595
359.723	16.754	824.243	619.189
360.738	16.845	823.432	618.859
361.752	16.796	822.941	618.256
362.767	16.877	822.731	618.339
363.781	16.920	822.024	617.910
364.796	17.049	821.415	617.866
365.810	17.104	821.152	617.813
366.825	17.165	820.368	617.392
367.840	17.024	820.557	616.966
368.854	17.042	819.941	616.513
369.869	17.064	819.050	615.867
370.883	17.047	818.885	615.630
371.898	16.994	818.921	615.410
372.913	17.291	817.897	615.661
373.927	17.079	818.128	615.013
374.942	17.222	817.350	614.889
375.956	17.103	816.990	614.134
376.971	17.199	816.246	613.867
377.986	17.449	815.558	614.198
379.000	17.485	815.235	614.032
380.015	17.414	814.965	613.516
381.029	17.473	814.345	613.211
382.044	17.244	813.959	612.039
383.059	17.442	813.013	611.984
384.073	17.394	812.166	611.121
385.088	17.375	811.872	610.779
386.102	17.385	811.423	610.422
387.117	17.201	810.993	609.384
388.132	17.333	810.354	609.325
389.146	17.376	809.637	608.886
390.161	17.316	809.414	608.448
391.175	17.409	809.023	608.433
392.190	17.333	808.651	607.829
393.205	17.333	808.137	607.388
394.219	17.314	807.907	607.092
395.234	17.187	807.348	606.165
396.248	17.262	807.054	606.162
397.263	17.276	806.105	605.445
398.278	17.203	806.193	605.195
399.292	17.308	805.530	605.018
400.307	17.263	805.256	604.597
401.321	17.332	804.887	604.513
402.336	17.449	804.044	604.243
403.350	17.401	803.617	603.697
404.365	17.446	803.361	603.613
405.380	17.490	802.751	603.256
406.394	17.594	801.966	602.979
407.409	17.601	801.766	602.800
408.423	17.646	801.790	602.927
409.438	17.645	801.279	602.482
410.453	17.866	800.650	602.737
411.467	17.857	800.064	602.213
412.482	17.845	799.737	601.870
413.496	17.856	799.763	601.876
414.511	17.907	799.076	601.485
415.526	17.774	798.738	600.710
416.540	17.807	798.211	600.375
417.555	17.691	797.783	599.594
418.569	17.994	797.157	600.133
419.584	17.893	796.667	599.358
420.599	17.968	796.443	599.398
421.613	111.895	1295.028	1477.003
422.628	96.292	1367.659	1477.081
