DTS Sentinel unit serial number:	SN413079Multiplexer serial number:	ORYXHardware model number:	OX4-SRSoftware version number:	ORYX F/W v4.00 Oryx Data Collector v3.7.2.0data status	okinstallation	princeton_trtdifferential loss correction	single-endedforward channel	channel 1reverse channel	N/Adate	2019/09/19time	01:58:35forward acquisition time	60.00reverse acquisition time	0.00gamma	496.2192k internal	0.2344k external	0.2344temperature offset calibration	1.0018default loss term (dB/km)	0.3790temperature slope calibration	1.0000multiplexer offset coefficient	1.0000multiplexer slope coefficient	1.0000fibre end	0.00T internal ref (°C)	21.25T ext. ref 1 (°C)	0.68T ext. ref 2 (°C)	14.91length (m)	temperature (°C)	Stokes	anti-Stokes-747.200	800.000	0.053	-0.180
-746.185	-158.471	-0.138	0.008
-745.171	-160.985	0.194	-0.010
-744.156	-200.000	0.015	-0.185
-743.142	-200.000	0.023	-0.452
-742.127	-132.271	-0.146	0.019
-741.112	-57.230	-0.101	-0.045
-740.098	63.792	-0.106	0.107
-739.083	-200.000	0.090	0.431
-738.069	800.000	-0.038	-0.123
-737.054	199.001	-0.097	0.149
-736.039	-24.194	-0.121	0.072
-735.025	78.791	0.143	0.154
-734.010	800.000	0.098	-0.316
-732.996	101.079	-0.128	-0.149
-731.981	-118.785	-0.124	-0.022
-730.966	73.118	-0.103	-0.108
-729.952	102.358	0.116	-0.135
-728.937	278.768	0.162	-0.288
-727.923	88.894	-0.111	-0.123
-726.908	-48.341	0.061	0.029
-725.894	-32.629	-0.384	-0.214
-724.879	303.298	-0.252	0.467
-723.864	111.471	-0.241	-0.290
-722.850	200.724	0.178	0.274
-721.835	-66.105	-0.561	0.224
-720.821	-65.456	-0.294	-0.118
-719.806	-89.882	0.072	-0.021
-718.791	713.018	0.058	0.154
-717.777	277.244	-0.106	0.188
-716.762	146.677	-0.178	-0.240
-715.748	-200.000	0.012	-0.149
-714.733	-200.000	0.074	0.537
-713.718	375.604	-0.056	-0.113
-712.704	-122.116	-0.065	-0.011
-711.689	-88.471	0.097	0.029
-710.675	-78.835	0.135	-0.046
-709.660	42.145	0.187	0.170
-708.645	98.403	-0.100	-0.115
-707.631	700.999	-0.082	-0.216
-706.616	-4.928	0.253	-0.174
-705.602	51.693	-0.128	-0.122
-704.587	40.967	0.108	-0.098
-703.572	590.676	0.105	0.260
-702.558	-200.000	-0.052	-0.301
-701.543	-17.001	0.133	0.084
-700.529	29.434	0.203	-0.173
-699.514	-55.143	0.169	-0.076
-698.499	-11.755	0.165	-0.108
-697.485	-200.000	0.035	-0.218
-696.470	382.091	-0.083	0.171
-695.456	-27.215	0.275	-0.160
-694.441	-29.435	0.177	0.101
-693.426	-200.000	-0.001	-0.395
-692.412	-200.000	-0.028	0.248
-691.397	-68.356	0.063	0.024
-690.383	-66.273	-0.318	-0.126
-689.368	39.874	-0.284	-0.255
-688.354	800.000	0.064	-0.185
-687.339	-80.289	0.197	-0.066
-686.324	-67.782	0.127	0.049
-685.310	13.641	0.095	0.074
-684.295	-25.169	0.259	-0.153
-683.281	-200.000	0.022	-0.237
-682.266	-60.012	-0.274	-0.117
-681.251	8.270	0.112	0.084
-680.237	-27.117	0.195	0.114
-679.222	46.258	0.158	0.146
-678.208	-86.453	0.322	0.099
-677.193	-180.436	-0.474	-0.010
-676.178	65.313	0.108	0.109
-675.164	253.853	0.102	0.174
-674.149	-5.754	0.146	0.099
-673.135	-87.203	-0.356	-0.108
-672.120	-36.685	0.039	0.021
-671.105	-200.000	-0.017	-0.094
-670.091	800.000	-0.113	-0.483
-669.076	234.520	0.021	-0.035
-668.062	55.698	0.110	-0.106
-667.047	553.468	-0.125	0.301
-666.032	-136.552	0.080	0.009
-665.018	221.319	0.072	0.116
-664.003	800.000	0.039	-0.167
-662.989	150.659	-0.093	-0.126
-661.974	-17.948	-0.301	0.189
-660.959	-85.723	0.260	-0.080
-659.945	-200.000	-0.042	-0.226
-658.930	-181.886	0.045	0.001
-657.916	39.284	-0.172	-0.154
-656.901	6.630	0.194	-0.144
-655.886	-170.566	0.243	-0.008
-654.872	21.656	-0.031	-0.025
-653.857	92.570	0.093	0.104
-652.843	129.781	0.193	0.247
-651.828	367.315	0.226	0.455
-650.814	-200.000	-0.058	0.313
-649.799	25.822	-0.225	0.187
-648.784	30.965	0.116	-0.099
-647.770	122.817	-0.036	-0.045
-646.755	-32.789	-0.259	-0.143
-645.741	-78.185	0.121	-0.042
-644.726	-200.000	-0.025	-0.182
-643.711	81.802	0.273	0.295
-642.697	-5.331	-0.267	0.183
-641.682	191.915	-0.076	0.115
-640.668	-9.028	0.091	-0.060
-639.653	-200.000	-0.004	-0.022
-638.638	-112.694	0.222	-0.044
-637.624	424.495	0.049	-0.104
-636.609	-157.059	-0.305	0.019
-635.595	-99.708	0.322	0.080
-634.580	-27.776	-0.281	-0.163
-633.565	-13.725	-0.044	-0.028
-632.551	-200.000	-0.006	0.062
-631.536	-99.506	0.339	-0.085
-630.522	-44.416	-0.219	-0.109
-629.507	-200.000	0.049	0.298
-628.492	524.886	-0.025	-0.059
-627.478	-200.000	0.001	-0.232
-626.463	222.862	-0.172	-0.277
-625.449	800.000	0.043	-0.121
-624.434	-200.000	0.041	-0.334
-623.419	2.308	-0.310	-0.224
-622.405	273.806	-0.040	-0.071
-621.390	634.025	0.091	-0.230
-620.376	285.090	0.044	-0.079
-619.361	-20.988	-0.243	0.148
-618.346	-32.371	0.375	0.208
-617.332	-126.795	-0.475	-0.070
-616.317	800.000	-0.023	-0.097
-615.303	97.415	-0.076	0.087
-614.288	54.805	-0.151	-0.145
-613.273	183.376	0.128	-0.188
-612.259	251.731	0.102	-0.173
-611.244	-200.000	0.040	-0.404
-610.230	-129.560	0.117	0.016
-609.215	105.820	0.136	-0.160
-608.201	48.194	0.026	-0.024
-607.186	-156.863	0.122	0.007
-606.171	327.562	-0.080	-0.152
-605.157	800.000	-0.093	-0.343
-604.142	-98.315	-0.402	0.103
-603.128	161.603	0.129	-0.180
-602.113	-26.374	-0.309	0.181
-601.098	-78.366	-0.353	-0.121
-600.084	-200.000	0.053	-0.332
-599.069	-89.185	0.066	0.019
-598.055	416.246	0.059	-0.125
-597.040	-200.000	0.035	-0.184
-596.025	-10.443	-0.118	-0.078
-595.011	240.667	0.151	-0.251
-593.996	-149.319	-0.173	-0.014
-592.982	-46.033	0.207	-0.102
-591.967	-106.850	0.076	-0.017
-590.952	-200.000	0.372	0.001
-589.938	-74.212	-0.023	0.008
-588.923	-17.886	-0.242	0.151
-587.909	-34.357	0.262	0.143
-586.894	88.629	0.056	-0.061
-585.879	252.970	0.014	0.024
-584.865	95.712	-0.160	-0.182
-583.850	-136.337	0.059	0.007
-582.836	0.352	-0.298	-0.211
-581.821	-200.000	-0.360	-0.001
-580.806	-7.186	-0.158	0.106
-579.792	-16.322	0.101	-0.064
-578.777	-200.000	0.027	-0.470
-577.763	-130.205	0.061	0.008
-576.748	-38.047	-0.207	-0.109
-575.733	-140.484	0.089	-0.009
-574.719	-11.470	-0.094	0.062
-573.704	140.748	0.013	0.017
-572.690	-200.000	0.030	-0.192
-571.675	-98.364	-0.337	0.086
-570.661	-200.000	0.003	-0.041
-569.646	-200.000	-0.010	-0.137
-568.631	101.852	-0.247	0.287
-567.617	98.121	0.108	-0.124
-566.602	-59.004	-0.068	0.029
-565.588	800.000	-0.105	0.299
-564.573	29.543	-0.060	0.051
-563.558	-47.613	-0.301	0.145
-562.544	800.000	0.056	-0.176
-561.529	-37.535	-0.343	0.182
-560.515	357.995	-0.118	-0.233
-559.500	-75.813	0.291	0.103
-558.485	1.167	-0.327	-0.233
-557.471	800.000	-0.038	-0.141
-556.456	-200.000	0.035	0.204
-555.442	-103.062	0.207	-0.049
-554.427	-26.982	0.308	0.179
-553.412	67.392	0.103	0.105
-552.398	-200.000	-0.031	0.371
-551.383	66.171	-0.059	-0.059
-550.369	171.980	-0.130	0.186
-549.354	-123.013	-0.220	-0.035
-548.339	-105.058	-0.095	-0.021
-547.325	-200.000	-0.001	0.035
-546.310	-119.120	-0.087	0.015
-545.296	-42.913	0.143	-0.072
-544.281	-21.735	-0.054	-0.032
-543.266	-98.506	0.134	0.034
-542.252	525.147	0.047	0.110
-541.237	-108.585	-0.187	-0.040
-540.223	151.736	0.036	-0.049
-539.208	-31.676	0.247	0.137
-538.193	105.713	-0.286	-0.336
-537.179	-178.790	0.054	-0.001
-536.164	30.235	0.130	-0.110
-535.150	-28.713	-0.159	-0.091
-534.135	800.000	-0.056	0.186
-533.121	800.000	0.072	0.307
-532.106	7.591	0.180	-0.134
-531.091	265.826	0.128	-0.221
-530.077	800.000	-0.039	-0.164
-529.062	-8.624	0.118	-0.079
-528.048	-21.228	0.217	0.132
-527.033	-56.408	0.068	-0.030
-526.018	168.272	-0.201	-0.284
-525.004	-200.000	-0.011	-0.102
-523.989	43.380	-0.209	0.190
-522.975	616.628	-0.041	-0.102
-521.960	19.602	-0.263	-0.210
-520.945	-15.760	-0.136	0.086
-519.931	254.077	-0.156	-0.264
-518.916	800.000	-0.040	-0.124
-517.902	156.659	-0.280	0.384
-516.887	-51.786	0.181	0.084
-515.872	565.045	-0.057	0.138
-514.858	350.966	-0.169	-0.332
-513.843	800.000	-0.077	-0.220
-512.829	-200.000	-0.014	0.153
-511.814	-65.443	0.112	0.045
-510.799	300.186	-0.065	0.119
-509.785	-58.585	-0.117	0.051
-508.770	-73.482	-0.244	-0.089
-507.756	-192.986	-0.020	0.000
-506.741	-22.716	-0.212	0.127
-505.726	17.178	0.173	0.136
-504.712	800.000	-0.088	0.342
-503.697	34.465	-0.035	-0.031
-502.683	121.863	0.067	0.083
-501.668	-62.275	-0.336	-0.139
-500.653	800.000	0.079	0.301
-499.639	-57.177	-0.244	0.106
-498.624	-70.831	0.130	0.049
-497.610	12.674	0.240	0.184
-496.595	-200.000	-0.029	0.135
-495.581	214.478	0.074	0.117
-494.566	-177.220	0.294	0.007
-493.551	-22.080	0.027	0.016
-492.537	-121.374	-0.370	-0.061
-491.522	-149.586	-0.178	-0.014
-490.508	250.023	0.148	-0.249
-489.493	31.763	-0.167	-0.142
-488.478	-83.387	0.050	0.016
-487.464	-200.000	-0.001	0.064
-486.449	69.996	0.143	0.146
-485.435	17.714	0.239	0.189
-484.420	800.000	0.120	-0.445
-483.405	-6.797	-0.292	0.197
-482.391	-200.000	0.001	0.161
-481.376	677.604	-0.041	0.107
-480.362	565.689	-0.118	-0.283
-479.347	-200.000	-0.021	-0.212
-478.332	222.184	0.040	-0.064
-477.318	-149.221	0.299	0.024
-476.303	44.237	-0.156	0.142
-475.289	-5.141	0.129	0.088
-474.274	284.490	-0.067	0.119
-473.259	354.759	0.130	0.255
-472.245	-200.000	0.014	0.449
-471.230	-64.045	0.127	0.051
-470.216	-126.426	-0.326	-0.048
-469.201	-126.704	0.224	0.033
-468.186	-13.349	0.116	0.075
-467.172	19.518	-0.202	0.161
-466.157	58.070	0.149	0.145
-465.143	-200.000	-0.000	-0.047
-464.128	-125.465	0.126	0.019
-463.113	39.057	0.186	0.165
-462.099	38.090	0.060	-0.053
-461.084	212.515	-0.120	-0.187
-460.070	347.274	-0.049	0.096
-459.055	-200.000	0.042	-0.200
-458.040	220.826	0.049	-0.077
-457.026	-40.902	0.281	-0.144
-456.011	800.000	0.029	-0.118
-454.997	-200.000	-0.069	0.359
-453.982	-135.392	-0.432	0.051
-452.968	-137.122	-0.309	0.035
-451.953	-105.577	-0.072	0.016
-450.938	-200.000	0.035	0.153
-449.924	-200.000	-0.017	0.189
-448.909	-100.077	-0.309	0.076
-447.895	53.359	-0.287	-0.272
-446.880	524.157	0.064	-0.150
-445.865	-106.882	-0.161	0.035
-444.851	-200.000	0.042	-0.454
-443.836	409.545	-0.087	0.183
-442.822	-48.928	-0.229	-0.109
-441.807	-200.000	0.032	-0.218
-440.792	2.863	-0.260	0.187
-439.778	800.000	0.122	0.336
-438.763	800.000	0.080	-0.279
-437.749	488.571	-0.175	0.395
-436.734	-47.327	-0.433	0.208
-435.719	-128.494	0.103	0.015
-434.705	800.000	0.022	-0.064
-433.690	260.206	-0.161	-0.275
-432.676	172.059	0.030	-0.043
-431.661	104.601	-0.089	-0.103
-430.646	800.000	-0.085	0.250
-429.632	60.929	0.101	-0.099
-428.617	95.580	0.187	0.211
-427.603	800.000	0.103	0.309
-426.588	-128.910	-0.145	0.020
-425.573	494.440	-0.089	-0.202
-424.559	-168.537	-0.331	0.013
-423.544	139.127	0.242	0.315
-422.530	191.229	-0.145	0.216
-421.515	37.540	0.143	0.125
-420.500	-60.777	0.153	0.064
-419.486	270.914	0.185	-0.322
-418.471	35.218	-0.294	0.254
-417.457	318.300	0.069	0.128
-416.442	19.337	0.061	-0.048
-415.428	-45.208	0.154	-0.075
-414.413	170.215	-0.147	0.208
-413.398	-32.643	-0.163	-0.089
-412.384	800.000	-0.030	0.123
-411.369	800.000	-0.109	0.450
-410.355	-70.103	0.101	-0.038
-409.340	-200.000	0.039	-0.173
-408.325	-26.644	0.224	0.130
-407.311	-146.847	-0.114	-0.010
-406.296	45.563	0.269	0.245
-405.282	-52.204	0.120	0.055
-404.267	-37.783	0.033	-0.017
-403.252	800.000	-0.049	-0.168
-402.238	-110.794	0.356	-0.072
-401.223	-50.722	-0.093	0.043
-400.209	52.202	-0.116	0.109
-399.194	-200.000	0.024	-0.143
-398.179	-49.999	-0.108	-0.051
-397.165	540.705	-0.077	0.182
-396.150	-140.536	0.041	0.004
-395.136	-113.465	0.227	0.044
-394.121	81.948	-0.174	0.186
-393.106	-200.000	0.018	-0.142
-392.092	-84.815	-0.155	0.048
-391.077	75.029	-0.229	0.238
-390.063	282.449	0.039	0.069
-389.048	754.315	-0.049	-0.129
-388.033	177.304	-0.283	-0.407
-387.019	-200.000	0.037	0.273
-386.004	131.202	-0.038	-0.048
-384.990	-113.251	-0.014	0.003
-383.975	-56.952	-0.198	-0.086
-382.960	-15.672	-0.360	-0.227
-381.946	41.880	0.078	0.070
-380.931	71.350	0.192	-0.196
-379.917	170.130	-0.134	0.190
-378.902	-117.762	0.233	-0.041
-377.888	800.000	0.162	0.454
-376.873	800.000	-0.095	-0.349
-375.858	-136.883	-0.255	-0.029
-374.844	800.000	0.117	-0.399
-373.829	-57.947	0.201	-0.087
-372.815	-0.464	0.164	0.115
-371.800	67.902	-0.124	0.125
-370.785	127.364	0.054	-0.067
-369.771	-82.697	0.061	0.020
-368.756	152.341	-0.068	0.092
-367.742	-37.947	0.331	0.173
-366.727	-4.937	0.326	-0.222
-365.712	345.702	0.065	0.126
-364.698	37.636	-0.133	0.117
-363.683	800.000	-0.071	0.215
-362.669	230.095	0.117	-0.188
-361.654	800.000	-0.072	0.251
-360.639	265.496	0.082	0.141
-359.625	-59.106	0.142	0.060
-358.610	-148.137	-0.065	0.005
-357.596	-145.194	0.103	0.009
-356.581	228.633	-0.135	-0.216
-355.566	157.687	0.094	0.129
-354.552	-158.392	-0.142	0.008
-353.537	407.769	-0.055	-0.114
-352.523	800.000	0.064	0.183
-351.508	23.127	0.099	0.080
-350.493	44.585	0.166	0.151
-349.479	-135.926	-0.271	-0.031
-348.464	-200.000	-0.026	-0.215
-347.450	-140.302	0.146	0.015
-346.435	-200.000	-0.066	-0.296
-345.420	-60.823	0.210	-0.088
-344.406	194.813	-0.126	0.189
-343.391	38.897	-0.155	0.136
-342.377	-200.000	-0.047	-0.394
-341.362	-178.712	0.120	0.003
-340.348	17.149	-0.325	-0.254
-339.333	-152.133	0.207	-0.015
-338.318	175.262	0.036	0.051
-337.304	152.980	-0.274	0.369
-336.289	800.000	-0.051	-0.189
-335.275	800.000	-0.016	0.055
-334.260	-130.396	0.287	-0.038
-333.245	26.867	-0.279	-0.231
-332.231	-13.736	0.407	0.259
-331.216	-200.000	0.005	-0.353
-330.202	-94.307	0.279	0.075
-329.187	-84.599	-0.142	-0.044
-328.172	67.489	0.084	-0.084
-327.158	-83.919	0.178	-0.056
-326.143	-45.619	0.145	-0.071
-325.129	106.912	0.236	-0.275
-324.114	-200.000	-0.001	-0.044
-323.099	131.549	-0.116	0.147
-322.085	-107.393	-0.232	0.050
-321.070	592.203	0.149	-0.363
-320.056	-119.030	0.197	0.034
-319.041	204.037	0.093	-0.142
-318.026	800.000	-0.018	0.064
-317.012	-59.911	-0.141	-0.059
-315.997	19.451	-0.320	0.253
-314.983	-133.774	0.384	0.047
-313.968	-200.000	0.031	0.155
-312.953	-138.155	0.089	-0.010
-311.939	-200.000	0.003	-0.060
-310.924	-104.428	0.377	-0.086
-309.910	81.657	0.251	0.267
-308.895	-37.944	-0.342	0.179
-307.880	-33.513	0.135	-0.073
-306.866	-59.157	0.136	-0.058
-305.851	93.739	-0.165	-0.184
-304.837	-97.887	0.145	-0.037
-303.822	54.399	0.140	0.133
-302.807	-10.867	0.186	0.121
-301.793	-56.952	-0.071	0.031
-300.778	8.649	0.280	0.208
-299.764	410.669	-0.058	-0.120
-298.749	197.022	-0.027	-0.041
-297.735	-18.091	0.150	-0.092
-296.720	-149.582	0.232	0.018
-295.705	50.025	0.161	-0.149
-294.691	-200.000	-0.039	-0.514
-293.676	-129.264	0.168	0.023
-292.662	-200.000	-0.002	0.344
-291.647	-200.000	0.008	0.188
-290.632	-108.893	-0.044	-0.009
-289.618	-169.043	0.497	0.018
-288.603	-193.513	-0.021	0.000
-287.589	-200.000	-0.029	0.181
-286.574	9.209	0.304	0.226
-285.559	-93.550	-0.053	-0.014
-284.545	748.402	-0.115	-0.306
-283.530	-136.499	-0.181	0.021
-282.516	-200.000	-0.001	0.163
-281.501	-61.429	-0.201	-0.083
-280.486	800.000	0.012	0.045
-279.472	-68.585	0.209	-0.080
-278.457	49.472	-0.287	-0.266
-277.443	32.236	-0.256	0.217
-276.428	800.000	-0.053	0.167
-275.413	17.319	0.177	0.138
-274.399	75.758	0.050	0.052
-273.384	-82.889	-0.072	0.023
-272.370	-113.035	-0.100	0.019
-271.355	-167.259	0.182	0.007
-270.340	-194.245	0.144	-0.001
-269.326	678.143	0.083	0.212
-268.311	-200.000	-0.013	0.076
-267.297	-100.879	0.236	0.057
-266.282	-200.000	-0.017	-0.102
-265.267	-164.479	0.139	0.006
-264.253	800.000	-0.031	0.120
-263.238	-66.556	-0.146	0.057
-262.224	-46.115	-0.079	-0.038
-261.209	-200.000	0.042	-0.333
-260.195	-200.000	-0.013	-0.131
-259.180	66.431	0.076	-0.076
-258.165	80.601	0.152	-0.161
-257.151	376.126	-0.004	0.009
-256.136	20.593	0.194	-0.154
-255.122	48.712	0.282	0.260
-254.107	800.000	-0.048	-0.202
-253.092	800.000	0.073	0.253
-252.078	67.989	0.249	-0.250
-251.063	-200.000	-0.001	0.147
-250.049	76.211	-0.126	0.131
-249.034	2.835	0.178	0.127
-248.019	132.977	0.163	-0.206
-247.005	279.114	-0.062	0.109
-245.990	800.000	0.079	-0.224
-244.976	-94.825	-0.238	0.063
-243.961	151.563	0.215	0.288
-242.946	-200.000	-0.026	-0.145
-241.932	-11.556	-0.039	0.025
-240.917	8.033	0.120	0.088
-239.903	-200.000	0.009	-0.077
-238.888	-105.255	-0.322	-0.072
-237.873	372.012	0.111	-0.221
-236.859	654.642	-0.125	-0.314
-235.844	377.490	0.151	-0.302
-234.830	-200.000	0.031	0.353
-233.815	36.821	-0.045	0.039
-232.800	247.113	0.134	-0.223
-231.786	285.547	0.046	-0.081
-230.771	25.785	-0.254	-0.208
-229.757	800.000	-0.096	0.291
-228.742	117.772	0.284	-0.342
-227.727	800.000	-0.014	0.060
-226.713	800.000	-0.050	0.167
-225.698	236.476	0.157	0.255
-224.684	338.858	0.056	-0.108
-223.669	-88.566	0.118	0.035
-222.655	-200.000	0.005	0.044
-221.640	95.327	0.280	-0.312
-220.625	800.000	0.063	-0.196
-219.611	-54.298	-0.227	-0.101
-218.596	170.936	-0.124	0.174
-217.582	-200.000	0.020	0.534
-216.567	-115.424	0.321	0.059
-215.552	-200.000	0.002	-0.147
-214.538	-25.598	0.231	0.134
-213.523	377.227	0.072	-0.143
-212.509	-51.263	0.246	-0.113
-211.494	-33.672	-0.199	0.108
-210.479	1.463	-0.268	0.189
-209.465	-28.137	0.277	0.157
-208.450	-200.000	0.013	0.190
-207.436	78.333	-0.278	0.291
-206.421	-109.124	0.336	-0.070
-205.406	-83.788	0.139	0.043
-204.392	245.567	0.036	-0.059
-203.377	800.000	-0.054	0.174
-202.363	-28.003	-0.182	-0.103
-201.348	-200.000	-0.027	0.232
-200.333	-116.330	0.353	0.064
-199.319	-45.616	-0.090	-0.044
-198.304	15.186	-0.121	0.093
-197.290	-26.319	-0.198	0.114
-196.275	560.850	-0.112	-0.264
-195.260	97.996	0.220	0.248
-194.246	-22.007	-0.289	0.172
-193.231	151.115	0.108	-0.144
-192.217	-66.437	0.247	0.096
-191.202	252.861	-0.122	0.205
-190.187	8.701	0.285	-0.211
-189.173	-89.134	-0.126	0.037
-188.158	58.628	-0.115	-0.111
-187.144	52.263	0.283	0.264
-186.129	-200.000	-0.019	-0.203
-185.114	-161.594	-0.168	-0.008
-184.100	800.000	-0.144	0.396
-183.085	-200.000	-0.039	0.219
-182.071	41.380	-0.202	-0.179
-181.056	-94.401	0.288	0.077
-180.042	800.000	0.118	0.420
-179.027	312.437	0.048	-0.089
-178.012	-123.021	-0.258	-0.041
-176.998	-57.217	-0.153	-0.066
-175.983	521.800	0.115	0.264
-174.969	304.396	-0.034	0.061
-173.954	36.356	-0.246	-0.212
-172.939	800.000	0.059	0.221
-171.925	41.889	0.090	-0.080
-170.910	348.881	0.041	0.080
-169.896	-64.581	0.292	-0.116
-168.881	325.698	0.190	-0.356
-167.866	800.000	-0.011	0.032
-166.852	-42.841	-0.194	0.097
-165.837	-24.089	-0.131	0.077
-164.823	60.090	0.255	-0.247
-163.808	-200.000	-0.064	0.284
-162.793	-1.718	0.277	-0.191
-161.779	382.385	0.074	0.150
-160.764	-16.626	0.033	-0.020
-159.750	-200.000	-0.001	0.315
-158.735	25.094	0.188	0.152
-157.720	-161.968	0.178	-0.009
-156.706	19.779	-0.509	-0.401
-155.691	-79.843	-0.360	0.118
-154.677	423.545	0.083	-0.175
-153.662	800.000	-0.091	-0.325
-152.647	117.055	0.302	-0.363
-151.633	191.520	-0.044	-0.065
-150.618	-128.056	0.020	0.003
-149.604	-133.974	0.486	-0.059
-148.589	95.878	-0.064	-0.071
-147.574	-200.000	-0.025	0.112
-146.560	188.250	0.186	0.271
-145.545	162.519	0.093	-0.128
-144.531	97.356	0.132	-0.148
-143.516	800.000	-0.030	0.118
-142.502	800.000	-0.064	0.183
-141.487	-2.813	-0.074	-0.051
-140.472	-88.585	0.307	-0.089
-139.458	800.000	0.141	-0.394
-138.443	-40.985	0.413	0.209
-137.429	-76.714	-0.359	0.123
-136.414	-30.711	-0.177	-0.098
-135.399	800.000	0.094	-0.289
-134.385	294.124	0.236	0.422
-133.370	207.580	-0.219	-0.334
-132.356	-69.228	0.201	-0.076
-131.341	-60.418	-0.169	0.070
-130.326	-34.675	-0.186	0.100
-129.312	-41.752	0.159	-0.080
-128.297	-200.000	0.069	-0.447
-127.283	-16.586	-0.035	-0.022
-126.268	-124.353	-0.182	-0.028
-125.253	8.139	-0.169	0.124
-124.239	-33.257	0.122	0.066
-123.224	-35.127	-0.186	0.099
-122.210	427.171	0.010	0.020
-121.195	-200.000	-0.005	-0.459
-120.180	115.116	-0.015	0.018
-119.166	143.604	-0.066	0.086
-118.151	-146.591	-0.332	-0.028
-117.137	-127.029	-0.148	0.021
-116.122	800.000	-0.036	0.131
-115.107	174.511	-0.158	0.224
-114.093	-96.768	0.185	0.048
-113.078	-124.909	-0.395	-0.059
-112.064	-138.528	0.280	0.030
-111.049	-47.046	-0.258	0.123
-110.034	-200.000	-0.017	0.102
-109.020	81.192	0.161	-0.169
-108.005	36.083	0.162	-0.140
-106.991	-59.403	0.168	0.070
-105.976	-200.000	0.022	0.156
-104.962	-110.259	-0.243	0.049
-103.947	148.590	0.122	0.162
-102.932	800.000	0.093	0.269
-101.918	3.289	-0.233	-0.166
-100.903	-41.940	0.216	-0.108
-99.889	-38.943	-0.099	-0.051
-98.874	800.000	0.059	-0.162
-97.859	3.679	0.093	0.066
-96.845	800.000	-0.142	-0.397
-95.830	-164.520	0.359	0.016
-94.816	-200.000	-0.012	0.300
-93.801	97.414	0.074	0.083
-92.786	-49.346	0.382	-0.178
-91.772	-34.286	-0.242	0.129
-90.757	203.399	0.081	-0.122
-89.743	-10.423	-0.253	-0.164
-88.728	-65.886	0.184	-0.072
-87.713	56.807	0.122	0.116
-86.699	55.496	-0.186	-0.175
-85.684	-200.000	0.006	0.276
-84.670	-200.000	0.017	0.216
-83.655	-200.000	0.008	-0.034
-82.640	-87.262	0.243	0.072
-81.626	523.713	-0.064	-0.147
-80.611	123.909	-0.219	-0.268
-79.597	-125.909	0.111	0.016
-78.582	800.000	0.054	0.153
-77.567	-200.000	0.048	-0.331
-76.553	-75.773	-0.327	0.113
-75.538	800.000	0.088	-0.324
-74.524	248.599	0.053	-0.087
-73.509	80.660	0.094	0.098
-72.494	134.226	-0.223	0.282
-71.480	-163.685	-0.343	0.016
-70.465	58.098	0.288	0.275
-69.451	-65.129	0.088	0.035
-68.436	-129.883	0.223	0.030
-67.422	-60.364	-0.198	-0.082
-66.407	800.000	0.076	0.229
-65.392	-200.000	-0.007	-0.116
-64.378	-13.542	-0.269	-0.170
-63.363	11.570	0.255	0.191
-62.349	-200.000	-0.021	0.231
-61.334	129.279	-1.060	-1.318
-60.319	25.650	0.520	0.422
-59.305	171.455	-0.878	-1.228
-58.290	239.043	0.888	1.440
-57.276	377.814	0.663	1.321
-56.261	-200.000	135.254	687.666
-55.246	339.548	1676.465	3184.227
-54.232	133.896	2803.049	3536.044
-53.217	88.633	2169.716	2349.818
-52.203	32.379	1599.454	1345.580
-51.188	24.528	1347.424	1085.981
-50.173	22.193	1310.945	1042.706
-49.159	50.840	1384.258	1277.302
-48.144	46.964	1393.614	1262.262
-47.130	24.627	1340.792	1081.062
-46.115	21.389	1322.108	1046.606
-45.100	21.144	1316.995	1041.058
-44.086	21.048	1314.159	1038.199
-43.071	21.015	1312.378	1036.557
-42.057	20.978	1310.009	1034.422
-41.042	21.041	1308.336	1033.437
-40.027	21.083	1306.732	1032.379
-39.013	21.139	1304.665	1031.035
-37.998	21.154	1303.273	1029.983
-36.984	21.227	1301.258	1028.780
-35.969	21.298	1299.523	1027.781
-34.954	21.194	1298.184	1026.075
-33.940	21.320	1296.405	1025.364
-32.925	21.210	1295.697	1024.120
-31.911	21.254	1293.956	1022.958
-30.896	21.340	1292.543	1022.303
-29.881	21.338	1290.905	1020.959
-28.867	21.394	1289.209	1019.902
-27.852	21.366	1287.947	1018.698
-26.838	21.434	1286.667	1018.042
-25.823	21.443	1285.286	1016.961
-24.809	21.218	1284.738	1015.181
-23.794	21.306	1283.000	1014.278
-22.779	21.253	1281.718	1012.918
-21.765	21.361	1280.249	1012.339
-20.750	21.344	1279.177	1011.355
-19.736	21.254	1277.886	1009.774
-18.721	21.185	1276.953	1008.597
-17.706	21.230	1275.878	1007.968
-16.692	21.165	1274.624	1006.562
-15.677	21.198	1273.661	1005.954
-14.663	21.132	1272.463	1004.586
-13.648	21.195	1271.345	1004.029
-12.633	21.327	1270.006	1003.688
-11.619	21.316	1269.640	1003.296
-10.604	21.243	1268.533	1001.961
-9.590	21.215	1267.935	1001.292
-8.575	21.145	1267.112	1000.197
-7.560	21.184	1265.778	999.328
-6.546	21.186	1265.027	998.705
-5.531	21.160	1264.228	997.887
-4.517	21.256	1263.180	997.572
-3.502	21.232	1262.311	996.707
-2.487	21.189	1261.542	995.817
-1.473	21.068	1257.617	991.989
-0.458	19.577	1241.816	971.109
0.556	15.002	1227.436	934.113
1.571	11.527	1236.033	921.009
2.586	10.880	1251.834	929.002
3.600	11.154	1239.399	921.242
4.615	8.418	1167.700	853.278
5.629	3.244	1098.231	776.403
6.644	0.820	1081.912	752.745
7.659	0.646	1080.179	750.611
8.673	0.580	1079.588	749.805
9.688	0.684	1078.075	749.201
10.702	0.911	1075.657	748.579
11.717	4.124	1079.205	766.905
12.731	10.544	1087.952	805.003
13.746	15.631	1094.613	835.199
14.761	17.160	1096.240	843.971
15.775	16.463	1094.986	839.470
16.790	15.620	1092.396	833.235
17.804	14.876	1091.070	828.461
18.819	14.477	1089.891	825.520
19.834	14.356	1088.656	823.912
20.848	14.090	1087.869	821.927
21.863	13.757	1087.404	819.859
22.877	13.775	1086.339	819.072
23.892	13.559	1085.512	817.309
24.907	13.757	1084.394	817.371
25.921	13.619	1084.135	816.427
26.936	13.813	1082.951	816.417
27.950	13.817	1081.929	815.593
28.965	13.743	1081.208	814.614
29.980	13.894	1079.457	813.961
30.994	13.827	1078.492	812.834
32.009	13.912	1077.884	812.721
33.023	14.008	1076.583	812.136
34.038	13.919	1075.993	811.186
35.053	13.896	1074.961	810.225
36.067	13.840	1074.662	809.653
37.082	13.825	1073.503	808.634
38.096	13.895	1072.496	808.148
39.111	13.672	1072.460	806.962
40.126	13.868	1070.815	806.607
41.140	13.637	1069.870	804.702
42.155	13.631	1068.487	803.559
43.169	13.667	1067.801	803.150
44.184	13.631	1066.726	802.096
45.199	13.561	1065.910	801.073
46.213	13.605	1065.006	800.531
47.228	13.742	1063.424	799.935
48.242	13.796	1062.392	799.348
49.257	13.815	1061.137	798.425
50.271	13.724	1060.470	797.412
51.286	13.786	1059.484	796.900
52.301	13.753	1058.755	796.124
53.315	13.647	1057.724	794.768
54.330	13.648	1056.558	793.828
55.344	13.708	1055.827	793.493
56.359	13.836	1054.938	793.369
57.374	13.708	1053.744	791.789
58.388	13.749	1052.768	791.180
59.403	13.493	1052.801	789.916
60.417	13.630	1051.286	789.362
61.432	13.561	1050.898	788.671
62.447	13.606	1049.675	787.895
63.461	13.579	1049.184	787.331
64.476	13.617	1048.059	786.597
65.490	13.618	1047.090	785.804
66.505	13.639	1046.562	785.437
67.520	13.520	1046.136	784.484
68.534	13.532	1045.342	783.877
69.549	13.600	1044.408	783.432
70.563	13.607	1043.509	782.718
71.578	13.649	1042.473	782.070
72.593	13.564	1042.175	781.378
73.607	13.539	1041.419	780.625
74.622	13.602	1040.770	780.367
75.636	13.559	1039.978	779.498
76.651	13.546	1039.524	779.031
77.666	13.657	1038.489	778.708
78.680	13.539	1038.073	777.774
79.695	13.638	1037.654	777.852
80.709	13.667	1036.533	777.080
81.724	13.695	1035.910	776.674
82.739	13.689	1035.277	776.104
83.753	13.711	1034.340	775.436
84.768	13.923	1033.426	775.670
85.782	13.781	1033.036	774.648
86.797	13.811	1031.556	773.610
87.812	13.766	1030.767	772.738
88.826	13.752	1029.678	771.789
89.841	13.861	1028.377	771.254
90.855	13.817	1028.096	770.769
91.870	13.829	1027.035	769.961
92.884	13.804	1026.396	769.299
93.899	13.882	1025.166	768.671
94.914	13.943	1024.725	768.552
95.928	14.076	1023.547	768.216
96.943	13.964	1022.709	767.004
97.957	13.840	1022.462	766.177
98.972	13.805	1021.610	765.310
99.987	13.790	1020.489	764.331
101.001	13.789	1019.445	763.480
102.016	13.854	1018.540	763.033
103.030	13.914	1017.876	762.740
104.045	13.849	1017.114	761.807
105.060	13.916	1016.054	761.252
106.074	13.944	1014.503	760.151
107.089	13.801	1013.984	759.038
108.103	13.696	1013.472	758.109
109.118	13.779	1012.257	757.515
110.133	13.694	1011.584	756.553
111.147	13.805	1010.231	755.979
112.162	13.740	1010.120	755.536
113.176	13.868	1009.134	755.312
114.191	13.962	1007.987	754.817
115.206	13.790	1007.508	753.606
116.220	13.845	1006.702	753.189
117.235	13.859	1005.390	752.203
118.249	13.869	1004.540	751.546
119.264	13.797	1003.909	750.681
120.279	13.959	1002.912	750.600
121.293	13.755	1002.517	749.317
122.308	13.787	1001.207	748.415
123.322	13.682	1000.375	747.258
124.337	13.712	999.297	746.521
125.352	13.684	998.230	745.533
126.366	13.771	996.517	744.575
127.381	13.838	995.783	744.263
128.395	13.758	995.081	743.315
129.410	13.640	994.307	742.141
130.424	13.689	993.431	741.639
131.439	13.791	992.489	741.327
132.454	13.911	991.738	741.239
133.468	13.845	990.665	740.076
134.483	13.837	990.120	739.568
135.497	13.881	988.853	738.752
136.512	13.789	988.416	737.951
137.527	13.818	987.349	737.216
138.541	13.813	986.618	736.583
139.556	13.925	985.728	736.351
140.570	13.891	985.481	735.950
141.585	13.963	984.552	735.508
142.600	13.970	983.366	734.589
143.614	13.993	982.775	734.185
144.629	13.939	982.152	733.415
145.643	14.075	981.106	733.170
146.658	14.070	979.722	732.049
147.673	14.005	978.744	730.967
148.687	13.933	978.357	730.299
149.702	13.907	977.194	729.249
150.716	13.881	976.527	728.574
151.731	13.910	976.318	728.480
152.746	13.942	975.111	727.658
153.760	14.000	974.705	727.543
154.775	13.987	974.013	726.905
155.789	14.090	973.051	726.574
156.804	14.055	972.766	726.144
157.819	14.139	971.612	725.585
158.833	14.170	970.979	725.183
159.848	14.073	970.770	724.540
160.862	14.200	969.518	724.094
161.877	14.220	968.622	723.448
162.892	13.984	967.650	721.632
163.906	14.122	966.325	721.178
164.921	14.202	965.356	720.740
165.935	14.233	964.430	720.115
166.950	14.074	963.902	718.970
167.964	13.975	963.045	717.842
168.979	14.260	961.829	718.100
169.994	14.077	961.742	717.182
171.008	14.112	960.855	716.609
172.023	14.174	960.156	716.290
173.037	14.184	959.418	715.721
174.052	14.229	958.211	714.947
175.067	14.302	957.684	714.807
176.081	14.243	956.820	713.845
177.096	14.224	956.573	713.517
178.110	14.220	956.255	713.197
179.125	14.345	955.431	713.056
180.140	14.340	954.935	712.601
181.154	14.405	954.417	712.430
182.169	14.304	954.059	711.668
183.183	14.452	952.775	711.280
184.198	14.338	951.968	710.127
185.213	14.399	951.456	709.944
186.227	14.365	950.602	709.099
187.242	14.537	949.859	709.211
188.256	14.438	949.816	708.696
189.271	14.417	948.864	707.834
190.286	14.270	948.235	706.679
191.300	14.343	947.664	706.498
192.315	14.221	946.846	705.310
193.329	14.153	947.141	705.178
194.344	14.321	945.796	704.828
195.359	14.392	944.754	704.287
196.373	14.565	944.292	704.611
197.388	14.532	944.077	704.250
198.402	14.565	943.462	703.868
199.417	14.612	942.302	703.138
200.432	14.532	942.221	702.677
201.446	14.574	942.024	702.645
202.461	14.763	940.666	702.368
203.475	14.516	940.825	701.385
204.490	14.623	939.460	700.755
205.504	14.632	938.997	700.385
206.519	14.703	938.077	699.934
207.534	14.763	937.336	699.569
208.548	14.624	936.416	698.241
209.563	14.668	936.237	698.227
210.577	14.707	935.859	698.048
211.592	14.855	934.551	697.627
212.607	14.863	933.778	697.022
213.621	14.889	933.118	696.578
214.636	14.807	932.604	695.790
215.650	14.881	931.704	695.364
216.665	14.863	931.059	694.747
217.680	15.013	929.789	694.363
218.694	14.915	929.466	693.650
219.709	14.937	928.904	693.261
220.723	14.894	928.390	692.638
221.738	14.849	927.654	691.840
222.753	14.875	927.125	691.493
223.767	15.126	926.135	691.732
224.782	14.986	925.705	690.770
225.796	14.990	925.234	690.377
226.811	14.975	924.776	689.912
227.826	15.069	923.308	689.140
228.840	14.950	922.857	688.254
229.855	14.896	922.136	687.434
230.869	15.038	921.316	687.344
231.884	15.058	920.833	687.007
232.899	15.036	920.134	686.334
233.913	14.925	919.765	685.541
234.928	15.010	918.977	685.243
235.942	14.963	918.184	684.397
236.957	14.965	917.831	684.083
237.972	15.070	917.019	683.847
238.986	14.974	916.536	683.031
240.001	15.012	915.689	682.497
241.015	15.037	914.964	681.998
242.030	15.068	914.300	681.567
243.045	15.033	913.731	680.940
244.059	15.076	912.975	680.493
245.074	15.245	912.257	680.582
246.088	15.040	911.670	679.254
247.103	15.144	910.956	679.084
248.117	15.189	910.716	679.028
249.132	15.241	910.110	678.726
250.147	15.343	909.091	678.317
251.161	15.464	908.378	678.216
252.176	15.540	907.417	677.744
253.190	15.448	907.080	677.060
254.205	15.316	906.909	676.341
255.220	15.447	906.299	676.353
256.234	15.483	905.253	675.659
257.249	15.508	904.506	675.142
258.263	15.536	903.869	674.719
259.278	15.475	903.112	673.850
260.293	15.511	902.649	673.591
261.307	15.615	901.851	673.351
262.322	15.526	901.463	672.646
263.336	15.688	900.244	672.322
264.351	15.679	899.654	671.788
265.366	15.511	899.404	670.869
266.380	15.723	898.843	671.238
267.395	15.707	898.152	670.599
268.409	15.775	897.166	670.075
269.424	15.697	896.855	669.474
270.439	15.770	895.422	668.633
271.453	15.709	894.955	667.984
272.468	15.695	894.188	667.296
273.482	15.733	893.917	667.187
274.497	15.692	893.398	666.577
275.512	15.778	892.420	666.129
276.526	15.752	892.361	665.921
277.541	15.647	892.062	665.227
278.555	15.884	891.058	665.355
279.570	15.893	890.128	664.638
280.585	15.954	889.320	664.215
281.599	15.937	888.605	663.557
282.614	15.936	887.942	663.000
283.628	15.920	887.253	662.363
284.643	15.910	886.568	661.752
285.657	15.955	886.288	661.663
286.672	16.127	885.353	661.581
287.687	15.999	885.020	660.772
288.701	16.004	884.124	660.065
289.716	16.055	883.757	659.929
290.730	15.997	883.409	659.387
291.745	16.202	882.659	659.568
292.760	16.131	881.827	658.613
293.774	16.167	881.297	658.296
294.789	16.037	880.988	657.502
295.803	16.148	880.129	657.235
296.818	16.144	879.128	656.415
297.833	16.165	878.395	655.891
298.847	16.135	878.081	655.479
299.862	16.286	877.155	655.317
300.876	16.285	877.119	655.228
301.891	16.242	876.492	654.537
302.906	16.284	875.719	654.063
303.920	16.140	875.775	653.487
304.935	16.390	874.793	653.668
305.949	16.305	874.243	652.870
306.964	16.234	873.364	651.879
307.979	16.201	872.772	651.252
308.993	16.358	872.188	651.364
310.008	16.440	871.467	651.086
311.022	16.311	871.103	650.257
312.037	16.380	870.556	650.059
313.052	16.449	869.683	649.615
314.066	16.343	869.318	648.878
315.081	16.319	868.925	648.433
316.095	16.381	868.478	648.282
317.110	16.447	867.157	647.489
318.125	16.448	866.872	647.223
319.139	16.344	866.554	646.531
320.154	16.486	866.169	646.728
321.168	16.419	865.830	646.164
322.183	16.367	864.984	645.277
323.197	16.554	864.062	645.244
324.212	16.561	863.594	644.864
325.227	16.561	863.321	644.605
326.241	16.430	862.727	643.606
327.256	16.572	862.046	643.581
328.270	16.526	861.620	643.029
329.285	16.672	860.649	642.802
330.300	16.663	859.812	642.085
331.314	16.635	859.510	641.697
332.329	16.522	859.364	641.104
333.343	16.616	858.951	641.097
334.358	16.594	858.792	640.838
335.373	16.472	858.163	639.850
336.387	16.691	857.767	640.324
337.402	16.807	857.211	640.293
338.416	16.744	857.487	640.204
339.431	16.662	856.642	639.206
340.446	16.932	856.065	639.738
341.460	16.791	855.520	638.743
342.475	16.827	855.244	638.616
343.489	16.983	854.468	638.566
344.504	17.063	854.155	638.576
345.519	16.915	853.653	637.588
346.533	16.909	852.991	637.016
347.548	16.937	852.871	636.977
348.562	16.826	852.372	636.130
349.577	16.904	851.771	635.917
350.592	16.826	851.069	635.046
351.606	16.978	850.406	635.063
352.621	16.878	849.639	634.058
353.635	17.012	848.882	633.940
354.650	16.924	848.578	633.328
355.665	17.059	847.531	632.994
356.679	17.071	847.002	632.588
357.694	17.022	846.491	631.968
358.708	17.128	845.747	631.751
359.723	17.004	845.361	630.945
360.738	17.066	844.833	630.725
361.752	16.922	844.298	629.735
362.767	17.202	843.831	630.370
363.781	17.141	842.782	629.304
364.796	17.266	842.448	629.462
365.810	17.122	842.181	628.676
366.825	17.280	841.755	628.884
367.840	17.414	841.135	628.861
368.854	17.221	840.949	627.953
369.869	17.200	840.451	627.449
370.883	17.329	839.990	627.523
371.898	17.184	840.047	626.979
372.913	17.486	838.969	627.229
373.927	17.427	838.583	626.669
374.942	17.516	837.958	626.473
375.956	17.419	837.840	625.975
376.971	17.530	837.275	625.902
377.986	17.649	836.570	625.759
379.000	17.498	836.286	624.935
380.015	17.545	835.907	624.769
381.029	17.588	835.217	624.355
382.044	17.627	834.744	624.089
383.059	17.740	833.836	623.770
384.073	17.561	833.617	622.897
385.088	17.508	832.933	622.138
386.102	17.587	832.382	621.960
387.117	17.514	831.636	621.078
388.132	17.699	831.268	621.423
389.146	17.561	830.911	620.601
390.161	17.483	830.640	620.058
391.175	17.692	829.608	619.994
392.190	17.625	829.392	619.533
393.205	17.543	828.839	618.766
394.219	17.630	828.515	618.786
395.234	17.539	828.050	618.056
396.248	17.796	827.453	618.486
397.263	17.583	827.137	617.424
398.278	17.681	826.665	617.372
399.292	17.770	826.320	617.380
400.307	17.718	825.762	616.720
401.321	17.741	825.191	616.323
402.336	17.746	824.510	615.780
403.350	17.773	824.698	615.961
404.365	17.781	823.901	615.340
405.380	17.790	823.362	614.918
406.394	17.716	823.201	614.473
407.409	17.982	822.259	614.674
408.423	17.891	822.465	614.446
409.438	17.866	821.962	613.926
410.453	17.985	821.257	613.775
411.467	18.081	821.059	613.916
412.482	17.968	820.475	613.020
413.496	18.068	820.039	612.997
414.511	18.070	819.737	612.726
415.526	17.966	819.216	611.908
416.540	18.209	818.311	612.050
417.555	18.158	818.302	611.804
418.569	18.051	818.099	611.218
419.584	18.218	817.257	611.131
420.599	18.169	817.084	610.771
421.613	115.527	1301.045	1489.924
422.628	100.143	1371.490	1489.964
