DTS Sentinel unit serial number:	SN413079Multiplexer serial number:	ORYXHardware model number:	OX4-SRSoftware version number:	ORYX F/W v4.00 Oryx Data Collector v3.7.2.0data status	okinstallation	princeton_trtdifferential loss correction	single-endedforward channel	channel 1reverse channel	N/Adate	2019/09/12time	08:56:11forward acquisition time	60.00reverse acquisition time	0.00gamma	496.2192k internal	0.2309k external	0.2309temperature offset calibration	1.0047default loss term (dB/km)	0.3790temperature slope calibration	1.0000multiplexer offset coefficient	1.0000multiplexer slope coefficient	1.0000fibre end	0.00T internal ref (°C)	34.12T ext. ref 1 (°C)	1.74T ext. ref 2 (°C)	31.00length (m)	temperature (°C)	Stokes	anti-Stokes-747.200	-136.471	0.029	0.003
-746.185	86.336	0.238	0.266
-745.171	-77.283	0.168	0.059
-744.156	-135.876	-0.293	-0.035
-743.142	85.641	-0.016	0.017
-742.127	-78.181	0.082	-0.029
-741.112	-118.976	0.105	0.019
-740.098	-200.000	-0.025	0.413
-739.083	34.046	0.246	0.218
-738.069	18.576	0.031	0.025
-737.054	59.263	0.197	0.197
-736.039	-79.914	-0.129	-0.044
-735.025	544.330	0.125	0.303
-734.010	-43.073	0.280	-0.144
-732.996	57.418	0.223	-0.221
-731.981	171.697	-0.035	0.051
-730.966	-200.000	-0.039	-0.190
-729.952	-71.896	0.290	-0.109
-728.937	390.028	-0.128	0.269
-727.923	800.000	0.005	-0.023
-726.908	168.859	-0.098	0.142
-725.894	-44.814	-0.137	-0.069
-724.879	-140.546	-0.455	0.048
-723.864	195.208	-0.082	-0.126
-722.850	-73.459	-0.190	-0.070
-721.835	-200.000	0.001	-0.077
-720.821	-200.000	0.009	-0.060
-719.806	63.310	-0.079	-0.081
-718.791	-95.530	-0.082	0.022
-717.777	-200.000	0.061	-0.374
-716.762	-200.000	0.044	0.386
-715.748	-200.000	0.057	0.345
-714.733	117.655	0.155	-0.194
-713.718	255.327	-0.086	0.149
-712.704	-0.808	0.167	-0.120
-711.689	800.000	0.065	-0.273
-710.675	-75.943	0.148	-0.053
-709.660	-20.697	-0.216	0.135
-708.645	93.261	-0.218	0.250
-707.631	800.000	-0.031	0.098
-706.616	270.278	-0.058	0.103
-705.602	-28.189	0.306	0.179
-704.587	-106.468	-0.263	0.060
-703.572	-117.543	0.182	-0.033
-702.558	137.255	0.186	0.247
-701.543	-161.028	-0.220	0.012
-700.529	-5.497	0.287	-0.200
-699.514	800.000	0.071	0.230
-698.499	14.875	-0.125	-0.099
-697.485	298.366	0.109	0.202
-696.470	-25.906	-0.089	0.053
-695.456	579.798	-0.041	0.101
-694.441	-17.944	0.133	-0.085
-693.426	-200.000	-0.029	0.194
-692.412	800.000	-0.064	-0.236
-691.397	552.585	-0.095	-0.232
-690.383	-43.678	-0.242	0.124
-689.368	-164.683	-0.178	0.008
-688.354	-97.237	-0.059	-0.016
-687.339	222.191	0.068	0.111
-686.324	-143.544	-0.264	0.026
-685.310	67.291	-0.171	0.176
-684.295	-20.372	-0.329	0.205
-683.281	800.000	-0.077	-0.214
-682.266	800.000	-0.031	-0.132
-681.251	181.460	0.075	0.111
-680.237	-74.060	0.303	-0.111
-679.222	-54.185	-0.211	0.097
-678.208	76.600	-0.105	-0.113
-677.193	-57.019	-0.429	0.192
-676.178	8.963	0.048	0.036
-675.164	600.633	-0.026	-0.066
-674.149	800.000	0.074	0.246
-673.135	-5.087	0.184	0.128
-672.120	555.384	0.079	0.192
-671.105	-54.928	-0.252	-0.115
-670.091	-84.375	0.310	-0.099
-669.076	355.030	-0.109	-0.219
-668.062	-48.789	-0.090	0.044
-667.047	-108.743	-0.097	-0.021
-666.032	139.224	-0.131	-0.175
-665.018	256.773	0.232	-0.404
-664.003	-200.000	-0.013	-0.254
-662.989	161.267	-0.246	0.348
-661.974	88.750	0.296	-0.333
-660.959	-9.329	-0.131	-0.089
-659.945	43.775	-0.162	-0.150
-658.930	82.577	0.099	0.109
-657.916	45.234	0.131	0.123
-656.901	-125.055	-0.113	0.018
-655.886	-200.000	0.025	0.188
-654.872	-200.000	-0.050	0.347
-653.857	800.000	-0.025	-0.077
-652.843	-200.000	-0.075	-0.374
-651.828	-200.000	-0.013	0.332
-650.814	463.604	0.146	-0.331
-649.799	-56.196	-0.191	0.086
-648.784	-63.976	0.127	0.053
-647.770	-171.659	0.444	0.015
-646.755	-62.971	0.090	0.038
-645.741	-65.531	-0.192	0.078
-644.726	-200.000	-0.006	-0.132
-643.711	-140.219	-0.144	-0.015
-642.697	9.917	-0.274	-0.210
-641.682	800.000	0.058	-0.186
-640.668	59.608	-0.193	-0.192
-639.653	-37.352	0.198	-0.107
-638.638	231.540	-0.068	-0.113
-637.624	518.778	-0.063	-0.150
-636.609	35.263	0.317	0.282
-635.595	-133.922	-0.137	0.017
-634.580	-200.000	-0.002	-0.157
-633.565	-19.899	0.149	-0.093
-632.551	10.387	0.132	-0.102
-631.536	-50.926	-0.117	-0.056
-630.522	-200.000	0.032	-0.219
-629.507	-102.855	0.112	-0.027
-628.492	28.363	0.220	0.188
-627.478	800.000	-0.045	0.193
-626.463	61.916	0.113	-0.114
-625.449	50.665	-0.248	-0.237
-624.434	-131.472	0.099	0.013
-623.419	-200.000	-0.029	-0.140
-622.405	527.000	-0.093	0.221
-621.390	89.950	-0.095	0.108
-620.376	4.605	0.142	0.105
-619.361	33.711	0.018	-0.015
-618.346	-25.529	-0.318	0.190
-617.332	-200.000	0.031	-0.204
-616.317	509.768	-0.083	0.195
-615.303	-200.000	-0.008	0.087
-614.288	479.489	0.083	0.191
-613.273	-200.000	-0.011	0.335
-612.259	100.881	0.108	-0.126
-611.244	-134.307	-0.230	0.029
-610.230	-147.574	-0.326	-0.028
-609.215	-35.846	0.104	-0.057
-608.201	60.741	-0.248	0.248
-607.186	-200.000	0.012	0.144
-606.171	6.533	-0.556	-0.417
-605.157	640.920	0.114	-0.294
-604.142	125.481	0.108	0.137
-603.128	-175.427	0.168	-0.005
-602.113	-71.556	-0.217	-0.082
-601.098	59.284	0.069	-0.069
-600.084	77.624	-0.107	-0.115
-599.069	-200.000	-0.041	-0.224
-598.055	162.303	-0.065	0.092
-597.040	0.502	-0.276	0.199
-596.025	15.460	0.181	-0.143
-595.011	-166.593	-0.194	0.008
-593.996	479.961	-0.064	0.146
-592.982	-56.368	-0.299	-0.134
-591.967	-41.817	0.445	-0.230
-590.952	317.029	-0.094	-0.180
-589.938	800.000	-0.054	0.201
-588.923	261.279	0.122	0.213
-587.909	-72.978	-0.199	-0.074
-586.894	181.710	-0.185	-0.274
-585.879	-200.000	0.030	-0.218
-584.865	123.674	0.223	0.283
-583.850	-87.793	0.149	-0.045
-582.836	51.113	-0.286	0.274
-581.821	122.568	0.208	-0.263
-580.806	284.707	0.059	0.108
-579.792	171.738	-0.122	0.178
-578.777	251.700	-0.148	-0.254
-577.763	-147.749	0.084	0.007
-576.748	-30.687	-0.259	0.148
-575.733	80.818	-0.029	0.031
-574.719	-200.000	-0.021	0.170
-573.704	517.752	0.082	-0.195
-572.690	-200.000	0.002	0.304
-571.675	234.555	-0.239	-0.397
-570.661	224.585	0.090	-0.147
-569.646	163.244	0.072	0.102
-568.631	274.818	-0.084	-0.150
-567.617	-172.674	0.233	0.007
-566.602	-145.056	-0.317	-0.029
-565.588	-200.000	0.075	-0.383
-564.573	-85.341	-0.246	0.077
-563.558	113.278	-0.249	0.305
-562.544	-179.434	-0.061	-0.001
-561.529	-57.654	-0.322	-0.142
-560.515	-27.086	0.146	0.086
-559.500	696.165	0.066	0.176
-558.485	-118.701	0.324	-0.058
-557.471	85.753	-0.131	0.145
-556.456	-200.000	-0.006	-0.041
-555.442	22.026	-0.339	-0.279
-554.427	-200.000	-0.017	-0.116
-553.412	494.470	-0.113	0.261
-552.398	118.914	0.306	-0.381
-551.383	-150.189	-0.076	-0.006
-550.369	154.226	0.062	0.085
-549.354	-200.000	-0.044	-0.267
-548.339	152.217	-0.264	-0.364
-547.325	82.729	-0.064	0.070
-546.310	-14.003	0.099	0.065
-545.296	220.402	0.135	0.217
-544.281	-200.000	-0.031	0.174
-543.266	44.627	0.066	0.061
-542.252	-200.000	0.020	-0.152
-541.237	245.158	-0.111	-0.189
-540.223	342.065	-0.135	-0.265
-539.208	-59.134	0.161	0.070
-538.193	0.964	0.130	0.094
-537.179	-113.694	-0.223	-0.044
-536.164	-6.019	-0.058	-0.040
-535.150	-154.255	0.155	-0.011
-534.135	470.278	-0.073	-0.166
-533.121	312.433	0.019	0.036
-532.106	393.964	0.059	-0.124
-531.091	-200.000	-0.020	0.117
-530.077	73.984	0.311	0.328
-529.062	-200.000	-0.051	0.415
-528.048	-126.008	-0.087	0.013
-527.033	70.838	-0.287	-0.299
-526.018	-0.414	0.184	0.131
-525.004	34.348	0.193	0.170
-523.989	44.973	-0.127	0.117
-522.975	-158.639	0.287	0.017
-521.960	82.321	-0.256	-0.279
-520.945	-100.929	-0.028	-0.007
-519.931	-130.991	0.222	-0.030
-518.916	-19.546	-0.222	-0.138
-517.902	-85.459	-0.559	-0.176
-516.887	86.065	-0.176	-0.195
-515.872	-9.985	-0.042	0.028
-514.858	-2.186	-0.145	0.103
-513.843	15.417	-0.151	0.119
-512.829	-125.754	0.014	-0.002
-511.814	47.942	-0.274	0.258
-510.799	-16.614	0.112	0.072
-509.785	800.000	-0.090	-0.302
-508.770	-182.572	-0.297	0.005
-507.756	-200.000	0.036	0.162
-506.741	361.635	0.260	0.524
-505.726	763.118	0.161	0.440
-504.712	-185.509	0.341	-0.005
-503.697	663.123	-0.142	0.368
-502.683	426.554	0.043	-0.094
-501.668	140.971	-0.224	-0.297
-500.653	136.121	0.054	-0.071
-499.639	529.407	0.092	-0.218
-498.624	-200.000	-0.028	0.184
-497.610	-65.565	0.126	0.051
-496.595	800.000	-0.055	0.171
-495.581	800.000	0.096	0.313
-494.566	800.000	-0.024	0.094
-493.551	800.000	-0.069	0.284
-492.537	-78.539	0.299	0.103
-491.522	179.178	0.273	-0.401
-490.508	800.000	-0.072	-0.308
-489.493	170.456	0.284	0.409
-488.478	-200.000	0.004	-0.144
-487.464	-200.000	-0.003	0.106
-486.449	800.000	0.051	0.201
-485.435	-17.267	-0.118	0.075
-484.420	800.000	-0.038	0.120
-483.405	-23.571	0.340	-0.205
-482.391	-132.727	0.373	-0.048
-481.376	-59.602	0.240	0.104
-480.362	139.060	0.086	0.114
-479.347	-200.000	0.034	0.203
-478.332	-89.889	0.172	-0.051
-477.318	-128.221	0.341	0.049
-476.303	-68.949	0.096	0.037
-475.289	86.100	0.087	0.096
-474.274	105.693	-0.088	-0.105
-473.259	-200.000	-0.005	-0.125
-472.245	-168.187	-0.247	0.010
-471.230	0.056	-0.315	0.226
-470.216	-4.296	-0.113	-0.079
-469.201	43.914	-0.123	-0.113
-468.186	-30.347	-0.225	-0.128
-467.172	-50.954	0.093	-0.044
-466.157	-200.000	-0.032	-0.301
-465.143	390.460	0.063	-0.132
-464.128	-88.417	0.314	0.094
-463.113	570.133	-0.086	-0.211
-462.099	115.632	0.245	-0.301
-461.084	-56.266	-0.300	0.134
-460.070	800.000	-0.031	-0.118
-459.055	800.000	-0.041	0.166
-458.040	53.445	-0.177	-0.170
-457.026	-28.499	-0.091	-0.053
-456.011	135.291	-0.202	0.263
-454.997	56.445	0.170	0.166
-453.982	-86.360	0.269	-0.083
-452.968	-1.739	0.154	-0.109
-451.953	800.000	-0.031	0.094
-450.938	-200.000	0.018	0.114
-449.924	-161.784	-0.110	0.006
-448.909	-200.000	0.004	-0.333
-447.895	23.506	0.140	0.115
-446.880	76.491	-0.094	-0.100
-445.865	409.715	0.116	-0.247
-444.851	-146.327	-0.189	-0.017
-443.836	437.002	0.125	-0.273
-442.822	-50.381	0.325	0.154
-441.807	21.326	-0.245	-0.200
-440.792	-129.552	0.174	0.024
-439.778	629.349	-0.075	-0.189
-438.763	-192.894	-0.232	-0.002
-437.749	-200.000	-0.015	-0.116
-436.734	639.008	0.101	-0.257
-435.719	-88.372	0.337	-0.101
-434.705	-38.695	0.152	-0.080
-433.690	-47.918	-0.251	0.122
-432.676	-49.910	-0.175	0.083
-431.661	16.746	0.364	-0.289
-430.646	127.458	0.132	-0.168
-429.632	371.971	-0.180	-0.367
-428.617	-162.166	0.056	0.003
-427.603	-117.272	-0.377	-0.069
-426.588	-200.000	-0.079	0.371
-425.573	-156.538	0.359	0.022
-424.559	176.681	0.038	-0.056
-423.544	800.000	0.094	0.296
-422.530	65.376	0.359	0.365
-421.515	27.873	0.437	-0.369
-420.500	-200.000	-0.019	-0.135
-419.486	-17.154	0.172	-0.109
-418.471	6.067	-0.161	-0.120
-417.457	-74.732	-0.383	-0.138
-416.442	-200.000	-0.056	-0.288
-415.428	51.250	0.022	-0.021
-414.413	56.215	-0.146	-0.142
-413.398	800.000	0.082	0.284
-412.384	-107.506	-0.288	0.063
-411.369	-96.866	0.131	0.035
-410.355	163.394	-0.022	0.031
-409.340	45.351	0.201	0.186
-408.325	517.841	0.062	-0.145
-407.311	-200.000	-0.007	-0.044
-406.296	-103.914	-0.234	0.055
-405.282	217.456	-0.146	-0.233
-404.267	56.147	0.282	-0.274
-403.252	-191.240	-0.277	-0.003
-402.238	129.769	0.220	-0.282
-401.223	240.749	-0.057	0.096
-400.209	-62.947	-0.277	-0.115
-399.194	-106.401	-0.154	0.034
-398.179	-200.000	-0.003	-0.048
-397.165	196.350	0.129	0.197
-396.150	-32.093	-0.336	-0.188
-395.136	-158.058	-0.420	0.025
-394.121	-200.000	-0.046	-0.236
-393.106	800.000	-0.143	-0.436
-392.092	141.588	0.189	-0.251
-391.077	-200.000	0.024	0.247
-390.063	-106.580	0.124	0.028
-389.048	29.161	-0.393	-0.334
-388.033	647.104	0.022	0.058
-387.019	-122.798	0.198	0.032
-386.004	-54.717	-0.307	-0.139
-384.990	-12.694	-0.128	-0.083
-383.975	293.693	-0.157	0.286
-382.960	680.366	0.093	0.241
-381.946	36.098	-0.206	-0.181
-380.931	-179.546	0.225	-0.005
-379.917	-77.362	-0.168	0.058
-378.902	-200.000	-0.032	0.140
-377.888	637.725	0.077	-0.196
-376.873	-158.186	0.140	-0.008
-375.858	-167.707	-0.113	-0.004
-374.844	-54.355	0.195	-0.088
-373.829	800.000	0.048	0.150
-372.815	533.624	0.060	0.141
-371.800	55.534	-0.104	-0.101
-370.785	-110.329	0.053	-0.011
-369.771	-70.754	-0.247	0.094
-368.756	92.478	-0.107	-0.121
-367.742	-26.751	0.261	0.153
-366.727	-200.000	0.082	0.371
-365.712	11.077	-0.272	-0.208
-364.698	-46.835	0.249	-0.122
-363.683	-109.958	-0.152	-0.032
-362.669	-98.225	-0.110	-0.028
-361.654	-17.609	-0.217	-0.136
-360.639	-151.570	0.391	-0.029
-359.625	-200.000	0.019	-0.103
-358.610	128.800	0.235	-0.300
-357.596	510.864	0.050	-0.117
-356.581	138.861	-0.049	-0.065
-355.566	-200.000	0.001	-0.074
-354.552	133.037	-0.113	0.146
-353.537	430.241	0.076	-0.164
-352.523	96.304	-0.175	0.200
-351.508	648.506	0.028	0.072
-350.493	-163.594	-0.098	-0.005
-349.479	458.023	0.074	-0.166
-348.464	-200.000	0.014	0.131
-347.450	94.233	-0.284	-0.323
-346.435	-200.000	0.047	0.270
-345.420	17.605	0.088	0.070
-344.406	142.207	-0.163	0.216
-343.391	189.921	-0.063	-0.095
-342.377	327.016	0.069	-0.132
-341.362	800.000	0.048	0.176
-340.348	-1.124	-0.132	0.094
-339.333	-139.550	0.467	-0.050
-338.318	115.030	0.132	-0.161
-337.304	800.000	0.057	-0.211
-336.289	-87.541	0.240	0.072
-335.275	-200.000	-0.029	0.335
-334.260	-101.298	0.359	0.088
-333.245	-50.519	-0.086	0.041
-332.231	800.000	-0.115	0.383
-331.216	0.690	0.111	-0.080
-330.202	122.391	-0.132	0.165
-329.187	800.000	0.035	-0.099
-328.172	-53.170	-0.598	-0.275
-327.158	-64.850	-0.032	-0.013
-326.143	-83.237	0.089	0.028
-325.129	-200.000	-0.011	-0.058
-324.114	-200.000	0.010	-0.059
-323.099	489.541	-0.129	-0.296
-322.085	800.000	0.128	-0.394
-321.070	-126.606	0.394	-0.058
-320.056	-44.580	-0.180	-0.090
-319.041	68.760	-0.152	0.156
-318.026	243.316	0.065	0.109
-317.012	-37.475	-0.047	0.025
-315.997	-200.000	-0.020	-0.099
-314.983	0.192	0.307	0.219
-313.968	67.671	-0.232	-0.237
-312.953	-147.570	0.275	0.023
-311.939	-137.813	0.457	0.051
-310.924	-200.000	0.008	0.127
-309.910	38.253	-0.101	0.089
-308.895	17.513	-0.173	0.137
-307.880	-144.985	-0.249	0.023
-306.866	-119.619	-0.388	-0.067
-305.851	-200.000	-0.035	0.214
-304.837	-121.418	0.150	0.025
-303.822	46.514	-0.115	0.107
-302.807	-89.707	0.219	0.064
-301.793	800.000	0.078	-0.242
-300.778	-123.415	0.015	0.002
-299.764	-68.650	0.307	-0.119
-298.749	-200.000	-0.001	0.259
-297.735	800.000	0.043	-0.160
-296.720	99.262	-0.160	-0.184
-295.705	-45.977	-0.254	0.125
-294.691	5.557	-0.083	0.061
-293.676	-24.156	0.341	-0.203
-292.662	-98.775	0.334	0.085
-291.647	97.943	0.176	0.202
-290.632	23.536	0.195	0.160
-289.618	-88.473	-0.215	0.064
-288.603	-200.000	0.084	-0.371
-287.589	22.598	-0.071	-0.058
-286.574	181.607	-0.210	-0.309
-285.559	-200.000	0.018	-0.081
-284.545	-200.000	0.010	0.095
-283.530	604.670	-0.185	0.460
-282.516	-14.217	-0.135	-0.087
-281.501	46.756	0.234	0.217
-280.486	-76.360	-0.097	-0.034
-279.472	-200.000	-0.027	0.232
-278.457	-200.000	0.002	0.236
-277.443	800.000	-0.070	0.216
-276.428	61.564	0.264	-0.262
-275.413	-95.193	0.338	0.091
-274.399	-4.139	-0.076	0.053
-273.384	349.471	-0.198	-0.389
-272.370	96.557	-0.287	0.328
-271.355	800.000	0.022	0.082
-270.340	-200.000	0.040	0.177
-269.326	225.397	-0.034	-0.054
-268.311	10.431	-0.285	0.216
-267.297	-7.917	-0.121	-0.081
-266.282	-16.656	-0.241	-0.152
-265.267	-145.933	-0.073	-0.006
-264.253	567.140	0.099	0.239
-263.238	556.033	-0.109	-0.263
-262.224	-14.946	-0.325	-0.208
-261.209	292.806	-0.246	-0.446
-260.195	800.000	0.074	0.257
-259.180	-200.000	-0.004	0.475
-258.165	119.430	-0.071	0.087
-257.151	143.378	0.184	-0.245
-256.136	-109.446	0.139	-0.029
-255.122	-51.840	-0.196	-0.091
-254.107	-157.322	0.503	0.030
-253.092	-99.292	-0.557	0.140
-252.078	-200.000	-0.014	-0.082
-251.063	-33.657	0.278	-0.153
-250.049	436.631	0.094	0.204
-249.034	90.492	-0.124	-0.138
-248.019	120.475	-0.115	-0.142
-247.005	-200.000	0.023	0.125
-245.990	346.976	-0.142	-0.278
-244.976	-107.896	0.345	0.075
-243.961	41.324	-0.148	0.133
-242.946	-142.922	0.214	-0.021
-241.932	-110.616	0.221	-0.045
-240.917	-68.658	-0.137	0.053
-239.903	-105.896	0.154	0.035
-238.888	-55.095	0.259	-0.116
-237.873	-2.451	0.339	-0.237
-236.859	-200.000	0.008	0.035
-235.844	-109.208	0.258	-0.055
-234.830	1.027	0.102	-0.073
-233.815	4.281	-0.133	0.097
-232.800	77.172	-0.305	0.323
-231.786	248.658	0.067	0.113
-230.771	-200.000	0.017	0.201
-229.757	800.000	0.026	0.088
-228.742	176.703	0.055	-0.079
-227.727	-48.684	0.209	-0.100
-226.713	615.677	-0.179	0.447
-225.698	98.429	0.141	0.162
-224.684	278.130	-0.088	0.155
-223.669	-160.105	-0.209	-0.011
-222.655	-103.348	-0.259	-0.061
-221.640	139.713	0.189	0.248
-220.625	-200.000	0.012	0.066
-219.611	209.160	0.139	0.217
-218.596	-200.000	-0.041	0.296
-217.582	195.848	0.114	0.172
-216.567	264.912	-0.188	0.326
-215.552	50.473	0.206	0.194
-214.538	-200.000	-0.035	-0.313
-213.523	59.739	-0.064	0.063
-212.509	188.594	0.249	0.371
-211.494	-74.723	-0.283	-0.101
-210.479	11.758	0.185	0.141
-209.465	-107.901	0.192	-0.042
-208.450	1.102	0.549	0.392
-207.436	202.377	-0.224	0.345
-206.421	800.000	0.034	-0.097
-205.406	368.182	-0.236	-0.475
-204.392	134.112	-0.146	-0.188
-203.377	76.185	-0.116	0.122
-202.363	114.498	0.105	0.127
-201.348	287.381	-0.095	0.171
-200.333	-110.085	-0.301	0.062
-199.319	800.000	-0.037	-0.144
-198.304	-21.139	0.154	0.094
-197.290	-52.876	0.145	-0.067
-196.275	-9.430	-0.137	-0.091
-195.260	146.791	-0.079	0.106
-194.246	-128.870	-0.065	-0.009
-193.231	619.716	0.104	-0.261
-192.217	-169.217	0.362	0.013
-191.202	-8.267	-0.086	0.058
-190.187	784.679	0.045	-0.123
-189.173	528.548	0.167	0.392
-188.158	313.465	0.086	0.161
-187.144	73.845	0.064	0.067
-186.129	-106.277	-0.205	-0.046
-185.114	-70.178	0.356	0.134
-184.100	130.796	0.137	-0.175
-183.085	-12.847	0.246	-0.159
-182.071	34.764	-0.081	-0.071
-181.056	800.000	0.055	0.158
-180.042	106.544	-0.113	0.133
-179.027	-41.016	0.241	-0.124
-178.012	44.763	0.404	0.369
-176.998	325.880	0.029	0.055
-175.983	800.000	-0.040	-0.112
-174.969	-200.000	-0.010	0.088
-173.954	199.311	0.073	0.112
-172.939	-20.841	0.112	-0.068
-171.925	-200.000	-0.033	-0.211
-170.910	-134.260	-0.200	0.024
-169.896	-200.000	0.026	-0.191
-168.881	-200.000	0.039	0.418
-167.866	254.587	0.163	0.277
-166.852	83.865	0.203	0.221
-165.837	-151.696	0.176	0.013
-164.823	226.322	0.091	0.147
-163.808	800.000	0.087	-0.359
-162.793	-100.355	-0.280	-0.069
-161.779	-200.000	-0.016	-0.223
-160.764	-200.000	0.007	0.099
-159.750	-159.347	-0.208	0.012
-158.735	-118.296	-0.128	0.023
-157.720	53.984	-0.315	-0.301
-156.706	-19.881	0.204	-0.125
-155.691	-32.186	0.148	0.082
-154.677	12.294	0.189	-0.144
-153.662	-111.503	-0.363	0.073
-152.647	9.529	0.140	0.105
-151.633	442.822	0.133	0.290
-150.618	800.000	0.068	0.213
-149.604	-200.000	-0.015	-0.108
-148.589	135.630	0.249	0.322
-147.574	-200.000	-0.039	0.322
-146.560	142.088	0.118	-0.155
-145.545	39.799	0.100	0.089
-144.531	-170.516	-0.091	-0.003
-143.516	800.000	-0.017	-0.073
-142.502	-95.071	0.167	-0.045
-141.487	800.000	0.052	-0.165
-140.472	-200.000	-0.010	-0.112
-139.458	206.519	-0.034	0.052
-138.443	212.733	-0.130	0.204
-137.429	110.485	0.318	0.379
-136.414	172.730	0.211	-0.301
-135.399	104.469	0.115	0.135
-134.385	417.221	0.064	-0.136
-133.370	800.000	-0.079	0.239
-132.356	158.649	0.050	0.069
-131.341	435.533	0.106	0.230
-130.326	-151.313	0.050	0.004
-129.312	66.334	-0.177	0.178
-128.297	136.958	0.079	-0.102
-127.283	-113.195	-0.145	-0.028
-126.268	-100.768	0.187	-0.046
-125.253	57.484	0.283	0.274
-124.239	326.893	-0.122	-0.232
-123.224	-200.000	0.019	0.131
-122.210	800.000	0.035	0.140
-121.195	-63.415	0.124	0.050
-120.180	113.363	-0.150	-0.181
-119.166	-7.618	0.294	-0.197
-118.151	340.961	0.181	-0.351
-117.137	-200.000	-0.008	-0.092
-116.122	127.674	0.047	0.059
-115.107	100.862	0.220	-0.253
-114.093	-127.027	-0.289	-0.042
-113.078	62.872	-0.146	0.144
-112.064	460.082	0.124	0.273
-111.049	-126.278	0.111	0.016
-110.034	800.000	-0.074	0.202
-109.020	6.681	0.252	0.186
-108.005	-38.053	-0.054	0.029
-106.991	-152.907	0.376	-0.026
-105.976	-200.000	-0.016	-0.145
-104.962	-110.343	-0.276	0.057
-103.947	-40.151	0.217	0.112
-102.932	-149.100	0.235	0.019
-101.918	73.902	-0.131	-0.137
-100.903	-59.802	0.126	-0.053
-99.889	51.787	0.090	0.085
-98.874	444.160	-0.089	0.194
-97.859	20.758	-0.341	0.274
-96.845	-74.109	0.240	0.086
-95.830	-200.000	0.027	-0.206
-94.816	-69.565	0.173	-0.066
-93.801	150.287	-0.131	-0.176
-92.786	608.418	0.089	0.220
-91.772	-72.742	0.022	-0.008
-90.757	800.000	0.022	0.093
-89.743	-4.911	0.071	-0.049
-88.728	-200.000	0.007	-0.092
-87.713	54.022	0.219	0.209
-86.699	-200.000	-0.056	-0.248
-85.684	-31.353	0.286	-0.159
-84.670	232.452	0.083	-0.136
-83.655	-25.704	-0.064	-0.038
-82.640	484.483	0.079	-0.178
-81.626	-200.000	0.028	-0.209
-80.611	91.844	0.241	-0.269
-79.597	517.196	0.065	-0.150
-78.582	112.625	0.159	-0.191
-77.567	-123.952	0.400	-0.062
-76.553	44.595	-0.118	0.108
-75.538	-9.638	-0.146	0.097
-74.524	-84.251	0.122	-0.038
-73.509	-200.000	-0.006	0.315
-72.494	394.363	-0.083	-0.172
-71.480	511.402	0.086	0.199
-70.465	-116.169	0.101	-0.019
-69.451	-200.000	0.017	-0.179
-68.436	800.000	0.048	-0.138
-67.422	185.645	0.145	0.214
-66.407	-184.706	0.204	0.003
-65.392	32.105	0.143	0.122
-64.378	586.734	0.179	0.436
-63.363	28.247	0.132	0.111
-62.349	-117.246	-0.392	-0.071
-61.334	92.518	-0.756	-0.843
-60.319	176.883	0.363	0.522
-59.305	800.000	-0.220	-0.753
-58.290	213.321	0.545	0.852
-57.276	-200.000	0.351	1.709
-56.261	-200.000	97.766	576.526
-55.246	540.058	1394.360	3282.472
-54.232	149.980	2606.244	3495.570
-53.217	113.167	2178.636	2612.984
-52.203	45.867	1628.582	1489.570
-51.188	37.725	1363.726	1197.484
-50.173	34.342	1320.711	1139.474
-49.159	56.309	1370.859	1317.050
-48.144	60.389	1387.938	1358.200
-47.130	38.060	1341.893	1180.148
-46.115	34.249	1324.589	1142.084
-45.100	34.110	1319.559	1136.870
-44.086	33.983	1317.538	1134.330
-43.071	34.019	1314.662	1132.022
-42.057	34.017	1312.648	1130.232
-41.042	33.938	1311.205	1128.475
-40.027	34.048	1309.855	1127.920
-39.013	34.010	1307.677	1125.776
-37.998	34.076	1306.034	1124.707
-36.984	34.029	1304.259	1122.857
-35.969	33.965	1302.884	1121.248
-34.954	34.227	1300.345	1120.563
-33.940	34.180	1299.297	1119.339
-32.925	34.271	1297.954	1118.668
-31.911	34.252	1296.688	1117.421
-30.896	34.341	1294.669	1116.159
-29.881	34.197	1293.670	1114.413
-28.867	34.275	1292.329	1113.671
-27.852	34.211	1290.782	1111.920
-26.838	34.269	1289.320	1110.952
-25.823	34.221	1288.173	1109.637
-24.809	34.208	1286.836	1108.369
-23.794	34.342	1285.285	1107.768
-22.779	34.216	1284.379	1106.214
-21.765	34.160	1282.792	1104.474
-20.750	34.094	1281.978	1103.350
-19.736	34.038	1280.559	1101.760
-18.721	34.057	1279.151	1100.614
-17.706	34.215	1277.544	1100.100
-16.692	34.099	1276.818	1098.760
-15.677	34.054	1275.870	1097.643
-14.663	34.056	1274.563	1096.483
-13.648	34.100	1273.619	1095.886
-12.633	34.076	1272.397	1094.648
-11.619	34.125	1271.300	1093.945
-10.604	34.072	1270.971	1093.312
-9.590	33.967	1269.992	1091.826
-8.575	33.976	1268.753	1090.769
-7.560	34.039	1267.916	1090.368
-6.546	34.036	1267.456	1089.913
-5.531	34.034	1266.371	1088.923
-4.517	34.056	1265.065	1087.881
-3.502	34.096	1264.159	1087.287
-2.487	33.979	1263.523	1086.027
-1.473	34.072	1259.368	1082.943
-0.458	33.117	1245.108	1065.263
0.556	29.925	1227.455	1029.087
1.571	26.265	1233.340	1013.442
2.586	25.400	1249.055	1021.345
3.600	24.649	1238.027	1008.004
4.615	17.835	1162.518	910.225
5.629	6.984	1083.344	793.941
6.644	2.061	1062.286	754.163
7.659	1.753	1058.861	750.148
8.673	1.645	1058.067	748.988
9.688	1.511	1056.200	746.943
10.702	1.963	1054.798	748.099
11.717	8.346	1064.062	786.107
12.731	18.826	1079.361	849.417
13.746	24.224	1086.322	881.603
14.761	25.140	1086.698	886.358
15.775	25.129	1086.251	885.861
16.790	24.924	1085.723	884.341
17.804	24.837	1085.006	883.250
18.819	24.902	1084.539	883.112
19.834	25.002	1084.165	883.221
20.848	25.066	1084.153	883.450
21.863	25.159	1083.400	883.216
22.877	25.163	1082.130	882.121
23.892	25.021	1081.528	880.855
24.907	25.176	1080.886	881.019
25.921	25.085	1079.704	879.528
26.936	25.142	1078.302	878.586
27.950	25.007	1077.278	877.018
28.965	24.847	1075.423	874.644
29.980	24.972	1073.896	873.938
30.994	25.165	1073.144	874.187
32.009	25.160	1071.965	873.128
33.023	24.963	1070.894	871.217
34.038	24.999	1070.004	870.592
35.053	25.044	1069.643	870.438
36.067	25.328	1068.244	870.600
37.082	25.179	1068.174	869.747
38.096	25.279	1067.599	869.684
39.111	25.377	1066.567	869.240
40.126	25.132	1065.095	866.780
41.140	24.754	1063.411	863.506
42.155	24.608	1061.992	861.579
43.169	24.670	1060.989	860.986
44.184	24.728	1060.085	860.455
45.199	24.566	1059.207	858.886
46.213	24.733	1057.910	858.562
47.228	24.938	1057.362	859.022
48.242	24.978	1057.175	858.987
49.257	25.062	1056.214	858.533
50.271	25.096	1055.645	858.160
51.286	25.193	1054.224	857.387
52.301	25.124	1053.637	856.505
53.315	25.022	1052.963	855.398
54.330	24.918	1051.896	853.957
55.344	25.067	1050.910	853.793
56.359	24.997	1050.119	852.742
57.374	24.788	1049.106	850.847
58.388	24.902	1048.372	850.721
59.403	24.655	1047.825	849.029
60.417	24.753	1046.293	848.174
61.432	24.720	1046.222	847.886
62.447	24.798	1045.560	847.646
63.461	24.975	1044.667	847.684
64.476	24.702	1043.960	845.744
65.490	24.690	1042.665	844.564
66.505	24.707	1042.105	844.117
67.520	24.774	1041.906	844.193
68.534	24.574	1040.337	841.906
69.549	24.352	1039.111	839.795
70.563	24.295	1038.655	839.083
71.578	24.275	1038.248	838.586
72.593	24.081	1037.020	836.608
73.607	24.286	1036.523	837.098
74.622	24.630	1036.031	838.240
75.636	24.624	1035.516	837.720
76.651	24.597	1034.438	836.649
77.666	24.356	1033.942	835.046
78.680	24.587	1033.168	835.428
79.695	24.628	1032.370	834.900
80.709	24.633	1031.731	834.331
81.724	24.623	1030.571	833.273
82.739	24.810	1029.898	833.528
83.753	25.118	1029.700	834.727
84.768	25.405	1028.954	835.382
85.782	25.519	1027.673	834.797
86.797	25.336	1026.883	833.234
87.812	25.169	1025.836	831.535
88.826	25.309	1024.693	831.186
89.841	25.356	1024.095	830.842
90.855	25.391	1022.920	829.978
91.870	25.361	1022.532	829.453
92.884	25.062	1021.239	826.949
93.899	25.244	1020.337	826.983
94.914	25.273	1019.806	826.616
95.928	25.215	1018.471	825.195
96.943	24.929	1017.262	822.827
97.957	24.660	1016.169	820.633
98.972	24.635	1015.250	819.706
99.987	24.904	1014.379	820.164
101.001	24.982	1013.925	820.077
102.016	25.052	1013.340	819.852
103.030	24.963	1012.016	818.303
104.045	24.802	1011.090	816.745
105.060	24.661	1010.083	815.220
106.074	24.822	1009.377	815.309
107.089	25.149	1008.909	816.350
108.103	25.155	1007.627	815.269
109.118	24.769	1006.788	812.762
110.133	24.774	1005.638	811.786
111.147	24.711	1004.004	810.110
112.162	24.566	1003.371	808.868
113.176	24.804	1003.145	809.695
114.191	24.750	1002.314	808.705
115.206	24.468	1001.036	806.330
116.220	24.417	1000.611	805.686
117.235	24.544	999.686	805.441
118.249	24.569	998.606	804.615
119.264	24.493	997.619	803.404
120.279	24.491	997.126	802.928
121.293	24.599	996.174	802.575
122.308	24.505	995.775	801.763
123.322	24.344	994.689	800.096
124.337	24.333	993.214	798.788
125.352	23.836	991.110	794.803
126.366	23.761	990.526	793.929
127.381	24.645	990.236	797.574
128.395	24.869	990.305	798.559
129.410	25.183	989.263	799.048
130.424	25.150	988.024	797.830
131.439	25.069	987.350	796.855
132.454	24.944	986.790	795.774
133.468	25.066	985.559	795.255
134.483	25.132	984.986	795.015
135.497	25.262	984.466	795.100
136.512	25.358	983.471	794.651
137.527	25.145	982.727	793.036
138.541	25.314	981.813	792.976
139.556	25.248	981.434	792.310
140.570	25.403	980.512	792.177
141.585	25.341	979.255	790.818
142.600	25.237	978.381	789.584
143.614	25.309	978.025	789.547
144.629	25.675	976.755	790.058
145.643	25.463	975.633	788.148
146.658	25.247	974.339	786.088
147.673	25.253	973.324	785.227
148.687	25.125	972.281	783.758
149.702	25.111	971.182	782.741
150.716	24.998	970.569	781.686
151.731	25.205	969.631	781.761
152.746	25.255	969.340	781.677
153.760	25.464	968.454	781.802
154.775	25.517	968.176	781.739
155.789	25.417	967.250	780.485
156.804	25.353	966.257	779.340
157.819	25.451	965.421	779.022
158.833	25.717	964.715	779.532
159.848	25.505	963.798	777.808
160.862	25.326	962.197	775.673
161.877	25.536	961.383	775.852
162.892	25.459	960.120	774.434
163.906	25.361	959.293	773.275
164.921	25.445	958.495	772.928
165.935	25.542	957.513	772.484
166.950	25.474	956.534	771.331
167.964	25.432	955.691	770.406
168.979	25.183	954.743	768.506
169.994	25.212	953.817	767.817
171.008	25.469	953.474	768.570
172.023	25.618	952.490	768.346
173.037	25.243	951.363	765.771
174.052	25.075	950.737	764.484
175.067	25.181	949.887	764.181
176.081	25.379	949.521	764.662
177.096	25.176	949.141	763.427
178.110	24.861	948.431	761.448
179.125	24.692	947.410	759.843
180.140	24.927	946.930	760.390
181.154	24.904	946.733	760.066
182.169	25.289	946.442	761.398
183.183	25.513	945.764	761.733
184.198	25.344	945.329	760.599
185.213	25.235	944.578	759.469
186.227	25.463	943.679	759.642
187.242	25.360	943.439	758.945
188.256	25.432	942.663	758.559
189.271	25.567	941.539	758.154
190.286	25.163	940.548	755.588
191.300	24.543	939.149	751.791
192.315	23.669	937.413	746.658
193.329	23.629	937.505	746.499
194.344	24.766	937.338	751.077
195.359	25.316	937.148	753.168
196.373	25.416	936.951	753.362
197.388	25.286	936.608	752.475
198.402	25.241	935.860	751.618
199.417	25.275	935.090	751.076
200.432	25.077	934.321	749.561
201.446	24.880	933.477	747.994
202.461	25.004	932.819	747.922
203.475	24.120	931.117	742.804
204.490	23.269	929.782	738.126
205.504	24.141	930.439	742.221
206.519	24.767	930.273	744.629
207.534	24.958	929.550	744.776
208.548	25.317	929.584	746.234
209.563	25.188	928.238	744.551
210.577	25.087	927.459	743.440
211.592	25.512	927.560	745.220
212.607	25.447	926.695	744.188
213.621	25.528	926.156	744.023
214.636	25.636	925.217	743.650
215.650	25.422	924.516	742.137
216.665	25.644	924.171	742.709
217.680	25.451	923.157	741.033
218.694	25.185	921.852	738.825
219.709	25.117	921.323	738.058
220.723	25.208	921.269	738.324
221.738	25.359	920.487	738.251
222.753	25.251	920.002	737.355
223.767	25.440	919.695	737.818
224.782	25.799	919.255	738.874
225.796	25.721	918.266	737.695
226.811	25.002	916.781	733.494
227.826	24.229	915.658	729.367
228.840	24.451	915.393	730.000
229.855	24.611	914.798	730.116
230.869	24.331	913.069	727.528
231.884	24.634	913.883	729.347
232.899	25.378	914.039	732.446
233.913	25.201	913.195	730.982
234.928	25.241	912.380	730.428
235.942	25.063	911.792	729.168
236.957	24.953	910.989	728.015
237.972	24.856	910.478	727.148
238.986	25.053	910.011	727.510
240.001	24.936	909.510	726.573
241.015	25.141	908.944	726.884
242.030	25.287	908.343	726.931
243.045	25.304	907.866	726.556
244.059	25.574	906.958	726.857
245.074	25.275	906.515	725.226
246.088	24.964	905.204	722.861
247.103	25.221	905.263	723.880
248.117	25.601	905.643	725.652
249.132	26.091	904.694	726.804
250.147	26.050	904.108	726.104
251.161	26.203	904.036	726.598
252.176	26.100	903.338	725.556
253.190	26.410	902.913	726.399
254.205	26.427	902.097	725.743
255.220	26.307	901.772	724.938
256.234	26.181	900.428	723.289
257.249	26.164	899.755	722.614
258.263	26.269	899.265	722.578
259.278	26.216	898.932	722.034
260.293	26.228	898.314	721.522
261.307	26.193	897.206	720.428
262.322	25.997	896.479	718.999
263.336	25.336	894.714	714.888
264.351	24.217	893.056	709.052
265.366	24.380	892.647	709.312
266.380	25.417	893.518	714.065
267.395	25.761	893.395	715.274
268.409	25.754	892.373	714.361
269.424	26.040	891.929	715.076
270.439	26.048	891.401	714.624
271.453	26.145	890.608	714.309
272.468	26.211	890.288	714.247
273.482	26.340	890.409	714.795
274.497	25.830	888.684	711.332
275.512	25.531	887.697	709.298
276.526	25.879	887.970	710.830
277.541	26.081	887.426	711.126
278.555	25.847	886.624	709.498
279.570	25.810	885.611	708.482
280.585	25.967	885.325	708.805
281.599	25.611	884.703	706.845
282.614	25.143	883.440	703.937
283.628	25.265	882.713	703.773
284.643	25.645	882.572	705.088
285.657	25.262	881.435	702.620
286.672	24.957	880.342	700.492
287.687	25.595	880.475	703.030
288.701	25.574	879.792	702.341
289.716	25.263	878.755	700.240
290.730	25.325	878.000	699.818
291.745	24.974	877.106	697.678
292.760	25.359	877.288	699.257
293.774	26.308	877.566	703.112
294.789	26.458	877.960	703.950
295.803	26.678	876.759	703.778
296.818	26.643	876.177	703.112
297.833	26.095	875.287	700.212
298.847	26.021	874.102	698.914
299.862	26.397	874.272	700.445
300.876	26.566	874.220	700.995
301.891	26.502	872.971	699.684
302.906	25.988	872.579	697.321
303.920	26.192	872.060	697.635
304.935	26.619	871.576	698.833
305.949	26.512	870.776	697.718
306.964	26.304	869.838	696.103
307.979	26.355	869.717	696.142
308.993	26.689	869.974	697.571
310.008	26.633	869.502	696.916
311.022	26.450	868.528	695.371
312.037	26.174	867.766	693.640
313.052	25.981	866.672	691.961
314.066	25.261	864.849	687.687
315.081	24.757	864.335	685.286
316.095	25.753	864.723	689.349
317.110	26.236	864.479	690.944
318.125	25.458	862.705	686.493
319.139	24.387	861.340	681.258
320.154	24.214	861.100	680.349
321.168	25.312	861.336	684.664
322.183	25.842	861.876	687.055
323.197	26.236	861.009	687.805
324.212	26.213	861.014	687.657
325.227	26.384	860.583	687.904
326.241	26.101	859.811	686.150
327.256	26.149	859.163	685.755
328.270	26.020	858.333	684.543
329.285	25.686	857.456	682.517
330.300	25.547	856.578	681.229
331.314	25.908	856.220	682.251
332.329	26.339	856.408	683.973
333.343	26.502	856.010	684.211
334.358	26.331	855.765	683.308
335.373	26.433	855.686	683.571
336.387	26.769	855.387	684.542
337.402	26.840	854.978	684.419
338.416	26.763	854.834	683.954
339.431	26.868	854.420	683.956
340.446	27.037	853.998	684.195
341.460	26.830	853.876	683.256
342.475	26.711	852.886	681.957
343.489	26.781	852.778	682.074
344.504	27.198	852.098	683.037
345.519	27.218	852.059	683.019
346.533	27.368	851.226	682.856
347.548	27.277	850.844	682.147
348.562	27.200	850.480	681.508
349.577	27.118	850.067	680.807
350.592	27.163	849.014	680.074
351.606	27.143	848.005	679.128
352.621	26.976	847.394	677.955
353.635	26.982	846.588	677.273
354.650	26.393	844.646	673.469
355.665	25.357	843.739	668.826
356.679	25.692	843.617	669.921
357.694	26.326	843.047	671.765
358.708	25.987	842.726	670.190
359.723	26.484	842.374	671.696
360.738	26.950	842.103	673.151
361.752	26.952	841.447	672.572
362.767	27.307	841.346	673.747
363.781	27.580	841.078	674.485
364.796	27.657	840.431	674.190
365.810	27.533	840.322	673.586
366.825	27.523	839.850	673.109
367.840	27.221	839.129	671.359
368.854	26.831	837.982	668.941
369.869	27.010	837.649	669.276
370.883	26.920	837.368	668.661
371.898	26.969	836.909	668.417
372.913	26.990	836.476	668.090
373.927	27.239	835.597	668.244
374.942	27.251	835.368	668.045
375.956	27.243	835.257	667.868
376.971	27.423	834.796	668.100
377.986	27.534	834.601	668.292
379.000	27.502	834.014	667.644
380.015	27.545	832.889	666.843
381.029	27.306	832.860	665.886
382.044	27.544	832.221	666.187
383.059	27.623	832.057	666.286
384.073	27.470	831.148	664.939
385.088	27.424	830.463	664.167
386.102	27.336	829.522	663.032
387.117	27.505	828.649	662.893
388.132	26.887	827.917	660.001
389.146	26.381	827.249	657.569
390.161	26.876	827.090	659.183
391.175	27.413	826.607	660.689
392.190	26.960	825.771	658.321
393.205	25.630	823.376	651.540
394.219	24.058	821.687	644.462
395.234	24.097	821.594	644.473
396.248	25.622	822.996	651.039
397.263	27.057	824.077	657.032
398.278	27.045	823.164	656.202
399.292	26.851	822.514	654.925
400.307	26.976	822.576	655.369
401.321	26.974	821.775	654.663
402.336	27.203	822.004	655.613
403.350	27.773	822.077	657.670
404.365	28.075	821.733	658.424
405.380	28.292	821.142	658.674
406.394	28.400	820.910	658.818
407.409	28.277	820.278	657.810
408.423	28.188	820.052	657.249
409.438	28.083	819.936	656.723
410.453	28.196	819.309	656.568
411.467	28.156	818.755	655.921
412.482	28.099	818.767	655.669
413.496	28.251	818.242	655.736
414.511	28.362	817.382	655.383
415.526	28.294	816.966	654.751
416.540	28.227	816.297	653.917
417.555	27.890	815.535	652.046
418.569	28.065	815.161	652.313
419.584	27.887	814.813	651.342
420.599	27.738	814.180	650.246
421.613	107.218	1284.280	1447.570
422.628	92.688	1352.795	1447.676
