DTS Sentinel unit serial number:	SN413079Multiplexer serial number:	ORYXHardware model number:	OX4-SRSoftware version number:	ORYX F/W v4.00 Oryx Data Collector v3.7.2.0data status	okinstallation	princeton_trtdifferential loss correction	single-endedforward channel	channel 1reverse channel	N/Adate	2019/09/11time	20:00:11forward acquisition time	60.00reverse acquisition time	0.00gamma	496.2192k internal	0.2301k external	0.2301temperature offset calibration	1.0036default loss term (dB/km)	0.3790temperature slope calibration	1.0000multiplexer offset coefficient	1.0000multiplexer slope coefficient	1.0000fibre end	0.00T internal ref (°C)	38.81T ext. ref 1 (°C)	1.39T ext. ref 2 (°C)	31.98length (m)	temperature (°C)	Stokes	anti-Stokes-747.200	-140.931	-0.145	0.015
-746.185	-84.365	0.232	0.075
-745.171	-99.192	-0.521	-0.134
-744.156	3.246	-0.162	0.120
-743.142	-200.000	-0.276	0.000
-742.127	800.000	-0.059	0.215
-741.112	38.346	-0.106	-0.097
-740.098	-200.000	-0.095	0.508
-739.083	-164.582	-0.165	0.008
-738.069	-77.589	-0.149	-0.052
-737.054	480.956	0.085	-0.196
-736.039	213.956	-0.141	0.227
-735.025	75.102	0.195	0.210
-734.010	-146.535	-0.115	-0.010
-732.996	-127.251	-0.435	-0.065
-731.981	687.665	0.056	-0.149
-730.966	-29.970	-0.282	-0.164
-729.952	23.174	0.105	-0.088
-728.937	109.961	0.173	0.212
-727.923	150.846	-0.093	-0.128
-726.908	459.005	-0.133	-0.301
-725.894	-200.000	0.017	-0.261
-724.879	-200.000	0.048	-0.273
-723.864	67.603	-0.164	0.170
-722.850	-106.339	0.099	-0.023
-721.835	123.023	0.205	0.262
-720.821	-200.000	-0.051	0.275
-719.806	105.829	0.272	-0.328
-718.791	-200.000	0.042	-0.371
-717.777	-200.000	0.061	-0.295
-716.762	74.775	0.130	-0.139
-715.748	5.329	-0.177	-0.133
-714.733	3.491	0.096	-0.071
-713.718	218.856	0.030	-0.049
-712.704	-118.124	-0.341	-0.062
-711.689	340.966	-0.148	-0.294
-710.675	38.766	0.320	0.291
-709.660	112.794	0.055	-0.068
-708.645	800.000	-0.018	-0.073
-707.631	-200.000	0.068	-0.320
-706.616	-200.000	0.050	0.258
-705.602	66.980	0.193	-0.200
-704.587	33.168	-0.264	0.233
-703.572	266.722	0.132	0.234
-702.558	247.560	0.062	0.107
-701.543	-35.729	-0.151	-0.083
-700.529	86.106	0.083	-0.093
-699.514	-200.000	0.070	-0.348
-698.499	-160.189	-0.203	0.011
-697.485	25.900	0.107	-0.090
-696.470	110.768	0.131	0.161
-695.456	312.422	0.088	-0.169
-694.441	800.000	0.096	0.389
-693.426	-146.089	-0.221	0.020
-692.412	-200.000	-0.006	0.097
-691.397	146.471	0.291	-0.398
-690.383	-19.389	0.126	0.079
-689.368	-71.062	-0.191	0.073
-688.354	800.000	-0.039	0.118
-687.339	-31.902	0.168	-0.096
-686.324	311.532	-0.106	-0.203
-685.310	-29.920	0.050	-0.029
-684.295	-3.991	0.039	0.028
-683.281	558.059	-0.054	-0.132
-682.266	-35.304	0.059	0.032
-681.251	-99.682	-0.157	0.040
-680.237	-200.000	-0.024	-0.193
-679.222	800.000	-0.063	-0.257
-678.208	-200.000	0.017	-0.182
-677.193	-98.683	-0.174	0.045
-676.178	-21.182	0.208	-0.130
-675.164	800.000	-0.069	-0.228
-674.149	-79.238	0.210	-0.072
-673.135	800.000	-0.051	-0.190
-672.120	-16.937	-0.140	-0.090
-671.105	21.568	0.233	-0.192
-670.091	-50.959	0.391	0.187
-669.076	-86.130	0.115	0.036
-668.062	-200.000	-0.101	0.586
-667.047	-200.000	0.025	0.414
-666.032	800.000	0.103	-0.410
-665.018	-200.000	0.022	0.173
-664.003	43.795	0.117	-0.109
-662.989	-200.000	0.012	-0.160
-661.974	-200.000	-0.024	0.164
-660.959	-64.354	0.004	-0.002
-659.945	-200.000	-0.049	-0.444
-658.930	800.000	0.049	-0.145
-657.916	-37.347	-0.251	-0.136
-656.901	-200.000	-0.009	-0.290
-655.886	800.000	0.093	-0.329
-654.872	-200.000	-0.006	-0.139
-653.857	-101.801	0.260	0.064
-652.843	-10.911	-0.180	-0.121
-651.828	456.397	-0.136	-0.306
-650.814	800.000	-0.068	-0.251
-649.799	651.233	0.099	-0.258
-648.784	-128.012	0.262	-0.038
-647.770	288.236	-0.167	0.308
-646.755	268.353	0.302	0.538
-645.741	-122.349	-0.187	-0.031
-644.726	-200.000	-0.005	0.032
-643.711	-200.000	-0.004	0.107
-642.697	-200.000	0.028	0.163
-641.682	17.537	0.063	0.051
-640.668	800.000	0.053	-0.150
-639.653	-123.200	0.163	0.026
-638.638	-12.095	-0.250	0.166
-637.624	-32.946	0.014	0.008
-636.609	157.051	-0.082	0.115
-635.595	39.271	0.349	-0.318
-634.580	-170.056	0.220	-0.008
-633.565	2.133	-0.177	0.130
-632.551	82.134	0.048	0.052
-631.536	-200.000	0.036	0.252
-630.522	709.103	0.083	0.222
-629.507	-69.241	-0.391	0.153
-628.492	-93.385	0.228	0.064
-627.478	108.981	-0.105	-0.127
-626.463	-168.548	0.439	-0.017
-625.449	424.696	0.147	-0.322
-624.434	-200.000	-0.056	-0.255
-623.419	363.328	-0.131	0.266
-622.405	-68.286	0.088	-0.035
-621.390	-73.389	0.210	0.078
-620.376	-200.000	-0.042	-0.437
-619.361	75.756	-0.170	0.182
-618.346	53.177	-0.238	-0.231
-617.332	96.002	-0.138	-0.160
-616.317	181.021	-0.155	-0.232
-615.303	-43.539	-0.173	0.089
-614.288	27.409	0.273	0.233
-613.273	134.909	0.031	-0.041
-612.259	-200.000	0.003	0.148
-611.244	-200.000	0.013	0.164
-610.230	369.007	-0.142	-0.292
-609.215	-200.000	-0.025	0.113
-608.201	478.011	0.004	-0.010
-607.186	800.000	0.062	-0.199
-606.171	-142.192	-0.262	-0.026
-605.157	-107.184	-0.229	-0.051
-604.142	27.002	-0.169	-0.144
-603.128	800.000	-0.037	0.146
-602.113	128.185	-0.135	-0.175
-601.098	26.111	-0.148	0.125
-600.084	-200.000	-0.023	-0.442
-599.069	283.813	-0.158	-0.288
-598.055	-52.432	-0.093	-0.044
-597.040	-123.799	-0.207	-0.033
-596.025	-46.399	-0.130	0.064
-595.011	800.000	-0.062	-0.185
-593.996	17.497	0.152	-0.123
-592.982	-200.000	0.014	0.097
-591.967	511.698	0.094	0.223
-590.952	51.959	-0.030	0.029
-589.938	-200.000	0.003	-0.272
-588.923	366.425	0.073	-0.149
-587.909	-200.000	-0.115	-0.532
-586.894	3.789	0.181	-0.134
-585.879	-200.000	0.007	0.043
-584.865	800.000	-0.041	0.170
-583.850	-159.979	0.170	-0.009
-582.836	-91.732	0.026	-0.007
-581.821	616.894	0.141	0.358
-580.806	-9.549	-0.191	0.129
-579.792	-200.000	-0.022	0.123
-578.777	-135.518	-0.170	0.021
-577.763	-134.856	0.373	-0.046
-576.748	57.855	-0.087	0.086
-575.733	-9.127	-0.285	0.193
-574.719	-34.507	-0.068	-0.038
-573.704	-195.776	-0.050	-0.000
-572.690	3.721	-0.229	0.169
-571.675	462.634	0.064	-0.144
-570.661	22.049	0.167	0.138
-569.646	-13.469	-0.344	0.226
-568.631	-56.979	-0.422	0.188
-567.617	800.000	0.037	-0.108
-566.602	-177.938	0.401	0.010
-565.588	-127.373	0.123	-0.018
-564.573	-200.000	-0.002	-0.171
-563.558	93.236	-0.244	-0.280
-562.544	430.615	-0.234	-0.512
-561.529	-12.918	-0.238	-0.157
-560.515	156.994	-0.246	0.345
-559.500	225.197	0.090	0.147
-558.485	135.109	0.039	0.052
-557.471	196.646	-0.059	0.092
-556.456	800.000	-0.045	0.151
-555.442	-129.968	-0.338	0.047
-554.427	596.339	0.095	0.239
-553.412	24.580	0.131	-0.110
-552.398	-20.564	0.264	-0.164
-551.383	-200.000	0.084	0.448
-550.369	17.639	-0.110	0.088
-549.354	261.093	-0.026	0.046
-548.339	51.689	-0.062	-0.060
-547.325	411.368	-0.103	-0.220
-546.310	249.725	0.118	0.203
-545.296	301.244	0.090	-0.169
-544.281	165.443	0.052	-0.075
-543.266	-150.527	-0.112	0.009
-542.252	293.281	0.073	0.135
-541.237	-192.947	-0.252	-0.002
-540.223	-144.045	0.063	0.006
-539.208	228.996	0.088	-0.145
-538.193	-81.314	-0.293	0.098
-537.179	-162.288	0.172	0.009
-536.164	118.175	-0.138	-0.173
-535.150	432.836	-0.051	-0.112
-534.135	-121.418	0.312	0.053
-533.121	-200.000	0.008	0.280
-532.106	-52.398	0.042	-0.020
-531.091	-170.061	0.110	0.004
-530.077	54.108	0.055	0.054
-529.062	-141.509	0.253	-0.026
-528.048	68.049	0.273	0.282
-527.033	199.347	0.193	0.298
-526.018	800.000	-0.134	0.483
-525.004	-5.172	-0.192	-0.133
-523.989	-83.157	-0.364	-0.118
-522.975	96.561	-0.057	0.066
-521.960	26.198	-0.193	-0.163
-520.945	127.953	-0.147	0.188
-519.931	75.124	0.114	-0.121
-518.916	5.270	-0.178	-0.133
-517.902	-200.000	0.017	0.113
-516.887	800.000	-0.125	0.447
-515.872	-200.000	-0.053	0.348
-514.858	111.499	-0.206	0.251
-513.843	99.917	-0.039	0.046
-512.829	-145.983	0.231	-0.021
-511.814	-67.854	0.330	-0.130
-510.799	88.122	0.109	-0.123
-509.785	654.935	-0.250	0.649
-508.770	-200.000	0.023	-0.325
-507.756	-48.154	0.244	-0.119
-506.741	-104.575	-0.170	-0.040
-505.726	-136.929	0.203	-0.024
-504.712	-200.000	-0.002	0.130
-503.697	-200.000	-0.036	0.371
-502.683	-200.000	-0.023	-0.233
-501.668	627.634	0.023	-0.058
-500.653	167.576	0.064	-0.092
-499.639	-200.000	0.013	-0.142
-498.624	55.103	-0.425	0.415
-497.610	-54.234	-0.346	0.159
-496.595	167.133	-0.110	-0.157
-495.581	-69.264	-0.160	-0.062
-494.566	-125.770	-0.118	-0.018
-493.551	42.692	-0.410	-0.377
-492.537	17.908	-0.118	0.095
-491.522	156.908	-0.087	-0.122
-490.508	-149.605	-0.260	-0.021
-489.493	17.291	0.200	0.160
-488.478	328.614	0.146	0.284
-487.464	-109.796	-0.096	0.020
-486.449	-9.247	-0.221	-0.149
-485.435	-145.774	-0.212	-0.019
-484.420	-200.000	0.017	-0.126
-483.405	-44.673	-0.055	-0.028
-482.391	-40.849	-0.237	-0.124
-481.376	102.601	0.114	0.135
-480.362	-118.421	0.301	0.054
-479.347	-127.144	-0.114	-0.017
-478.332	-39.729	-0.229	0.121
-477.318	-200.000	-0.012	0.178
-476.303	-92.780	-0.246	-0.069
-475.289	-200.000	0.099	-0.526
-474.274	46.624	0.166	-0.155
-473.259	322.031	0.122	-0.234
-472.245	-185.703	-0.221	0.003
-471.230	-103.426	-0.267	-0.063
-470.216	-187.517	0.446	-0.006
-469.201	-46.625	0.160	-0.079
-468.186	-51.961	0.070	-0.033
-467.172	86.735	0.217	-0.241
-466.157	-22.824	0.264	0.161
-465.143	-127.367	-0.300	-0.044
-464.128	18.904	0.206	0.167
-463.113	97.340	0.089	0.103
-462.099	-200.000	0.008	-0.146
-461.084	-18.030	0.271	0.171
-460.070	-28.744	0.174	-0.101
-459.055	-200.000	0.012	-0.054
-458.040	-56.822	-0.067	-0.030
-457.026	782.446	0.047	-0.130
-456.011	-20.970	0.467	0.289
-454.997	227.854	0.153	-0.252
-453.982	31.267	0.084	-0.072
-452.968	53.178	0.358	0.345
-451.953	-3.385	0.190	0.133
-450.938	-42.437	0.248	0.128
-449.924	60.320	0.038	0.038
-448.909	-200.000	0.018	0.251
-447.895	-200.000	-0.018	-0.181
-446.880	-30.631	-0.021	0.012
-445.865	-100.386	0.204	0.051
-444.851	256.613	-0.081	-0.140
-443.836	75.232	-0.473	-0.503
-442.822	-200.000	-0.018	-0.137
-441.807	-200.000	-0.036	-0.411
-440.792	-24.198	0.264	-0.159
-439.778	-200.000	-0.007	0.239
-438.763	-117.783	-0.252	-0.046
-437.749	169.027	-0.081	-0.116
-436.734	-90.289	-0.156	-0.046
-435.719	13.764	-0.207	0.162
-434.705	10.331	-0.284	-0.217
-433.690	60.632	-0.100	-0.100
-432.676	-19.436	0.237	-0.148
-431.661	21.482	-0.077	-0.063
-430.646	346.308	-0.087	-0.172
-429.632	335.360	-0.141	-0.275
-428.617	-31.506	-0.318	-0.180
-427.603	-200.000	0.013	-0.170
-426.588	520.370	0.059	-0.140
-425.573	58.240	0.250	0.246
-424.559	79.222	0.055	-0.059
-423.544	169.376	0.187	-0.268
-422.530	-200.000	-0.026	0.145
-421.515	-68.423	0.031	0.012
-420.500	106.432	-0.065	-0.078
-419.486	169.269	-0.300	0.432
-418.471	130.658	0.116	-0.150
-417.457	226.690	0.134	-0.218
-416.442	3.344	-0.236	0.173
-415.428	-100.112	0.169	0.042
-414.413	-17.860	-0.403	-0.254
-413.398	-124.260	0.087	-0.014
-412.384	-142.744	-0.092	-0.009
-411.369	689.380	0.114	-0.301
-410.355	-60.461	0.416	0.178
-409.340	515.738	0.153	0.359
-408.325	330.427	0.032	-0.062
-407.311	-107.429	-0.176	-0.039
-406.296	499.039	-0.052	0.120
-405.282	-0.338	0.092	0.066
-404.267	45.762	0.072	-0.067
-403.252	236.748	0.037	0.061
-402.238	160.830	0.192	0.270
-401.223	-200.000	0.013	-0.191
-400.209	157.307	0.089	0.123
-399.194	2.425	-0.014	-0.010
-398.179	-72.909	0.390	0.144
-397.165	100.242	-0.239	0.279
-396.150	-39.396	-0.170	0.090
-395.136	-200.000	-0.044	0.348
-394.121	-113.904	-0.115	0.022
-393.106	-149.077	0.067	-0.005
-392.092	-5.300	0.063	-0.043
-391.077	37.893	0.219	0.196
-390.063	-99.182	0.358	-0.091
-389.048	-200.000	-0.040	-0.192
-388.033	-46.865	-0.177	0.087
-387.019	56.975	-0.136	-0.133
-386.004	-25.268	0.305	0.182
-384.990	-200.000	0.035	-0.179
-383.975	384.543	0.154	0.319
-382.960	24.517	0.159	-0.133
-381.946	77.916	0.154	-0.165
-380.931	-23.834	0.226	-0.136
-379.917	344.681	0.128	-0.252
-378.902	800.000	-0.045	0.158
-377.888	800.000	-0.005	-0.019
-376.873	-11.718	-0.097	-0.064
-375.858	441.815	0.128	0.281
-374.844	-200.000	0.060	0.320
-373.829	198.580	0.087	-0.135
-372.815	-200.000	0.072	0.346
-371.800	460.641	0.094	0.210
-370.785	65.661	-0.139	-0.141
-369.771	23.639	-0.299	0.247
-368.756	-109.289	0.075	-0.016
-367.742	800.000	-0.052	-0.179
-366.727	42.819	0.110	0.101
-365.712	143.574	-0.167	-0.223
-364.698	363.905	-0.245	-0.494
-363.683	-200.000	-0.029	-0.261
-362.669	419.008	-0.133	-0.287
-361.654	46.094	0.181	0.168
-360.639	800.000	0.060	-0.230
-359.625	392.835	0.224	0.467
-358.610	508.647	0.128	-0.300
-357.596	-200.000	0.030	-0.216
-356.581	800.000	0.032	0.091
-355.566	800.000	-0.105	-0.361
-354.552	-200.000	0.002	0.149
-353.537	207.984	-0.068	0.107
-352.523	-77.081	-0.199	0.070
-351.508	-159.655	-0.020	0.001
-350.493	-55.467	0.063	-0.028
-349.479	178.922	0.074	-0.109
-348.464	293.710	-0.086	0.158
-347.450	-52.415	-0.176	-0.082
-346.435	-81.118	-0.267	-0.089
-345.420	173.753	0.273	-0.395
-344.406	-200.000	0.018	0.246
-343.391	-20.681	0.266	0.164
-342.377	69.888	-0.147	0.152
-341.362	138.484	-0.158	0.208
-340.348	-109.729	-0.207	-0.044
-339.333	-55.529	0.267	-0.120
-338.318	800.000	-0.061	0.247
-337.304	142.147	-0.068	0.091
-336.289	800.000	0.069	0.274
-335.275	-34.465	0.198	-0.109
-334.260	-184.221	-0.129	-0.002
-333.245	46.983	0.246	-0.229
-332.231	-150.085	-0.066	-0.005
-331.216	800.000	-0.082	-0.298
-330.202	124.371	0.057	0.073
-329.187	409.334	-0.169	0.358
-328.172	800.000	0.072	0.276
-327.158	-200.000	-0.007	-0.271
-326.143	-6.022	-0.113	-0.078
-325.129	-159.366	-0.108	-0.006
-324.114	-200.000	-0.006	-0.545
-323.099	-200.000	-0.041	-0.242
-322.085	-200.000	0.015	0.468
-321.070	-124.590	0.117	0.018
-320.056	165.107	0.285	0.404
-319.041	800.000	-0.055	0.214
-318.026	-28.534	0.259	0.150
-317.012	-20.543	-0.180	0.111
-315.997	-200.000	0.057	0.366
-314.983	178.134	-0.096	-0.141
-313.968	-137.570	0.245	0.028
-312.953	59.608	-0.236	-0.233
-311.939	800.000	-0.071	0.212
-310.924	792.256	-0.094	-0.259
-309.910	-62.710	0.273	0.114
-308.895	556.238	-0.094	0.226
-307.880	68.349	-0.207	0.213
-306.866	-200.000	0.002	-0.305
-305.851	-175.220	0.244	-0.007
-304.837	-65.995	0.188	0.075
-303.822	-159.881	-0.285	-0.016
-302.807	264.933	0.143	-0.250
-301.793	58.159	-0.184	-0.180
-300.778	161.880	0.059	-0.083
-299.764	-200.000	-0.008	0.290
-298.749	-200.000	0.043	0.268
-297.735	-200.000	0.003	-0.022
-296.720	-200.000	-0.092	-0.510
-295.705	800.000	0.054	-0.175
-294.691	-148.323	-0.321	0.026
-293.676	-200.000	-0.011	-0.075
-292.662	-200.000	-0.040	-0.252
-291.647	459.130	-0.062	-0.137
-290.632	177.558	0.101	0.147
-289.618	800.000	-0.126	-0.440
-288.603	-34.256	-0.390	-0.214
-287.589	800.000	0.014	0.054
-286.574	181.095	-0.118	0.174
-285.559	-44.515	-0.185	-0.093
-284.545	-33.169	0.150	-0.083
-283.530	800.000	-0.093	0.277
-282.516	-200.000	-0.044	0.290
-281.501	-66.961	0.273	-0.108
-280.486	-200.000	-0.048	-0.246
-279.472	71.419	0.284	0.295
-278.457	-11.775	-0.223	0.147
-277.443	-73.848	0.076	-0.028
-276.428	-200.000	0.066	0.377
-275.413	-200.000	-0.037	-0.227
-274.399	-48.577	0.418	0.201
-273.384	41.604	-0.205	0.186
-272.370	74.654	-0.157	-0.166
-271.355	-200.000	-0.001	-0.142
-270.340	-200.000	0.035	0.161
-269.326	105.276	-0.156	0.184
-268.311	744.551	-0.049	0.133
-267.297	612.273	-0.083	-0.208
-266.282	-200.000	-0.031	0.204
-265.267	-39.593	-0.048	0.025
-264.253	169.751	-0.077	-0.111
-263.238	-200.000	-0.023	0.394
-262.224	-58.723	-0.135	-0.058
-261.209	-17.240	-0.069	-0.043
-260.195	-200.000	0.035	-0.174
-259.180	-200.000	-0.003	-0.047
-258.165	631.333	0.102	0.259
-257.151	-174.593	-0.284	0.008
-256.136	800.000	-0.026	0.082
-255.122	485.378	0.018	-0.040
-254.107	78.048	-0.225	-0.240
-253.092	-200.000	-0.005	0.205
-252.078	-39.670	0.166	-0.087
-251.063	-17.835	0.105	0.066
-250.049	-9.781	-0.066	0.044
-249.034	372.654	0.111	0.225
-248.019	590.423	-0.046	-0.114
-247.005	70.147	-0.241	-0.249
-245.990	65.065	0.089	-0.090
-244.976	-200.000	0.017	0.116
-243.961	361.057	0.182	0.364
-242.946	-55.290	-0.169	-0.076
-241.932	-173.895	0.365	-0.011
-240.917	-200.000	0.007	-0.233
-239.903	-159.594	-0.444	-0.025
-238.888	124.203	0.052	0.065
-237.873	14.831	0.365	0.285
-236.859	-175.882	0.248	0.007
-235.844	-156.817	0.388	-0.024
-234.830	-44.467	-0.114	-0.057
-233.815	-5.658	0.142	-0.097
-232.800	-23.334	0.091	-0.055
-231.786	729.404	-0.077	0.205
-230.771	12.987	0.281	0.217
-229.757	192.030	0.097	0.147
-228.742	-200.000	-0.007	0.185
-227.727	668.335	-0.152	-0.392
-226.713	-200.000	0.004	-0.242
-225.698	-134.597	-0.284	0.035
-224.684	5.464	0.227	0.167
-223.669	-159.172	-0.267	0.015
-222.655	35.657	-0.235	-0.206
-221.640	-200.000	0.008	-0.212
-220.625	-73.041	-0.113	0.041
-219.611	-48.306	-0.217	0.105
-218.596	792.109	0.084	-0.231
-217.582	141.767	0.147	-0.194
-216.567	-6.871	0.097	-0.066
-215.552	718.252	-0.028	0.074
-214.538	-173.377	-0.022	-0.001
-213.523	-18.474	-0.034	-0.021
-212.509	12.086	0.074	0.057
-211.494	-70.472	0.213	-0.081
-210.479	-180.287	-0.308	-0.006
-209.465	-200.000	0.024	-0.127
-208.450	800.000	0.012	0.047
-207.436	-76.688	0.182	0.064
-206.421	-62.777	0.406	-0.168
-205.406	-200.000	-0.052	0.411
-204.392	-200.000	0.008	0.123
-203.377	243.479	0.144	-0.242
-202.363	-97.885	-0.129	-0.033
-201.348	-15.137	-0.027	-0.017
-200.333	-200.000	-0.014	-0.288
-199.319	103.555	-0.118	-0.138
-198.304	39.082	-0.097	0.086
-197.290	-137.309	0.392	-0.044
-196.275	26.460	0.060	0.050
-195.260	-200.000	-0.001	0.203
-194.246	800.000	0.132	-0.499
-193.231	-200.000	-0.011	0.238
-192.217	76.341	-0.119	0.126
-191.202	-68.747	0.175	0.067
-190.187	96.288	-0.038	0.043
-189.173	283.521	0.124	-0.223
-188.158	200.076	-0.032	-0.049
-187.144	67.210	-0.036	-0.037
-186.129	-200.000	-0.045	-0.243
-185.114	-42.550	-0.092	0.047
-184.100	141.098	0.107	0.141
-183.085	-49.263	0.286	0.136
-182.071	92.189	0.053	-0.060
-181.056	-181.988	0.280	-0.005
-180.042	800.000	-0.080	-0.346
-179.027	78.597	-0.121	0.129
-178.012	800.000	0.063	0.259
-176.998	-50.852	-0.117	-0.055
-175.983	171.464	0.168	0.241
-174.969	-3.643	0.135	0.093
-173.954	-46.328	-0.185	0.090
-172.939	800.000	-0.060	-0.212
-171.925	26.718	0.392	-0.327
-170.910	-200.000	-0.017	-0.141
-169.896	800.000	0.054	0.157
-168.881	79.782	0.116	-0.124
-167.866	88.634	0.070	0.078
-166.852	-157.964	0.194	-0.011
-165.837	537.966	0.060	0.141
-164.823	-35.894	0.038	0.020
-163.808	-41.868	0.120	0.062
-162.793	-200.000	-0.195	0.000
-161.779	188.032	-0.090	-0.134
-160.764	62.798	0.139	-0.139
-159.750	9.209	0.081	-0.061
-158.735	-110.881	-0.335	0.069
-157.720	800.000	-0.071	-0.240
-156.706	-14.274	0.202	0.130
-155.691	-96.020	0.201	0.053
-154.677	-149.388	0.027	0.002
-153.662	-200.000	-0.037	0.166
-152.647	11.885	-0.085	-0.065
-151.633	-64.787	-0.225	-0.091
-150.618	-0.473	-0.247	0.174
-149.604	198.911	0.114	0.174
-148.589	192.061	-0.043	0.064
-147.574	-200.000	0.015	0.103
-146.560	739.484	0.117	0.313
-145.545	385.886	0.022	0.044
-144.531	87.940	-0.118	-0.131
-143.516	-30.769	0.089	-0.050
-142.502	-200.000	0.128	0.593
-141.487	-40.119	0.254	-0.132
-140.472	-81.249	-0.218	-0.072
-139.458	20.818	0.165	-0.133
-138.443	3.176	-0.299	-0.217
-137.429	-43.795	0.374	0.187
-136.414	214.033	-0.080	0.126
-135.399	-76.007	0.107	0.038
-134.385	-44.579	0.060	0.030
-133.370	-16.220	-0.101	-0.064
-132.356	800.000	0.028	-0.083
-131.341	-136.267	0.019	0.002
-130.326	-66.162	-0.085	0.034
-129.312	95.415	-0.081	-0.092
-128.297	281.495	0.091	0.163
-127.283	15.443	-0.132	0.104
-126.268	42.444	-0.164	-0.148
-125.253	-35.212	0.049	0.027
-124.239	-49.644	-0.400	0.190
-123.224	-200.000	-0.021	0.289
-122.210	-200.000	-0.022	0.279
-121.195	637.400	-0.100	-0.254
-120.180	197.146	0.136	-0.206
-119.166	-200.000	0.014	0.087
-118.151	-14.233	0.329	-0.211
-117.137	800.000	-0.040	-0.133
-116.122	461.469	-0.060	-0.134
-115.107	-52.591	0.385	0.177
-114.093	-106.528	0.178	0.040
-113.078	101.994	0.069	0.081
-112.064	-32.601	-0.308	0.171
-111.049	279.850	-0.169	0.301
-110.034	49.166	0.077	-0.072
-109.020	800.000	0.065	-0.278
-108.005	-11.420	-0.202	-0.132
-106.991	66.107	-0.077	0.077
-105.976	-149.963	-0.250	-0.019
-104.962	192.562	0.176	-0.265
-103.947	-47.533	-0.280	0.135
-102.932	-115.218	0.410	-0.077
-101.918	-106.090	0.272	-0.061
-100.903	-21.391	-0.109	0.066
-99.889	-31.481	-0.017	0.009
-98.874	-23.477	0.104	-0.062
-97.859	399.975	0.029	0.060
-96.845	48.471	-0.076	-0.071
-95.830	-200.000	-0.003	-0.088
-94.816	800.000	0.136	0.390
-93.801	-67.472	0.153	0.060
-92.786	-62.950	0.275	0.113
-91.772	-157.003	0.216	0.013
-90.757	46.475	0.066	-0.061
-89.743	800.000	-0.082	0.252
-88.728	-200.000	0.000	-0.171
-87.713	0.443	0.072	0.051
-86.699	310.685	-0.069	0.129
-85.684	18.207	0.271	0.215
-84.670	800.000	-0.061	0.210
-83.655	40.714	-0.197	0.176
-82.640	154.822	0.178	0.243
-81.626	-200.000	0.037	-0.287
-80.611	-79.805	-0.226	-0.075
-79.597	-51.839	0.209	-0.097
-78.582	-200.000	-0.027	-0.157
-77.567	-200.000	-0.022	0.299
-76.553	-20.478	0.076	-0.047
-75.538	-200.000	0.081	-0.561
-74.524	-47.060	-0.101	-0.049
-73.509	45.729	0.085	-0.078
-72.494	-200.000	-0.027	0.308
-71.480	-200.000	-0.013	0.268
-70.465	-126.701	0.363	0.053
-69.451	-200.000	0.004	0.096
-68.436	59.374	-0.078	-0.076
-67.422	4.178	0.149	-0.109
-66.407	51.680	0.154	-0.146
-65.392	274.839	0.084	0.147
-64.378	9.461	-0.117	0.088
-63.363	-200.000	0.037	0.300
-62.349	230.629	-0.151	0.246
-61.334	151.330	-0.606	-0.819
-60.319	133.420	0.196	0.251
-59.305	-200.000	-0.029	-0.638
-58.290	74.810	0.662	0.692
-57.276	407.701	0.786	1.650
-56.261	-200.000	84.566	500.853
-55.246	496.196	1353.569	3088.419
-54.232	150.173	2567.753	3458.015
-53.217	113.318	2199.601	2648.822
-52.203	49.497	1660.939	1551.470
-51.188	42.270	1394.644	1257.571
-50.173	38.944	1351.260	1198.147
-49.159	57.112	1393.604	1348.587
-48.144	62.510	1412.928	1400.668
-47.130	42.609	1370.538	1237.726
-46.115	38.912	1353.596	1199.830
-45.100	38.726	1348.755	1194.360
-44.086	38.669	1346.216	1191.713
-43.071	38.554	1344.214	1189.196
-42.057	38.630	1341.571	1187.275
-41.042	38.590	1340.249	1185.812
-40.027	38.692	1338.690	1185.004
-39.013	38.725	1336.815	1183.495
-37.998	38.723	1334.676	1181.541
-36.984	38.728	1333.568	1180.543
-35.969	38.770	1331.476	1178.901
-34.954	38.804	1329.719	1177.503
-33.940	38.835	1328.379	1176.456
-32.925	38.854	1326.921	1175.230
-31.911	38.946	1325.221	1174.229
-30.896	38.972	1323.822	1173.098
-29.881	38.910	1322.468	1171.481
-28.867	38.908	1321.145	1170.251
-27.852	39.000	1319.454	1169.252
-26.838	38.946	1318.250	1167.820
-25.823	38.894	1316.893	1166.260
-24.809	38.973	1315.057	1165.061
-23.794	38.914	1314.000	1163.724
-22.779	38.929	1312.517	1162.453
-21.765	38.815	1311.761	1161.067
-20.750	38.820	1310.191	1159.658
-19.736	38.815	1308.901	1158.442
-18.721	38.831	1306.962	1156.771
-17.706	38.758	1306.122	1155.556
-16.692	38.737	1305.301	1154.657
-15.677	38.771	1304.468	1154.078
-14.663	38.763	1303.133	1152.802
-13.648	38.803	1302.258	1152.216
-12.633	38.745	1300.698	1150.449
-11.619	38.753	1300.046	1149.876
-10.604	38.681	1299.273	1148.725
-9.590	38.739	1298.247	1148.111
-8.575	38.760	1297.204	1147.268
-7.560	38.801	1296.196	1146.571
-6.546	38.677	1295.636	1145.304
-5.531	38.760	1294.718	1144.930
-4.517	38.662	1293.725	1143.434
-3.502	38.630	1293.289	1142.818
-2.487	38.812	1291.797	1142.515
-1.473	38.626	1287.588	1137.668
-0.458	36.954	1271.873	1114.137
0.556	32.387	1251.356	1068.014
1.571	27.889	1254.570	1044.995
2.586	26.735	1269.507	1050.659
3.600	25.667	1258.834	1035.591
4.615	18.427	1183.235	933.998
5.629	7.070	1100.560	810.763
6.644	1.820	1077.287	767.167
7.659	1.343	1074.522	762.732
8.673	1.240	1073.261	761.253
9.688	1.160	1071.704	759.681
10.702	1.624	1070.973	761.420
11.717	8.572	1081.062	803.529
12.731	18.886	1096.357	867.120
13.746	23.574	1101.637	894.925
14.761	24.134	1102.171	898.103
15.775	24.146	1101.527	897.559
16.790	23.872	1100.711	895.437
17.804	23.820	1100.068	894.574
18.819	23.981	1099.633	894.949
19.834	23.931	1099.427	894.453
20.848	24.106	1098.770	894.719
21.863	24.027	1098.430	893.964
22.877	24.055	1097.513	893.278
23.892	23.859	1096.804	891.641
24.907	24.009	1096.441	892.021
25.921	24.155	1094.890	891.406
26.936	24.093	1093.444	889.841
27.950	23.943	1091.994	887.834
28.965	23.771	1090.569	885.740
29.980	23.846	1088.512	884.366
30.994	24.039	1088.087	884.899
32.009	23.912	1087.034	883.334
33.023	23.843	1085.747	881.867
34.038	23.926	1084.662	881.323
35.053	24.039	1084.364	881.560
36.067	23.952	1083.483	880.338
37.082	24.062	1082.890	880.322
38.096	24.238	1082.199	880.553
39.111	24.249	1081.320	879.814
40.126	24.069	1079.959	877.738
41.140	23.822	1077.479	874.432
42.155	23.659	1076.403	872.677
43.169	23.767	1075.397	872.318
44.184	23.638	1074.597	870.960
45.199	23.630	1073.450	869.912
46.213	23.631	1072.732	869.259
47.228	23.773	1071.909	869.210
48.242	23.913	1071.213	869.250
49.257	23.873	1070.739	868.595
50.271	24.023	1069.725	868.426
51.286	24.081	1068.865	867.934
52.301	24.008	1068.217	866.977
53.315	24.015	1066.820	865.800
54.330	23.947	1066.057	864.771
55.344	24.102	1065.037	864.624
56.359	24.026	1063.927	863.274
57.374	23.730	1063.427	861.360
58.388	23.729	1062.727	860.712
59.403	23.719	1061.553	859.636
60.417	23.571	1060.766	858.209
61.432	23.747	1059.962	858.333
62.447	23.813	1059.998	858.605
63.461	23.857	1058.950	857.888
64.476	23.644	1058.120	856.113
65.490	23.564	1056.982	854.732
66.505	23.680	1056.152	854.545
67.520	23.888	1055.358	854.828
68.534	23.600	1054.308	852.517
69.549	23.179	1053.380	849.669
70.563	23.300	1052.296	849.300
71.578	23.323	1051.273	848.510
72.593	23.136	1050.584	846.986
73.607	23.231	1050.011	846.902
74.622	23.514	1049.755	847.974
75.636	23.574	1049.121	847.674
76.651	23.365	1047.867	845.586
77.666	23.432	1046.777	844.954
78.680	23.507	1046.442	844.962
79.695	23.518	1045.925	844.526
80.709	23.533	1045.498	844.176
81.724	23.542	1044.788	843.572
82.739	23.686	1043.729	843.325
83.753	24.072	1043.211	844.662
84.768	24.232	1042.536	844.800
85.782	24.351	1041.344	844.327
86.797	24.200	1040.669	842.989
87.812	24.149	1039.245	841.518
88.826	24.069	1038.861	840.757
89.841	24.191	1038.219	840.739
90.855	24.285	1036.709	839.886
91.870	24.264	1035.939	839.087
92.884	24.046	1034.720	836.998
93.899	24.106	1033.514	836.232
94.914	24.307	1032.300	836.119
95.928	24.095	1031.448	834.362
96.943	23.834	1030.343	832.170
97.957	23.541	1029.350	829.925
98.972	23.510	1027.713	828.387
99.987	23.848	1027.395	829.636
101.001	24.017	1026.549	829.666
102.016	23.856	1025.541	828.028
103.030	23.877	1024.584	827.279
104.045	23.774	1023.473	825.831
105.060	23.514	1022.791	824.000
106.074	23.786	1021.577	824.210
107.089	24.131	1021.361	825.565
108.103	23.925	1020.498	823.840
109.118	23.693	1019.261	821.697
110.133	23.710	1018.060	820.732
111.147	23.563	1016.839	818.999
112.162	23.495	1015.717	817.708
113.176	23.550	1015.772	817.932
114.191	23.430	1014.942	816.638
115.206	23.294	1013.203	814.540
116.220	23.258	1012.856	814.025
117.235	23.278	1011.840	813.230
118.249	23.316	1011.172	812.795
119.264	23.239	1010.257	811.633
120.279	23.308	1009.698	811.429
121.293	23.466	1008.792	811.351
122.308	23.415	1007.597	810.086
123.322	23.508	1005.846	809.033
124.337	23.370	1004.753	807.454
125.352	22.858	1003.338	803.915
126.366	22.637	1002.519	802.180
127.381	23.438	1002.406	805.659
128.395	23.872	1002.413	807.567
129.410	23.897	1001.233	806.660
130.424	23.942	1000.120	805.895
131.439	23.833	999.210	804.595
132.454	23.879	998.598	804.239
133.468	23.911	997.518	803.443
134.483	23.902	997.059	802.961
135.497	24.129	996.433	803.413
136.512	24.121	995.112	802.241
137.527	24.402	994.016	802.549
138.541	24.089	993.789	800.885
139.556	24.171	992.677	800.288
140.570	24.298	992.311	800.491
141.585	24.355	990.816	799.473
142.600	24.229	989.849	798.056
143.614	24.481	989.110	798.519
144.629	24.557	988.537	798.324
145.643	24.400	987.049	796.349
146.658	24.279	985.679	794.634
147.673	24.065	984.949	793.024
148.687	23.994	983.753	791.673
149.702	23.869	982.922	790.381
150.716	23.873	981.874	789.484
151.731	24.032	981.276	789.640
152.746	24.332	980.474	790.253
153.760	24.352	980.071	789.948
154.775	24.356	979.670	789.573
155.789	24.279	978.543	788.256
156.804	24.261	977.363	787.155
157.819	24.326	976.550	786.719
158.833	24.508	975.731	786.792
159.848	24.482	974.998	786.014
160.862	24.254	973.531	783.762
161.877	24.340	972.280	783.060
162.892	24.363	971.806	782.710
163.906	24.258	970.429	781.073
164.921	24.270	969.645	780.425
165.935	24.390	968.834	780.229
166.950	24.390	967.810	779.334
167.964	24.339	966.845	778.266
168.979	24.274	965.656	776.956
169.994	24.220	964.957	776.090
171.008	24.297	964.488	775.980
172.023	24.457	963.629	775.916
173.037	24.174	962.046	773.342
174.052	23.965	961.548	771.970
175.067	24.038	961.054	771.821
176.081	24.086	960.335	771.383
177.096	24.039	959.749	770.642
178.110	23.788	958.804	768.725
179.125	23.697	957.828	767.484
180.140	23.805	957.735	767.807
181.154	23.855	957.374	767.668
182.169	24.251	957.282	769.233
183.183	24.309	956.732	768.975
184.198	24.198	955.929	767.783
185.213	24.274	955.110	767.383
186.227	24.259	954.674	766.901
187.242	24.252	953.953	766.221
188.256	24.326	953.319	765.963
189.271	24.392	952.298	765.362
190.286	24.087	951.169	763.078
191.300	23.512	949.813	759.461
192.315	22.737	948.284	754.857
193.329	22.727	947.379	754.026
194.344	23.618	947.835	758.133
195.359	24.128	948.125	760.473
196.373	24.295	947.191	760.369
197.388	23.954	947.230	758.878
198.402	24.050	946.063	758.288
199.417	24.191	945.605	758.452
200.432	23.978	944.357	756.480
201.446	23.665	943.984	754.782
202.461	23.833	942.825	754.503
203.475	23.066	940.860	749.614
204.490	22.305	939.730	745.422
205.504	23.116	940.317	749.261
206.519	23.779	940.175	751.889
207.534	23.850	939.329	751.444
208.548	24.215	939.383	752.965
209.563	24.007	938.415	751.241
210.577	24.040	937.541	750.616
211.592	24.401	937.546	752.077
212.607	24.278	936.396	750.567
213.621	24.467	935.744	750.775
214.636	24.471	935.007	750.133
215.650	24.234	934.564	748.718
216.665	24.507	933.558	748.988
217.680	24.259	933.019	747.449
218.694	23.916	931.920	745.068
219.709	23.653	931.569	743.620
220.723	23.957	930.828	744.234
221.738	24.064	930.538	744.386
222.753	24.101	929.472	743.620
223.767	24.154	929.314	743.651
224.782	24.499	928.882	744.674
225.796	24.439	928.087	743.726
226.811	23.762	926.448	739.529
227.826	23.133	925.433	736.034
228.840	23.343	925.004	736.504
229.855	23.371	924.274	735.974
230.869	23.018	922.925	733.368
231.884	23.474	923.299	735.491
232.899	24.199	922.875	738.095
233.913	24.155	922.288	737.379
234.928	24.123	922.029	736.972
235.942	24.057	921.054	735.855
236.957	23.816	920.435	734.300
237.972	23.706	919.939	733.384
238.986	23.841	919.239	733.321
240.001	23.915	918.752	733.171
241.015	24.038	917.915	732.943
242.030	24.198	917.462	733.177
243.045	24.214	917.313	733.059
244.059	24.363	916.508	732.961
245.074	24.123	915.704	731.269
246.088	23.769	914.887	729.101
247.103	24.170	913.992	729.964
248.117	24.591	914.617	732.125
249.132	24.955	914.172	733.197
250.147	24.887	913.301	732.155
251.161	25.053	912.894	732.442
252.176	25.130	912.151	732.095
253.190	25.263	911.422	731.989
254.205	25.251	911.382	731.840
255.220	25.346	910.567	731.510
256.234	25.080	909.832	729.771
257.249	24.928	909.278	728.644
258.263	25.044	908.146	728.145
259.278	25.071	907.881	727.979
260.293	25.067	907.489	727.583
261.307	24.916	906.621	726.209
262.322	24.838	905.562	724.979
263.336	24.196	903.616	720.761
264.351	23.055	901.628	714.506
265.366	23.149	901.330	714.584
266.380	24.218	902.451	719.732
267.395	24.697	902.077	721.303
268.409	24.655	901.084	720.274
269.424	24.644	901.115	720.192
270.439	24.885	899.896	720.124
271.453	24.905	899.356	719.710
272.468	25.080	899.174	720.203
273.482	25.060	898.696	719.676
274.497	24.744	897.548	717.422
275.512	24.398	896.517	715.152
276.526	24.755	896.904	716.828
277.541	24.949	896.201	716.980
278.555	24.710	895.444	715.354
279.570	24.574	894.356	713.878
280.585	24.642	894.340	714.074
281.599	24.735	892.767	713.126
282.614	24.097	891.832	709.772
283.628	24.255	891.434	710.022
284.643	24.466	891.033	710.480
285.657	24.061	889.906	707.910
286.672	23.803	888.971	706.079
287.687	24.544	888.922	708.919
288.701	24.546	888.405	708.452
289.716	23.952	887.972	705.690
290.730	24.094	886.988	705.405
291.745	23.755	885.696	702.974
292.760	24.137	886.061	704.713
293.774	25.117	885.980	708.463
294.789	25.365	886.101	709.477
295.803	25.439	885.667	709.359
296.818	25.462	884.469	708.427
297.833	25.006	883.534	705.817
298.847	24.834	883.097	704.730
299.862	25.205	882.635	705.760
300.876	25.529	882.118	706.557
301.891	25.387	881.558	705.489
302.906	24.946	880.655	702.974
303.920	24.977	880.207	702.673
304.935	25.339	880.530	704.290
305.949	25.213	880.099	703.387
306.964	25.096	878.753	701.794
307.979	25.068	878.529	701.442
308.993	25.540	878.049	702.841
310.008	25.543	877.360	702.240
311.022	25.358	876.436	700.715
312.037	25.203	875.719	699.475
313.052	24.848	875.180	697.602
314.066	23.985	873.429	692.785
315.081	23.747	872.871	691.357
316.095	24.461	873.123	694.270
317.110	24.998	872.651	695.924
318.125	24.251	871.040	691.677
319.139	23.212	869.423	686.307
320.154	23.225	869.114	686.054
321.168	24.090	869.619	689.741
322.183	24.896	869.519	692.724
323.197	24.917	869.655	692.852
324.212	25.077	869.328	693.146
325.227	25.066	868.693	692.540
326.241	25.070	867.972	691.919
327.256	24.910	867.209	690.629
328.270	24.897	866.356	689.838
329.285	24.571	865.678	687.982
330.300	24.524	864.663	686.934
331.314	24.691	864.530	687.411
332.329	25.194	864.457	689.224
333.343	25.351	863.941	689.358
334.358	25.206	863.612	688.477
335.373	25.255	863.595	688.590
336.387	25.694	862.986	689.725
337.402	25.611	863.118	689.452
338.416	25.695	862.272	689.037
339.431	25.838	862.015	689.315
340.446	25.981	861.933	689.737
341.460	25.855	861.435	688.798
342.475	25.655	860.419	687.161
343.489	25.664	860.032	686.824
344.504	25.925	860.256	687.940
345.519	26.025	860.044	688.090
346.533	26.135	859.454	687.977
347.548	26.185	858.632	687.448
348.562	26.051	858.371	686.669
349.577	26.024	857.722	685.985
350.592	25.870	857.062	684.810
351.606	25.985	856.178	684.482
352.621	25.849	855.219	683.136
353.635	25.784	854.448	682.214
354.650	25.163	852.916	678.585
355.665	24.162	851.563	673.663
356.679	24.535	851.681	675.108
357.694	25.222	850.686	676.851
358.708	24.974	850.246	675.508
359.723	25.322	850.027	676.586
360.738	25.696	849.718	677.686
361.752	25.820	849.369	677.815
362.767	26.140	849.227	678.846
363.781	26.289	848.988	679.156
364.796	26.508	848.376	679.427
365.810	26.506	847.769	678.873
366.825	26.467	847.256	678.257
367.840	26.134	846.423	676.281
368.854	25.722	845.425	673.882
369.869	25.684	845.346	673.617
370.883	25.755	844.692	673.302
371.898	25.670	844.206	672.537
372.913	25.875	843.878	672.984
373.927	25.911	843.308	672.603
374.942	26.078	842.742	672.717
375.956	26.085	842.706	672.652
376.971	26.228	842.289	672.794
377.986	26.404	841.817	673.014
379.000	26.445	841.176	672.591
380.015	26.124	840.975	671.180
381.029	26.140	840.424	670.741
382.044	26.603	839.351	671.542
383.059	26.425	838.887	670.452
384.073	26.412	838.597	670.113
385.088	26.369	837.921	669.354
386.102	26.139	837.312	667.958
387.117	26.182	836.390	667.321
388.132	25.819	835.166	664.945
389.146	25.373	834.561	662.760
390.161	25.703	834.386	663.780
391.175	26.053	834.361	664.990
392.190	25.905	833.062	663.351
393.205	24.482	831.164	656.553
394.219	22.967	829.643	649.727
395.234	22.856	829.071	648.813
396.248	24.462	830.658	655.905
397.263	25.885	831.632	661.845
398.278	25.865	831.033	661.236
399.292	25.694	830.063	659.780
400.307	25.755	829.623	659.596
401.321	25.762	829.476	659.447
402.336	26.197	829.737	661.189
403.350	26.682	829.137	662.427
404.365	26.861	828.755	662.717
405.380	27.022	828.980	663.427
406.394	27.406	827.623	663.682
407.409	27.120	827.608	662.569
408.423	26.934	827.723	661.922
409.438	27.077	826.967	661.782
410.453	27.238	826.372	661.831
411.467	27.016	825.483	660.254
412.482	26.937	825.444	659.876
413.496	27.175	825.299	660.570
414.511	27.026	824.781	659.554
415.526	27.207	824.230	659.712
416.540	26.981	823.612	658.340
417.555	26.661	822.941	656.586
418.569	26.792	822.275	656.470
419.584	26.801	821.821	656.083
420.599	26.562	821.626	655.004
421.613	100.891	1272.974	1410.059
422.628	87.251	1338.750	1410.175
