DTS Sentinel unit serial number:	SN413079Multiplexer serial number:	ORYXHardware model number:	OX4-SRSoftware version number:	ORYX F/W v4.00 Oryx Data Collector v3.7.2.0data status	okinstallation	princeton_trtdifferential loss correction	single-endedforward channel	channel 1reverse channel	N/Adate	2019/09/12time	17:36:11forward acquisition time	60.00reverse acquisition time	0.00gamma	496.2192k internal	0.2317k external	0.2317temperature offset calibration	1.0104default loss term (dB/km)	0.3790temperature slope calibration	1.0000multiplexer offset coefficient	1.0000multiplexer slope coefficient	1.0000fibre end	0.00T internal ref (°C)	34.41T ext. ref 1 (°C)	2.85T ext. ref 2 (°C)	28.53length (m)	temperature (°C)	Stokes	anti-Stokes-747.200	800.000	-0.035	0.112
-746.185	150.099	-0.064	-0.088
-745.171	40.849	0.171	-0.156
-744.156	800.000	-0.025	0.085
-743.142	119.426	0.123	-0.154
-742.127	408.980	-0.016	0.034
-741.112	145.471	0.188	-0.256
-740.098	-55.347	-0.030	0.014
-739.083	800.000	0.071	0.209
-738.069	-200.000	-0.008	0.384
-737.054	-140.881	0.075	0.008
-736.039	800.000	-0.059	0.226
-735.025	-24.863	0.048	0.029
-734.010	800.000	-0.128	-0.471
-732.996	760.582	0.171	-0.470
-731.981	800.000	0.038	-0.158
-730.966	439.760	-0.029	-0.065
-729.952	98.239	-0.142	-0.166
-728.937	86.855	0.077	-0.086
-727.923	-54.328	0.327	0.150
-726.908	-67.665	0.179	-0.071
-725.894	8.528	-0.211	0.161
-724.879	-175.129	0.250	-0.007
-723.864	-200.000	-0.007	-0.130
-722.850	252.647	-0.023	0.039
-721.835	786.557	0.093	-0.258
-720.821	-84.683	0.121	-0.039
-719.806	800.000	-0.069	-0.280
-718.791	74.377	-0.201	0.214
-717.777	-200.000	-0.026	0.174
-716.762	-96.286	-0.261	-0.070
-715.748	-71.087	0.349	-0.133
-714.733	213.309	-0.141	0.226
-713.718	-88.592	-0.228	0.069
-712.704	-190.519	-0.106	0.001
-711.689	-78.461	0.180	0.062
-710.675	-127.377	0.133	0.020
-709.660	13.139	0.124	0.097
-708.645	164.547	0.209	0.298
-707.631	-64.474	0.177	-0.073
-706.616	-58.636	0.424	-0.186
-705.602	-200.000	0.002	0.235
-704.587	-200.000	-0.029	-0.418
-703.572	121.558	0.231	-0.291
-702.558	-43.181	-0.107	0.055
-701.543	704.237	0.041	0.108
-700.529	670.289	0.078	-0.203
-699.514	-200.000	-0.025	0.309
-698.499	180.458	-0.246	-0.365
-697.485	492.870	0.059	-0.136
-696.470	-200.000	0.064	0.403
-695.456	-200.000	0.069	0.335
-694.441	448.815	-0.149	-0.332
-693.426	49.083	0.240	0.227
-692.412	-12.164	-0.206	-0.136
-691.397	-95.787	-0.107	0.029
-690.383	461.294	0.150	-0.339
-689.368	-61.741	-0.349	-0.148
-688.354	-60.709	0.170	-0.073
-687.339	800.000	-0.055	-0.173
-686.324	105.417	0.134	0.160
-685.310	75.465	-0.060	0.064
-684.295	-200.000	0.021	-0.320
-683.281	63.094	-0.213	0.215
-682.266	-200.000	-0.009	-0.191
-681.251	-155.110	-0.248	-0.016
-680.237	42.725	-0.053	0.049
-679.222	-47.437	0.031	-0.015
-678.208	-71.969	0.052	-0.019
-677.193	-137.648	-0.198	0.023
-676.178	604.154	-0.148	-0.372
-675.164	77.026	-0.150	-0.161
-674.149	-65.295	-0.107	-0.044
-673.135	424.929	-0.152	-0.331
-672.120	660.689	-0.084	0.219
-671.105	40.577	-0.115	0.105
-670.091	148.084	0.338	0.460
-669.076	-50.412	0.259	0.123
-668.062	-200.000	0.009	0.129
-667.047	-199.634	-0.124	-0.001
-666.032	-200.000	-0.055	-0.280
-665.018	755.765	0.047	-0.128
-664.003	-40.623	0.183	-0.096
-662.989	-154.488	0.177	-0.012
-661.974	342.353	0.096	-0.189
-660.959	-22.266	-0.121	0.074
-659.945	76.450	0.208	-0.223
-658.930	29.223	-0.224	-0.192
-657.916	84.881	0.241	0.267
-656.901	-129.490	-0.277	0.039
-655.886	-65.141	0.177	0.072
-654.872	800.000	-0.083	0.255
-653.857	-200.000	-0.074	-0.383
-652.843	800.000	0.050	0.202
-651.828	800.000	-0.041	0.154
-650.814	143.884	-0.069	-0.092
-649.799	153.771	-0.076	0.104
-648.784	-200.000	-0.045	-0.273
-647.770	-168.122	0.069	-0.003
-646.755	7.211	0.035	0.026
-645.741	-200.000	-0.037	-0.304
-644.726	55.012	0.200	0.195
-643.711	-200.000	-0.007	0.071
-642.697	-86.529	-0.202	0.063
-641.682	44.830	-0.256	-0.238
-640.668	-64.620	-0.014	-0.006
-639.653	35.551	-0.101	0.089
-638.638	216.597	0.100	-0.161
-637.624	-2.126	0.041	-0.029
-636.609	-98.223	-0.298	0.077
-635.595	800.000	-0.074	-0.293
-634.580	-173.622	0.387	0.012
-633.565	607.977	0.111	0.279
-632.551	-96.538	-0.270	-0.072
-631.536	-200.000	-0.020	0.115
-630.522	-37.104	0.159	0.086
-629.507	103.598	-0.171	-0.202
-628.492	-54.215	0.224	0.103
-627.478	-200.000	0.001	0.128
-626.463	-200.000	-0.015	0.083
-625.449	109.781	-0.059	0.071
-624.434	8.780	0.175	0.133
-623.419	407.032	0.132	-0.281
-622.405	-11.869	-0.021	0.014
-621.390	-200.000	-0.032	-0.327
-620.376	-90.465	-0.113	0.033
-619.361	166.354	0.081	0.115
-618.346	101.596	-0.142	0.167
-617.332	219.691	0.274	-0.442
-616.317	800.000	0.062	-0.205
-615.303	177.180	0.071	-0.103
-614.288	-151.536	-0.089	0.007
-613.273	800.000	-0.051	0.154
-612.259	-16.232	0.287	-0.183
-611.244	421.499	0.100	0.217
-610.230	-156.030	-0.209	0.013
-609.215	136.824	0.166	0.219
-608.201	800.000	0.055	-0.178
-607.186	249.761	0.096	0.163
-606.171	-4.964	0.032	0.022
-605.157	251.201	-0.079	0.135
-604.142	61.833	-0.125	-0.125
-603.128	-77.788	-0.221	-0.077
-602.113	752.451	0.043	-0.118
-601.098	-12.524	-0.097	0.064
-600.084	-149.336	0.300	0.024
-599.069	-71.607	-0.130	-0.049
-598.055	19.441	0.098	-0.079
-597.040	-117.072	0.200	-0.037
-596.025	168.855	0.247	0.355
-595.011	-21.309	0.087	0.054
-593.996	-77.195	0.189	0.066
-592.982	7.767	0.159	0.120
-591.967	-29.860	0.130	-0.075
-590.952	-49.136	0.128	0.062
-589.938	800.000	-0.092	-0.395
-588.923	-138.175	0.231	-0.026
-587.909	-158.262	-0.374	0.022
-586.894	-13.778	-0.139	0.091
-585.879	-200.000	-0.011	-0.440
-584.865	97.604	0.141	-0.163
-583.850	7.109	0.211	-0.158
-582.836	-200.000	-0.006	-0.125
-581.821	-53.846	0.221	-0.102
-580.806	800.000	-0.073	-0.263
-579.792	137.613	0.172	-0.227
-578.777	-114.317	0.206	-0.040
-577.763	-200.000	-0.036	0.167
-576.748	-200.000	-0.040	0.192
-575.733	9.432	-0.231	0.176
-574.719	-200.000	-0.013	0.177
-573.704	-200.000	0.050	0.231
-572.690	75.039	0.085	0.090
-571.675	800.000	0.040	-0.132
-570.661	319.829	0.099	-0.190
-569.646	389.117	0.045	0.093
-568.631	-200.000	-0.038	-0.170
-567.617	15.950	0.102	0.081
-566.602	-64.874	0.047	-0.019
-565.588	373.625	0.091	0.186
-564.573	-127.371	0.134	0.020
-563.558	98.825	0.186	0.216
-562.544	64.823	0.152	0.154
-561.529	-200.000	0.032	0.294
-560.515	100.906	-0.130	0.153
-559.500	34.457	-0.382	-0.335
-558.485	-18.674	-0.170	0.107
-557.471	136.260	-0.030	0.039
-556.456	-131.896	0.164	0.022
-555.442	146.088	-0.224	0.302
-554.427	-41.409	0.355	-0.184
-553.412	-124.048	-0.311	0.049
-552.398	-50.070	0.207	-0.098
-551.383	-56.626	-0.378	-0.168
-550.369	4.125	-0.158	-0.116
-549.354	-180.108	-0.403	0.009
-548.339	-77.418	-0.211	-0.074
-547.325	185.181	0.216	0.323
-546.310	800.000	0.084	-0.286
-545.296	-127.208	0.170	0.025
-544.281	151.792	-0.174	0.239
-543.266	-200.000	-0.020	-0.185
-542.252	-23.891	0.230	0.138
-541.237	37.570	-0.209	0.187
-540.223	-200.000	-0.025	-0.133
-539.208	-113.264	-0.282	-0.056
-538.193	-68.290	0.195	0.076
-537.179	-98.725	-0.225	-0.058
-536.164	-59.502	-0.369	-0.159
-535.150	394.802	-0.035	-0.073
-534.135	-51.821	-0.206	-0.096
-533.121	364.965	-0.115	-0.232
-532.106	-46.473	-0.218	-0.108
-531.091	-70.883	-0.035	-0.013
-530.077	-93.507	-0.154	0.043
-529.062	468.084	0.092	-0.208
-528.048	-68.141	-0.389	-0.152
-527.033	0.059	0.144	0.103
-526.018	-123.297	-0.114	0.018
-525.004	344.306	0.162	-0.318
-523.989	43.797	0.253	-0.232
-522.975	-200.000	0.004	-0.141
-521.960	26.334	-0.143	0.120
-520.945	800.000	0.041	-0.128
-519.931	-200.000	-0.013	0.092
-518.916	107.850	-0.171	0.204
-517.902	-200.000	0.008	-0.057
-516.887	-200.000	0.031	0.190
-515.872	-200.000	-0.007	-0.134
-514.858	32.797	-0.059	0.051
-513.843	-53.855	-0.215	0.098
-512.829	22.759	-0.119	-0.098
-511.814	-147.407	0.189	-0.016
-510.799	-58.266	-0.092	-0.040
-509.785	-87.615	0.297	0.090
-508.770	-110.020	0.207	0.043
-507.756	800.000	0.029	-0.117
-506.741	-200.000	-0.016	-0.292
-505.726	800.000	0.073	-0.307
-504.712	453.610	-0.049	0.108
-503.697	-200.000	0.040	0.237
-502.683	-36.362	-0.503	0.272
-501.668	800.000	0.056	0.158
-500.653	109.084	-0.108	-0.130
-499.639	504.470	0.043	-0.100
-498.624	24.219	-0.209	0.173
-497.610	566.992	0.084	0.203
-496.595	800.000	-0.062	0.191
-495.581	237.941	-0.037	-0.061
-494.566	-147.166	-0.096	-0.008
-493.551	-53.998	0.075	0.034
-492.537	-14.575	-0.041	0.027
-491.522	262.761	0.100	0.174
-490.508	-24.246	-0.313	-0.187
-489.493	-36.852	-0.163	-0.088
-488.478	84.700	0.178	0.196
-487.464	758.132	0.054	-0.145
-486.449	75.286	-0.248	-0.262
-485.435	-39.984	-0.338	0.177
-484.420	800.000	0.053	-0.218
-483.405	-200.000	0.009	-0.115
-482.391	122.550	-0.057	-0.072
-481.376	-44.840	-0.203	-0.102
-480.362	-111.440	-0.105	0.021
-479.347	-125.150	-0.294	-0.045
-478.332	1.495	0.243	0.175
-477.318	101.462	0.044	-0.051
-476.303	-83.557	-0.273	-0.088
-475.289	278.570	0.043	0.078
-474.274	105.524	0.096	0.114
-473.259	-57.670	0.130	0.057
-472.245	-177.057	-0.156	-0.004
-471.230	-200.000	-0.056	0.249
-470.216	-138.089	-0.266	0.030
-469.201	800.000	0.038	0.115
-468.186	-200.000	-0.004	0.159
-467.172	-200.000	-0.053	-0.259
-466.157	524.436	0.043	0.102
-465.143	-200.000	-0.006	-0.209
-464.128	287.807	-0.085	0.154
-463.113	12.667	-0.146	0.113
-462.099	-94.602	-0.170	-0.046
-461.084	-158.918	-0.015	0.001
-460.070	-61.499	0.143	-0.060
-459.055	-200.000	-0.008	-0.081
-458.040	-97.509	-0.281	0.073
-457.026	-45.389	0.222	0.110
-456.011	-66.474	0.137	-0.054
-454.997	304.730	-0.130	0.242
-453.982	-51.627	0.173	-0.081
-452.968	-95.564	0.212	-0.057
-451.953	-174.923	-0.060	-0.002
-450.938	328.409	0.094	-0.181
-449.924	800.000	-0.032	0.130
-448.909	278.678	-0.027	0.048
-447.895	23.139	-0.145	-0.119
-446.880	-200.000	-0.011	0.246
-445.865	-200.000	-0.015	0.110
-444.851	196.636	-0.097	-0.148
-443.836	800.000	-0.112	-0.405
-442.822	-86.181	-0.301	-0.093
-441.807	133.692	-0.150	-0.195
-440.792	-167.350	-0.248	-0.010
-439.778	-200.000	0.015	0.286
-438.763	-200.000	0.015	0.137
-437.749	93.099	-0.193	0.218
-436.734	168.875	-0.269	-0.383
-435.719	-150.558	0.245	-0.019
-434.705	-200.000	0.046	-0.404
-433.690	-55.656	0.410	-0.183
-432.676	-44.802	-0.121	0.060
-431.661	106.872	0.193	0.230
-430.646	-70.283	0.306	-0.116
-429.632	800.000	0.044	-0.141
-428.617	407.189	-0.162	-0.343
-427.603	-169.200	-0.392	0.015
-426.588	-200.000	-0.009	0.084
-425.573	-75.756	0.217	-0.077
-424.559	93.003	0.033	0.038
-423.544	800.000	0.042	-0.125
-422.530	-77.030	0.158	-0.055
-421.515	-128.615	-0.305	-0.043
-420.500	-116.938	0.259	0.047
-419.486	-157.611	0.302	0.018
-418.471	-17.183	0.060	-0.038
-417.457	-43.234	0.160	0.081
-416.442	673.278	-0.085	-0.219
-415.428	-135.919	-0.186	0.022
-414.413	-200.000	0.036	0.343
-413.398	-200.000	-0.004	0.109
-412.384	-2.256	-0.268	0.188
-411.369	235.758	-0.095	0.156
-410.355	321.020	0.029	0.055
-409.340	-172.873	-0.231	-0.007
-408.325	-200.000	-0.022	0.160
-407.311	-21.313	0.382	-0.233
-406.296	170.075	0.021	-0.029
-405.282	800.000	-0.077	-0.312
-404.267	-19.317	0.356	0.220
-403.252	1.563	0.196	-0.141
-402.238	-21.022	-0.125	0.076
-401.223	-15.537	-0.337	0.215
-400.209	49.772	-0.038	-0.036
-399.194	-117.908	0.129	0.023
-398.179	-169.889	-0.051	-0.002
-397.165	384.097	-0.047	-0.096
-396.150	-157.640	-0.158	-0.009
-395.136	141.058	0.180	-0.238
-394.121	800.000	0.068	-0.278
-393.106	327.040	0.115	0.219
-392.092	-61.803	-0.444	-0.186
-391.077	576.751	0.145	-0.354
-390.063	-198.523	0.204	0.001
-389.048	-200.000	-0.088	0.394
-388.033	-200.000	-0.029	0.373
-387.019	-152.038	-0.187	0.014
-386.004	313.395	0.081	0.152
-384.990	591.898	0.132	-0.326
-383.975	-122.725	0.136	0.022
-382.960	28.100	0.063	-0.053
-381.946	-11.434	0.031	0.020
-380.931	-200.000	0.033	0.291
-379.917	-128.424	-0.124	0.018
-378.902	276.291	-0.068	0.121
-377.888	11.945	0.279	-0.214
-376.873	-31.870	-0.191	0.107
-375.858	-38.343	-0.415	0.220
-374.844	1.730	0.101	0.073
-373.829	121.393	0.169	-0.210
-372.815	-95.385	-0.201	-0.054
-371.800	800.000	-0.074	-0.231
-370.785	9.420	-0.204	0.154
-369.771	-71.805	-0.087	0.032
-368.756	272.518	0.085	-0.149
-367.742	6.943	-0.107	0.080
-366.727	-200.000	0.034	0.171
-365.712	358.532	0.192	-0.382
-364.698	-125.336	-0.170	-0.026
-363.683	-1.731	-0.167	0.117
-362.669	58.616	-0.189	0.185
-361.654	1.327	-0.207	-0.149
-360.639	-200.000	-0.001	-0.174
-359.625	-200.000	-0.069	0.327
-358.610	-101.616	0.237	0.057
-357.596	243.062	-0.063	0.105
-356.581	80.499	-0.247	-0.266
-355.566	20.467	0.152	-0.123
-354.552	717.055	-0.068	0.180
-353.537	73.848	-0.104	-0.109
-352.523	91.750	-0.090	-0.101
-351.508	-200.000	-0.002	0.226
-350.493	-200.000	0.004	0.291
-349.479	800.000	-0.063	0.212
-348.464	800.000	0.108	-0.366
-347.450	78.649	-0.126	-0.134
-346.435	235.667	0.058	-0.095
-345.420	291.026	-0.075	0.136
-344.406	24.054	0.245	-0.202
-343.391	52.688	0.230	-0.219
-342.377	-200.000	0.091	-0.446
-341.362	127.118	-0.043	-0.054
-340.348	-51.330	-0.078	0.036
-339.333	-140.207	0.329	0.034
-338.318	-60.398	0.279	-0.118
-337.304	800.000	-0.049	0.149
-336.289	-58.378	-0.165	-0.071
-335.275	69.354	-0.239	-0.245
-334.260	-74.125	0.178	0.064
-333.245	116.137	-0.122	0.149
-332.231	-61.938	0.207	-0.086
-331.216	138.399	0.158	0.206
-330.202	-200.000	-0.032	0.282
-329.187	-92.677	-0.218	-0.061
-328.172	28.317	0.262	-0.220
-327.158	-42.107	0.052	-0.027
-326.143	-138.801	0.287	0.031
-325.129	59.239	-0.214	0.210
-324.114	0.264	-0.122	-0.087
-323.099	800.000	0.013	-0.036
-322.085	53.788	-0.094	-0.090
-321.070	-200.000	0.015	0.076
-320.056	783.636	0.147	0.402
-319.041	-36.032	-0.245	0.132
-318.026	29.387	-0.020	0.017
-317.012	64.234	-0.056	-0.056
-315.997	-34.809	-0.108	-0.059
-314.983	-200.000	0.009	0.247
-313.968	26.852	0.116	0.097
-312.953	-200.000	0.011	0.127
-311.939	-118.155	-0.253	0.045
-310.924	260.981	-0.087	-0.149
-309.910	-32.336	-0.118	0.066
-308.895	43.400	-0.125	-0.114
-307.880	61.861	0.137	0.136
-306.866	-200.000	-0.037	0.257
-305.851	573.872	-0.125	0.305
-304.837	68.358	0.165	0.168
-303.822	-102.201	0.172	0.041
-302.807	186.552	-0.083	0.123
-301.793	-200.000	0.007	-0.208
-300.778	-91.004	-0.275	-0.079
-299.764	113.698	0.144	-0.174
-298.749	118.212	0.073	0.090
-297.735	-93.495	0.171	-0.047
-296.720	447.137	0.101	0.221
-295.705	151.791	-0.124	-0.168
-294.691	106.334	-0.156	0.184
-293.676	-200.000	0.031	-0.189
-292.662	16.581	-0.096	0.076
-291.647	22.875	-0.151	0.123
-290.632	-106.509	-0.033	0.007
-289.618	93.888	-0.139	-0.157
-288.603	604.951	-0.016	-0.041
-287.589	219.819	0.199	0.317
-286.574	800.000	0.034	-0.100
-285.559	-200.000	0.012	-0.196
-284.545	448.529	-0.170	-0.372
-283.530	-2.734	0.122	-0.085
-282.516	92.306	0.122	-0.137
-281.501	-5.139	-0.314	0.215
-280.486	-109.768	-0.118	-0.025
-279.472	9.076	0.096	-0.072
-278.457	-115.124	0.173	-0.033
-277.443	178.761	-0.179	-0.260
-276.428	-200.000	-0.007	0.086
-275.413	-20.282	-0.348	-0.213
-274.399	-200.000	-0.007	-0.063
-273.384	149.591	-0.042	0.056
-272.370	800.000	-0.101	0.343
-271.355	-129.353	0.188	0.026
-270.340	107.724	0.057	0.067
-269.326	-39.236	-0.114	-0.060
-268.311	-200.000	0.037	-0.297
-267.297	-78.017	0.221	-0.076
-266.282	121.091	-0.126	0.156
-265.267	54.219	0.149	0.142
-264.253	-200.000	0.038	-0.189
-263.238	800.000	0.039	-0.163
-262.224	3.815	0.268	0.195
-261.209	248.013	0.217	0.365
-260.195	-23.440	-0.121	0.072
-259.180	-160.821	-0.374	-0.020
-258.165	-200.000	-0.076	0.338
-257.151	-91.494	0.111	0.032
-256.136	-200.000	-0.063	-0.312
-255.122	800.000	0.025	0.108
-254.107	55.757	0.190	-0.182
-253.092	-134.532	-0.255	-0.031
-252.078	216.103	0.072	-0.114
-251.063	5.658	-0.153	0.112
-250.049	-39.285	0.273	0.143
-249.034	248.334	-0.085	-0.143
-248.019	-186.681	0.533	-0.007
-247.005	-38.994	0.220	-0.115
-245.990	-50.859	-0.089	-0.042
-244.976	42.573	-0.288	0.261
-243.961	-129.598	0.267	0.037
-242.946	624.648	0.068	-0.170
-241.932	-200.000	-0.002	0.145
-240.917	-109.566	-0.241	-0.051
-239.903	188.083	0.164	-0.244
-238.888	244.292	-0.127	-0.211
-237.873	346.855	0.082	0.161
-236.859	292.830	0.239	-0.432
-235.844	32.916	0.070	0.060
-234.830	-114.079	0.303	0.058
-233.815	-200.000	0.009	0.157
-232.800	-3.523	0.155	-0.107
-231.786	246.184	0.109	-0.183
-230.771	-200.000	-0.017	0.112
-229.757	-106.520	-0.065	-0.014
-228.742	174.049	0.117	0.168
-227.727	249.927	-0.071	0.120
-226.713	-200.000	-0.073	0.326
-225.698	76.601	-0.172	0.181
-224.684	-47.180	0.177	0.086
-223.669	-49.593	-0.188	-0.089
-222.655	-200.000	0.034	0.252
-221.640	210.080	0.205	0.319
-220.625	-82.363	0.126	0.041
-219.611	-29.836	0.037	0.021
-218.596	99.863	0.026	-0.030
-217.582	800.000	0.055	0.151
-216.567	-20.872	0.158	0.096
-215.552	-200.000	-0.004	0.244
-214.538	65.278	-0.132	-0.132
-213.523	13.476	0.246	-0.189
-212.509	130.983	0.274	-0.349
-211.494	-120.175	0.310	0.053
-210.479	-130.805	-0.087	-0.012
-209.465	561.537	0.094	-0.226
-208.450	134.948	-0.270	0.348
-207.436	409.637	-0.160	-0.337
-206.421	800.000	-0.035	0.107
-205.406	-81.633	-0.362	-0.118
-204.392	-200.000	-0.038	-0.196
-203.377	541.174	0.018	0.043
-202.363	800.000	0.105	0.364
-201.348	267.844	-0.102	0.177
-200.333	398.266	0.091	-0.190
-199.319	800.000	0.056	-0.177
-198.304	-200.000	-0.021	0.164
-197.290	-200.000	0.099	0.492
-196.275	-154.777	-0.046	-0.003
-195.260	-107.370	-0.292	-0.064
-194.246	-56.082	0.248	-0.110
-193.231	-57.583	0.051	0.022
-192.217	35.165	-0.178	0.155
-191.202	106.865	0.075	-0.088
-190.187	-79.036	0.443	-0.149
-189.173	-200.000	-0.007	-0.164
-188.158	317.170	0.171	0.320
-187.144	134.667	0.323	-0.415
-186.129	525.929	0.025	0.059
-185.114	-107.653	-0.189	0.041
-184.100	97.712	-0.094	0.107
-183.085	-116.375	0.187	-0.034
-182.071	-121.142	0.167	0.028
-181.056	-25.522	0.112	-0.065
-180.042	800.000	-0.113	0.342
-179.027	800.000	0.137	0.377
-178.012	-44.893	0.203	-0.100
-176.998	-69.863	0.290	-0.110
-175.983	28.935	0.274	-0.230
-174.969	-55.357	0.051	-0.023
-173.954	-26.043	0.203	0.118
-172.939	-118.984	-0.058	-0.010
-171.925	-110.721	0.154	0.031
-170.910	-10.269	-0.160	0.105
-169.896	528.427	0.128	0.299
-168.881	-101.975	-0.428	-0.102
-167.866	197.385	0.126	-0.190
-166.852	-127.367	0.296	-0.043
-165.837	474.874	0.162	0.361
-164.823	-148.250	-0.286	-0.023
-163.808	-130.047	0.058	0.008
-162.793	-200.000	0.026	0.168
-161.779	35.829	-0.182	0.159
-160.764	40.739	0.320	-0.285
-159.750	104.311	-0.072	0.084
-158.735	-122.901	0.112	-0.018
-157.720	249.048	-0.038	0.064
-156.706	-95.032	0.037	0.010
-155.691	-200.000	-0.058	-0.272
-154.677	800.000	-0.084	0.356
-153.662	28.833	0.067	0.056
-152.647	17.174	0.060	-0.047
-151.633	-200.000	-0.003	-0.252
-150.618	135.471	0.194	0.250
-149.604	-45.698	-0.069	-0.034
-148.589	32.611	0.173	0.148
-147.574	-93.459	0.211	-0.058
-146.560	49.153	0.266	0.247
-145.545	-75.078	-0.330	-0.117
-144.531	-200.000	-0.055	0.279
-143.516	800.000	0.083	-0.285
-142.502	-200.000	-0.024	-0.290
-141.487	-64.751	0.178	0.071
-140.472	800.000	-0.198	0.558
-139.458	800.000	-0.034	-0.105
-138.443	22.386	0.058	-0.047
-137.429	46.799	-0.079	-0.073
-136.414	354.448	0.062	0.122
-135.399	38.976	0.210	0.186
-134.385	-140.394	0.579	0.060
-133.370	-200.000	-0.078	-0.483
-132.356	160.329	0.027	0.037
-131.341	111.616	-0.061	0.073
-130.326	-196.980	0.237	-0.002
-129.312	54.021	-0.087	0.083
-128.297	431.187	-0.052	0.111
-127.283	-89.124	0.195	-0.057
-126.268	20.370	0.310	0.247
-125.253	508.404	-0.097	-0.223
-124.239	-90.275	-0.471	-0.135
-123.224	-39.453	-0.263	-0.136
-122.210	800.000	0.065	0.222
-121.195	14.980	-0.267	-0.207
-120.180	-200.000	0.008	-0.311
-119.166	-200.000	0.005	0.065
-118.151	736.816	0.184	0.488
-117.137	154.795	0.228	0.310
-116.122	185.721	-0.127	-0.186
-115.107	-27.199	0.275	-0.158
-114.093	800.000	-0.087	0.277
-113.078	142.988	-0.108	0.141
-112.064	-78.374	-0.473	0.160
-111.049	800.000	-0.039	0.137
-110.034	119.668	0.234	-0.286
-109.020	13.326	0.135	0.103
-108.005	-135.417	0.078	-0.009
-106.991	246.726	-0.139	-0.231
-105.976	125.745	0.242	-0.302
-104.962	108.676	0.077	-0.091
-103.947	-200.000	-0.019	-0.123
-102.932	-93.996	0.231	-0.063
-101.918	800.000	0.013	-0.038
-100.903	39.017	-0.097	-0.085
-99.889	752.395	0.057	-0.153
-98.874	173.027	-0.211	-0.300
-97.859	711.994	0.033	0.087
-96.845	-43.562	-0.347	0.173
-95.830	-200.000	-0.028	-0.145
-94.816	103.778	0.133	0.155
-93.801	658.150	0.121	-0.306
-92.786	200.323	0.096	0.146
-91.772	800.000	0.040	-0.149
-90.757	800.000	-0.069	0.289
-89.743	21.573	0.052	-0.042
-88.728	75.426	-0.146	0.153
-87.713	-59.797	-0.145	-0.061
-86.699	-47.989	-0.173	-0.083
-85.684	800.000	0.054	-0.184
-84.670	-200.000	0.003	-0.047
-83.655	-8.044	0.238	0.158
-82.640	29.335	-0.098	0.082
-81.626	-200.000	0.015	-0.250
-80.611	800.000	-0.047	0.163
-79.597	316.235	0.101	0.189
-78.582	800.000	-0.048	-0.193
-77.567	551.958	0.021	0.051
-76.553	-200.000	0.018	-0.141
-75.538	-133.348	-0.051	0.006
-74.524	96.920	-0.101	0.114
-73.509	45.923	0.258	0.236
-72.494	800.000	-0.109	-0.318
-71.480	-200.000	-0.026	-0.260
-70.465	-101.394	-0.301	0.072
-69.451	-106.939	0.182	0.040
-68.436	-157.719	0.275	0.016
-67.422	22.597	0.251	-0.202
-66.407	8.207	0.069	0.051
-65.392	800.000	-0.073	0.236
-64.378	-95.851	-0.150	-0.039
-63.363	-45.484	0.449	0.219
-62.349	153.244	0.289	0.390
-61.334	42.505	-0.964	-0.865
-60.319	157.163	0.271	0.369
-59.305	759.825	-0.298	-0.797
-58.290	138.167	0.725	0.937
-57.276	553.052	0.575	1.363
-56.261	-200.000	96.627	582.961
-55.246	554.060	1384.830	3282.803
-54.232	155.718	2574.049	3495.188
-53.217	114.270	2152.867	2582.823
-52.203	45.908	1612.155	1469.880
-51.188	37.948	1349.869	1182.680
-50.173	34.616	1307.801	1126.157
-49.159	56.901	1356.587	1302.471
-48.144	60.858	1374.244	1343.079
-47.130	38.179	1329.704	1166.204
-46.115	34.553	1312.157	1129.356
-45.100	34.421	1307.297	1124.354
-44.086	34.349	1304.834	1121.764
-43.071	34.183	1302.911	1119.092
-42.057	34.215	1300.659	1117.300
-41.042	34.291	1298.886	1116.176
-40.027	34.226	1298.140	1115.112
-39.013	34.311	1296.223	1113.920
-37.998	34.321	1293.871	1111.913
-36.984	34.439	1291.774	1110.755
-35.969	34.450	1290.520	1109.692
-34.954	34.480	1288.549	1108.130
-33.940	34.486	1287.593	1107.297
-32.925	34.523	1286.109	1106.193
-31.911	34.513	1284.545	1104.749
-30.896	34.579	1283.451	1104.142
-29.881	34.557	1282.013	1102.734
-28.867	34.525	1280.868	1101.519
-27.852	34.419	1279.312	1099.530
-26.838	34.411	1277.826	1098.163
-25.823	34.592	1276.288	1097.840
-24.809	34.486	1275.318	1096.353
-23.794	34.457	1273.900	1094.919
-22.779	34.512	1272.842	1094.285
-21.765	34.342	1271.607	1092.207
-20.750	34.325	1270.272	1090.920
-19.736	34.401	1268.727	1089.980
-18.721	34.381	1267.831	1089.052
-17.706	34.318	1267.005	1087.944
-16.692	34.328	1265.611	1086.757
-15.677	34.389	1264.128	1085.791
-14.663	34.411	1262.991	1084.897
-13.648	34.342	1262.085	1083.679
-12.633	34.365	1260.920	1082.771
-11.619	34.412	1260.243	1082.413
-10.604	34.398	1259.365	1081.537
-9.590	34.312	1258.084	1079.906
-8.575	34.285	1257.540	1079.241
-7.560	34.285	1256.244	1078.088
-6.546	34.258	1256.210	1077.860
-5.531	34.432	1254.550	1077.379
-4.517	34.279	1254.034	1076.029
-3.502	34.349	1253.419	1075.854
-2.487	34.311	1252.257	1074.601
-1.473	34.285	1247.965	1070.728
-0.458	32.651	1232.889	1048.664
0.556	29.475	1214.700	1006.810
1.571	25.291	1219.403	987.648
2.586	24.174	1234.664	993.693
3.600	23.459	1223.783	980.896
4.615	17.326	1151.248	890.652
5.629	7.412	1074.813	782.742
6.644	3.274	1053.996	747.460
7.659	2.815	1051.697	743.539
8.673	2.705	1049.773	741.579
9.688	2.588	1048.774	740.243
10.702	3.105	1047.365	741.677
11.717	8.814	1055.838	775.302
12.731	19.004	1070.191	835.514
13.746	24.649	1078.241	869.266
14.761	26.289	1079.228	877.964
15.775	26.371	1078.694	877.850
16.790	26.188	1077.655	876.039
17.804	26.030	1076.929	874.602
18.819	26.232	1076.977	875.542
19.834	26.323	1076.461	875.486
20.848	26.461	1075.775	875.522
21.863	26.522	1075.191	875.262
22.877	26.328	1075.047	874.128
23.892	26.411	1073.834	873.465
24.907	26.458	1072.990	872.932
25.921	26.403	1072.011	871.792
26.936	26.402	1070.906	870.808
27.950	26.202	1069.439	868.578
28.965	26.273	1067.501	867.270
29.980	26.215	1066.349	865.976
30.994	26.474	1065.684	866.602
32.009	26.338	1064.715	865.087
33.023	26.220	1063.435	863.406
34.038	26.395	1062.540	863.438
35.053	26.398	1061.927	862.879
36.067	26.369	1061.425	862.257
37.082	26.475	1060.638	862.043
38.096	26.594	1060.222	862.196
39.111	26.775	1059.430	862.337
40.126	26.468	1058.010	859.650
41.140	26.249	1056.065	856.952
42.155	26.103	1054.636	855.026
43.169	26.084	1054.098	854.424
44.184	26.023	1053.198	853.331
45.199	25.942	1052.116	851.993
46.213	26.130	1051.363	852.199
47.228	26.163	1050.966	851.958
48.242	26.127	1050.154	851.053
49.257	26.451	1048.732	851.350
50.271	26.392	1048.689	850.961
51.286	26.553	1047.717	850.858
52.301	26.449	1047.175	849.852
53.315	26.353	1045.897	848.286
54.330	26.309	1045.126	847.382
55.344	26.305	1044.777	847.006
56.359	26.319	1043.430	845.903
57.374	26.164	1042.673	844.491
58.388	26.083	1041.811	843.339
59.403	26.183	1040.853	842.954
60.417	25.847	1040.524	841.046
61.432	26.090	1039.379	841.181
62.447	26.063	1039.135	840.781
63.461	26.223	1038.134	840.642
64.476	25.998	1037.002	838.604
65.490	25.961	1036.287	837.781
66.505	26.071	1035.645	837.697
67.520	26.156	1035.267	837.713
68.534	25.925	1033.938	835.495
69.549	25.597	1032.879	833.043
70.563	25.599	1031.971	832.247
71.578	25.629	1030.970	831.505
72.593	25.515	1030.421	830.464
73.607	25.625	1029.999	830.558
74.622	25.892	1029.897	831.635
75.636	25.899	1028.978	830.851
76.651	25.871	1027.847	829.736
77.666	25.743	1027.120	828.484
78.680	25.801	1026.536	828.210
79.695	25.960	1025.948	828.389
80.709	25.902	1025.021	827.303
81.724	25.926	1024.500	826.919
82.739	25.982	1023.757	826.504
83.753	26.353	1023.520	827.937
84.768	26.698	1022.661	828.749
85.782	26.809	1021.792	828.478
86.797	26.654	1020.705	826.815
87.812	26.451	1019.660	824.969
88.826	26.585	1018.821	824.828
89.841	26.648	1018.081	824.442
90.855	26.703	1017.081	823.810
91.870	26.689	1016.352	823.082
92.884	26.503	1015.298	821.311
93.899	26.420	1014.274	820.035
94.914	26.573	1013.323	819.886
95.928	26.538	1012.354	818.874
96.943	26.163	1011.311	816.263
97.957	26.116	1009.750	814.716
98.972	25.938	1008.904	813.160
99.987	26.153	1008.444	813.685
101.001	26.256	1007.764	813.531
102.016	26.419	1006.788	813.401
103.030	26.256	1005.915	811.892
104.045	26.123	1004.744	810.280
105.060	25.862	1003.934	808.384
106.074	26.129	1003.446	809.116
107.089	26.521	1002.863	810.331
108.103	26.494	1001.146	808.749
109.118	26.189	1000.235	806.579
110.133	26.131	999.607	805.743
111.147	25.956	997.704	803.358
112.162	25.789	997.437	802.330
113.176	26.200	996.674	803.472
114.191	25.995	996.100	802.028
115.206	25.682	994.687	799.430
116.220	25.653	994.337	798.947
117.235	25.779	993.363	798.655
118.249	25.879	992.168	798.065
119.264	25.736	991.579	796.888
120.279	25.681	990.862	795.999
121.293	25.772	989.989	795.627
122.308	25.708	989.344	794.756
123.322	25.622	988.507	793.635
124.337	25.614	986.936	792.268
125.352	25.151	985.086	788.679
126.366	25.104	984.470	787.908
127.381	25.853	984.151	790.871
128.395	26.271	983.858	792.402
129.410	26.353	983.136	792.109
130.424	26.452	981.988	791.548
131.439	26.265	981.653	790.389
132.454	26.212	980.779	789.382
133.468	26.260	979.785	788.721
134.483	26.415	979.028	788.721
135.497	26.503	978.286	788.436
136.512	26.523	977.438	787.768
137.527	26.673	976.534	787.622
138.541	26.694	975.834	787.081
139.556	26.535	975.157	785.772
140.570	26.637	974.405	785.543
141.585	26.706	973.075	784.700
142.600	26.557	972.090	783.188
143.614	26.828	971.727	784.000
144.629	27.141	970.094	783.965
145.643	26.681	969.583	781.499
146.658	26.562	967.966	779.610
147.673	26.466	967.095	778.428
148.687	26.336	966.071	776.978
149.702	26.275	965.053	775.830
150.716	26.361	964.320	775.538
151.731	26.340	963.989	775.112
152.746	26.591	963.243	775.520
153.760	26.663	962.572	775.223
154.775	26.746	962.056	775.089
155.789	26.691	960.994	773.931
156.804	26.764	959.798	773.213
157.819	26.849	959.292	773.097
158.833	26.779	958.981	772.483
159.848	26.772	957.901	771.512
160.862	26.651	956.390	769.715
161.877	26.782	955.106	769.168
162.892	26.789	954.089	768.309
163.906	26.640	953.513	767.146
164.921	26.720	952.731	766.790
165.935	26.719	951.626	765.827
166.950	26.817	950.582	765.332
167.964	26.868	950.142	765.127
168.979	26.472	948.662	762.198
169.994	26.539	947.947	761.840
171.008	26.758	947.606	762.418
172.023	26.911	946.740	762.296
173.037	26.527	945.480	759.603
174.052	26.381	944.770	758.353
175.067	26.448	944.417	758.286
176.081	26.578	943.813	758.277
177.096	26.579	942.677	757.303
178.110	26.340	941.890	755.604
179.125	26.112	941.229	754.053
180.140	26.184	940.659	753.831
181.154	26.246	940.913	754.226
182.169	26.474	940.775	755.003
183.183	26.707	940.045	755.320
184.198	26.621	939.700	754.617
185.213	26.645	938.340	753.560
186.227	26.741	938.021	753.633
187.242	26.716	937.210	752.812
188.256	26.704	936.402	752.048
189.271	26.877	936.241	752.568
190.286	26.575	934.624	749.951
191.300	25.791	933.114	745.432
192.315	24.996	931.524	740.806
193.329	24.956	931.591	740.629
194.344	25.784	932.048	744.352
195.359	26.618	931.784	747.521
196.373	26.616	931.129	746.921
197.388	26.506	930.597	745.974
198.402	26.714	930.096	746.362
199.417	26.575	929.784	745.474
200.432	26.166	928.809	742.943
201.446	26.330	927.714	742.677
202.461	26.258	927.188	741.893
203.475	25.445	925.092	736.820
204.490	24.543	924.185	732.333
205.504	25.570	924.546	736.765
206.519	26.112	924.399	738.801
207.534	26.233	923.813	738.764
208.548	26.634	924.029	740.512
209.563	26.472	922.733	738.745
210.577	26.386	922.248	737.942
211.592	26.849	921.942	739.518
212.607	26.787	921.080	738.510
213.621	26.793	920.782	738.230
214.636	26.735	920.019	737.316
215.650	26.758	918.971	736.503
216.665	26.774	918.837	736.397
217.680	26.859	917.658	735.734
218.694	26.415	916.439	732.892
219.709	26.249	915.825	731.662
220.723	26.500	915.700	732.514
221.738	26.586	914.908	732.164
222.753	26.516	914.153	731.212
223.767	26.752	913.933	731.927
224.782	26.832	914.192	732.389
225.796	26.925	913.061	731.795
226.811	26.283	911.403	727.817
227.826	25.573	910.511	724.181
228.840	25.698	910.063	724.263
229.855	25.896	909.077	724.210
230.869	25.545	907.785	721.709
231.884	25.850	908.161	723.169
232.899	26.630	908.503	726.506
233.913	26.494	907.591	725.170
234.928	26.355	907.443	724.429
235.942	26.445	906.282	723.797
236.957	26.041	905.539	721.525
237.972	25.947	905.696	721.211
238.986	26.200	905.021	721.619
240.001	26.340	903.854	721.186
241.015	26.415	903.679	721.281
242.030	26.485	903.323	721.213
243.045	26.550	902.800	720.989
244.059	26.714	902.082	721.002
245.074	26.459	901.232	719.247
246.088	26.381	900.057	717.938
247.103	26.476	899.930	718.148
248.117	27.147	899.916	720.736
249.132	27.374	899.467	721.212
250.147	27.340	899.497	721.037
251.161	27.451	899.201	721.178
252.176	27.511	898.135	720.493
253.190	27.684	897.349	720.482
254.205	27.696	897.046	720.223
255.220	27.609	896.535	719.408
256.234	27.488	895.559	718.085
257.249	27.373	894.766	716.930
258.263	27.456	894.067	716.635
259.278	27.475	893.773	716.410
260.293	27.705	892.674	716.367
261.307	27.444	892.431	715.086
262.322	27.271	891.544	713.631
263.336	26.450	889.530	708.744
264.351	25.478	887.814	703.511
265.366	25.563	887.673	703.668
266.380	26.558	888.465	708.130
267.395	27.034	887.883	709.461
268.409	26.990	887.120	708.616
269.424	27.290	886.606	709.316
270.439	27.361	886.156	709.169
271.453	27.378	885.571	708.703
272.468	27.444	885.482	708.825
273.482	27.600	884.813	708.835
274.497	27.077	883.831	705.952
275.512	26.920	882.466	704.194
276.526	27.355	882.693	705.998
277.541	27.323	882.489	705.649
278.555	27.092	881.594	703.976
279.570	27.039	880.686	702.982
280.585	27.245	880.146	703.289
281.599	27.091	879.906	702.437
282.614	26.579	878.508	699.284
283.628	26.567	877.611	698.460
284.643	26.930	877.363	699.599
285.657	26.524	876.309	697.133
286.672	26.318	875.603	695.717
287.687	26.905	875.437	697.784
288.701	26.866	875.063	697.273
289.716	26.483	874.361	695.183
290.730	26.521	873.311	694.433
291.745	26.343	872.489	693.033
292.760	26.588	872.495	693.917
293.774	27.558	872.790	697.807
294.789	27.838	872.376	698.484
295.803	27.889	871.936	698.264
296.818	27.844	871.576	697.741
297.833	27.346	870.548	694.957
298.847	27.396	869.434	694.197
299.862	27.611	869.488	694.999
300.876	27.931	869.046	695.802
301.891	27.739	868.130	694.277
302.906	27.191	867.345	691.503
303.920	27.353	867.306	692.027
304.935	27.830	867.155	693.661
305.949	27.811	866.172	692.738
306.964	27.546	865.287	690.965
307.979	27.481	865.384	690.737
308.993	28.009	864.818	692.223
310.008	28.013	864.357	691.810
311.022	27.765	863.373	690.020
312.037	27.514	863.257	688.919
313.052	27.237	862.024	686.827
314.066	26.369	860.282	682.104
315.081	26.064	859.503	680.278
316.095	26.969	860.030	684.048
317.110	27.434	859.347	685.195
318.125	26.448	858.166	680.483
319.139	25.575	856.725	676.000
320.154	25.513	856.552	675.573
321.168	26.283	857.368	679.053
322.183	27.102	857.326	682.032
323.197	27.219	856.756	681.959
324.212	27.548	856.221	682.705
325.227	27.594	855.680	682.386
326.241	27.480	854.774	681.178
327.256	27.300	854.328	680.089
328.270	27.190	853.586	679.026
329.285	27.035	853.109	678.006
330.300	26.838	852.092	676.406
331.314	27.066	851.641	676.837
332.329	27.552	851.940	678.824
333.343	27.725	851.285	678.889
334.358	27.706	850.828	678.393
335.373	27.778	850.730	678.521
336.387	27.985	850.883	679.354
337.402	28.031	850.412	679.090
338.416	28.019	850.086	678.724
339.431	28.263	849.578	679.162
340.446	28.355	849.548	679.419
341.460	27.978	849.432	677.867
342.475	27.997	848.211	676.906
343.489	27.975	848.127	676.698
344.504	28.344	847.844	677.775
345.519	28.541	847.281	677.996
346.533	28.531	846.970	677.647
347.548	28.492	846.274	676.888
348.562	28.279	846.013	675.832
349.577	28.431	845.121	675.619
350.592	28.430	844.360	674.951
351.606	28.282	843.930	674.001
352.621	28.208	842.920	672.864
353.635	28.180	842.331	672.231
354.650	27.569	840.837	668.739
355.665	26.738	838.894	664.091
356.679	26.991	839.216	665.214
357.694	27.555	838.624	666.750
358.708	27.365	838.110	665.588
359.723	27.809	837.939	667.016
360.738	27.996	838.000	667.688
361.752	28.151	837.725	667.973
362.767	28.451	837.207	668.597
363.781	28.795	836.558	669.272
364.796	28.819	836.307	669.099
365.810	28.931	835.877	669.106
366.825	28.769	835.695	668.310
367.840	28.648	834.322	666.714
368.854	28.220	833.711	664.613
369.869	28.288	833.414	664.565
370.883	28.355	832.639	664.131
371.898	28.219	832.469	663.445
372.913	28.131	832.162	662.820
373.927	28.364	831.686	663.228
374.942	28.450	831.190	663.084
375.956	28.569	831.294	663.537
376.971	28.705	830.760	663.545
377.986	28.729	830.559	663.411
379.000	28.901	829.595	663.203
380.015	28.778	828.719	662.003
381.029	28.609	828.593	661.232
382.044	28.833	827.884	661.417
383.059	28.759	827.521	660.799
384.073	28.872	826.929	660.677
385.088	28.820	826.231	659.872
386.102	28.626	825.192	658.291
387.117	28.549	824.806	657.647
388.132	28.039	823.716	654.895
389.146	27.762	822.191	652.633
390.161	28.079	822.804	654.195
391.175	28.645	822.366	655.814
392.190	28.197	821.300	653.305
393.205	26.780	819.616	646.858
394.219	25.448	817.342	640.261
395.234	25.200	817.476	639.426
396.248	26.741	819.098	646.135
397.263	28.301	820.355	652.636
398.278	28.285	819.554	651.883
399.292	28.117	818.330	650.254
400.307	27.870	818.357	649.342
401.321	28.153	817.803	649.851
402.336	28.528	817.888	651.191
403.350	28.981	817.485	652.419
404.365	29.233	817.542	653.299
405.380	29.601	817.150	654.232
406.394	29.607	816.646	653.792
407.409	29.537	816.097	653.047
408.423	29.330	815.967	652.154
409.438	29.394	815.482	651.934
410.453	29.465	815.116	651.836
411.467	29.455	814.513	651.261
412.482	29.579	814.119	651.323
413.496	29.571	813.789	650.974
414.511	29.510	813.349	650.352
415.526	29.471	812.897	649.794
416.540	29.382	812.167	648.841
417.555	29.134	811.618	647.472
418.569	29.280	811.142	647.547
419.584	29.121	810.664	646.553
420.599	29.004	810.286	645.782
421.613	109.568	1285.211	1447.180
422.628	94.744	1354.375	1447.299
