DTS Sentinel unit serial number:	SN413079Multiplexer serial number:	ORYXHardware model number:	OX4-SRSoftware version number:	ORYX F/W v4.00 Oryx Data Collector v3.7.2.0data status	okinstallation	princeton_trtdifferential loss correction	single-endedforward channel	channel 1reverse channel	N/Adate	2019/09/16time	21:22:35forward acquisition time	60.00reverse acquisition time	0.00gamma	496.2192k internal	0.2325k external	0.2325temperature offset calibration	0.9951default loss term (dB/km)	0.3790temperature slope calibration	1.0000multiplexer offset coefficient	1.0000multiplexer slope coefficient	1.0000fibre end	0.00T internal ref (°C)	31.62T ext. ref 1 (°C)	0.05T ext. ref 2 (°C)	25.39length (m)	temperature (°C)	Stokes	anti-Stokes-747.200	-200.000	-0.045	0.272
-746.185	-60.068	-0.219	-0.094
-745.171	28.461	0.072	0.061
-744.156	800.000	0.131	0.402
-743.142	-79.946	-0.298	0.101
-742.127	189.020	0.132	0.199
-741.112	-26.706	0.060	-0.035
-740.098	-94.698	-0.173	0.047
-739.083	-169.440	-0.399	0.015
-738.069	-79.452	-0.186	-0.063
-737.054	-84.267	0.181	0.058
-736.039	-21.125	-0.301	-0.185
-735.025	656.197	0.047	-0.122
-734.010	28.363	0.359	-0.306
-732.996	170.960	0.222	-0.321
-731.981	-200.000	0.017	-0.146
-730.966	-66.065	0.145	0.058
-729.952	-200.000	-0.006	0.118
-728.937	119.802	-0.223	-0.279
-727.923	800.000	-0.023	0.079
-726.908	-154.345	0.088	0.006
-725.894	-117.311	0.310	-0.057
-724.879	-200.000	0.004	0.050
-723.864	-40.102	-0.218	-0.115
-722.850	-123.056	-0.112	-0.018
-721.835	-10.766	-0.262	0.174
-720.821	800.000	0.068	-0.258
-719.806	115.337	-0.070	0.087
-718.791	-80.273	0.215	0.072
-717.777	-38.845	-0.271	0.144
-716.762	-200.000	0.063	-0.381
-715.748	158.861	0.265	-0.371
-714.733	87.472	-0.023	-0.026
-713.718	-23.671	0.321	-0.194
-712.704	-97.622	-0.069	-0.018
-711.689	-200.000	0.008	-0.384
-710.675	-114.821	0.088	0.017
-709.660	655.923	0.015	-0.040
-708.645	-186.515	0.188	0.003
-707.631	-200.000	-0.242	-0.001
-706.616	800.000	-0.034	0.094
-705.602	-200.000	-0.049	0.375
-704.587	-200.000	-0.109	-0.773
-703.572	800.000	0.028	-0.091
-702.558	-200.000	-0.028	0.262
-701.543	195.492	-0.115	0.175
-700.529	-123.324	0.268	0.043
-699.514	58.804	0.185	-0.183
-698.499	-25.537	0.202	-0.120
-697.485	113.642	0.192	-0.235
-696.470	477.969	-0.054	-0.124
-695.456	204.419	-0.178	0.278
-694.441	-34.911	-0.174	-0.096
-693.426	-108.488	-0.087	0.019
-692.412	146.725	0.133	-0.180
-691.397	800.000	-0.064	-0.202
-690.383	68.552	-0.333	0.344
-689.368	800.000	0.103	-0.438
-688.354	-77.136	0.227	0.080
-687.339	-200.000	0.015	-0.237
-686.324	-82.310	-0.183	0.060
-685.310	443.805	0.104	-0.230
-684.295	-35.789	-0.067	-0.036
-683.281	398.601	0.087	-0.182
-682.266	7.520	-0.124	-0.093
-681.251	137.325	0.115	-0.151
-680.237	-200.000	-0.023	-0.622
-679.222	-200.000	0.011	-0.210
-678.208	698.415	-0.011	0.028
-677.193	30.615	0.070	0.060
-676.178	40.225	0.088	-0.080
-675.164	549.207	-0.131	0.315
-674.149	43.470	-0.056	-0.051
-673.135	97.815	0.153	0.177
-672.120	800.000	0.042	0.127
-671.105	70.342	-0.136	0.142
-670.091	27.984	0.445	-0.377
-669.076	-178.687	0.080	-0.002
-668.062	-200.000	-0.040	-0.193
-667.047	378.276	0.140	0.289
-666.032	-200.000	-0.039	0.459
-665.018	108.556	-0.221	-0.265
-664.003	-125.314	-0.206	0.032
-662.989	-200.000	0.061	-0.308
-661.974	185.284	-0.238	-0.355
-660.959	-164.422	-0.254	-0.012
-659.945	500.391	-0.044	0.102
-658.930	-200.000	-0.330	0.001
-657.916	-75.145	-0.069	-0.025
-656.901	-33.145	0.060	0.033
-655.886	64.818	-0.398	-0.403
-654.872	43.582	-0.106	0.098
-653.857	-200.000	0.070	0.394
-652.843	-37.566	-0.191	-0.102
-651.828	-200.000	-0.056	-0.265
-650.814	-170.248	0.136	-0.005
-649.799	7.006	0.165	0.123
-648.784	227.060	0.153	-0.250
-647.770	80.700	0.163	-0.176
-646.755	-58.624	0.114	-0.050
-645.741	-75.769	-0.212	-0.076
-644.726	-120.432	0.278	-0.047
-643.711	54.793	-0.290	0.281
-642.697	800.000	0.021	0.074
-641.682	146.279	-0.152	0.205
-640.668	-200.000	-0.001	-0.068
-639.653	111.413	0.167	-0.203
-638.638	-200.000	0.003	0.217
-637.624	-101.101	0.262	0.065
-636.609	-13.861	0.133	0.087
-635.595	-89.003	-0.258	-0.077
-634.580	26.717	0.151	-0.127
-633.565	581.922	-0.114	-0.280
-632.551	113.242	-0.118	-0.143
-631.536	48.013	-0.154	-0.144
-630.522	-73.892	0.076	-0.028
-629.507	39.877	-0.091	-0.082
-628.492	-136.395	0.216	0.025
-627.478	-78.902	-0.129	0.044
-626.463	-37.416	-0.466	-0.250
-625.449	340.368	0.147	-0.289
-624.434	-200.000	-0.009	0.073
-623.419	294.030	0.164	0.300
-622.405	186.771	-0.082	-0.123
-621.390	-200.000	-0.028	-0.231
-620.376	-200.000	-0.010	-0.409
-619.361	126.603	-0.365	-0.464
-618.346	-200.000	0.020	0.227
-617.332	142.938	0.054	-0.073
-616.317	-200.000	-0.016	0.248
-615.303	-200.000	-0.002	0.190
-614.288	262.932	0.049	-0.085
-613.273	197.954	0.070	0.107
-612.259	87.909	-0.187	0.209
-611.244	117.475	0.090	-0.111
-610.230	35.117	-0.224	-0.197
-609.215	-200.000	0.014	-0.174
-608.201	62.184	0.158	-0.158
-607.186	369.985	0.081	0.164
-606.171	-139.834	0.241	0.026
-605.157	225.531	0.300	-0.487
-604.142	-6.596	-0.152	0.104
-603.128	-200.000	0.020	-0.370
-602.113	207.695	-0.043	0.068
-601.098	-128.971	-0.214	0.030
-600.084	137.910	-0.112	-0.148
-599.069	243.438	0.062	-0.104
-598.055	-15.205	-0.180	0.116
-597.040	-93.785	-0.094	0.026
-596.025	338.430	0.049	-0.095
-595.011	45.861	0.042	-0.039
-593.996	347.495	0.064	0.126
-592.982	-138.156	0.219	-0.024
-591.967	-200.000	0.059	-0.357
-590.952	800.000	-0.051	-0.185
-589.938	433.743	0.132	-0.288
-588.923	48.445	-0.168	0.158
-587.909	-123.511	0.361	-0.058
-586.894	375.584	0.058	-0.118
-585.879	27.090	0.149	0.126
-584.865	-130.506	0.390	0.053
-583.850	-96.258	0.157	-0.042
-582.836	123.162	0.117	-0.147
-581.821	260.997	-0.063	-0.109
-580.806	101.656	0.114	-0.133
-579.792	-76.747	0.403	-0.142
-578.777	468.959	-0.083	-0.187
-577.763	-200.000	0.172	0.000
-576.748	104.005	0.327	0.386
-575.733	5.632	0.222	-0.165
-574.719	-139.838	-0.195	0.021
-573.704	-16.980	-0.202	0.128
-572.690	-200.000	0.066	-0.352
-571.675	-137.307	-0.105	0.012
-570.661	180.430	0.136	0.201
-569.646	-106.239	-0.086	-0.019
-568.631	-69.640	-0.080	0.031
-567.617	800.000	0.035	-0.131
-566.602	495.738	0.059	0.136
-565.588	20.113	-0.153	-0.123
-564.573	276.244	0.105	-0.187
-563.558	-200.000	0.049	-0.226
-562.544	38.071	0.108	-0.097
-561.529	344.061	-0.091	0.179
-560.515	-142.275	-0.134	0.013
-559.500	74.879	-0.120	-0.126
-558.485	-200.000	0.006	0.103
-557.471	800.000	-0.099	-0.379
-556.456	-200.000	0.031	-0.265
-555.442	520.140	0.247	0.579
-554.427	-170.419	-0.427	-0.015
-553.412	383.523	0.115	-0.237
-552.398	-200.000	-0.007	-0.164
-551.383	-200.000	-0.014	-0.181
-550.369	-138.154	-0.058	0.006
-549.354	-200.000	-0.044	0.253
-548.339	81.666	-0.184	0.199
-547.325	134.483	0.205	-0.266
-546.310	-200.000	0.057	0.305
-545.296	347.758	0.052	-0.102
-544.281	625.759	-0.043	-0.109
-543.266	-98.545	-0.270	0.069
-542.252	49.106	0.071	-0.067
-541.237	-92.263	0.292	0.083
-540.223	160.798	0.159	-0.223
-539.208	112.018	0.193	0.234
-538.193	541.153	-0.207	-0.493
-537.179	-76.839	-0.280	-0.098
-536.164	6.043	0.051	0.037
-535.150	58.978	-0.223	0.220
-534.135	800.000	0.090	0.286
-533.121	315.851	-0.025	-0.047
-532.106	-47.712	-0.230	0.112
-531.091	476.731	-0.027	-0.061
-530.077	299.859	-0.045	-0.083
-529.062	-200.000	-0.005	-0.241
-528.048	-68.855	0.195	0.075
-527.033	-46.200	0.235	-0.116
-526.018	800.000	-0.083	-0.340
-525.004	-23.043	-0.239	-0.144
-523.989	-86.134	0.611	0.189
-522.975	543.742	0.137	-0.327
-521.960	-53.709	-0.025	-0.011
-520.945	-200.000	0.023	0.117
-519.931	-200.000	0.011	-0.265
-518.916	-200.000	0.063	0.409
-517.902	-104.742	-0.326	0.075
-516.887	-24.313	0.206	0.123
-515.872	30.070	0.089	0.076
-514.858	-176.424	0.323	-0.008
-513.843	-90.620	-0.226	0.065
-512.829	800.000	0.032	0.129
-511.814	54.748	-0.209	0.202
-510.799	-130.723	-0.123	0.017
-509.785	200.851	-0.190	-0.292
-508.770	5.149	-0.163	0.120
-507.756	-200.000	-0.038	0.422
-506.741	-81.559	-0.172	0.057
-505.726	130.023	0.156	0.199
-504.712	184.619	-0.038	-0.056
-503.697	11.306	0.105	0.080
-502.683	-103.511	-0.383	0.090
-501.668	800.000	-0.038	-0.152
-500.653	-47.748	-0.150	-0.073
-499.639	110.037	-0.093	-0.112
-498.624	387.903	0.165	0.341
-497.610	-132.163	-0.268	-0.035
-496.595	44.550	0.090	-0.083
-495.581	87.281	-0.094	-0.104
-494.566	164.127	-0.130	0.182
-493.551	-75.560	-0.267	0.095
-492.537	800.000	-0.117	0.342
-491.522	313.792	-0.095	0.178
-490.508	-93.062	0.167	-0.047
-489.493	-164.728	0.098	-0.004
-488.478	800.000	0.085	0.266
-487.464	35.936	0.216	-0.190
-486.449	116.036	-0.071	-0.087
-485.435	-121.070	0.072	-0.012
-484.420	211.648	0.069	0.108
-483.405	-44.478	0.175	0.087
-482.391	-63.104	0.202	0.083
-481.376	800.000	-0.050	-0.164
-480.362	-61.346	-0.499	0.210
-479.347	-146.130	0.341	-0.030
-478.332	95.581	-0.069	-0.078
-477.318	-100.787	-0.298	0.073
-476.303	333.883	-0.076	-0.147
-475.289	74.774	-0.349	-0.367
-474.274	-200.000	-0.048	-0.374
-473.259	561.888	-0.137	0.331
-472.245	-57.953	0.228	-0.099
-471.230	-71.112	-0.134	-0.050
-470.216	-189.990	-0.127	0.001
-469.201	225.735	-0.101	-0.164
-468.186	99.054	-0.114	-0.131
-467.172	-48.922	-0.421	0.201
-466.157	-200.000	-0.028	0.150
-465.143	-200.000	0.048	0.328
-464.128	-37.352	-0.376	0.201
-463.113	460.399	0.137	0.305
-462.099	189.842	0.044	0.066
-461.084	83.497	0.223	-0.243
-460.070	91.773	-0.214	-0.240
-459.055	589.500	0.054	0.133
-458.040	280.663	0.110	0.196
-457.026	-200.000	0.362	-0.001
-456.011	-200.000	0.027	-0.321
-454.997	-200.000	0.018	-0.130
-453.982	-43.548	-0.233	0.117
-452.968	-110.038	-0.453	-0.095
-451.953	137.637	-0.220	0.287
-450.938	-200.000	-0.007	-0.139
-449.924	-200.000	0.037	0.165
-448.909	800.000	0.012	-0.039
-447.895	-200.000	0.001	-0.142
-446.880	-82.111	-0.333	0.108
-445.865	-98.165	-0.113	-0.029
-444.851	378.638	-0.078	0.159
-443.836	-133.549	0.260	-0.032
-442.822	49.701	-0.195	-0.183
-441.807	658.689	-0.126	0.322
-440.792	26.359	-0.045	-0.037
-439.778	-200.000	-0.048	0.215
-438.763	89.965	0.061	0.068
-437.749	-56.688	-0.149	0.066
-436.734	201.231	0.111	-0.171
-435.719	-51.331	-0.159	0.074
-434.705	195.422	0.164	0.249
-433.690	133.750	-0.090	-0.116
-432.676	87.267	0.092	0.101
-431.661	-29.578	0.053	-0.030
-430.646	-26.762	-0.183	0.107
-429.632	538.815	-0.017	-0.040
-428.617	-102.408	-0.352	0.084
-427.603	79.442	-0.132	0.142
-426.588	363.375	0.196	-0.392
-425.573	-200.000	0.029	-0.385
-424.559	-21.986	-0.100	0.060
-423.544	-73.576	0.228	0.083
-422.530	-200.000	0.056	-0.334
-421.515	800.000	0.049	-0.171
-420.500	-89.153	0.232	-0.068
-419.486	-200.000	-0.001	-0.219
-418.471	-200.000	0.007	0.283
-417.457	112.695	-0.132	0.159
-416.442	291.108	0.133	0.240
-415.428	-3.152	-0.326	0.226
-414.413	-106.381	0.128	-0.028
-413.398	52.954	-0.186	-0.177
-412.384	-137.588	-0.131	0.015
-411.369	496.316	-0.058	0.133
-410.355	-200.000	-0.050	0.313
-409.340	-104.975	-0.268	0.061
-408.325	-200.000	-0.032	-0.182
-407.311	-115.390	0.098	0.018
-406.296	-75.358	-0.199	-0.071
-405.282	-200.000	-0.026	0.131
-404.267	-200.000	0.071	0.387
-403.252	71.224	-0.225	0.232
-402.238	-31.899	0.230	0.129
-401.223	-200.000	0.047	-0.207
-400.209	800.000	-0.103	-0.330
-399.194	-200.000	-0.036	-0.367
-398.179	24.989	0.049	-0.040
-397.165	-135.418	0.139	0.017
-396.150	-115.546	0.023	0.004
-395.136	311.940	0.102	0.191
-394.121	103.869	0.073	0.085
-393.106	-57.192	0.407	-0.178
-392.092	-200.000	0.010	0.044
-391.077	800.000	-0.059	0.198
-390.063	193.781	0.113	-0.171
-389.048	201.987	0.024	-0.036
-388.033	104.255	0.186	0.218
-387.019	-146.250	0.188	-0.016
-386.004	-96.446	-0.278	-0.073
-384.990	-36.142	0.117	-0.063
-383.975	-51.054	-0.336	-0.157
-382.960	-200.000	-0.035	0.181
-381.946	-200.000	0.013	-0.329
-380.931	-70.144	-0.155	0.059
-379.917	-200.000	-0.051	0.401
-378.902	-59.179	-0.199	-0.085
-377.888	586.811	-0.059	-0.145
-376.873	-200.000	0.027	0.162
-375.858	5.668	0.206	-0.151
-374.844	95.670	0.073	0.083
-373.829	-130.994	0.209	-0.028
-372.815	360.342	0.107	-0.212
-371.800	98.942	-0.071	-0.082
-370.785	17.524	-0.192	0.152
-369.771	-191.261	0.157	-0.002
-368.756	-82.259	-0.338	0.110
-367.742	-169.588	0.114	-0.004
-366.727	116.818	0.024	-0.029
-365.712	-150.840	0.169	-0.013
-364.698	-78.042	0.054	0.018
-363.683	797.634	0.081	0.222
-362.669	264.530	0.059	0.102
-361.654	-67.167	-0.070	0.027
-360.639	-46.271	0.148	-0.072
-359.625	-89.916	0.193	-0.056
-358.610	-200.000	0.041	-0.307
-357.596	-47.736	0.199	-0.096
-356.581	-100.145	0.163	0.040
-355.566	182.146	-0.111	0.162
-354.552	-200.000	0.025	-0.157
-353.537	-86.240	0.101	0.031
-352.523	-200.000	-0.002	0.143
-351.508	9.064	0.272	-0.204
-350.493	191.890	0.159	0.239
-349.479	800.000	-0.141	0.535
-348.464	800.000	-0.072	0.242
-347.450	800.000	0.133	0.394
-346.435	23.923	0.175	-0.144
-345.420	-200.000	0.032	0.249
-344.406	198.330	-0.095	0.144
-343.391	19.852	0.137	-0.110
-342.377	684.412	0.054	0.141
-341.362	-77.443	-0.064	0.022
-340.348	250.482	-0.122	0.206
-339.333	-14.262	-0.112	0.072
-338.318	76.127	0.208	-0.218
-337.304	15.300	0.203	0.158
-336.289	800.000	0.083	-0.317
-335.275	100.608	-0.120	-0.138
-334.260	469.905	-0.226	-0.505
-333.245	-200.000	-0.002	-0.188
-332.231	-11.265	-0.330	0.216
-331.216	35.977	0.181	-0.158
-330.202	87.508	-0.347	0.382
-329.187	-182.021	0.378	-0.007
-328.172	-200.000	-0.040	-0.286
-327.158	63.571	-0.047	-0.047
-326.143	-200.000	0.025	-0.122
-325.129	-65.592	0.275	0.110
-324.114	138.300	-0.082	0.107
-323.099	-200.000	-0.001	0.007
-322.085	-177.987	0.216	-0.005
-321.070	-70.953	0.140	0.052
-320.056	-91.398	-0.339	-0.096
-319.041	273.196	-0.095	-0.167
-318.026	279.296	0.062	-0.110
-317.012	-200.000	0.009	-0.179
-315.997	-200.000	0.010	0.322
-314.983	-123.218	0.188	-0.030
-313.968	25.408	0.297	0.245
-312.953	-200.000	0.055	-0.328
-311.939	-17.191	-0.190	-0.119
-310.924	309.559	0.095	0.177
-309.910	105.977	-0.022	-0.026
-308.895	175.297	-0.075	0.108
-307.880	-7.009	0.128	0.086
-306.866	250.548	0.117	-0.198
-305.851	-200.000	-0.011	0.060
-304.837	537.188	-0.081	-0.192
-303.822	166.287	-0.151	-0.212
-302.807	-15.795	-0.321	0.203
-301.793	-23.092	-0.059	-0.035
-300.778	-200.000	-0.007	0.164
-299.764	413.430	0.054	-0.113
-298.749	52.558	0.180	-0.171
-297.735	-73.327	-0.025	0.009
-296.720	681.522	-0.131	0.340
-295.705	800.000	-0.105	-0.353
-294.691	-200.000	0.053	0.241
-293.676	392.231	0.087	0.180
-292.662	-88.992	-0.132	0.039
-291.647	16.057	0.122	0.096
-290.632	-200.000	0.015	-0.103
-289.618	800.000	0.071	0.264
-288.603	-91.316	-0.280	-0.079
-287.589	-73.288	0.319	-0.116
-286.574	-50.668	0.292	-0.136
-285.559	191.300	-0.084	0.126
-284.545	-200.000	-0.010	0.064
-283.530	152.354	0.127	0.171
-282.516	39.181	-0.161	0.142
-281.501	257.266	-0.210	0.358
-280.486	-49.776	-0.223	0.105
-279.472	-4.331	-0.312	0.214
-278.457	23.180	-0.320	0.260
-277.443	530.284	-0.043	-0.100
-276.428	800.000	0.073	0.290
-275.413	-108.704	0.158	0.034
-274.399	279.111	-0.089	-0.157
-273.384	100.271	0.180	-0.207
-272.370	281.664	-0.060	-0.106
-271.355	-17.728	0.209	-0.130
-270.340	191.783	-0.115	-0.171
-269.326	-22.297	0.179	0.108
-268.311	-106.162	-0.051	0.011
-267.297	-200.000	-0.025	-0.127
-266.282	-200.000	-0.005	0.434
-265.267	441.236	0.131	-0.283
-264.253	9.105	-0.308	-0.231
-263.238	-79.890	-0.478	0.159
-262.224	330.439	0.038	0.073
-261.209	9.737	0.167	-0.125
-260.195	800.000	-0.075	-0.301
-259.180	751.661	0.096	-0.257
-258.165	-200.000	0.032	0.412
-257.151	-127.344	-0.261	-0.038
-256.136	93.942	0.207	-0.232
-255.122	118.106	-0.112	-0.137
-254.107	-94.975	0.257	-0.069
-253.092	26.566	0.134	0.111
-252.078	-177.871	0.355	-0.008
-251.063	800.000	-0.100	-0.393
-250.049	-200.000	-0.012	-0.120
-249.034	-85.359	0.308	0.095
-248.019	330.444	-0.128	-0.244
-247.005	-200.000	-0.013	0.062
-245.990	-24.846	-0.348	0.205
-244.976	603.819	0.100	0.245
-243.961	309.276	-0.112	-0.206
-242.946	130.372	0.136	0.173
-241.932	800.000	0.092	-0.361
-240.917	-25.952	0.195	-0.114
-239.903	262.452	-0.094	-0.162
-238.888	-72.992	0.146	-0.053
-237.873	264.516	0.106	-0.183
-236.859	338.282	0.110	-0.212
-235.844	800.000	0.008	-0.024
-234.830	7.177	-0.125	0.092
-233.815	-200.000	-0.101	0.462
-232.800	0.087	-0.067	-0.047
-231.786	-138.693	0.404	0.044
-230.771	-143.215	0.265	-0.025
-229.757	466.122	-0.065	0.145
-228.742	107.072	0.084	0.098
-227.727	-200.000	0.011	-0.163
-226.713	240.112	-0.137	-0.226
-225.698	141.027	0.124	0.162
-224.684	-200.000	0.000	0.008
-223.669	160.796	-0.162	0.224
-222.655	435.006	-0.039	-0.084
-221.640	-36.874	-0.356	-0.189
-220.625	188.735	0.111	0.163
-219.611	175.431	0.093	0.133
-218.596	118.315	0.068	0.083
-217.582	451.678	0.048	0.104
-216.567	-146.403	0.393	0.034
-215.552	159.253	-0.029	-0.039
-214.538	159.232	-0.249	0.343
-213.523	-63.560	0.112	0.045
-212.509	-200.000	0.016	0.231
-211.494	800.000	-0.047	0.175
-210.479	231.371	0.062	-0.101
-209.465	-200.000	-0.003	0.540
-208.450	28.409	0.239	-0.200
-207.436	-174.532	0.127	0.004
-206.421	195.293	0.030	0.045
-205.406	-200.000	0.007	0.180
-204.392	210.048	0.095	0.148
-203.377	-200.000	0.029	0.189
-202.363	417.033	-0.054	0.113
-201.348	-200.000	-0.047	-0.322
-200.333	-56.476	0.037	-0.016
-199.319	-200.000	0.027	0.120
-198.304	800.000	0.052	0.183
-197.290	361.222	-0.036	-0.072
-196.275	425.386	0.097	0.206
-195.260	-159.161	0.131	0.007
-194.246	800.000	-0.085	-0.310
-193.231	-200.000	-0.022	0.200
-192.217	9.869	-0.194	0.145
-191.202	169.418	0.051	0.072
-190.187	-200.000	0.012	-0.168
-189.173	669.579	-0.126	-0.323
-188.158	-7.332	0.094	-0.063
-187.144	-7.482	-0.113	-0.075
-186.129	-11.746	-0.160	-0.104
-185.114	-200.000	0.034	-0.177
-184.100	800.000	-0.120	-0.366
-183.085	89.019	0.105	0.116
-182.071	-200.000	-0.022	0.201
-181.056	-73.723	0.175	0.063
-180.042	-92.275	-0.061	-0.017
-179.027	-200.000	0.041	-0.179
-178.012	35.821	-0.065	0.056
-176.998	-134.090	-0.230	-0.028
-175.983	-200.000	-0.016	0.230
-174.969	64.955	0.232	-0.231
-173.954	-21.575	-0.363	0.218
-172.939	-200.000	-0.024	-0.167
-171.925	-42.558	-0.523	-0.263
-170.910	-200.000	-0.048	0.308
-169.896	95.057	0.249	0.280
-168.881	-50.588	0.205	0.096
-167.866	-79.764	0.381	-0.126
-166.852	800.000	-0.034	0.122
-165.837	-200.000	0.004	0.130
-164.823	800.000	0.051	-0.201
-163.808	-78.229	-0.024	0.008
-162.793	-90.159	-0.136	0.039
-161.779	15.071	-0.081	0.062
-160.764	-200.000	0.067	0.473
-159.750	800.000	-0.082	-0.314
-158.735	87.170	0.020	0.022
-157.720	8.180	0.214	-0.158
-156.706	386.526	0.057	0.116
-155.691	-42.402	-0.163	-0.082
-154.677	800.000	-0.081	0.300
-153.662	157.508	-0.133	-0.181
-152.647	-132.946	-0.267	-0.034
-151.633	9.752	0.462	0.345
-150.618	-48.714	-0.278	-0.132
-149.604	-200.000	-0.046	0.257
-148.589	-173.489	-0.219	-0.007
-147.574	137.937	0.085	-0.110
-146.560	800.000	0.026	-0.110
-145.545	-82.431	-0.437	-0.140
-144.531	-200.000	-0.019	0.402
-143.516	-133.492	-0.095	-0.012
-142.502	-4.145	0.162	0.111
-141.487	-69.328	0.062	-0.023
-140.472	-97.844	0.244	0.062
-139.458	-23.067	-0.289	0.171
-138.443	-80.822	-0.170	0.056
-137.429	-200.000	-0.016	-0.286
-136.414	800.000	0.100	0.294
-135.399	-73.900	-0.303	0.108
-134.385	32.237	-0.149	0.127
-133.370	556.075	0.012	-0.029
-132.356	-152.156	0.366	0.026
-131.341	-90.070	-0.239	-0.069
-130.326	26.689	-0.164	-0.135
-129.312	58.401	0.086	-0.083
-128.297	-200.000	-0.019	-0.282
-127.283	-75.989	-0.094	0.033
-126.268	-40.440	-0.067	0.034
-125.253	402.127	0.223	-0.461
-124.239	-3.116	-0.220	-0.151
-123.224	-117.484	0.251	-0.045
-122.210	173.735	0.047	0.067
-121.195	-200.000	0.000	0.077
-120.180	12.359	-0.241	-0.183
-119.166	-200.000	0.031	-0.290
-118.151	-123.070	0.301	0.048
-117.137	-110.471	-0.118	-0.024
-116.122	116.481	-0.138	-0.166
-115.107	170.124	0.154	0.218
-114.093	183.047	-0.121	0.175
-113.078	-14.735	0.224	-0.142
-112.064	-200.000	0.011	-0.061
-111.049	-200.000	-0.069	-0.314
-110.034	469.386	-0.120	-0.266
-109.020	-34.468	-0.200	-0.108
-108.005	800.000	0.069	0.250
-106.991	-47.684	-0.083	-0.040
-105.976	129.930	0.111	0.139
-104.962	-41.635	0.090	-0.046
-103.947	417.695	-0.123	-0.259
-102.932	800.000	0.081	0.311
-101.918	-1.045	-0.163	0.114
-100.903	800.000	-0.114	0.325
-99.889	-130.155	0.310	0.042
-98.874	800.000	-0.025	-0.094
-97.859	648.191	0.182	0.458
-96.845	6.416	-0.055	0.040
-95.830	193.227	0.214	0.319
-94.816	-143.510	-0.072	0.007
-93.801	291.314	-0.059	0.106
-92.786	-87.409	0.246	-0.073
-91.772	-97.735	-0.241	-0.061
-90.757	-37.458	0.009	-0.005
-89.743	32.146	0.299	-0.254
-88.728	324.754	-0.065	-0.122
-87.713	97.910	-0.165	-0.187
-86.699	445.228	0.142	0.307
-85.684	-109.617	0.102	0.021
-84.670	-18.738	-0.279	0.171
-83.655	63.385	0.133	-0.131
-82.640	10.196	-0.374	-0.279
-81.626	513.051	-0.113	-0.260
-80.611	-200.000	-0.013	-0.125
-79.597	-200.000	0.016	-0.087
-78.582	228.307	-0.093	-0.148
-77.567	-200.000	0.011	0.119
-76.553	177.782	0.126	-0.180
-75.538	44.050	0.160	-0.144
-74.524	-168.593	-0.304	0.011
-73.509	40.726	0.134	-0.119
-72.494	315.012	0.051	-0.094
-71.480	800.000	-0.054	0.210
-70.465	-9.064	-0.225	0.148
-69.451	251.543	0.152	0.254
-68.436	148.852	0.037	-0.049
-67.422	-200.000	-0.010	0.115
-66.407	-195.892	0.225	0.002
-65.392	-139.802	0.074	0.008
-64.378	124.447	0.262	0.324
-63.363	714.155	-0.031	0.080
-62.349	-28.018	0.172	0.098
-61.334	174.392	-0.765	-1.087
-60.319	214.398	0.331	0.515
-59.305	235.156	-0.478	-0.775
-58.290	800.000	0.346	1.005
-57.276	800.000	0.520	1.796
-56.261	-200.000	98.131	591.894
-55.246	527.605	1392.904	3225.962
-54.232	160.544	2560.188	3509.244
-53.217	112.322	2133.022	2533.714
-52.203	43.260	1593.715	1429.320
-51.188	35.160	1330.172	1144.760
-50.173	31.956	1288.554	1090.320
-49.159	54.990	1337.399	1268.455
-48.144	56.512	1354.186	1293.322
-47.130	35.387	1312.093	1130.365
-46.115	31.785	1294.776	1094.409
-45.100	31.613	1289.571	1088.964
-44.086	31.648	1287.099	1087.040
-43.071	31.619	1284.965	1085.027
-42.057	31.386	1283.133	1082.085
-41.042	31.432	1281.538	1080.964
-40.027	31.550	1279.953	1080.268
-39.013	31.475	1278.341	1078.430
-37.998	31.568	1276.244	1077.152
-36.984	31.666	1274.731	1076.397
-35.969	31.684	1272.627	1074.683
-34.954	31.684	1271.105	1073.352
-33.940	31.728	1269.355	1072.083
-32.925	31.654	1268.839	1071.181
-31.911	31.696	1267.080	1069.895
-30.896	31.714	1265.895	1068.957
-29.881	31.667	1264.871	1067.781
-28.867	31.783	1262.808	1066.659
-27.852	31.755	1261.588	1065.422
-26.838	31.682	1260.285	1063.865
-25.823	31.670	1258.707	1062.424
-24.809	31.743	1257.209	1061.531
-23.794	31.717	1256.324	1060.594
-22.779	31.658	1254.755	1058.895
-21.765	31.659	1253.413	1057.729
-20.750	31.739	1251.987	1056.933
-19.736	31.594	1251.014	1055.253
-18.721	31.654	1249.680	1054.425
-17.706	31.589	1248.357	1052.901
-16.692	31.661	1246.959	1052.084
-15.677	31.562	1246.406	1051.016
-14.663	31.650	1245.175	1050.431
-13.648	31.551	1244.162	1048.983
-12.633	31.528	1243.409	1048.176
-11.619	31.495	1242.328	1047.039
-10.604	31.608	1241.558	1046.979
-9.590	31.571	1240.512	1045.848
-8.575	31.417	1240.312	1044.777
-7.560	31.447	1239.304	1044.053
-6.546	31.595	1238.161	1043.878
-5.531	31.623	1236.951	1042.971
-4.517	31.590	1236.476	1042.345
-3.502	31.526	1235.926	1041.482
-2.487	31.631	1234.136	1040.518
-1.473	31.453	1230.530	1036.449
-0.458	29.906	1215.509	1015.277
0.556	24.366	1198.273	977.109
1.571	20.499	1203.294	959.803
2.586	19.601	1217.534	966.059
3.600	19.247	1206.904	955.577
4.615	14.142	1135.174	872.006
5.629	4.912	1058.652	767.841
6.644	0.395	1038.555	731.328
7.659	-0.037	1036.205	727.519
8.673	0.007	1034.733	726.632
9.688	-0.164	1034.449	725.544
10.702	0.204	1032.105	725.606
11.717	5.581	1039.175	756.547
12.731	14.256	1050.609	807.026
13.746	17.723	1053.745	826.193
14.761	16.979	1052.411	821.474
15.775	15.875	1050.225	814.355
16.790	14.845	1048.071	807.638
17.804	14.191	1047.007	803.589
18.819	14.035	1045.172	801.357
19.834	13.600	1044.730	798.851
20.848	13.287	1044.272	796.921
21.863	13.203	1043.100	795.555
22.877	13.087	1042.182	794.228
23.892	12.980	1041.293	792.965
24.907	12.934	1040.748	792.258
25.921	13.029	1040.193	792.220
26.936	13.081	1039.130	791.589
27.950	13.196	1038.131	791.309
28.965	13.155	1037.461	790.531
29.980	13.136	1036.123	789.353
30.994	13.190	1035.059	788.728
32.009	13.229	1033.916	787.975
33.023	13.110	1033.514	787.033
34.038	13.140	1032.137	786.055
35.053	13.090	1031.560	785.309
36.067	13.133	1030.402	784.561
37.082	13.229	1029.416	784.197
38.096	13.169	1028.919	783.467
39.111	13.108	1028.316	782.649
40.126	12.992	1026.894	780.949
41.140	12.948	1025.758	779.805
42.155	12.934	1024.839	778.972
43.169	13.022	1023.819	778.546
44.184	12.845	1023.082	777.082
45.199	12.940	1021.689	776.403
46.213	12.931	1021.063	775.815
47.228	12.993	1019.938	775.184
48.242	12.935	1019.132	774.227
49.257	13.040	1017.528	773.432
50.271	13.101	1017.025	773.269
51.286	13.079	1016.482	772.685
52.301	13.229	1014.791	772.032
53.315	13.142	1013.726	770.749
54.330	12.990	1013.143	769.525
55.344	13.050	1012.522	769.268
56.359	12.935	1011.629	767.986
57.374	12.963	1010.737	767.370
58.388	12.960	1009.692	766.496
59.403	12.815	1009.111	765.311
60.417	12.902	1008.456	765.152
61.432	12.945	1007.828	764.808
62.447	12.834	1006.607	763.298
63.461	12.938	1005.828	763.123
64.476	12.895	1004.750	762.039
65.490	12.915	1004.084	761.559
66.505	12.916	1003.503	761.052
67.520	12.960	1003.184	760.947
68.534	12.896	1002.356	759.957
69.549	12.869	1001.654	759.234
70.563	12.880	1000.973	758.700
71.578	12.875	1000.337	758.130
72.593	12.789	998.729	756.449
73.607	12.853	998.395	756.420
74.622	12.695	998.648	755.822
75.636	12.957	996.801	755.558
76.651	12.779	996.759	754.644
77.666	12.893	996.179	754.660
78.680	12.828	995.592	753.850
79.695	12.799	994.997	753.201
80.709	12.957	994.460	753.447
81.724	12.984	993.543	752.809
82.739	13.008	992.743	752.249
83.753	13.010	991.794	751.469
84.768	13.216	990.902	751.664
85.782	13.281	989.978	751.193
86.797	13.113	989.112	749.708
87.812	13.212	988.113	749.331
88.826	12.979	987.514	747.757
89.841	13.060	986.885	747.579
90.855	13.123	985.778	746.961
91.870	13.187	985.205	746.749
92.884	13.124	984.492	745.858
93.899	13.234	983.172	745.291
94.914	13.292	982.706	745.132
95.928	13.192	981.836	743.956
96.943	13.198	981.121	743.374
97.957	13.160	980.300	742.517
98.972	13.038	979.504	741.298
99.987	13.154	978.417	740.933
101.001	13.202	977.469	740.363
102.016	13.110	977.027	739.549
103.030	13.077	976.288	738.776
104.045	13.257	974.892	738.462
105.060	13.165	974.333	737.562
106.074	13.118	973.631	736.755
107.089	13.057	972.814	735.798
108.103	13.039	971.476	734.642
109.118	13.062	970.720	734.109
110.133	13.015	969.898	733.212
111.147	12.965	969.394	732.547
112.162	12.984	968.259	731.707
113.176	13.137	967.445	731.705
114.191	13.108	966.888	731.091
115.206	13.139	966.405	730.795
116.220	13.049	965.243	729.457
117.235	13.218	964.121	729.291
118.249	13.080	963.880	728.432
119.264	13.145	962.878	727.900
120.279	13.152	962.093	727.272
121.293	13.036	961.125	725.963
122.308	12.984	960.298	725.049
123.322	13.038	959.311	724.475
124.337	13.073	958.201	723.726
125.352	12.925	957.466	722.460
126.366	13.046	956.496	722.194
127.381	13.027	955.658	721.415
128.395	13.199	954.553	721.267
129.410	13.158	953.714	720.391
130.424	13.150	953.024	719.768
131.439	13.243	951.996	719.336
132.454	13.185	951.249	718.453
133.468	13.216	951.047	718.372
134.483	13.125	949.888	717.041
135.497	13.185	948.993	716.561
136.512	13.170	948.363	715.955
137.527	13.129	947.587	715.128
138.541	13.187	947.004	714.875
139.556	13.226	945.928	714.168
140.570	13.169	945.412	713.473
141.585	13.257	944.457	713.069
142.600	13.281	943.996	712.760
143.614	13.273	943.054	711.952
144.629	13.299	942.130	711.303
145.643	13.228	941.424	710.400
146.658	13.341	939.773	709.575
147.673	13.301	939.415	709.074
148.687	13.196	938.841	708.126
149.702	13.187	937.765	707.212
150.716	13.255	937.157	706.981
151.731	13.164	936.564	706.082
152.746	13.302	935.449	705.770
153.760	13.081	935.652	704.918
154.775	13.269	934.623	704.880
155.789	13.320	934.047	704.602
156.804	13.397	933.323	704.319
157.819	13.412	932.661	703.822
158.833	13.429	931.965	703.307
159.848	13.362	931.139	702.338
160.862	13.368	930.103	701.521
161.877	13.339	929.280	700.716
162.892	13.416	928.185	700.152
163.906	13.248	927.296	698.710
164.921	13.340	926.717	698.601
165.935	13.384	925.623	697.901
166.950	13.393	924.632	697.127
167.964	13.478	923.970	696.925
168.979	13.425	922.988	695.901
169.994	13.456	922.072	695.280
171.008	13.517	921.626	695.137
172.023	13.334	921.435	694.161
173.037	13.525	920.435	694.150
174.052	13.553	919.652	693.612
175.067	13.465	918.803	692.546
176.081	13.365	918.387	691.752
177.096	13.407	917.594	691.270
178.110	13.356	917.379	690.833
179.125	13.428	916.845	690.670
180.140	13.491	916.618	690.701
181.154	13.484	915.787	689.983
182.169	13.533	915.086	689.600
183.183	13.650	914.485	689.571
184.198	13.728	913.961	689.441
185.213	13.717	913.110	688.691
186.227	13.653	912.685	688.044
187.242	13.763	912.257	688.115
188.256	13.828	911.192	687.522
189.271	13.722	910.822	686.744
190.286	13.501	910.335	685.398
191.300	13.510	909.018	684.386
192.315	13.443	908.634	683.757
193.329	13.367	908.084	682.969
194.344	13.509	907.459	683.025
195.359	13.643	906.639	682.901
196.373	13.780	905.778	682.756
197.388	13.732	905.952	682.628
198.402	13.805	905.453	682.493
199.417	13.848	904.780	682.101
200.432	13.940	904.290	682.049
201.446	13.986	903.688	681.721
202.461	14.019	903.364	681.556
203.475	14.066	902.444	680.990
204.490	14.019	901.759	680.223
205.504	13.833	901.130	678.928
206.519	13.897	900.274	678.482
207.534	13.868	900.094	678.171
208.548	13.952	898.957	677.596
209.563	14.005	898.347	677.293
210.577	13.930	897.825	676.535
211.592	14.046	896.983	676.310
212.607	14.078	896.447	675.976
213.621	14.022	895.582	675.035
214.636	14.093	895.149	674.940
215.650	14.081	894.655	674.458
216.665	14.112	893.565	673.701
217.680	14.259	892.955	673.777
218.694	14.288	892.171	673.244
219.709	14.072	892.018	672.196
220.723	14.208	891.185	672.060
221.738	14.158	890.851	671.546
222.753	14.182	890.470	671.297
223.767	14.206	889.343	670.481
224.782	14.276	888.877	670.354
225.796	14.396	888.133	670.216
226.811	14.208	888.051	669.337
227.826	14.230	886.695	668.345
228.840	14.212	886.391	667.985
229.855	14.264	885.391	667.383
230.869	14.241	884.893	666.855
231.884	14.325	884.326	666.703
232.899	14.194	883.649	665.610
233.913	14.122	882.755	664.590
234.928	14.264	881.759	664.350
235.942	14.249	881.270	663.864
236.957	14.227	880.963	663.486
237.972	14.224	880.402	662.992
238.986	14.178	879.861	662.341
240.001	14.214	879.346	662.038
241.015	14.225	878.798	661.613
242.030	14.251	878.071	661.109
243.045	14.351	877.495	661.015
244.059	14.476	876.520	660.715
245.074	14.396	876.274	660.155
246.088	14.469	875.463	659.776
247.103	14.453	875.185	659.444
248.117	14.676	874.425	659.695
249.132	14.664	873.628	658.987
250.147	14.686	873.128	658.638
251.161	14.843	872.452	658.689
252.176	14.643	871.965	657.477
253.190	14.723	871.239	657.184
254.205	14.764	870.990	657.102
255.220	14.718	869.996	656.113
256.234	14.912	869.129	656.162
257.249	14.819	868.773	655.469
258.263	14.696	868.249	654.534
259.278	14.694	867.538	653.931
260.293	14.941	866.847	654.321
261.307	14.819	866.452	653.488
262.322	14.987	865.572	653.421
263.336	14.873	865.221	652.653
264.351	15.081	864.075	652.541
265.366	14.945	863.780	651.732
266.380	14.922	863.153	651.111
267.395	14.929	862.440	650.541
268.409	15.044	861.454	650.189
269.424	14.961	860.792	649.309
270.439	15.025	859.908	648.834
271.453	14.955	859.744	648.381
272.468	14.883	858.883	647.395
273.482	14.870	858.695	647.144
274.497	14.885	857.995	646.618
275.512	14.997	857.111	646.330
276.526	15.025	856.903	646.220
277.541	15.168	856.325	646.279
278.555	15.110	855.700	645.529
279.570	15.210	855.025	645.346
280.585	15.053	854.472	644.267
281.599	15.108	853.423	643.633
282.614	15.189	852.895	643.488
283.628	15.174	852.384	642.987
284.643	15.167	851.970	642.592
285.657	15.037	851.158	641.424
286.672	15.177	850.248	641.218
287.687	15.183	850.222	641.165
288.701	15.198	849.420	640.559
289.716	15.276	848.822	640.352
290.730	15.164	848.438	639.578
291.745	15.227	847.692	639.199
292.760	15.358	847.270	639.322
293.774	15.410	846.801	639.110
294.789	15.358	845.972	638.231
295.803	15.332	845.126	637.437
296.818	15.409	844.608	637.281
297.833	15.306	844.025	636.395
298.847	15.221	843.577	635.678
299.862	15.416	842.483	635.538
300.876	15.382	842.375	635.268
301.891	15.487	841.576	635.008
302.906	15.495	841.462	634.897
303.920	15.404	841.274	634.355
304.935	15.526	840.271	634.001
305.949	15.641	839.477	633.782
306.964	15.638	838.813	633.212
307.979	15.711	838.020	632.832
308.993	15.467	838.124	631.936
310.008	15.475	837.650	631.554
311.022	15.548	836.974	631.262
312.037	15.639	836.544	631.225
313.052	15.426	836.186	630.099
314.066	15.635	834.719	629.719
315.081	15.667	834.768	629.820
316.095	15.508	834.198	628.739
317.110	15.601	833.099	628.205
318.125	15.758	832.563	628.331
319.139	15.702	832.416	627.956
320.154	15.554	832.056	627.073
321.168	15.660	831.234	626.796
322.183	15.863	830.977	627.303
323.197	15.631	830.684	626.163
324.212	15.792	830.190	626.332
325.227	15.718	829.025	625.122
326.241	15.690	829.115	625.032
327.256	15.687	828.278	624.333
328.270	15.553	827.666	623.323
329.285	15.644	827.581	623.540
330.300	15.870	826.227	623.301
331.314	15.740	825.976	622.574
332.329	15.817	826.000	622.825
333.343	15.826	825.450	622.385
334.358	15.772	825.237	621.971
335.373	15.818	824.626	621.626
336.387	15.999	824.225	621.937
337.402	15.833	823.992	621.093
338.416	15.966	823.565	621.207
339.431	16.099	822.924	621.158
340.446	16.051	822.419	620.546
341.460	15.924	822.417	620.023
342.475	16.165	821.524	620.180
343.489	16.038	821.431	619.587
344.504	16.287	820.431	619.691
345.519	16.314	820.183	619.549
346.533	16.201	819.576	618.623
347.548	16.090	819.262	617.922
348.562	16.099	819.203	617.859
349.577	16.119	818.267	617.169
350.592	16.158	817.534	616.705
351.606	16.117	816.815	615.959
352.621	16.073	816.451	615.471
353.635	16.002	815.756	614.630
354.650	16.111	815.152	614.520
355.665	16.330	814.029	614.416
356.679	16.244	813.911	613.960
357.694	16.186	813.449	613.346
358.708	16.165	812.748	612.687
359.723	16.331	812.200	612.823
360.738	16.337	811.423	612.202
361.752	16.211	811.054	611.412
362.767	16.231	810.887	611.306
363.781	16.511	809.710	611.378
364.796	16.396	809.638	610.854
365.810	16.400	809.379	610.616
366.825	16.507	808.711	610.445
367.840	16.556	808.452	610.374
368.854	16.483	807.810	609.572
369.869	16.429	807.737	609.268
370.883	16.474	807.000	608.820
371.898	16.537	806.902	608.919
372.913	16.388	806.447	607.984
373.927	16.610	805.516	608.027
374.942	16.617	805.332	607.860
375.956	16.639	804.732	607.433
376.971	16.714	804.132	607.196
377.986	16.741	803.822	607.003
379.000	16.672	803.639	606.565
380.015	16.752	802.955	606.280
381.029	16.793	802.605	606.109
382.044	16.874	801.790	605.729
383.059	16.782	801.232	604.928
384.073	16.878	800.513	604.673
385.088	16.667	800.112	603.563
386.102	16.701	799.724	603.341
387.117	16.786	798.928	602.986
388.132	16.772	798.469	602.540
389.146	16.878	797.880	602.417
390.161	16.689	797.556	601.447
391.175	16.842	797.087	601.585
392.190	16.776	796.842	601.113
393.205	16.895	796.102	600.924
394.219	16.851	795.642	600.365
395.234	16.755	795.512	599.873
396.248	16.579	795.394	599.107
397.263	16.690	794.666	598.900
398.278	16.794	794.300	598.939
399.292	16.912	793.636	598.802
400.307	16.697	793.528	597.911
401.321	16.934	792.919	598.235
402.336	17.021	792.093	597.863
403.350	16.821	791.860	596.931
404.365	16.948	791.573	597.108
405.380	17.058	790.892	596.928
406.394	17.093	790.215	596.487
407.409	17.166	790.054	596.571
408.423	17.135	790.175	596.501
409.438	17.074	789.647	595.835
410.453	17.139	789.124	595.613
411.467	17.138	788.531	595.111
412.482	17.298	788.147	595.328
413.496	17.340	787.755	595.128
414.511	17.193	787.765	594.566
415.526	17.412	787.185	594.843
416.540	17.297	786.778	594.083
417.555	17.386	786.041	593.783
418.569	17.212	785.810	592.948
419.584	17.237	785.584	592.812
420.599	17.243	784.996	592.338
421.613	108.135	1288.744	1461.293
422.628	92.614	1362.116	1461.380
