DTS Sentinel unit serial number:	SN413079Multiplexer serial number:	ORYXHardware model number:	OX4-SRSoftware version number:	ORYX F/W v4.00 Oryx Data Collector v3.7.2.0data status	okinstallation	princeton_trtdifferential loss correction	single-endedforward channel	channel 1reverse channel	N/Adate	2019/09/17time	06:38:35forward acquisition time	60.00reverse acquisition time	0.00gamma	496.2192k internal	0.2328k external	0.2328temperature offset calibration	0.9965default loss term (dB/km)	0.3790temperature slope calibration	1.0000multiplexer offset coefficient	1.0000multiplexer slope coefficient	1.0000fibre end	0.00T internal ref (°C)	27.98T ext. ref 1 (°C)	0.12T ext. ref 2 (°C)	21.35length (m)	temperature (°C)	Stokes	anti-Stokes-747.200	-119.832	-0.257	-0.045
-746.185	-58.002	-0.079	0.035
-745.171	348.614	-0.066	-0.131
-744.156	-200.000	-0.135	0.692
-743.142	-58.166	0.056	0.025
-742.127	-200.000	0.008	0.279
-741.112	289.105	-0.209	0.381
-740.098	-157.062	-0.380	-0.023
-739.083	-35.305	0.317	-0.174
-738.069	-141.011	-0.315	-0.033
-737.054	102.016	-0.163	-0.191
-736.039	-200.000	0.023	0.273
-735.025	39.195	0.153	0.138
-734.010	90.492	-0.219	-0.247
-732.996	102.332	-0.344	-0.405
-731.981	-115.028	0.127	0.024
-730.966	-200.000	-0.008	0.275
-729.952	-18.399	-0.271	0.170
-728.937	-200.000	0.014	-0.146
-727.923	-83.366	-0.394	-0.127
-726.908	50.158	-0.106	-0.101
-725.894	53.898	0.185	-0.179
-724.879	-119.362	-0.148	-0.026
-723.864	126.146	-0.046	-0.059
-722.850	800.000	-0.061	-0.212
-721.835	-200.000	-0.016	-0.136
-720.821	-200.000	-0.031	0.267
-719.806	52.396	-0.218	-0.209
-718.791	800.000	0.036	0.106
-717.777	-65.640	0.225	0.091
-716.762	-200.000	-0.020	-0.298
-715.748	-116.440	0.219	-0.041
-714.733	-59.956	-0.251	-0.108
-713.718	33.682	-0.102	-0.089
-712.704	800.000	-0.036	-0.124
-711.689	800.000	-0.084	0.241
-710.675	-200.000	0.012	-0.172
-709.660	-2.628	-0.175	0.123
-708.645	-200.000	-0.011	-0.179
-707.631	118.180	-0.031	0.038
-706.616	-136.129	-0.147	0.017
-705.602	-100.200	0.206	-0.052
-704.587	800.000	-0.125	-0.356
-703.572	-200.000	0.000	-0.002
-702.558	4.514	0.175	0.129
-701.543	114.572	0.185	0.227
-700.529	67.281	0.229	-0.235
-699.514	-200.000	0.001	-0.242
-698.499	-58.513	0.039	0.017
-697.485	-96.675	-0.162	0.043
-696.470	376.735	0.086	0.177
-695.456	-200.000	-0.036	-0.473
-694.441	800.000	-0.046	0.175
-693.426	-200.000	-0.002	0.287
-692.412	800.000	0.098	-0.293
-691.397	364.202	-0.102	-0.207
-690.383	507.821	-0.046	-0.106
-689.368	150.744	0.145	-0.198
-688.354	-3.983	-0.306	0.213
-687.339	-200.000	0.015	-0.189
-686.324	-200.000	-0.016	0.170
-685.310	-122.606	0.360	-0.059
-684.295	-116.628	-0.165	-0.031
-683.281	524.605	-0.053	-0.125
-682.266	4.893	-0.127	-0.094
-681.251	492.635	-0.075	-0.173
-680.237	-129.880	0.082	-0.011
-679.222	14.440	0.257	0.202
-678.208	-181.139	-0.555	0.011
-677.193	-101.311	-0.255	0.063
-676.178	329.198	-0.062	-0.120
-675.164	-77.407	-0.145	0.051
-674.149	-121.636	0.182	-0.030
-673.135	-200.000	-0.038	0.208
-672.120	284.179	-0.135	-0.245
-671.105	-200.000	0.096	0.428
-670.091	-200.000	0.014	0.110
-669.076	80.349	0.141	-0.153
-668.062	112.462	0.134	-0.163
-667.047	-200.000	-0.047	-0.251
-666.032	-101.622	0.210	0.051
-665.018	192.471	-0.028	-0.043
-664.003	-32.066	0.277	0.155
-662.989	800.000	0.094	0.311
-661.974	512.259	-0.112	0.262
-660.959	-119.719	-0.158	-0.027
-659.945	213.373	-0.202	0.320
-658.930	83.326	0.031	-0.034
-657.916	-115.765	0.234	-0.044
-656.901	-200.000	0.024	0.142
-655.886	330.441	-0.192	-0.371
-654.872	800.000	-0.089	-0.280
-653.857	44.297	-0.311	-0.287
-652.843	-11.648	0.050	0.033
-651.828	299.674	-0.020	0.038
-650.814	109.813	-0.276	-0.332
-649.799	133.566	-0.213	-0.276
-648.784	-5.003	0.258	-0.178
-647.770	52.484	0.014	0.013
-646.755	-200.000	-0.049	-0.226
-645.741	-95.523	0.303	-0.082
-644.726	147.400	-0.111	0.150
-643.711	-12.222	-0.287	0.189
-642.697	-86.107	-0.064	-0.020
-641.682	92.344	0.086	-0.098
-640.668	52.947	-0.103	-0.099
-639.653	-84.148	-0.116	-0.037
-638.638	-29.439	-0.164	-0.094
-637.624	800.000	-0.095	0.274
-636.609	118.570	0.217	-0.269
-635.595	-24.001	0.133	-0.080
-634.580	745.942	-0.097	-0.262
-633.565	8.512	0.191	0.144
-632.551	-167.663	0.287	-0.011
-631.536	-200.000	0.035	0.385
-630.522	34.582	0.141	0.124
-629.507	20.504	-0.115	-0.093
-628.492	-69.260	-0.176	-0.068
-627.478	-41.654	0.261	0.135
-626.463	-200.000	-0.035	-0.255
-625.449	-67.742	-0.146	-0.057
-624.434	70.676	-0.087	0.090
-623.419	17.884	-0.163	-0.130
-622.405	-200.000	-0.022	-0.250
-621.390	179.101	-0.131	-0.192
-620.376	-134.130	-0.272	0.034
-619.361	24.069	0.080	0.066
-618.346	-63.245	0.040	0.016
-617.332	130.658	0.060	0.077
-616.317	100.411	-0.081	-0.094
-615.303	238.608	-0.128	0.214
-614.288	4.159	-0.057	-0.042
-613.273	791.771	-0.077	0.212
-612.259	-22.753	0.240	0.145
-611.244	-51.959	0.143	-0.067
-610.230	58.215	0.106	0.104
-609.215	89.283	0.113	-0.126
-608.201	228.782	-0.037	-0.060
-607.186	-45.474	0.091	0.045
-606.171	-10.268	-0.249	-0.166
-605.157	-126.512	0.151	0.023
-604.142	-9.462	0.127	-0.085
-603.128	-33.451	-0.033	-0.018
-602.113	-200.000	0.077	-0.353
-601.098	-27.168	0.119	0.070
-600.084	403.833	0.065	0.138
-599.069	800.000	-0.046	-0.191
-598.055	-90.241	-0.148	0.043
-597.040	-21.480	0.191	-0.117
-596.025	69.848	0.048	-0.050
-595.011	-200.000	-0.000	0.057
-593.996	323.907	-0.227	0.434
-592.982	306.752	0.139	0.259
-591.967	-139.591	-0.080	0.009
-590.952	739.276	0.084	0.226
-589.938	-115.777	-0.207	-0.039
-588.923	-95.151	-0.214	-0.058
-587.909	514.107	-0.089	0.209
-586.894	545.570	0.058	0.139
-585.879	366.361	0.091	0.184
-584.865	-200.000	-0.051	-0.325
-583.850	800.000	0.087	-0.342
-582.836	-0.827	0.125	0.089
-581.821	-66.581	0.295	-0.117
-580.806	104.353	0.072	0.085
-579.792	-200.000	0.026	-0.333
-578.777	68.014	0.207	0.212
-577.763	800.000	-0.099	-0.300
-576.748	-34.487	-0.249	0.136
-575.733	800.000	0.073	0.266
-574.719	62.760	-0.103	-0.103
-573.704	557.756	-0.175	0.422
-572.690	-200.000	0.058	-0.439
-571.675	193.709	0.109	-0.164
-570.661	397.237	-0.107	0.224
-569.646	-200.000	0.023	0.147
-568.631	42.562	0.219	-0.200
-567.617	-200.000	-0.025	-0.159
-566.602	51.227	0.046	-0.044
-565.588	-55.521	-0.379	-0.170
-564.573	-49.880	-0.114	0.054
-563.558	-200.000	-0.001	-0.026
-562.544	162.260	-0.075	0.106
-561.529	-127.369	-0.231	0.034
-560.515	33.021	-0.189	-0.164
-559.500	493.515	0.050	0.115
-558.485	-200.000	-0.026	0.139
-557.471	-200.000	0.085	0.408
-556.456	-79.836	-0.297	-0.100
-555.442	-180.507	0.078	0.002
-554.427	-96.220	0.269	0.071
-553.412	-200.000	-0.002	-0.092
-552.398	91.559	0.141	-0.159
-551.383	-58.796	0.179	0.077
-550.369	38.520	-0.128	-0.114
-549.354	-136.687	0.392	-0.045
-548.339	-171.520	-0.255	-0.008
-547.325	-101.078	0.485	0.119
-546.310	667.557	0.091	-0.236
-545.296	-200.000	0.009	0.104
-544.281	89.946	0.028	0.031
-543.266	-6.578	-0.204	-0.139
-542.252	99.439	-0.203	-0.235
-541.237	-200.000	-0.027	0.418
-540.223	5.455	-0.062	0.046
-539.208	-52.218	0.535	-0.248
-538.193	800.000	-0.050	-0.161
-537.179	227.928	-0.140	-0.227
-536.164	800.000	-0.108	0.404
-535.150	275.003	0.106	-0.188
-534.135	-200.000	-0.045	-0.302
-533.121	-200.000	-0.012	0.107
-532.106	-200.000	-0.007	-0.157
-531.091	-200.000	-0.022	0.132
-530.077	-24.795	0.176	0.105
-529.062	-200.000	0.054	0.264
-528.048	142.440	0.078	0.104
-527.033	208.522	0.103	-0.161
-526.018	-73.308	-0.060	-0.022
-525.004	-111.324	0.353	-0.072
-523.989	280.650	0.099	0.178
-522.975	229.157	-0.173	-0.282
-521.960	77.590	-0.172	-0.183
-520.945	115.630	0.042	0.051
-519.931	-96.784	-0.393	-0.103
-518.916	-48.349	-0.038	-0.018
-517.902	-200.000	-0.036	0.244
-516.887	150.065	0.039	-0.053
-515.872	5.361	-0.121	-0.089
-514.858	-42.421	0.381	0.194
-513.843	-200.000	0.080	-0.368
-512.829	-200.000	-0.013	-0.357
-511.814	-36.149	0.093	0.050
-510.799	40.520	-0.171	0.154
-509.785	-1.236	-0.217	-0.153
-508.770	-124.397	-0.261	-0.041
-507.756	-200.000	0.022	-0.290
-506.741	160.834	0.084	-0.117
-505.726	507.264	-0.036	-0.082
-504.712	-200.000	-0.005	0.059
-503.697	244.158	0.226	-0.378
-502.683	103.331	-0.065	0.076
-501.668	-200.000	-0.012	0.156
-500.653	-49.796	-0.181	0.086
-499.639	800.000	-0.068	0.281
-498.624	690.441	-0.121	0.316
-497.610	-200.000	-0.016	0.337
-496.595	606.161	-0.038	0.094
-495.581	-176.045	-0.168	0.004
-494.566	-49.377	0.160	0.076
-493.551	-200.000	-0.071	-0.473
-492.537	800.000	0.070	-0.251
-491.522	-109.578	-0.363	0.076
-490.508	-92.876	0.356	0.099
-489.493	701.866	-0.068	0.179
-488.478	102.366	-0.045	-0.053
-487.464	207.359	-0.158	0.246
-486.449	-200.000	-0.096	0.456
-485.435	-45.168	0.160	0.080
-484.420	17.392	-0.168	-0.133
-483.405	-200.000	0.003	0.227
-482.391	-43.119	0.019	0.010
-481.376	800.000	0.076	0.305
-480.362	-200.000	-0.041	-0.259
-479.347	432.631	0.085	0.183
-478.332	-120.170	0.238	0.041
-477.318	-93.102	-0.155	-0.043
-476.303	-51.292	-0.264	-0.123
-475.289	748.274	0.133	0.356
-474.274	116.189	-0.028	0.035
-473.259	800.000	0.096	-0.348
-472.245	-122.723	0.158	0.026
-471.230	-200.000	0.006	0.044
-470.216	-200.000	-0.057	0.472
-469.201	-57.317	0.068	-0.030
-468.186	114.178	0.071	0.086
-467.172	-200.000	-0.095	-0.454
-466.157	-200.000	-0.010	-0.062
-465.143	-200.000	-0.041	0.189
-464.128	-200.000	-0.022	-0.286
-463.113	800.000	-0.032	-0.101
-462.099	21.733	0.084	0.068
-461.084	290.806	-0.045	-0.082
-460.070	153.419	0.178	-0.243
-459.055	170.189	0.097	0.138
-458.040	800.000	0.022	-0.079
-457.026	800.000	0.060	-0.169
-456.011	-200.000	-0.001	0.151
-454.997	6.262	-0.184	-0.136
-453.982	-114.392	0.261	0.050
-452.968	109.123	-0.292	0.348
-451.953	-200.000	0.012	-0.066
-450.938	-35.594	0.213	-0.115
-449.924	-168.565	-0.297	0.011
-448.909	-200.000	0.007	-0.245
-447.895	71.919	0.081	-0.084
-446.880	-72.184	0.405	0.150
-445.865	55.292	-0.282	-0.271
-444.851	202.949	0.125	-0.193
-443.836	69.633	-0.143	0.147
-442.822	-0.929	0.172	-0.122
-441.807	-92.549	-0.154	0.043
-440.792	135.937	-0.178	0.230
-439.778	800.000	-0.050	0.174
-438.763	236.054	0.132	-0.217
-437.749	800.000	-0.050	-0.175
-436.734	602.964	-0.106	-0.262
-435.719	-200.000	0.060	0.300
-434.705	647.459	-0.069	0.176
-433.690	-96.353	-0.134	-0.035
-432.676	17.677	0.087	-0.069
-431.661	-147.185	-0.077	-0.007
-430.646	47.666	-0.193	0.179
-429.632	-60.686	-0.229	0.097
-428.617	-20.559	0.387	0.237
-427.603	-117.390	-0.100	-0.018
-426.588	566.870	0.127	-0.306
-425.573	-23.369	-0.183	-0.109
-424.559	-200.000	0.006	0.241
-423.544	-87.289	-0.408	0.123
-422.530	-24.625	0.059	-0.035
-421.515	-106.878	-0.195	0.043
-420.500	-200.000	0.024	-0.195
-419.486	777.437	-0.060	-0.163
-418.471	-114.404	0.050	0.009
-417.457	59.711	0.295	-0.290
-416.442	84.957	-0.106	0.116
-415.428	-152.992	0.104	-0.007
-414.413	-31.724	0.191	-0.106
-413.398	800.000	0.097	0.307
-412.384	-157.116	-0.120	-0.007
-411.369	-200.000	0.005	-0.023
-410.355	-57.251	-0.236	-0.103
-409.340	115.725	-0.091	-0.110
-408.325	-88.818	0.164	0.048
-407.311	-200.000	0.009	-0.344
-406.296	800.000	-0.087	-0.341
-405.282	-200.000	-0.048	0.220
-404.267	201.520	0.190	0.291
-403.252	-200.000	-0.014	-0.289
-402.238	-110.408	-0.274	0.057
-401.223	800.000	-0.080	0.246
-400.209	-28.151	-0.050	-0.029
-399.194	44.619	-0.270	-0.247
-398.179	-112.747	0.327	0.065
-397.165	1.676	-0.286	0.205
-396.150	-167.241	0.096	0.004
-395.136	-68.834	0.450	-0.173
-394.121	30.434	-0.176	0.149
-393.106	534.424	-0.039	0.093
-392.092	190.337	0.175	0.261
-391.077	62.768	0.286	-0.284
-390.063	36.651	-0.112	-0.098
-389.048	589.258	-0.064	0.157
-388.033	800.000	-0.092	0.287
-387.019	-18.981	0.126	-0.078
-386.004	-200.000	-0.023	-0.370
-384.990	-87.303	-0.411	0.124
-383.975	800.000	-0.032	-0.116
-382.960	336.027	0.239	0.460
-381.946	800.000	-0.021	0.084
-380.931	800.000	-0.029	-0.094
-379.917	-31.644	-0.132	0.073
-378.902	228.765	0.033	0.053
-377.888	-200.000	0.014	0.083
-376.873	-200.000	-0.056	-0.281
-375.858	-200.000	0.055	-0.291
-374.844	-200.000	0.017	0.410
-373.829	-68.565	-0.189	0.073
-372.815	100.684	-0.235	-0.271
-371.800	800.000	0.130	-0.488
-370.785	800.000	-0.087	-0.318
-369.771	-70.997	-0.427	0.159
-368.756	57.592	0.284	-0.276
-367.742	-6.656	-0.214	0.144
-366.727	-11.718	0.240	0.156
-365.712	-200.000	-0.027	-0.124
-364.698	21.276	0.225	-0.181
-363.683	689.054	-0.042	0.108
-362.669	-166.069	0.211	-0.009
-361.654	-200.000	0.042	0.228
-360.639	800.000	0.108	0.354
-359.625	800.000	-0.130	-0.419
-358.610	-200.000	-0.009	-0.197
-357.596	1.420	0.307	0.219
-356.581	-200.000	-0.007	-0.186
-355.566	-100.772	-0.186	-0.045
-354.552	-200.000	-0.008	-0.160
-353.537	-21.862	-0.401	0.242
-352.523	-200.000	0.060	0.506
-351.508	-65.377	-0.306	0.122
-350.493	-105.467	-0.267	-0.060
-349.479	665.193	-0.078	0.201
-348.464	-63.184	0.038	0.016
-347.450	51.314	-0.218	-0.205
-346.435	-45.061	-0.162	0.080
-345.420	-134.774	0.073	-0.009
-344.406	581.350	0.098	-0.238
-343.391	115.756	0.142	0.172
-342.377	-167.816	-0.110	0.004
-341.362	488.965	0.088	0.200
-340.348	800.000	0.049	0.163
-339.333	-29.710	-0.193	0.109
-338.318	-142.101	0.209	0.021
-337.304	-100.039	0.209	-0.052
-336.289	-98.213	-0.549	-0.140
-335.275	291.852	-0.188	-0.340
-334.260	466.909	0.146	0.325
-333.245	-133.624	0.352	0.044
-332.231	800.000	-0.043	0.150
-331.216	-152.872	0.146	-0.010
-330.202	0.840	-0.164	0.116
-329.187	800.000	-0.115	-0.332
-328.172	-200.000	0.001	0.174
-327.158	109.357	0.053	-0.063
-326.143	56.062	-0.045	-0.044
-325.129	42.887	0.161	-0.146
-324.114	-128.858	-0.206	0.029
-323.099	566.038	-0.044	0.105
-322.085	800.000	-0.057	0.221
-321.070	-52.728	0.212	0.097
-320.056	577.920	-0.058	0.141
-319.041	-200.000	0.097	0.000
-318.026	184.747	0.232	-0.341
-317.012	200.860	0.054	-0.083
-315.997	221.533	0.222	-0.354
-314.983	-52.328	-0.190	-0.087
-313.968	800.000	-0.106	0.351
-312.953	-200.000	-0.002	-0.041
-311.939	800.000	-0.084	-0.307
-310.924	-62.709	-0.398	-0.164
-309.910	8.702	-0.289	0.215
-308.895	369.195	0.040	0.079
-307.880	33.334	0.079	0.068
-306.866	41.561	0.105	0.094
-305.851	41.890	0.163	-0.146
-304.837	-200.000	0.005	-0.060
-303.822	-60.374	-0.021	-0.009
-302.807	-33.151	-0.086	0.047
-301.793	-200.000	-0.006	0.105
-300.778	21.253	-0.065	0.052
-299.764	-17.601	-0.323	-0.201
-298.749	51.202	-0.254	-0.239
-297.735	447.592	0.144	-0.314
-296.720	800.000	-0.145	-0.475
-295.705	-121.803	-0.173	0.028
-294.691	6.776	0.203	-0.150
-293.676	225.707	0.104	-0.167
-292.662	800.000	-0.057	0.189
-291.647	-200.000	-0.008	0.058
-290.632	-200.000	-0.011	0.257
-289.618	-51.927	0.213	0.098
-288.603	800.000	-0.056	0.167
-287.589	800.000	-0.122	-0.383
-286.574	800.000	0.041	0.178
-285.559	18.996	0.241	-0.191
-284.545	800.000	0.097	0.361
-283.530	-25.343	0.326	-0.191
-282.516	-112.736	0.066	0.013
-281.501	-166.708	0.229	-0.009
-280.486	386.860	-0.086	-0.175
-279.472	113.833	0.109	-0.131
-278.457	800.000	0.108	0.349
-277.443	202.017	-0.257	0.392
-276.428	109.515	0.147	0.175
-275.413	3.045	0.142	-0.102
-274.399	54.220	0.257	0.245
-273.384	800.000	0.149	0.438
-272.370	96.552	0.039	0.045
-271.355	800.000	-0.066	0.179
-270.340	62.823	0.100	0.099
-269.326	-107.341	0.047	-0.010
-268.311	-171.115	0.186	0.006
-267.297	105.992	-0.111	0.130
-266.282	20.339	0.185	0.148
-265.267	-200.000	0.191	-0.001
-264.253	-60.144	-0.172	-0.072
-263.238	-20.858	0.184	-0.111
-262.224	-41.813	0.112	0.057
-261.209	-94.483	-0.313	0.084
-260.195	-128.555	0.556	-0.078
-259.180	800.000	-0.037	0.121
-258.165	210.702	-0.085	-0.132
-257.151	-162.500	-0.167	-0.008
-256.136	52.501	0.129	-0.122
-255.122	-45.928	0.229	0.112
-254.107	36.632	-0.299	-0.261
-253.092	316.218	0.100	-0.186
-252.078	800.000	0.041	-0.131
-251.063	-137.911	-0.261	0.029
-250.049	741.605	-0.047	0.125
-249.034	-82.947	0.074	0.024
-248.019	-48.771	-0.014	-0.007
-247.005	800.000	0.074	-0.208
-245.990	165.991	-0.108	-0.150
-244.976	800.000	0.094	0.273
-243.961	-108.292	-0.151	-0.032
-242.946	-136.282	-0.306	-0.035
-241.932	168.001	-0.231	-0.325
-240.917	-200.000	0.021	0.266
-239.903	6.771	0.043	-0.032
-238.888	-200.000	0.007	-0.305
-237.873	-200.000	-0.001	-0.312
-236.859	-51.315	-0.116	0.054
-235.844	128.687	-0.091	0.115
-234.830	96.373	-0.327	-0.369
-233.815	-46.123	0.157	-0.076
-232.800	-53.797	0.153	0.069
-231.786	-22.017	0.240	0.144
-230.771	-13.337	-0.156	-0.100
-229.757	664.366	-0.182	-0.463
-228.742	800.000	0.049	0.209
-227.727	-24.386	0.392	-0.231
-226.713	-200.000	-0.010	-0.196
-225.698	90.358	0.064	0.070
-224.684	-137.670	0.335	0.037
-223.669	48.869	0.032	0.030
-222.655	-190.932	0.314	0.003
-221.640	-194.088	-0.071	0.001
-220.625	-200.000	-0.031	-0.332
-219.611	62.302	-0.126	0.124
-218.596	-200.000	-0.014	0.139
-217.582	51.800	-0.032	-0.030
-216.567	157.834	0.104	0.142
-215.552	-118.853	-0.105	0.018
-214.538	800.000	-0.024	-0.092
-213.523	-22.962	-0.140	-0.084
-212.509	187.059	0.242	-0.356
-211.494	39.448	-0.189	0.167
-210.479	555.022	-0.119	0.283
-209.465	-36.428	0.205	0.109
-208.450	-65.608	-0.035	0.014
-207.436	231.970	-0.153	0.248
-206.421	800.000	-0.081	0.300
-205.406	-32.441	0.055	-0.030
-204.392	-200.000	-0.042	0.249
-203.377	23.110	-0.162	0.131
-202.363	55.713	-0.212	0.203
-201.348	289.135	0.163	0.291
-200.333	23.414	-0.165	-0.134
-199.319	800.000	-0.084	-0.355
-198.304	800.000	0.030	-0.089
-197.290	-32.539	0.207	-0.114
-196.275	-126.787	0.080	-0.012
-195.260	65.830	-0.086	-0.086
-194.246	-200.000	0.031	0.189
-193.231	-146.879	-0.324	-0.027
-192.217	-78.149	-0.107	-0.036
-191.202	-145.427	-0.171	-0.015
-190.187	-200.000	0.018	0.206
-189.173	85.491	0.250	0.271
-188.158	726.031	-0.013	-0.035
-187.144	10.194	-0.026	0.019
-186.129	-200.000	-0.039	-0.246
-185.114	436.197	0.194	0.417
-184.100	-200.000	-0.047	0.396
-183.085	-200.000	-0.053	0.396
-182.071	-23.606	0.225	0.133
-181.056	-131.480	-0.243	-0.032
-180.042	-112.382	0.221	-0.044
-179.027	-59.890	0.497	0.209
-178.012	800.000	-0.066	0.182
-176.998	369.699	0.087	-0.174
-175.983	-134.845	-0.023	-0.003
-174.969	251.752	-0.113	0.189
-173.954	365.994	-0.091	-0.182
-172.939	124.958	0.125	-0.155
-171.925	-200.000	0.032	0.292
-170.910	-0.260	0.119	-0.083
-169.896	477.596	-0.037	0.082
-168.881	-0.530	0.180	-0.126
-167.866	-63.272	-0.209	-0.085
-166.852	123.882	0.130	0.161
-165.837	-113.418	0.252	-0.049
-164.823	-122.166	0.299	-0.048
-163.808	-200.000	-0.008	0.090
-162.793	800.000	0.125	0.354
-161.779	800.000	-0.068	0.194
-160.764	82.075	0.214	-0.228
-159.750	0.432	0.281	-0.197
-158.735	272.856	-0.135	-0.234
-157.720	24.789	0.015	0.012
-156.706	800.000	-0.076	-0.211
-155.691	-167.120	-0.218	0.009
-154.677	11.786	0.222	0.168
-153.662	14.003	-0.074	0.056
-152.647	-121.923	-0.142	0.023
-151.633	800.000	0.066	0.180
-150.618	-21.572	0.156	0.094
-149.604	5.980	-0.199	-0.145
-148.589	248.529	0.046	0.077
-147.574	-139.996	-0.056	-0.006
-146.560	-60.186	0.336	0.141
-145.545	98.752	-0.175	0.199
-144.531	633.480	-0.075	-0.188
-143.516	-200.000	-0.026	0.159
-142.502	64.103	-0.327	0.324
-141.487	-161.424	0.152	0.008
-140.472	185.479	0.062	-0.091
-139.458	22.102	0.272	-0.218
-138.443	200.141	-0.151	0.228
-137.429	800.000	0.076	0.284
-136.414	47.264	-0.187	-0.171
-135.399	399.191	-0.121	-0.249
-134.385	176.283	0.067	0.095
-133.370	-158.868	-0.267	0.015
-132.356	-87.019	0.332	-0.100
-131.341	180.988	-0.208	0.300
-130.326	-36.685	-0.243	-0.129
-129.312	-86.800	0.084	0.025
-128.297	172.206	0.065	-0.092
-127.283	96.795	0.283	-0.319
-126.268	-24.561	-0.270	-0.158
-125.253	800.000	0.045	-0.138
-124.239	-151.824	-0.076	0.005
-123.224	321.396	-0.054	-0.101
-122.210	-8.997	0.201	0.132
-121.195	-153.214	0.334	0.023
-120.180	-104.822	0.189	0.043
-119.166	-200.000	-0.021	0.235
-118.151	-200.000	-0.010	-0.087
-117.137	34.235	0.227	0.194
-116.122	-170.618	0.297	-0.010
-115.107	125.666	-0.121	-0.151
-114.093	50.323	-0.089	0.082
-113.078	-59.777	-0.355	0.149
-112.064	66.073	-0.193	-0.193
-111.049	-133.450	0.162	0.020
-110.034	800.000	-0.044	-0.187
-109.020	-103.658	-0.260	-0.060
-108.005	-149.961	-0.291	-0.022
-106.991	-70.881	0.184	-0.068
-105.976	-26.320	0.124	-0.072
-104.962	-60.963	-0.156	0.065
-103.947	-113.368	0.319	-0.062
-102.932	-28.569	-0.116	0.065
-101.918	82.933	0.154	-0.165
-100.903	-92.452	0.107	0.030
-99.889	40.789	0.111	-0.098
-98.874	-171.343	0.343	-0.011
-97.859	383.745	0.093	0.189
-96.845	-157.184	0.196	0.012
-95.830	-95.661	0.278	0.073
-94.816	800.000	-0.122	-0.357
-93.801	-102.391	-0.173	-0.041
-92.786	24.589	0.227	0.185
-91.772	800.000	0.097	0.268
-90.757	-200.000	0.004	-0.047
-89.743	-144.897	0.271	0.024
-88.728	-200.000	-0.023	0.116
-87.713	195.539	-0.156	0.233
-86.699	-200.000	0.051	0.249
-85.684	-200.000	0.008	0.241
-84.670	7.120	-0.020	-0.015
-83.655	538.296	-0.177	0.413
-82.640	-200.000	0.081	0.411
-81.626	-200.000	-0.018	0.407
-80.611	-200.000	0.013	-0.168
-79.597	-63.828	-0.247	-0.099
-78.582	-103.632	-0.320	-0.074
-77.567	-200.000	-0.011	-0.064
-76.553	264.382	0.169	-0.289
-75.538	-28.381	-0.317	0.179
-74.524	-166.688	0.339	0.014
-73.509	136.860	-0.067	0.086
-72.494	-75.734	-0.288	0.100
-71.480	-55.043	0.147	0.065
-70.465	-42.572	0.150	-0.075
-69.451	-173.909	-0.281	0.008
-68.436	-112.754	0.182	0.035
-67.422	-110.804	-0.184	-0.037
-66.407	-110.285	0.547	-0.112
-65.392	-43.633	0.095	-0.047
-64.378	54.976	-0.223	-0.211
-63.363	138.167	0.087	0.111
-62.349	20.576	-0.092	0.073
-61.334	114.009	-0.818	-0.976
-60.319	6.446	0.543	0.396
-59.305	800.000	-0.333	-1.118
-58.290	137.651	0.767	0.985
-57.276	345.756	0.639	1.232
-56.261	-200.000	112.792	648.399
-55.246	476.863	1499.688	3326.253
-54.232	148.344	2660.806	3523.684
-53.217	105.075	2149.543	2487.829
-52.203	39.401	1601.932	1407.268
-51.188	31.258	1349.889	1136.502
-50.173	28.408	1311.978	1087.656
-49.159	56.281	1367.237	1302.732
-48.144	54.840	1382.388	1308.430
-47.130	31.621	1338.402	1128.841
-46.115	28.069	1320.428	1092.458
-45.100	27.870	1314.865	1086.628
-44.086	27.893	1312.764	1084.989
-43.071	27.860	1311.028	1083.316
-42.057	27.833	1308.610	1081.110
-41.042	27.931	1307.067	1080.374
-40.027	27.988	1305.471	1079.346
-39.013	27.870	1303.699	1077.143
-37.998	27.857	1302.022	1075.641
-36.984	27.949	1299.867	1074.356
-35.969	28.019	1297.859	1073.069
-34.954	27.983	1296.315	1071.538
-33.940	28.022	1295.010	1070.646
-32.925	28.015	1293.894	1069.640
-31.911	27.943	1292.753	1068.234
-30.896	28.159	1290.545	1067.627
-29.881	28.155	1289.841	1066.979
-28.867	28.147	1288.042	1065.397
-27.852	28.078	1287.266	1064.314
-26.838	28.109	1285.263	1062.794
-25.823	28.005	1284.478	1061.501
-24.809	27.999	1283.071	1060.262
-23.794	28.024	1281.777	1059.296
-22.779	28.003	1280.489	1058.065
-21.765	28.101	1279.168	1057.497
-20.750	28.070	1277.769	1056.124
-19.736	27.956	1276.413	1054.304
-18.721	28.049	1274.866	1053.519
-17.706	27.947	1274.166	1052.312
-16.692	27.977	1272.737	1051.259
-15.677	27.981	1271.882	1050.535
-14.663	27.958	1270.869	1049.523
-13.648	27.948	1269.657	1048.427
-12.633	27.914	1268.590	1047.309
-11.619	27.885	1267.933	1046.557
-10.604	27.952	1267.010	1046.137
-9.590	27.920	1265.865	1044.967
-8.575	27.871	1264.978	1043.915
-7.560	27.823	1264.580	1043.270
-6.546	27.965	1263.233	1042.930
-5.531	28.046	1262.353	1042.621
-4.517	27.941	1262.089	1041.763
-3.502	28.011	1260.900	1041.138
-2.487	27.933	1260.107	1039.999
-1.473	27.869	1255.755	1036.003
-0.458	26.232	1239.564	1013.432
0.556	20.601	1222.406	973.033
1.571	16.545	1227.890	954.469
2.586	15.452	1242.781	959.713
3.600	15.453	1230.721	950.323
4.615	11.405	1159.071	873.296
5.629	3.903	1085.531	780.093
6.644	0.406	1066.216	748.805
7.659	0.071	1064.198	745.662
8.673	0.002	1062.925	744.358
9.688	0.011	1061.663	743.457
10.702	0.136	1059.945	742.805
11.717	4.699	1065.917	769.529
12.731	12.555	1075.906	815.764
13.746	16.680	1080.490	839.672
14.761	16.967	1080.183	840.781
15.775	15.932	1078.205	834.043
16.790	14.839	1076.640	827.350
17.804	14.371	1074.624	823.418
18.819	13.924	1073.955	820.624
19.834	13.666	1072.615	818.255
20.848	13.461	1071.747	816.508
21.863	13.228	1071.189	814.860
22.877	12.995	1070.449	813.077
23.892	13.059	1069.423	812.543
24.907	13.109	1068.911	812.325
25.921	13.080	1067.898	811.343
26.936	13.146	1067.389	811.207
27.950	13.174	1066.303	810.450
28.965	13.251	1065.039	809.791
29.980	13.307	1064.025	809.224
30.994	13.218	1062.866	807.835
32.009	13.285	1061.587	807.122
33.023	13.310	1060.707	806.502
34.038	13.309	1059.567	805.560
35.053	13.244	1058.455	804.326
36.067	13.169	1057.897	803.464
37.082	13.214	1057.196	803.081
38.096	13.201	1056.336	802.293
39.111	13.166	1055.897	801.720
40.126	13.318	1054.334	801.198
41.140	13.069	1053.370	799.190
42.155	13.115	1052.026	798.320
43.169	13.159	1050.942	797.640
44.184	13.007	1050.142	796.229
45.199	13.009	1049.347	795.566
46.213	13.182	1047.959	795.278
47.228	13.116	1047.313	794.397
48.242	13.110	1046.275	793.514
49.257	13.166	1044.980	792.729
50.271	13.259	1043.701	792.134
51.286	13.190	1043.176	791.333
52.301	13.124	1042.697	790.586
53.315	13.012	1041.567	789.124
54.330	13.070	1040.372	788.423
55.344	13.212	1039.008	787.998
56.359	13.159	1038.727	787.463
57.374	13.038	1037.810	786.121
58.388	13.122	1036.059	785.125
59.403	13.019	1036.169	784.647
60.417	13.086	1034.968	783.989
61.432	12.967	1034.452	782.965
62.447	13.080	1033.767	782.912
63.461	12.935	1032.742	781.379
64.476	12.949	1032.106	780.898
65.490	12.870	1031.307	779.850
66.505	13.025	1030.428	779.850
67.520	13.072	1029.754	779.492
68.534	13.017	1029.122	778.683
69.549	13.083	1028.058	778.120
70.563	13.070	1027.315	777.427
71.578	13.010	1026.495	776.458
72.593	12.866	1026.405	775.641
73.607	12.774	1025.577	774.513
74.622	12.929	1024.555	774.404
75.636	12.823	1024.284	773.630
76.651	12.972	1023.293	773.516
77.666	12.926	1022.595	772.702
78.680	13.040	1021.650	772.452
79.695	13.041	1021.106	771.976
80.709	13.003	1020.442	771.229
81.724	13.068	1019.687	770.894
82.739	13.198	1018.683	770.675
83.753	13.215	1018.123	770.262
84.768	13.258	1017.144	769.654
85.782	13.163	1016.936	768.985
86.797	13.127	1015.587	767.731
87.812	13.083	1014.544	766.671
88.826	13.194	1013.532	766.351
89.841	13.341	1012.919	766.502
90.855	13.357	1011.538	765.464
91.870	13.198	1011.323	764.496
92.884	13.218	1010.261	763.718
93.899	13.244	1009.432	763.142
94.914	13.323	1008.726	762.907
95.928	13.253	1008.044	762.001
96.943	13.207	1006.760	760.753
97.957	13.391	1006.134	761.058
98.972	13.224	1005.183	759.505
99.987	13.156	1004.601	758.686
101.001	13.226	1003.657	758.226
102.016	13.180	1002.766	757.274
103.030	13.248	1002.038	756.969
104.045	13.363	1001.279	756.855
105.060	13.126	1000.599	755.191
106.074	13.265	999.294	754.773
107.089	13.085	998.539	753.316
108.103	13.106	997.625	752.657
109.118	12.996	996.512	751.247
110.133	13.112	995.896	751.244
111.147	13.106	994.960	750.444
112.162	13.116	993.860	749.594
113.176	13.156	993.499	749.437
114.191	13.205	992.497	748.838
115.206	13.247	991.844	748.467
116.220	13.185	991.080	747.544
117.235	13.200	990.071	746.784
118.249	13.181	989.028	745.848
119.264	13.130	988.771	745.357
120.279	13.159	987.217	744.248
121.293	13.092	986.721	743.507
122.308	13.032	986.021	742.647
123.322	13.099	984.811	741.970
124.337	13.083	983.995	741.219
125.352	13.191	982.597	740.581
126.366	13.069	981.649	739.256
127.381	13.183	980.745	739.022
128.395	13.101	979.696	737.797
129.410	13.204	978.416	737.230
130.424	13.201	977.622	736.550
131.439	13.205	977.263	736.235
132.454	13.161	976.296	735.244
133.468	13.268	975.507	735.063
134.483	13.196	975.004	734.299
135.497	13.230	973.946	733.585
136.512	13.226	973.025	732.811
137.527	13.202	971.856	731.756
138.541	13.191	971.677	731.508
139.556	13.322	970.786	731.354
140.570	13.312	970.254	730.845
141.585	13.314	969.458	730.188
142.600	13.383	968.124	729.423
143.614	13.452	967.771	729.396
144.629	13.364	966.816	728.224
145.643	13.344	965.684	727.220
146.658	13.487	964.732	727.069
147.673	13.372	963.836	725.824
148.687	13.237	963.180	724.673
149.702	13.391	962.151	724.508
150.716	13.169	961.868	723.262
151.731	13.309	960.802	723.009
152.746	13.389	960.133	722.791
153.760	13.376	959.806	722.421
154.775	13.364	958.889	721.616
155.789	13.517	958.085	721.613
156.804	13.444	957.572	720.846
157.819	13.430	956.561	719.960
158.833	13.395	956.291	719.538
159.848	13.729	954.925	719.900
160.862	13.536	954.182	718.438
161.877	13.472	953.542	717.616
162.892	13.411	952.743	716.688
163.906	13.467	951.259	715.748
164.921	13.371	951.204	715.227
165.935	13.457	950.047	714.665
166.950	13.566	948.746	714.096
167.964	13.478	948.310	713.325
168.979	13.539	947.398	712.836
169.994	13.467	946.843	712.050
171.008	13.466	946.095	711.417
172.023	13.651	944.788	711.166
173.037	13.687	944.455	711.007
174.052	13.659	943.377	710.013
175.067	13.615	943.028	709.500
176.081	13.549	942.353	708.644
177.096	13.524	941.992	708.206
178.110	13.566	941.360	707.847
179.125	13.610	940.881	707.610
180.140	13.678	940.135	707.277
181.154	13.644	939.944	706.926
182.169	13.774	939.375	706.988
183.183	13.709	938.334	705.867
184.198	13.744	937.623	705.417
185.213	13.714	936.957	704.728
186.227	13.632	936.555	704.013
187.242	13.776	935.668	703.897
188.256	13.761	935.003	703.273
189.271	13.790	934.454	702.919
190.286	13.819	933.147	701.995
191.300	13.615	932.640	700.689
192.315	13.591	932.022	700.062
193.329	13.583	931.719	699.737
194.344	13.652	930.885	699.339
195.359	13.697	929.968	698.779
196.373	13.848	929.490	698.995
197.388	13.958	929.294	699.247
198.402	13.902	928.715	698.515
199.417	13.889	928.165	697.987
200.432	13.975	927.457	697.751
201.446	14.123	926.922	697.911
202.461	14.208	926.380	697.794
203.475	14.006	926.252	696.792
204.490	13.956	924.968	695.555
205.504	13.928	924.144	694.757
206.519	13.992	923.574	694.534
207.534	14.093	922.645	694.193
208.548	14.011	922.212	693.464
209.563	14.045	921.462	692.984
210.577	14.078	921.017	692.725
211.592	14.143	920.110	692.252
212.607	14.076	919.215	691.235
213.621	14.221	918.578	691.301
214.636	14.236	917.813	690.725
215.650	14.148	917.403	689.988
216.665	14.189	916.225	689.213
217.680	14.334	915.574	689.262
218.694	14.256	915.167	688.574
219.709	14.226	914.418	687.825
220.723	14.237	913.770	687.322
221.738	14.281	912.536	686.514
222.753	14.288	912.318	686.318
223.767	14.305	911.833	685.964
224.782	14.276	911.128	685.253
225.796	14.331	910.719	685.108
226.811	14.355	910.078	684.666
227.826	14.297	909.614	684.019
228.840	14.354	908.645	683.461
229.855	14.324	907.744	682.602
230.869	14.297	906.973	681.850
231.884	14.347	906.445	681.596
232.899	14.311	905.358	680.572
233.913	14.396	904.764	680.413
234.928	14.178	904.611	679.347
235.942	14.233	904.168	679.180
236.957	14.455	903.011	679.155
237.972	14.376	902.556	678.431
238.986	14.351	901.886	677.765
240.001	14.364	901.117	677.182
241.015	14.337	900.781	676.760
242.030	14.477	900.013	676.691
243.045	14.483	899.430	676.214
244.059	14.498	898.811	675.754
245.074	14.439	897.841	674.724
246.088	14.615	897.347	675.006
247.103	14.505	896.793	674.084
248.117	14.699	896.081	674.270
249.132	14.744	895.639	674.062
250.147	14.802	895.111	673.840
251.161	14.740	894.571	673.122
252.176	14.874	893.818	673.037
253.190	14.840	893.167	672.351
254.205	14.808	892.569	671.710
255.220	14.856	891.303	670.892
256.234	14.924	890.892	670.794
257.249	14.899	890.126	670.060
258.263	14.936	889.547	669.711
259.278	14.834	888.834	668.710
260.293	14.874	888.883	668.844
261.307	14.950	888.033	668.449
262.322	15.033	887.186	668.087
263.336	14.995	886.284	667.197
264.351	14.965	885.898	666.726
265.366	15.051	885.397	666.635
266.380	15.038	884.810	666.081
267.395	15.047	883.812	665.304
268.409	15.005	883.157	664.587
269.424	15.168	882.323	664.548
270.439	15.101	881.415	663.540
271.453	15.047	881.289	663.171
272.468	15.092	880.587	662.762
273.482	15.079	879.654	661.952
274.497	14.936	879.381	661.121
275.512	15.030	878.824	661.017
276.526	14.985	878.676	660.669
277.541	14.986	878.264	660.304
278.555	15.132	877.368	660.148
279.570	15.154	876.736	659.699
280.585	15.223	875.717	659.147
281.599	15.238	874.786	658.447
282.614	15.138	874.348	657.666
283.628	15.183	874.004	657.524
284.643	15.209	873.481	657.178
285.657	15.308	872.367	656.666
286.672	15.303	871.905	656.240
287.687	15.292	871.258	655.654
288.701	15.412	870.504	655.498
289.716	15.251	870.141	654.536
290.730	15.335	869.148	654.058
291.745	15.376	868.648	653.785
292.760	15.425	868.079	653.490
293.774	15.404	867.683	653.051
294.789	15.482	866.932	652.733
295.803	15.473	866.254	652.129
296.818	15.552	865.227	651.607
297.833	15.385	865.035	650.756
298.847	15.463	864.388	650.513
299.862	15.575	863.707	650.375
300.876	15.603	863.263	650.094
301.891	15.617	862.568	649.564
302.906	15.690	862.156	649.479
303.920	15.632	862.222	649.250
304.935	15.741	861.281	648.903
305.949	15.788	860.108	648.142
306.964	15.704	859.524	647.324
307.979	15.680	859.215	646.939
308.993	15.814	858.803	647.088
310.008	15.817	858.273	646.643
311.022	15.667	857.919	645.741
312.037	15.706	856.916	645.080
313.052	15.700	856.423	644.629
314.066	15.662	855.923	644.051
315.081	15.535	855.483	643.176
316.095	15.679	854.557	642.973
317.110	15.657	854.300	642.639
318.125	15.812	853.689	642.716
319.139	15.731	853.094	641.901
320.154	15.763	852.646	641.628
321.168	15.720	852.085	640.986
322.183	15.825	851.240	640.695
323.197	15.951	850.779	640.768
324.212	15.901	850.305	640.168
325.227	15.828	849.402	639.153
326.241	15.828	848.809	638.649
327.256	15.764	848.622	638.208
328.270	15.729	848.442	637.886
329.285	15.692	847.536	637.006
330.300	15.856	846.737	636.970
331.314	15.905	846.372	636.824
332.329	15.940	845.725	636.413
333.343	15.917	845.676	636.235
334.358	15.865	845.300	635.697
335.373	15.964	844.688	635.554
336.387	15.783	844.883	634.962
337.402	15.952	844.246	635.066
338.416	15.979	844.311	635.159
339.431	16.055	843.325	634.648
340.446	16.124	843.086	634.671
341.460	16.117	842.890	634.440
342.475	16.053	842.149	633.585
343.489	16.060	841.784	633.281
344.504	16.181	840.968	633.067
345.519	16.235	840.554	632.902
346.533	16.331	840.296	633.010
347.548	16.355	839.510	632.452
348.562	16.186	839.123	631.473
349.577	16.202	838.334	630.882
350.592	16.186	837.836	630.392
351.606	16.174	836.985	629.653
352.621	16.169	836.573	629.268
353.635	16.189	835.944	628.812
354.650	16.202	835.147	628.206
355.665	16.459	834.516	628.633
356.679	16.336	834.004	627.735
357.694	16.437	833.184	627.436
358.708	16.337	832.788	626.711
359.723	16.372	832.269	626.393
360.738	16.355	831.507	625.703
361.752	16.152	831.293	624.735
362.767	16.365	830.684	625.011
363.781	16.390	829.885	624.445
364.796	16.381	829.539	624.096
365.810	16.521	829.561	624.575
366.825	16.581	828.635	624.043
367.840	16.601	828.354	623.851
368.854	16.521	827.860	623.128
369.869	16.644	827.448	623.215
370.883	16.694	826.754	622.823
371.898	16.628	826.838	622.590
372.913	16.744	826.302	622.556
373.927	16.746	825.700	622.053
374.942	16.714	825.214	621.516
375.956	16.755	824.781	621.284
376.971	16.757	824.393	620.945
377.986	16.833	824.177	621.008
379.000	16.716	823.569	620.066
380.015	16.897	822.900	620.170
381.029	16.747	822.029	618.908
382.044	16.862	821.891	619.172
383.059	16.907	821.337	618.864
384.073	16.887	820.556	618.149
385.088	16.905	819.856	617.630
386.102	16.770	819.592	616.884
387.117	16.896	818.791	616.687
388.132	16.747	818.361	615.765
389.146	16.936	817.767	615.951
390.161	16.925	817.602	615.732
391.175	17.040	816.875	615.547
392.190	16.986	816.406	614.944
393.205	16.757	816.390	614.048
394.219	16.910	815.819	614.116
395.234	16.981	815.016	613.717
396.248	16.943	814.575	613.192
397.263	16.801	814.645	612.676
398.278	16.794	813.915	612.049
399.292	16.924	813.566	612.200
400.307	16.735	813.326	611.284
401.321	16.872	812.624	611.198
402.336	16.867	812.123	610.748
403.350	16.941	811.742	610.675
404.365	17.007	811.316	610.538
405.380	17.140	810.633	610.445
406.394	17.209	810.085	610.226
407.409	17.240	809.224	609.637
408.423	17.254	809.228	609.636
409.438	17.224	809.056	609.343
410.453	17.309	808.823	609.420
411.467	17.204	808.255	608.561
412.482	17.279	807.827	608.453
413.496	17.477	807.364	608.760
414.511	17.296	807.251	607.973
415.526	17.300	806.651	607.482
416.540	17.364	805.975	607.148
417.555	17.332	805.594	606.691
418.569	17.380	805.232	606.538
419.584	17.386	804.907	606.259
420.599	17.314	804.213	605.429
421.613	110.427	1295.111	1475.925
422.628	95.167	1366.628	1476.016
