DTS Sentinel unit serial number:	SN413079Multiplexer serial number:	ORYXHardware model number:	OX4-SRSoftware version number:	ORYX F/W v4.00 Oryx Data Collector v3.7.2.0data status	okinstallation	princeton_trtdifferential loss correction	single-endedforward channel	channel 1reverse channel	N/Adate	2019/09/19time	09:14:35forward acquisition time	60.00reverse acquisition time	0.00gamma	496.2192k internal	0.2342k external	0.2342temperature offset calibration	0.9999default loss term (dB/km)	0.3790temperature slope calibration	1.0000multiplexer offset coefficient	1.0000multiplexer slope coefficient	1.0000fibre end	0.00T internal ref (°C)	22.11T ext. ref 1 (°C)	0.60T ext. ref 2 (°C)	19.24length (m)	temperature (°C)	Stokes	anti-Stokes-747.200	-200.000	0.073	0.353
-746.185	-200.000	0.025	0.145
-745.171	-136.853	-0.106	0.012
-744.156	739.241	-0.119	0.319
-743.142	-108.955	0.301	-0.064
-742.127	90.119	-0.341	0.382
-741.112	-59.199	0.289	0.125
-740.098	-63.633	-0.136	0.056
-739.083	800.000	0.058	0.252
-738.069	-125.917	-0.139	0.021
-737.054	123.721	-0.233	-0.292
-736.039	-200.000	0.030	0.323
-735.025	800.000	0.083	0.316
-734.010	-200.000	0.012	-0.110
-732.996	-200.000	-0.078	-0.370
-731.981	-56.124	0.134	0.060
-730.966	326.585	-0.010	-0.019
-729.952	-84.256	0.094	0.030
-728.937	-14.796	-0.242	0.155
-727.923	357.293	0.103	0.205
-726.908	-154.290	-0.281	-0.019
-725.894	474.991	0.087	0.196
-724.879	531.161	0.124	0.294
-723.864	-23.238	0.144	0.087
-722.850	-192.057	0.273	-0.003
-721.835	-127.065	0.203	-0.030
-720.821	82.688	-0.204	0.221
-719.806	-33.325	0.094	-0.052
-718.791	378.899	-0.038	-0.079
-717.777	129.432	0.028	-0.036
-716.762	449.372	-0.117	-0.258
-715.748	252.276	0.092	-0.157
-714.733	-93.500	0.100	-0.028
-713.718	-21.529	0.299	0.182
-712.704	-200.000	-0.035	-0.181
-711.689	-172.885	0.156	0.005
-710.675	-200.000	-0.020	0.162
-709.660	52.676	0.157	-0.150
-708.645	-90.942	-0.238	0.068
-707.631	-105.569	-0.106	0.024
-706.616	709.749	0.107	0.283
-705.602	-34.817	-0.276	-0.151
-704.587	-200.000	0.030	0.217
-703.572	257.261	0.041	0.070
-702.558	144.174	0.131	-0.175
-701.543	108.656	0.061	-0.073
-700.529	162.062	-0.071	-0.099
-699.514	-1.973	0.087	-0.061
-698.499	71.236	-0.323	0.335
-697.485	45.732	-0.187	-0.173
-696.470	-50.297	-0.317	0.150
-695.456	-181.880	0.076	0.001
-694.441	-135.319	-0.366	0.044
-693.426	395.455	0.069	0.143
-692.412	-121.725	0.360	0.059
-691.397	62.777	-0.168	0.168
-690.383	800.000	0.062	0.229
-689.368	-84.583	0.063	0.020
-688.354	-150.428	0.163	0.013
-687.339	-99.668	-0.213	0.053
-686.324	800.000	0.060	-0.173
-685.310	451.921	0.066	-0.145
-684.295	-58.995	-0.243	0.105
-683.281	61.641	0.240	-0.239
-682.266	85.021	-0.230	-0.252
-681.251	140.723	0.252	-0.332
-680.237	-114.014	-0.234	-0.045
-679.222	800.000	0.084	-0.282
-678.208	-126.718	0.193	0.029
-677.193	65.058	0.178	-0.180
-676.178	191.253	0.108	0.163
-675.164	118.175	-0.043	-0.053
-674.149	445.701	-0.106	-0.234
-673.135	39.182	-0.185	-0.165
-672.120	38.763	-0.233	-0.208
-671.105	-39.873	-0.281	0.147
-670.091	559.200	0.035	-0.084
-669.076	164.512	0.139	-0.196
-668.062	800.000	0.096	0.278
-667.047	-111.130	-0.411	0.084
-666.032	-200.000	-0.021	0.113
-665.018	245.763	-0.079	0.133
-664.003	-136.293	-0.220	-0.026
-662.989	52.520	-0.212	-0.202
-661.974	-110.012	-0.029	0.006
-660.959	694.523	-0.043	-0.114
-659.945	-92.123	0.242	-0.068
-658.930	255.204	-0.161	0.276
-657.916	-200.000	0.120	-0.000
-656.901	30.509	-0.020	-0.017
-655.886	626.637	0.047	0.119
-654.872	-79.233	-0.212	-0.072
-653.857	298.983	0.115	-0.211
-652.843	70.688	-0.110	-0.114
-651.828	800.000	-0.039	-0.109
-650.814	15.338	-0.156	-0.122
-649.799	-108.538	0.178	-0.038
-648.784	5.968	-0.070	0.052
-647.770	-113.127	-0.240	-0.047
-646.755	-88.647	-0.121	-0.036
-645.741	683.248	-0.151	0.394
-644.726	-154.799	0.175	0.012
-643.711	201.881	-0.239	-0.368
-642.697	-62.341	0.525	-0.218
-641.682	-104.544	-0.334	0.077
-640.668	462.040	0.092	0.204
-639.653	-39.528	-0.066	0.034
-638.638	329.610	0.132	-0.252
-637.624	27.711	-0.166	-0.139
-636.609	-54.206	-0.188	-0.085
-635.595	1.709	0.234	0.168
-634.580	47.096	-0.163	0.152
-633.565	6.774	0.063	0.047
-632.551	-200.000	-0.037	-0.201
-631.536	109.122	-0.022	-0.026
-630.522	800.000	0.038	-0.138
-629.507	209.317	0.228	0.357
-628.492	29.667	0.089	0.075
-627.478	-27.550	-0.255	0.147
-626.463	-200.000	-0.073	0.391
-625.449	-156.942	-0.489	0.030
-624.434	35.137	0.050	0.043
-623.419	201.891	-0.054	0.083
-622.405	-65.553	0.280	-0.112
-621.390	-100.406	-0.059	-0.015
-620.376	-104.685	0.119	0.027
-619.361	-200.000	-0.013	0.209
-618.346	800.000	0.087	0.246
-617.332	-51.063	-0.144	0.067
-616.317	-197.959	0.357	-0.002
-615.303	-109.732	0.189	-0.040
-614.288	-200.000	0.003	0.182
-613.273	118.660	-0.053	0.066
-612.259	800.000	-0.034	-0.133
-611.244	-198.521	0.217	0.001
-610.230	69.045	0.032	-0.033
-609.215	261.614	0.101	0.174
-608.201	-200.000	-0.002	-0.203
-607.186	-68.793	0.323	-0.125
-606.171	-200.000	0.349	0.001
-605.157	-5.035	-0.106	-0.073
-604.142	-200.000	-0.032	0.206
-603.128	596.303	-0.041	-0.102
-602.113	-200.000	0.052	0.363
-601.098	-10.924	-0.190	-0.125
-600.084	800.000	0.111	-0.318
-599.069	168.701	-0.163	0.231
-598.055	-62.596	0.118	-0.049
-597.040	-200.000	-0.018	0.133
-596.025	25.284	0.187	-0.155
-595.011	800.000	0.015	-0.060
-593.996	38.147	0.265	-0.235
-592.982	-200.000	0.013	-0.134
-591.967	-200.000	-0.017	0.169
-590.952	21.675	0.042	-0.034
-589.938	156.379	-0.121	0.166
-588.923	510.205	0.120	-0.278
-587.909	213.622	-0.215	-0.338
-586.894	-179.654	0.064	0.001
-585.879	-200.000	0.010	-0.077
-584.865	-200.000	0.001	-0.134
-583.850	-129.053	-0.295	-0.041
-582.836	-200.000	-0.024	0.134
-581.821	308.069	-0.091	0.170
-580.806	418.597	-0.092	-0.196
-579.792	260.373	-0.118	-0.203
-578.777	155.503	-0.155	-0.213
-577.763	-127.737	0.192	-0.028
-576.748	274.519	-0.051	-0.091
-575.733	-60.350	0.064	-0.027
-574.719	741.948	-0.007	0.019
-573.704	-200.000	-0.008	-0.142
-572.690	391.017	-0.101	-0.209
-571.675	306.022	-0.101	-0.187
-570.661	800.000	0.099	0.329
-569.646	458.692	-0.139	-0.308
-568.631	-33.253	-0.231	0.127
-567.617	-110.016	-0.236	-0.049
-566.602	800.000	-0.140	-0.411
-565.588	48.276	0.275	0.256
-564.573	800.000	0.147	0.436
-563.558	800.000	-0.063	-0.247
-562.544	-70.659	0.101	-0.038
-561.529	433.713	0.076	-0.165
-560.515	304.589	-0.039	0.073
-559.500	-200.000	0.041	0.312
-558.485	-200.000	0.162	0.000
-557.471	-62.471	0.213	0.088
-556.456	756.201	-0.107	-0.289
-555.442	-128.141	0.245	-0.035
-554.427	-172.493	-0.105	0.003
-553.412	770.945	-0.151	0.408
-552.398	-157.652	-0.249	0.015
-551.383	-166.087	-0.385	0.016
-550.369	429.349	0.165	-0.355
-549.354	-158.317	-0.294	0.017
-548.339	-200.000	-0.096	-0.679
-547.325	-22.268	-0.192	-0.115
-546.310	410.483	0.086	0.182
-545.296	-200.000	0.022	-0.213
-544.281	-86.025	0.221	-0.068
-543.266	-200.000	-0.064	-0.314
-542.252	163.469	-0.257	0.360
-541.237	800.000	-0.033	0.091
-540.223	336.875	0.151	-0.292
-539.208	-75.237	0.089	-0.032
-538.193	-141.812	-0.351	0.035
-537.179	319.068	-0.056	0.106
-536.164	800.000	-0.071	-0.196
-535.150	102.273	0.214	0.248
-534.135	800.000	0.051	-0.141
-533.121	38.081	-0.241	-0.213
-532.106	-139.399	-0.289	0.031
-531.091	-88.504	0.483	0.143
-530.077	-123.404	-0.416	0.066
-529.062	-73.163	0.058	-0.021
-528.048	298.095	0.055	-0.101
-527.033	-164.814	-0.159	0.007
-526.018	800.000	0.041	-0.137
-525.004	46.945	-0.185	-0.171
-523.989	140.994	0.223	0.293
-522.975	33.835	0.195	0.168
-521.960	800.000	0.061	0.204
-520.945	-34.400	-0.365	0.199
-519.931	-32.540	-0.109	-0.060
-518.916	244.978	-0.116	0.193
-517.902	-114.394	-0.113	0.022
-516.887	63.073	0.101	-0.100
-515.872	-111.571	-0.364	-0.073
-514.858	-50.680	-0.277	-0.130
-513.843	201.638	0.225	-0.344
-512.829	653.371	0.110	-0.281
-511.814	-61.081	0.131	-0.055
-510.799	27.451	-0.234	0.195
-509.785	16.567	-0.203	0.160
-508.770	12.314	0.203	-0.155
-507.756	-117.836	0.330	0.059
-506.741	-200.000	-0.024	-0.191
-505.726	-200.000	-0.008	0.052
-504.712	17.232	-0.096	0.075
-503.697	94.919	0.078	0.088
-502.683	-94.667	-0.219	0.059
-501.668	-130.735	0.180	0.024
-500.653	94.656	-0.192	0.217
-499.639	-10.168	0.073	-0.048
-498.624	-86.270	-0.339	0.104
-497.610	800.000	0.019	-0.073
-496.595	-135.604	0.390	-0.046
-495.581	265.962	0.153	0.265
-494.566	-200.000	-0.004	-0.021
-493.551	-103.991	0.284	0.066
-492.537	-115.048	-0.128	0.024
-491.522	36.845	0.175	0.153
-490.508	-88.281	-0.311	-0.092
-489.493	-200.000	0.317	0.000
-488.478	-200.000	-0.001	0.221
-487.464	756.531	-0.056	0.150
-486.449	18.500	-0.338	-0.268
-485.435	396.995	0.171	-0.355
-484.420	-200.000	0.038	-0.167
-483.405	-126.369	-0.147	-0.022
-482.391	73.880	-0.129	-0.134
-481.376	-2.383	0.029	-0.020
-480.362	-200.000	0.050	-0.354
-479.347	89.232	-0.101	-0.112
-478.332	88.570	-0.025	-0.028
-477.318	800.000	0.055	0.195
-476.303	-15.776	0.292	-0.184
-475.289	-130.096	0.192	0.026
-474.274	712.482	0.019	-0.050
-473.259	-109.747	0.117	-0.024
-472.245	-12.200	-0.121	0.079
-471.230	433.874	0.058	0.125
-470.216	-200.000	0.011	0.239
-469.201	-200.000	-0.017	0.099
-468.186	-103.855	-0.208	0.048
-467.172	184.050	0.075	-0.110
-466.157	42.841	-0.122	-0.110
-465.143	32.831	0.197	-0.169
-464.128	-92.579	-0.191	-0.053
-463.113	-15.259	0.213	-0.135
-462.099	207.105	-0.206	0.318
-461.084	351.692	0.115	0.225
-460.070	800.000	-0.085	-0.250
-459.055	-200.000	0.019	0.119
-458.040	-200.000	0.023	0.220
-457.026	79.428	-0.176	0.187
-456.011	-151.379	-0.532	-0.039
-454.997	65.333	-0.095	-0.095
-453.982	283.039	-0.211	-0.375
-452.968	-118.197	-0.285	-0.050
-451.953	320.728	-0.096	-0.180
-450.938	800.000	0.088	-0.243
-449.924	637.563	-0.023	-0.059
-448.909	217.057	0.105	0.166
-447.895	-5.844	0.102	0.069
-446.880	-10.267	0.064	-0.042
-445.865	-142.939	0.225	0.022
-444.851	-200.000	-0.030	-0.312
-443.836	800.000	0.052	-0.146
-442.822	-41.984	-0.179	-0.091
-441.807	-64.002	-0.147	0.060
-440.792	-116.170	-0.114	0.021
-439.778	20.882	-0.125	0.101
-438.763	-200.000	-0.022	-0.165
-437.749	-66.664	-0.110	0.043
-436.734	240.311	0.058	-0.096
-435.719	-43.194	-0.173	-0.087
-434.705	-103.357	0.125	0.029
-433.690	-200.000	0.016	0.247
-432.676	-46.981	-0.151	0.073
-431.661	-200.000	-0.014	0.103
-430.646	110.653	-0.148	0.176
-429.632	-38.548	-0.258	0.135
-428.617	-183.598	0.430	0.007
-427.603	-95.281	0.234	0.062
-426.588	321.875	-0.079	-0.149
-425.573	-200.000	-0.019	0.117
-424.559	174.930	-0.217	0.310
-423.544	261.576	-0.160	-0.274
-422.530	29.027	0.237	-0.198
-421.515	-31.193	0.157	-0.088
-420.500	-84.002	0.118	-0.037
-419.486	-200.000	-0.007	-0.049
-418.471	55.350	0.050	-0.048
-417.457	89.551	-0.200	0.220
-416.442	42.880	-0.043	-0.039
-415.428	38.850	0.061	0.054
-414.413	115.766	-0.198	-0.240
-413.398	-139.348	0.368	-0.039
-412.384	800.000	-0.112	0.327
-411.369	-91.980	0.172	0.048
-410.355	-165.718	0.369	0.016
-409.340	-200.000	0.012	0.076
-408.325	800.000	0.078	0.225
-407.311	16.720	0.074	-0.058
-406.296	-49.913	-0.070	0.033
-405.282	-160.789	-0.076	0.004
-404.267	-110.434	-0.269	-0.055
-403.252	800.000	0.047	0.204
-402.238	139.633	0.171	-0.222
-401.223	800.000	0.062	-0.263
-400.209	-9.893	-0.445	0.293
-399.194	800.000	-0.058	0.201
-398.179	-37.647	-0.341	-0.180
-397.165	800.000	0.010	-0.040
-396.150	800.000	0.034	0.102
-395.136	219.462	0.165	0.261
-394.121	37.473	-0.308	-0.270
-393.106	657.048	0.109	0.278
-392.092	276.913	-0.077	0.135
-391.077	17.893	0.127	-0.100
-390.063	447.448	-0.069	-0.149
-389.048	573.609	-0.139	-0.335
-388.033	-65.831	-0.048	0.019
-387.019	235.300	0.112	-0.182
-386.004	24.807	-0.237	0.194
-384.990	800.000	0.077	-0.298
-383.975	22.229	-0.181	0.146
-382.960	-71.103	-0.336	0.125
-381.946	-158.857	-0.231	-0.013
-380.931	-104.068	0.302	0.069
-379.917	800.000	-0.137	0.397
-378.902	-130.850	-0.169	0.022
-377.888	19.743	0.255	0.203
-376.873	169.081	0.034	0.048
-375.858	59.755	-0.013	0.013
-374.844	-89.970	-0.221	0.064
-373.829	-200.000	-0.011	-0.131
-372.815	-157.221	-0.125	-0.007
-371.800	78.493	-0.159	0.168
-370.785	-21.988	0.209	0.126
-369.771	-200.000	0.044	0.236
-368.756	-188.138	0.350	0.004
-367.742	46.629	-0.075	0.069
-366.727	-200.000	0.017	0.292
-365.712	109.482	0.156	0.184
-364.698	431.416	-0.087	0.186
-363.683	-200.000	-0.116	-0.515
-362.669	119.615	-0.120	0.147
-361.654	434.476	-0.028	-0.061
-360.639	-111.251	-0.395	0.080
-359.625	162.323	0.247	0.342
-358.610	-14.942	0.127	-0.081
-357.596	-200.000	0.038	0.392
-356.581	-3.482	-0.073	0.050
-355.566	83.855	0.016	-0.017
-354.552	22.263	-0.139	0.112
-353.537	157.919	0.166	0.227
-352.523	-185.847	-0.098	0.001
-351.508	-200.000	0.070	0.328
-350.493	682.364	-0.150	0.386
-349.479	-110.285	-0.419	-0.086
-348.464	554.920	-0.122	0.290
-347.450	584.104	0.097	-0.235
-346.435	-129.109	0.120	-0.017
-345.420	-114.773	-0.226	-0.043
-344.406	-110.205	-0.201	0.041
-343.391	-50.918	0.153	-0.071
-342.377	-72.461	0.087	-0.032
-341.362	-200.000	-0.012	0.152
-340.348	51.238	-0.171	0.160
-339.333	-23.977	-0.153	0.090
-338.318	-76.371	0.272	0.095
-337.304	115.901	0.179	0.216
-336.289	-100.913	0.173	0.042
-335.275	-113.059	-0.234	0.046
-334.260	-52.388	0.091	-0.041
-333.245	800.000	-0.042	0.141
-332.231	425.019	-0.210	0.445
-331.216	-200.000	0.043	-0.221
-330.202	-35.304	-0.057	-0.030
-329.187	-46.188	0.099	-0.048
-328.172	268.089	-0.138	0.239
-327.158	16.887	0.396	0.309
-326.143	44.842	0.140	-0.127
-325.129	-53.976	0.135	-0.060
-324.114	-112.738	0.496	0.097
-323.099	-200.000	-0.011	0.371
-322.085	219.858	0.156	0.246
-321.070	49.505	0.142	-0.132
-320.056	70.688	0.035	0.036
-319.041	41.930	-0.124	-0.111
-318.026	-80.693	-0.127	0.042
-317.012	114.184	-0.115	-0.138
-315.997	18.788	-0.188	0.149
-314.983	-90.192	-0.125	0.036
-313.968	49.460	-0.229	-0.212
-312.953	759.355	-0.025	0.068
-311.939	800.000	0.106	0.439
-310.924	-117.687	-0.238	-0.042
-309.910	800.000	0.046	-0.139
-308.895	-200.000	0.018	0.096
-307.880	-134.009	-0.279	0.034
-306.866	800.000	-0.027	-0.075
-305.851	-200.000	0.008	0.290
-304.837	344.786	-0.213	0.413
-303.822	800.000	0.033	0.122
-302.807	-200.000	0.056	-0.423
-301.793	-200.000	0.008	0.228
-300.778	-33.146	-0.102	-0.056
-299.764	-78.853	-0.137	-0.046
-298.749	-131.702	0.174	-0.023
-297.735	15.371	0.157	-0.121
-296.720	24.929	-0.414	0.338
-295.705	800.000	0.053	-0.227
-294.691	-56.994	0.348	-0.151
-293.676	-113.019	-0.143	-0.028
-292.662	-61.541	0.249	0.103
-291.647	800.000	0.055	0.159
-290.632	-200.000	0.003	0.156
-289.618	-200.000	-0.012	-0.126
-288.603	800.000	0.032	0.102
-287.589	-81.368	0.272	0.088
-286.574	-80.445	0.281	0.092
-285.559	124.299	-0.123	-0.152
-284.545	-47.333	0.270	0.129
-283.530	180.921	0.115	-0.166
-282.516	-11.114	-0.109	0.071
-281.501	88.802	0.089	0.098
-280.486	33.311	0.189	-0.162
-279.472	-41.442	0.159	-0.081
-278.457	-200.000	-0.036	-0.218
-277.443	-92.671	0.401	-0.111
-276.428	15.361	-0.140	-0.108
-275.413	-200.000	0.008	0.347
-274.399	300.232	0.163	-0.295
-273.384	-200.000	0.015	0.506
-272.370	-97.594	0.525	0.134
-271.355	-24.783	-0.097	0.056
-270.340	-19.007	0.292	0.179
-269.326	-77.718	-0.220	-0.075
-268.311	52.311	0.195	-0.183
-267.297	283.772	0.119	-0.211
-266.282	-200.000	-0.018	0.115
-265.267	9.190	-0.113	-0.084
-264.253	392.445	0.071	-0.145
-263.238	52.727	-0.105	-0.098
-262.224	-200.000	0.034	-0.634
-261.209	-200.000	0.048	-0.214
-260.195	-4.630	0.052	-0.035
-259.180	150.398	0.106	-0.141
-258.165	123.220	0.185	0.228
-257.151	-106.660	0.268	-0.059
-256.136	-200.000	-0.108	-0.000
-255.122	25.857	0.189	0.155
-254.107	49.844	-0.093	0.087
-253.092	-76.496	0.071	0.024
-252.078	-10.040	0.173	-0.113
-251.063	-51.739	-0.048	0.022
-250.049	-197.784	-0.182	0.001
-249.034	-2.673	-0.137	0.094
-248.019	-200.000	-0.005	-0.025
-247.005	-101.312	0.149	-0.036
-245.990	-23.839	0.177	-0.104
-244.976	-132.521	0.209	0.026
-243.961	1.149	0.327	-0.231
-242.946	117.925	-0.239	0.289
-241.932	-200.000	0.091	-0.440
-240.917	193.407	0.195	-0.289
-239.903	800.000	-0.106	0.323
-238.888	92.798	-0.039	0.044
-237.873	59.339	-0.029	0.028
-236.859	-200.000	-0.014	-0.322
-235.844	799.826	-0.023	0.063
-234.830	-58.254	-0.163	-0.070
-233.815	800.000	-0.141	0.540
-232.800	140.737	0.134	0.174
-231.786	-105.247	-0.099	0.022
-230.771	800.000	0.006	0.024
-229.757	800.000	-0.075	-0.221
-228.742	-158.529	-0.104	0.006
-227.727	219.973	0.146	0.230
-226.713	-19.422	-0.337	-0.205
-225.698	800.000	0.026	-0.084
-224.684	-200.000	0.013	-0.248
-223.669	800.000	-0.107	-0.403
-222.655	247.855	0.197	0.327
-221.640	-200.000	-0.039	-0.220
-220.625	-14.357	0.142	-0.090
-219.611	-28.870	0.237	0.134
-218.596	14.934	-0.180	0.138
-217.582	-142.873	-0.142	0.014
-216.567	186.153	-0.112	0.164
-215.552	-200.000	-0.016	0.109
-214.538	-200.000	0.033	-0.207
-213.523	78.263	0.067	-0.070
-212.509	-200.000	0.011	-0.212
-211.494	-67.330	0.310	-0.119
-210.479	73.212	-0.097	0.099
-209.465	-99.460	-0.104	-0.026
-208.450	-21.205	0.237	-0.142
-207.436	-199.518	0.313	-0.002
-206.421	800.000	0.157	0.432
-205.406	-104.868	0.203	-0.046
-204.392	349.829	0.061	0.117
-203.377	-80.000	0.384	-0.126
-202.363	398.511	0.085	-0.174
-201.348	346.591	0.078	-0.150
-200.333	312.062	0.258	-0.475
-199.319	252.465	-0.137	-0.228
-198.304	65.420	0.101	0.100
-197.290	394.163	-0.170	-0.348
-196.275	-200.000	0.007	0.054
-195.260	800.000	0.061	0.227
-194.246	-21.986	0.236	0.141
-193.231	-84.223	-0.150	0.047
-192.217	-200.000	-0.017	-0.109
-191.202	-7.105	-0.209	0.139
-190.187	-41.718	-0.267	0.134
-189.173	8.527	0.252	0.186
-188.158	-63.603	-0.238	0.096
-187.144	-95.830	-0.047	0.012
-186.129	-200.000	0.024	-0.131
-185.114	173.880	-0.060	0.084
-184.100	564.992	0.079	-0.188
-183.085	800.000	0.091	-0.255
-182.071	-42.342	0.212	-0.106
-181.056	-104.132	-0.196	0.045
-180.042	374.719	-0.090	-0.180
-179.027	-200.000	-0.014	-0.530
-178.012	-36.069	0.424	-0.224
-176.998	-0.903	0.237	-0.165
-175.983	-40.179	0.077	-0.039
-174.969	50.076	0.019	-0.018
-173.954	271.329	-0.280	-0.483
-172.939	32.103	-0.155	0.131
-171.925	284.689	-0.156	0.275
-170.910	-67.305	0.346	0.133
-169.896	800.000	-0.049	-0.181
-168.881	-62.969	0.116	-0.047
-167.866	-200.000	0.004	-0.104
-166.852	28.456	-0.072	-0.060
-165.837	696.017	-0.071	-0.182
-164.823	-200.000	0.003	0.136
-163.808	20.396	0.201	0.159
-162.793	-30.792	-0.289	-0.160
-161.779	-33.884	0.149	-0.080
-160.764	-200.000	-0.017	-0.139
-159.750	-28.575	0.101	-0.057
-158.735	800.000	0.153	0.439
-157.720	-80.333	0.282	-0.092
-156.706	-58.357	-0.348	0.148
-155.691	-134.545	0.106	0.013
-154.677	18.969	-0.236	-0.185
-153.662	-200.000	-0.003	-0.355
-152.647	75.248	-0.146	0.151
-151.633	-124.467	-0.286	0.044
-150.618	-85.179	0.409	0.125
-149.604	-61.328	0.082	-0.034
-148.589	800.000	-0.059	-0.238
-147.574	800.000	0.051	0.201
-146.560	-200.000	0.032	0.221
-145.545	754.293	0.087	-0.230
-144.531	148.280	-0.063	-0.084
-143.516	377.870	0.022	-0.044
-142.502	-200.000	-0.011	-0.055
-141.487	360.075	-0.060	0.118
-140.472	-36.509	-0.092	0.049
-139.458	800.000	0.076	-0.310
-138.443	1.971	-0.339	-0.239
-137.429	308.226	0.093	0.170
-136.414	84.732	-0.083	0.089
-135.399	-200.000	-0.025	0.324
-134.385	40.754	0.147	0.130
-133.370	-169.654	0.305	0.011
-132.356	-53.012	-0.170	-0.077
-131.341	336.974	-0.196	0.372
-130.326	-57.004	0.328	-0.141
-129.312	1.964	0.030	0.021
-128.297	-26.881	0.163	-0.093
-127.283	-70.293	-0.100	0.037
-126.268	800.000	-0.050	0.168
-125.253	-72.108	-0.117	-0.042
-124.239	-1.653	0.151	-0.104
-123.224	351.834	-0.049	0.095
-122.210	800.000	0.037	-0.109
-121.195	-200.000	0.024	0.209
-120.180	467.741	0.148	-0.323
-119.166	233.251	-0.079	-0.127
-118.151	-200.000	0.013	0.156
-117.137	-200.000	0.016	0.114
-116.122	-127.279	-0.170	-0.024
-115.107	-168.191	0.158	-0.006
-114.093	-148.289	0.052	0.004
-113.078	-180.565	0.098	-0.002
-112.064	84.180	0.086	-0.092
-111.049	407.782	-0.088	0.181
-110.034	54.836	0.092	0.086
-109.020	757.116	-0.093	-0.247
-108.005	-59.367	-0.096	-0.040
-106.991	-200.000	0.003	-0.028
-105.976	-200.000	-0.038	0.358
-104.962	-200.000	-0.003	0.078
-103.947	61.365	-0.197	0.191
-102.932	800.000	0.067	0.262
-101.918	800.000	0.074	0.207
-100.903	134.618	-0.118	-0.150
-99.889	85.670	-0.157	0.168
-98.874	-200.000	0.016	0.326
-97.859	800.000	0.104	-0.338
-96.845	-10.432	-0.223	0.144
-95.830	-200.000	0.017	0.195
-94.816	-73.530	0.285	0.102
-93.801	-67.777	0.197	-0.075
-92.786	-200.000	0.016	-0.138
-91.772	-67.165	0.209	-0.080
-90.757	-11.444	-0.202	-0.130
-89.743	-35.831	0.171	-0.091
-88.728	-200.000	0.003	0.225
-87.713	-172.688	0.181	0.006
-86.699	-57.460	-0.319	-0.137
-85.684	-130.937	0.178	-0.023
-84.670	-90.748	-0.066	0.019
-83.655	-200.000	-0.008	-0.065
-82.640	-86.203	-0.202	0.061
-81.626	-31.823	0.207	0.113
-80.611	-200.000	-0.026	0.167
-79.597	265.740	-0.065	-0.110
-78.582	20.393	-0.050	-0.040
-77.567	77.082	0.021	-0.022
-76.553	800.000	0.039	0.143
-75.538	-104.733	0.304	0.068
-74.524	-151.286	0.196	-0.014
-73.509	55.409	0.084	-0.080
-72.494	800.000	-0.101	0.310
-71.480	-49.202	0.301	0.140
-70.465	800.000	0.149	0.524
-69.451	-28.028	0.283	0.160
-68.436	441.022	0.091	0.193
-67.422	-19.579	0.086	-0.052
-66.407	-85.101	0.098	-0.030
-65.392	33.007	0.249	0.211
-64.378	-200.000	0.023	-0.157
-63.363	84.085	0.154	0.164
-62.349	700.030	-0.143	0.367
-61.334	181.363	-0.980	-1.405
-60.319	76.370	0.868	0.896
-59.305	613.384	-0.460	-1.123
-58.290	432.984	0.655	1.386
-57.276	195.755	0.833	1.234
-56.261	-200.000	126.879	629.250
-55.246	363.874	1622.181	3180.134
-54.232	134.781	2792.401	3534.414
-53.217	91.429	2189.994	2398.540
-52.203	33.836	1612.116	1367.687
-51.188	25.269	1354.527	1097.006
-50.173	22.850	1316.082	1051.440
-49.159	49.956	1386.682	1275.083
-48.144	46.740	1397.814	1265.576
-47.130	25.470	1345.301	1090.582
-46.115	22.274	1325.612	1055.428
-45.100	21.989	1320.680	1049.757
-44.086	21.983	1318.016	1047.565
-43.071	21.887	1316.085	1045.413
-42.057	21.923	1313.509	1043.539
-41.042	22.030	1312.373	1043.232
-40.027	21.994	1311.243	1042.080
-39.013	21.991	1308.826	1040.097
-37.998	21.947	1307.344	1038.616
-36.984	22.022	1305.359	1037.447
-35.969	22.117	1303.061	1036.136
-34.954	22.236	1301.581	1035.622
-33.940	22.097	1300.551	1033.943
-32.925	22.167	1299.033	1033.105
-31.911	22.177	1297.751	1032.103
-30.896	22.211	1296.354	1031.152
-29.881	22.284	1294.877	1030.364
-28.867	22.159	1294.254	1029.096
-27.852	22.214	1292.659	1028.108
-26.838	22.237	1290.580	1026.549
-25.823	22.253	1289.507	1025.745
-24.809	22.151	1288.210	1024.078
-23.794	22.259	1286.610	1023.393
-22.779	22.122	1285.707	1021.842
-21.765	22.303	1283.974	1021.472
-20.750	22.161	1283.042	1019.868
-19.736	22.141	1281.821	1018.742
-18.721	22.052	1280.319	1016.992
-17.706	22.085	1279.293	1016.326
-16.692	22.007	1278.414	1015.139
-15.677	22.025	1277.157	1014.201
-14.663	22.061	1276.273	1013.667
-13.648	22.131	1274.748	1012.818
-12.633	22.085	1273.988	1011.912
-11.619	22.046	1273.516	1011.271
-10.604	22.046	1272.396	1010.341
-9.590	22.053	1271.744	1009.823
-8.575	21.989	1270.468	1008.400
-7.560	22.012	1269.701	1007.884
-6.546	22.015	1269.305	1007.550
-5.531	22.083	1267.901	1006.785
-4.517	22.177	1266.923	1006.505
-3.502	22.048	1266.407	1005.318
-2.487	21.946	1265.615	1004.068
-1.473	22.063	1261.253	1001.233
-0.458	21.007	1246.907	983.847
0.556	16.974	1232.451	951.379
1.571	14.045	1241.815	941.946
2.586	13.541	1257.449	950.832
3.600	13.040	1244.528	938.129
4.615	9.421	1171.455	863.576
5.629	3.456	1099.818	780.571
6.644	0.744	1083.347	755.275
7.659	0.660	1081.165	753.268
8.673	0.523	1080.388	751.977
9.688	0.484	1079.249	750.922
10.702	0.768	1076.707	750.498
11.717	4.383	1080.819	771.286
12.731	10.858	1089.721	809.921
13.746	15.577	1095.667	837.857
14.761	17.078	1096.832	846.159
15.775	16.427	1095.099	841.507
16.790	15.411	1093.451	835.112
17.804	14.723	1091.582	830.194
18.819	14.301	1090.927	827.523
19.834	14.222	1089.686	826.118
20.848	13.963	1089.051	824.279
21.863	13.676	1087.928	821.934
22.877	13.571	1087.176	820.769
23.892	13.559	1086.373	820.033
24.907	13.437	1085.825	818.945
25.921	13.429	1085.076	818.268
26.936	13.532	1084.275	818.100
27.950	13.659	1083.329	817.938
28.965	13.586	1082.394	816.800
29.980	13.783	1080.235	816.066
30.994	13.688	1079.530	814.998
32.009	13.661	1078.769	814.218
33.023	13.732	1077.589	813.602
34.038	13.660	1076.479	812.339
35.053	13.767	1075.357	811.944
36.067	13.719	1074.510	810.998
37.082	13.681	1073.898	810.280
38.096	13.620	1073.331	809.484
39.111	13.716	1072.676	809.383
40.126	13.682	1070.709	807.663
41.140	13.618	1069.636	806.471
42.155	13.505	1068.976	805.355
43.169	13.599	1067.400	804.550
44.184	13.452	1066.682	803.225
45.199	13.523	1065.526	802.629
46.213	13.641	1064.499	802.357
47.228	13.663	1063.024	801.280
48.242	13.570	1062.413	800.296
49.257	13.615	1061.279	799.589
50.271	13.679	1060.788	799.460
51.286	13.609	1059.914	798.393
52.301	13.659	1058.583	797.557
53.315	13.559	1057.376	796.096
54.330	13.522	1056.982	795.555
55.344	13.492	1055.941	794.553
56.359	13.552	1055.202	794.218
57.374	13.521	1053.782	792.930
58.388	13.569	1052.908	792.430
59.403	13.530	1052.492	791.859
60.417	13.509	1051.584	791.009
61.432	13.482	1050.805	790.225
62.447	13.443	1050.004	789.363
63.461	13.491	1049.005	788.773
64.476	13.447	1047.989	787.731
65.490	13.511	1047.405	787.524
66.505	13.469	1046.496	786.571
67.520	13.519	1045.672	786.122
68.534	13.510	1045.156	785.620
69.549	13.603	1044.046	785.156
70.563	13.435	1043.848	784.143
71.578	13.484	1042.160	783.036
72.593	13.424	1042.117	782.652
73.607	13.457	1041.054	781.941
74.622	13.333	1040.891	781.163
75.636	13.483	1039.837	781.009
76.651	13.342	1039.209	779.805
77.666	13.449	1038.480	779.691
78.680	13.424	1037.649	778.882
79.695	13.451	1036.872	778.359
80.709	13.558	1036.193	778.280
81.724	13.491	1035.603	777.457
82.739	13.508	1035.021	777.029
83.753	13.651	1033.859	776.756
84.768	13.682	1032.772	776.018
85.782	13.642	1031.897	775.105
86.797	13.575	1031.214	774.209
87.812	13.610	1030.156	773.512
88.826	13.687	1029.052	772.974
89.841	13.719	1028.271	772.465
90.855	13.672	1027.534	771.624
91.870	13.648	1026.865	770.942
92.884	13.748	1025.529	770.338
93.899	13.681	1024.975	769.542
94.914	13.787	1024.092	769.301
95.928	13.703	1023.157	768.143
96.943	13.724	1022.043	767.336
97.957	13.694	1021.549	766.756
98.972	13.702	1020.560	765.982
99.987	13.792	1019.507	765.540
101.001	13.694	1019.146	764.749
102.016	13.576	1018.448	763.617
103.030	13.780	1017.024	763.417
104.045	13.677	1016.360	762.379
105.060	13.617	1015.698	761.539
106.074	13.678	1014.565	760.903
107.089	13.672	1013.385	759.922
108.103	13.429	1012.957	758.422
109.118	13.505	1012.038	758.015
110.133	13.584	1010.824	757.401
111.147	13.503	1010.495	756.714
112.162	13.588	1009.041	755.949
113.176	13.597	1008.587	755.582
114.191	13.608	1008.384	755.412
115.206	13.574	1007.616	754.616
116.220	13.650	1006.821	754.302
117.235	13.663	1005.246	753.110
118.249	13.723	1004.241	752.564
119.264	13.605	1003.792	751.629
120.279	13.546	1003.172	750.829
121.293	13.555	1002.239	750.104
122.308	13.499	1001.396	749.155
123.322	13.669	999.998	748.808
124.337	13.605	998.893	747.625
125.352	13.651	998.036	747.128
126.366	13.613	997.258	746.305
127.381	13.708	995.624	745.447
128.395	13.578	994.978	744.314
129.410	13.629	994.303	743.971
130.424	13.511	993.553	742.814
131.439	13.764	992.226	742.891
132.454	13.743	991.544	742.218
133.468	13.725	990.643	741.396
134.483	13.629	989.719	740.213
135.497	13.600	989.139	739.585
136.512	13.611	988.185	738.853
137.527	13.670	987.206	738.318
138.541	13.701	986.756	738.055
139.556	13.697	985.979	737.390
140.570	13.838	985.342	737.476
141.585	13.955	983.910	736.856
142.600	13.795	983.207	735.558
143.614	13.918	982.058	735.179
144.629	13.805	981.896	734.491
145.643	13.837	980.541	733.553
146.658	13.786	979.894	732.781
147.673	13.762	978.525	731.583
148.687	13.726	978.033	730.995
149.702	13.669	977.401	730.206
150.716	13.775	976.533	729.957
151.731	13.843	975.403	729.349
152.746	13.803	975.093	728.876
153.760	14.007	974.090	728.957
154.775	13.877	973.959	728.224
155.789	13.918	973.133	727.721
156.804	13.978	972.143	727.182
157.819	14.024	971.656	726.951
158.833	14.098	970.783	726.559
159.848	14.044	970.389	725.964
160.862	14.024	969.334	725.022
161.877	13.966	968.415	724.018
162.892	14.015	967.191	723.253
163.906	13.979	966.193	722.286
164.921	13.943	965.856	721.811
165.935	14.153	964.670	721.772
166.950	14.029	963.861	720.566
167.964	14.059	963.099	720.064
168.979	14.019	961.985	718.995
169.994	13.975	961.204	718.159
171.008	14.107	960.835	718.389
172.023	14.056	959.960	717.452
173.037	14.081	959.213	716.937
174.052	14.074	958.615	716.398
175.067	14.105	957.756	715.825
176.081	14.007	957.405	715.077
177.096	14.213	956.500	715.225
178.110	14.142	956.130	714.579
179.125	14.131	955.160	713.744
180.140	14.128	955.104	713.626
181.154	14.065	954.285	712.682
182.169	14.307	953.409	713.000
183.183	14.186	953.045	712.147
184.198	14.231	952.354	711.759
185.213	14.214	951.693	711.129
186.227	14.283	950.875	710.751
187.242	14.288	950.206	710.208
188.256	14.243	949.683	709.562
189.271	14.354	948.984	709.449
190.286	14.222	948.026	708.110
191.300	14.367	947.227	708.064
192.315	14.050	947.052	706.525
193.329	14.018	946.847	706.175
194.344	14.250	945.629	706.186
195.359	14.333	945.109	706.089
196.373	14.371	943.918	705.298
197.388	14.369	944.036	705.313
198.402	14.314	943.289	704.462
199.417	14.514	942.617	704.741
200.432	14.545	942.024	704.369
201.446	14.559	941.575	704.030
202.461	14.545	941.432	703.800
203.475	14.530	940.397	702.899
204.490	14.537	939.391	702.117
205.504	14.527	938.428	701.295
206.519	14.501	938.336	701.053
207.534	14.615	937.284	700.683
208.548	14.569	936.591	699.913
209.563	14.548	935.895	699.238
210.577	14.524	935.449	698.746
211.592	14.770	934.398	698.928
212.607	14.597	933.853	697.732
213.621	14.639	933.115	697.298
214.636	14.710	932.470	697.048
215.650	14.761	932.058	696.893
216.665	14.633	931.231	695.681
217.680	14.739	930.580	695.572
218.694	14.652	929.932	694.663
219.709	14.763	928.919	694.306
220.723	14.825	928.382	694.103
221.738	14.716	927.614	693.014
222.753	14.729	927.477	692.904
223.767	14.839	926.453	692.536
224.782	14.818	926.223	692.215
225.796	14.788	925.711	691.646
226.811	14.826	924.756	691.028
227.826	14.830	923.710	690.202
228.840	14.870	923.026	689.797
229.855	14.920	922.136	689.275
230.869	14.793	921.833	688.465
231.884	14.893	920.985	688.181
232.899	14.935	920.465	687.906
233.913	14.820	920.065	687.073
234.928	14.972	918.747	686.652
235.942	14.952	918.484	686.312
236.957	14.912	917.871	685.630
237.972	14.837	917.262	684.807
238.986	14.946	916.930	684.943
240.001	14.884	916.342	684.188
241.015	14.833	915.512	683.302
242.030	14.893	914.965	683.077
243.045	15.084	914.291	683.294
244.059	15.015	913.291	682.203
245.074	15.005	912.933	681.838
246.088	15.101	912.263	681.666
247.103	15.113	911.861	681.354
248.117	15.113	910.921	680.592
249.132	15.410	910.040	681.079
250.147	15.153	910.158	680.062
251.161	15.046	909.209	678.859
252.176	15.233	908.442	678.986
253.190	15.367	907.540	678.795
254.205	15.401	907.017	678.480
255.220	15.341	906.363	677.688
256.234	15.396	905.987	677.568
257.249	15.398	904.847	676.664
258.263	15.418	904.107	676.133
259.278	15.387	903.424	675.437
260.293	15.593	902.291	675.356
261.307	15.530	902.184	674.967
262.322	15.627	901.524	674.803
263.336	15.433	901.152	673.684
264.351	15.524	900.394	673.425
265.366	15.534	900.083	673.169
266.380	15.590	899.250	672.711
267.395	15.554	898.005	671.576
268.409	15.754	897.240	671.746
269.424	15.584	896.805	670.683
270.439	15.591	896.216	670.209
271.453	15.697	895.357	669.930
272.468	15.572	894.916	669.044
273.482	15.700	894.099	668.881
274.497	15.759	893.626	668.704
275.512	15.573	893.583	667.873
276.526	15.582	892.856	667.307
277.541	15.666	892.177	667.073
278.555	15.751	891.527	666.864
279.570	15.555	891.050	665.671
280.585	15.839	890.104	666.030
281.599	15.797	889.086	665.043
282.614	15.822	888.748	664.833
283.628	15.765	888.559	664.406
284.643	15.798	887.874	663.965
285.657	15.939	886.844	663.692
286.672	15.817	886.408	662.828
287.687	15.881	885.642	662.449
288.701	15.832	885.312	661.948
289.716	15.847	884.960	661.685
290.730	16.065	883.980	661.752
291.745	15.851	883.469	660.472
292.760	16.043	882.827	660.685
293.774	15.962	881.802	659.542
294.789	16.026	881.415	659.446
295.803	15.974	880.716	658.661
296.818	16.084	879.600	658.194
297.833	16.095	878.985	657.720
298.847	16.003	878.493	656.934
299.862	16.028	878.243	656.790
300.876	16.073	877.494	656.347
301.891	16.122	876.837	655.987
302.906	16.114	876.393	655.566
303.920	16.117	876.036	655.251
304.935	16.212	875.494	655.158
305.949	16.193	874.668	654.406
306.964	16.123	874.039	653.607
307.979	16.117	873.755	653.315
308.993	16.179	872.989	652.923
310.008	16.380	871.960	652.874
311.022	16.346	871.865	652.612
312.037	16.240	870.934	651.449
313.052	16.229	870.353	650.914
314.066	16.216	869.886	650.456
315.081	16.305	869.094	650.151
316.095	16.328	868.349	649.624
317.110	16.285	867.977	649.125
318.125	16.263	867.544	648.655
319.139	16.342	867.191	648.639
320.154	16.351	866.260	647.920
321.168	16.298	866.243	647.647
322.183	16.273	865.890	647.231
323.197	16.431	865.057	647.155
324.212	16.434	864.576	646.748
325.227	16.384	864.040	646.098
326.241	16.509	863.006	645.747
327.256	16.398	862.751	645.074
328.270	16.367	862.223	644.504
329.285	16.247	861.866	643.725
330.300	16.379	860.814	643.383
331.314	16.385	860.283	642.952
332.329	16.443	859.949	642.864
333.343	16.651	859.222	643.058
334.358	16.574	859.027	642.560
335.373	16.503	858.529	641.863
336.387	16.643	858.283	642.151
337.402	16.614	858.272	641.976
338.416	16.566	858.026	641.554
339.431	16.692	857.240	641.386
340.446	16.647	856.628	640.704
341.460	16.756	856.256	640.781
342.475	16.820	856.063	640.820
343.489	16.768	855.533	640.172
344.504	16.838	854.602	639.680
345.519	16.594	854.822	638.868
346.533	16.838	853.665	638.867
347.548	16.751	853.273	638.189
348.562	16.748	852.800	637.766
349.577	16.819	852.630	637.853
350.592	16.831	851.669	637.124
351.606	16.715	851.108	636.208
352.621	16.776	850.194	635.700
353.635	16.781	849.609	635.223
354.650	16.840	849.047	634.968
355.665	16.826	848.200	634.227
356.679	16.917	847.810	634.220
357.694	16.995	846.692	633.618
358.708	16.889	846.324	632.891
359.723	17.040	845.686	632.923
360.738	17.014	845.311	632.488
361.752	17.137	844.575	632.339
362.767	17.239	843.997	632.230
363.781	17.136	843.843	631.676
364.796	16.906	843.482	630.494
365.810	17.185	842.684	630.880
366.825	17.111	842.558	630.455
367.840	17.241	841.705	630.240
368.854	17.270	841.213	629.924
369.869	17.111	840.861	629.015
370.883	17.192	840.411	628.924
371.898	17.254	840.095	628.860
372.913	17.250	839.651	628.460
373.927	17.165	839.094	627.671
374.942	17.155	839.000	627.511
375.956	17.151	838.538	627.092
376.971	17.434	837.882	627.592
377.986	17.369	837.535	627.035
379.000	17.323	836.919	626.349
380.015	17.390	836.616	626.314
381.029	17.402	835.949	625.804
382.044	17.544	835.289	625.778
383.059	17.502	834.726	625.144
384.073	17.432	834.415	624.599
385.088	17.372	833.462	623.612
386.102	17.552	832.645	623.604
387.117	17.566	832.259	623.311
388.132	17.485	831.797	622.612
389.146	17.363	831.287	621.732
390.161	17.489	830.904	621.850
391.175	17.490	830.678	621.630
392.190	17.537	829.870	621.139
393.205	17.473	829.262	620.396
394.219	17.570	829.005	620.502
395.234	17.573	829.041	620.486
396.248	17.480	828.469	619.666
397.263	17.473	827.988	619.224
398.278	17.598	827.369	619.163
399.292	17.461	827.370	618.610
400.307	17.483	826.472	617.965
401.321	17.556	825.778	617.654
402.336	17.730	825.187	617.789
403.350	17.685	824.880	617.340
404.365	17.815	824.349	617.359
405.380	17.601	824.341	616.526
406.394	17.756	823.427	616.346
407.409	17.817	822.927	616.140
408.423	17.852	822.588	615.955
409.438	17.994	821.930	615.919
410.453	17.811	821.811	615.118
411.467	17.830	821.317	614.763
412.482	18.012	820.906	615.055
413.496	17.915	820.764	614.544
414.511	18.029	820.508	614.708
415.526	17.983	820.041	614.139
416.540	18.083	819.166	613.790
417.555	18.081	818.797	613.451
418.569	18.125	818.472	613.310
419.584	17.910	818.188	612.273
420.599	17.987	817.744	612.162
421.613	114.496	1300.057	1487.506
422.628	99.233	1370.269	1487.570
