DTS Sentinel unit serial number:	SN413079Multiplexer serial number:	ORYXHardware model number:	OX4-SRSoftware version number:	ORYX F/W v4.00 Oryx Data Collector v3.7.2.0data status	okinstallation	princeton_trtdifferential loss correction	single-endedforward channel	channel 1reverse channel	N/Adate	2019/09/16time	00:26:35forward acquisition time	60.00reverse acquisition time	0.00gamma	496.2192k internal	0.2334k external	0.2334temperature offset calibration	0.9973default loss term (dB/km)	0.3790temperature slope calibration	1.0000multiplexer offset coefficient	1.0000multiplexer slope coefficient	1.0000fibre end	0.00T internal ref (°C)	27.61T ext. ref 1 (°C)	9.54T ext. ref 2 (°C)	21.60length (m)	temperature (°C)	Stokes	anti-Stokes-747.200	92.657	0.152	-0.172
-746.185	-200.000	0.033	0.382
-745.171	-70.339	-0.302	0.115
-744.156	-23.779	0.181	-0.109
-743.142	-200.000	0.028	-0.234
-742.127	-135.478	0.320	0.038
-741.112	800.000	0.060	0.182
-740.098	235.563	0.152	0.252
-739.083	87.822	-0.069	-0.077
-738.069	800.000	-0.134	0.393
-737.054	-97.810	-0.325	-0.085
-736.039	-62.769	-0.256	0.107
-735.025	793.052	0.052	0.145
-734.010	147.203	-0.210	-0.284
-732.996	393.580	0.190	-0.398
-731.981	-200.000	-0.064	0.380
-730.966	125.753	0.060	-0.076
-729.952	68.989	0.023	-0.023
-728.937	-48.404	-0.257	-0.125
-727.923	-200.000	-0.025	0.141
-726.908	-90.075	0.110	-0.032
-725.894	-54.863	0.078	-0.035
-724.879	-115.562	-0.091	-0.017
-723.864	-130.379	-0.273	-0.037
-722.850	-200.000	-0.002	0.298
-721.835	459.414	-0.055	0.123
-720.821	-40.306	0.222	0.116
-719.806	-67.680	-0.342	-0.134
-718.791	-86.115	-0.362	0.112
-717.777	-114.591	0.408	0.079
-716.762	177.832	-0.171	0.250
-715.748	358.606	0.038	0.075
-714.733	-76.396	0.391	-0.138
-713.718	-200.000	-0.003	-0.150
-712.704	-200.000	-0.071	-0.333
-711.689	-73.048	0.078	-0.029
-710.675	-69.355	-0.088	0.034
-709.660	55.742	0.150	0.146
-708.645	24.819	-0.210	0.174
-707.631	-121.670	-0.240	0.040
-706.616	68.624	-0.203	0.209
-705.602	50.809	0.127	-0.120
-704.587	-84.794	0.302	-0.095
-703.572	-16.560	-0.125	-0.080
-702.558	549.153	-0.185	-0.446
-701.543	800.000	0.102	0.359
-700.529	17.493	0.036	0.029
-699.514	-12.637	0.134	-0.088
-698.499	-30.049	-0.209	0.119
-697.485	-114.445	-0.409	0.079
-696.470	-128.578	-0.267	-0.038
-695.456	800.000	-0.052	0.145
-694.441	-200.000	0.028	-0.144
-693.426	51.391	-0.062	-0.059
-692.412	-200.000	0.022	-0.205
-691.397	-200.000	-0.002	-0.129
-690.383	-60.599	-0.348	0.148
-689.368	-53.634	0.170	0.078
-688.354	429.739	0.076	-0.164
-687.339	-157.764	0.433	0.026
-686.324	105.769	0.074	0.088
-685.310	-200.000	-0.036	-0.199
-684.295	678.417	0.034	-0.090
-683.281	-61.852	-0.221	0.093
-682.266	-140.597	0.269	0.028
-681.251	800.000	-0.075	0.248
-680.237	155.936	-0.135	0.186
-679.222	434.799	0.125	0.273
-678.208	-6.163	-0.239	-0.164
-677.193	109.346	-0.169	0.203
-676.178	-166.282	-0.174	0.007
-675.164	-24.800	-0.277	-0.165
-674.149	-14.778	0.160	-0.103
-673.135	-200.000	-0.023	0.283
-672.120	-5.767	-0.223	-0.153
-671.105	195.352	0.080	-0.122
-670.091	-103.215	-0.333	0.079
-669.076	27.487	0.230	0.194
-668.062	23.310	-0.223	0.184
-667.047	-134.806	0.148	0.018
-666.032	110.857	-0.110	-0.133
-665.018	332.120	0.184	0.356
-664.003	-49.080	-0.087	0.041
-662.989	2.813	0.169	-0.123
-661.974	-74.606	0.200	0.072
-660.959	30.639	-0.298	-0.256
-659.945	336.446	0.124	-0.241
-658.930	80.245	0.241	0.260
-657.916	800.000	-0.057	0.235
-656.901	-200.000	-0.007	-0.092
-655.886	28.596	0.120	-0.102
-654.872	738.741	0.063	0.170
-653.857	-120.494	-0.536	0.091
-652.843	573.877	0.073	0.179
-651.828	21.881	-0.123	0.101
-650.814	-128.415	0.130	0.019
-649.799	-62.657	0.139	0.058
-648.784	176.856	0.119	-0.173
-647.770	31.752	0.203	0.175
-646.755	-161.961	0.317	0.016
-645.741	-102.752	-0.162	0.039
-644.726	187.086	0.185	-0.276
-643.711	56.009	-0.091	-0.088
-642.697	674.303	-0.054	-0.140
-641.682	-200.000	-0.000	0.077
-640.668	-63.924	-0.228	-0.093
-639.653	310.699	-0.108	-0.203
-638.638	-29.457	0.142	-0.082
-637.624	-19.720	0.072	0.044
-636.609	-135.098	-0.255	-0.031
-635.595	-49.837	-0.198	-0.094
-634.580	-200.000	0.002	0.039
-633.565	-40.259	-0.201	-0.104
-632.551	128.320	-0.167	-0.213
-631.536	800.000	-0.038	-0.121
-630.522	-156.168	0.314	-0.020
-629.507	-168.524	-0.289	0.011
-628.492	38.510	-0.074	-0.066
-627.478	-105.674	0.287	0.065
-626.463	8.904	-0.086	-0.065
-625.449	472.556	0.122	-0.275
-624.434	114.590	-0.187	-0.228
-623.419	-144.608	0.265	-0.024
-622.405	800.000	0.147	-0.579
-621.390	17.268	-0.121	-0.096
-620.376	-154.386	-0.372	-0.025
-619.361	-53.851	-0.150	-0.069
-618.346	644.006	-0.103	0.264
-617.332	800.000	-0.037	-0.142
-616.317	-149.679	0.140	-0.011
-615.303	-73.486	0.214	0.078
-614.288	-200.000	-0.004	-0.371
-613.273	32.869	0.366	0.317
-612.259	301.505	-0.076	-0.140
-611.244	-200.000	-0.007	0.163
-610.230	-140.434	-0.081	0.008
-609.215	495.159	0.067	-0.153
-608.201	-13.074	-0.194	0.126
-607.186	626.776	-0.002	-0.006
-606.171	129.472	0.108	-0.138
-605.157	800.000	0.082	-0.285
-604.142	-98.146	0.248	-0.064
-603.128	214.666	-0.114	0.180
-602.113	-60.864	0.097	-0.041
-601.098	-200.000	-0.021	0.182
-600.084	-80.317	0.273	-0.091
-599.069	-200.000	0.014	0.094
-598.055	-200.000	0.026	0.163
-597.040	672.076	-0.113	-0.292
-596.025	800.000	-0.089	0.250
-595.011	61.270	0.182	-0.181
-593.996	-35.608	-0.348	-0.189
-592.982	-168.067	-0.326	-0.013
-591.967	56.092	-0.029	0.028
-590.952	147.067	0.028	-0.037
-589.938	-200.000	-0.012	0.084
-588.923	224.467	-0.045	-0.072
-587.909	-200.000	0.029	-0.274
-586.894	-120.759	0.254	0.043
-585.879	206.465	-0.252	0.392
-584.865	800.000	-0.030	0.115
-583.850	-200.000	0.003	-0.663
-582.836	-59.667	0.231	-0.099
-581.821	-200.000	0.079	0.451
-580.806	-200.000	0.039	0.265
-579.792	413.193	0.068	0.144
-578.777	482.177	0.111	-0.252
-577.763	-85.914	0.212	-0.066
-576.748	664.751	-0.054	0.139
-575.733	-200.000	0.049	-0.290
-574.719	-5.742	-0.093	0.063
-573.704	-111.689	-0.304	-0.061
-572.690	251.801	0.184	0.312
-571.675	-80.866	-0.155	-0.051
-570.661	80.679	0.211	-0.227
-569.646	192.079	0.068	0.103
-568.631	409.715	0.131	-0.276
-567.617	800.000	0.057	-0.225
-566.602	-200.000	-0.006	-0.032
-565.588	-192.048	-0.295	-0.003
-564.573	45.240	0.067	0.061
-563.558	-125.821	-0.247	0.037
-562.544	30.355	0.103	-0.088
-561.529	-200.000	-0.028	0.290
-560.515	800.000	0.064	0.230
-559.500	5.707	0.143	0.106
-558.485	-200.000	-0.000	0.267
-557.471	237.376	-0.042	0.069
-556.456	264.812	0.138	-0.240
-555.442	800.000	0.097	-0.283
-554.427	-200.000	0.010	-0.384
-553.412	18.969	-0.150	-0.120
-552.398	260.293	0.117	-0.202
-551.383	-41.148	-0.152	-0.078
-550.369	-19.894	-0.250	0.154
-549.354	-200.000	-0.044	0.283
-548.339	-200.000	-0.028	-0.199
-547.325	107.417	-0.195	0.231
-546.310	-18.802	0.280	0.174
-545.296	-133.241	-0.162	-0.020
-544.281	-182.690	-0.070	-0.001
-543.266	-200.000	-0.050	0.259
-542.252	40.216	0.306	0.275
-541.237	57.278	0.267	-0.260
-540.223	-65.122	-0.489	-0.197
-539.208	108.582	-0.177	0.211
-538.193	-198.701	-0.254	-0.001
-537.179	-59.583	-0.100	0.043
-536.164	-200.000	-0.035	-0.219
-535.150	-111.527	-0.290	-0.059
-534.135	800.000	-0.035	-0.106
-533.121	-200.000	0.031	-0.287
-532.106	800.000	0.017	-0.057
-531.091	-108.590	-0.182	-0.039
-530.077	-125.972	0.275	0.041
-529.062	-152.976	0.266	-0.019
-528.048	103.790	0.049	-0.057
-527.033	17.254	0.305	0.241
-526.018	-55.930	0.284	0.126
-525.004	-200.000	0.005	0.029
-523.989	-200.000	-0.038	-0.203
-522.975	-200.000	-0.037	-0.240
-521.960	-110.386	0.183	-0.038
-520.945	208.580	-0.078	0.121
-519.931	-6.180	-0.082	-0.055
-518.916	-23.360	0.335	-0.201
-517.902	85.058	0.078	-0.085
-516.887	800.000	0.108	0.353
-515.872	-130.953	-0.121	-0.016
-514.858	-143.884	-0.177	0.017
-513.843	18.888	-0.167	-0.133
-512.829	-118.262	0.402	0.071
-511.814	-12.181	-0.184	-0.120
-510.799	-200.000	-0.034	-0.178
-509.785	52.461	-0.098	0.093
-508.770	-200.000	-0.006	-0.201
-507.756	-57.009	-0.471	0.207
-506.741	-149.281	-0.129	0.010
-505.726	-9.464	0.237	0.157
-504.712	160.868	-0.167	0.233
-503.697	112.791	0.038	-0.046
-502.683	-104.531	0.452	0.104
-501.668	-57.178	0.275	-0.121
-500.653	-64.689	-0.222	-0.090
-499.639	-200.000	0.085	-0.437
-498.624	-149.249	-0.060	0.005
-497.610	800.000	-0.062	-0.211
-496.595	36.190	-0.031	-0.027
-495.581	-130.353	-0.290	0.039
-494.566	-63.240	0.166	0.068
-493.551	184.014	-0.035	0.052
-492.537	-200.000	-0.016	-0.092
-491.522	-31.679	0.177	-0.099
-490.508	-200.000	0.022	-0.210
-489.493	800.000	-0.091	0.276
-488.478	800.000	0.046	0.146
-487.464	337.515	0.084	0.162
-486.449	33.590	-0.179	-0.155
-485.435	-200.000	0.014	0.073
-484.420	800.000	-0.054	-0.188
-483.405	-83.005	0.066	0.021
-482.391	-17.316	-0.182	-0.114
-481.376	-143.209	0.224	-0.021
-480.362	36.769	0.038	0.034
-479.347	34.641	-0.071	0.062
-478.332	-16.833	-0.071	-0.045
-477.318	-90.995	0.189	0.054
-476.303	-58.576	0.089	-0.038
-475.289	800.000	0.064	-0.259
-474.274	14.984	0.103	-0.081
-473.259	800.000	-0.109	-0.354
-472.245	-35.386	0.105	0.057
-471.230	302.525	-0.075	0.137
-470.216	92.950	-0.322	0.362
-469.201	538.968	-0.135	-0.318
-468.186	20.141	-0.090	-0.072
-467.172	16.801	-0.163	-0.129
-466.157	-24.362	-0.078	-0.046
-465.143	-70.635	0.173	-0.065
-464.128	719.619	0.052	-0.138
-463.113	-200.000	0.009	0.134
-462.099	800.000	0.042	-0.162
-461.084	-200.000	0.004	0.029
-460.070	-7.228	0.223	-0.150
-459.055	-164.622	0.196	0.009
-458.040	800.000	0.088	-0.284
-457.026	-52.177	0.113	0.052
-456.011	-200.000	-0.012	0.217
-454.997	800.000	0.085	0.305
-453.982	-30.983	0.531	-0.298
-452.968	267.290	-0.152	-0.265
-451.953	-20.517	0.041	0.025
-450.938	-200.000	0.016	-0.117
-449.924	-200.000	-0.176	0.000
-448.909	800.000	-0.043	-0.125
-447.895	800.000	0.061	-0.232
-446.880	48.249	0.390	0.362
-445.865	-200.000	0.001	0.200
-444.851	-200.000	-0.024	-0.136
-443.836	-116.853	0.294	-0.053
-442.822	-200.000	0.040	-0.439
-441.807	800.000	0.017	-0.061
-440.792	327.726	0.173	0.330
-439.778	788.227	0.148	0.403
-438.763	800.000	0.091	0.314
-437.749	616.260	-0.081	-0.202
-436.734	-200.000	0.015	-0.332
-435.719	-77.793	-0.180	0.062
-434.705	-200.000	0.009	0.075
-433.690	509.078	-0.139	0.321
-432.676	-155.783	0.228	0.014
-431.661	172.245	0.148	0.212
-430.646	-200.000	-0.025	-0.132
-429.632	-93.404	-0.166	0.046
-428.617	318.784	0.231	0.435
-427.603	-40.042	-0.219	0.113
-426.588	48.887	0.225	-0.210
-425.573	-200.000	-0.011	-0.103
-424.559	86.724	0.097	-0.106
-423.544	129.581	0.077	-0.097
-422.530	-3.147	0.275	0.190
-421.515	-200.000	-0.064	-0.308
-420.500	32.378	0.047	-0.041
-419.486	-117.510	0.142	0.026
-418.471	212.706	-0.031	-0.048
-417.457	-118.027	0.148	-0.026
-416.442	800.000	0.064	-0.255
-415.428	-194.721	-0.284	0.002
-414.413	-171.147	0.308	-0.010
-413.398	1.789	-0.113	0.081
-412.384	-200.000	0.010	0.290
-411.369	-128.627	0.076	0.011
-410.355	-108.042	-0.118	0.025
-409.340	800.000	0.101	-0.280
-408.325	-101.311	0.544	-0.132
-407.311	800.000	-0.062	0.229
-406.296	347.960	0.082	0.161
-405.282	103.929	-0.081	-0.094
-404.267	46.553	0.138	-0.127
-403.252	-200.000	-0.010	-0.073
-402.238	-108.832	0.219	-0.047
-401.223	68.562	-0.070	0.071
-400.209	171.413	-0.267	0.380
-399.194	-41.189	0.131	0.067
-398.179	17.613	-0.226	-0.178
-397.165	800.000	-0.051	0.186
-396.150	76.272	-0.076	0.080
-395.136	31.354	0.361	0.307
-394.121	191.126	-0.192	0.287
-393.106	15.007	-0.148	0.115
-392.092	-161.164	-0.303	0.016
-391.077	32.032	-0.098	-0.083
-390.063	-99.597	-0.469	0.117
-389.048	-66.645	-0.251	-0.098
-388.033	-74.279	-0.210	-0.075
-387.019	154.413	0.169	-0.230
-386.004	-200.000	0.008	-0.113
-384.990	-81.422	0.126	0.041
-383.975	800.000	-0.051	0.159
-382.960	105.072	-0.131	0.153
-381.946	-200.000	0.045	0.271
-380.931	-200.000	0.078	0.372
-379.917	62.092	-0.132	0.130
-378.902	-200.000	0.008	0.068
-377.888	265.244	-0.220	-0.380
-376.873	-200.000	0.029	0.267
-375.858	-116.246	-0.074	0.014
-374.844	-6.890	0.150	0.101
-373.829	83.835	0.090	-0.098
-372.815	-152.990	-0.066	-0.005
-371.800	-83.356	-0.284	0.090
-370.785	-118.519	-0.361	0.063
-369.771	28.799	-0.071	0.059
-368.756	800.000	-0.131	-0.455
-367.742	-200.000	-0.019	-0.498
-366.727	10.571	0.224	0.169
-365.712	65.306	-0.140	0.141
-364.698	-141.177	0.278	0.028
-363.683	-9.699	0.093	0.061
-362.669	17.968	0.078	0.061
-361.654	78.986	0.109	0.116
-360.639	800.000	0.074	0.315
-359.625	35.367	-0.229	0.199
-358.610	36.658	-0.120	-0.105
-357.596	800.000	-0.008	0.033
-356.581	-46.753	-0.136	0.066
-355.566	22.709	-0.185	0.150
-354.552	-42.753	0.242	-0.122
-353.537	-42.873	0.448	-0.225
-352.523	273.578	-0.288	-0.504
-351.508	193.404	0.175	-0.262
-350.493	-200.000	-0.054	0.303
-349.479	382.287	0.127	-0.259
-348.464	-51.022	0.216	0.101
-347.450	800.000	-0.027	0.103
-346.435	74.369	-0.183	-0.191
-345.420	-7.117	-0.152	-0.102
-344.406	13.677	-0.147	0.113
-343.391	-28.121	-0.321	-0.184
-342.377	-200.000	0.002	-0.009
-341.362	-191.389	-0.526	-0.005
-340.348	23.494	-0.099	-0.081
-339.333	-49.406	0.074	-0.035
-338.318	322.332	0.053	0.100
-337.304	346.540	-0.048	0.093
-336.289	-89.299	-0.366	0.107
-335.275	-12.793	0.222	-0.143
-334.260	-37.819	-0.047	-0.025
-333.245	-27.458	0.147	0.085
-332.231	355.729	-0.026	-0.051
-331.216	-200.000	0.027	0.485
-330.202	91.978	-0.176	-0.196
-329.187	14.921	-0.113	0.088
-328.172	-132.606	0.193	0.024
-327.158	-21.060	-0.066	0.040
-326.143	539.019	-0.028	-0.067
-325.129	-157.972	0.358	0.021
-324.114	126.433	0.138	-0.172
-323.099	497.703	0.180	-0.409
-322.085	-200.000	-0.022	-0.143
-321.070	-62.656	-0.169	0.069
-320.056	129.346	-0.081	-0.102
-319.041	36.468	0.041	0.036
-318.026	-92.484	0.158	-0.044
-317.012	208.452	-0.148	-0.229
-315.997	-200.000	-0.054	0.278
-314.983	-56.753	-0.058	0.025
-313.968	-102.925	0.306	-0.072
-312.953	133.709	-0.256	0.328
-311.939	800.000	-0.061	0.243
-310.924	151.866	-0.084	0.114
-309.910	317.695	-0.021	-0.039
-308.895	-140.581	-0.248	-0.025
-307.880	-142.660	0.148	-0.014
-306.866	66.427	0.187	0.188
-305.851	-3.081	-0.218	0.150
-304.837	-200.000	0.025	-0.306
-303.822	-98.923	0.221	-0.056
-302.807	800.000	-0.125	0.401
-301.793	-200.000	0.027	0.167
-300.778	-84.624	0.236	0.073
-299.764	-200.000	-0.080	-0.405
-298.749	54.947	0.025	0.024
-297.735	800.000	0.044	0.169
-296.720	-161.086	-0.177	-0.009
-295.705	800.000	0.063	0.203
-294.691	-70.171	-0.172	0.065
-293.676	28.904	0.258	0.216
-292.662	-54.065	0.229	0.103
-291.647	374.575	-0.082	0.164
-290.632	-135.236	-0.303	-0.036
-289.618	-25.804	-0.154	-0.090
-288.603	-200.000	-0.016	-0.376
-287.589	510.922	-0.031	0.070
-286.574	-200.000	-0.010	-0.244
-285.559	-200.000	-0.013	0.216
-284.545	-200.000	0.006	-0.298
-283.530	78.275	0.211	0.222
-282.516	-118.150	0.473	0.083
-281.501	54.670	0.187	0.178
-280.486	58.270	-0.112	0.109
-279.472	157.540	0.128	-0.174
-278.457	-45.654	-0.203	0.099
-277.443	800.000	0.049	-0.177
-276.428	-200.000	-0.002	0.172
-275.413	-200.000	0.021	-0.268
-274.399	-200.000	-0.025	0.157
-273.384	9.113	0.219	-0.164
-272.370	-50.412	-0.211	0.099
-271.355	110.372	0.191	-0.227
-270.340	-31.609	-0.403	0.223
-269.326	637.492	0.024	-0.060
-268.311	800.000	0.068	0.188
-267.297	126.067	-0.144	-0.180
-266.282	-165.006	0.096	-0.004
-265.267	-200.000	-0.022	-0.270
-264.253	18.633	-0.124	0.097
-263.238	800.000	-0.062	0.205
-262.224	-39.566	0.192	0.099
-261.209	-200.000	-0.007	0.099
-260.195	-31.597	0.184	0.102
-259.180	-190.677	0.101	-0.001
-258.165	-53.689	-0.157	-0.071
-257.151	-164.422	-0.159	-0.007
-256.136	32.915	0.103	-0.088
-255.122	-55.703	-0.108	-0.048
-254.107	-200.000	0.052	0.467
-253.092	389.217	0.156	-0.318
-252.078	794.416	-0.063	-0.171
-251.063	14.970	-0.336	-0.260
-250.049	45.191	0.127	-0.115
-249.034	-122.080	0.228	0.037
-248.019	-99.647	0.544	0.135
-247.005	-93.280	0.294	0.081
-245.990	-91.106	-0.196	-0.055
-244.976	366.739	0.182	0.362
-243.961	363.734	-0.034	-0.067
-242.946	27.800	0.091	0.076
-241.932	-200.000	-0.012	0.127
-240.917	191.822	-0.213	0.316
-239.903	13.543	0.118	0.090
-238.888	173.755	-0.232	0.330
-237.873	-24.663	0.082	0.048
-236.859	-6.105	-0.184	0.124
-235.844	800.000	0.051	-0.160
-234.830	-106.297	-0.225	0.050
-233.815	-99.377	0.090	-0.022
-232.800	608.757	0.069	-0.170
-231.786	-99.383	-0.198	0.049
-230.771	424.234	-0.053	0.112
-229.757	-108.703	0.229	0.048
-228.742	8.191	0.070	-0.052
-227.727	25.309	0.160	-0.131
-226.713	23.916	-0.099	-0.080
-225.698	-200.000	0.033	0.239
-224.684	-112.464	-0.397	0.078
-223.669	-136.888	-0.198	-0.022
-222.655	800.000	0.007	-0.022
-221.640	-46.920	-0.516	0.248
-220.625	-200.000	-0.047	0.214
-219.611	800.000	-0.042	0.178
-218.596	-154.897	-0.281	0.018
-217.582	-200.000	-0.018	0.145
-216.567	-92.711	-0.044	-0.012
-215.552	532.418	0.197	0.459
-214.538	-191.881	0.307	0.003
-213.523	-135.410	-0.200	0.024
-212.509	-73.264	0.301	-0.108
-211.494	-59.815	-0.271	-0.114
-210.479	-134.667	-0.082	-0.010
-209.465	-200.000	-0.035	-0.288
-208.450	409.574	0.051	0.107
-207.436	397.117	-0.163	0.336
-206.421	-25.885	0.265	-0.153
-205.406	-51.906	0.247	0.113
-204.392	-166.195	0.090	-0.004
-203.377	-200.000	-0.020	0.099
-202.363	28.193	0.078	0.065
-201.348	-57.484	0.179	-0.077
-200.333	-200.000	-0.032	0.181
-199.319	-165.569	-0.453	-0.019
-198.304	-42.701	0.139	-0.070
-197.290	-112.147	-0.125	0.025
-196.275	549.601	0.167	0.394
-195.260	800.000	0.117	-0.370
-194.246	-122.159	-0.311	-0.050
-193.231	-139.079	0.164	-0.017
-192.217	-200.000	-0.003	0.093
-191.202	800.000	-0.032	-0.130
-190.187	-200.000	0.024	-0.173
-189.173	252.247	-0.101	0.168
-188.158	800.000	-0.150	0.422
-187.144	191.332	-0.321	0.476
-186.129	112.966	-0.045	-0.054
-185.114	529.959	0.065	0.151
-184.100	75.724	-0.148	0.154
-183.085	-200.000	0.017	-0.408
-182.071	800.000	0.060	0.173
-181.056	301.639	-0.167	-0.304
-180.042	800.000	0.055	0.190
-179.027	-127.626	-0.155	0.022
-178.012	377.411	-0.166	0.334
-176.998	206.048	-0.102	-0.156
-175.983	-200.000	0.050	-0.257
-174.969	-13.671	0.034	-0.021
-173.954	304.884	0.175	-0.319
-172.939	-143.815	-0.137	-0.013
-171.925	-78.386	-0.008	-0.003
-170.910	-70.757	-0.437	-0.162
-169.896	-98.074	0.161	0.041
-168.881	-81.789	0.305	-0.098
-167.866	-154.012	-0.156	-0.010
-166.852	409.360	0.088	0.183
-165.837	-200.000	0.006	-0.052
-164.823	800.000	-0.056	-0.152
-163.808	-200.000	0.027	-0.335
-162.793	-53.800	0.247	-0.111
-161.779	484.304	0.094	0.210
-160.764	5.564	-0.302	0.219
-159.750	41.461	0.236	-0.210
-158.735	-3.884	0.106	0.072
-157.720	-200.000	-0.043	0.449
-156.706	-200.000	0.002	-0.074
-155.691	-14.421	0.124	-0.078
-154.677	421.845	0.046	-0.097
-153.662	-200.000	-0.032	0.154
-152.647	800.000	0.041	0.141
-151.633	-200.000	0.030	0.163
-150.618	260.710	-0.030	-0.050
-149.604	-200.000	0.001	0.286
-148.589	-200.000	-0.013	-0.170
-147.574	431.172	-0.139	-0.295
-146.560	-89.527	0.492	0.142
-145.545	800.000	-0.086	0.321
-144.531	-200.000	0.018	-0.185
-143.516	-200.000	-0.014	-0.293
-142.502	-200.000	0.033	-0.153
-141.487	-200.000	0.045	0.258
-140.472	336.822	-0.195	-0.372
-139.458	-200.000	0.005	-0.157
-138.443	-122.903	0.253	0.040
-137.429	-200.000	0.035	0.305
-136.414	800.000	0.038	-0.163
-135.399	-63.943	0.185	0.074
-134.385	12.994	-0.153	0.116
-133.370	-76.556	-0.368	0.127
-132.356	63.955	-0.307	-0.303
-131.341	-86.566	-0.173	-0.052
-130.326	60.561	0.072	-0.070
-129.312	-81.842	0.147	0.047
-128.297	363.022	0.111	0.220
-127.283	58.387	0.028	-0.027
-126.268	490.244	0.053	-0.119
-125.253	631.295	-0.026	-0.065
-124.239	-35.734	0.161	0.086
-123.224	-200.000	-0.038	0.242
-122.210	800.000	-0.014	0.040
-121.195	-44.937	-0.131	0.064
-120.180	-195.292	0.090	0.001
-119.166	-200.000	0.034	0.409
-118.151	800.000	0.036	-0.105
-117.137	-66.913	-0.327	0.127
-116.122	-200.000	-0.038	0.173
-115.107	52.507	0.105	-0.098
-114.093	800.000	0.005	0.020
-113.078	93.645	0.143	-0.159
-112.064	-200.000	-0.003	-0.040
-111.049	800.000	-0.085	0.282
-110.034	-200.000	0.002	-0.036
-109.020	-200.000	-0.011	-0.212
-108.005	-134.210	-0.243	0.029
-106.991	132.468	0.120	0.152
-105.976	66.965	0.179	-0.179
-104.962	-110.569	-0.345	-0.070
-103.947	47.071	0.089	-0.081
-102.932	479.754	0.099	-0.219
-101.918	-68.932	0.296	-0.112
-100.903	-107.216	0.236	0.051
-99.889	800.000	0.029	-0.088
-98.874	-89.104	-0.049	-0.014
-97.859	-14.475	0.289	0.182
-96.845	-57.637	0.225	0.097
-95.830	-9.553	0.223	0.146
-94.816	-65.694	0.214	-0.084
-93.801	-200.000	0.014	0.107
-92.786	-200.000	-0.044	0.221
-91.772	-200.000	-0.005	0.074
-90.757	182.425	-0.075	-0.109
-89.743	269.368	-0.033	0.056
-88.728	-63.048	0.116	0.047
-87.713	244.341	-0.292	0.481
-86.699	-200.000	0.043	0.240
-85.684	125.815	0.112	0.139
-84.670	671.112	0.074	0.188
-83.655	144.977	0.295	0.386
-82.640	-113.793	0.486	-0.093
-81.626	-200.000	-0.021	0.308
-80.611	-33.503	-0.049	0.026
-79.597	107.899	-0.202	-0.235
-78.582	31.641	0.139	-0.117
-77.567	-200.000	-0.038	0.222
-76.553	5.675	0.315	-0.228
-75.538	-200.000	-0.013	0.199
-74.524	-34.183	-0.138	-0.074
-73.509	800.000	0.076	0.244
-72.494	800.000	-0.015	-0.046
-71.480	131.128	-0.008	0.010
-70.465	62.705	0.087	0.085
-69.451	382.258	0.052	0.105
-68.436	-142.634	0.223	0.021
-67.422	-126.507	-0.189	0.028
-66.407	-71.972	-0.238	0.087
-65.392	64.549	0.097	0.096
-64.378	77.551	-0.047	-0.049
-63.363	-134.864	-0.127	0.015
-62.349	-200.000	-0.057	0.312
-61.334	179.738	-0.819	-1.174
-60.319	380.286	0.324	0.650
-59.305	580.872	-0.430	-1.031
-58.290	148.400	0.860	1.136
-57.276	346.489	0.780	1.501
-56.261	-200.000	113.080	647.426
-55.246	482.734	1494.662	3323.729
-54.232	150.355	2653.749	3525.065
-53.217	103.949	2137.793	2458.304
-52.203	38.777	1592.065	1390.628
-51.188	30.795	1340.021	1122.541
-50.173	28.039	1302.095	1074.555
-49.159	55.310	1357.885	1284.807
-48.144	54.057	1373.077	1291.632
-47.130	31.189	1328.733	1115.261
-46.115	27.716	1311.143	1079.937
-45.100	27.457	1306.342	1074.412
-44.086	27.379	1303.870	1071.877
-43.071	27.466	1301.055	1070.030
-42.057	27.410	1299.565	1068.433
-41.042	27.451	1297.831	1067.204
-40.027	27.572	1296.130	1066.471
-39.013	27.476	1294.243	1064.318
-37.998	27.476	1292.572	1062.902
-36.984	27.598	1290.861	1062.160
-35.969	27.563	1288.771	1060.198
-34.954	27.615	1287.245	1059.205
-33.940	27.626	1286.217	1058.378
-32.925	27.620	1284.559	1056.935
-31.911	27.636	1283.162	1055.840
-30.896	27.711	1281.560	1054.909
-29.881	27.706	1280.202	1053.724
-28.867	27.658	1279.023	1052.435
-27.852	27.704	1277.198	1051.155
-26.838	27.721	1276.048	1050.264
-25.823	27.753	1274.566	1049.185
-24.809	27.669	1273.346	1047.658
-23.794	27.654	1272.134	1046.536
-22.779	27.705	1270.845	1045.727
-21.765	27.720	1269.359	1044.549
-20.750	27.758	1268.195	1043.762
-19.736	27.675	1266.828	1042.121
-18.721	27.627	1265.918	1041.058
-17.706	27.668	1264.638	1040.198
-16.692	27.732	1263.456	1039.550
-15.677	27.555	1263.099	1038.206
-14.663	27.569	1261.489	1036.921
-13.648	27.493	1260.408	1035.561
-12.633	27.491	1259.746	1034.966
-11.619	27.593	1258.340	1034.345
-10.604	27.620	1257.465	1033.741
-9.590	27.579	1256.796	1032.917
-8.575	27.547	1255.900	1031.959
-7.560	27.501	1254.759	1030.718
-6.546	27.472	1254.035	1029.922
-5.531	27.462	1253.324	1029.237
-4.517	27.548	1252.294	1028.837
-3.502	27.614	1251.270	1028.328
-2.487	27.526	1250.599	1027.239
-1.473	27.496	1246.359	1023.548
-0.458	25.885	1231.248	1002.146
0.556	20.861	1214.980	965.302
1.571	17.235	1220.938	949.719
2.586	16.429	1236.336	957.054
3.600	16.490	1225.095	948.605
4.615	14.645	1159.547	887.967
5.629	11.337	1092.560	819.989
6.644	9.721	1075.740	799.291
7.659	9.512	1073.718	796.682
8.673	9.526	1072.131	795.502
9.688	9.402	1071.107	794.061
10.702	9.574	1069.398	793.573
11.717	11.706	1071.227	805.368
12.731	15.308	1075.502	826.293
13.746	17.538	1077.612	838.835
14.761	17.477	1077.504	838.379
15.775	16.484	1075.690	832.007
16.790	15.469	1073.646	825.366
17.804	14.762	1071.570	820.228
18.819	14.376	1070.498	817.437
19.834	14.134	1069.566	815.466
20.848	13.809	1068.859	813.266
21.863	13.586	1068.215	811.609
22.877	13.545	1067.059	810.460
23.892	13.480	1066.452	809.611
24.907	13.518	1065.874	809.287
25.921	13.520	1064.296	808.025
26.936	13.595	1063.001	807.336
27.950	13.488	1062.804	806.594
28.965	13.705	1060.273	805.655
29.980	13.694	1058.993	804.557
30.994	13.666	1058.046	803.634
32.009	13.662	1057.002	802.749
33.023	13.690	1055.860	801.946
34.038	13.774	1054.680	801.387
35.053	13.529	1054.043	799.648
36.067	13.586	1052.943	799.018
37.082	13.618	1052.509	798.772
38.096	13.700	1051.714	798.493
39.111	13.667	1050.693	797.490
40.126	13.545	1049.738	796.106
41.140	13.511	1048.466	794.909
42.155	13.384	1047.450	793.458
43.169	13.365	1046.468	792.555
44.184	13.376	1045.393	791.722
45.199	13.402	1044.199	790.873
46.213	13.604	1042.970	790.833
47.228	13.524	1042.171	789.778
48.242	13.455	1040.930	788.439
49.257	13.530	1040.330	788.269
50.271	13.677	1039.041	787.925
51.286	13.657	1038.244	787.154
52.301	13.576	1037.727	786.310
53.315	13.504	1036.526	784.988
54.330	13.594	1035.470	784.543
55.344	13.538	1034.579	783.535
56.359	13.604	1033.684	783.097
57.374	13.408	1033.268	781.790
58.388	13.433	1031.842	780.760
59.403	13.324	1031.299	779.765
60.417	13.542	1030.098	779.815
61.432	13.398	1029.553	778.657
62.447	13.365	1028.803	777.864
63.461	13.300	1028.038	776.913
64.476	13.372	1027.170	776.526
65.490	13.310	1026.679	775.793
66.505	13.375	1025.539	775.166
67.520	13.424	1024.835	774.799
68.534	13.339	1024.089	773.769
69.549	13.427	1023.228	773.458
70.563	13.405	1022.022	772.375
71.578	13.180	1021.591	770.930
72.593	13.221	1020.798	770.456
73.607	13.121	1020.863	769.972
74.622	13.234	1019.775	769.609
75.636	13.233	1019.040	768.984
76.651	13.301	1018.413	768.754
77.666	13.341	1017.816	768.423
78.680	13.293	1016.973	767.495
79.695	13.214	1016.527	766.728
80.709	13.355	1016.228	767.086
81.724	13.360	1015.378	766.400
82.739	13.396	1014.864	766.113
83.753	13.600	1013.557	765.998
84.768	13.716	1012.882	765.959
85.782	13.746	1012.109	765.443
86.797	13.644	1010.892	763.987
87.812	13.456	1010.298	762.604
88.826	13.546	1009.093	762.038
89.841	13.570	1008.292	761.479
90.855	13.719	1007.095	761.192
91.870	13.737	1006.192	760.524
92.884	13.715	1005.314	759.692
93.899	13.555	1005.331	758.905
94.914	13.653	1003.945	758.240
95.928	13.775	1003.183	758.156
96.943	13.613	1002.701	756.984
97.957	13.679	1001.469	756.287
98.972	13.691	1000.746	755.727
99.987	13.692	999.657	754.843
101.001	13.573	998.853	753.628
102.016	13.784	997.706	753.655
103.030	13.723	997.156	752.898
104.045	13.644	996.454	751.942
105.060	13.589	995.312	750.763
106.074	13.475	994.775	749.774
107.089	13.422	993.421	748.448
108.103	13.417	992.471	747.644
109.118	13.315	991.711	746.545
110.133	13.453	990.690	746.334
111.147	13.363	989.512	744.973
112.162	13.451	989.074	744.976
113.176	13.683	988.018	745.155
114.191	13.541	987.216	743.848
115.206	13.441	986.643	742.904
116.220	13.580	985.599	742.673
117.235	13.415	984.519	741.057
118.249	13.533	983.579	740.809
119.264	13.523	982.864	740.160
120.279	13.511	982.107	739.473
121.293	13.441	981.351	738.526
122.308	13.389	980.398	737.510
123.322	13.402	979.530	736.851
124.337	13.436	978.323	736.027
125.352	13.516	977.310	735.556
126.366	13.401	976.295	734.215
127.381	13.421	975.242	733.449
128.395	13.379	974.520	732.653
129.410	13.428	973.503	732.042
130.424	13.399	973.102	731.547
131.439	13.561	972.228	731.542
132.454	13.653	971.332	731.208
133.468	13.617	970.357	730.252
134.483	13.607	969.527	729.519
135.497	13.650	968.608	728.951
136.512	13.550	968.336	728.243
137.527	13.611	967.203	727.594
138.541	13.590	966.286	726.746
139.556	13.656	965.658	726.500
140.570	13.812	965.108	726.707
141.585	13.929	963.778	726.153
142.600	13.778	963.365	725.114
143.614	13.751	962.555	724.324
144.629	13.771	961.892	723.849
145.643	13.728	961.151	723.040
146.658	13.766	960.030	722.299
147.673	13.678	959.009	721.083
148.687	13.658	958.143	720.281
149.702	13.590	957.503	719.441
150.716	13.633	956.685	718.949
151.731	13.704	955.999	718.678
152.746	13.817	955.162	718.473
153.760	13.717	955.081	717.915
154.775	13.682	954.169	717.014
155.789	13.790	953.343	716.800
156.804	13.895	952.667	716.679
157.819	13.835	951.628	715.576
158.833	13.873	951.351	715.468
159.848	13.894	950.730	715.027
160.862	13.885	949.610	714.084
161.877	13.766	948.783	712.887
162.892	13.683	947.867	711.780
163.906	13.771	946.883	711.354
164.921	13.759	946.159	710.697
165.935	13.686	945.428	709.774
166.950	13.825	944.249	709.421
167.964	13.898	943.293	708.951
168.979	13.876	942.535	708.222
169.994	13.952	941.449	707.670
171.008	13.826	941.039	706.759
172.023	13.930	940.033	706.387
173.037	13.945	939.919	706.303
174.052	13.820	939.012	705.028
175.067	13.836	938.291	704.492
176.081	13.769	937.974	703.907
177.096	13.754	937.283	703.260
178.110	13.927	936.460	703.316
179.125	13.863	935.835	702.513
180.140	14.010	935.235	702.620
181.154	13.937	934.792	701.916
182.169	13.923	934.086	701.268
183.183	14.100	933.635	701.612
184.198	14.207	932.861	701.419
185.213	14.103	932.054	700.314
186.227	14.138	931.271	699.809
187.242	14.165	930.987	699.649
188.256	14.255	930.358	699.492
189.271	14.167	929.581	698.476
190.286	14.055	928.924	697.453
191.300	14.019	927.866	696.445
192.315	13.760	927.592	695.091
193.329	13.909	927.019	695.223
194.344	14.107	926.191	695.370
195.359	14.070	925.594	694.704
196.373	14.211	925.019	694.802
197.388	14.175	924.962	694.546
198.402	14.230	924.386	694.280
199.417	14.299	923.484	693.832
200.432	14.467	922.542	693.759
201.446	14.496	922.103	693.490
202.461	14.551	921.852	693.470
203.475	14.440	921.253	692.495
204.490	14.502	920.278	691.957
205.504	14.396	919.879	691.159
206.519	14.403	919.182	690.603
207.534	14.340	918.715	689.929
208.548	14.334	917.850	689.193
209.563	14.240	916.936	688.057
210.577	14.344	916.585	688.163
211.592	14.547	915.495	688.121
212.607	14.713	914.541	688.026
213.621	14.465	914.270	686.740
214.636	14.478	913.573	686.211
215.650	14.570	912.550	685.759
216.665	14.594	912.217	685.547
217.680	14.715	911.225	685.237
218.694	14.676	910.647	684.582
219.709	14.745	909.772	684.147
220.723	14.627	909.227	683.191
221.738	14.792	908.101	682.963
222.753	14.631	907.963	682.141
223.767	14.648	907.891	682.096
224.782	14.810	907.005	682.030
225.796	14.679	907.247	681.615
226.811	14.829	905.689	680.995
227.826	14.594	905.067	679.512
228.840	14.756	904.475	679.667
229.855	14.760	903.308	678.745
230.869	14.514	903.294	677.676
231.884	14.573	902.491	677.254
232.899	14.610	901.568	676.649
233.913	14.512	900.993	675.762
234.928	14.509	900.394	675.240
235.942	14.673	899.890	675.466
236.957	14.525	899.377	674.422
237.972	14.631	898.491	674.128
238.986	14.722	897.744	673.876
240.001	14.706	896.973	673.169
241.015	14.770	896.092	672.707
242.030	14.775	895.975	672.582
243.045	14.823	895.001	671.985
244.059	14.796	894.956	671.781
245.074	14.725	894.630	671.193
246.088	14.819	893.903	670.965
247.103	14.965	892.838	670.690
248.117	15.131	892.072	670.722
249.132	15.153	891.943	670.654
250.147	15.261	891.003	670.318
251.161	15.242	890.295	669.651
252.176	15.195	889.732	668.982
253.190	15.170	889.134	668.370
254.205	15.225	888.699	668.204
255.220	15.221	888.272	667.809
256.234	15.179	887.504	667.004
257.249	15.334	886.363	666.706
258.263	15.317	885.878	666.212
259.278	15.259	884.968	665.238
260.293	15.397	884.546	665.410
261.307	15.323	884.122	664.739
262.322	15.460	883.564	664.807
263.336	15.403	882.573	663.776
264.351	15.408	882.207	663.462
265.366	15.572	881.359	663.413
266.380	15.467	880.654	662.409
267.395	15.417	879.932	661.610
268.409	15.292	879.289	660.576
269.424	15.385	878.551	660.329
270.439	15.463	877.449	659.749
271.453	15.434	877.133	659.337
272.468	15.358	876.979	658.866
273.482	15.429	876.470	658.703
274.497	15.337	875.638	657.658
275.512	15.475	874.836	657.540
276.526	15.428	874.624	657.139
277.541	15.459	874.111	656.816
278.555	15.502	873.213	656.249
279.570	15.696	872.778	656.624
280.585	15.743	871.955	656.131
281.599	15.561	871.046	654.680
282.614	15.681	870.356	654.570
283.628	15.653	869.930	654.081
284.643	15.513	869.303	653.007
285.657	15.612	868.842	652.988
286.672	15.613	868.036	652.329
287.687	15.669	867.349	651.971
288.701	15.779	866.401	651.630
289.716	15.679	866.483	651.246
290.730	15.767	865.575	650.844
291.745	15.799	865.201	650.630
292.760	15.745	864.482	649.824
293.774	15.821	863.778	649.530
294.789	15.725	863.313	648.752
295.803	15.844	862.473	648.521
296.818	15.664	861.898	647.339
297.833	15.896	860.932	647.447
298.847	15.893	860.428	647.002
299.862	15.962	860.205	647.041
300.876	15.997	859.916	646.901
301.891	15.902	859.504	646.169
302.906	16.003	858.483	645.730
303.920	16.002	858.004	645.312
304.935	16.068	857.452	645.091
305.949	16.010	856.876	644.379
306.964	16.058	856.144	643.953
307.979	15.959	855.858	643.304
308.993	16.127	855.083	643.307
310.008	16.067	854.513	642.589
311.022	16.168	853.669	642.284
312.037	16.089	853.574	641.855
313.052	15.990	852.736	640.792
314.066	15.982	852.449	640.490
315.081	15.984	851.733	639.902
316.095	16.084	850.853	639.564
317.110	15.913	850.629	638.688
318.125	16.002	849.996	638.494
319.139	16.048	849.479	638.226
320.154	16.109	849.066	638.088
321.168	15.980	848.713	637.281
322.183	16.066	848.195	637.158
323.197	16.132	847.673	636.960
324.212	16.033	847.131	636.121
325.227	16.068	846.307	635.580
326.241	16.178	845.535	635.359
327.256	16.109	845.051	634.676
328.270	16.080	844.696	634.247
329.285	16.002	844.354	633.639
330.300	16.202	843.385	633.609
331.314	16.241	842.992	633.401
332.329	16.177	842.613	632.820
333.343	16.261	842.102	632.698
334.358	16.392	841.545	632.714
335.373	16.313	841.300	632.176
336.387	16.216	841.408	631.839
337.402	16.232	841.204	631.691
338.416	16.517	840.478	632.156
339.431	16.412	840.120	631.438
340.446	16.306	839.678	630.652
341.460	16.396	839.204	630.579
342.475	16.611	838.925	631.115
343.489	16.667	837.863	630.467
344.504	16.521	837.915	629.906
345.519	16.709	837.171	629.991
346.533	16.713	836.431	629.395
347.548	16.622	836.284	628.889
348.562	16.552	835.625	628.078
349.577	16.488	835.054	627.357
350.592	16.522	834.126	626.730
351.606	16.480	833.735	626.225
352.621	16.634	833.089	626.255
353.635	16.575	832.530	625.560
354.650	16.582	831.901	625.058
355.665	16.522	831.418	624.417
356.679	16.602	830.561	624.013
357.694	16.699	829.944	623.853
358.708	16.710	829.574	623.560
359.723	16.729	828.892	623.062
360.738	16.780	828.536	622.926
361.752	16.767	827.548	622.081
362.767	16.872	827.236	622.176
363.781	16.910	826.696	621.857
364.796	16.973	826.259	621.704
365.810	17.003	825.647	621.297
366.825	16.888	825.435	620.662
367.840	16.928	824.905	620.353
368.854	16.923	824.277	619.808
369.869	16.968	824.025	619.729
370.883	17.001	823.731	619.574
371.898	17.039	823.437	619.436
372.913	17.151	822.663	619.206
373.927	17.203	821.991	618.834
374.942	17.082	822.136	618.451
375.956	17.212	821.254	618.203
376.971	17.288	820.859	618.131
377.986	17.138	821.027	617.655
379.000	17.211	820.685	617.610
380.015	17.176	819.863	616.809
381.029	17.243	818.999	616.346
382.044	17.239	818.359	615.797
383.059	17.349	817.599	615.569
384.073	17.393	817.024	615.240
385.088	17.335	816.487	614.570
386.102	17.085	816.449	613.583
387.117	17.114	815.883	613.208
388.132	17.260	815.027	613.038
389.146	17.300	814.225	612.524
390.161	17.422	813.839	612.622
391.175	17.359	813.607	612.163
392.190	17.442	812.815	611.814
393.205	17.290	812.795	611.199
394.219	17.136	812.595	610.438
395.234	17.180	812.022	610.114
396.248	17.243	811.444	609.851
397.263	17.234	810.980	609.417
398.278	17.152	810.600	608.783
399.292	17.265	810.187	608.823
400.307	17.249	809.648	608.306
401.321	17.255	809.130	607.886
402.336	17.306	808.907	607.846
403.350	17.307	808.546	607.523
404.365	17.323	808.084	607.181
405.380	17.517	807.414	607.315
406.394	17.629	806.535	607.001
407.409	17.473	806.680	606.498
408.423	17.635	806.204	606.664
409.438	17.658	805.724	606.331
410.453	17.557	805.648	605.861
411.467	17.728	805.004	605.932
412.482	17.578	804.974	605.320
413.496	17.814	803.999	605.375
414.511	17.784	803.985	605.204
415.526	17.670	803.626	604.474
416.540	17.746	802.844	604.103
417.555	17.618	802.370	603.238
418.569	17.770	802.109	603.526
419.584	17.827	801.320	603.082
420.599	17.977	800.745	603.125
421.613	111.708	1295.250	1477.450
422.628	96.245	1367.281	1477.538
