DTS Sentinel unit serial number:	SN413079Multiplexer serial number:	ORYXHardware model number:	OX4-SRSoftware version number:	ORYX F/W v4.00 Oryx Data Collector v3.7.2.0data status	okinstallation	princeton_trtdifferential loss correction	single-endedforward channel	channel 1reverse channel	N/Adate	2019/09/18time	15:02:35forward acquisition time	60.00reverse acquisition time	0.00gamma	496.2192k internal	0.2307k external	0.2307temperature offset calibration	0.9990default loss term (dB/km)	0.3790temperature slope calibration	1.0000multiplexer offset coefficient	1.0000multiplexer slope coefficient	1.0000fibre end	0.00T internal ref (°C)	35.25T ext. ref 1 (°C)	0.73T ext. ref 2 (°C)	30.90length (m)	temperature (°C)	Stokes	anti-Stokes-747.200	79.582	0.123	-0.134
-746.185	-110.591	-0.155	0.033
-745.171	60.941	-0.276	0.278
-744.156	800.000	-0.139	0.535
-743.142	-200.000	-0.052	-0.327
-742.127	249.270	0.104	-0.180
-741.112	-200.000	0.035	-0.303
-740.098	-110.675	-0.313	0.066
-739.083	255.381	0.048	0.083
-738.069	-71.462	-0.290	0.110
-737.054	-200.000	0.005	0.137
-736.039	800.000	-0.072	-0.313
-735.025	41.881	0.198	0.182
-734.010	-78.908	-0.288	0.100
-732.996	148.589	-0.165	0.226
-731.981	-200.000	-0.112	0.521
-730.966	-93.298	-0.344	-0.097
-729.952	483.572	-0.046	-0.106
-728.937	534.686	-0.090	0.218
-727.923	55.038	0.034	0.034
-726.908	611.086	-0.055	0.139
-725.894	46.310	0.111	-0.104
-724.879	-74.444	0.208	-0.076
-723.864	-200.000	-0.133	0.001
-722.850	-106.827	0.263	0.059
-721.835	-96.253	-0.062	-0.017
-720.821	-200.000	-0.004	0.101
-719.806	-200.000	-0.002	0.019
-718.791	250.143	0.058	-0.100
-717.777	162.754	-0.199	0.283
-716.762	-78.604	-0.174	0.061
-715.748	800.000	0.027	-0.081
-714.733	239.924	-0.091	0.153
-713.718	53.684	0.205	-0.200
-712.704	-200.000	-0.021	0.348
-711.689	-18.549	-0.249	-0.158
-710.675	780.195	0.044	0.122
-709.660	800.000	-0.052	0.214
-708.645	-200.000	0.014	-0.088
-707.631	-161.782	0.201	0.010
-706.616	99.549	0.225	-0.265
-705.602	239.526	-0.302	0.510
-704.587	119.345	-0.038	-0.048
-703.572	395.859	0.107	0.226
-702.558	-160.504	-0.446	-0.024
-701.543	-200.000	0.017	0.078
-700.529	-200.000	-0.026	-0.147
-699.514	128.155	-0.110	0.143
-698.499	277.125	0.088	-0.159
-697.485	238.002	0.170	0.287
-696.470	98.167	-0.337	0.394
-695.456	-101.118	0.081	-0.020
-694.441	397.602	-0.044	-0.093
-693.426	-94.518	0.165	0.046
-692.412	137.482	0.073	0.096
-691.397	-200.000	0.001	0.175
-690.383	56.099	-0.131	0.129
-689.368	-125.786	0.105	0.016
-688.354	138.336	0.247	0.329
-687.339	640.197	-0.119	0.308
-686.324	-16.076	0.105	0.068
-685.310	640.616	-0.035	0.092
-684.295	200.831	0.144	-0.224
-683.281	-61.800	-0.258	-0.110
-682.266	204.241	-0.070	0.111
-681.251	-200.000	-0.015	-0.115
-680.237	-127.241	0.109	0.016
-679.222	-80.341	0.322	0.109
-678.208	-200.000	0.008	0.206
-677.193	309.043	-0.153	0.290
-676.178	-200.000	-0.007	0.035
-675.164	-134.071	0.137	-0.017
-674.149	-50.242	0.066	0.032
-673.135	60.738	0.133	-0.134
-672.120	-10.134	0.172	-0.116
-671.105	-73.539	-0.346	-0.128
-670.091	441.466	0.044	-0.099
-669.076	111.472	-0.084	-0.103
-668.062	26.306	-0.242	0.205
-667.047	169.441	0.042	-0.061
-666.032	502.993	-0.025	0.059
-665.018	231.983	0.061	0.101
-664.003	-200.000	-0.055	0.328
-662.989	-200.000	-0.012	0.109
-661.974	-200.000	0.022	0.316
-660.959	-200.000	-0.010	0.176
-659.945	693.621	-0.013	0.034
-658.930	366.452	0.089	0.181
-657.916	-143.341	-0.159	0.015
-656.901	-121.569	0.223	0.037
-655.886	-200.000	-0.027	0.156
-654.872	-109.726	-0.214	0.046
-653.857	-197.435	-0.251	0.002
-652.843	303.481	0.122	0.230
-651.828	44.542	-0.270	0.252
-650.814	774.462	-0.026	0.073
-649.799	-200.000	0.007	0.161
-648.784	561.479	0.089	0.218
-647.770	20.232	-0.100	-0.082
-646.755	34.032	0.170	-0.150
-645.741	-24.830	0.185	-0.111
-644.726	172.422	0.210	0.306
-643.711	85.690	-0.113	-0.126
-642.697	-104.697	-0.160	-0.037
-641.682	360.032	0.025	-0.051
-640.668	638.490	-0.146	0.377
-639.653	-200.000	-0.009	-0.079
-638.638	-95.558	-0.175	-0.048
-637.624	-63.627	0.059	-0.024
-636.609	-147.561	-0.355	0.030
-635.595	-88.936	-0.128	-0.038
-634.580	154.094	0.300	0.417
-633.565	-77.056	-0.200	0.071
-632.551	-54.514	-0.149	0.068
-631.536	-6.842	-0.097	-0.067
-630.522	109.336	-0.132	0.160
-629.507	418.573	0.153	-0.332
-628.492	-109.373	-0.021	0.004
-627.478	149.878	0.191	0.262
-626.463	46.763	0.158	0.148
-625.449	-30.034	-0.145	-0.084
-624.434	15.759	-0.185	0.147
-623.419	-111.089	0.236	0.049
-622.405	287.634	0.116	0.213
-621.390	-12.191	-0.301	0.200
-620.376	-7.255	0.177	0.121
-619.361	72.037	0.095	-0.100
-618.346	-40.857	-0.279	-0.146
-617.332	99.077	0.135	0.157
-616.317	-157.700	0.133	-0.008
-615.303	-107.657	0.035	0.008
-614.288	800.000	-0.073	0.232
-613.273	72.393	0.055	0.058
-612.259	199.675	-0.084	-0.131
-611.244	800.000	-0.091	-0.387
-610.230	-179.373	0.339	0.008
-609.215	-200.000	0.013	0.161
-608.201	-200.000	0.071	0.327
-607.186	800.000	0.058	0.176
-606.171	-31.040	0.224	0.128
-605.157	-36.439	0.098	-0.054
-604.142	73.315	0.145	-0.153
-603.128	-200.000	0.036	0.174
-602.113	-200.000	-0.004	0.066
-601.098	-200.000	-0.017	-0.442
-600.084	100.431	-0.077	0.090
-599.069	35.372	-0.284	0.252
-598.055	800.000	0.076	0.249
-597.040	-200.000	-0.077	0.375
-596.025	-200.000	-0.047	-0.316
-595.011	-200.000	0.001	-0.082
-593.996	-59.743	-0.231	-0.100
-592.982	312.938	0.116	0.220
-591.967	-32.084	-0.159	-0.090
-590.952	133.763	-0.149	0.195
-589.938	338.672	0.063	0.124
-588.923	-63.194	-0.117	-0.049
-587.909	800.000	0.023	0.095
-586.894	352.556	0.110	0.219
-585.879	-93.861	0.122	0.034
-584.865	-127.216	-0.023	0.003
-583.850	-90.462	-0.045	0.013
-582.836	-25.306	0.146	-0.088
-581.821	-145.523	-0.113	-0.010
-580.806	7.532	-0.116	-0.088
-579.792	-111.476	0.208	-0.043
-578.777	-89.638	-0.180	0.053
-577.763	-13.938	-0.231	0.151
-576.748	94.025	0.144	0.165
-575.733	-200.000	-0.036	-0.180
-574.719	-8.795	-0.013	0.009
-573.704	-44.690	-0.186	0.094
-572.690	800.000	0.026	0.092
-571.675	-25.149	-0.301	0.180
-570.661	-4.263	-0.082	-0.057
-569.646	-31.055	0.337	0.192
-568.631	-147.696	0.097	-0.008
-567.617	249.229	-0.043	-0.073
-566.602	-88.479	0.192	0.058
-565.588	-41.266	-0.327	-0.170
-564.573	-134.083	-0.136	-0.017
-563.558	242.816	-0.138	-0.233
-562.544	2.608	-0.157	-0.115
-561.529	800.000	-0.040	0.154
-560.515	107.551	-0.080	0.096
-559.500	-118.880	-0.125	0.022
-558.485	219.736	0.169	0.273
-557.471	554.525	0.042	0.101
-556.456	-67.667	-0.212	0.084
-555.442	-116.574	-0.298	-0.055
-554.427	800.000	0.062	0.247
-553.412	-135.932	0.147	0.018
-552.398	520.370	0.104	0.247
-551.383	-81.642	0.216	0.072
-550.369	1.274	-0.256	-0.186
-549.354	13.712	0.210	-0.165
-548.339	-200.000	0.049	0.250
-547.325	-100.288	-0.193	0.048
-546.310	68.942	-0.142	0.147
-545.296	-200.000	-0.052	0.338
-544.281	-164.557	0.203	0.009
-543.266	800.000	-0.025	0.095
-542.252	-200.000	-0.027	0.367
-541.237	-115.029	0.337	-0.065
-540.223	366.942	0.113	-0.229
-539.208	79.196	-0.178	0.192
-538.193	800.000	-0.063	-0.209
-537.179	-71.629	-0.378	0.143
-536.164	329.619	-0.133	-0.257
-535.150	448.410	-0.021	0.046
-534.135	181.004	-0.098	-0.145
-533.121	76.935	0.192	0.205
-532.106	185.410	-0.044	-0.066
-531.091	-200.000	0.041	0.306
-530.077	-9.436	-0.170	-0.115
-529.062	63.652	0.057	-0.057
-528.048	4.661	0.108	0.080
-527.033	211.539	0.010	-0.016
-526.018	-104.337	-0.198	0.046
-525.004	305.746	-0.116	0.218
-523.989	57.498	-0.083	-0.082
-522.975	-200.000	-0.056	-0.250
-521.960	38.865	0.212	-0.191
-520.945	74.039	-0.205	-0.217
-519.931	-200.000	0.006	0.101
-518.916	-116.634	0.393	0.073
-517.902	787.143	-0.024	0.067
-516.887	-200.000	0.048	-0.251
-515.872	481.997	0.064	-0.146
-514.858	523.822	-0.205	0.487
-513.843	171.188	0.190	0.274
-512.829	-200.000	0.038	0.228
-511.814	233.610	0.149	0.247
-510.799	800.000	0.120	0.495
-509.785	-197.180	-0.363	0.002
-508.770	-114.480	0.351	0.068
-507.756	159.373	-0.167	0.234
-506.741	78.991	-0.158	-0.171
-505.726	360.881	-0.072	-0.145
-504.712	-200.000	0.022	-0.260
-503.697	-200.000	-0.013	-0.269
-502.683	470.513	0.021	-0.048
-501.668	-98.867	0.268	-0.069
-500.653	-125.819	0.227	0.034
-499.639	231.805	-0.042	-0.070
-498.624	100.461	-0.440	0.514
-497.610	204.381	0.057	0.089
-496.595	163.093	-0.112	-0.159
-495.581	211.755	0.108	-0.172
-494.566	-101.219	-0.117	0.029
-493.551	-84.103	0.166	-0.053
-492.537	-200.000	-0.020	-0.177
-491.522	800.000	-0.029	0.118
-490.508	-29.335	-0.098	0.057
-489.493	-200.000	-0.019	0.139
-488.478	-95.185	0.142	-0.038
-487.464	344.968	0.048	-0.094
-486.449	-59.589	-0.249	-0.108
-485.435	424.055	0.136	-0.295
-484.420	172.925	0.059	-0.086
-483.405	-143.565	-0.195	0.019
-482.391	-86.209	0.316	-0.098
-481.376	800.000	-0.132	-0.384
-480.362	-111.456	-0.227	0.046
-479.347	-150.271	-0.311	0.024
-478.332	280.831	0.052	0.094
-477.318	4.408	0.198	0.146
-476.303	-200.000	-0.011	-0.216
-475.289	55.307	0.067	-0.066
-474.274	-19.688	-0.169	0.105
-473.259	379.321	0.010	0.020
-472.245	60.642	-0.302	-0.301
-471.230	800.000	0.040	-0.145
-470.216	800.000	-0.062	-0.204
-469.201	-149.271	-0.429	0.034
-468.186	-102.991	0.178	0.042
-467.172	-91.241	-0.180	0.052
-466.157	-98.331	-0.398	-0.103
-465.143	800.000	0.013	0.035
-464.128	179.901	-0.071	0.104
-463.113	-94.492	-0.127	-0.035
-462.099	-200.000	-0.049	-0.427
-461.084	-200.000	-0.016	-0.240
-460.070	77.488	0.120	-0.128
-459.055	800.000	0.041	0.130
-458.040	800.000	0.090	-0.269
-457.026	-200.000	0.041	-0.212
-456.011	-200.000	0.052	-0.246
-454.997	-48.283	-0.169	0.082
-453.982	19.390	0.180	0.145
-452.968	-22.798	-0.057	-0.035
-451.953	-200.000	0.009	-0.155
-450.938	63.514	0.055	0.056
-449.924	-200.000	0.001	-0.081
-448.909	202.898	-0.067	0.105
-447.895	-113.191	0.290	0.057
-446.880	556.995	-0.091	0.222
-445.865	-52.874	0.053	0.024
-444.851	-125.399	-0.120	-0.018
-443.836	510.673	0.112	-0.262
-442.822	33.257	-0.147	-0.128
-441.807	-190.431	-0.191	-0.002
-440.792	800.000	-0.057	0.248
-439.778	-200.000	-0.035	0.202
-438.763	6.429	0.502	0.375
-437.749	-123.656	-0.016	-0.003
-436.734	-184.699	-0.246	0.004
-435.719	-21.942	0.159	-0.097
-434.705	-61.916	-0.107	0.045
-433.690	-154.423	-0.403	-0.027
-432.676	-65.277	0.194	0.078
-431.661	3.385	0.048	-0.035
-430.646	-88.166	0.192	0.058
-429.632	-155.000	0.236	0.016
-428.617	93.839	0.091	-0.104
-427.603	-18.971	-0.126	-0.079
-426.588	-60.461	-0.299	0.128
-425.573	238.631	-0.232	0.388
-424.559	800.000	-0.063	-0.185
-423.544	193.880	-0.115	-0.175
-422.530	-78.981	-0.197	-0.067
-421.515	67.658	0.016	0.016
-420.500	-88.463	0.356	0.107
-419.486	-99.145	0.279	0.071
-418.471	-200.000	-0.007	0.139
-417.457	455.866	0.074	-0.164
-416.442	800.000	-0.054	-0.233
-415.428	-61.055	-0.168	-0.071
-414.413	-143.801	-0.186	0.018
-413.398	-109.876	0.092	0.019
-412.384	-200.000	0.005	0.153
-411.369	243.374	0.160	0.269
-410.355	-200.000	-0.007	-0.189
-409.340	6.543	0.195	-0.145
-408.325	710.990	0.165	0.438
-407.311	-25.339	0.141	-0.084
-406.296	149.610	0.128	0.174
-405.282	145.012	-0.112	0.151
-404.267	-129.674	0.317	-0.044
-403.252	22.207	0.288	-0.236
-402.238	149.476	-0.281	0.382
-401.223	800.000	-0.072	0.282
-400.209	374.748	-0.037	-0.075
-399.194	-92.683	-0.274	-0.077
-398.179	178.746	-0.111	-0.163
-397.165	-52.785	-0.374	-0.173
-396.150	-95.985	0.206	-0.055
-395.136	-200.000	0.051	0.282
-394.121	-136.127	0.292	-0.034
-393.106	74.388	-0.009	0.009
-392.092	-200.000	-0.002	0.229
-391.077	-200.000	-0.003	0.164
-390.063	-178.697	0.127	0.003
-389.048	-106.916	0.167	-0.037
-388.033	275.220	-0.067	-0.119
-387.019	1.040	0.100	0.072
-386.004	800.000	-0.033	0.098
-384.990	-200.000	0.013	0.385
-383.975	-123.781	0.213	0.034
-382.960	44.151	0.135	0.125
-381.946	-30.452	-0.051	-0.029
-380.931	85.813	0.157	0.173
-379.917	97.191	0.370	0.426
-378.902	112.458	0.138	-0.167
-377.888	-200.000	0.200	0.000
-376.873	44.933	0.178	-0.164
-375.858	-200.000	0.022	0.140
-374.844	-200.000	-0.006	0.028
-373.829	800.000	0.070	-0.258
-372.815	338.975	-0.165	-0.323
-371.800	9.046	-0.045	-0.034
-370.785	627.229	0.072	0.182
-369.771	206.673	-0.044	-0.069
-368.756	58.170	0.126	-0.124
-367.742	353.633	-0.066	0.131
-366.727	147.110	0.097	0.130
-365.712	-84.644	-0.103	0.032
-364.698	-45.299	0.179	0.089
-363.683	-200.000	0.001	-0.224
-362.669	-200.000	-0.034	-0.190
-361.654	-72.475	0.090	-0.033
-360.639	-108.160	-0.401	-0.087
-359.625	-128.722	0.191	0.027
-358.610	-106.284	0.299	-0.067
-357.596	37.658	0.145	-0.129
-356.581	-200.000	0.031	0.203
-355.566	164.850	0.020	0.028
-354.552	-156.122	0.070	0.004
-353.537	-143.633	-0.186	-0.018
-352.523	-51.676	-0.330	-0.154
-351.508	800.000	-0.105	-0.318
-350.493	-130.347	-0.143	0.019
-349.479	152.690	0.111	0.152
-348.464	-200.000	0.007	0.105
-347.450	800.000	-0.030	0.099
-346.435	361.536	0.013	0.026
-345.420	-58.461	0.113	0.049
-344.406	800.000	0.033	-0.141
-343.391	167.252	0.276	-0.392
-342.377	-200.000	0.017	-0.106
-341.362	51.496	-0.080	-0.077
-340.348	-113.907	-0.370	0.072
-339.333	800.000	-0.138	-0.433
-338.318	3.127	0.140	0.102
-337.304	515.945	0.068	-0.159
-336.289	88.046	-0.031	0.035
-335.275	65.969	-0.162	-0.165
-334.260	-200.000	-0.044	0.488
-333.245	87.210	0.169	0.187
-332.231	-200.000	-0.071	-0.323
-331.216	800.000	0.019	-0.060
-330.202	258.500	-0.129	0.222
-329.187	-133.013	0.286	0.036
-328.172	800.000	0.015	0.047
-327.158	-200.000	-0.008	-0.050
-326.143	137.724	-0.096	0.126
-325.129	22.525	0.315	0.258
-324.114	238.063	0.066	0.109
-323.099	199.402	0.075	0.115
-322.085	366.802	-0.019	-0.037
-321.070	-85.492	-0.370	0.115
-320.056	-112.940	-0.293	-0.058
-319.041	-71.604	0.248	0.092
-318.026	60.862	0.229	0.227
-317.012	-59.505	0.167	0.072
-315.997	-103.833	-0.103	-0.024
-314.983	-161.189	-0.375	0.020
-313.968	341.872	0.078	-0.153
-312.953	-106.933	0.106	0.023
-311.939	-127.326	0.019	0.003
-310.924	52.381	0.162	-0.155
-309.910	-119.103	0.365	0.064
-308.895	3.315	0.188	-0.137
-307.880	68.798	0.139	-0.143
-306.866	208.526	-0.249	0.389
-305.851	16.251	-0.147	-0.116
-304.837	-107.429	0.421	0.092
-303.822	-129.845	0.107	-0.015
-302.807	178.682	-0.154	0.225
-301.793	-51.269	0.397	-0.186
-300.778	8.993	0.023	0.017
-299.764	800.000	0.111	-0.408
-298.749	-46.897	-0.286	-0.140
-297.735	-49.792	0.172	-0.082
-296.720	0.903	-0.030	0.021
-295.705	800.000	0.074	0.275
-294.691	-23.466	0.092	-0.055
-293.676	-200.000	0.046	-0.295
-292.662	24.942	0.151	0.125
-291.647	-39.254	-0.139	-0.073
-290.632	299.756	0.170	-0.313
-289.618	9.706	0.245	0.185
-288.603	-200.000	-0.015	-0.300
-287.589	-48.309	-0.121	0.058
-286.574	800.000	-0.034	0.102
-285.559	-37.202	0.175	0.093
-284.545	-141.694	-0.190	0.019
-283.530	-93.293	0.167	-0.046
-282.516	295.320	0.120	-0.219
-281.501	-56.822	-0.087	0.039
-280.486	204.830	-0.189	0.293
-279.472	57.499	0.289	-0.282
-278.457	9.550	0.231	-0.175
-277.443	88.147	-0.168	-0.186
-276.428	-82.334	0.124	0.040
-275.413	800.000	-0.083	-0.318
-274.399	-95.750	-0.256	0.068
-273.384	52.742	0.160	-0.153
-272.370	-200.000	-0.009	-0.106
-271.355	800.000	0.040	0.156
-270.340	223.044	-0.119	-0.192
-269.326	127.773	-0.094	0.119
-268.311	129.019	0.140	0.178
-267.297	-102.573	0.217	0.052
-266.282	-200.000	0.035	0.210
-265.267	273.775	-0.042	-0.073
-264.253	-139.087	-0.211	-0.023
-263.238	85.088	-0.201	-0.220
-262.224	-200.000	0.195	0.001
-261.209	-199.719	0.116	0.001
-260.195	145.079	-0.124	-0.166
-259.180	-14.455	0.092	-0.059
-258.165	-200.000	0.018	0.207
-257.151	-200.000	0.002	-0.325
-256.136	-103.242	0.102	-0.024
-255.122	-45.139	-0.242	-0.120
-254.107	-200.000	0.023	0.109
-253.092	332.572	-0.099	0.191
-252.078	-133.949	0.157	0.019
-251.063	800.000	0.018	-0.065
-250.049	-200.000	-0.069	-0.327
-249.034	-71.435	-0.091	0.034
-248.019	-71.551	-0.215	0.080
-247.005	800.000	-0.044	-0.152
-245.990	-100.021	0.403	0.100
-244.976	-94.841	-0.636	-0.172
-243.961	211.667	0.136	0.213
-242.946	238.710	-0.066	-0.109
-241.932	62.239	0.175	0.174
-240.917	171.473	0.085	0.122
-239.903	67.766	0.084	-0.086
-238.888	-200.000	0.009	-0.124
-237.873	800.000	-0.019	0.077
-236.859	-120.771	-0.061	0.010
-235.844	25.614	-0.265	-0.220
-234.830	-135.031	-0.147	-0.018
-233.815	-200.000	0.014	-0.304
-232.800	-114.267	0.273	-0.053
-231.786	64.356	-0.038	0.039
-230.771	800.000	-0.068	-0.200
-229.757	-200.000	-0.079	-0.000
-228.742	375.545	0.090	0.183
-227.727	-131.258	-0.275	-0.036
-226.713	-135.181	0.248	0.030
-225.698	-200.000	0.044	-0.371
-224.684	800.000	-0.051	0.168
-223.669	49.539	0.225	0.211
-222.655	-0.147	0.198	-0.140
-221.640	53.759	0.206	0.197
-220.625	49.411	0.212	0.199
-219.611	-200.000	0.052	0.336
-218.596	678.539	-0.063	0.163
-217.582	-89.909	-0.218	-0.063
-216.567	89.006	-0.150	-0.166
-215.552	-168.962	0.166	0.006
-214.538	800.000	-0.057	-0.226
-213.523	-127.038	-0.278	0.041
-212.509	11.117	-0.096	-0.073
-211.494	15.541	0.064	-0.050
-210.479	800.000	0.042	0.174
-209.465	186.106	-0.097	-0.144
-208.450	-200.000	0.001	0.096
-207.436	213.142	-0.275	-0.433
-206.421	-200.000	-0.025	-0.251
-205.406	278.744	0.070	-0.125
-204.392	-140.062	-0.076	0.008
-203.377	-104.423	-0.311	0.072
-202.363	40.711	-0.216	-0.194
-201.348	800.000	0.113	-0.418
-200.333	56.129	-0.075	-0.072
-199.319	11.197	-0.161	-0.123
-198.304	21.127	-0.230	-0.186
-197.290	18.280	-0.238	-0.189
-196.275	-37.951	-0.390	-0.206
-195.260	-200.000	-0.040	-0.342
-194.246	-116.371	-0.419	0.077
-193.231	-168.816	0.207	-0.008
-192.217	-29.138	-0.351	-0.200
-191.202	558.953	0.083	-0.199
-190.187	-105.599	0.148	0.033
-189.173	-3.996	-0.167	0.115
-188.158	-43.252	0.058	-0.029
-187.144	-200.000	-0.017	-0.084
-186.129	800.000	0.007	-0.024
-185.114	136.930	-0.076	-0.098
-184.100	-200.000	0.006	0.038
-183.085	-120.338	0.121	0.020
-182.071	738.042	0.040	-0.107
-181.056	-54.059	0.160	0.072
-180.042	-130.861	0.241	0.032
-179.027	-200.000	-0.037	-0.443
-178.012	13.992	-0.291	-0.225
-176.998	-80.440	-0.242	-0.080
-175.983	-15.928	-0.213	0.135
-174.969	-171.515	-0.174	0.006
-173.954	-133.924	0.466	0.057
-172.939	67.321	0.287	0.291
-171.925	-200.000	0.036	0.382
-170.910	754.447	0.059	-0.157
-169.896	-27.618	0.176	0.102
-168.881	66.936	-0.123	-0.125
-167.866	-142.069	-0.102	-0.010
-166.852	253.943	-0.098	0.166
-165.837	-165.330	0.490	-0.021
-164.823	232.488	-0.040	-0.065
-163.808	-59.481	-0.210	-0.090
-162.793	19.207	0.116	0.092
-161.779	-200.000	-0.039	-0.318
-160.764	17.001	-0.092	-0.072
-159.750	-176.963	0.498	0.012
-158.735	800.000	0.051	0.207
-157.720	29.478	0.351	-0.297
-156.706	124.913	-0.070	-0.088
-155.691	-200.000	0.001	0.287
-154.677	-200.000	0.009	0.181
-153.662	200.646	0.102	-0.156
-152.647	-200.000	-0.029	0.225
-151.633	189.293	0.112	-0.166
-150.618	440.302	0.138	0.300
-149.604	260.744	-0.100	0.172
-148.589	423.847	-0.118	-0.251
-147.574	-9.535	0.297	0.197
-146.560	512.863	-0.192	-0.445
-145.545	-200.000	0.054	-0.389
-144.531	-126.945	-0.170	-0.025
-143.516	128.175	0.029	0.037
-142.502	-131.490	-0.305	-0.040
-141.487	-131.111	-0.184	-0.024
-140.472	-124.041	-0.239	-0.037
-139.458	22.191	0.017	-0.014
-138.443	-147.596	-0.439	-0.037
-137.429	800.000	0.020	0.085
-136.414	-17.758	-0.121	0.075
-135.399	-41.482	-0.129	0.066
-134.385	173.878	-0.060	0.086
-133.370	-200.000	0.030	-0.292
-132.356	48.390	0.085	-0.079
-131.341	293.237	0.247	-0.448
-130.326	484.579	-0.101	0.229
-129.312	17.000	-0.037	0.029
-128.297	610.086	0.077	-0.191
-127.283	-123.886	0.249	0.039
-126.268	-189.227	-0.375	0.004
-125.253	-200.000	-0.009	0.067
-124.239	-200.000	0.030	-0.258
-123.224	209.214	0.135	-0.210
-122.210	-200.000	-0.002	-0.101
-121.195	-185.681	0.139	0.002
-120.180	-200.000	-0.004	0.199
-119.166	-164.558	-0.214	-0.010
-118.151	-94.375	-0.235	-0.064
-117.137	160.834	0.028	-0.038
-116.122	-192.806	0.169	-0.002
-115.107	-47.822	-0.377	-0.181
-114.093	353.515	0.118	0.232
-113.078	-127.679	-0.299	0.043
-112.064	92.527	-0.162	0.181
-111.049	131.679	0.149	-0.191
-110.034	-49.561	-0.208	-0.098
-109.020	-200.000	-0.009	-0.164
-108.005	-67.443	-0.136	-0.053
-106.991	74.548	-0.176	0.183
-105.976	-136.032	-0.105	0.012
-104.962	538.639	-0.041	0.097
-103.947	67.752	-0.044	0.044
-102.932	166.630	0.066	-0.093
-101.918	166.351	0.074	0.104
-100.903	-82.294	0.156	0.050
-99.889	-74.144	-0.207	-0.074
-98.874	-91.483	0.126	-0.036
-97.859	221.650	0.297	0.473
-96.845	4.132	-0.366	0.265
-95.830	-194.111	-0.042	-0.000
-94.816	-44.217	0.336	0.167
-93.801	-200.000	-0.053	-0.270
-92.786	532.873	-0.057	-0.135
-91.772	14.595	-0.143	0.111
-90.757	-115.914	0.148	0.027
-89.743	-139.106	0.181	0.019
-88.728	-109.493	0.301	0.063
-87.713	124.491	0.159	-0.198
-86.699	-200.000	-0.025	-0.308
-85.684	418.394	0.089	-0.189
-84.670	25.721	0.303	-0.250
-83.655	40.312	0.247	-0.220
-82.640	-200.000	0.069	0.344
-81.626	115.947	0.096	0.117
-80.611	56.750	0.229	-0.221
-79.597	-162.223	-0.299	0.015
-78.582	225.277	-0.063	-0.101
-77.567	-9.801	-0.124	-0.082
-76.553	-200.000	-0.009	-0.166
-75.538	-101.260	-0.100	-0.024
-74.524	232.918	-0.026	0.043
-73.509	-16.729	0.169	0.106
-72.494	-200.000	-0.003	-0.043
-71.480	800.000	-0.022	0.084
-70.465	52.806	0.014	-0.014
-69.451	280.468	-0.197	-0.350
-68.436	132.179	-0.127	-0.162
-67.422	-47.460	-0.170	0.082
-66.407	730.607	0.156	-0.412
-65.392	-200.000	0.070	-0.336
-64.378	800.000	0.016	0.067
-63.363	-200.000	0.058	-0.478
-62.349	-200.000	-0.031	0.241
-61.334	32.457	-0.908	-0.777
-60.319	256.532	0.320	0.544
-59.305	450.863	-0.467	-1.021
-58.290	117.087	0.591	0.719
-57.276	493.439	0.664	1.509
-56.261	-200.000	94.716	552.751
-55.246	517.201	1408.039	3260.148
-54.232	145.940	2628.217	3489.117
-53.217	112.799	2220.418	2662.659
-52.203	46.964	1663.542	1531.301
-51.188	38.606	1395.456	1232.186
-50.173	35.423	1352.112	1174.430
-49.159	55.156	1400.056	1339.428
-48.144	58.896	1418.347	1380.167
-47.130	39.051	1372.681	1214.638
-46.115	35.449	1354.625	1176.583
-45.100	35.234	1349.893	1171.114
-44.086	35.164	1347.850	1168.865
-43.071	35.061	1345.206	1165.902
-42.057	35.076	1343.351	1164.337
-41.042	35.196	1341.165	1163.124
-40.027	35.172	1339.951	1161.879
-39.013	35.142	1338.010	1159.970
-37.998	35.206	1335.821	1158.414
-36.984	35.311	1333.924	1157.355
-35.969	35.322	1332.395	1156.050
-34.954	35.272	1330.440	1154.008
-33.940	35.287	1329.584	1153.309
-32.925	35.252	1327.904	1151.595
-31.911	35.346	1326.440	1150.845
-30.896	35.343	1324.626	1149.205
-29.881	35.299	1323.893	1148.259
-28.867	35.374	1322.234	1147.223
-27.852	35.403	1320.507	1145.853
-26.838	35.406	1319.305	1144.782
-25.823	35.455	1317.824	1143.743
-24.809	35.341	1316.247	1141.654
-23.794	35.415	1314.784	1140.780
-22.779	35.415	1313.375	1139.510
-21.765	35.372	1312.488	1138.441
-20.750	35.234	1311.462	1136.689
-19.736	35.148	1309.975	1134.844
-18.721	35.226	1308.369	1133.872
-17.706	35.237	1307.323	1132.985
-16.692	35.181	1306.041	1131.497
-15.677	35.228	1305.074	1130.890
-14.663	35.189	1303.916	1129.615
-13.648	35.153	1303.101	1128.649
-12.633	35.153	1302.219	1127.842
-11.619	35.130	1301.110	1126.699
-10.604	35.184	1300.125	1126.122
-9.590	35.124	1299.376	1125.073
-8.575	35.154	1298.495	1124.444
-7.560	35.198	1297.240	1123.568
-6.546	35.052	1297.031	1122.490
-5.531	35.187	1295.283	1121.722
-4.517	35.158	1294.546	1120.869
-3.502	35.189	1293.571	1120.158
-2.487	35.179	1292.830	1119.417
-1.473	35.179	1288.885	1115.956
-0.458	33.945	1273.991	1095.906
0.556	28.957	1255.214	1053.940
1.571	24.621	1259.313	1032.302
2.586	22.810	1273.776	1033.473
3.600	21.608	1261.791	1016.683
4.615	15.642	1185.804	922.715
5.629	6.004	1104.899	810.170
6.644	1.157	1082.785	769.334
7.659	0.605	1080.431	764.797
8.673	0.618	1079.270	763.974
9.688	0.543	1078.387	762.903
10.702	0.835	1076.639	763.075
11.717	6.283	1084.064	795.881
12.731	14.765	1095.557	847.443
13.746	17.867	1098.184	865.145
14.761	17.372	1097.293	861.863
15.775	16.551	1095.125	855.929
16.790	15.513	1093.264	849.152
17.804	14.745	1091.552	843.868
18.819	14.360	1090.392	840.952
19.834	14.074	1089.129	838.461
20.848	13.881	1088.322	836.796
21.863	13.648	1087.475	834.895
22.877	13.420	1087.124	833.408
23.892	13.511	1085.908	832.857
24.907	13.390	1085.470	831.841
25.921	13.400	1084.422	831.012
26.936	13.546	1083.642	831.076
27.950	13.614	1082.792	830.688
28.965	13.495	1081.843	829.291
29.980	13.631	1080.078	828.545
30.994	13.729	1079.167	828.260
32.009	13.682	1078.166	827.186
33.023	13.697	1077.452	826.642
34.038	13.620	1076.236	825.251
35.053	13.494	1075.571	824.041
36.067	13.572	1074.708	823.695
37.082	13.557	1073.931	822.951
38.096	13.699	1072.946	822.830
39.111	13.603	1072.251	821.749
40.126	13.511	1070.973	820.239
41.140	13.506	1069.938	819.348
42.155	13.382	1068.834	817.817
43.169	13.415	1067.669	817.016
44.184	13.447	1066.574	816.266
45.199	13.476	1065.853	815.783
46.213	13.478	1064.598	814.760
47.228	13.485	1063.555	813.927
48.242	13.492	1062.686	813.225
49.257	13.422	1061.706	812.055
50.271	13.490	1060.735	811.576
51.286	13.608	1059.458	811.104
52.301	13.604	1058.539	810.312
53.315	13.480	1057.921	809.159
54.330	13.473	1056.723	808.139
55.344	13.453	1056.419	807.737
56.359	13.430	1055.161	806.590
57.374	13.516	1053.863	805.948
58.388	13.382	1052.823	804.428
59.403	13.355	1052.793	804.202
60.417	13.316	1051.673	803.087
61.432	13.332	1050.847	802.463
62.447	13.351	1050.204	801.992
63.461	13.329	1049.459	801.244
64.476	13.365	1048.376	800.522
65.490	13.358	1047.470	799.726
66.505	13.480	1046.421	799.441
67.520	13.363	1046.151	798.603
68.534	13.458	1044.900	798.036
69.549	13.459	1044.304	797.514
70.563	13.405	1043.671	796.697
71.578	13.390	1042.633	795.763
72.593	13.405	1041.907	795.213
73.607	13.370	1041.181	794.417
74.622	13.389	1040.777	794.133
75.636	13.272	1040.195	793.055
76.651	13.430	1038.965	792.806
77.666	13.464	1038.587	792.611
78.680	13.344	1037.905	791.442
79.695	13.317	1037.563	790.984
80.709	13.403	1036.749	790.706
81.724	13.434	1036.023	790.231
82.739	13.444	1034.997	789.424
83.753	13.571	1033.890	789.114
84.768	13.473	1033.386	788.194
85.782	13.632	1031.842	787.704
86.797	13.598	1031.196	786.977
87.812	13.552	1030.400	786.080
88.826	13.446	1029.567	784.874
89.841	13.507	1028.552	784.321
90.855	13.540	1027.661	783.728
91.870	13.612	1026.668	783.241
92.884	13.612	1025.648	782.396
93.899	13.675	1024.821	781.992
94.914	13.704	1024.199	781.583
95.928	13.773	1023.280	781.138
96.943	13.637	1022.417	779.769
97.957	13.633	1021.195	778.752
98.972	13.671	1020.695	778.481
99.987	13.615	1019.769	777.441
101.001	13.595	1018.652	776.429
102.016	13.691	1017.923	776.251
103.030	13.665	1017.010	775.367
104.045	13.560	1016.543	774.453
105.060	13.679	1015.288	773.980
106.074	13.542	1014.639	772.777
107.089	13.538	1013.195	771.592
108.103	13.398	1012.927	770.669
109.118	13.480	1011.681	770.032
110.133	13.452	1010.928	769.265
111.147	13.486	1009.914	768.580
112.162	13.602	1008.577	768.033
113.176	13.555	1008.155	767.427
114.191	13.591	1007.637	767.131
115.206	13.697	1006.358	766.579
116.220	13.542	1006.076	765.579
117.235	13.693	1004.307	764.864
118.249	13.635	1003.809	764.146
119.264	13.549	1003.172	763.198
120.279	13.553	1002.630	762.740
121.293	13.558	1001.414	761.767
122.308	13.542	1000.674	761.065
123.322	13.499	999.722	760.075
124.337	13.583	998.587	759.531
125.352	13.564	997.576	758.608
126.366	13.649	995.942	757.687
127.381	13.673	995.199	757.165
128.395	13.491	994.756	755.928
129.410	13.624	993.636	755.616
130.424	13.495	992.975	754.458
131.439	13.634	992.304	754.514
132.454	13.754	990.580	753.683
133.468	13.691	990.434	753.222
134.483	13.602	989.522	752.056
135.497	13.627	988.431	751.273
136.512	13.788	987.721	751.395
137.527	13.681	986.816	750.158
138.541	13.737	986.107	749.806
139.556	13.687	985.449	749.015
140.570	13.757	985.054	748.964
141.585	13.799	983.714	748.066
142.600	13.909	982.707	747.728
143.614	13.821	982.050	746.770
144.629	13.821	981.388	746.197
145.643	13.794	980.160	745.079
146.658	13.824	979.381	744.552
147.673	13.671	978.918	743.448
148.687	13.857	977.915	743.456
149.702	13.665	976.946	741.793
150.716	13.663	976.014	741.011
151.731	13.723	975.263	740.642
152.746	13.737	974.416	739.998
153.760	13.749	974.145	739.781
154.775	13.755	973.402	739.177
155.789	13.851	972.557	738.896
156.804	13.776	972.057	738.118
157.819	13.950	970.763	737.842
158.833	13.930	970.099	737.187
159.848	13.931	969.466	736.641
160.862	13.911	968.344	735.637
161.877	13.913	967.458	734.909
162.892	13.861	966.661	734.009
163.906	13.918	966.062	733.738
164.921	13.877	964.968	732.664
165.935	13.937	963.655	731.867
166.950	13.834	963.216	731.012
167.964	13.930	961.957	730.418
168.979	13.854	961.461	729.639
169.994	13.870	960.660	729.040
171.008	13.969	959.919	728.845
172.023	14.058	959.103	728.553
173.037	14.051	958.362	727.895
174.052	14.106	957.599	727.491
175.067	13.906	957.121	726.190
176.081	13.972	956.428	725.885
177.096	13.847	956.262	725.151
178.110	13.991	955.525	725.154
179.125	13.935	954.991	724.441
180.140	13.979	954.544	724.231
181.154	13.949	954.226	723.794
182.169	14.034	953.349	723.437
183.183	14.003	952.717	722.756
184.198	14.299	951.329	722.926
185.213	14.165	951.005	722.032
186.227	14.242	949.787	721.379
187.242	14.178	949.658	720.941
188.256	14.196	949.453	720.797
189.271	14.249	948.054	719.900
190.286	14.094	947.561	718.792
191.300	14.081	946.860	718.144
192.315	14.078	945.861	717.307
193.329	13.925	945.949	716.652
194.344	14.006	944.936	716.169
195.359	14.153	944.280	716.240
196.373	14.184	943.782	715.934
197.388	14.057	943.716	715.274
198.402	14.298	942.630	715.424
199.417	14.349	942.058	715.146
200.432	14.392	941.442	714.798
201.446	14.490	940.764	714.641
202.461	14.499	940.148	714.147
203.475	14.451	939.682	713.527
204.490	14.492	939.077	713.177
205.504	14.312	938.347	711.791
206.519	14.417	937.394	711.452
207.534	14.482	936.684	711.128
208.548	14.384	935.935	710.079
209.563	14.387	935.248	709.510
210.577	14.482	934.648	709.396
211.592	14.645	933.610	709.239
212.607	14.645	932.788	708.548
213.621	14.544	932.309	707.695
214.636	14.634	931.289	707.238
215.650	14.623	930.883	706.819
216.665	14.724	930.089	706.582
217.680	14.711	929.562	706.064
218.694	14.697	928.829	705.386
219.709	14.597	928.397	704.575
220.723	14.584	927.574	703.831
221.738	14.569	927.060	703.320
222.753	14.670	926.029	702.897
223.767	14.821	925.318	702.930
224.782	14.640	925.196	702.016
225.796	14.762	924.438	701.891
226.811	14.695	924.065	701.265
227.826	14.654	923.302	700.449
228.840	14.838	922.218	700.338
229.855	14.781	921.530	699.516
230.869	14.657	920.856	698.424
231.884	14.703	920.267	698.107
232.899	14.778	919.510	697.782
233.913	14.759	918.694	697.024
234.928	14.711	918.147	696.345
235.942	14.767	917.533	696.050
236.957	14.772	917.116	695.697
237.972	14.772	916.305	695.017
238.986	14.858	915.373	694.607
240.001	14.806	914.917	693.985
241.015	14.768	914.732	693.624
242.030	14.825	914.026	693.264
243.045	15.002	912.868	693.058
244.059	14.820	912.612	692.049
245.074	14.903	912.106	691.948
246.088	14.902	911.040	691.074
247.103	14.929	910.978	691.077
248.117	14.953	910.077	690.432
249.132	14.967	909.273	689.818
250.147	15.064	908.747	689.758
251.161	15.142	907.972	689.429
252.176	15.177	907.341	689.034
253.190	15.150	906.938	688.556
254.205	15.257	905.987	688.211
255.220	15.198	905.886	687.832
256.234	15.301	905.068	687.572
257.249	15.284	904.459	686.979
258.263	15.272	903.392	686.057
259.278	15.316	902.712	685.661
260.293	15.371	902.196	685.432
261.307	15.394	901.526	684.958
262.322	15.302	901.203	684.276
263.336	15.452	900.131	684.015
264.351	15.424	899.453	683.322
265.366	15.467	898.602	682.791
266.380	15.492	898.143	682.483
267.395	15.431	897.889	681.982
268.409	15.481	896.651	681.184
269.424	15.440	895.796	680.309
270.439	15.390	895.213	679.602
271.453	15.340	894.574	678.857
272.468	15.382	894.285	678.745
273.482	15.487	893.499	678.515
274.497	15.590	892.905	678.419
275.512	15.523	891.999	677.399
276.526	15.644	891.683	677.587
277.541	15.526	891.313	676.770
278.555	15.644	890.416	676.504
279.570	15.479	890.070	675.520
280.585	15.617	888.978	675.182
281.599	15.603	888.192	674.470
282.614	15.728	887.622	674.479
283.628	15.656	887.050	673.698
284.643	15.581	886.352	672.808
285.657	15.641	885.608	672.422
286.672	15.648	885.137	672.035
287.687	15.695	884.300	671.526
288.701	15.753	884.016	671.483
289.716	15.658	883.445	670.611
290.730	15.909	882.564	670.885
291.745	15.814	882.004	670.020
292.760	15.843	881.409	669.624
293.774	15.910	880.785	669.358
294.789	15.884	880.266	668.800
295.803	15.806	879.635	667.953
296.818	15.890	878.628	667.460
297.833	15.785	878.435	666.840
298.847	15.937	877.474	666.654
299.862	15.950	876.984	666.274
300.876	15.887	876.598	665.671
301.891	15.839	876.031	664.992
302.906	15.933	875.336	664.775
303.920	16.008	874.757	664.576
304.935	16.154	873.879	664.425
305.949	16.036	873.717	663.777
306.964	16.082	872.602	663.052
307.979	16.061	872.241	662.639
308.993	16.100	871.604	662.247
310.008	16.141	871.381	662.182
311.022	16.116	870.759	661.552
312.037	16.059	870.242	660.876
313.052	16.030	869.363	660.036
314.066	16.046	868.961	659.733
315.081	16.175	868.272	659.658
316.095	16.125	867.055	658.482
317.110	16.176	867.113	658.666
318.125	16.142	866.574	658.063
319.139	16.088	866.109	657.443
320.154	16.221	865.271	657.266
321.168	16.236	865.014	657.073
322.183	16.252	864.587	656.753
323.197	16.112	864.440	656.038
324.212	16.143	863.720	655.554
325.227	16.319	862.746	655.440
326.241	16.311	861.882	654.694
327.256	16.170	861.798	654.024
328.270	16.312	860.555	653.574
329.285	16.269	860.297	653.153
330.300	16.185	859.880	652.455
331.314	16.288	859.248	652.317
332.329	16.277	858.966	652.002
333.343	16.314	858.319	651.593
334.358	16.339	858.085	651.458
335.373	16.496	857.085	651.245
336.387	16.371	857.444	650.977
337.402	16.423	856.864	650.681
338.416	16.434	856.531	650.411
339.431	16.438	856.359	650.238
340.446	16.463	855.824	649.873
341.460	16.535	855.579	649.903
342.475	16.637	854.832	649.669
343.489	16.678	854.227	649.312
344.504	16.612	853.850	648.714
345.519	16.603	853.294	648.199
346.533	16.689	852.845	648.129
347.548	16.577	852.461	647.354
348.562	16.653	851.888	647.151
349.577	16.489	851.167	645.920
350.592	16.742	850.406	646.249
351.606	16.605	849.820	645.227
352.621	16.655	848.964	644.711
353.635	16.567	848.540	643.995
354.650	16.706	847.774	643.886
355.665	16.722	847.170	643.431
356.679	16.726	846.434	642.829
357.694	16.776	845.840	642.512
358.708	16.796	845.623	642.365
359.723	16.850	844.512	641.668
360.738	16.673	844.262	640.751
361.752	16.802	843.421	640.547
362.767	16.863	842.875	640.303
363.781	16.919	842.540	640.207
364.796	16.811	842.084	639.392
365.810	16.901	841.571	639.286
366.825	16.965	841.263	639.239
367.840	17.069	840.844	639.252
368.854	16.969	840.333	638.433
369.869	17.097	839.576	638.283
370.883	17.023	839.353	637.779
371.898	17.091	839.076	637.768
372.913	17.045	838.399	637.025
373.927	17.032	838.159	636.737
374.942	17.145	837.744	636.787
375.956	17.228	836.887	636.389
376.971	17.168	836.753	636.009
377.986	17.272	836.034	635.796
379.000	17.215	835.599	635.193
380.015	17.342	834.868	635.058
381.029	17.355	834.278	634.602
382.044	17.202	834.107	633.843
383.059	17.281	833.407	633.550
384.073	17.456	832.872	633.737
385.088	17.266	832.262	632.511
386.102	17.295	831.544	632.018
387.117	17.215	831.406	631.560
388.132	17.264	830.531	631.022
389.146	17.356	830.064	630.950
390.161	17.360	829.794	630.704
391.175	17.404	829.148	630.321
392.190	17.348	828.828	629.815
393.205	17.362	828.330	629.432
394.219	17.482	828.062	629.617
395.234	17.254	827.683	628.429
396.248	17.275	827.008	627.941
397.263	17.276	826.735	627.682
398.278	17.384	826.112	627.550
399.292	17.386	825.771	627.244
400.307	17.456	825.248	627.047
401.321	17.458	824.791	626.654
402.336	17.405	824.097	625.874
403.350	17.483	823.766	625.856
404.365	17.496	823.034	625.293
405.380	17.547	822.739	625.201
406.394	17.580	822.035	624.730
407.409	17.618	821.703	624.562
408.423	17.704	821.702	624.823
409.438	17.654	821.106	624.130
410.453	17.625	820.876	623.792
411.467	17.803	820.216	623.888
412.482	17.816	820.132	623.816
413.496	17.761	819.531	623.101
414.511	17.777	819.226	622.876
415.526	17.742	818.589	622.209
416.540	17.749	817.892	621.648
417.555	17.759	817.643	621.438
418.569	17.933	816.868	621.431
419.584	17.881	816.967	621.262
420.599	18.044	816.111	621.146
421.613	103.752	1285.240	1441.071
422.628	89.522	1353.607	1441.188
