DTS Sentinel unit serial number:	SN413079Multiplexer serial number:	ORYXHardware model number:	OX4-SRSoftware version number:	ORYX F/W v4.00 Oryx Data Collector v3.7.2.0data status	okinstallation	princeton_trtdifferential loss correction	single-endedforward channel	channel 1reverse channel	N/Adate	2019/09/12time	06:24:11forward acquisition time	60.00reverse acquisition time	0.00gamma	496.2192k internal	0.2320k external	0.2320temperature offset calibration	1.0045default loss term (dB/km)	0.3790temperature slope calibration	1.0000multiplexer offset coefficient	1.0000multiplexer slope coefficient	1.0000fibre end	0.00T internal ref (°C)	32.14T ext. ref 1 (°C)	1.56T ext. ref 2 (°C)	27.39length (m)	temperature (°C)	Stokes	anti-Stokes-747.200	-102.735	0.143	0.034
-746.185	-29.294	-0.302	0.175
-745.171	82.113	-0.268	0.293
-744.156	-49.454	0.191	-0.092
-743.142	16.595	-0.134	0.107
-742.127	159.310	0.203	0.286
-741.112	-78.712	0.062	0.021
-740.098	35.181	-0.156	0.138
-739.083	-153.075	0.154	-0.011
-738.069	-200.000	-0.042	0.193
-737.054	514.740	0.047	-0.111
-736.039	-55.231	-0.125	0.057
-735.025	-54.607	0.316	0.144
-734.010	-154.437	-0.141	-0.010
-732.996	800.000	0.118	-0.405
-731.981	5.043	-0.168	0.125
-730.966	-200.000	0.013	-0.249
-729.952	-164.956	-0.371	0.017
-728.937	-200.000	-0.003	0.227
-727.923	-200.000	-0.004	0.181
-726.908	38.688	-0.088	0.080
-725.894	-0.636	0.111	-0.079
-724.879	800.000	0.050	-0.173
-723.864	35.391	-0.094	-0.083
-722.850	-200.000	-0.034	-0.182
-721.835	-12.761	0.124	-0.082
-720.821	33.509	-0.107	0.094
-719.806	-22.561	-0.027	-0.017
-718.791	-99.487	0.153	0.039
-717.777	593.065	-0.123	0.308
-716.762	114.021	-0.129	0.158
-715.748	-50.455	0.090	-0.043
-714.733	-105.305	-0.334	0.077
-713.718	-5.773	-0.289	0.200
-712.704	-200.000	-0.029	-0.382
-711.689	-23.904	-0.264	-0.160
-710.675	800.000	0.059	0.183
-709.660	328.647	0.084	0.163
-708.645	22.024	-0.284	-0.234
-707.631	800.000	0.091	0.286
-706.616	45.809	0.204	0.190
-705.602	52.017	-0.134	0.129
-704.587	-145.936	0.174	-0.016
-703.572	454.824	-0.020	0.045
-702.558	681.220	0.139	-0.364
-701.543	-34.270	0.238	-0.132
-700.529	800.000	0.075	0.214
-699.514	112.251	0.081	0.099
-698.499	-42.517	-0.262	0.135
-697.485	800.000	-0.046	0.140
-696.470	223.995	0.087	-0.142
-695.456	-136.833	0.571	-0.066
-694.441	55.724	-0.190	-0.186
-693.426	-97.917	-0.191	-0.050
-692.412	-84.912	0.072	0.023
-691.397	-97.866	-0.127	0.033
-690.383	109.757	-0.129	0.156
-689.368	-110.042	-0.085	-0.018
-688.354	800.000	-0.016	0.060
-687.339	-8.483	-0.077	0.052
-686.324	-50.725	-0.179	-0.085
-685.310	-168.463	-0.222	0.009
-684.295	51.908	-0.207	-0.199
-683.281	-21.185	-0.248	0.153
-682.266	-200.000	-0.021	-0.276
-681.251	268.497	-0.050	0.088
-680.237	75.003	-0.239	-0.254
-679.222	-142.605	0.216	0.021
-678.208	-200.000	0.001	0.007
-677.193	95.233	-0.129	-0.148
-676.178	-141.791	-0.427	-0.043
-675.164	-29.024	-0.146	0.085
-674.149	63.605	-0.094	-0.096
-673.135	800.000	0.067	-0.236
-672.120	-200.000	0.034	0.234
-671.105	-113.244	0.157	0.031
-670.091	-91.125	0.143	0.041
-669.076	-35.483	-0.072	0.039
-668.062	-200.000	-0.005	-0.062
-667.047	203.412	0.040	0.062
-666.032	-28.365	0.083	-0.048
-665.018	441.991	0.031	-0.069
-664.003	800.000	-0.059	-0.232
-662.989	117.284	0.141	-0.175
-661.974	53.843	-0.123	-0.119
-660.959	500.545	-0.072	0.167
-659.945	-200.000	0.007	-0.193
-658.930	-32.741	-0.128	-0.072
-657.916	-184.417	0.328	0.005
-656.901	235.974	0.024	-0.040
-655.886	-200.000	0.077	0.385
-654.872	65.774	0.104	0.106
-653.857	-55.592	-0.117	0.053
-652.843	-108.046	-0.216	0.047
-651.828	199.210	0.303	-0.468
-650.814	-131.070	-0.301	0.040
-649.799	-194.206	-0.133	0.001
-648.784	-200.000	0.011	0.143
-647.770	-87.488	-0.147	0.045
-646.755	-116.798	0.078	-0.014
-645.741	-135.316	-0.298	0.036
-644.726	-94.630	-0.485	0.133
-643.711	328.227	0.101	-0.195
-642.697	6.092	0.055	-0.041
-641.682	800.000	-0.033	-0.134
-640.668	-200.000	0.037	0.189
-639.653	-54.234	-0.105	-0.048
-638.638	106.719	0.201	-0.240
-637.624	-200.000	-0.015	-0.168
-636.609	388.170	0.058	-0.121
-635.595	-200.000	0.061	-0.280
-634.580	-200.000	-0.034	0.188
-633.565	-63.417	-0.333	0.138
-632.551	190.700	-0.159	-0.241
-631.536	800.000	0.012	-0.039
-630.522	127.854	-0.230	0.294
-629.507	20.643	-0.054	0.044
-628.492	-138.032	0.256	0.029
-627.478	-171.641	-0.164	-0.005
-626.463	540.838	-0.133	-0.318
-625.449	800.000	0.054	-0.201
-624.434	178.152	0.054	-0.080
-623.419	767.030	0.112	-0.306
-622.405	9.180	-0.207	-0.157
-621.390	594.963	0.077	0.192
-620.376	-95.795	-0.319	-0.086
-619.361	422.467	-0.187	-0.404
-618.346	-70.841	-0.084	0.032
-617.332	-80.048	0.304	0.102
-616.317	800.000	0.110	0.316
-615.303	-54.539	0.133	-0.061
-614.288	-131.054	-0.245	0.033
-613.273	43.511	-0.171	0.157
-612.259	-129.452	0.297	0.041
-611.244	55.965	-0.138	0.135
-610.230	-62.766	0.225	-0.094
-609.215	54.177	-0.122	0.118
-608.201	-200.000	-0.006	-0.201
-607.186	-67.315	-0.268	-0.106
-606.171	10.357	0.150	0.115
-605.157	41.009	-0.209	-0.189
-604.142	12.536	-0.259	-0.201
-603.128	-94.464	0.224	-0.062
-602.113	36.723	-0.125	-0.111
-601.098	428.100	0.075	-0.162
-600.084	-200.000	-0.020	0.139
-599.069	-140.358	0.078	0.008
-598.055	635.598	-0.064	-0.163
-597.040	154.719	-0.207	0.286
-596.025	76.937	0.052	0.056
-595.011	129.247	-0.109	-0.140
-593.996	262.063	0.128	0.222
-592.982	294.250	0.129	0.236
-591.967	23.260	0.128	0.106
-590.952	17.589	-0.158	0.127
-589.938	107.114	-0.072	0.086
-588.923	-121.289	-0.339	0.057
-587.909	-91.456	0.257	-0.074
-586.894	388.033	0.125	0.261
-585.879	727.226	-0.022	-0.059
-584.865	800.000	-0.057	-0.205
-583.850	-112.704	0.217	0.043
-582.836	-185.493	-0.210	-0.003
-581.821	-25.212	-0.252	0.150
-580.806	512.834	-0.146	-0.341
-579.792	39.712	-0.251	-0.226
-578.777	-163.873	0.144	-0.007
-577.763	-42.183	-0.493	0.253
-576.748	-1.476	-0.135	0.096
-575.733	-9.754	-0.096	-0.064
-574.719	-200.000	-0.015	-0.126
-573.704	97.322	0.045	0.052
-572.690	800.000	-0.054	0.233
-571.675	-97.953	-0.181	0.047
-570.661	43.479	-0.078	-0.072
-569.646	-200.000	0.008	0.190
-568.631	554.296	0.120	-0.290
-567.617	-200.000	0.013	0.082
-566.602	-159.964	-0.126	-0.007
-565.588	-200.000	-0.016	-0.232
-564.573	107.644	0.047	-0.057
-563.558	-153.387	-0.176	0.012
-562.544	241.092	-0.171	-0.287
-561.529	-67.647	-0.096	-0.038
-560.515	-200.000	0.022	-0.128
-559.500	797.450	0.044	0.122
-558.485	-61.471	0.087	-0.037
-557.471	-200.000	0.020	0.165
-556.456	81.990	0.067	-0.073
-555.442	-99.013	-0.414	0.105
-554.427	800.000	-0.022	0.092
-553.412	425.906	-0.075	-0.162
-552.398	-53.586	0.327	-0.150
-551.383	1.967	-0.139	-0.101
-550.369	-169.877	0.298	0.011
-549.354	-170.643	0.118	0.004
-548.339	-65.618	-0.223	-0.090
-547.325	-170.059	-0.024	0.001
-546.310	800.000	0.077	0.242
-545.296	-200.000	0.089	-0.479
-544.281	106.692	0.094	0.111
-543.266	410.681	0.060	0.128
-542.252	163.733	-0.129	0.182
-541.237	800.000	0.024	0.087
-540.223	179.684	-0.132	0.194
-539.208	-128.586	0.114	-0.016
-538.193	800.000	-0.060	0.252
-537.179	251.994	-0.067	0.114
-536.164	17.287	0.078	0.062
-535.150	-160.441	0.107	0.006
-534.135	77.103	-0.184	0.196
-533.121	-90.338	-0.223	-0.065
-532.106	463.140	0.072	0.162
-531.091	-7.889	-0.184	0.125
-530.077	-85.370	0.332	0.104
-529.062	-120.408	0.261	0.044
-528.048	-200.000	0.018	-0.231
-527.033	4.398	0.174	0.128
-526.018	206.634	0.192	0.300
-525.004	-169.827	-0.274	0.010
-523.989	-200.000	0.032	-0.146
-522.975	-200.000	-0.001	0.477
-521.960	625.192	-0.135	-0.342
-520.945	655.763	-0.042	-0.107
-519.931	-177.947	0.188	0.005
-518.916	-37.251	-0.232	-0.124
-517.902	42.225	-0.059	0.053
-516.887	-70.416	-0.301	-0.114
-515.872	-101.554	0.238	0.058
-514.858	-200.000	0.053	-0.373
-513.843	-130.951	-0.240	0.032
-512.829	-80.728	0.186	0.062
-511.814	-68.839	0.185	0.072
-510.799	-200.000	0.033	0.292
-509.785	800.000	0.073	0.320
-508.770	-90.582	-0.160	-0.047
-507.756	-11.510	0.213	0.140
-506.741	-81.162	0.262	0.087
-505.726	-162.793	-0.202	-0.010
-504.712	-200.000	-0.006	-0.121
-503.697	-81.341	-0.269	0.089
-502.683	9.861	0.285	0.216
-501.668	196.300	0.156	0.238
-500.653	-58.963	-0.351	-0.152
-499.639	-45.695	0.167	0.083
-498.624	82.826	-0.148	0.161
-497.610	800.000	0.031	-0.095
-496.595	-62.189	0.281	0.118
-495.581	351.815	-0.170	-0.338
-494.566	800.000	-0.067	-0.231
-493.551	-200.000	0.003	0.354
-492.537	61.621	0.150	-0.149
-491.522	399.969	0.144	-0.302
-490.508	215.595	0.043	0.068
-489.493	9.209	-0.134	-0.102
-488.478	-200.000	0.087	-0.397
-487.464	-42.883	0.246	-0.125
-486.449	800.000	-0.011	-0.042
-485.435	171.224	-0.190	-0.273
-484.420	-79.315	0.252	0.085
-483.405	800.000	-0.104	0.312
-482.391	57.226	0.122	0.119
-481.376	-118.204	0.279	-0.050
-480.362	786.379	-0.095	-0.261
-479.347	-25.178	0.199	0.118
-478.332	-86.420	0.168	0.052
-477.318	213.029	0.186	0.294
-476.303	-200.000	-0.033	0.247
-475.289	-108.963	-0.335	0.071
-474.274	800.000	-0.061	-0.205
-473.259	-31.492	0.080	-0.045
-472.245	287.163	0.075	0.136
-471.230	-76.065	-0.285	-0.101
-470.216	-29.777	-0.471	0.269
-469.201	-49.682	0.282	-0.134
-468.186	-53.683	-0.370	-0.169
-467.172	-200.000	-0.063	0.284
-466.157	237.031	-0.072	-0.120
-465.143	-110.553	-0.265	0.055
-464.128	35.903	0.260	-0.229
-463.113	67.672	0.043	-0.044
-462.099	-46.704	-0.215	-0.105
-461.084	132.477	-0.176	0.227
-460.070	-148.155	-0.218	0.018
-459.055	137.411	-0.089	-0.117
-458.040	-200.000	0.005	0.064
-457.026	54.405	-0.122	0.118
-456.011	653.340	-0.118	-0.303
-454.997	800.000	0.031	-0.125
-453.982	60.924	-0.046	0.045
-452.968	367.074	0.083	-0.168
-451.953	429.096	-0.006	-0.012
-450.938	135.926	-0.077	-0.100
-449.924	-117.844	0.130	0.023
-448.909	800.000	-0.054	0.182
-447.895	-38.483	-0.118	-0.062
-446.880	-155.157	0.188	-0.012
-445.865	-145.603	-0.073	-0.007
-444.851	-38.024	0.354	0.188
-443.836	375.176	-0.132	-0.269
-442.822	420.293	0.049	-0.104
-441.807	251.245	0.109	0.185
-440.792	273.222	-0.079	0.139
-439.778	800.000	0.013	-0.037
-438.763	134.497	-0.093	-0.121
-437.749	-127.617	-0.195	-0.028
-436.734	-65.421	0.221	0.089
-435.719	-200.000	0.034	0.190
-434.705	-25.030	-0.128	0.076
-433.690	-76.316	-0.406	0.143
-432.676	-73.693	0.177	0.064
-431.661	268.968	0.043	0.075
-430.646	-200.000	0.026	-0.125
-429.632	800.000	-0.094	0.268
-428.617	67.907	-0.075	-0.077
-427.603	-2.439	-0.190	-0.133
-426.588	24.269	0.429	-0.354
-425.573	195.818	-0.055	-0.084
-424.559	-125.796	-0.317	-0.048
-423.544	154.336	0.050	0.069
-422.530	-133.528	-0.216	0.027
-421.515	-78.809	0.119	0.040
-420.500	-87.231	-0.367	0.111
-419.486	93.631	0.315	-0.356
-418.471	681.684	0.133	-0.345
-417.457	-4.233	0.092	-0.063
-416.442	-198.507	0.480	0.003
-415.428	313.967	-0.236	-0.444
-414.413	3.087	0.155	0.112
-413.398	-150.788	0.264	0.020
-412.384	490.226	0.075	-0.171
-411.369	800.000	-0.067	0.192
-410.355	603.521	-0.081	-0.201
-409.340	-77.674	0.103	-0.036
-408.325	18.367	0.346	0.276
-407.311	-126.095	0.223	-0.033
-406.296	-132.759	-0.169	-0.022
-405.282	31.408	0.221	0.189
-404.267	800.000	-0.034	-0.130
-403.252	-87.525	-0.347	0.105
-402.238	407.668	-0.140	0.295
-401.223	-77.050	0.198	-0.069
-400.209	506.166	0.088	0.204
-399.194	82.482	0.078	0.085
-398.179	-200.000	-0.045	0.216
-397.165	-155.395	0.256	0.017
-396.150	-131.441	0.342	-0.045
-395.136	-58.364	0.120	0.052
-394.121	783.776	0.012	0.033
-393.106	-68.859	0.334	-0.129
-392.092	112.695	-0.056	-0.068
-391.077	-112.121	0.262	-0.053
-390.063	-103.501	-0.159	-0.037
-389.048	289.832	-0.084	-0.151
-388.033	-16.497	-0.171	0.108
-387.019	-20.518	0.026	-0.016
-386.004	-200.000	0.017	0.111
-384.990	-155.679	0.301	0.019
-383.975	-45.396	-0.195	-0.096
-382.960	-140.574	-0.242	0.025
-381.946	-108.007	0.191	-0.041
-380.931	72.807	0.137	0.143
-379.917	333.141	0.128	-0.246
-378.902	-55.252	0.073	0.033
-377.888	92.648	0.232	0.261
-376.873	14.875	0.233	-0.182
-375.858	94.779	-0.145	-0.165
-374.844	-148.171	0.343	-0.028
-373.829	-200.000	-0.008	-0.220
-372.815	27.711	0.195	-0.164
-371.800	-88.252	0.133	-0.040
-370.785	127.195	-0.155	0.196
-369.771	-200.000	-0.023	-0.210
-368.756	94.146	0.089	0.101
-367.742	-91.214	-0.189	-0.054
-366.727	236.754	-0.147	0.242
-365.712	188.157	-0.182	-0.272
-364.698	21.969	-0.126	-0.102
-363.683	-65.566	-0.046	-0.018
-362.669	-61.313	-0.249	0.104
-361.654	-73.854	0.090	0.032
-360.639	-190.634	0.288	0.003
-359.625	238.398	0.144	0.238
-358.610	-60.023	-0.185	0.079
-357.596	106.915	0.384	-0.454
-356.581	-63.122	-0.108	0.044
-355.566	189.034	0.135	-0.201
-354.552	-144.712	-0.462	-0.042
-353.537	-51.275	0.151	-0.071
-352.523	-129.265	0.414	0.057
-351.508	236.818	-0.053	-0.087
-350.493	27.282	-0.185	-0.155
-349.479	116.237	-0.087	0.106
-348.464	-200.000	-0.028	-0.148
-347.450	-200.000	-0.025	0.169
-346.435	206.036	-0.050	-0.078
-345.420	723.207	-0.064	-0.169
-344.406	141.552	-0.234	-0.309
-343.391	-200.000	0.008	0.048
-342.377	108.972	0.067	0.080
-341.362	147.317	0.126	0.169
-340.348	272.480	-0.051	-0.090
-339.333	296.930	-0.110	0.202
-338.318	-168.748	-0.230	-0.009
-337.304	143.756	0.051	-0.067
-336.289	-200.000	-0.040	-0.248
-335.275	71.840	-0.225	-0.233
-334.260	260.755	-0.122	-0.210
-333.245	-63.465	0.290	0.119
-332.231	60.173	-0.051	0.050
-331.216	-54.274	0.011	-0.005
-330.202	25.732	0.087	0.072
-329.187	21.760	-0.097	0.078
-328.172	-169.851	0.053	0.002
-327.158	-200.000	-0.041	-0.368
-326.143	74.212	-0.168	0.175
-325.129	-69.230	0.382	0.146
-324.114	-8.935	-0.217	0.145
-323.099	41.615	0.338	-0.305
-322.085	80.178	0.122	-0.130
-321.070	-146.805	0.179	0.015
-320.056	125.517	-0.070	0.088
-319.041	196.617	-0.116	-0.176
-318.026	-200.000	0.002	-0.080
-317.012	-70.431	-0.120	-0.045
-315.997	-200.000	-0.020	-0.216
-314.983	-88.549	0.383	-0.113
-313.968	-114.367	0.357	0.068
-312.953	-88.715	-0.249	0.074
-311.939	354.304	0.055	0.108
-310.924	800.000	0.046	0.151
-309.910	-15.094	0.322	0.205
-308.895	97.035	0.089	-0.102
-307.880	90.562	0.203	-0.225
-306.866	-22.355	0.369	0.222
-305.851	209.760	0.047	-0.073
-304.837	-109.205	-0.155	0.033
-303.822	-72.677	-0.056	-0.021
-302.807	-96.519	-0.044	-0.012
-301.793	-118.850	-0.288	-0.050
-300.778	-200.000	0.035	-0.155
-299.764	221.869	-0.073	-0.117
-298.749	173.772	-0.113	0.162
-297.735	187.035	0.131	0.194
-296.720	-200.000	0.013	0.499
-295.705	800.000	0.085	-0.372
-294.691	225.111	-0.185	-0.298
-293.676	-122.832	0.133	0.021
-292.662	36.204	-0.229	0.201
-291.647	-3.897	-0.071	0.049
-290.632	514.725	0.060	0.140
-289.618	-39.403	-0.103	0.054
-288.603	-61.388	0.289	0.121
-287.589	-146.765	-0.134	0.012
-286.574	210.818	0.303	-0.473
-285.559	304.440	0.071	-0.132
-284.545	65.866	0.087	0.088
-283.530	236.014	-0.099	-0.162
-282.516	252.346	-0.081	-0.136
-281.501	-98.705	-0.031	0.008
-280.486	4.793	0.283	-0.206
-279.472	46.928	-0.063	0.058
-278.457	-9.566	0.038	0.025
-277.443	-75.961	0.295	0.104
-276.428	-77.772	-0.277	-0.095
-275.413	-200.000	-0.034	-0.150
-274.399	783.614	-0.034	0.094
-273.384	-57.031	-0.125	-0.055
-272.370	-30.435	0.307	-0.173
-271.355	260.972	0.052	0.089
-270.340	-200.000	-0.033	0.173
-269.326	-200.000	0.050	-0.402
-268.311	-18.264	-0.183	0.113
-267.297	-52.066	0.295	-0.136
-266.282	-70.986	-0.161	0.060
-265.267	-200.000	0.001	0.497
-264.253	247.843	-0.119	0.199
-263.238	8.966	-0.215	-0.161
-262.224	-200.000	-0.055	-0.390
-261.209	13.405	0.100	-0.077
-260.195	800.000	-0.051	-0.142
-259.180	-111.874	0.116	-0.023
-258.165	-200.000	0.005	0.269
-257.151	447.279	0.095	0.207
-256.136	800.000	-0.095	0.349
-255.122	624.183	0.180	0.449
-254.107	-200.000	-0.002	-0.096
-253.092	-169.478	0.214	-0.008
-252.078	-99.257	-0.122	0.030
-251.063	10.864	0.291	0.221
-250.049	800.000	0.012	-0.044
-249.034	-19.497	-0.078	0.048
-248.019	-41.625	0.111	0.057
-247.005	84.324	0.229	-0.249
-245.990	-124.809	-0.387	0.059
-244.976	362.187	-0.053	0.106
-243.961	698.378	-0.068	-0.178
-242.946	82.179	-0.273	0.294
-241.932	-143.383	0.104	0.010
-240.917	-148.394	0.083	-0.007
-239.903	85.656	-0.224	0.244
-238.888	71.131	-0.269	0.276
-237.873	16.475	0.181	0.142
-236.859	-200.000	0.008	-0.153
-235.844	-102.331	0.231	-0.055
-234.830	507.038	0.026	-0.060
-233.815	-200.000	-0.065	0.315
-232.800	45.672	0.091	-0.083
-231.786	800.000	0.072	0.215
-230.771	-45.865	-0.101	-0.049
-229.757	-69.062	-0.338	0.129
-228.742	555.901	0.066	0.158
-227.727	-89.826	-0.138	0.040
-226.713	-144.962	0.229	0.021
-225.698	285.183	-0.086	0.154
-224.684	90.536	0.042	0.046
-223.669	-4.666	0.099	-0.068
-222.655	800.000	-0.047	0.168
-221.640	-114.779	-0.203	0.038
-220.625	81.319	0.012	0.013
-219.611	15.043	-0.152	-0.118
-218.596	15.274	0.053	0.041
-217.582	773.420	-0.119	-0.321
-216.567	800.000	-0.094	-0.264
-215.552	532.332	-0.092	0.215
-214.538	-10.508	0.204	0.134
-213.523	-57.243	0.121	-0.053
-212.509	-200.000	0.013	-0.182
-211.494	35.155	-0.158	-0.138
-210.479	251.959	0.049	-0.083
-209.465	323.876	-0.073	0.138
-208.450	77.252	0.317	0.334
-207.436	-101.087	0.340	0.083
-206.421	616.436	-0.025	0.062
-205.406	-128.293	-0.298	-0.042
-204.392	-200.000	-0.010	-0.346
-203.377	-61.281	-0.073	-0.030
-202.363	-129.372	0.279	0.038
-201.348	-68.036	-0.275	0.106
-200.333	-200.000	0.037	0.359
-199.319	276.116	0.182	0.320
-198.304	800.000	-0.023	0.089
-197.290	28.639	-0.096	-0.081
-196.275	-61.597	-0.167	0.070
-195.260	-143.806	-0.176	-0.016
-194.246	-37.535	-0.084	-0.044
-193.231	-116.154	0.090	-0.017
-192.217	410.411	-0.197	0.413
-191.202	-110.279	0.231	-0.048
-190.187	-119.610	-0.260	-0.045
-189.173	2.273	0.194	0.139
-188.158	-200.000	0.082	-0.370
-187.144	202.294	-0.140	0.214
-186.129	68.277	-0.247	0.251
-185.114	-115.985	0.107	-0.020
-184.100	545.947	0.214	-0.506
-183.085	-200.000	0.013	0.189
-182.071	221.643	0.129	0.204
-181.056	80.935	0.212	-0.227
-180.042	230.853	0.147	0.239
-179.027	-200.000	0.003	0.030
-178.012	-25.111	-0.359	0.211
-176.998	331.276	-0.027	-0.051
-175.983	138.228	0.108	0.141
-174.969	-68.569	-0.212	-0.081
-173.954	-121.025	-0.235	0.039
-172.939	-58.176	0.091	0.039
-171.925	-19.034	0.290	-0.178
-170.910	-78.508	0.312	-0.106
-169.896	-95.723	0.188	-0.050
-168.881	124.848	0.209	0.260
-167.866	-50.485	0.005	-0.002
-166.852	88.108	-0.196	0.215
-165.837	274.017	0.106	-0.185
-164.823	31.830	-0.121	0.103
-163.808	800.000	-0.061	-0.230
-162.793	169.162	0.229	-0.322
-161.779	-132.340	0.115	-0.015
-160.764	89.952	0.044	0.049
-159.750	800.000	0.036	0.120
-158.735	15.324	-0.251	0.194
-157.720	-200.000	0.014	0.253
-156.706	113.231	0.035	-0.042
-155.691	100.093	-0.046	0.053
-154.677	-24.493	0.287	-0.169
-153.662	50.609	0.096	0.090
-152.647	149.991	-0.284	-0.380
-151.633	207.234	0.103	-0.159
-150.618	-93.711	0.127	0.035
-149.604	800.000	-0.049	-0.176
-148.589	-52.301	-0.113	-0.052
-147.574	-200.000	0.075	0.333
-146.560	-200.000	0.044	-0.309
-145.545	-200.000	-0.001	0.335
-144.531	-80.809	0.234	0.077
-143.516	-200.000	0.006	0.172
-142.502	-200.000	0.444	-0.001
-141.487	-1.959	-0.035	0.024
-140.472	-200.000	0.048	0.240
-139.458	-93.530	0.274	0.075
-138.443	-106.882	-0.093	0.020
-137.429	132.805	-0.064	0.081
-136.414	94.151	0.039	-0.043
-135.399	65.138	0.155	0.155
-134.385	258.968	-0.092	-0.157
-133.370	800.000	0.103	-0.328
-132.356	92.102	0.162	-0.180
-131.341	27.152	0.105	-0.087
-130.326	325.945	0.182	0.343
-129.312	-151.557	-0.152	0.011
-128.297	-57.141	-0.593	-0.258
-127.283	-86.434	0.174	0.053
-126.268	-46.901	-0.277	-0.134
-125.253	-156.280	0.366	0.023
-124.239	-200.000	0.038	-0.329
-123.224	800.000	0.056	0.196
-122.210	346.564	-0.112	-0.217
-121.195	154.145	0.228	-0.309
-120.180	-200.000	0.020	-0.100
-119.166	-30.481	0.194	-0.109
-118.151	-109.585	-0.289	0.060
-117.137	0.919	-0.145	-0.102
-116.122	-200.000	-0.006	0.195
-115.107	-1.173	0.078	0.054
-114.093	628.235	0.090	0.224
-113.078	-109.430	0.221	0.046
-112.064	-111.082	-0.160	-0.032
-111.049	-200.000	0.002	-0.047
-110.034	179.282	-0.071	0.103
-109.020	-93.211	0.528	0.145
-108.005	-33.663	0.144	-0.078
-106.991	151.301	0.174	-0.234
-105.976	-160.910	0.201	0.010
-104.962	800.000	0.103	0.366
-103.947	367.069	0.082	0.164
-102.932	705.823	0.136	0.355
-101.918	-41.355	0.162	0.082
-100.903	-70.088	-0.171	-0.064
-99.889	122.046	0.167	0.206
-98.874	-200.000	0.004	0.173
-97.859	87.982	-0.210	-0.229
-96.845	-200.000	0.019	-0.302
-95.830	30.721	-0.088	0.074
-94.816	-200.000	-0.014	0.260
-93.801	-23.948	-0.090	-0.053
-92.786	71.406	-0.282	-0.289
-91.772	-20.773	-0.185	-0.112
-90.757	-200.000	0.006	-0.052
-89.743	-48.049	-0.176	0.084
-88.728	150.720	-0.092	0.123
-87.713	-62.659	0.221	-0.090
-86.699	-200.000	0.073	0.390
-85.684	-200.000	0.010	-0.315
-84.670	-200.000	0.037	0.229
-83.655	-136.369	0.125	-0.014
-82.640	81.219	0.206	-0.219
-81.626	-149.517	-0.249	-0.019
-80.611	14.069	0.220	-0.169
-79.597	100.221	0.141	0.162
-78.582	61.397	0.161	0.157
-77.567	-200.000	-0.012	0.124
-76.553	-200.000	-0.025	-0.222
-75.538	-42.227	0.110	-0.055
-74.524	45.115	0.250	-0.227
-73.509	800.000	0.112	0.341
-72.494	7.424	-0.138	-0.101
-71.480	76.746	-0.072	-0.075
-70.465	72.940	0.040	0.042
-69.451	42.674	0.118	0.106
-68.436	485.881	-0.084	0.189
-67.422	233.533	0.137	0.221
-66.407	23.659	0.460	0.373
-65.392	-116.296	0.036	-0.006
-64.378	199.334	0.139	0.211
-63.363	5.616	0.141	0.103
-62.349	-200.000	-0.071	0.317
-61.334	-47.332	-1.164	-0.558
-60.319	3.147	0.547	0.392
-59.305	-200.000	0.019	-0.965
-58.290	360.722	0.479	0.944
-57.276	439.711	0.772	1.659
-56.261	-200.000	96.116	595.953
-55.246	566.661	1373.157	3280.188
-54.232	160.944	2551.302	3508.215
-53.217	113.428	2142.771	2560.132
-52.203	43.993	1604.698	1447.472
-51.188	35.672	1342.156	1160.628
-50.173	32.467	1300.780	1106.014
-49.159	54.528	1348.082	1278.583
-48.144	56.804	1364.204	1307.408
-47.130	35.804	1323.385	1145.001
-46.115	32.407	1305.881	1109.816
-45.100	32.143	1300.687	1103.808
-44.086	32.020	1298.545	1101.223
-43.071	32.051	1295.794	1099.029
-42.057	31.954	1294.110	1096.989
-41.042	31.984	1292.345	1095.627
-40.027	32.089	1290.570	1094.694
-39.013	32.065	1288.671	1092.898
-37.998	32.024	1286.981	1091.183
-36.984	32.060	1285.423	1090.026
-35.969	32.121	1283.613	1088.801
-34.954	32.157	1282.157	1087.734
-33.940	32.169	1280.691	1086.517
-32.925	32.279	1279.150	1085.798
-31.911	32.336	1277.278	1084.497
-30.896	32.269	1275.779	1082.798
-29.881	32.248	1274.698	1081.713
-28.867	32.423	1273.357	1081.538
-27.852	32.282	1271.918	1079.463
-26.838	32.217	1270.540	1077.878
-25.823	32.168	1269.636	1076.791
-24.809	32.253	1267.915	1075.776
-23.794	32.284	1266.975	1075.112
-22.779	32.141	1265.603	1073.086
-21.765	32.244	1264.397	1072.608
-20.750	32.172	1263.150	1071.099
-19.736	32.104	1261.527	1069.291
-18.721	32.069	1260.601	1068.266
-17.706	32.095	1259.035	1067.046
-16.692	32.121	1257.792	1066.097
-15.677	32.172	1256.755	1065.463
-14.663	32.017	1256.185	1064.059
-13.648	32.176	1254.548	1063.531
-12.633	32.074	1253.672	1062.171
-11.619	32.010	1253.331	1061.478
-10.604	32.086	1251.988	1060.724
-9.590	32.065	1251.065	1059.781
-8.575	32.041	1249.990	1058.693
-7.560	32.103	1249.024	1058.185
-6.546	31.990	1248.444	1057.017
-5.531	31.978	1247.775	1056.338
-4.517	32.055	1246.663	1055.788
-3.502	32.013	1245.753	1054.739
-2.487	32.072	1244.631	1054.081
-1.473	32.034	1240.604	1050.414
-0.458	30.626	1225.764	1030.014
0.556	27.182	1208.476	993.697
1.571	23.682	1214.672	979.432
2.586	22.766	1230.186	986.740
3.600	22.277	1219.155	975.094
4.615	15.851	1145.237	882.318
5.629	5.955	1069.351	775.122
6.644	1.805	1049.376	740.437
7.659	1.510	1046.897	737.193
8.673	1.511	1045.341	736.039
9.688	1.425	1043.861	734.514
10.702	1.671	1042.377	734.591
11.717	7.495	1051.382	769.159
12.731	17.797	1065.537	829.805
13.746	23.513	1072.992	863.453
14.761	24.831	1073.836	870.471
15.775	24.942	1073.787	870.893
16.790	24.816	1072.936	869.514
17.804	24.577	1072.466	867.895
18.819	24.736	1071.686	867.960
19.834	24.890	1071.902	868.803
20.848	24.890	1071.147	868.115
21.863	24.875	1070.726	867.624
22.877	24.771	1069.966	866.429
23.892	24.841	1069.097	865.988
24.907	24.952	1068.578	866.028
25.921	24.693	1067.754	864.029
26.936	24.771	1065.987	862.902
27.950	24.706	1064.431	861.249
28.965	24.478	1063.185	859.071
29.980	24.728	1061.114	858.520
30.994	24.876	1060.507	858.663
32.009	24.856	1059.098	857.350
33.023	24.820	1057.879	856.119
34.038	24.740	1057.569	855.405
35.053	25.003	1056.405	855.645
36.067	24.972	1055.862	854.983
37.082	24.951	1055.080	854.175
38.096	24.995	1054.809	854.088
39.111	25.209	1053.898	854.293
40.126	24.932	1052.490	851.763
41.140	24.718	1050.501	849.062
42.155	24.468	1049.274	846.809
43.169	24.431	1048.674	846.070
44.184	24.617	1047.265	845.740
45.199	24.386	1046.662	844.087
46.213	24.538	1046.001	844.197
47.228	24.738	1045.026	844.278
48.242	24.734	1044.397	843.680
49.257	24.779	1043.734	843.281
50.271	24.950	1042.835	843.283
51.286	24.962	1042.138	842.701
52.301	25.074	1040.617	841.924
53.315	24.873	1039.848	840.284
54.330	24.797	1039.534	839.600
55.344	24.805	1038.569	838.785
56.359	24.742	1037.946	837.912
57.374	24.586	1037.044	836.381
58.388	24.498	1036.239	835.244
59.403	24.463	1035.433	834.355
60.417	24.354	1034.415	832.953
61.432	24.595	1033.307	833.110
62.447	24.654	1033.561	833.518
63.461	24.663	1032.208	832.395
64.476	24.623	1031.162	831.290
65.490	24.535	1030.355	830.161
66.505	24.518	1029.780	829.541
67.520	24.719	1029.026	829.797
68.534	24.421	1027.877	827.412
69.549	24.148	1026.943	825.325
70.563	24.208	1025.855	824.652
71.578	24.144	1025.346	823.874
72.593	24.071	1024.225	822.564
73.607	24.102	1024.072	822.514
74.622	24.381	1024.197	823.829
75.636	24.445	1022.748	822.884
76.651	24.221	1022.244	821.376
77.666	24.222	1021.448	820.669
78.680	24.403	1020.420	820.600
79.695	24.542	1019.455	820.392
80.709	24.602	1019.272	820.446
81.724	24.445	1018.802	819.273
82.739	24.539	1018.037	819.017
83.753	24.911	1017.560	820.269
84.768	25.136	1016.896	820.692
85.782	25.258	1016.085	820.519
86.797	25.039	1015.241	818.767
87.812	25.052	1013.992	817.745
88.826	25.062	1012.860	816.807
89.841	25.029	1012.399	816.211
90.855	25.185	1011.044	815.756
91.870	25.144	1010.294	814.894
92.884	24.932	1009.283	813.041
93.899	24.858	1008.489	811.994
94.914	25.168	1007.568	812.585
95.928	24.968	1006.728	810.933
96.943	24.643	1005.947	808.761
97.957	24.466	1004.191	806.476
98.972	24.356	1003.309	805.200
99.987	24.674	1002.395	805.832
101.001	24.754	1002.185	805.952
102.016	24.751	1001.315	805.167
103.030	24.569	1000.786	803.851
104.045	24.602	999.596	802.973
105.060	24.474	998.437	801.396
106.074	24.638	997.835	801.576
107.089	24.936	997.228	802.353
108.103	24.804	996.444	801.059
109.118	24.683	994.729	799.069
110.133	24.525	994.143	797.824
111.147	24.325	992.817	795.795
112.162	24.377	991.772	795.120
113.176	24.452	991.675	795.304
114.191	24.436	990.740	794.415
115.206	24.133	989.449	791.961
116.220	24.136	988.893	791.461
117.235	24.139	988.373	790.988
118.249	24.202	987.185	790.246
119.264	24.129	986.498	789.304
120.279	24.289	985.533	789.169
121.293	24.346	984.673	788.665
122.308	24.313	984.087	787.978
123.322	24.166	982.985	786.377
124.337	24.060	981.304	784.495
125.352	23.768	979.623	781.799
126.366	23.501	978.977	780.037
127.381	24.224	979.198	783.323
128.395	24.729	978.736	785.104
129.410	24.777	977.911	784.585
130.424	24.816	976.728	783.736
131.439	24.665	975.985	782.410
132.454	24.670	975.399	781.891
133.468	24.687	974.185	780.926
134.483	24.848	973.291	780.842
135.497	25.026	972.769	781.130
136.512	25.082	972.061	780.736
137.527	25.230	970.673	780.197
138.541	25.082	969.867	778.835
139.556	25.032	969.537	778.284
140.570	25.068	969.105	778.026
141.585	25.141	967.925	777.326
142.600	24.997	967.142	776.003
143.614	25.135	966.506	776.022
144.629	25.407	965.293	776.156
145.643	25.115	964.237	773.979
146.658	25.031	962.815	772.404
147.673	24.948	961.665	771.057
148.687	24.930	960.896	770.295
149.702	24.648	960.301	768.538
150.716	24.808	958.849	767.993
151.731	24.909	958.279	767.903
152.746	25.136	957.873	768.481
153.760	25.214	957.248	768.246
154.775	25.366	956.634	768.338
155.789	25.197	955.933	766.981
156.804	25.111	954.963	765.770
157.819	25.205	954.138	765.443
158.833	25.223	953.427	764.882
159.848	25.424	952.035	764.553
160.862	25.163	951.055	762.587
161.877	25.243	950.336	762.285
162.892	25.305	949.503	761.810
163.906	25.154	948.198	760.056
164.921	25.070	948.013	759.485
165.935	25.278	946.504	759.089
166.950	25.201	945.791	758.123
167.964	25.212	944.795	757.304
168.979	25.090	943.618	755.780
169.994	25.069	942.744	754.925
171.008	25.239	942.477	755.358
172.023	25.414	941.346	755.121
173.037	25.069	940.531	752.953
174.052	24.954	939.166	751.311
175.067	24.873	939.176	750.914
176.081	25.044	938.588	751.094
177.096	24.925	938.274	750.275
178.110	24.737	936.996	748.402
179.125	24.538	936.380	747.012
180.140	24.611	935.678	746.690
181.154	24.847	935.222	747.247
182.169	24.857	935.766	747.654
183.183	25.179	935.113	748.411
184.198	24.963	934.322	746.813
185.213	25.015	933.604	746.387
186.227	25.157	932.848	746.310
187.242	25.086	932.364	745.560
188.256	25.258	931.510	745.527
189.271	25.371	930.714	745.293
190.286	25.013	929.430	742.714
191.300	24.344	927.878	738.637
192.315	23.644	926.204	734.348
193.329	23.539	926.090	733.757
194.344	24.474	926.741	738.076
195.359	25.069	926.528	740.299
196.373	25.212	926.263	740.614
197.388	25.006	925.279	738.910
198.402	25.169	924.811	739.142
199.417	25.145	924.226	738.510
200.432	24.882	923.063	736.436
201.446	24.754	922.392	735.309
202.461	24.743	922.201	735.045
203.475	23.898	920.038	729.791
204.490	23.193	918.794	725.847
205.504	24.147	919.109	729.944
206.519	24.664	918.870	731.806
207.534	24.775	918.714	732.073
208.548	25.294	918.327	733.823
209.563	24.924	917.287	731.413
210.577	24.784	916.789	730.381
211.592	25.253	916.728	732.181
212.607	25.233	915.805	731.299
213.621	25.239	915.235	730.805
214.636	25.255	914.147	729.933
215.650	25.149	913.582	728.989
216.665	25.403	913.091	729.566
217.680	25.114	912.427	727.798
218.694	24.864	911.230	725.761
219.709	24.821	910.130	724.647
220.723	25.005	910.227	725.408
221.738	25.067	909.494	725.009
222.753	25.107	909.037	724.744
223.767	25.164	908.198	724.239
224.782	25.351	908.376	725.075
225.796	25.332	907.450	724.195
226.811	24.578	906.051	719.977
227.826	24.018	904.771	716.640
228.840	24.259	904.433	717.277
229.855	24.439	903.493	717.193
230.869	24.020	902.681	714.804
231.884	24.281	902.599	715.722
232.899	25.015	902.618	718.618
233.913	25.032	901.803	717.976
234.928	25.025	900.986	717.232
235.942	24.843	900.680	716.196
236.957	24.673	899.818	714.768
237.972	24.561	899.538	714.034
238.986	24.608	899.222	713.910
240.001	24.734	898.208	713.543
241.015	24.803	897.809	713.439
242.030	25.046	897.323	713.956
243.045	25.102	897.064	713.911
244.059	25.153	896.462	713.574
245.074	25.070	895.251	712.214
246.088	24.567	894.653	709.680
247.103	24.920	894.094	710.575
248.117	25.545	894.300	713.156
249.132	25.906	893.778	714.106
250.147	25.670	893.683	713.034
251.161	26.034	892.685	713.615
252.176	25.987	892.140	712.930
253.190	25.902	892.098	712.495
254.205	26.147	891.437	712.873
255.220	26.021	890.907	711.888
256.234	25.926	889.786	710.554
257.249	25.925	888.671	709.597
258.263	25.832	888.718	709.206
259.278	25.982	887.944	709.116
260.293	26.057	887.087	708.661
261.307	25.912	886.376	707.464
262.322	25.659	885.812	705.960
263.336	24.987	883.616	701.515
264.351	23.917	882.210	696.150
265.366	24.140	881.981	696.781
266.380	25.263	882.666	701.652
267.395	25.730	882.166	703.017
268.409	25.580	881.612	701.931
269.424	25.780	881.038	702.190
270.439	25.787	880.325	701.588
271.453	25.839	879.776	701.290
272.468	25.917	879.632	701.418
273.482	26.123	878.759	701.460
274.497	25.769	877.450	698.980
275.512	25.136	877.120	696.196
276.526	25.757	876.895	698.365
277.541	25.783	876.750	698.290
278.555	25.798	875.467	697.265
279.570	25.672	874.729	696.126
280.585	25.643	874.445	695.729
281.599	25.692	873.076	694.765
282.614	25.013	872.347	691.503
283.628	25.046	872.122	691.392
284.643	25.328	871.695	692.081
285.657	24.963	870.453	689.629
286.672	24.846	869.614	688.452
287.687	25.346	869.802	690.462
288.701	25.400	869.086	690.043
289.716	24.952	868.367	687.690
290.730	24.885	867.553	686.727
291.745	24.690	866.894	685.396
292.760	25.096	866.690	686.732
293.774	26.255	866.872	691.252
294.789	26.438	866.507	691.598
295.803	26.325	866.300	690.941
296.818	26.431	865.515	690.657
297.833	26.017	864.527	688.231
298.847	25.815	863.478	686.563
299.862	26.062	863.538	687.493
300.876	26.358	863.247	688.327
301.891	26.288	862.577	687.466
302.906	25.856	861.524	684.922
303.920	25.914	861.442	685.017
304.935	26.213	861.131	685.844
305.949	26.279	860.551	685.574
306.964	26.089	859.149	683.675
307.979	26.137	859.091	683.752
308.993	26.386	859.126	684.662
310.008	26.508	858.267	684.380
311.022	26.153	857.622	682.462
312.037	25.980	857.030	681.278
313.052	25.587	856.422	679.248
314.066	24.853	854.564	674.946
315.081	24.564	853.917	673.288
316.095	25.472	854.310	676.962
317.110	26.004	853.837	678.527
318.125	25.129	852.625	674.217
319.139	24.072	851.104	668.986
320.154	24.185	850.495	668.871
321.168	25.035	850.983	672.387
322.183	25.756	851.050	675.084
323.197	25.817	851.134	675.318
324.212	26.083	850.524	675.770
325.227	26.016	849.898	674.964
326.241	25.950	849.293	674.177
327.256	25.792	848.473	672.878
328.270	25.674	847.956	671.968
329.285	25.594	847.137	670.960
330.300	25.300	846.504	669.304
331.314	25.646	846.224	670.313
332.329	26.006	846.225	671.594
333.343	26.192	845.689	671.799
334.358	26.189	845.141	671.294
335.373	26.171	844.717	670.834
336.387	26.408	845.038	671.908
337.402	26.586	845.027	672.500
338.416	26.626	843.995	671.770
339.431	26.667	844.029	671.889
340.446	26.729	844.237	672.225
341.460	26.648	843.032	670.907
342.475	26.638	842.262	670.195
343.489	26.709	841.922	670.128
344.504	26.911	842.082	670.943
345.519	27.005	841.618	670.862
346.533	26.963	841.226	670.337
347.548	27.048	840.671	670.149
348.562	26.885	840.153	669.074
349.577	27.017	839.205	668.746
350.592	26.853	838.928	667.862
351.606	26.762	838.312	666.979
352.621	26.783	837.341	666.225
353.635	26.799	836.220	665.330
354.650	26.046	834.755	661.349
355.665	24.994	833.745	656.636
356.679	25.607	833.247	658.431
357.694	25.945	832.728	659.197
358.708	25.950	832.052	658.624
359.723	26.371	832.183	660.207
360.738	26.585	831.725	660.566
361.752	26.786	831.560	661.110
362.767	27.010	830.876	661.323
363.781	27.150	831.066	661.924
364.796	27.249	830.571	661.832
365.810	27.297	829.928	661.435
366.825	27.262	829.475	660.890
367.840	27.014	828.742	659.344
368.854	26.631	828.172	657.444
369.869	26.724	827.445	657.146
370.883	26.680	827.071	656.632
371.898	26.573	826.690	655.882
372.913	26.667	826.592	656.087
373.927	26.735	826.118	655.901
374.942	26.947	825.470	656.092
375.956	26.891	825.587	655.927
376.971	27.292	824.472	656.430
377.986	27.251	824.660	656.372
379.000	27.253	823.807	655.642
380.015	27.246	822.946	654.875
381.029	27.223	822.541	654.410
382.044	27.357	821.584	654.075
383.059	27.425	821.441	654.149
384.073	27.409	821.002	653.681
385.088	27.273	820.424	652.677
386.102	27.239	819.778	651.981
387.117	27.063	818.981	650.662
388.132	26.553	818.291	648.230
389.146	26.305	817.055	646.305
390.161	26.642	817.182	647.553
391.175	27.031	816.836	648.613
392.190	26.600	815.550	645.997
393.205	25.344	813.654	639.963
394.219	23.778	812.220	633.204
395.234	23.937	811.827	633.406
396.248	25.347	813.499	639.682
397.263	26.848	813.956	645.330
398.278	26.764	813.597	644.692
399.292	26.557	812.909	643.351
400.307	26.596	812.386	643.022
401.321	26.848	812.180	643.695
402.336	27.215	812.021	644.816
403.350	27.470	812.005	645.649
404.365	27.823	811.704	646.604
405.380	28.055	811.214	646.977
406.394	28.159	810.539	646.747
407.409	27.926	810.402	645.759
408.423	27.747	810.293	644.982
409.438	27.948	809.508	645.011
410.453	28.115	809.293	645.369
411.467	28.100	808.488	644.617
412.482	27.960	808.085	643.747
413.496	28.028	808.420	644.196
414.511	27.961	807.852	643.449
415.526	27.999	807.136	642.956
416.540	27.836	806.416	641.752
417.555	27.689	805.679	640.593
418.569	27.681	805.451	640.330
419.584	27.757	804.874	640.079
420.599	27.688	803.855	638.972
421.613	110.573	1286.517	1460.204
422.628	95.451	1356.839	1460.314
