DTS Sentinel unit serial number:	SN413079Multiplexer serial number:	ORYXHardware model number:	OX4-SRSoftware version number:	ORYX F/W v4.00 Oryx Data Collector v3.7.2.0data status	okinstallation	princeton_trtdifferential loss correction	single-endedforward channel	channel 1reverse channel	N/Adate	2019/09/16time	05:34:35forward acquisition time	60.00reverse acquisition time	0.00gamma	496.2192k internal	0.2331k external	0.2331temperature offset calibration	0.9981default loss term (dB/km)	0.3790temperature slope calibration	1.0000multiplexer offset coefficient	1.0000multiplexer slope coefficient	1.0000fibre end	0.00T internal ref (°C)	27.31T ext. ref 1 (°C)	11.14T ext. ref 2 (°C)	22.09length (m)	temperature (°C)	Stokes	anti-Stokes-747.200	-32.423	0.295	0.166
-746.185	800.000	0.093	0.269
-745.171	-133.256	-0.348	0.044
-744.156	371.301	-0.084	0.171
-743.142	-200.000	-0.019	0.115
-742.127	-97.743	0.204	0.053
-741.112	-90.652	0.218	-0.064
-740.098	-200.000	-0.077	0.604
-739.083	-200.000	0.042	0.331
-738.069	110.723	0.166	0.201
-737.054	37.915	-0.045	0.040
-736.039	115.195	-0.273	-0.336
-735.025	-200.000	0.020	-0.350
-734.010	-200.000	-0.054	0.293
-732.996	402.649	-0.209	-0.443
-731.981	125.137	-0.039	-0.049
-730.966	112.695	-0.130	-0.158
-729.952	-200.000	0.004	0.065
-728.937	265.533	-0.083	-0.146
-727.923	207.111	0.096	0.151
-726.908	126.839	-0.018	-0.023
-725.894	-107.835	0.235	-0.052
-724.879	4.107	0.007	-0.005
-723.864	800.000	0.093	-0.261
-722.850	-38.575	0.329	-0.175
-721.835	-30.494	-0.267	0.152
-720.821	-46.825	-0.437	-0.215
-719.806	-200.000	-0.025	-0.419
-718.791	247.112	0.168	-0.284
-717.777	800.000	0.053	0.206
-716.762	79.111	-0.300	-0.323
-715.748	-200.000	-0.051	0.287
-714.733	-200.000	0.008	-0.053
-713.718	-200.000	0.047	-0.224
-712.704	-45.355	0.345	0.172
-711.689	-42.472	0.164	0.084
-710.675	-200.000	-0.024	0.120
-709.660	-46.521	-0.078	0.038
-708.645	5.032	-0.171	-0.126
-707.631	-27.458	-0.071	-0.042
-706.616	-174.401	-0.295	-0.009
-705.602	196.738	0.202	-0.309
-704.587	-147.010	0.216	-0.019
-703.572	33.185	0.269	0.234
-702.558	-62.938	-0.237	-0.098
-701.543	-200.000	0.031	-0.154
-700.529	-133.917	0.278	-0.035
-699.514	47.841	0.268	0.251
-698.499	-171.058	0.290	-0.010
-697.485	-66.211	0.284	-0.114
-696.470	373.652	-0.119	-0.242
-695.456	74.629	0.219	-0.232
-694.441	87.306	0.117	-0.129
-693.426	77.863	0.047	-0.051
-692.412	-108.439	-0.184	0.040
-691.397	44.471	0.250	-0.231
-690.383	255.817	0.140	-0.242
-689.368	507.568	0.117	-0.272
-688.354	800.000	0.056	-0.173
-687.339	-32.958	-0.187	-0.104
-686.324	-200.000	0.046	-0.308
-685.310	-35.459	-0.204	-0.111
-684.295	23.092	0.319	-0.263
-683.281	90.976	-0.173	-0.195
-682.266	-118.593	-0.299	-0.053
-681.251	323.880	-0.080	-0.154
-680.237	-117.458	0.171	-0.031
-679.222	-153.332	-0.217	0.015
-678.208	-200.000	0.014	-0.380
-677.193	-28.061	-0.371	-0.215
-676.178	-200.000	-0.014	-0.105
-675.164	23.131	0.159	0.131
-674.149	130.403	-0.071	0.091
-673.135	-93.799	-0.253	0.070
-672.120	-13.956	-0.108	0.070
-671.105	-68.059	-0.152	-0.060
-670.091	-200.000	0.037	0.253
-669.076	99.109	0.039	0.046
-668.062	-78.175	-0.231	0.080
-667.047	-200.000	0.026	0.251
-666.032	110.849	-0.374	0.451
-665.018	-107.508	0.384	-0.084
-664.003	290.032	-0.107	-0.194
-662.989	-43.134	-0.114	0.058
-661.974	800.000	0.029	0.122
-660.959	-86.781	0.127	0.039
-659.945	-200.000	0.065	0.288
-658.930	-200.000	0.008	-0.138
-657.916	-200.000	-0.004	0.149
-656.901	-28.879	0.253	-0.146
-655.886	-200.000	-0.034	-0.359
-654.872	-200.000	0.033	-0.147
-653.857	-112.557	-0.437	-0.087
-652.843	800.000	0.037	-0.135
-651.828	-200.000	-0.039	0.409
-650.814	-70.309	-0.144	-0.055
-649.799	-115.107	0.142	0.027
-648.784	-155.667	0.631	-0.041
-647.770	18.564	0.121	0.097
-646.755	-91.193	0.427	0.123
-645.741	74.073	0.174	-0.183
-644.726	-108.155	-0.235	0.051
-643.711	-146.697	-0.129	0.011
-642.697	187.396	0.184	0.276
-641.682	-200.000	-0.007	0.110
-640.668	-1.855	-0.307	0.217
-639.653	57.126	-0.301	0.295
-638.638	800.000	-0.080	0.310
-637.624	-144.265	-0.244	0.023
-636.609	615.707	-0.185	-0.466
-635.595	-200.000	0.019	0.124
-634.580	-140.410	0.097	0.010
-633.565	-107.198	-0.376	0.083
-632.551	-133.076	0.197	-0.025
-631.536	52.199	0.119	-0.114
-630.522	165.342	-0.149	-0.210
-629.507	141.964	-0.212	-0.282
-628.492	-55.547	-0.140	0.063
-627.478	76.789	0.059	-0.062
-626.463	-19.103	-0.133	0.083
-625.449	-32.231	0.079	0.044
-624.434	-97.803	0.112	0.029
-623.419	-3.672	-0.211	0.147
-622.405	-200.000	0.037	-0.335
-621.390	59.700	0.175	0.173
-620.376	-51.780	0.207	-0.096
-619.361	-200.000	-0.111	0.001
-618.346	800.000	-0.027	0.105
-617.332	-151.125	0.246	-0.018
-616.317	759.587	0.024	0.065
-615.303	-60.982	0.125	-0.053
-614.288	-72.072	-0.087	-0.032
-613.273	-200.000	-0.011	-0.170
-612.259	-11.825	0.167	-0.110
-611.244	-126.194	0.106	-0.016
-610.230	-200.000	-0.016	0.079
-609.215	585.227	0.080	-0.197
-608.201	800.000	-0.037	0.135
-607.186	-76.895	0.098	-0.034
-606.171	-200.000	0.018	-0.226
-605.157	-117.210	-0.268	0.049
-604.142	-200.000	-0.005	0.030
-603.128	19.981	-0.231	-0.186
-602.113	800.000	0.188	0.545
-601.098	92.693	-0.171	0.193
-600.084	85.332	-0.125	-0.137
-599.069	-168.835	0.420	-0.016
-598.055	800.000	0.074	-0.287
-597.040	407.879	-0.061	-0.130
-596.025	-121.080	-0.088	-0.015
-595.011	-100.725	0.094	-0.023
-593.996	800.000	0.120	-0.436
-592.982	33.255	0.160	0.139
-591.967	117.220	-0.129	0.159
-590.952	-200.000	0.014	-0.184
-589.938	-25.319	-0.075	-0.044
-588.923	60.605	0.033	0.033
-587.909	-17.757	-0.095	-0.060
-586.894	-154.823	-0.100	-0.007
-585.879	-105.779	0.462	-0.104
-584.865	671.177	-0.081	-0.210
-583.850	490.819	-0.006	0.013
-582.836	-61.877	0.296	-0.124
-581.821	350.182	-0.123	0.243
-580.806	-11.997	0.235	0.154
-579.792	-200.000	0.016	0.126
-578.777	-76.787	-0.128	0.045
-577.763	110.885	-0.064	0.077
-576.748	800.000	-0.067	-0.254
-575.733	-200.000	0.000	-0.229
-574.719	9.505	-0.073	-0.055
-573.704	10.894	-0.200	0.153
-572.690	-30.342	0.249	0.141
-571.675	20.302	-0.383	-0.309
-570.661	800.000	-0.147	0.475
-569.646	245.099	0.092	0.155
-568.631	154.017	0.170	0.233
-567.617	800.000	0.089	0.287
-566.602	-106.696	0.275	0.061
-565.588	9.047	0.124	0.093
-564.573	785.401	0.062	-0.171
-563.558	800.000	-0.053	0.202
-562.544	-67.310	0.069	0.027
-561.529	-98.041	0.233	0.060
-560.515	41.870	0.106	-0.096
-559.500	-200.000	0.015	0.096
-558.485	30.484	-0.247	-0.211
-557.471	-6.876	-0.204	-0.138
-556.456	218.549	-0.159	0.253
-555.442	162.775	0.020	-0.028
-554.427	-106.966	-0.140	-0.031
-553.412	2.600	-0.140	0.101
-552.398	140.157	-0.066	-0.086
-551.383	350.096	-0.139	-0.274
-550.369	730.809	-0.057	-0.151
-549.354	800.000	-0.100	0.289
-548.339	335.073	0.109	-0.211
-547.325	109.518	-0.213	-0.254
-546.310	-113.572	-0.069	-0.013
-545.296	-200.000	0.014	-0.105
-544.281	-200.000	-0.031	-0.275
-543.266	294.710	0.146	-0.267
-542.252	-112.621	0.172	0.034
-541.237	55.858	-0.108	0.105
-540.223	-61.518	0.248	0.104
-539.208	142.459	0.110	0.146
-538.193	-93.458	0.193	-0.053
-537.179	54.215	-0.118	0.113
-536.164	523.961	-0.095	-0.222
-535.150	201.505	-0.076	0.116
-534.135	17.356	-0.232	-0.184
-533.121	-200.000	0.007	-0.111
-532.106	308.684	0.114	0.212
-531.091	272.925	0.043	0.075
-530.077	27.241	-0.171	-0.143
-529.062	95.001	-0.164	-0.186
-528.048	-200.000	0.012	0.073
-527.033	39.284	-0.074	-0.066
-526.018	86.468	0.114	-0.126
-525.004	-200.000	-0.195	0.001
-523.989	-100.833	0.199	0.049
-522.975	800.000	0.034	-0.141
-521.960	-200.000	0.010	-0.115
-520.945	59.904	0.077	0.076
-519.931	800.000	-0.055	0.174
-518.916	12.753	0.169	0.130
-517.902	657.742	0.016	0.042
-516.887	743.328	0.047	-0.127
-515.872	-67.217	-0.284	-0.112
-514.858	-132.305	-0.297	-0.038
-513.843	-19.761	0.128	0.079
-512.829	-200.000	-0.002	0.009
-511.814	-56.570	-0.311	-0.138
-510.799	-118.023	-0.093	-0.017
-509.785	-200.000	0.019	0.134
-508.770	-110.372	0.191	-0.040
-507.756	-17.803	0.136	-0.085
-506.741	-171.457	0.546	-0.018
-505.726	139.469	-0.198	-0.259
-504.712	-14.007	-0.141	0.091
-503.697	133.580	-0.156	-0.201
-502.683	-200.000	-0.116	-0.000
-501.668	-200.000	-0.035	-0.185
-500.653	-91.874	0.065	-0.018
-499.639	-150.121	0.427	0.033
-498.624	800.000	-0.059	0.173
-497.610	105.448	0.157	0.185
-496.595	404.186	0.055	0.116
-495.581	77.147	0.035	-0.037
-494.566	800.000	-0.045	0.170
-493.551	-89.526	0.099	0.029
-492.537	800.000	-0.084	0.270
-491.522	-111.224	0.187	-0.038
-490.508	466.473	-0.081	-0.181
-489.493	-200.000	0.007	0.075
-488.478	-21.579	-0.153	-0.093
-487.464	127.251	0.077	-0.097
-486.449	79.165	0.325	-0.347
-485.435	15.208	-0.297	0.232
-484.420	-67.325	0.086	-0.034
-483.405	-102.807	0.217	-0.051
-482.391	-194.365	-0.278	-0.002
-481.376	71.020	0.115	-0.119
-480.362	361.928	-0.100	-0.201
-479.347	800.000	0.057	0.159
-478.332	-200.000	-0.001	-0.017
-477.318	318.905	0.111	0.210
-476.303	423.740	-0.063	-0.134
-475.289	-78.508	-0.284	0.097
-474.274	487.964	-0.174	0.396
-473.259	-200.000	0.023	-0.130
-472.245	39.130	0.077	0.068
-471.230	-200.000	0.005	-0.163
-470.216	24.556	0.161	-0.132
-469.201	27.532	-0.158	0.132
-468.186	-34.932	0.349	0.190
-467.172	-200.000	-0.027	0.154
-466.157	-200.000	-0.021	-0.267
-465.143	374.468	-0.153	0.310
-464.128	-184.500	-0.092	-0.001
-463.113	-200.000	0.327	0.001
-462.099	-200.000	0.030	0.209
-461.084	68.444	-0.222	0.227
-460.070	-39.027	-0.203	0.106
-459.055	370.094	0.032	0.064
-458.040	800.000	-0.125	-0.426
-457.026	-69.239	-0.055	0.021
-456.011	286.371	0.130	-0.233
-454.997	313.511	0.069	-0.129
-453.982	417.995	0.058	-0.124
-452.968	140.464	-0.065	0.085
-451.953	-54.419	-0.308	-0.139
-450.938	-40.266	-0.168	0.087
-449.924	-71.611	0.340	-0.126
-448.909	309.034	0.113	-0.210
-447.895	-163.166	0.028	-0.001
-446.880	-200.000	0.055	-0.266
-445.865	521.130	-0.037	-0.086
-444.851	-137.198	-0.413	-0.047
-443.836	800.000	-0.056	-0.168
-442.822	67.080	-0.167	0.169
-441.807	451.010	-0.176	0.387
-440.792	800.000	0.060	0.200
-439.778	-8.997	0.182	-0.121
-438.763	178.244	-0.157	0.228
-437.749	120.877	0.131	0.162
-436.734	257.985	0.199	-0.340
-435.719	-69.449	-0.325	-0.124
-434.705	-200.000	-0.019	0.092
-433.690	133.315	-0.027	0.035
-432.676	133.992	0.088	-0.114
-431.661	83.158	-0.083	0.090
-430.646	-113.779	-0.120	-0.023
-429.632	214.764	-0.057	-0.089
-428.617	-66.603	-0.142	0.056
-427.603	192.287	-0.125	-0.187
-426.588	-53.336	0.175	0.080
-425.573	62.176	-0.282	0.280
-424.559	378.852	-0.029	-0.058
-423.544	-200.000	0.026	-0.263
-422.530	-200.000	-0.002	0.346
-421.515	-161.797	-0.256	0.013
-420.500	-200.000	-0.034	-0.284
-419.486	-79.376	-0.284	-0.096
-418.471	227.511	-0.149	-0.241
-417.457	190.686	-0.268	-0.400
-416.442	-171.599	0.256	0.008
-415.428	-200.000	0.066	0.461
-414.413	-121.059	-0.213	0.035
-413.398	218.413	0.141	-0.223
-412.384	-31.753	-0.284	-0.158
-411.369	800.000	0.043	0.154
-410.355	47.350	0.127	0.118
-409.340	-59.513	0.029	-0.012
-408.325	-0.819	-0.064	0.045
-407.311	-114.451	0.369	0.070
-406.296	-15.589	-0.051	0.033
-405.282	-200.000	0.005	-0.331
-404.267	-133.433	-0.057	-0.007
-403.252	15.830	-0.448	0.350
-402.238	133.470	0.068	-0.087
-401.223	76.879	-0.252	-0.266
-400.209	583.782	0.040	-0.099
-399.194	-200.000	-0.032	-0.184
-398.179	800.000	0.033	-0.114
-397.165	-18.672	0.265	0.164
-396.150	228.985	0.144	-0.233
-395.136	-200.000	0.033	0.190
-394.121	258.848	0.186	0.317
-393.106	-200.000	0.065	0.309
-392.092	65.058	0.222	0.222
-391.077	-200.000	0.024	0.227
-390.063	438.492	-0.171	0.369
-389.048	-200.000	-0.044	-0.278
-388.033	-200.000	0.008	0.060
-387.019	52.670	-0.132	-0.126
-386.004	294.672	-0.065	-0.118
-384.990	-200.000	0.038	-0.309
-383.975	-140.477	0.287	0.030
-382.960	-66.975	-0.231	-0.090
-381.946	622.292	-0.067	-0.168
-380.931	-119.016	0.112	0.019
-379.917	22.762	0.126	0.102
-378.902	800.000	0.017	0.060
-377.888	45.152	-0.267	-0.244
-376.873	243.552	-0.054	-0.090
-375.858	145.614	-0.121	0.161
-374.844	414.094	-0.080	-0.168
-373.829	120.125	0.106	-0.131
-372.815	800.000	-0.055	-0.205
-371.800	71.666	-0.200	-0.206
-370.785	-110.311	0.226	0.047
-369.771	354.705	0.122	-0.241
-368.756	-167.603	0.312	0.012
-367.742	-200.000	-0.013	0.170
-366.727	158.942	0.198	0.272
-365.712	800.000	0.024	-0.072
-364.698	-130.352	-0.390	0.052
-363.683	-71.091	-0.144	0.054
-362.669	621.942	0.068	0.169
-361.654	78.211	-0.095	-0.100
-360.639	127.210	0.144	0.182
-359.625	-47.275	0.287	-0.138
-358.610	296.701	0.125	-0.228
-357.596	800.000	0.059	-0.161
-356.581	473.211	0.100	0.224
-355.566	122.914	0.133	-0.165
-354.552	61.678	-0.136	0.134
-353.537	29.874	-0.073	-0.062
-352.523	-0.227	0.261	0.184
-351.508	78.480	0.195	0.206
-350.493	52.505	0.016	-0.015
-349.479	209.221	-0.141	0.219
-348.464	21.913	-0.146	0.118
-347.450	-200.000	0.173	0.000
-346.435	-69.711	0.102	-0.039
-345.420	-102.828	0.213	0.050
-344.406	39.617	0.377	0.335
-343.391	-22.862	-0.155	-0.093
-342.377	19.523	-0.170	-0.135
-341.362	-111.775	0.236	-0.047
-340.348	-200.000	0.052	-0.456
-339.333	-44.436	0.235	-0.116
-338.318	15.887	0.313	-0.244
-337.304	679.104	-0.002	-0.004
-336.289	-42.634	0.170	-0.086
-335.275	-200.000	-0.130	0.000
-334.260	497.736	0.107	0.244
-333.245	180.899	0.106	0.154
-332.231	-200.000	0.021	-0.161
-331.216	-172.418	0.342	-0.011
-330.202	-121.752	-0.183	0.030
-329.187	-200.000	0.033	0.280
-328.172	87.637	0.135	-0.148
-327.158	100.072	0.122	-0.140
-326.143	-68.032	0.181	-0.070
-325.129	-200.000	0.044	0.392
-324.114	-68.245	-0.120	0.046
-323.099	-200.000	0.023	-0.114
-322.085	800.000	0.090	0.259
-321.070	800.000	0.120	0.377
-320.056	129.476	-0.141	-0.178
-319.041	328.234	-0.221	-0.419
-318.026	800.000	0.045	-0.127
-317.012	129.197	-0.232	0.292
-315.997	221.358	-0.193	-0.308
-314.983	607.801	-0.092	-0.228
-313.968	107.196	0.183	0.215
-312.953	800.000	0.050	-0.165
-311.939	-199.180	-0.141	-0.001
-310.924	800.000	-0.161	0.439
-309.910	-97.399	0.146	-0.038
-308.895	68.491	0.041	0.042
-307.880	-200.000	-0.050	-0.321
-306.866	-200.000	-0.025	0.131
-305.851	-20.081	0.256	-0.156
-304.837	116.612	-0.092	0.112
-303.822	-200.000	-0.004	0.058
-302.807	149.330	0.173	0.232
-301.793	-32.377	-0.198	-0.109
-300.778	-172.722	-0.257	-0.008
-299.764	114.225	-0.084	0.101
-298.749	-200.000	-0.009	-0.087
-297.735	464.751	-0.141	-0.311
-296.720	-4.563	0.194	0.132
-295.705	82.753	0.214	0.230
-294.691	425.493	0.122	-0.260
-293.676	-71.746	-0.210	0.077
-292.662	31.096	0.091	0.077
-291.647	229.768	-0.049	-0.079
-290.632	-116.868	-0.177	-0.032
-289.618	-200.000	-0.035	-0.198
-288.603	666.437	0.096	-0.246
-287.589	800.000	0.087	-0.335
-286.574	-94.556	-0.223	-0.060
-285.559	465.840	-0.023	-0.050
-284.545	355.446	-0.139	-0.274
-283.530	59.788	-0.135	-0.132
-282.516	800.000	-0.015	0.052
-281.501	74.287	0.083	-0.087
-280.486	-53.031	-0.261	0.119
-279.472	629.224	-0.101	-0.251
-278.457	800.000	-0.032	0.094
-277.443	71.733	0.112	0.115
-276.428	-38.251	0.260	0.136
-275.413	507.920	-0.165	0.378
-274.399	23.273	0.049	-0.040
-273.384	-29.094	0.309	-0.175
-272.370	-55.448	-0.315	-0.139
-271.355	-200.000	-0.013	-0.147
-270.340	800.000	0.017	0.046
-269.326	128.789	0.119	0.150
-268.311	139.049	0.106	0.138
-267.297	-200.000	-0.014	0.214
-266.282	582.767	0.043	-0.103
-265.267	19.477	-0.297	0.236
-264.253	800.000	-0.039	-0.112
-263.238	252.116	0.190	0.319
-262.224	116.702	0.095	-0.115
-261.209	800.000	-0.092	-0.300
-260.195	-6.660	0.278	0.187
-259.180	800.000	0.007	0.027
-258.165	800.000	0.062	0.212
-257.151	-47.809	-0.165	-0.079
-256.136	151.029	0.186	0.250
-255.122	-17.158	-0.097	0.061
-254.107	-77.400	-0.167	-0.057
-253.092	438.971	0.039	0.084
-252.078	800.000	0.028	-0.117
-251.063	-61.341	0.211	-0.088
-250.049	243.645	0.157	-0.260
-249.034	-6.907	-0.265	0.178
-248.019	-106.209	0.233	-0.051
-247.005	-15.267	0.170	0.107
-245.990	36.283	-0.115	-0.100
-244.976	41.974	0.161	-0.144
-243.961	324.296	0.024	0.045
-242.946	-200.000	-0.029	0.272
-241.932	10.917	-0.121	0.091
-240.917	-200.000	0.016	0.305
-239.903	411.758	-0.086	0.180
-238.888	84.414	0.145	0.157
-237.873	24.329	-0.226	0.184
-236.859	-116.181	0.227	0.042
-235.844	-125.716	0.065	-0.010
-234.830	800.000	0.057	-0.178
-233.815	800.000	-0.058	0.171
-232.800	482.611	-0.149	0.333
-231.786	-146.207	-0.136	0.012
-230.771	687.353	0.059	0.152
-229.757	-134.044	0.228	-0.028
-228.742	-200.000	0.016	-0.215
-227.727	-19.347	0.127	-0.078
-226.713	-46.228	0.134	0.065
-225.698	154.028	0.046	0.062
-224.684	217.823	-0.071	0.111
-223.669	-200.000	0.050	-0.242
-222.655	-87.403	0.369	-0.110
-221.640	87.967	0.121	0.132
-220.625	481.908	-0.063	0.141
-219.611	83.076	-0.362	-0.388
-218.596	-200.000	-0.053	0.267
-217.582	-31.271	0.294	0.163
-216.567	688.368	0.089	0.230
-215.552	-119.549	-0.406	0.069
-214.538	-60.264	0.179	0.075
-213.523	37.718	-0.159	0.139
-212.509	174.969	-0.087	-0.125
-211.494	29.607	-0.173	-0.145
-210.479	10.230	-0.218	-0.164
-209.465	800.000	-0.089	-0.264
-208.450	-0.945	0.183	0.127
-207.436	66.294	0.174	-0.174
-206.421	-144.133	0.103	0.010
-205.406	800.000	-0.050	0.163
-204.392	-200.000	0.012	-0.223
-203.377	-89.220	-0.152	0.044
-202.363	-79.803	-0.340	0.113
-201.348	-152.888	0.202	0.014
-200.333	95.212	-0.249	0.279
-199.319	602.582	0.067	0.163
-198.304	46.330	0.230	0.210
-197.290	135.942	-0.246	-0.315
-196.275	-44.141	0.204	-0.101
-195.260	800.000	0.079	0.220
-194.246	-115.517	-0.401	0.074
-193.231	-161.337	-0.377	-0.019
-192.217	-136.138	0.202	0.023
-191.202	800.000	0.068	0.231
-190.187	800.000	0.003	-0.009
-189.173	-164.132	-0.348	-0.016
-188.158	-105.577	0.037	0.008
-187.144	-125.722	-0.374	-0.056
-186.129	-79.282	0.072	-0.024
-185.114	1.397	-0.167	0.118
-184.100	-200.000	0.029	0.151
-183.085	-200.000	0.057	-0.360
-182.071	338.853	-0.084	-0.160
-181.056	-200.000	0.023	0.400
-180.042	-144.629	-0.291	-0.026
-179.027	-64.766	0.139	0.055
-178.012	800.000	0.082	0.326
-176.998	-14.313	0.168	0.106
-175.983	-160.798	0.237	-0.012
-174.969	-74.793	0.290	0.102
-173.954	8.140	-0.175	-0.129
-172.939	109.564	0.176	-0.207
-171.925	-200.000	0.012	0.297
-170.910	409.023	0.083	-0.173
-169.896	46.712	-0.073	-0.067
-168.881	-200.000	0.031	-0.142
-167.866	240.597	-0.078	-0.127
-166.852	-200.000	0.003	-0.040
-165.837	-62.895	0.234	-0.095
-164.823	-200.000	0.042	0.244
-163.808	486.428	-0.040	0.090
-162.793	-138.768	-0.279	0.030
-161.779	-200.000	-0.005	-0.098
-160.764	116.681	-0.182	0.220
-159.750	-200.000	-0.021	0.117
-158.735	-174.493	0.382	0.011
-157.720	-44.783	0.053	0.026
-156.706	-200.000	-0.006	-0.363
-155.691	800.000	0.109	-0.465
-154.677	-65.764	-0.116	-0.046
-153.662	259.924	0.116	0.198
-152.647	-32.910	-0.230	0.126
-151.633	-161.131	-0.506	0.026
-150.618	-200.000	0.061	-0.292
-149.604	-11.974	-0.327	0.211
-148.589	-55.692	0.281	-0.123
-147.574	146.297	-0.109	0.143
-146.560	-1.193	0.137	0.095
-145.545	140.655	0.123	0.159
-144.531	475.572	-0.203	0.450
-143.516	162.859	-0.012	0.017
-142.502	237.745	-0.178	0.291
-141.487	156.356	-0.114	-0.155
-140.472	374.654	0.029	-0.058
-139.458	-200.000	0.014	-0.302
-138.443	229.760	0.053	0.084
-137.429	195.685	-0.262	0.391
-136.414	-200.000	-0.020	-0.275
-135.399	4.698	-0.075	0.054
-134.385	246.855	-0.070	0.117
-133.370	-73.785	0.354	0.127
-132.356	-200.000	0.012	0.114
-131.341	-42.238	-0.101	0.051
-130.326	-56.100	-0.102	-0.044
-129.312	124.063	-0.115	-0.142
-128.297	182.951	0.173	0.251
-127.283	-200.000	-0.051	-0.314
-126.268	-200.000	-0.011	-0.203
-125.253	800.000	-0.051	-0.147
-124.239	-200.000	-0.005	0.111
-123.224	648.288	0.109	0.273
-122.210	369.670	-0.147	-0.291
-121.195	316.835	-0.137	0.255
-120.180	-154.378	0.064	0.004
-119.166	-200.000	-0.003	-0.167
-118.151	3.548	-0.028	-0.020
-117.137	-97.038	-0.152	-0.039
-116.122	-173.608	-0.255	0.008
-115.107	-200.000	-0.037	0.243
-114.093	-139.461	-0.189	0.020
-113.078	-89.193	0.205	0.059
-112.064	-200.000	0.015	-0.164
-111.049	58.456	0.188	-0.181
-110.034	-200.000	0.018	-0.136
-109.020	109.523	0.163	0.192
-108.005	222.113	-0.112	0.176
-106.991	-27.026	0.365	-0.209
-105.976	91.212	0.066	0.072
-104.962	-25.603	0.108	0.063
-103.947	104.580	-0.124	0.143
-102.932	-200.000	-0.021	0.094
-101.918	89.435	0.107	-0.117
-100.903	-79.463	-0.312	-0.103
-99.889	41.173	-0.211	-0.187
-98.874	-200.000	-0.074	0.352
-97.859	539.325	0.106	-0.246
-96.845	-44.840	-0.302	-0.148
-95.830	661.616	-0.130	0.328
-94.816	-22.186	0.183	0.109
-93.801	5.396	-0.036	-0.026
-92.786	-200.000	-0.001	0.214
-91.772	214.216	-0.063	0.098
-90.757	80.203	-0.182	0.192
-89.743	-200.000	-0.001	0.038
-88.728	-200.000	-0.035	0.216
-87.713	-54.297	-0.321	0.143
-86.699	-115.785	0.113	0.021
-85.684	-164.324	0.342	0.015
-84.670	153.201	-0.222	0.298
-83.655	-122.073	0.314	-0.051
-82.640	753.021	-0.105	-0.278
-81.626	-63.923	0.177	0.071
-80.611	150.152	0.207	-0.275
-79.597	-200.000	-0.039	0.282
-78.582	53.347	-0.245	0.230
-77.567	544.123	-0.121	0.283
-76.553	-47.147	-0.200	-0.096
-75.538	-104.877	0.091	0.021
-74.524	-96.609	-0.194	-0.050
-73.509	-114.511	-0.469	-0.088
-72.494	96.093	-0.173	0.193
-71.480	-69.767	0.087	-0.032
-70.465	-12.620	-0.240	-0.153
-69.451	-78.393	-0.152	0.051
-68.436	-129.192	-0.256	-0.035
-67.422	-200.000	0.008	0.153
-66.407	610.830	-0.102	-0.249
-65.392	64.229	-0.228	-0.225
-64.378	800.000	0.104	0.414
-63.363	163.838	-0.106	0.146
-62.349	6.084	0.120	0.087
-61.334	77.042	-1.080	-1.124
-60.319	8.267	0.740	0.544
-59.305	-200.000	0.088	-0.976
-58.290	190.882	0.823	1.213
-57.276	351.727	0.820	1.591
-56.261	-200.000	113.409	642.620
-55.246	463.646	1511.608	3308.062
-54.232	146.551	2678.422	3523.812
-53.217	103.121	2156.103	2474.682
-52.203	38.705	1601.828	1400.052
-51.188	30.610	1347.543	1128.857
-50.173	27.626	1309.904	1079.642
-49.159	55.429	1365.254	1293.789
-48.144	53.840	1379.825	1297.982
-47.130	30.932	1335.408	1120.450
-46.115	27.481	1317.786	1085.102
-45.100	27.187	1313.010	1079.380
-44.086	27.294	1309.917	1077.428
-43.071	27.167	1307.974	1075.037
-42.057	27.061	1305.908	1072.672
-41.042	27.211	1304.362	1072.245
-40.027	27.177	1303.067	1070.937
-39.013	27.174	1300.936	1069.125
-37.998	27.235	1298.790	1067.679
-36.984	27.284	1296.732	1066.227
-35.969	27.360	1295.258	1065.417
-34.954	27.331	1293.520	1063.777
-33.940	27.299	1292.330	1062.568
-32.925	27.313	1291.221	1061.700
-31.911	27.301	1289.498	1060.167
-30.896	27.371	1288.020	1059.318
-29.881	27.406	1287.129	1058.746
-28.867	27.427	1285.191	1057.237
-27.852	27.481	1283.815	1056.371
-26.838	27.415	1282.570	1054.923
-25.823	27.440	1281.032	1053.766
-24.809	27.352	1279.768	1052.173
-23.794	27.316	1278.774	1051.106
-22.779	27.429	1276.862	1050.145
-21.765	27.384	1276.029	1049.160
-20.750	27.347	1274.826	1047.915
-19.736	27.354	1273.296	1046.657
-18.721	27.219	1272.493	1045.176
-17.706	27.308	1271.691	1044.987
-16.692	27.374	1270.011	1043.945
-15.677	27.361	1269.335	1043.272
-14.663	27.293	1267.923	1041.684
-13.648	27.245	1266.651	1040.319
-12.633	27.209	1265.525	1039.147
-11.619	27.317	1264.638	1038.994
-10.604	27.398	1263.692	1038.642
-9.590	27.259	1262.847	1037.109
-8.575	27.154	1262.332	1036.049
-7.560	27.300	1261.280	1035.974
-6.546	27.284	1260.044	1034.830
-5.531	27.107	1259.586	1033.403
-4.517	27.254	1258.530	1033.334
-3.502	27.351	1257.414	1032.925
-2.487	27.332	1256.517	1032.042
-1.473	27.249	1252.687	1028.384
-0.458	25.784	1237.815	1007.940
0.556	21.216	1221.480	972.610
1.571	17.788	1228.035	958.514
2.586	17.030	1243.042	965.825
3.600	17.286	1231.943	958.564
4.615	15.858	1166.427	899.876
5.629	12.868	1099.900	833.381
6.644	11.254	1082.690	812.234
7.659	11.128	1080.535	809.917
8.673	11.120	1079.225	808.823
9.688	11.039	1077.745	807.242
10.702	11.166	1076.008	806.501
11.717	13.225	1077.236	817.541
12.731	16.189	1081.206	835.177
13.746	17.697	1083.156	844.084
14.761	17.678	1082.382	843.312
15.775	16.691	1080.351	836.777
16.790	15.572	1078.576	829.806
17.804	14.880	1076.566	824.770
18.819	14.559	1074.969	821.892
19.834	14.164	1074.550	819.556
20.848	13.937	1073.797	817.791
21.863	13.832	1072.627	816.312
22.877	13.572	1072.157	814.603
23.892	13.607	1071.326	814.071
24.907	13.539	1070.484	813.027
25.921	13.581	1069.529	812.433
26.936	13.625	1068.118	811.504
27.950	13.655	1066.713	810.512
28.965	13.799	1065.268	810.045
29.980	13.871	1063.365	808.879
30.994	13.873	1062.529	808.180
32.009	13.870	1061.458	807.283
33.023	13.756	1060.415	805.864
34.038	13.780	1059.643	805.319
35.053	13.672	1058.696	804.008
36.067	13.653	1057.978	803.296
37.082	13.734	1056.681	802.635
38.096	13.731	1056.359	802.303
39.111	13.771	1055.452	801.735
40.126	13.755	1053.711	800.268
41.140	13.665	1052.979	799.204
42.155	13.472	1051.911	797.394
43.169	13.504	1050.916	796.724
44.184	13.551	1049.602	795.886
45.199	13.437	1048.784	794.648
46.213	13.525	1047.441	793.978
47.228	13.854	1045.956	794.359
48.242	13.581	1045.591	792.705
49.257	13.616	1044.690	792.119
50.271	13.658	1044.079	791.789
51.286	13.778	1042.549	791.129
52.301	13.673	1041.362	789.657
53.315	13.691	1040.482	789.006
54.330	13.623	1039.308	787.722
55.344	13.614	1038.794	787.220
56.359	13.657	1037.599	786.448
57.374	13.596	1036.678	785.394
58.388	13.615	1035.875	784.807
59.403	13.453	1035.347	783.570
60.417	13.478	1034.831	783.229
61.432	13.442	1033.750	782.170
62.447	13.478	1032.774	781.533
63.461	13.362	1032.394	780.626
64.476	13.497	1031.186	780.280
65.490	13.390	1030.419	779.129
66.505	13.509	1029.767	779.125
67.520	13.578	1028.689	778.567
68.534	13.563	1027.931	777.855
69.549	13.541	1027.694	777.503
70.563	13.437	1026.699	776.190
71.578	13.326	1026.184	775.214
72.593	13.388	1025.450	774.879
73.607	13.316	1024.949	774.098
74.622	13.346	1024.007	773.459
75.636	13.285	1023.523	772.737
76.651	13.415	1022.584	772.566
77.666	13.428	1021.765	771.940
78.680	13.276	1021.912	771.276
79.695	13.422	1020.791	771.039
80.709	13.432	1020.413	770.736
81.724	13.506	1019.540	770.350
82.739	13.681	1018.480	770.293
83.753	13.642	1017.902	769.610
84.768	13.729	1017.485	769.628
85.782	13.757	1016.353	768.834
86.797	13.837	1015.291	768.332
87.812	13.717	1014.250	766.925
88.826	13.732	1013.306	766.209
89.841	13.681	1012.610	765.380
90.855	13.721	1011.728	764.832
91.870	13.806	1010.989	764.597
92.884	13.675	1010.301	763.403
93.899	13.847	1009.185	763.283
94.914	13.957	1008.216	762.991
95.928	13.936	1007.552	762.322
96.943	13.930	1006.100	761.129
97.957	13.836	1005.730	760.351
98.972	13.712	1005.045	759.200
99.987	13.710	1004.203	758.485
101.001	13.930	1002.686	758.279
102.016	13.909	1001.891	757.513
103.030	13.767	1001.586	756.568
104.045	13.858	1000.608	756.180
105.060	13.828	999.731	755.311
106.074	13.666	998.738	753.759
107.089	13.680	997.589	752.887
108.103	13.565	996.742	751.659
109.118	13.542	995.817	750.791
110.133	13.582	994.866	750.192
111.147	13.632	993.714	749.479
112.162	13.561	993.412	748.867
113.176	13.663	992.537	748.602
114.191	13.728	991.661	748.167
115.206	13.633	990.823	747.039
116.220	13.621	990.181	746.436
117.235	13.635	989.365	745.819
118.249	13.754	988.110	745.340
119.264	13.617	987.268	744.025
120.279	13.647	986.794	743.734
121.293	13.779	985.408	743.216
122.308	13.577	985.095	742.009
123.322	13.637	983.693	741.156
124.337	13.605	982.563	740.097
125.352	13.579	981.548	739.153
126.366	13.677	980.416	738.670
127.381	13.610	979.684	737.756
128.395	13.594	978.660	736.847
129.410	13.630	978.210	736.606
130.424	13.679	976.832	735.717
131.439	13.519	976.479	734.677
132.454	13.600	975.746	734.421
133.468	13.680	974.969	734.126
134.483	13.675	973.835	733.184
135.497	13.791	972.742	732.810
136.512	13.700	971.906	731.713
137.527	13.682	971.434	731.214
138.541	13.734	970.663	730.797
139.556	13.834	969.758	730.490
140.570	13.856	969.244	730.136
141.585	13.867	968.485	729.546
142.600	13.847	967.513	728.666
143.614	13.938	966.593	728.307
144.629	13.914	966.116	727.775
145.643	13.899	965.190	726.947
146.658	13.872	963.787	725.711
147.673	13.842	963.250	725.108
148.687	13.775	962.188	723.954
149.702	13.730	961.318	723.038
150.716	13.775	960.037	722.206
151.731	13.835	960.060	722.422
152.746	13.911	959.234	722.068
153.760	13.867	958.516	721.272
154.775	13.936	957.949	721.081
155.789	13.963	957.286	720.634
156.804	13.913	956.681	719.899
157.819	13.962	955.848	719.420
158.833	13.966	955.183	718.875
159.848	14.079	954.507	718.789
160.862	14.003	953.551	717.678
161.877	13.896	952.379	716.271
162.892	13.893	951.255	715.350
163.906	13.872	950.349	714.514
164.921	13.907	949.706	714.118
165.935	13.918	948.888	713.486
166.950	13.930	947.609	712.516
167.964	13.962	947.039	712.160
168.979	13.991	945.831	711.313
169.994	13.973	944.746	710.357
171.008	14.099	943.958	710.238
172.023	13.943	944.085	709.606
173.037	14.169	942.563	709.365
174.052	14.177	941.792	708.755
175.067	13.912	941.826	707.589
176.081	13.874	941.621	707.208
177.096	14.023	940.744	707.122
178.110	14.049	939.833	706.487
179.125	14.056	939.309	706.058
180.140	14.193	938.725	706.139
181.154	14.070	938.464	705.359
182.169	14.187	937.718	705.232
183.183	14.193	937.305	704.881
184.198	14.242	936.204	704.201
185.213	14.286	935.203	703.571
186.227	14.156	935.238	702.984
187.242	14.460	934.281	703.486
188.256	14.343	933.983	702.707
189.271	14.369	932.723	701.806
190.286	14.217	932.180	700.696
191.300	14.037	931.377	699.272
192.315	14.091	930.535	698.806
193.329	14.042	930.530	698.536
194.344	14.112	929.519	698.010
195.359	14.145	928.814	697.556
196.373	14.297	928.479	697.879
197.388	14.369	928.336	698.011
198.402	14.377	928.070	697.784
199.417	14.472	926.961	697.284
200.432	14.436	926.598	696.799
201.446	14.654	925.842	697.078
202.461	14.540	925.498	696.283
203.475	14.463	925.099	695.599
204.490	14.420	924.223	694.702
205.504	14.535	923.023	694.214
206.519	14.455	922.772	693.631
207.534	14.355	922.080	692.636
208.548	14.439	921.282	692.326
209.563	14.459	920.483	691.743
210.577	14.743	919.753	692.312
211.592	14.610	919.189	691.276
212.607	14.799	918.120	691.191
213.621	14.682	917.552	690.219
214.636	14.741	916.808	689.843
215.650	14.761	916.172	689.388
216.665	14.723	915.471	688.640
217.680	14.719	915.091	688.277
218.694	14.721	914.510	687.788
219.709	14.735	913.963	687.374
220.723	14.732	912.844	686.460
221.738	14.640	912.374	685.665
222.753	14.729	911.761	685.510
223.767	14.814	911.263	685.423
224.782	14.913	910.337	685.072
225.796	14.754	910.072	684.160
226.811	14.851	909.458	684.035
227.826	14.789	908.590	683.067
228.840	14.690	907.698	681.936
229.855	14.835	906.958	681.911
230.869	14.825	906.231	681.262
231.884	14.797	905.478	680.520
232.899	14.820	905.116	680.283
233.913	14.746	904.211	679.240
234.928	14.743	903.525	678.655
235.942	14.705	903.162	678.166
236.957	14.792	902.424	677.907
237.972	14.711	901.846	677.084
238.986	14.829	901.091	676.935
240.001	14.738	900.610	676.142
241.015	14.746	899.953	675.625
242.030	14.857	899.378	675.582
243.045	14.957	898.727	675.436
244.059	15.003	898.073	675.068
245.074	14.901	897.426	674.115
246.088	15.170	896.550	674.479
247.103	15.013	896.041	673.404
248.117	15.087	895.844	673.493
249.132	15.126	895.251	673.145
250.147	15.240	894.289	672.819
251.161	15.438	893.621	673.053
252.176	15.335	893.391	672.407
253.190	15.360	892.594	671.848
254.205	15.314	892.233	671.333
255.220	15.336	891.395	670.730
256.234	15.351	890.554	670.098
257.249	15.460	890.286	670.270
258.263	15.438	889.227	669.329
259.278	15.476	888.572	668.928
260.293	15.472	887.945	668.380
261.307	15.516	887.506	668.164
262.322	15.448	887.234	667.633
263.336	15.658	885.782	667.313
264.351	15.596	885.417	666.735
265.366	15.482	885.275	666.116
266.380	15.599	883.755	665.375
267.395	15.526	883.341	664.714
268.409	15.680	882.332	664.506
269.424	15.469	881.879	663.273
270.439	15.532	881.098	662.878
271.453	15.407	880.857	662.144
272.468	15.497	879.832	661.666
273.482	15.615	879.361	661.722
274.497	15.652	878.688	661.300
275.512	15.633	878.389	660.944
276.526	15.538	877.922	660.158
277.541	15.739	877.215	660.359
278.555	15.724	876.547	659.740
279.570	15.855	875.724	659.575
280.585	15.790	874.959	658.684
281.599	15.724	874.503	658.026
282.614	15.712	873.994	657.535
283.628	15.770	873.423	657.278
284.643	15.699	872.948	656.584
285.657	15.779	871.814	655.985
286.672	15.783	871.099	655.403
287.687	15.751	870.706	654.926
288.701	15.913	869.876	654.872
289.716	15.868	869.651	654.472
290.730	15.855	869.053	653.914
291.745	15.923	868.275	653.533
292.760	16.003	867.812	653.435
293.774	15.990	867.071	652.771
294.789	15.887	866.083	651.573
295.803	15.889	865.516	651.092
296.818	15.844	865.361	650.745
297.833	15.891	864.561	650.268
298.847	15.947	864.116	650.091
299.862	16.001	863.294	649.627
300.876	15.993	863.249	649.504
301.891	16.072	862.482	649.171
302.906	16.083	861.825	648.664
303.920	16.280	861.185	648.880
304.935	16.342	860.452	648.508
305.949	16.165	859.993	647.428
306.964	16.131	859.765	647.066
307.979	16.268	859.088	647.023
308.993	16.169	858.691	646.289
310.008	16.350	857.717	646.191
311.022	16.176	857.364	645.203
312.037	16.344	856.438	645.090
313.052	16.045	856.044	643.595
314.066	16.105	855.510	643.366
315.081	16.210	855.042	643.356
316.095	16.154	854.409	642.610
317.110	16.126	853.906	642.068
318.125	16.158	853.130	641.551
319.139	16.243	852.860	641.616
320.154	16.303	852.229	641.309
321.168	16.207	851.773	640.547
322.183	16.336	850.733	640.197
323.197	16.229	850.871	639.838
324.212	16.239	849.882	639.077
325.227	16.358	849.281	639.016
326.241	16.304	848.826	638.416
327.256	16.216	848.254	637.594
328.270	16.351	847.690	637.624
329.285	16.241	847.396	636.931
330.300	16.223	846.911	636.443
331.314	16.429	846.154	636.594
332.329	16.300	845.833	635.811
333.343	16.399	845.340	635.757
334.358	16.532	844.974	635.927
335.373	16.423	844.431	635.052
336.387	16.482	844.086	634.956
337.402	16.579	843.818	635.062
338.416	16.487	843.715	634.583
339.431	16.505	843.295	634.281
340.446	16.558	842.695	633.972
341.460	16.740	841.912	634.008
342.475	16.620	842.215	633.730
343.489	16.710	841.917	633.784
344.504	16.664	841.044	632.899
345.519	16.871	840.442	633.165
346.533	16.848	839.741	632.495
347.548	16.637	839.468	631.448
348.562	16.853	838.708	631.625
349.577	16.783	837.774	630.603
350.592	16.704	837.513	630.057
351.606	16.665	836.895	629.390
352.621	16.721	836.024	628.888
353.635	16.641	835.216	627.930
354.650	16.930	834.392	628.323
355.665	16.922	833.804	627.796
356.679	16.736	833.727	626.993
357.694	16.769	833.460	626.861
358.708	16.834	832.296	626.170
359.723	16.857	831.679	625.735
360.738	16.866	831.286	625.417
361.752	16.937	830.493	625.029
362.767	16.892	830.273	624.640
363.781	17.158	829.641	625.090
364.796	16.998	829.061	624.007
365.810	16.976	829.125	623.919
366.825	17.122	828.259	623.749
367.840	17.083	827.996	623.351
368.854	17.182	827.274	623.117
369.869	17.123	827.121	622.729
370.883	17.180	826.433	622.366
371.898	17.076	826.265	621.805
372.913	17.293	825.766	622.166
373.927	17.051	825.600	621.101
374.942	17.234	824.817	621.125
375.956	17.367	824.457	621.285
376.971	17.327	824.009	620.748
377.986	17.344	823.624	620.463
379.000	17.463	822.859	620.267
380.015	17.363	822.400	619.502
381.029	17.471	821.758	619.359
382.044	17.453	821.375	618.948
383.059	17.356	820.943	618.215
384.073	17.369	820.396	617.794
385.088	17.283	819.906	617.060
386.102	17.420	818.922	616.763
387.117	17.277	818.644	615.979
388.132	17.331	817.808	615.492
389.146	17.378	817.573	615.431
390.161	17.529	816.892	615.408
391.175	17.522	816.391	614.952
392.190	17.454	815.586	614.045
393.205	17.334	815.237	613.296
394.219	17.478	814.807	613.438
395.234	17.407	815.001	613.275
396.248	17.231	814.586	612.271
397.263	17.339	813.866	612.067
398.278	17.299	813.634	611.692
399.292	17.372	812.923	611.366
400.307	17.414	812.381	611.056
401.321	17.450	811.939	610.798
402.336	17.449	811.710	610.570
403.350	17.315	811.462	609.847
404.365	17.452	811.244	610.122
405.380	17.601	810.125	609.757
406.394	17.646	809.654	609.511
407.409	17.665	809.439	609.362
408.423	17.778	808.933	609.331
409.438	17.777	808.389	608.865
410.453	17.840	808.101	608.820
411.467	17.804	807.380	608.095
412.482	17.903	807.111	608.190
413.496	17.903	806.904	607.981
414.511	17.938	806.600	607.821
415.526	17.871	806.261	607.275
416.540	18.019	805.703	607.325
417.555	17.960	804.939	606.488
418.569	17.758	804.965	605.737
419.584	17.816	804.557	605.580
420.599	17.946	803.868	605.471
421.613	111.515	1294.702	1476.119
422.628	96.173	1366.184	1476.217
