DTS Sentinel unit serial number:	SN413079Multiplexer serial number:	ORYXHardware model number:	OX4-SRSoftware version number:	ORYX F/W v4.00 Oryx Data Collector v3.7.2.0data status	okinstallation	princeton_trtdifferential loss correction	single-endedforward channel	channel 1reverse channel	N/Adate	2019/09/13time	18:06:35forward acquisition time	60.00reverse acquisition time	0.00gamma	496.2192k internal	0.2309k external	0.2309temperature offset calibration	1.0141default loss term (dB/km)	0.3790temperature slope calibration	1.0000multiplexer offset coefficient	1.0000multiplexer slope coefficient	1.0000fibre end	0.00T internal ref (°C)	34.66T ext. ref 1 (°C)	4.60T ext. ref 2 (°C)	27.46length (m)	temperature (°C)	Stokes	anti-Stokes-747.200	81.301	-0.132	0.145
-746.185	115.237	-0.141	0.175
-745.171	159.664	0.317	0.449
-744.156	-195.301	-0.375	-0.003
-743.142	-19.415	0.210	0.132
-742.127	12.133	0.189	0.147
-741.112	-50.230	0.346	-0.166
-740.098	147.684	0.140	0.192
-739.083	-121.316	0.142	0.024
-738.069	299.204	0.133	0.248
-737.054	-149.938	-0.135	-0.011
-736.039	800.000	-0.079	0.334
-735.025	-49.121	-0.047	0.023
-734.010	281.380	-0.315	-0.573
-732.996	800.000	0.030	0.106
-731.981	10.297	-0.328	-0.253
-730.966	-56.610	0.250	-0.112
-729.952	-7.429	-0.204	0.140
-728.937	-200.000	0.007	0.000
-727.923	-200.000	-0.000	-0.025
-726.908	-200.000	-0.066	-0.330
-725.894	800.000	-0.047	-0.162
-724.879	257.095	0.116	-0.202
-723.864	-60.263	-0.362	0.157
-722.850	-200.000	-0.008	-0.253
-721.835	-76.470	-0.130	0.046
-720.821	-29.061	-0.150	0.088
-719.806	-200.000	0.053	0.297
-718.791	-104.445	0.083	0.019
-717.777	684.243	0.021	0.056
-716.762	-76.091	0.300	-0.107
-715.748	47.134	-0.237	-0.224
-714.733	-123.381	0.087	0.014
-713.718	800.000	-0.021	-0.082
-712.704	-2.390	0.122	-0.087
-711.689	1.735	-0.255	-0.186
-710.675	436.954	0.079	-0.174
-709.660	36.826	-0.181	-0.162
-708.645	-141.777	0.028	-0.003
-707.631	22.338	0.122	0.101
-706.616	-140.548	-0.221	0.023
-705.602	332.482	-0.208	-0.408
-704.587	77.487	-0.108	-0.117
-703.572	-115.499	-0.235	-0.045
-702.558	-200.000	0.125	-0.000
-701.543	-15.671	0.330	-0.214
-700.529	-87.575	0.125	0.038
-699.514	-200.000	-0.047	-0.424
-698.499	-200.000	0.045	0.323
-697.485	61.502	-0.039	-0.039
-696.470	-67.835	0.079	-0.031
-695.456	-93.929	0.532	-0.148
-694.441	-200.000	0.084	-0.548
-693.426	-104.510	-0.386	0.091
-692.412	81.739	0.252	0.276
-691.397	-90.251	0.170	0.050
-690.383	-69.317	0.158	0.062
-689.368	50.232	0.101	-0.097
-688.354	53.013	-0.124	-0.121
-687.339	-200.000	-0.061	-0.440
-686.324	286.584	0.079	0.145
-685.310	-75.336	-0.115	-0.042
-684.295	-151.878	-0.144	0.011
-683.281	312.163	0.027	-0.052
-682.266	-52.830	0.060	-0.028
-681.251	-200.000	-0.005	-0.055
-680.237	-86.216	0.303	0.095
-679.222	384.389	-0.124	-0.259
-678.208	-123.380	0.136	-0.022
-677.193	-200.000	0.048	0.483
-676.178	87.861	-0.071	-0.080
-675.164	367.551	0.071	-0.145
-674.149	371.553	-0.063	0.130
-673.135	1.752	0.248	-0.181
-672.120	37.889	-0.279	-0.251
-671.105	-200.000	0.062	-0.400
-670.091	73.585	-0.019	-0.020
-669.076	-200.000	0.018	-0.177
-668.062	-200.000	-0.014	-0.090
-667.047	-182.627	-0.087	0.002
-666.032	228.568	-0.090	-0.149
-665.018	-152.286	-0.176	0.013
-664.003	286.476	0.069	0.126
-662.989	-12.658	-0.138	0.091
-661.974	-200.000	0.057	0.363
-660.959	-200.000	0.021	0.339
-659.945	7.745	0.291	0.221
-658.930	-200.000	-0.053	0.241
-657.916	236.582	0.121	-0.202
-656.901	-173.976	0.136	-0.004
-655.886	800.000	-0.069	-0.194
-654.872	33.071	-0.067	0.059
-653.857	-124.471	0.255	-0.040
-652.843	-7.840	-0.147	-0.101
-651.828	-71.948	0.109	0.041
-650.814	0.756	-0.065	0.047
-649.799	87.807	-0.191	0.215
-648.784	87.626	-0.129	0.144
-647.770	-142.204	0.250	-0.025
-646.755	-100.482	0.175	0.044
-645.741	146.779	0.012	0.016
-644.726	-169.805	0.276	0.010
-643.711	-38.157	0.308	-0.165
-642.697	-140.302	0.115	0.012
-641.682	158.866	0.044	0.062
-640.668	294.026	0.223	-0.412
-639.653	-33.771	-0.205	0.115
-638.638	-26.662	-0.431	-0.255
-637.624	-200.000	-0.019	-0.190
-636.609	-49.988	0.108	0.052
-635.595	-8.367	0.253	0.172
-634.580	-32.115	0.105	0.059
-633.565	-104.695	0.381	-0.089
-632.551	-90.100	-0.149	0.044
-631.536	31.660	-0.312	0.271
-630.522	110.110	-0.255	0.310
-629.507	-200.000	0.037	-0.225
-628.492	63.774	0.363	-0.369
-627.478	-53.593	0.104	0.048
-626.463	59.616	-0.180	0.179
-625.449	-200.000	0.019	-0.266
-624.434	187.282	0.141	-0.213
-623.419	-10.890	-0.272	0.182
-622.405	-60.887	0.281	0.120
-621.390	88.774	0.050	0.056
-620.376	13.959	-0.242	-0.190
-619.361	-58.760	0.017	0.007
-618.346	194.027	-0.286	-0.438
-617.332	-75.286	-0.220	0.079
-616.317	-31.490	0.104	0.059
-615.303	102.721	-0.063	-0.075
-614.288	665.865	0.048	0.125
-613.273	-200.000	-0.023	-0.158
-612.259	-84.707	-0.214	0.068
-611.244	50.138	-0.162	0.155
-610.230	-108.613	0.286	0.062
-609.215	155.686	-0.059	0.082
-608.201	-74.890	0.132	-0.048
-607.186	-54.964	-0.228	0.104
-606.171	-55.522	0.124	-0.056
-605.157	-200.000	-0.016	-0.264
-604.142	374.957	-0.008	-0.017
-603.128	37.543	0.073	-0.065
-602.113	-13.209	-0.200	0.131
-601.098	-200.000	-0.034	-0.170
-600.084	-20.884	-0.199	0.123
-599.069	-184.047	-0.264	0.004
-598.055	629.766	0.049	0.126
-597.040	-122.471	-0.386	0.063
-596.025	800.000	-0.068	0.251
-595.011	191.821	0.134	0.205
-593.996	-25.210	0.063	0.038
-592.982	-200.000	-0.014	-0.149
-591.967	-112.262	0.130	0.026
-590.952	-200.000	-0.031	-0.212
-589.938	-87.974	0.306	0.093
-588.923	-159.673	-0.455	-0.025
-587.909	-173.035	0.235	-0.007
-586.894	93.691	-0.233	-0.267
-585.879	800.000	-0.091	-0.289
-584.865	-121.884	-0.086	-0.014
-583.850	-170.943	0.251	-0.009
-582.836	-200.000	0.005	0.249
-581.821	487.337	0.036	0.083
-580.806	-71.279	-0.444	-0.168
-579.792	221.918	-0.043	0.069
-578.777	-104.428	-0.307	-0.072
-577.763	104.209	0.094	-0.112
-576.748	-108.958	-0.252	-0.054
-575.733	70.001	-0.173	-0.180
-574.719	-200.000	0.037	0.260
-573.704	800.000	-0.045	0.196
-572.690	-71.658	-0.318	0.120
-571.675	-150.490	0.186	0.014
-570.661	14.173	0.183	-0.144
-569.646	-107.859	-0.142	-0.031
-568.631	635.952	0.057	0.147
-567.617	-35.481	-0.287	0.157
-566.602	-36.781	0.447	-0.242
-565.588	789.615	-0.080	0.221
-564.573	641.818	-0.061	0.157
-563.558	-15.423	-0.083	-0.054
-562.544	-34.045	0.606	-0.336
-561.529	772.002	0.052	0.142
-560.515	-69.465	-0.149	-0.058
-559.500	-200.000	-0.003	0.016
-558.485	-78.031	0.267	-0.093
-557.471	-136.699	0.090	-0.010
-556.456	-92.651	-0.151	0.043
-555.442	-200.000	0.005	0.107
-554.427	539.392	0.059	-0.142
-553.412	-200.000	0.062	0.296
-552.398	-200.000	0.011	-0.214
-551.383	95.007	-0.285	-0.327
-550.369	-200.000	0.055	0.404
-549.354	-72.997	-0.172	-0.064
-548.339	343.964	0.133	-0.262
-547.325	-200.000	0.009	0.067
-546.310	-200.000	0.014	-0.516
-545.296	-10.324	0.138	0.092
-544.281	61.439	-0.251	0.252
-543.266	180.046	0.151	0.223
-542.252	800.000	-0.071	0.208
-541.237	800.000	0.136	-0.475
-540.223	23.608	-0.086	-0.072
-539.208	-68.912	0.177	-0.069
-538.193	-36.505	-0.359	-0.195
-537.179	58.010	-0.087	-0.086
-536.164	-200.000	0.002	-0.099
-535.150	-120.009	-0.328	-0.057
-534.135	-175.668	-0.202	-0.005
-533.121	-167.881	-0.280	0.011
-532.106	104.579	-0.120	0.142
-531.091	-200.000	0.029	0.202
-530.077	-176.512	-0.126	-0.003
-529.062	218.918	0.113	0.182
-528.048	286.911	0.170	0.310
-527.033	271.570	0.045	-0.081
-526.018	-93.520	-0.291	-0.081
-525.004	378.408	-0.033	-0.067
-523.989	-82.061	0.186	0.061
-522.975	-200.000	0.038	0.219
-521.960	-128.454	0.142	0.020
-520.945	660.434	-0.126	0.328
-519.931	-200.000	-0.085	-0.414
-518.916	-164.517	-0.279	-0.013
-517.902	-200.000	0.019	0.248
-516.887	-92.382	-0.254	0.072
-515.872	-200.000	0.020	-0.118
-514.858	-110.265	0.242	-0.051
-513.843	-200.000	-0.045	0.395
-512.829	-31.742	0.152	-0.086
-511.814	48.115	-0.243	-0.229
-510.799	37.715	0.028	-0.025
-509.785	21.856	0.085	0.070
-508.770	-62.854	0.159	-0.066
-507.756	-200.000	0.003	-0.126
-506.741	69.741	-0.126	0.131
-505.726	800.000	-0.031	-0.097
-504.712	131.667	-0.247	0.320
-503.697	52.539	0.156	-0.149
-502.683	-47.459	0.375	0.184
-501.668	-12.485	0.278	0.183
-500.653	114.340	0.072	0.088
-499.639	-51.482	0.064	-0.030
-498.624	-32.174	-0.095	-0.053
-497.610	-42.199	0.225	-0.115
-496.595	800.000	-0.015	-0.053
-495.581	-127.423	0.201	-0.029
-494.566	-109.766	-0.207	-0.044
-493.551	-200.000	-0.002	-0.054
-492.537	-142.575	-0.136	-0.013
-491.522	-200.000	0.065	-0.314
-490.508	-200.000	0.033	-0.317
-489.493	162.726	0.083	-0.117
-488.478	-77.174	-0.249	0.087
-487.464	-200.000	-0.006	-0.187
-486.449	-200.000	-0.003	0.039
-485.435	10.297	0.132	0.101
-484.420	194.557	0.111	0.169
-483.405	106.191	-0.196	0.233
-482.391	138.243	0.136	0.179
-481.376	-70.660	-0.129	0.049
-480.362	800.000	0.018	0.069
-479.347	290.749	0.099	-0.180
-478.332	-200.000	0.016	0.130
-477.318	20.108	-0.050	0.040
-476.303	-185.373	0.329	-0.005
-475.289	757.386	-0.135	-0.367
-474.274	777.323	-0.063	0.174
-473.259	-90.196	0.350	-0.102
-472.245	-200.000	0.007	0.052
-471.230	192.408	0.181	0.275
-470.216	37.788	0.213	-0.190
-469.201	-144.845	-0.158	0.015
-468.186	-200.000	-0.065	0.320
-467.172	-200.000	-0.029	-0.183
-466.157	-3.258	-0.117	-0.082
-465.143	-141.783	0.221	-0.022
-464.128	3.578	-0.025	0.018
-463.113	24.692	-0.084	-0.070
-462.099	-200.000	0.028	-0.289
-461.084	46.126	0.247	0.230
-460.070	-38.913	-0.040	0.021
-459.055	-38.709	-0.243	0.129
-458.040	-7.286	0.187	-0.127
-457.026	77.891	-0.157	0.168
-456.011	175.548	0.109	-0.158
-454.997	12.441	0.136	0.105
-453.982	-136.922	0.083	-0.010
-452.968	-200.000	-0.053	-0.339
-451.953	800.000	-0.036	-0.122
-450.938	202.974	0.142	0.220
-449.924	139.522	0.210	-0.277
-448.909	21.870	0.330	0.270
-447.895	125.032	-0.198	-0.250
-446.880	-30.235	-0.122	-0.070
-445.865	-200.000	0.004	-0.128
-444.851	77.907	0.201	-0.215
-443.836	76.505	0.228	0.243
-442.822	-154.353	-0.097	-0.007
-441.807	-78.805	0.206	-0.071
-440.792	5.092	-0.185	0.136
-439.778	77.756	0.032	-0.035
-438.763	24.011	0.234	-0.194
-437.749	-200.000	0.007	0.294
-436.734	-200.000	0.003	0.043
-435.719	-122.601	0.362	-0.059
-434.705	-60.585	0.237	0.101
-433.690	-128.101	-0.136	-0.019
-432.676	-62.110	-0.105	0.044
-431.661	-19.172	0.188	0.117
-430.646	247.776	0.102	-0.172
-429.632	-1.947	0.193	0.136
-428.617	-57.682	-0.171	-0.075
-427.603	40.234	-0.069	0.062
-426.588	-92.106	0.284	0.080
-425.573	-90.414	0.385	-0.112
-424.559	-69.192	-0.131	0.050
-423.544	-200.000	-0.011	0.125
-422.530	-200.000	-0.035	0.333
-421.515	800.000	0.050	0.176
-420.500	496.662	-0.153	0.353
-419.486	161.944	-0.140	0.197
-418.471	-200.000	-0.030	0.163
-417.457	-176.788	0.098	0.002
-416.442	-200.000	-0.047	-0.382
-415.428	-110.958	-0.304	-0.063
-414.413	88.926	-0.134	-0.150
-413.398	-200.000	-0.029	-0.256
-412.384	505.929	-0.114	-0.265
-411.369	-94.191	-0.133	0.037
-410.355	-92.652	0.372	0.105
-409.340	24.131	-0.233	0.193
-408.325	647.942	0.194	0.497
-407.311	800.000	0.069	-0.190
-406.296	-200.000	-0.014	0.296
-405.282	715.908	0.085	0.227
-404.267	178.324	0.093	0.136
-403.252	149.550	-0.102	0.138
-402.238	800.000	-0.069	0.201
-401.223	7.715	-0.095	0.072
-400.209	610.471	0.134	-0.336
-399.194	-63.130	-0.419	-0.173
-398.179	123.105	0.108	-0.136
-397.165	800.000	0.117	-0.345
-396.150	38.346	-0.082	0.073
-395.136	-200.000	-0.018	0.105
-394.121	30.640	-0.381	0.327
-393.106	84.532	-0.139	-0.152
-392.092	-200.000	-0.041	0.330
-391.077	584.762	-0.073	-0.180
-390.063	-11.564	0.152	-0.100
-389.048	-200.000	-0.035	-0.169
-388.033	95.807	0.175	0.200
-387.019	319.395	-0.130	-0.247
-386.004	239.439	-0.054	0.089
-384.990	414.854	-0.055	0.118
-383.975	162.930	-0.033	0.046
-382.960	30.573	-0.144	-0.123
-381.946	-156.456	0.247	0.015
-380.931	-23.812	0.016	0.010
-379.917	-28.666	0.283	0.163
-378.902	-32.093	0.025	0.014
-377.888	-200.000	-0.086	0.544
-376.873	-200.000	0.006	0.081
-375.858	-45.806	-0.140	0.069
-374.844	257.748	0.172	-0.297
-373.829	-33.945	-0.114	0.063
-372.815	-30.196	-0.219	-0.124
-371.800	-200.000	0.013	0.160
-370.785	-111.110	0.051	0.011
-369.771	-41.560	-0.095	0.049
-368.756	544.826	0.122	-0.292
-367.742	-200.000	-0.003	0.031
-366.727	13.464	-0.201	-0.156
-365.712	-21.392	0.068	-0.042
-364.698	-200.000	0.001	-0.124
-363.683	-200.000	-0.005	0.100
-362.669	423.563	-0.097	0.209
-361.654	-70.648	0.224	0.085
-360.639	-143.108	0.047	0.005
-359.625	-37.271	-0.225	0.120
-358.610	-200.000	-0.011	0.259
-357.596	-64.555	0.305	-0.124
-356.581	-113.001	-0.216	0.043
-355.566	-200.000	0.004	0.065
-354.552	-63.354	0.040	-0.017
-353.537	-76.785	0.147	-0.051
-352.523	800.000	-0.052	0.181
-351.508	-12.726	0.148	-0.097
-350.493	28.110	0.193	-0.163
-349.479	-51.004	0.205	0.096
-348.464	-49.987	-0.082	0.039
-347.450	-200.000	-0.023	0.467
-346.435	-38.859	-0.202	0.106
-345.420	152.052	0.082	-0.112
-344.406	-200.000	-0.013	-0.215
-343.391	-78.360	0.113	0.039
-342.377	141.380	-0.104	0.138
-341.362	183.060	-0.090	0.132
-340.348	-6.619	-0.183	0.125
-339.333	29.072	0.238	-0.202
-338.318	48.106	-0.130	0.122
-337.304	-200.000	0.060	0.424
-336.289	108.249	0.058	0.069
-335.275	-93.728	0.239	-0.066
-334.260	19.932	-0.155	0.125
-333.245	32.628	-0.275	0.238
-332.231	158.636	-0.049	-0.068
-331.216	441.033	-0.122	0.266
-330.202	-200.000	-0.020	-0.094
-329.187	-103.155	0.257	-0.061
-328.172	5.081	0.021	0.015
-327.158	-26.351	0.414	-0.243
-326.143	-200.000	0.063	-0.491
-325.129	-53.048	0.079	-0.036
-324.114	800.000	0.085	0.306
-323.099	-102.958	-0.215	0.051
-322.085	-200.000	-0.025	-0.141
-321.070	-75.455	-0.242	0.086
-320.056	-113.178	0.180	-0.035
-319.041	800.000	0.040	-0.164
-318.026	-58.310	-0.104	0.045
-317.012	-132.269	0.152	0.020
-315.997	-82.363	0.189	-0.061
-314.983	-114.107	-0.141	-0.027
-313.968	-34.704	-0.315	-0.172
-312.953	-107.151	0.090	-0.020
-311.939	-49.677	-0.193	-0.091
-310.924	-154.939	0.280	0.018
-309.910	-200.000	-0.003	-0.027
-308.895	18.420	-0.220	-0.175
-307.880	-189.264	-0.287	0.003
-306.866	-200.000	0.008	0.078
-305.851	131.489	-0.103	0.132
-304.837	75.820	-0.139	-0.147
-303.822	-135.695	-0.096	0.011
-302.807	10.856	0.159	0.121
-301.793	565.099	-0.069	-0.168
-300.778	341.752	0.169	-0.331
-299.764	88.358	-0.141	-0.156
-298.749	-70.900	-0.110	-0.041
-297.735	800.000	0.046	-0.189
-296.720	-10.129	0.039	0.026
-295.705	-42.189	0.352	0.179
-294.691	-117.728	0.088	-0.016
-293.676	-155.054	-0.304	-0.020
-292.662	-200.000	0.019	-0.144
-291.647	71.258	0.102	-0.105
-290.632	281.393	-0.071	0.127
-289.618	-200.000	-0.012	-0.358
-288.603	80.691	-0.061	0.065
-287.589	-200.000	0.004	0.292
-286.574	69.436	-0.027	0.027
-285.559	-45.788	0.142	0.070
-284.545	122.205	-0.083	0.103
-283.530	-138.453	-0.151	0.017
-282.516	-200.000	0.138	0.001
-281.501	-200.000	0.004	-0.251
-280.486	636.187	-0.022	-0.055
-279.472	-66.301	0.147	-0.059
-278.457	399.562	-0.115	-0.240
-277.443	5.200	0.214	0.157
-276.428	-33.858	-0.478	0.263
-275.413	-18.048	-0.211	0.132
-274.399	16.729	-0.236	0.186
-273.384	81.090	-0.064	-0.069
-272.370	-69.763	0.212	0.081
-271.355	800.000	-0.058	-0.182
-270.340	492.365	-0.133	0.304
-269.326	800.000	-0.022	0.066
-268.311	-167.924	-0.159	-0.006
-267.297	326.136	0.132	0.253
-266.282	428.824	-0.043	-0.093
-265.267	211.204	0.072	0.113
-264.253	113.438	-0.161	-0.195
-263.238	-133.053	-0.143	0.018
-262.224	4.929	0.292	0.214
-261.209	427.598	-0.099	0.213
-260.195	-156.906	0.374	-0.023
-259.180	-81.593	0.235	0.077
-258.165	46.208	0.097	-0.089
-257.151	-200.000	0.010	0.202
-256.136	88.078	-0.111	0.123
-255.122	113.430	0.145	0.175
-254.107	672.738	-0.060	0.156
-253.092	800.000	-0.006	0.023
-252.078	564.695	0.125	-0.303
-251.063	-57.962	0.217	-0.094
-250.049	332.293	-0.072	-0.139
-249.034	424.893	-0.037	-0.080
-248.019	800.000	0.094	-0.271
-247.005	-26.095	-0.035	0.021
-245.990	-4.580	-0.157	0.108
-244.976	-75.212	0.227	0.081
-243.961	-169.095	-0.084	-0.003
-242.946	-56.954	0.033	-0.014
-241.932	96.530	0.213	-0.243
-240.917	-93.264	0.100	-0.028
-239.903	95.624	0.083	-0.094
-238.888	-200.000	0.014	-0.152
-237.873	64.305	0.106	0.106
-236.859	-83.596	-0.316	-0.101
-235.844	123.632	-0.098	0.123
-234.830	-93.732	-0.187	0.051
-233.815	-77.503	-0.242	0.083
-232.800	800.000	0.059	-0.181
-231.786	-92.932	0.238	0.066
-230.771	589.370	-0.096	-0.236
-229.757	132.276	-0.268	-0.344
-228.742	672.971	-0.101	-0.261
-227.727	-200.000	-0.022	-0.135
-226.713	-133.511	0.435	-0.054
-225.698	591.357	0.085	0.210
-224.684	-130.220	0.137	-0.019
-223.669	-200.000	-0.009	0.121
-222.655	800.000	-0.028	-0.113
-221.640	-55.191	-0.266	0.119
-220.625	-200.000	-0.056	0.447
-219.611	-92.070	0.160	0.045
-218.596	800.000	-0.101	-0.338
-217.582	-45.724	0.342	0.168
-216.567	-148.891	-0.354	0.028
-215.552	120.116	0.083	-0.102
-214.538	-200.000	-0.076	0.375
-213.523	800.000	0.047	0.140
-212.509	224.046	0.143	-0.230
-211.494	448.325	0.038	-0.084
-210.479	240.918	-0.152	0.252
-209.465	-43.987	0.128	0.064
-208.450	-28.275	0.289	0.166
-207.436	675.683	-0.020	-0.052
-206.421	800.000	-0.053	0.197
-205.406	65.714	-0.074	0.075
-204.392	-22.893	-0.136	0.082
-203.377	800.000	0.042	-0.120
-202.363	-135.242	-0.249	0.030
-201.348	-18.574	0.179	-0.111
-200.333	210.521	0.135	0.210
-199.319	-120.387	-0.181	0.031
-198.304	-47.243	0.242	-0.117
-197.290	382.714	0.054	-0.110
-196.275	800.000	0.087	0.290
-195.260	-139.074	-0.164	-0.018
-194.246	59.065	-0.189	-0.185
-193.231	-101.152	-0.362	0.088
-192.217	114.804	-0.148	-0.179
-191.202	-200.000	-0.006	-0.318
-190.187	-153.118	0.385	-0.027
-189.173	7.338	0.104	0.077
-188.158	45.831	0.119	-0.110
-187.144	-8.549	-0.289	-0.193
-186.129	-200.000	-0.066	0.349
-185.114	87.277	0.094	0.104
-184.100	422.781	-0.234	-0.500
-183.085	-200.000	-0.050	-0.221
-182.071	-73.739	0.088	0.032
-181.056	-200.000	-0.017	0.276
-180.042	800.000	0.059	0.257
-179.027	699.425	-0.062	-0.161
-178.012	-200.000	0.025	-0.116
-176.998	-93.641	0.282	0.077
-175.983	-3.743	0.277	0.191
-174.969	189.777	-0.132	-0.197
-173.954	-200.000	-0.010	0.091
-172.939	800.000	-0.088	-0.319
-171.925	-84.177	-0.342	-0.108
-170.910	-185.207	-0.279	-0.004
-169.896	-95.812	0.125	0.033
-168.881	232.817	-0.097	0.158
-167.866	0.751	0.254	-0.180
-166.852	-200.000	0.026	-0.174
-165.837	-62.944	0.243	0.100
-164.823	800.000	-0.096	-0.396
-163.808	-200.000	0.050	-0.276
-162.793	753.263	0.113	-0.304
-161.779	-191.674	0.359	0.004
-160.764	94.892	-0.043	-0.049
-159.750	-56.911	0.243	0.107
-158.735	-200.000	-0.057	0.275
-157.720	-144.938	-0.351	0.032
-156.706	-58.606	-0.168	0.072
-155.691	102.076	-0.148	0.172
-154.677	800.000	0.134	-0.405
-153.662	125.703	0.021	0.026
-152.647	514.135	0.077	-0.179
-151.633	-200.000	0.003	-0.360
-150.618	4.581	0.235	-0.171
-149.604	-54.447	0.119	-0.054
-148.589	126.983	-0.132	0.166
-147.574	-3.232	-0.082	0.057
-146.560	800.000	0.038	0.162
-145.545	-115.782	0.162	-0.030
-144.531	44.151	0.073	0.066
-143.516	-200.000	-0.021	0.147
-142.502	-20.429	-0.407	-0.248
-141.487	-67.462	-0.251	0.098
-140.472	-6.470	-0.231	0.156
-139.458	-200.000	0.007	0.276
-138.443	122.646	-0.176	0.218
-137.429	69.015	0.062	-0.064
-136.414	17.957	0.328	0.259
-135.399	-155.333	0.330	-0.021
-134.385	22.810	-0.181	-0.147
-133.370	-101.934	0.469	0.112
-132.356	259.673	-0.082	-0.140
-131.341	-78.858	-0.167	-0.056
-130.326	147.798	-0.064	0.085
-129.312	730.093	0.082	0.218
-128.297	200.197	0.164	0.250
-127.283	-40.091	0.081	-0.042
-126.268	800.000	0.085	-0.365
-125.253	-200.000	-0.046	-0.264
-124.239	35.231	0.066	0.057
-123.224	17.710	-0.229	-0.181
-122.210	800.000	-0.070	-0.221
-121.195	215.614	0.138	0.217
-120.180	204.761	-0.185	0.285
-119.166	-200.000	0.012	0.164
-118.151	-200.000	-0.007	-0.256
-117.137	10.795	0.049	-0.037
-116.122	137.942	-0.151	-0.197
-115.107	-18.356	0.139	-0.086
-114.093	-154.096	0.230	-0.015
-113.078	800.000	-0.054	-0.230
-112.064	800.000	-0.133	-0.399
-111.049	-18.722	0.145	0.089
-110.034	33.468	0.115	0.099
-109.020	-162.042	-0.372	-0.019
-108.005	639.812	0.078	0.197
-106.991	800.000	0.026	0.077
-105.976	41.037	-0.241	-0.216
-104.962	615.409	-0.052	-0.128
-103.947	-200.000	-0.007	-0.179
-102.932	237.668	0.219	0.361
-101.918	92.703	0.162	0.181
-100.903	-86.437	0.298	0.091
-99.889	-104.332	-0.220	0.051
-98.874	-130.961	-0.117	-0.015
-97.859	-121.008	0.220	-0.037
-96.845	-6.529	0.093	0.063
-95.830	9.142	0.442	-0.331
-94.816	8.138	0.071	-0.053
-93.801	-126.452	-0.216	0.032
-92.786	100.202	-0.017	-0.020
-91.772	-187.578	-0.113	0.001
-90.757	-200.000	0.045	0.218
-89.743	800.000	-0.061	-0.260
-88.728	800.000	-0.101	-0.341
-87.713	272.584	0.099	0.174
-86.699	-6.178	-0.221	-0.149
-85.684	800.000	-0.101	0.297
-84.670	-200.000	-0.099	-0.471
-83.655	94.335	-0.124	-0.140
-82.640	170.153	0.097	0.137
-81.626	-148.911	-0.243	0.019
-80.611	-27.149	0.031	-0.018
-79.597	303.488	0.159	-0.292
-78.582	23.981	-0.100	-0.082
-77.567	46.692	0.191	0.175
-76.553	-31.126	-0.195	-0.109
-75.538	-200.000	0.051	0.259
-74.524	-137.966	0.271	0.030
-73.509	482.452	-0.113	0.255
-72.494	-200.000	0.027	0.195
-71.480	21.740	0.027	0.022
-70.465	589.948	0.121	-0.294
-69.451	57.510	0.106	-0.103
-68.436	800.000	-0.033	-0.097
-67.422	60.724	-0.101	0.099
-66.407	-153.986	0.349	-0.023
-65.392	105.256	0.125	-0.146
-64.378	-46.229	-0.292	0.142
-63.363	-69.302	0.155	-0.059
-62.349	-68.096	0.418	-0.161
-61.334	-31.684	-0.941	-0.522
-60.319	465.791	0.204	0.451
-59.305	-200.000	-0.185	-0.842
-58.290	405.948	0.507	1.058
-57.276	800.000	0.672	1.890
-56.261	-200.000	98.516	582.554
-55.246	622.065	1405.596	3498.703
-54.232	186.884	2604.456	3837.263
-53.217	120.579	2171.753	2668.141
-52.203	46.244	1624.393	1488.281
-51.188	38.299	1359.859	1197.453
-50.173	34.871	1317.342	1139.577
-49.159	57.434	1366.005	1318.964
-48.144	60.893	1383.742	1356.967
-47.130	38.373	1339.407	1179.700
-46.115	34.767	1322.028	1142.828
-45.100	34.546	1317.591	1137.627
-44.086	34.456	1315.104	1134.900
-43.071	34.554	1312.221	1132.950
-42.057	34.469	1310.279	1130.727
-41.042	34.507	1308.854	1129.675
-40.027	34.525	1307.337	1128.428
-39.013	34.465	1305.646	1126.570
-37.998	34.604	1303.508	1125.498
-36.984	34.669	1301.729	1124.300
-35.969	34.745	1299.828	1123.062
-34.954	34.804	1297.839	1121.643
-33.940	34.685	1297.177	1120.332
-32.925	34.698	1295.676	1119.065
-31.911	34.735	1293.858	1117.668
-30.896	34.803	1292.625	1116.954
-29.881	34.695	1291.579	1115.376
-28.867	34.866	1289.807	1114.799
-27.852	34.718	1288.965	1113.165
-26.838	34.822	1287.143	1112.156
-25.823	34.755	1285.987	1110.718
-24.809	34.912	1284.026	1109.894
-23.794	34.679	1283.796	1108.301
-22.779	34.794	1281.794	1107.190
-21.765	34.769	1281.201	1106.492
-20.750	34.628	1279.341	1104.027
-19.736	34.591	1278.406	1102.959
-18.721	34.662	1277.094	1102.197
-17.706	34.653	1275.814	1100.996
-16.692	34.616	1274.604	1099.693
-15.677	34.576	1273.899	1098.809
-14.663	34.660	1272.399	1097.958
-13.648	34.535	1271.694	1096.586
-12.633	34.585	1270.808	1096.065
-11.619	34.535	1270.085	1095.114
-10.604	34.554	1268.781	1094.055
-9.590	34.458	1268.146	1092.916
-8.575	34.567	1266.892	1092.414
-7.560	34.634	1265.691	1091.715
-6.546	34.541	1265.089	1090.620
-5.531	34.535	1264.178	1089.759
-4.517	34.504	1263.234	1088.727
-3.502	34.676	1262.386	1088.931
-2.487	34.635	1261.752	1088.110
-1.473	34.458	1257.115	1083.065
-0.458	32.461	1240.688	1057.658
0.556	29.248	1220.456	1009.927
1.571	24.291	1224.367	985.745
2.586	22.813	1238.065	988.418
3.600	21.555	1226.112	971.804
4.615	16.213	1154.810	887.200
5.629	8.370	1080.920	791.620
6.644	4.815	1061.246	759.820
7.659	4.564	1058.372	756.472
8.673	4.517	1057.250	755.376
9.688	4.505	1056.271	754.554
10.702	4.754	1054.298	754.285
11.717	8.773	1060.303	778.068
12.731	16.638	1071.362	824.575
13.746	21.182	1075.985	850.246
14.761	21.245	1075.601	850.171
15.775	20.357	1074.184	844.659
16.790	19.304	1072.052	837.793
17.804	18.468	1070.832	832.704
18.819	18.241	1069.407	830.423
19.834	18.089	1068.903	829.220
20.848	17.992	1067.726	827.763
21.863	17.704	1067.464	826.094
22.877	17.741	1066.099	825.143
23.892	17.617	1065.679	824.142
24.907	17.623	1064.947	823.533
25.921	17.789	1063.879	823.434
26.936	17.662	1062.307	821.535
27.950	17.627	1061.330	820.537
28.965	17.793	1059.559	819.892
29.980	17.983	1058.247	819.716
30.994	18.101	1056.927	819.190
32.009	17.947	1056.462	818.020
33.023	17.982	1054.952	816.946
34.038	17.930	1054.205	816.043
35.053	17.726	1053.294	814.291
36.067	17.750	1052.469	813.697
37.082	17.854	1051.411	813.301
38.096	17.919	1051.204	813.381
39.111	18.066	1049.979	813.062
40.126	17.806	1048.818	810.855
41.140	17.651	1047.078	808.700
42.155	17.469	1045.908	806.863
43.169	17.293	1045.505	805.647
44.184	17.377	1044.688	805.343
45.199	17.459	1043.099	804.435
46.213	17.428	1042.452	803.720
47.228	17.763	1041.529	804.517
48.242	17.731	1040.685	803.642
49.257	17.814	1039.360	802.942
50.271	17.832	1038.998	802.674
51.286	17.921	1037.674	802.000
52.301	17.717	1036.750	800.257
53.315	17.692	1035.792	799.329
54.330	17.540	1034.802	797.783
55.344	17.468	1033.690	796.518
56.359	17.526	1032.799	796.033
57.374	17.454	1032.147	795.122
58.388	17.429	1030.907	793.978
59.403	17.403	1029.853	792.974
60.417	17.361	1029.518	792.450
61.432	17.286	1028.745	791.438
62.447	17.215	1027.812	790.317
63.461	17.300	1026.698	789.790
64.476	17.229	1025.923	788.795
65.490	17.263	1024.858	788.061
66.505	17.354	1024.424	788.079
67.520	17.258	1024.049	787.275
68.534	17.307	1023.199	786.781
69.549	17.226	1022.698	785.952
70.563	17.196	1021.856	785.096
71.578	17.123	1020.775	783.861
72.593	17.169	1019.264	782.841
73.607	17.052	1019.556	782.457
74.622	17.057	1019.069	782.037
75.636	17.154	1017.839	781.470
76.651	17.164	1017.399	781.109
77.666	17.194	1016.294	780.330
78.680	17.106	1016.145	779.740
79.695	17.272	1015.550	779.980
80.709	17.416	1015.006	780.153
81.724	17.420	1014.835	779.969
82.739	17.559	1013.971	779.871
83.753	17.686	1013.371	779.924
84.768	18.024	1012.418	780.664
85.782	18.134	1011.355	780.281
86.797	17.905	1010.701	778.660
87.812	17.718	1009.684	776.957
88.826	17.907	1008.377	776.741
89.841	17.835	1007.553	775.710
90.855	17.987	1006.679	775.662
91.870	18.063	1006.065	775.461
92.884	17.925	1005.233	774.126
93.899	17.940	1004.032	773.204
94.914	18.084	1003.613	773.464
95.928	17.964	1002.995	772.374
96.943	18.030	1001.401	771.378
97.957	17.837	1000.774	769.958
98.972	17.854	1000.483	769.742
99.987	17.920	999.103	768.908
101.001	17.935	997.936	768.011
102.016	17.924	997.395	767.476
103.030	18.014	996.629	767.220
104.045	17.875	995.692	765.810
105.060	17.740	994.827	764.471
106.074	17.527	994.092	762.884
107.089	17.545	992.231	761.470
108.103	17.368	991.312	759.908
109.118	17.476	990.277	759.530
110.133	17.316	989.749	758.342
111.147	17.292	989.502	757.976
112.162	17.370	988.551	757.528
113.176	17.372	988.069	757.101
114.191	17.581	987.281	757.360
115.206	17.416	986.709	756.122
116.220	17.393	985.589	755.096
117.235	17.470	984.486	754.523
118.249	17.440	983.594	753.642
119.264	17.390	982.886	752.810
120.279	17.372	982.191	752.133
121.293	17.329	981.260	751.161
122.308	17.256	980.256	750.008
123.322	17.045	979.575	748.489
124.337	17.227	978.050	748.060
125.352	17.221	977.256	747.358
126.366	17.129	975.943	745.885
127.381	17.193	975.077	745.436
128.395	17.224	973.898	744.606
129.410	17.400	973.014	744.634
130.424	17.338	972.592	743.973
131.439	17.444	972.120	744.010
132.454	17.611	971.149	743.932
133.468	17.465	970.803	742.963
134.483	17.564	969.595	742.403
135.497	17.549	968.864	741.713
136.512	17.548	967.918	740.921
137.527	17.526	967.226	740.230
138.541	17.628	966.333	739.921
139.556	17.655	965.879	739.626
140.570	17.871	964.995	739.821
141.585	17.943	963.870	739.206
142.600	17.979	963.210	738.788
143.614	18.154	962.374	738.839
144.629	18.058	962.231	738.247
145.643	18.101	960.863	737.320
146.658	17.877	959.723	735.412
147.673	17.803	958.353	733.981
148.687	17.523	958.108	732.522
149.702	17.504	956.970	731.505
150.716	17.603	955.905	731.052
151.731	17.485	955.733	730.349
152.746	17.607	954.988	730.239
153.760	17.716	954.181	730.027
154.775	17.779	953.866	729.988
155.789	17.746	953.047	729.156
156.804	17.830	951.557	728.310
157.819	17.892	951.462	728.436
158.833	18.084	950.823	728.704
159.848	18.180	950.124	728.511
160.862	17.985	948.989	726.748
161.877	17.712	947.728	724.557
162.892	17.384	947.263	722.742
163.906	17.516	945.937	722.227
164.921	17.528	945.061	721.547
165.935	17.765	944.088	721.745
166.950	17.840	943.514	721.557
167.964	17.684	943.059	720.486
168.979	17.753	941.798	719.750
169.994	17.637	941.251	718.781
171.008	17.866	940.130	718.824
172.023	18.049	939.810	719.288
173.037	18.096	939.012	718.808
174.052	17.932	938.403	717.589
175.067	17.726	937.646	716.084
176.081	17.584	937.086	714.995
177.096	17.675	936.565	714.918
178.110	17.629	936.342	714.491
179.125	17.808	935.397	714.458
180.140	17.822	934.980	714.132
181.154	17.899	934.540	714.055
182.169	18.133	934.082	714.620
183.183	18.048	933.445	713.714
184.198	18.032	932.567	712.916
185.213	17.930	931.912	711.926
186.227	18.135	931.364	712.299
187.242	18.150	931.118	712.108
188.256	18.308	930.241	712.033
189.271	18.390	928.989	711.350
190.286	18.014	928.146	709.082
191.300	17.587	927.367	706.655
192.315	17.652	926.654	706.318
193.329	17.694	926.191	706.075
194.344	17.772	925.765	706.013
195.359	17.900	925.281	706.109
196.373	18.018	924.581	705.999
197.388	18.279	924.186	706.713
198.402	18.302	923.926	706.549
199.417	18.341	923.407	706.249
200.432	18.551	922.649	706.473
201.446	18.561	922.419	706.275
202.461	18.626	921.807	706.012
203.475	18.433	921.303	704.769
204.490	18.351	920.211	703.535
205.504	18.093	919.662	701.994
206.519	18.269	918.746	701.954
207.534	18.232	918.254	701.364
208.548	18.253	917.432	700.759
209.563	18.160	916.992	699.982
210.577	18.328	916.199	700.002
211.592	18.463	915.594	700.027
212.607	18.665	914.415	699.889
213.621	18.433	914.260	698.763
214.636	18.369	913.691	698.003
215.650	18.520	912.836	697.903
216.665	18.621	911.905	697.540
217.680	18.722	911.173	697.330
218.694	18.597	910.814	696.484
219.709	18.548	910.235	695.782
220.723	18.531	909.405	695.017
221.738	18.480	909.007	694.445
222.753	18.613	908.050	694.191
223.767	18.591	907.570	693.673
224.782	18.672	907.304	693.739
225.796	18.777	906.682	693.624
226.811	18.675	905.889	692.546
227.826	18.526	905.175	691.338
228.840	18.377	904.681	690.298
229.855	18.542	903.667	690.127
230.869	18.545	902.714	689.353
231.884	18.581	902.185	689.031
232.899	18.405	901.418	687.677
233.913	18.370	900.843	687.039
234.928	18.252	900.364	686.138
235.942	18.322	899.388	685.612
236.957	18.405	899.111	685.676
237.972	18.326	898.441	684.787
238.986	18.351	897.788	684.328
240.001	18.418	896.901	683.860
241.015	18.560	896.480	684.043
242.030	18.496	895.955	683.327
243.045	18.636	895.593	683.549
244.059	18.574	894.942	682.746
245.074	18.589	894.775	682.615
246.088	18.682	893.928	682.281
247.103	18.826	893.183	682.221
248.117	18.909	893.275	682.562
249.132	19.149	892.521	682.879
250.147	19.382	891.552	682.999
251.161	19.399	891.540	682.997
252.176	19.374	890.644	682.150
253.190	19.608	889.547	682.176
254.205	19.431	889.329	681.249
255.220	19.407	888.694	680.608
256.234	19.315	888.550	680.074
257.249	19.576	887.138	679.959
258.263	19.549	886.399	679.227
259.278	19.355	885.850	677.983
260.293	19.463	885.387	677.994
261.307	19.496	885.049	677.805
262.322	19.803	884.093	678.218
263.336	19.644	883.771	677.287
264.351	19.604	882.602	676.174
265.366	19.733	882.186	676.298
266.380	19.695	881.566	675.615
267.395	19.591	880.597	674.409
268.409	19.496	880.029	673.543
269.424	19.412	879.297	672.594
270.439	19.466	878.093	671.824
271.453	19.261	878.072	670.951
272.468	19.270	877.531	670.514
273.482	19.205	876.724	669.584
274.497	19.251	876.364	669.430
275.512	19.334	875.621	669.125
276.526	19.339	875.231	668.786
277.541	19.433	874.892	668.833
278.555	19.571	874.153	668.744
279.570	19.695	873.819	668.907
280.585	19.684	872.932	668.129
281.599	19.440	872.087	666.481
282.614	19.386	870.972	665.360
283.628	19.450	870.953	665.533
284.643	19.516	869.928	664.947
285.657	19.572	869.359	664.668
286.672	19.628	868.519	664.183
287.687	19.506	868.356	663.530
288.701	19.484	867.739	662.914
289.716	19.556	867.333	662.821
290.730	19.651	866.445	662.448
291.745	19.578	866.040	661.802
292.760	19.811	865.518	662.235
293.774	19.952	864.827	662.189
294.789	19.829	863.903	660.952
295.803	19.796	862.811	659.932
296.818	19.639	862.174	658.787
297.833	19.497	862.048	658.094
298.847	19.757	860.980	658.207
299.862	19.764	860.817	658.054
300.876	19.774	860.153	657.523
301.891	19.888	859.520	657.415
302.906	20.088	859.280	657.934
303.920	20.144	858.845	657.756
304.935	20.206	858.357	657.559
305.949	20.137	857.431	656.530
306.964	20.029	856.813	655.588
307.979	20.018	856.474	655.229
308.993	20.029	855.881	654.761
310.008	20.082	855.380	654.518
311.022	19.984	855.049	653.837
312.037	19.771	854.179	652.312
313.052	19.645	853.253	651.072
314.066	19.670	852.643	650.641
315.081	19.746	851.895	650.302
316.095	19.797	851.426	650.078
317.110	19.755	851.014	649.548
318.125	19.682	850.261	648.638
319.139	19.670	850.297	648.566
320.154	19.718	849.599	648.155
321.168	19.855	849.073	648.211
322.183	19.868	848.640	647.871
323.197	19.849	848.144	647.364
324.212	19.910	847.745	647.232
325.227	19.939	846.582	646.392
326.241	20.001	845.948	646.082
327.256	19.806	845.712	645.119
328.270	19.567	845.256	643.824
329.285	19.779	844.730	644.154
330.300	19.905	843.818	643.871
331.314	20.018	843.402	643.918
332.329	19.919	843.496	643.563
333.343	20.146	842.766	643.792
334.358	20.174	842.312	643.493
335.373	20.199	841.599	642.983
336.387	20.136	841.733	642.797
337.402	20.173	841.943	643.036
338.416	20.198	841.354	642.620
339.431	20.425	840.726	642.926
340.446	20.496	840.468	642.937
341.460	20.506	840.392	642.855
342.475	20.584	839.924	642.728
343.489	20.525	839.236	641.930
344.504	20.828	838.352	642.313
345.519	20.723	838.205	641.757
346.533	20.608	837.548	640.773
347.548	20.375	836.847	639.321
348.562	20.400	836.281	638.925
349.577	20.284	835.582	637.908
350.592	20.247	834.873	637.176
351.606	20.171	834.128	636.272
352.621	20.285	833.325	636.020
353.635	20.304	833.594	636.237
354.650	20.352	832.671	635.655
355.665	20.405	831.950	635.239
356.679	20.312	831.608	634.582
357.694	20.424	830.739	634.273
358.708	20.440	830.142	633.820
359.723	20.574	829.413	633.697
360.738	20.486	829.148	633.116
361.752	20.412	828.788	632.517
362.767	20.699	828.400	633.209
363.781	20.775	827.746	632.930
364.796	20.779	827.173	632.449
365.810	20.901	826.978	632.686
366.825	20.947	826.450	632.396
367.840	21.007	825.920	632.151
368.854	20.861	825.348	631.126
369.869	20.889	824.784	630.742
370.883	20.767	824.116	629.735
371.898	20.911	824.248	630.301
372.913	20.883	823.910	629.884
373.927	20.924	822.885	629.192
374.942	20.897	822.690	628.892
375.956	20.879	822.592	628.695
376.971	21.085	821.795	628.773
377.986	21.304	821.202	629.051
379.000	21.238	820.905	628.532
380.015	21.162	820.255	627.704
381.029	21.222	819.838	627.547
382.044	21.158	819.279	626.833
383.059	21.209	818.632	626.466
384.073	21.136	817.689	625.426
385.088	21.026	817.222	624.622
386.102	20.913	816.753	623.802
387.117	20.836	816.132	622.998
388.132	20.893	815.388	622.577
389.146	21.024	815.067	622.745
390.161	21.235	814.933	623.340
391.175	21.145	814.654	622.750
392.190	21.058	813.735	621.684
393.205	21.022	813.144	621.048
394.219	20.975	813.123	620.811
395.234	20.808	812.749	619.875
396.248	20.809	811.657	618.992
397.263	20.731	811.267	618.362
398.278	20.796	810.653	618.071
399.292	20.870	810.344	618.043
400.307	20.759	809.854	617.219
401.321	20.843	809.742	617.379
402.336	20.963	809.241	617.366
403.350	20.952	809.062	617.137
404.365	21.075	808.721	617.257
405.380	21.146	808.280	617.116
406.394	21.368	807.691	617.395
407.409	21.324	807.400	616.964
408.423	21.482	806.958	617.130
409.438	21.494	806.904	617.077
410.453	21.562	806.153	616.687
411.467	21.723	805.523	616.717
412.482	21.518	805.483	615.910
413.496	21.592	805.185	615.887
414.511	21.585	804.364	615.180
415.526	21.588	803.859	614.750
416.540	21.416	803.777	614.031
417.555	21.585	802.786	613.813
418.569	21.756	802.438	614.092
419.584	21.799	802.076	613.909
420.599	21.732	801.908	613.493
421.613	159.430	1369.579	1790.050
422.628	138.444	1452.286	1790.155
