DTS Sentinel unit serial number:	SN413079Multiplexer serial number:	ORYXHardware model number:	OX4-SRSoftware version number:	ORYX F/W v4.00 Oryx Data Collector v3.7.2.0data status	okinstallation	princeton_trtdifferential loss correction	single-endedforward channel	channel 1reverse channel	N/Adate	2019/09/15time	21:02:35forward acquisition time	60.00reverse acquisition time	0.00gamma	496.2192k internal	0.2328k external	0.2328temperature offset calibration	0.9959default loss term (dB/km)	0.3790temperature slope calibration	1.0000multiplexer offset coefficient	1.0000multiplexer slope coefficient	1.0000fibre end	0.00T internal ref (°C)	31.70T ext. ref 1 (°C)	8.07T ext. ref 2 (°C)	24.35length (m)	temperature (°C)	Stokes	anti-Stokes-747.200	420.085	-0.135	0.292
-746.185	-155.456	-0.372	0.024
-745.171	2.291	0.308	0.225
-744.156	8.055	-0.197	0.149
-743.142	-70.320	0.162	0.062
-742.127	22.064	-0.215	-0.177
-741.112	66.870	-0.088	-0.090
-740.098	34.765	0.120	0.106
-739.083	191.290	0.204	-0.310
-738.069	422.675	0.075	0.162
-737.054	352.073	0.127	0.254
-736.039	-149.802	-0.474	0.037
-735.025	-81.078	0.231	0.077
-734.010	-200.000	-0.024	-0.128
-732.996	150.234	-0.089	-0.121
-731.981	89.971	0.197	0.222
-730.966	205.862	0.034	-0.053
-729.952	800.000	-0.097	-0.422
-728.937	-145.340	-0.345	0.031
-727.923	244.876	-0.194	-0.328
-726.908	-4.727	-0.127	-0.089
-725.894	580.679	-0.056	-0.138
-724.879	487.564	0.033	-0.076
-723.864	456.339	0.029	0.064
-722.850	800.000	-0.018	-0.078
-721.835	-138.457	-0.386	0.043
-720.821	367.650	-0.109	-0.223
-719.806	777.964	-0.103	-0.284
-718.791	227.349	-0.128	-0.209
-717.777	-166.549	-0.067	-0.003
-716.762	-155.178	-0.257	-0.017
-715.748	800.000	-0.080	0.227
-714.733	-23.320	-0.063	0.038
-713.718	-171.558	0.108	0.004
-712.704	33.919	0.110	0.096
-711.689	-7.365	-0.088	0.060
-710.675	23.636	0.188	0.156
-709.660	172.585	-0.198	0.287
-708.645	365.922	0.131	-0.266
-707.631	-13.999	-0.449	-0.292
-706.616	94.647	-0.139	-0.158
-705.602	245.299	-0.132	-0.223
-704.587	800.000	0.040	-0.146
-703.572	-125.837	0.696	-0.106
-702.558	800.000	0.059	-0.251
-701.543	-121.946	0.099	-0.016
-700.529	-200.000	-0.014	-0.451
-699.514	86.300	-0.117	0.130
-698.499	470.206	-0.055	0.124
-697.485	-86.045	-0.214	0.066
-696.470	-20.952	-0.249	0.154
-695.456	-6.662	-0.268	0.183
-694.441	800.000	-0.151	-0.433
-693.426	424.788	0.017	0.036
-692.412	-69.614	0.146	0.056
-691.397	-200.000	0.028	0.148
-690.383	-36.568	0.316	0.171
-689.368	256.065	0.148	-0.255
-688.354	254.388	-0.018	-0.031
-687.339	-7.630	-0.142	-0.097
-686.324	-157.629	0.348	-0.021
-685.310	26.369	0.075	-0.063
-684.295	-200.000	-0.324	-0.000
-683.281	78.434	-0.048	-0.052
-682.266	-200.000	-0.008	-0.147
-681.251	-111.522	-0.286	0.058
-680.237	-87.928	0.080	-0.024
-679.222	-114.712	0.084	-0.016
-678.208	141.659	-0.081	0.108
-677.193	-114.908	0.352	0.067
-676.178	-151.329	-0.091	-0.007
-675.164	43.219	-0.330	-0.303
-674.149	-200.000	-0.001	-0.236
-673.135	140.816	-0.101	-0.135
-672.120	-59.081	0.129	0.056
-671.105	-5.482	-0.062	-0.043
-670.091	-24.919	0.225	-0.134
-669.076	96.637	0.153	0.176
-668.062	16.248	0.229	0.181
-667.047	132.376	-0.117	0.152
-666.032	-200.000	-0.034	0.365
-665.018	-25.647	0.011	-0.006
-664.003	-79.378	-0.117	-0.040
-662.989	162.899	0.139	-0.196
-661.974	-47.191	-0.107	0.052
-660.959	48.049	0.220	-0.207
-659.945	15.041	-0.077	0.060
-658.930	489.655	-0.093	-0.213
-657.916	-200.000	-0.061	0.441
-656.901	584.254	0.092	-0.228
-655.886	800.000	-0.041	0.124
-654.872	-200.000	-0.013	0.161
-653.857	-117.239	0.117	-0.021
-652.843	35.141	0.253	-0.223
-651.828	-69.595	-0.296	0.114
-650.814	800.000	-0.030	0.084
-649.799	711.726	-0.088	-0.235
-648.784	-200.000	-0.032	0.360
-647.770	294.661	-0.188	-0.346
-646.755	218.806	-0.136	0.219
-645.741	-129.532	0.148	-0.021
-644.726	28.374	0.235	-0.199
-643.711	-2.487	-0.262	-0.184
-642.697	8.317	-0.467	-0.352
-641.682	190.528	0.153	0.231
-640.668	417.239	-0.160	0.343
-639.653	-103.939	-0.156	-0.037
-638.638	1.693	-0.255	-0.184
-637.624	-135.382	0.226	-0.027
-636.609	-200.000	0.018	-0.175
-635.595	-135.854	-0.163	-0.019
-634.580	72.882	-0.130	-0.136
-633.565	-2.836	0.131	-0.092
-632.551	142.797	-0.069	-0.093
-631.536	43.194	-0.193	0.177
-630.522	-139.805	0.175	0.019
-629.507	-61.262	0.039	-0.016
-628.492	193.827	-0.039	0.059
-627.478	-90.717	0.259	0.075
-626.463	-141.130	0.179	-0.018
-625.449	-135.985	-0.304	0.036
-624.434	23.215	0.069	-0.057
-623.419	-108.090	-0.345	0.075
-622.405	25.886	-0.190	-0.159
-621.390	-11.295	-0.078	-0.051
-620.376	-60.985	-0.159	-0.067
-619.361	584.176	-0.033	0.082
-618.346	324.363	0.101	-0.194
-617.332	-94.632	0.321	0.088
-616.317	-104.496	-0.411	-0.095
-615.303	374.088	0.104	0.212
-614.288	161.401	0.024	0.034
-613.273	169.983	-0.159	-0.228
-612.259	-200.000	0.008	0.279
-611.244	-200.000	-0.019	0.219
-610.230	-104.423	0.219	-0.051
-609.215	-73.230	0.049	-0.018
-608.201	-47.920	0.180	0.088
-607.186	188.428	0.040	0.060
-606.171	-155.490	0.121	-0.008
-605.157	-200.000	-0.009	-0.063
-604.142	-158.891	0.177	-0.010
-603.128	-20.936	-0.240	-0.148
-602.113	-38.258	0.140	-0.074
-601.098	-83.119	0.107	-0.035
-600.084	101.583	0.149	-0.174
-599.069	24.670	-0.242	0.201
-598.055	-67.745	-0.076	-0.030
-597.040	-6.202	-0.202	0.138
-596.025	-80.444	0.250	0.084
-595.011	-88.868	0.185	0.055
-593.996	-56.781	-0.142	0.063
-592.982	-72.334	-0.281	-0.104
-591.967	800.000	0.050	0.171
-590.952	-200.000	0.103	0.472
-589.938	302.731	-0.140	0.260
-588.923	-75.778	0.184	-0.065
-587.909	108.924	0.035	0.042
-586.894	-115.642	0.076	-0.014
-585.879	-110.190	0.239	0.050
-584.865	800.000	-0.122	0.400
-583.850	800.000	-0.045	-0.181
-582.836	102.927	0.083	-0.097
-581.821	0.884	-0.212	-0.152
-580.806	312.950	0.030	0.057
-579.792	-16.125	0.135	-0.086
-578.777	-80.890	0.207	0.069
-577.763	121.944	-0.139	-0.173
-576.748	-54.252	-0.334	-0.152
-575.733	-59.064	-0.126	0.055
-574.719	-200.000	-0.001	-0.221
-573.704	-123.371	0.229	-0.037
-572.690	-37.749	-0.124	0.066
-571.675	50.822	-0.212	-0.201
-570.661	-21.417	-0.336	0.205
-569.646	229.866	-0.191	-0.313
-568.631	130.842	-0.266	-0.342
-567.617	131.542	-0.097	0.124
-566.602	-174.198	-0.218	-0.006
-565.588	283.530	-0.165	-0.296
-564.573	-200.000	0.009	0.104
-563.558	-200.000	-0.003	0.082
-562.544	-33.634	0.328	-0.181
-561.529	-55.555	0.333	-0.149
-560.515	80.962	-0.123	0.132
-559.500	-134.856	-0.404	-0.049
-558.485	-108.609	-0.190	0.041
-557.471	24.057	-0.205	0.169
-556.456	-200.000	0.037	0.502
-555.442	-90.915	0.371	0.107
-554.427	800.000	0.029	-0.125
-553.412	-1.336	0.226	-0.160
-552.398	800.000	0.123	-0.448
-551.383	37.616	0.268	0.238
-550.369	-77.191	-0.169	0.059
-549.354	24.097	-0.254	-0.209
-548.339	-200.000	0.038	-0.202
-547.325	-200.000	-0.057	0.276
-546.310	21.199	0.214	0.174
-545.296	99.538	0.094	-0.109
-544.281	125.108	-0.118	-0.148
-543.266	193.999	-0.108	-0.164
-542.252	-83.736	0.357	0.114
-541.237	-18.585	0.256	-0.160
-540.223	-200.000	0.027	-0.195
-539.208	131.047	-0.084	0.108
-538.193	41.500	-0.182	0.164
-537.179	730.520	-0.080	0.213
-536.164	143.491	0.106	-0.142
-535.150	800.000	-0.090	-0.342
-534.135	265.186	0.097	0.169
-533.121	319.138	0.124	-0.235
-532.106	61.201	-0.096	-0.095
-531.091	-200.000	-0.028	-0.437
-530.077	159.474	-0.053	0.073
-529.062	-200.000	-0.013	0.199
-528.048	74.227	-0.088	-0.093
-527.033	48.461	0.209	0.196
-526.018	-100.043	0.243	0.060
-525.004	65.583	0.287	0.290
-523.989	332.691	-0.091	-0.176
-522.975	28.155	-0.064	0.054
-521.960	-126.105	0.227	0.034
-520.945	-200.000	0.046	-0.242
-519.931	-200.000	-0.013	0.205
-518.916	21.274	0.196	0.159
-517.902	63.005	0.305	0.305
-516.887	367.873	0.019	-0.038
-515.872	-143.479	-0.108	0.010
-514.858	201.753	0.091	0.141
-513.843	-84.875	0.099	-0.031
-512.829	-200.000	0.004	0.120
-511.814	-54.696	0.283	-0.128
-510.799	-200.000	-0.006	-0.086
-509.785	-20.908	0.181	-0.111
-508.770	-81.851	0.466	0.152
-507.756	41.443	-0.103	-0.093
-506.741	114.134	0.190	-0.231
-505.726	27.111	-0.192	-0.161
-504.712	247.045	-0.026	0.043
-503.697	-80.712	0.123	-0.041
-502.683	-69.898	-0.098	-0.037
-501.668	7.714	-0.167	-0.125
-500.653	-59.231	0.252	0.108
-499.639	263.462	0.086	-0.148
-498.624	-200.000	-0.014	-0.208
-497.610	174.080	-0.169	-0.243
-496.595	-200.000	0.017	-0.078
-495.581	9.765	0.313	0.237
-494.566	800.000	0.041	-0.132
-493.551	76.637	0.101	0.106
-492.537	8.330	0.321	-0.241
-491.522	800.000	-0.089	-0.372
-490.508	-188.914	0.272	0.003
-489.493	800.000	-0.065	0.223
-488.478	-97.437	0.284	-0.074
-487.464	529.683	0.096	-0.225
-486.449	-117.806	-0.160	0.029
-485.435	194.325	0.105	0.159
-484.420	800.000	0.128	0.431
-483.405	63.784	-0.405	-0.406
-482.391	-109.880	0.239	0.050
-481.376	-200.000	0.103	-0.622
-480.362	-14.706	-0.434	0.278
-479.347	59.830	-0.050	0.049
-478.332	-125.625	0.214	0.032
-477.318	-49.669	0.192	-0.091
-476.303	-97.679	-0.413	0.107
-475.289	-1.074	-0.186	0.131
-474.274	-14.562	-0.371	0.238
-473.259	153.949	0.243	-0.332
-472.245	-200.000	0.021	-0.097
-471.230	103.259	-0.040	-0.047
-470.216	5.262	-0.409	-0.301
-469.201	-200.000	-0.003	-0.203
-468.186	36.421	-0.178	0.157
-467.172	412.543	0.100	0.212
-466.157	364.813	-0.136	-0.272
-465.143	-200.000	0.037	0.188
-464.128	572.504	0.066	0.160
-463.113	-2.877	-0.115	0.080
-462.099	-85.856	-0.390	-0.120
-461.084	437.300	-0.071	-0.154
-460.070	-200.000	0.016	-0.376
-459.055	-200.000	0.047	-0.329
-458.040	-200.000	0.034	-0.179
-457.026	140.209	-0.066	0.086
-456.011	-200.000	-0.007	0.067
-454.997	-138.343	-0.247	0.027
-453.982	-70.132	0.116	-0.044
-452.968	-47.088	-0.085	0.041
-451.953	-13.616	-0.180	-0.116
-450.938	-40.989	0.098	0.051
-449.924	156.579	-0.111	0.153
-448.909	506.339	0.253	-0.584
-447.895	91.948	-0.038	0.043
-446.880	0.124	0.173	-0.123
-445.865	-192.888	0.398	0.004
-444.851	-200.000	0.059	-0.277
-443.836	9.559	-0.387	-0.292
-442.822	-200.000	-0.010	-0.233
-441.807	-177.484	0.230	-0.006
-440.792	256.965	-0.118	0.202
-439.778	427.027	-0.120	0.257
-438.763	800.000	0.044	-0.152
-437.749	767.095	0.055	-0.150
-436.734	-200.000	-0.018	-0.251
-435.719	449.891	-0.152	-0.334
-434.705	-157.734	0.116	0.007
-433.690	-108.480	-0.387	-0.083
-432.676	332.240	-0.131	0.251
-431.661	-107.670	-0.094	-0.020
-430.646	171.342	0.207	-0.296
-429.632	-200.000	-0.037	-0.483
-428.617	-116.705	0.127	-0.023
-427.603	344.219	-0.092	0.179
-426.588	-153.686	0.160	-0.011
-425.573	67.652	0.189	-0.193
-424.559	-153.765	0.269	-0.018
-423.544	-75.188	-0.213	0.076
-422.530	51.321	0.320	0.302
-421.515	-95.840	0.263	-0.070
-420.500	-192.619	-0.141	-0.001
-419.486	721.971	0.150	0.398
-418.471	-56.135	0.199	0.088
-417.457	800.000	-0.069	-0.274
-416.442	-17.271	-0.280	-0.176
-415.428	137.024	-0.100	-0.130
-414.413	27.923	0.123	0.103
-413.398	-200.000	-0.015	-0.077
-412.384	22.807	0.064	0.052
-411.369	-200.000	0.044	0.222
-410.355	71.348	-0.197	0.203
-409.340	-73.522	-0.132	-0.048
-408.325	-200.000	0.003	0.021
-407.311	-126.344	-0.369	-0.055
-406.296	-151.176	0.217	-0.016
-405.282	577.315	-0.056	-0.135
-404.267	-185.611	0.249	0.004
-403.252	-23.038	-0.168	-0.101
-402.238	165.136	-0.128	0.180
-401.223	800.000	-0.064	0.255
-400.209	179.055	0.139	0.202
-399.194	800.000	0.047	0.172
-398.179	194.820	0.121	-0.183
-397.165	37.804	0.055	0.048
-396.150	-200.000	0.015	0.194
-395.136	111.282	-0.192	-0.230
-394.121	-200.000	-0.048	0.217
-393.106	800.000	0.007	-0.028
-392.092	-200.000	-0.009	-0.070
-391.077	189.016	0.117	-0.175
-390.063	72.235	-0.086	-0.089
-389.048	-82.345	-0.100	-0.032
-388.033	-24.908	0.293	-0.173
-387.019	-128.562	0.228	-0.032
-386.004	206.614	0.080	-0.123
-384.990	42.758	-0.211	0.191
-383.975	-141.192	0.263	0.027
-382.960	-107.084	0.227	-0.050
-381.946	-66.008	-0.366	-0.145
-380.931	-66.375	-0.106	0.042
-379.917	-200.000	0.041	-0.219
-378.902	-72.181	0.177	0.065
-377.888	800.000	-0.035	0.137
-376.873	-62.145	0.204	0.085
-375.858	46.926	0.188	0.173
-374.844	800.000	-0.023	0.065
-373.829	289.532	-0.174	0.314
-372.815	121.342	-0.144	-0.178
-371.800	1.961	-0.135	0.097
-370.785	-70.584	-0.055	0.021
-369.771	-81.738	-0.351	-0.114
-368.756	-176.725	0.435	0.011
-367.742	-109.227	0.230	-0.049
-366.727	87.755	-0.109	0.120
-365.712	800.000	-0.043	-0.128
-364.698	354.124	-0.226	-0.447
-363.683	-125.714	0.103	0.015
-362.669	-200.000	-0.008	-0.063
-361.654	-23.888	0.016	-0.010
-360.639	267.906	0.053	0.092
-359.625	37.005	0.232	-0.204
-358.610	800.000	0.023	0.076
-357.596	-199.831	-0.126	0.001
-356.581	-104.333	0.032	-0.007
-355.566	-9.718	-0.294	0.194
-354.552	-200.000	0.087	0.552
-353.537	134.982	-0.244	0.315
-352.523	800.000	0.024	0.074
-351.508	-200.000	-0.011	-0.104
-350.493	-6.582	-0.058	0.040
-349.479	79.098	-0.156	-0.166
-348.464	-164.308	0.352	-0.016
-347.450	270.087	0.036	-0.062
-346.435	-47.232	0.187	-0.090
-345.420	-102.085	-0.296	-0.071
-344.406	-171.305	0.246	0.008
-343.391	-146.433	-0.301	0.026
-342.377	157.127	0.130	0.178
-341.362	3.524	-0.125	0.091
-340.348	98.436	0.104	0.119
-339.333	107.027	0.077	-0.091
-338.318	-160.100	0.119	0.006
-337.304	0.573	0.358	-0.254
-336.289	228.637	0.081	0.131
-335.275	3.963	0.220	0.159
-334.260	-118.018	-0.014	0.003
-333.245	-99.605	-0.171	0.043
-332.231	109.612	-0.054	0.064
-331.216	788.377	-0.119	0.324
-330.202	-200.000	0.007	0.303
-329.187	-91.637	-0.081	0.023
-328.172	43.797	0.199	-0.181
-327.158	12.401	-0.166	0.127
-326.143	162.150	-0.158	0.220
-325.129	-141.144	0.284	-0.029
-324.114	-114.001	-0.067	-0.013
-323.099	160.754	-0.275	0.381
-322.085	96.916	0.123	-0.139
-321.070	279.264	0.100	-0.177
-320.056	18.348	0.210	-0.166
-319.041	31.250	-0.211	0.180
-318.026	95.634	0.095	-0.107
-317.012	-29.323	-0.167	-0.095
-315.997	-161.296	-0.474	0.024
-314.983	-21.914	0.179	0.108
-313.968	716.928	-0.043	0.114
-312.953	-200.000	0.015	0.177
-311.939	233.271	0.102	0.166
-310.924	-200.000	0.007	-0.143
-309.910	138.354	-0.090	-0.117
-308.895	59.702	0.229	0.224
-307.880	49.086	0.161	0.150
-306.866	-47.258	-0.222	0.107
-305.851	-78.861	-0.299	-0.101
-304.837	-200.000	-0.027	-0.344
-303.822	356.063	0.040	0.079
-302.807	27.902	0.148	-0.123
-301.793	-110.202	-0.175	-0.036
-300.778	800.000	0.057	-0.195
-299.764	284.050	0.212	0.378
-298.749	-187.356	-0.092	0.001
-297.735	265.436	-0.242	0.418
-296.720	-200.000	-0.010	-0.179
-295.705	20.019	-0.279	-0.223
-294.691	-42.391	0.139	-0.070
-293.676	-200.000	-0.032	0.257
-292.662	38.288	-0.179	-0.158
-291.647	-161.597	-0.108	-0.005
-290.632	492.703	0.068	0.155
-289.618	-46.876	0.138	-0.067
-288.603	799.771	-0.094	-0.256
-287.589	-200.000	0.028	0.279
-286.574	407.289	0.118	0.246
-285.559	-169.358	0.065	-0.002
-284.545	-200.000	-0.072	-0.346
-283.530	800.000	-0.117	-0.384
-282.516	-138.941	0.275	-0.030
-281.501	-200.000	-0.002	0.175
-280.486	-124.853	-0.373	-0.057
-279.472	201.835	0.072	-0.110
-278.457	-200.000	0.015	0.137
-277.443	-43.983	-0.234	-0.117
-276.428	-32.620	0.199	0.110
-275.413	127.970	0.081	0.102
-274.399	192.286	-0.112	-0.167
-273.384	800.000	0.067	0.220
-272.370	-200.000	-0.054	0.252
-271.355	800.000	0.014	-0.042
-270.340	-134.685	-0.461	-0.056
-269.326	607.727	-0.126	0.312
-268.311	-72.978	0.232	-0.084
-267.297	310.891	-0.161	0.299
-266.282	37.815	-0.065	0.057
-265.267	-200.000	0.001	-0.079
-264.253	-134.452	-0.397	0.048
-263.238	-200.000	0.002	-0.145
-262.224	-200.000	-0.043	0.188
-261.209	-0.560	0.194	-0.136
-260.195	-84.494	-0.334	-0.104
-259.180	-200.000	0.008	0.166
-258.165	800.000	0.041	-0.162
-257.151	-200.000	-0.006	0.218
-256.136	-99.181	0.371	-0.093
-255.122	-54.520	-0.357	-0.160
-254.107	-69.894	-0.078	0.030
-253.092	800.000	0.071	0.213
-252.078	800.000	-0.042	-0.140
-251.063	-105.038	-0.176	-0.040
-250.049	800.000	0.021	0.070
-249.034	25.661	0.295	0.243
-248.019	-200.000	0.038	0.188
-247.005	800.000	-0.051	-0.183
-245.990	-200.000	0.007	0.164
-244.976	-200.000	0.004	-0.248
-243.961	85.531	-0.145	0.158
-242.946	-44.715	0.033	0.016
-241.932	-129.771	0.345	0.047
-240.917	79.755	0.232	0.247
-239.903	-173.312	-0.355	-0.011
-238.888	168.389	-0.209	0.294
-237.873	-150.133	0.127	-0.010
-236.859	50.644	-0.094	-0.088
-235.844	99.217	0.191	0.218
-234.830	117.943	-0.201	0.244
-233.815	-32.016	-0.091	0.051
-232.800	-200.000	0.033	0.228
-231.786	-142.391	-0.333	0.032
-230.771	13.895	0.359	-0.276
-229.757	360.954	0.114	0.225
-228.742	-36.552	-0.138	0.074
-227.727	91.435	-0.244	-0.271
-226.713	-43.923	-0.192	0.095
-225.698	-74.326	-0.322	0.115
-224.684	21.223	0.302	0.242
-223.669	334.092	-0.151	0.289
-222.655	-200.000	0.014	-0.181
-221.640	113.836	0.082	-0.099
-220.625	207.121	-0.118	0.182
-219.611	-200.000	-0.005	0.175
-218.596	311.224	-0.179	-0.331
-217.582	65.726	0.228	0.228
-216.567	-200.000	-0.006	-0.081
-215.552	100.056	0.120	0.137
-214.538	-178.626	0.354	0.008
-213.523	800.000	-0.074	-0.236
-212.509	45.222	-0.203	0.185
-211.494	123.085	0.074	0.091
-210.479	89.839	0.134	-0.148
-209.465	36.292	0.144	0.126
-208.450	-200.000	-0.039	-0.220
-207.436	116.071	-0.091	0.110
-206.421	125.255	-0.125	-0.155
-205.406	162.362	-0.140	0.193
-204.392	75.834	-0.107	-0.112
-203.377	-200.000	-0.077	-0.451
-202.363	13.869	-0.212	0.163
-201.348	-68.597	0.049	-0.019
-200.333	291.576	-0.145	-0.261
-199.319	9.742	0.223	-0.167
-198.304	167.091	-0.062	-0.087
-197.290	-200.000	-0.038	-0.246
-196.275	-200.000	-0.004	-0.066
-195.260	-200.000	0.019	0.133
-194.246	-200.000	0.019	-0.103
-193.231	-200.000	0.010	0.189
-192.217	-2.381	0.208	0.144
-191.202	-132.296	-0.128	0.016
-190.187	61.286	0.189	-0.186
-189.173	618.062	-0.039	0.095
-188.158	196.771	-0.212	0.319
-187.144	178.842	0.101	0.145
-186.129	800.000	0.055	-0.172
-185.114	-195.595	0.202	-0.001
-184.100	5.409	0.130	-0.095
-183.085	507.108	0.044	0.100
-182.071	800.000	-0.038	0.161
-181.056	-182.170	0.428	0.008
-180.042	330.100	0.124	0.235
-179.027	387.534	0.029	-0.059
-178.012	-53.356	0.241	-0.109
-176.998	-191.824	0.296	0.003
-175.983	-41.268	0.276	-0.140
-174.969	456.608	0.064	-0.139
-173.954	-200.000	-0.033	0.187
-172.939	-200.000	0.027	0.399
-171.925	725.090	-0.105	-0.277
-170.910	166.204	-0.156	0.217
-169.896	-91.908	0.149	0.042
-168.881	-200.000	0.056	-0.384
-167.866	800.000	-0.093	0.369
-166.852	139.674	-0.069	-0.089
-165.837	447.100	0.060	0.130
-164.823	-88.755	0.538	0.158
-163.808	66.842	-0.116	0.116
-162.793	169.894	0.135	0.190
-161.779	-200.000	0.014	-0.078
-160.764	63.831	-0.068	-0.067
-159.750	800.000	-0.042	0.128
-158.735	-51.125	0.255	0.118
-157.720	-7.289	0.109	0.073
-156.706	-200.000	-0.054	0.290
-155.691	115.012	-0.105	-0.127
-154.677	32.645	-0.154	0.132
-153.662	29.755	0.168	0.141
-152.647	-26.672	-0.177	-0.102
-151.633	800.000	0.092	-0.272
-150.618	-200.000	0.000	0.040
-149.604	-200.000	-0.005	0.024
-148.589	-200.000	0.022	-0.113
-147.574	800.000	0.084	-0.295
-146.560	-128.188	-0.222	0.031
-145.545	72.361	-0.217	-0.223
-144.531	130.680	0.154	0.195
-143.516	-129.618	-0.211	0.029
-142.502	800.000	0.056	-0.235
-141.487	-37.586	0.124	-0.065
-140.472	-200.000	-0.017	0.205
-139.458	-200.000	-0.081	-0.464
-138.443	96.596	-0.233	-0.263
-137.429	800.000	0.137	-0.496
-136.414	800.000	0.109	-0.438
-135.399	-3.133	-0.103	-0.071
-134.385	-117.416	-0.288	-0.051
-133.370	-6.605	0.257	0.172
-132.356	-86.776	-0.357	-0.107
-131.341	-28.208	0.182	-0.104
-130.326	800.000	-0.062	-0.265
-129.312	-99.840	0.229	-0.056
-128.297	-17.953	0.132	0.081
-127.283	177.875	-0.161	0.232
-126.268	-107.085	-0.075	-0.016
-125.253	-128.549	-0.211	0.029
-124.239	-24.701	-0.065	0.038
-123.224	385.281	0.048	-0.098
-122.210	-139.077	0.334	0.036
-121.195	174.873	0.153	0.219
-120.180	733.063	-0.039	-0.103
-119.166	800.000	-0.076	0.268
-118.151	-46.009	0.055	-0.027
-117.137	766.247	0.202	-0.541
-116.122	392.207	-0.034	-0.069
-115.107	-62.665	0.312	-0.127
-114.093	-192.310	-0.164	0.002
-113.078	-91.505	0.233	0.065
-112.064	237.483	-0.016	-0.026
-111.049	-159.753	-0.173	0.009
-110.034	-15.023	0.295	-0.186
-109.020	213.429	0.052	-0.082
-108.005	225.004	-0.166	-0.265
-106.991	800.000	0.029	-0.089
-105.976	353.693	-0.088	0.171
-104.962	-140.157	-0.327	0.034
-103.947	631.207	0.036	0.090
-102.932	226.334	-0.176	-0.280
-101.918	59.847	-0.124	-0.120
-100.903	-41.788	-0.155	-0.078
-99.889	-107.756	0.076	0.016
-98.874	-200.000	0.002	-0.079
-97.859	-200.000	-0.048	-0.429
-96.845	-133.905	-0.319	0.039
-95.830	119.495	0.221	0.269
-94.816	-5.674	-0.087	-0.059
-93.801	225.431	0.225	-0.358
-92.786	-53.150	0.258	-0.117
-91.772	-200.000	-0.029	-0.184
-90.757	70.656	0.008	0.008
-89.743	108.335	-0.133	-0.156
-88.728	-67.277	-0.141	-0.055
-87.713	28.968	-0.233	-0.194
-86.699	-200.000	0.032	0.203
-85.684	-47.362	0.058	0.028
-84.670	161.810	-0.138	0.189
-83.655	-200.000	0.014	0.122
-82.640	165.013	-0.130	0.181
-81.626	-143.261	0.322	-0.030
-80.611	139.630	-0.147	0.190
-79.597	-135.601	-0.296	0.035
-78.582	40.755	0.037	-0.033
-77.567	-120.301	-0.135	0.023
-76.553	800.000	0.033	0.140
-75.538	800.000	-0.032	-0.112
-74.524	-200.000	0.016	-0.155
-73.509	-87.608	0.116	0.034
-72.494	-200.000	0.013	0.264
-71.480	-53.322	-0.260	0.117
-70.465	-200.000	-0.004	-0.017
-69.451	-200.000	-0.014	-0.295
-68.436	111.053	0.092	-0.109
-67.422	23.335	-0.225	-0.181
-66.407	-15.596	-0.204	0.128
-65.392	19.120	0.111	0.088
-64.378	257.076	0.254	0.428
-63.363	23.753	-0.154	0.125
-62.349	56.238	-0.012	-0.012
-61.334	-7.786	-1.240	-0.822
-60.319	800.000	0.171	0.512
-59.305	800.000	-0.305	-1.276
-58.290	362.064	0.563	1.108
-57.276	-200.000	0.233	1.601
-56.261	-200.000	97.927	576.272
-55.246	509.882	1399.798	3192.975
-54.232	160.032	2567.198	3509.924
-53.217	111.345	2128.600	2517.209
-52.203	43.285	1589.348	1423.888
-51.188	35.226	1328.481	1142.341
-50.173	32.135	1286.742	1088.527
-49.159	54.627	1336.467	1263.944
-48.144	56.614	1354.017	1292.225
-47.130	35.419	1310.944	1128.218
-46.115	32.068	1292.771	1093.061
-45.100	31.701	1288.818	1087.545
-44.086	31.558	1286.922	1085.077
-43.071	31.641	1284.109	1083.143
-42.057	31.618	1281.795	1081.015
-41.042	31.566	1280.582	1079.645
-40.027	31.581	1279.127	1078.465
-39.013	31.603	1276.850	1076.629
-37.998	31.627	1275.042	1075.199
-36.984	31.599	1273.511	1073.706
-35.969	31.823	1271.237	1073.027
-34.954	31.707	1269.911	1071.204
-33.940	31.832	1268.636	1070.801
-32.925	31.745	1267.245	1069.083
-31.911	31.793	1266.242	1068.469
-30.896	31.834	1264.543	1067.228
-29.881	31.941	1262.965	1066.461
-28.867	31.896	1261.864	1065.234
-27.852	31.869	1260.425	1063.822
-26.838	31.888	1258.741	1062.467
-25.823	31.838	1257.397	1061.008
-24.809	31.642	1256.235	1058.879
-23.794	31.785	1254.748	1058.388
-22.779	31.754	1253.714	1057.303
-21.765	31.641	1252.772	1055.826
-20.750	31.840	1250.670	1055.133
-19.736	31.689	1250.022	1053.694
-18.721	31.713	1248.486	1052.493
-17.706	31.599	1247.299	1050.810
-16.692	31.790	1246.219	1050.932
-15.677	31.705	1245.414	1049.735
-14.663	31.602	1244.196	1048.089
-13.648	31.637	1243.562	1047.710
-12.633	31.627	1242.325	1046.570
-11.619	31.536	1241.839	1045.608
-10.604	31.654	1240.454	1045.065
-9.590	31.569	1239.835	1044.024
-8.575	31.583	1238.826	1043.213
-7.560	31.558	1238.167	1042.475
-6.546	31.641	1237.019	1041.931
-5.531	31.568	1236.164	1040.763
-4.517	31.647	1235.514	1040.614
-3.502	31.684	1234.361	1039.807
-2.487	31.695	1233.447	1039.054
-1.473	31.633	1229.293	1035.170
-0.458	29.777	1213.630	1011.796
0.556	23.743	1195.384	969.336
1.571	19.451	1199.339	948.910
2.586	18.399	1213.488	954.164
3.600	18.105	1203.334	944.468
4.615	15.669	1137.205	879.757
5.629	10.781	1068.858	802.708
6.644	8.212	1051.147	776.842
7.659	8.080	1048.648	774.286
8.673	8.004	1047.073	772.686
9.688	7.975	1045.922	771.629
10.702	8.222	1044.495	771.703
11.717	11.252	1048.182	789.046
12.731	15.862	1053.742	815.546
13.746	17.745	1055.825	826.217
14.761	17.315	1054.997	823.414
15.775	16.307	1052.823	816.772
16.790	15.187	1051.012	809.883
17.804	14.481	1049.252	805.046
18.819	14.110	1047.887	802.137
19.834	13.890	1047.028	800.348
20.848	13.702	1046.001	798.589
21.863	13.415	1045.372	796.657
22.877	13.381	1044.291	795.600
23.892	13.253	1044.096	794.763
24.907	13.250	1043.059	793.889
25.921	13.252	1042.138	793.130
26.936	13.450	1040.402	792.687
27.950	13.304	1039.814	791.467
28.965	13.433	1037.968	790.607
29.980	13.436	1036.730	789.612
30.994	13.561	1035.494	789.195
32.009	13.600	1034.156	788.290
33.023	13.475	1033.106	786.829
34.038	13.529	1032.124	786.267
35.053	13.428	1031.295	785.084
36.067	13.419	1030.318	784.230
37.082	13.409	1029.664	783.615
38.096	13.468	1029.055	783.363
39.111	13.398	1028.480	782.525
40.126	13.330	1027.077	781.066
41.140	13.233	1026.220	779.886
42.155	13.201	1024.782	778.575
43.169	13.226	1023.630	777.746
44.184	13.206	1022.544	776.761
45.199	13.287	1021.296	776.124
46.213	13.221	1020.759	775.339
47.228	13.305	1019.708	774.864
48.242	13.409	1018.272	774.191
49.257	13.398	1017.179	773.241
50.271	13.419	1016.755	772.949
51.286	13.324	1015.972	771.840
52.301	13.329	1014.951	771.021
53.315	13.300	1014.076	770.150
54.330	13.297	1012.601	768.950
55.344	13.220	1012.136	768.171
56.359	13.175	1011.559	767.456
57.374	13.271	1010.238	766.830
58.388	13.296	1009.006	765.945
59.403	13.222	1008.410	765.083
60.417	13.211	1007.422	764.213
61.432	13.145	1006.565	763.192
62.447	13.098	1006.289	762.695
63.461	13.104	1005.177	761.814
64.476	13.160	1004.566	761.543
65.490	13.106	1003.863	760.695
66.505	13.082	1003.127	759.955
67.520	13.217	1002.244	759.843
68.534	13.258	1001.663	759.522
69.549	13.179	1000.863	758.488
70.563	13.248	999.862	757.979
71.578	13.132	999.377	757.008
72.593	13.084	998.416	755.997
73.607	13.019	998.364	755.591
74.622	12.909	997.699	754.519
75.636	13.077	996.506	754.318
76.651	13.067	996.276	754.030
77.666	13.123	995.158	753.372
78.680	13.248	994.448	753.338
79.695	13.143	993.762	752.273
80.709	13.212	993.640	752.427
81.724	13.182	992.774	751.569
82.739	13.292	992.247	751.603
83.753	13.452	991.183	751.457
84.768	13.480	990.285	750.837
85.782	13.637	989.284	750.723
86.797	13.495	988.819	749.661
87.812	13.454	987.343	748.293
88.826	13.334	986.780	747.258
89.841	13.284	986.300	746.603
90.855	13.402	985.277	746.292
91.870	13.508	984.144	745.847
92.884	13.404	983.610	744.909
93.899	13.611	982.141	744.660
94.914	13.551	981.709	743.998
95.928	13.507	981.136	743.300
96.943	13.453	979.970	742.106
97.957	13.436	979.516	741.624
98.972	13.523	978.257	740.991
99.987	13.439	977.364	739.873
101.001	13.553	976.570	739.719
102.016	13.508	975.646	738.752
103.030	13.592	975.018	738.584
104.045	13.469	974.255	737.395
105.060	13.421	973.470	736.520
106.074	13.292	972.295	734.992
107.089	13.182	971.598	733.913
108.103	13.350	970.270	733.588
109.118	13.126	969.883	732.241
110.133	13.177	968.603	731.435
111.147	13.292	968.107	731.506
112.162	13.291	967.078	730.656
113.176	13.251	966.821	730.221
114.191	13.351	965.993	729.973
115.206	13.309	965.224	729.143
116.220	13.312	963.900	728.092
117.235	13.290	963.141	727.355
118.249	13.330	962.365	726.882
119.264	13.315	961.777	726.307
120.279	13.381	960.641	725.675
121.293	13.283	959.683	724.457
122.308	13.248	959.145	723.835
123.322	13.216	958.132	722.867
124.337	13.316	957.190	722.529
125.352	13.312	955.718	721.336
126.366	13.211	955.136	720.392
127.381	13.268	954.254	719.909
128.395	13.260	953.182	719.005
129.410	13.274	952.396	718.409
130.424	13.214	951.906	717.713
131.439	13.374	951.121	717.753
132.454	13.445	949.874	717.058
133.468	13.415	949.193	716.351
134.483	13.405	948.303	715.572
135.497	13.303	947.768	714.662
136.512	13.399	946.727	714.228
137.527	13.376	945.712	713.303
138.541	13.464	945.241	713.262
139.556	13.500	944.397	712.719
140.570	13.507	944.241	712.566
141.585	13.533	943.186	711.821
142.600	13.699	942.000	711.571
143.614	13.614	941.533	710.795
144.629	13.698	940.571	710.364
145.643	13.611	939.755	709.310
146.658	13.494	938.833	708.053
147.673	13.501	937.781	707.228
148.687	13.464	936.847	706.304
149.702	13.413	936.334	705.634
150.716	13.452	935.474	705.089
151.731	13.472	934.921	704.695
152.746	13.441	934.531	704.209
153.760	13.590	933.201	703.775
154.775	13.602	932.844	703.499
155.789	13.575	932.279	702.893
156.804	13.637	931.705	702.664
157.819	13.638	930.903	701.997
158.833	13.790	929.805	701.750
159.848	13.711	929.543	701.156
160.862	13.751	927.958	700.070
161.877	13.570	927.357	698.792
162.892	13.540	926.780	698.167
163.906	13.529	925.539	697.126
164.921	13.540	924.832	696.576
165.935	13.622	923.784	696.069
166.950	13.606	923.364	695.623
167.964	13.581	922.534	694.835
168.979	13.635	921.692	694.363
169.994	13.723	919.972	693.373
171.008	13.719	919.760	693.138
172.023	13.721	919.679	693.022
173.037	13.754	918.806	692.443
174.052	13.738	918.354	691.974
175.067	13.735	917.353	691.143
176.081	13.677	916.603	690.275
177.096	13.608	916.558	689.893
178.110	13.598	915.740	689.177
179.125	13.682	915.107	688.989
180.140	13.608	914.648	688.274
181.154	13.872	914.179	688.957
182.169	13.800	913.697	688.232
183.183	13.932	912.916	688.131
184.198	13.967	912.046	687.559
185.213	13.915	911.706	687.025
186.227	13.900	910.821	686.237
187.242	14.090	910.252	686.531
188.256	13.979	909.576	685.505
189.271	13.868	908.737	684.353
190.286	13.759	908.315	683.524
191.300	13.719	907.134	682.410
192.315	13.579	906.804	681.527
193.329	13.720	906.059	681.489
194.344	13.859	905.341	681.457
195.359	13.793	905.046	680.905
196.373	14.044	904.297	681.309
197.388	14.051	903.921	680.996
198.402	14.087	903.708	680.921
199.417	14.190	902.666	680.496
200.432	14.207	902.433	680.330
201.446	14.302	901.749	680.144
202.461	14.352	901.055	679.762
203.475	14.229	900.518	678.795
204.490	14.147	899.964	677.985
205.504	14.016	899.467	677.015
206.519	14.111	898.329	676.488
207.534	14.165	897.867	676.297
208.548	14.291	896.749	675.908
209.563	14.219	896.159	675.109
210.577	14.236	895.877	674.907
211.592	14.271	895.077	674.386
212.607	14.413	894.395	674.388
213.621	14.282	893.550	673.161
214.636	14.279	893.148	672.785
215.650	14.228	892.468	672.011
216.665	14.265	891.672	671.501
217.680	14.390	891.191	671.583
218.694	14.421	890.549	671.164
219.709	14.391	889.858	670.465
220.723	14.451	889.173	670.129
221.738	14.502	888.625	669.861
222.753	14.415	888.139	669.088
223.767	14.656	887.305	669.365
224.782	14.594	886.883	668.741
225.796	14.606	886.414	668.374
226.811	14.587	886.051	667.967
227.826	14.440	885.257	666.722
228.840	14.511	884.524	666.393
229.855	14.551	883.522	665.737
230.869	14.532	882.728	665.005
231.884	14.365	882.235	663.911
232.899	14.329	881.670	663.282
233.913	14.510	880.860	663.336
234.928	14.369	880.354	662.333
235.942	14.540	879.357	662.206
236.957	14.577	878.954	661.991
237.972	14.459	878.466	661.097
238.986	14.286	878.191	660.143
240.001	14.394	877.450	659.956
241.015	14.532	876.896	660.028
242.030	14.546	875.960	659.321
243.045	14.726	875.141	659.356
244.059	14.571	874.897	658.503
245.074	14.737	874.309	658.654
246.088	14.780	873.065	657.830
247.103	14.690	872.929	657.316
248.117	14.599	872.525	656.596
249.132	14.887	871.733	657.073
250.147	14.939	871.523	657.060
251.161	14.896	870.823	656.306
252.176	15.040	869.915	656.126
253.190	14.945	869.507	655.388
254.205	15.095	868.790	655.377
255.220	15.032	868.385	654.769
256.234	15.038	867.456	654.035
257.249	15.116	866.644	653.667
258.263	15.133	865.817	653.053
259.278	15.098	865.426	652.562
260.293	15.168	865.091	652.527
261.307	15.347	864.517	652.732
262.322	15.225	864.009	651.815
263.336	15.189	862.947	650.818
264.351	15.111	862.898	650.421
265.366	15.259	861.513	649.894
266.380	15.405	860.923	649.957
267.395	15.292	860.115	648.852
268.409	15.205	859.893	648.290
269.424	15.236	859.152	647.793
270.439	15.219	858.071	646.856
271.453	15.183	857.607	646.310
272.468	15.227	856.926	645.908
273.482	15.348	856.550	646.035
274.497	15.236	856.492	645.499
275.512	15.176	855.630	644.562
276.526	15.331	854.950	644.589
277.541	15.325	854.669	644.300
278.555	15.272	854.288	643.752
279.570	15.394	853.417	643.504
280.585	15.408	852.781	643.022
281.599	15.281	851.836	641.765
282.614	15.380	851.051	641.496
283.628	15.381	850.479	641.013
284.643	15.404	850.071	640.739
285.657	15.368	849.662	640.236
286.672	15.410	849.030	639.863
287.687	15.442	848.184	639.289
288.701	15.497	847.549	638.965
289.716	15.552	847.150	638.815
290.730	15.562	846.505	638.311
291.745	15.474	846.230	637.712
292.760	15.638	845.516	637.741
293.774	15.697	844.674	637.274
294.789	15.628	844.164	636.572
295.803	15.569	843.248	635.600
296.818	15.664	842.839	635.594
297.833	15.546	842.429	634.783
298.847	15.611	841.612	634.355
299.862	15.659	840.816	633.881
300.876	15.616	840.871	633.706
301.891	15.686	840.222	633.423
302.906	15.732	839.467	632.971
303.920	15.729	839.118	632.641
304.935	15.909	837.925	632.361
305.949	15.779	837.769	631.699
306.964	15.818	837.094	631.281
307.979	15.772	836.887	630.898
308.993	15.813	835.873	630.229
310.008	15.939	835.239	630.166
311.022	15.913	834.809	629.691
312.037	15.810	834.396	628.938
313.052	15.742	833.802	628.182
314.066	15.848	832.973	627.895
315.081	15.709	832.767	627.168
316.095	15.726	832.056	626.639
317.110	15.666	831.439	625.896
318.125	15.805	830.787	625.868
319.139	15.856	830.524	625.802
320.154	15.876	830.170	625.555
321.168	15.907	829.644	625.218
322.183	15.875	829.031	624.583
323.197	15.820	828.706	624.079
324.212	15.884	828.297	623.952
325.227	15.912	827.399	623.324
326.241	15.919	826.953	622.958
327.256	16.039	826.030	622.650
328.270	15.722	826.257	621.596
329.285	15.938	825.045	621.427
330.300	15.897	824.553	620.849
331.314	16.016	824.080	620.879
332.329	16.053	823.495	620.517
333.343	16.031	823.361	620.280
334.358	16.010	822.866	619.776
335.373	16.153	822.173	619.725
336.387	16.060	822.588	619.640
337.402	15.997	822.187	619.053
338.416	16.227	821.577	619.383
339.431	16.348	821.031	619.358
340.446	16.337	820.739	619.043
341.460	16.084	820.590	617.951
342.475	16.394	820.049	618.623
343.489	16.466	819.413	618.352
344.504	16.395	819.282	617.938
345.519	16.287	818.726	617.071
346.533	16.553	817.936	617.390
347.548	16.266	817.379	615.869
348.562	16.252	817.197	615.627
349.577	16.294	816.706	615.354
350.592	16.210	816.085	614.528
351.606	16.416	814.894	614.325
352.621	16.288	814.337	613.384
353.635	16.423	813.813	613.425
354.650	16.418	813.085	612.806
355.665	16.405	812.870	612.540
356.679	16.559	811.941	612.345
357.694	16.438	811.450	611.483
358.708	16.586	810.671	611.378
359.723	16.648	809.972	611.020
360.738	16.501	810.155	610.574
361.752	16.483	809.433	609.908
362.767	16.548	808.837	609.642
363.781	16.560	808.493	609.370
364.796	16.638	807.991	609.220
365.810	16.668	807.550	608.940
366.825	16.751	807.317	609.008
367.840	16.766	806.727	608.564
368.854	16.572	806.496	607.640
369.869	16.689	805.475	607.236
370.883	16.784	805.131	607.265
371.898	16.847	805.152	607.453
372.913	16.811	805.049	607.191
373.927	16.868	803.958	606.518
374.942	16.962	803.325	606.323
375.956	16.803	803.391	605.750
376.971	16.902	803.022	605.771
377.986	17.057	802.309	605.733
379.000	17.028	801.669	605.093
380.015	17.014	801.389	604.780
381.029	17.040	800.904	604.454
382.044	17.142	800.161	604.203
383.059	17.179	799.303	603.631
384.073	17.085	799.034	603.041
385.088	16.975	798.324	602.061
386.102	17.052	797.462	601.631
387.117	17.100	797.189	601.542
388.132	17.029	796.629	600.814
389.146	16.994	796.434	600.490
390.161	17.054	796.286	600.538
391.175	17.044	795.443	599.814
392.190	17.132	794.869	599.640
393.205	16.993	794.595	598.887
394.219	16.926	794.180	598.288
395.234	17.031	794.005	598.473
396.248	16.964	793.242	597.606
397.263	16.997	792.476	597.093
398.278	16.996	792.589	597.122
399.292	17.018	791.876	596.612
400.307	17.090	791.384	596.440
401.321	17.196	790.846	596.355
402.336	17.151	790.704	596.036
403.350	17.044	790.534	595.478
404.365	17.153	789.662	595.152
405.380	17.200	789.472	595.119
406.394	17.306	788.596	594.778
407.409	17.354	788.485	594.809
408.423	17.422	788.356	594.898
409.438	17.304	788.133	594.264
410.453	17.531	787.330	594.400
411.467	17.499	786.649	593.720
412.482	17.406	786.908	593.540
413.496	17.476	786.469	593.399
414.511	17.649	785.716	593.382
415.526	17.466	786.106	592.987
416.540	17.432	785.048	592.017
417.555	17.496	784.586	591.838
418.569	17.486	783.927	591.253
419.584	17.481	783.669	590.989
420.599	17.632	783.147	591.069
421.613	108.951	1288.455	1462.000
422.628	93.320	1362.046	1462.091
