DTS Sentinel unit serial number:	SN413079Multiplexer serial number:	ORYXHardware model number:	OX4-SRSoftware version number:	ORYX F/W v4.00 Oryx Data Collector v3.7.2.0data status	okinstallation	princeton_trtdifferential loss correction	single-endedforward channel	channel 1reverse channel	N/Adate	2019/09/18time	16:10:35forward acquisition time	60.00reverse acquisition time	0.00gamma	496.2192k internal	0.2292k external	0.2292temperature offset calibration	0.9994default loss term (dB/km)	0.3790temperature slope calibration	1.0000multiplexer offset coefficient	1.0000multiplexer slope coefficient	1.0000fibre end	0.00T internal ref (°C)	38.06T ext. ref 1 (°C)	0.81T ext. ref 2 (°C)	36.90length (m)	temperature (°C)	Stokes	anti-Stokes-747.200	-200.000	0.024	0.282
-746.185	-200.000	-0.069	0.511
-745.171	209.232	-0.326	0.523
-744.156	-151.962	0.118	-0.009
-743.142	-200.000	-0.038	0.332
-742.127	-200.000	-0.114	0.566
-741.112	-44.418	-0.072	0.037
-740.098	-200.000	-0.010	-0.093
-739.083	800.000	0.017	-0.054
-738.069	412.673	-0.106	0.231
-737.054	-170.003	0.200	0.007
-736.039	133.090	0.130	0.172
-735.025	-200.000	0.002	0.155
-734.010	-74.080	-0.065	-0.024
-732.996	-200.000	-0.022	0.202
-731.981	-89.393	0.051	-0.015
-730.966	-129.163	-0.406	0.058
-729.952	7.598	-0.054	0.042
-728.937	800.000	-0.030	0.120
-727.923	364.658	0.190	0.392
-726.908	409.485	-0.105	0.228
-725.894	91.135	0.165	-0.190
-724.879	4.071	-0.245	-0.183
-723.864	32.084	-0.169	0.149
-722.850	-136.495	-0.179	0.021
-721.835	-132.260	-0.199	-0.026
-720.821	146.415	0.212	-0.292
-719.806	275.605	0.043	0.077
-718.791	800.000	0.123	-0.460
-717.777	-63.624	0.124	0.052
-716.762	-166.705	-0.141	0.006
-715.748	492.760	0.037	-0.086
-714.733	-50.709	0.269	0.130
-713.718	800.000	0.028	-0.091
-712.704	800.000	-0.117	-0.508
-711.689	6.396	-0.305	-0.232
-710.675	-200.000	0.007	0.059
-709.660	-200.000	-0.032	0.185
-708.645	-177.905	-0.325	-0.008
-707.631	-200.000	-0.240	0.001
-706.616	-107.937	-0.157	-0.035
-705.602	-106.383	0.213	0.049
-704.587	193.330	-0.247	-0.382
-703.572	682.383	-0.106	0.284
-702.558	-134.403	-0.209	0.026
-701.543	800.000	-0.140	0.420
-700.529	-75.881	0.257	0.093
-699.514	-200.000	-0.060	0.397
-698.499	417.531	-0.125	0.273
-697.485	800.000	0.077	-0.252
-696.470	700.149	-0.012	-0.031
-695.456	-6.868	-0.230	-0.160
-694.441	-180.524	-0.131	-0.003
-693.426	149.806	-0.054	0.075
-692.412	-44.188	0.204	0.104
-691.397	-118.545	-0.317	-0.057
-690.383	-30.517	0.142	0.082
-689.368	800.000	-0.075	-0.303
-688.354	203.593	0.147	-0.233
-687.339	-28.205	0.298	-0.176
-686.324	7.272	0.157	-0.120
-685.310	11.451	0.093	0.073
-684.295	-46.366	-0.282	-0.142
-683.281	71.972	0.121	-0.129
-682.266	-94.342	-0.100	0.028
-681.251	515.248	-0.073	-0.175
-680.237	-52.837	0.191	-0.090
-679.222	-127.339	-0.054	0.008
-678.208	-116.743	-0.172	0.032
-677.193	100.284	-0.337	0.399
-676.178	-200.000	-0.035	0.167
-675.164	-120.526	-0.097	0.017
-674.149	-200.000	0.039	-0.262
-673.135	-200.000	0.022	0.215
-672.120	-200.000	0.025	0.239
-671.105	22.282	-0.201	-0.168
-670.091	-144.112	-0.193	0.018
-669.076	-98.310	0.147	0.038
-668.062	36.958	-0.141	0.127
-667.047	-141.253	0.248	-0.026
-666.032	98.345	0.089	0.105
-665.018	800.000	-0.023	-0.065
-664.003	193.453	-0.123	-0.190
-662.989	800.000	-0.068	-0.275
-661.974	210.403	-0.020	-0.032
-660.959	-200.000	-0.062	-0.350
-659.945	624.369	-0.091	-0.234
-658.930	263.304	0.160	0.284
-657.916	302.433	0.098	0.185
-656.901	-200.000	0.000	-0.043
-655.886	82.623	-0.054	-0.059
-654.872	-49.325	-0.042	0.020
-653.857	-200.000	0.000	0.035
-652.843	800.000	-0.087	0.268
-651.828	-128.562	0.118	0.017
-650.814	-89.222	0.246	-0.074
-649.799	17.976	0.140	0.114
-648.784	800.000	-0.034	-0.122
-647.770	20.607	0.157	0.130
-646.755	-200.000	0.032	0.216
-645.741	146.699	0.169	0.232
-644.726	78.101	-0.110	-0.119
-643.711	-200.000	-0.014	-0.170
-642.697	800.000	0.020	0.078
-641.682	209.649	-0.186	0.297
-640.668	-107.109	0.203	0.046
-639.653	-26.936	0.237	0.141
-638.638	-200.000	-0.007	0.069
-637.624	-89.315	0.166	-0.050
-636.609	231.937	-0.082	0.137
-635.595	-102.575	0.098	0.024
-634.580	-18.783	0.143	-0.091
-633.565	140.220	-0.033	0.045
-632.551	-55.666	0.242	0.110
-631.536	800.000	0.048	0.200
-630.522	800.000	0.006	0.025
-629.507	51.905	0.213	-0.206
-628.492	-200.000	0.023	-0.137
-627.478	-200.000	-0.021	-0.209
-626.463	116.300	-0.153	-0.191
-625.449	94.906	0.074	0.086
-624.434	63.344	-0.075	-0.077
-623.419	-200.000	-0.009	-0.089
-622.405	800.000	0.098	0.400
-621.390	-106.861	0.148	-0.033
-620.376	-200.000	-0.001	-0.200
-619.361	-200.000	-0.033	-0.189
-618.346	-133.544	0.127	-0.016
-617.332	-163.839	-0.242	-0.012
-616.317	240.139	-0.116	-0.197
-615.303	-95.829	-0.182	-0.049
-614.288	594.913	0.048	0.121
-613.273	-200.000	-0.050	-0.350
-612.259	-200.000	-0.008	0.184
-611.244	-53.260	-0.055	-0.026
-610.230	321.817	-0.011	0.021
-609.215	-22.957	0.124	-0.076
-608.201	800.000	0.017	0.057
-607.186	-200.000	0.003	-0.160
-606.171	-200.000	0.006	-0.095
-605.157	800.000	-0.087	-0.383
-604.142	-58.254	-0.311	0.138
-603.128	-139.497	-0.056	0.006
-602.113	800.000	-0.008	0.033
-601.098	-122.028	0.244	-0.041
-600.084	73.043	0.196	0.208
-599.069	212.249	0.102	0.163
-598.055	-84.500	-0.099	-0.032
-597.040	800.000	0.063	-0.200
-596.025	-200.000	-0.004	0.053
-595.011	-200.000	0.022	0.163
-593.996	-200.000	-0.031	-0.159
-592.982	694.937	-0.040	-0.106
-591.967	-150.451	0.223	0.017
-590.952	-200.000	-0.009	-0.070
-589.938	-106.686	-0.432	-0.098
-588.923	370.281	-0.136	-0.280
-587.909	-137.957	-0.400	-0.045
-586.894	-136.008	-0.148	-0.018
-585.879	21.519	-0.131	0.109
-584.865	736.600	0.073	-0.199
-583.850	800.000	-0.096	-0.309
-582.836	-200.000	-0.026	-0.256
-581.821	36.259	-0.225	-0.202
-580.806	17.436	-0.249	-0.202
-579.792	127.570	-0.058	-0.075
-578.777	338.165	-0.091	0.180
-577.763	800.000	-0.037	-0.126
-576.748	-64.876	-0.077	0.032
-575.733	-83.891	-0.056	0.018
-574.719	-64.256	-0.250	-0.104
-573.704	-137.786	-0.256	-0.029
-572.690	800.000	-0.066	0.256
-571.675	239.058	-0.179	-0.303
-570.661	-10.198	0.091	-0.061
-569.646	-200.000	-0.122	0.641
-568.631	-114.529	-0.012	0.002
-567.617	800.000	-0.069	0.202
-566.602	-168.016	-0.185	-0.007
-565.588	687.175	-0.041	0.110
-564.573	-200.000	0.042	0.435
-563.558	82.720	0.153	0.169
-562.544	42.274	0.201	-0.186
-561.529	-124.637	0.224	0.035
-560.515	120.667	-0.160	-0.202
-559.500	-61.011	-0.067	0.029
-558.485	672.037	0.099	0.260
-557.471	-139.985	-0.197	0.021
-556.456	15.426	-0.190	-0.151
-555.442	24.384	-0.190	-0.160
-554.427	45.257	-0.155	-0.145
-553.412	106.741	-0.107	0.129
-552.398	236.399	-0.123	0.207
-551.383	-85.441	-0.088	0.028
-550.369	-49.915	-0.287	-0.138
-549.354	85.961	-0.150	0.168
-548.339	275.844	-0.144	-0.260
-547.325	-64.528	-0.370	-0.153
-546.310	-141.364	-0.167	0.017
-545.296	800.000	0.053	0.180
-544.281	112.252	-0.111	0.136
-543.266	-97.432	0.252	0.067
-542.252	-47.124	-0.036	-0.018
-541.237	-107.498	0.318	0.071
-540.223	10.844	-0.190	0.147
-539.208	-84.324	-0.195	-0.063
-538.193	-132.669	-0.244	0.032
-537.179	0.901	-0.119	-0.086
-536.164	-200.000	0.018	-0.203
-535.150	12.203	0.292	-0.228
-534.135	74.297	-0.288	-0.307
-533.121	3.794	0.135	0.100
-532.106	-105.296	-0.074	-0.017
-531.091	-23.936	-0.371	-0.226
-530.077	18.586	-0.074	0.060
-529.062	83.118	0.184	-0.203
-528.048	-99.145	-0.066	-0.017
-527.033	-144.355	-0.200	0.019
-526.018	-200.000	0.007	-0.164
-525.004	-36.822	-0.055	-0.030
-523.989	-200.000	-0.003	0.022
-522.975	583.112	-0.052	0.129
-521.960	20.007	0.138	-0.113
-520.945	240.449	0.074	-0.125
-519.931	-137.273	0.159	0.018
-518.916	247.605	0.145	-0.248
-517.902	115.857	0.080	-0.099
-516.887	-76.245	-0.288	-0.103
-515.872	59.327	0.171	-0.171
-514.858	-42.564	-0.317	0.164
-513.843	-110.159	-0.074	0.016
-512.829	800.000	-0.015	0.044
-511.814	-21.691	-0.038	-0.023
-510.799	16.574	-0.120	0.096
-509.785	-200.000	-0.034	0.331
-508.770	-155.706	0.143	0.009
-507.756	34.662	0.176	-0.156
-506.741	-8.155	0.181	-0.124
-505.726	-113.590	-0.120	-0.024
-504.712	1.904	0.185	0.135
-503.697	800.000	-0.064	-0.188
-502.683	31.689	0.252	-0.220
-501.668	-200.000	-0.045	-0.367
-500.653	-200.000	0.003	-0.325
-499.639	-2.260	0.046	-0.032
-498.624	-68.729	-0.228	-0.089
-497.610	-37.731	0.186	-0.101
-496.595	-7.378	0.081	0.056
-495.581	-87.579	-0.122	0.037
-494.566	-200.000	-0.044	0.255
-493.551	537.857	-0.081	-0.195
-492.537	-92.496	0.068	-0.019
-491.522	289.935	0.171	0.314
-490.508	-28.192	-0.271	-0.159
-489.493	800.000	0.045	0.181
-488.478	-56.626	0.259	0.116
-487.464	27.802	-0.103	0.088
-486.449	273.748	0.040	0.072
-485.435	552.664	-0.093	-0.226
-484.420	-200.000	0.031	-0.150
-483.405	-174.347	0.002	0.000
-482.391	479.665	0.124	-0.284
-481.376	140.357	0.164	-0.220
-480.362	-200.000	0.028	0.353
-479.347	-44.395	0.297	-0.150
-478.332	52.614	-0.284	0.275
-477.318	54.499	0.125	0.122
-476.303	26.496	0.284	-0.240
-475.289	800.000	-0.064	0.248
-474.274	147.999	0.046	-0.063
-473.259	554.391	0.118	-0.286
-472.245	-74.186	0.048	-0.017
-471.230	238.096	-0.105	-0.177
-470.216	-90.649	-0.261	0.076
-469.201	-148.258	-0.033	-0.003
-468.186	-200.000	0.030	0.169
-467.172	-15.606	-0.323	0.209
-466.157	-200.000	0.007	-0.336
-465.143	800.000	-0.025	0.098
-464.128	-41.097	-0.154	-0.081
-463.113	82.543	-0.076	0.083
-462.099	-110.640	0.117	-0.024
-461.084	-179.179	-0.162	-0.004
-460.070	-6.240	0.130	-0.090
-459.055	105.651	0.103	-0.123
-458.040	-37.072	-0.212	-0.115
-457.026	-28.555	-0.259	-0.151
-456.011	222.924	-0.132	-0.215
-454.997	333.248	-0.080	-0.157
-453.982	570.167	0.036	-0.090
-452.968	800.000	-0.049	0.217
-451.953	-28.193	0.211	0.123
-450.938	220.786	-0.036	-0.058
-449.924	-85.601	-0.093	-0.029
-448.909	-103.882	-0.243	0.057
-447.895	-3.196	0.257	0.181
-446.880	-63.773	0.339	0.140
-445.865	-164.603	0.160	-0.007
-444.851	77.668	-0.128	-0.138
-443.836	38.769	0.153	0.138
-442.822	-183.390	-0.449	0.008
-441.807	-113.564	-0.281	0.056
-440.792	-200.000	0.029	-0.257
-439.778	-200.000	-0.026	-0.266
-438.763	105.068	-0.087	-0.104
-437.749	323.417	-0.028	0.054
-436.734	-15.210	-0.090	0.058
-435.719	-73.717	0.424	0.156
-434.705	-200.000	-0.038	0.000
-433.690	34.098	0.097	0.086
-432.676	-152.603	-0.354	0.026
-431.661	-53.882	-0.172	-0.079
-430.646	800.000	-0.038	-0.111
-429.632	325.034	-0.147	-0.284
-428.617	-71.220	0.145	-0.055
-427.603	-133.021	0.308	-0.040
-426.588	-90.367	0.175	-0.051
-425.573	36.706	-0.358	-0.320
-424.559	624.214	-0.065	-0.167
-423.544	-172.157	0.025	-0.001
-422.530	-108.850	0.137	0.030
-421.515	-117.620	-0.276	-0.050
-420.500	-165.478	0.189	0.008
-419.486	742.111	0.111	0.301
-418.471	-74.215	0.167	-0.061
-417.457	598.235	-0.073	0.184
-416.442	129.192	0.193	-0.250
-415.428	-200.000	0.003	0.111
-414.413	90.956	-0.170	0.193
-413.398	-111.158	0.342	-0.071
-412.384	2.959	0.202	-0.148
-411.369	389.603	-0.073	-0.154
-410.355	-200.000	-0.022	0.139
-409.340	651.415	-0.136	0.351
-408.325	278.217	-0.112	0.201
-407.311	166.733	0.104	-0.149
-406.296	43.327	0.226	-0.209
-405.282	91.052	0.097	0.110
-404.267	-154.493	0.137	0.009
-403.252	-131.718	-0.292	-0.039
-402.238	150.200	0.047	-0.064
-401.223	-200.000	0.017	0.374
-400.209	6.210	-0.019	0.014
-399.194	800.000	-0.073	0.221
-398.179	-147.467	-0.143	0.012
-397.165	-74.833	-0.112	-0.041
-396.150	-172.431	-0.140	0.004
-395.136	27.918	-0.093	-0.079
-394.121	-13.727	0.207	0.135
-393.106	284.887	0.049	-0.088
-392.092	314.812	0.119	-0.226
-391.077	-119.608	0.370	0.065
-390.063	-79.053	0.074	0.025
-389.048	-73.807	0.188	0.069
-388.033	344.556	-0.286	0.566
-387.019	154.072	-0.161	-0.223
-386.004	-48.784	0.081	-0.039
-384.990	739.727	0.006	-0.017
-383.975	-1.548	0.260	0.185
-382.960	-200.000	0.043	-0.284
-381.946	800.000	-0.061	0.266
-380.931	346.308	-0.044	-0.088
-379.917	399.159	0.104	0.219
-378.902	39.348	0.158	0.143
-377.888	83.963	0.058	0.064
-376.873	-200.000	-0.008	-0.050
-375.858	-115.248	-0.319	-0.061
-374.844	-127.349	0.034	-0.005
-373.829	800.000	0.047	0.188
-372.815	265.794	0.233	-0.410
-371.800	137.386	-0.122	-0.162
-370.785	182.025	0.045	-0.067
-369.771	40.466	-0.081	0.074
-368.756	-200.000	-0.048	0.569
-367.742	87.373	-0.206	0.230
-366.727	-200.000	0.031	0.338
-365.712	800.000	-0.054	0.166
-364.698	5.081	0.084	-0.063
-363.683	-46.502	-0.062	-0.031
-362.669	-200.000	-0.042	0.245
-361.654	-200.000	-0.007	-0.141
-360.639	-21.570	0.164	0.101
-359.625	-86.668	0.097	-0.030
-358.610	-80.811	-0.163	-0.055
-357.596	103.024	0.033	0.039
-356.581	27.651	0.176	-0.149
-355.566	800.000	-0.060	-0.221
-354.552	167.147	-0.134	0.192
-353.537	135.428	-0.122	-0.160
-352.523	159.847	-0.076	-0.107
-351.508	-60.151	0.299	-0.129
-350.493	-101.409	-0.087	0.021
-349.479	-94.491	0.429	0.118
-348.464	-200.000	0.009	0.046
-347.450	199.758	-0.133	-0.206
-346.435	25.252	-0.107	0.090
-345.420	384.973	0.083	0.173
-344.406	-168.401	-0.324	-0.013
-343.391	-200.000	0.035	0.164
-342.377	-68.069	-0.439	0.173
-341.362	800.000	-0.090	0.296
-340.348	-19.268	0.249	0.156
-339.333	-200.000	-0.011	-0.061
-338.318	439.742	0.043	0.095
-337.304	23.904	0.127	-0.105
-336.289	222.498	0.219	0.355
-335.275	-51.938	0.227	0.106
-334.260	30.613	0.214	-0.184
-333.245	-2.317	-0.001	-0.001
-332.231	16.565	-0.114	0.091
-331.216	-200.000	-0.024	0.209
-330.202	-70.541	-0.192	0.073
-329.187	352.186	-0.066	0.131
-328.172	-11.476	-0.344	0.228
-327.158	-200.000	-0.006	0.036
-326.143	800.000	0.062	-0.253
-325.129	800.000	-0.064	-0.283
-324.114	-200.000	-0.002	-0.161
-323.099	175.324	0.115	0.168
-322.085	388.552	0.029	-0.060
-321.070	-152.530	-0.095	0.007
-320.056	390.139	0.070	-0.146
-319.041	-36.893	0.130	0.070
-318.026	163.932	-0.187	-0.265
-317.012	80.808	0.134	-0.145
-315.997	-200.000	0.006	-0.245
-314.983	-200.000	-0.021	0.151
-313.968	-146.237	-0.244	-0.022
-312.953	800.000	0.020	-0.069
-311.939	-123.951	0.299	-0.047
-310.924	20.436	0.067	-0.055
-309.910	-193.768	0.184	0.002
-308.895	74.895	0.186	0.197
-307.880	594.210	-0.010	-0.025
-306.866	-200.000	0.005	0.230
-305.851	-92.494	-0.207	-0.059
-304.837	800.000	0.050	-0.182
-303.822	-200.000	-0.059	-0.283
-302.807	353.574	-0.136	-0.271
-301.793	-75.252	-0.148	0.053
-300.778	109.183	-0.188	-0.226
-299.764	-50.535	-0.062	0.029
-298.749	-12.873	0.359	-0.235
-297.735	307.751	0.180	0.337
-296.720	209.619	0.056	-0.088
-295.705	-51.517	0.104	0.049
-294.691	-58.136	0.214	0.094
-293.676	-200.000	0.027	-0.257
-292.662	-70.879	-0.044	-0.017
-291.647	-167.476	0.304	-0.012
-290.632	337.465	0.110	0.216
-289.618	-72.194	0.301	0.112
-288.603	800.000	-0.089	0.314
-287.589	-200.000	0.495	0.002
-286.574	-105.166	0.131	-0.030
-285.559	-12.842	-0.128	-0.084
-284.545	679.581	0.088	-0.231
-283.530	24.197	0.142	-0.118
-282.516	9.141	0.033	-0.025
-281.501	793.613	0.044	-0.121
-280.486	96.505	0.081	-0.093
-279.472	205.074	0.232	-0.363
-278.457	676.540	-0.095	0.247
-277.443	-200.000	-0.038	-0.204
-276.428	-200.000	0.018	-0.141
-275.413	-88.800	-0.364	-0.109
-274.399	-15.599	0.161	0.103
-273.384	-200.000	-0.057	-0.276
-272.370	464.370	-0.117	0.263
-271.355	456.413	0.133	-0.297
-270.340	-10.103	0.128	0.085
-269.326	32.345	-0.072	-0.062
-268.311	-78.636	0.077	-0.026
-267.297	289.985	0.074	0.134
-266.282	696.428	0.096	-0.253
-265.267	-200.000	0.018	0.082
-264.253	8.956	0.145	-0.110
-263.238	9.050	0.239	0.181
-262.224	-6.373	-0.181	-0.124
-261.209	-84.624	-0.174	0.055
-260.195	631.039	-0.011	-0.028
-259.180	-5.629	-0.168	0.116
-258.165	-200.000	0.005	0.311
-257.151	34.440	-0.148	-0.130
-256.136	-138.984	0.194	0.021
-255.122	122.338	-0.220	-0.276
-254.107	368.959	0.111	0.225
-253.092	77.601	0.212	-0.227
-252.078	-88.247	-0.230	0.069
-251.063	46.185	0.215	-0.200
-250.049	800.000	0.030	-0.118
-249.034	332.887	0.159	-0.309
-248.019	-67.090	-0.474	0.188
-247.005	-2.053	-0.278	-0.196
-245.990	800.000	0.018	-0.059
-244.976	-200.000	-0.054	0.331
-243.961	-200.000	-0.017	-0.296
-242.946	800.000	-0.062	-0.197
-241.932	-200.000	-0.031	0.249
-240.917	526.940	0.050	0.118
-239.903	-200.000	0.055	0.316
-238.888	800.000	-0.011	0.036
-237.873	-200.000	0.008	0.061
-236.859	-200.000	0.019	0.210
-235.844	-170.984	0.266	0.009
-234.830	-115.597	-0.137	-0.026
-233.815	321.568	0.023	0.045
-232.800	109.718	-0.080	0.096
-231.786	238.211	0.061	0.101
-230.771	210.999	0.237	-0.374
-229.757	698.784	-0.080	0.210
-228.742	-200.000	-0.061	0.344
-227.727	-200.000	0.010	-0.138
-226.713	-57.224	0.253	0.112
-225.698	55.732	0.250	0.243
-224.684	800.000	0.056	0.232
-223.669	-105.857	-0.240	-0.054
-222.655	63.075	0.067	0.067
-221.640	-25.651	-0.226	-0.134
-220.625	-200.000	-0.003	-0.021
-219.611	153.277	-0.068	-0.093
-218.596	-200.000	0.001	0.278
-217.582	-175.214	-0.271	-0.008
-216.567	-56.176	-0.336	-0.150
-215.552	232.822	0.086	-0.142
-214.538	-81.499	0.182	0.060
-213.523	297.492	0.083	-0.153
-212.509	555.424	0.067	0.162
-211.494	-200.000	-0.006	0.052
-210.479	48.809	-0.030	-0.028
-209.465	-4.383	0.211	0.146
-208.450	-21.564	0.137	0.084
-207.436	-200.000	0.033	0.254
-206.421	-200.000	0.065	0.331
-205.406	800.000	0.067	0.257
-204.392	-56.466	-0.065	0.029
-203.377	-107.094	0.160	0.035
-202.363	125.141	0.157	-0.199
-201.348	-109.827	0.188	-0.040
-200.333	-38.652	-0.116	0.061
-199.319	-179.787	-0.071	0.002
-198.304	-86.555	0.380	0.117
-197.290	391.698	0.056	0.116
-196.275	-99.624	0.155	-0.039
-195.260	687.173	0.008	-0.022
-194.246	154.347	0.195	0.268
-193.231	-157.842	0.147	-0.009
-192.217	-200.000	0.007	0.074
-191.202	-72.173	0.480	0.178
-190.187	-39.619	-0.365	0.192
-189.173	27.832	-0.234	-0.197
-188.158	-18.603	0.221	-0.138
-187.144	4.729	0.204	0.150
-186.129	335.921	-0.090	0.174
-185.114	-200.000	0.011	-0.300
-184.100	-200.000	-0.270	0.000
-183.085	-200.000	0.037	-0.263
-182.071	253.635	0.090	-0.154
-181.056	113.690	-0.205	0.249
-180.042	-200.000	-0.020	-0.264
-179.027	-83.463	-0.147	-0.047
-178.012	-92.182	-0.195	-0.055
-176.998	-12.473	-0.139	0.091
-175.983	800.000	0.017	-0.049
-174.969	-87.316	-0.308	-0.094
-173.954	84.124	0.434	0.474
-172.939	-97.328	0.008	-0.002
-171.925	-12.380	0.144	-0.094
-170.910	-200.000	-0.014	0.070
-169.896	7.090	0.130	0.097
-168.881	103.860	-0.143	0.168
-167.866	41.795	0.227	0.206
-166.852	29.631	0.137	0.117
-165.837	-200.000	-0.117	-0.517
-164.823	76.078	-0.063	-0.067
-163.808	3.816	-0.272	0.199
-162.793	-200.000	-0.060	0.300
-161.779	173.538	-0.120	-0.174
-160.764	-200.000	0.013	0.103
-159.750	372.250	0.127	0.259
-158.735	5.779	0.129	0.095
-157.720	-90.239	-0.024	0.007
-156.706	-83.619	-0.147	-0.047
-155.691	-183.442	-0.073	0.001
-154.677	-91.120	0.342	0.098
-153.662	372.126	0.088	0.179
-152.647	800.000	-0.038	0.162
-151.633	-4.443	0.258	0.178
-150.618	85.843	0.022	0.024
-149.604	-187.416	0.139	0.002
-148.589	-200.000	0.044	0.307
-147.574	330.634	-0.140	-0.270
-146.560	122.791	0.100	0.126
-145.545	-200.000	-0.070	0.336
-144.531	-31.635	0.205	-0.115
-143.516	-157.595	0.083	-0.005
-142.502	-34.553	-0.360	0.197
-141.487	443.595	0.099	-0.217
-140.472	177.083	-0.083	0.120
-139.458	117.444	0.266	0.327
-138.443	-200.000	-0.011	-0.299
-137.429	-98.097	0.534	0.137
-136.414	-122.523	0.190	0.031
-135.399	680.334	-0.064	-0.166
-134.385	74.179	0.048	0.050
-133.370	198.727	0.077	-0.119
-132.356	-19.490	0.116	-0.072
-131.341	-200.000	-0.024	0.239
-130.326	-127.683	0.106	-0.015
-129.312	-74.229	-0.065	0.024
-128.297	46.661	0.391	0.362
-127.283	492.863	0.135	0.310
-126.268	-97.056	0.064	0.017
-125.253	-200.000	-0.018	-0.348
-124.239	-49.182	-0.272	-0.130
-123.224	-200.000	-0.061	0.413
-122.210	-172.653	-0.035	0.001
-121.195	-200.000	0.018	0.332
-120.180	800.000	-0.028	-0.092
-119.166	12.485	0.083	0.064
-118.151	-53.656	-0.254	-0.116
-117.137	563.069	0.080	0.193
-116.122	-122.724	0.212	0.034
-115.107	-54.303	-0.366	0.166
-114.093	800.000	-0.056	-0.210
-113.078	322.242	0.058	0.110
-112.064	-126.608	0.289	0.043
-111.049	46.573	-0.205	-0.190
-110.034	473.505	0.246	0.554
-109.020	-200.000	-0.020	-0.103
-108.005	482.652	-0.056	0.128
-106.991	92.817	0.106	0.119
-105.976	-154.188	0.159	0.011
-104.962	800.000	-0.040	-0.120
-103.947	-200.000	0.056	0.272
-102.932	-122.923	-0.149	0.024
-101.918	10.472	0.230	-0.175
-100.903	-102.094	0.214	0.052
-99.889	199.177	0.179	0.274
-98.874	-173.958	-0.169	0.005
-97.859	72.615	-0.209	-0.218
-96.845	-65.135	-0.245	0.099
-95.830	35.271	-0.197	0.173
-94.816	22.122	0.200	0.163
-93.801	800.000	-0.121	0.337
-92.786	157.016	0.159	0.219
-91.772	570.747	0.060	0.147
-90.757	-19.891	0.307	0.189
-89.743	-200.000	-0.036	0.210
-88.728	800.000	-0.015	0.065
-87.713	-200.000	0.019	0.260
-86.699	-94.809	0.157	0.042
-85.684	383.370	-0.060	-0.124
-84.670	-200.000	0.086	0.000
-83.655	-90.161	0.099	0.029
-82.640	167.346	0.288	0.408
-81.626	-97.561	0.116	0.030
-80.611	-58.933	-0.301	-0.130
-79.597	-200.000	-0.042	0.290
-78.582	34.251	0.067	-0.059
-77.567	111.414	-0.206	0.248
-76.553	-164.334	-0.388	0.018
-75.538	56.853	-0.202	-0.196
-74.524	-200.000	-0.019	0.257
-73.509	186.305	-0.192	0.284
-72.494	-174.373	-0.230	0.007
-71.480	800.000	-0.030	0.108
-70.465	56.804	-0.153	-0.149
-69.451	-95.261	-0.353	0.095
-68.436	-22.103	-0.311	0.188
-67.422	33.795	0.102	0.088
-66.407	230.012	0.084	0.137
-65.392	770.787	-0.147	0.398
-64.378	-92.685	0.188	-0.052
-63.363	-108.848	0.061	-0.013
-62.349	-20.411	0.123	0.075
-61.334	45.019	-0.626	-0.575
-60.319	-200.000	-0.040	0.218
-59.305	800.000	-0.213	-0.755
-58.290	222.822	0.541	0.868
-57.276	400.414	0.706	1.475
-56.261	-200.000	80.352	487.762
-55.246	458.198	1373.907	3043.439
-54.232	141.445	2618.181	3453.513
-53.217	108.055	2266.265	2691.693
-52.203	48.630	1707.424	1594.545
-51.188	41.421	1433.408	1292.111
-50.173	38.089	1388.868	1230.947
-49.159	55.619	1428.644	1378.493
-48.144	60.324	1447.735	1426.927
-47.130	41.895	1407.469	1271.545
-46.115	38.234	1390.129	1232.787
-45.100	37.899	1385.625	1226.634
-44.086	37.887	1383.148	1224.317
-43.071	37.732	1381.404	1221.754
-42.057	37.860	1378.575	1220.003
-41.042	37.877	1377.103	1218.758
-40.027	37.899	1375.815	1217.710
-39.013	37.959	1373.354	1215.854
-37.998	38.035	1371.426	1214.575
-36.984	37.887	1370.404	1212.701
-35.969	38.057	1367.944	1211.533
-34.954	38.158	1365.732	1210.150
-33.940	38.180	1364.592	1209.230
-32.925	38.186	1363.280	1208.055
-31.911	38.202	1361.862	1206.847
-30.896	38.097	1360.668	1205.094
-29.881	38.200	1359.150	1204.335
-28.867	38.178	1357.315	1202.526
-27.852	38.247	1355.633	1201.412
-26.838	38.176	1354.578	1199.995
-25.823	38.134	1353.321	1198.579
-24.809	38.190	1351.613	1197.360
-23.794	38.189	1350.361	1196.194
-22.779	38.110	1348.846	1194.327
-21.765	38.106	1347.538	1193.094
-20.750	38.098	1346.060	1191.687
-19.736	38.013	1344.961	1190.152
-18.721	38.120	1343.169	1189.172
-17.706	38.129	1342.499	1188.586
-16.692	38.213	1340.654	1187.416
-15.677	37.914	1340.474	1185.390
-14.663	37.993	1339.028	1184.543
-13.648	37.874	1337.874	1182.757
-12.633	37.956	1336.807	1182.260
-11.619	38.028	1335.889	1181.837
-10.604	37.978	1335.324	1180.988
-9.590	37.963	1334.327	1179.973
-8.575	37.973	1332.914	1178.734
-7.560	37.956	1332.245	1177.991
-6.546	37.935	1330.885	1176.619
-5.531	37.920	1330.354	1176.012
-4.517	37.910	1329.290	1174.962
-3.502	37.898	1328.635	1174.268
-2.487	37.937	1327.380	1173.344
-1.473	38.189	1323.641	1171.504
-0.458	37.904	1310.053	1157.741
0.556	34.028	1291.333	1120.795
1.571	29.169	1293.218	1093.567
2.586	26.458	1305.814	1087.844
3.600	24.253	1292.245	1063.307
4.615	17.177	1213.497	958.635
5.629	6.552	1128.703	835.527
6.644	1.249	1104.215	789.776
7.659	0.718	1101.691	785.146
8.673	0.621	1100.906	784.015
9.688	0.643	1099.294	782.911
10.702	0.818	1098.008	782.832
11.717	6.114	1105.727	815.807
12.731	14.844	1116.839	869.530
13.746	18.116	1120.036	888.985
14.761	17.487	1118.683	884.564
15.775	16.559	1117.125	878.434
16.790	15.526	1114.685	871.086
17.804	14.851	1113.274	866.410
18.819	14.390	1112.080	863.012
19.834	14.111	1111.016	860.668
20.848	13.912	1109.924	858.719
21.863	13.641	1108.801	856.374
22.877	13.569	1107.999	855.307
23.892	13.495	1107.543	854.497
24.907	13.427	1106.969	853.628
25.921	13.421	1105.735	852.570
26.936	13.430	1105.737	852.540
27.950	13.577	1104.089	851.952
28.965	13.656	1102.701	851.214
29.980	13.625	1101.254	849.859
30.994	13.646	1100.285	849.147
32.009	13.564	1099.913	848.363
33.023	13.635	1098.292	847.402
34.038	13.601	1097.356	846.429
35.053	13.583	1096.509	845.609
36.067	13.732	1095.043	845.161
37.082	13.647	1094.735	844.418
38.096	13.650	1093.883	843.703
39.111	13.703	1092.578	842.887
40.126	13.688	1091.736	842.090
41.140	13.526	1090.548	840.277
42.155	13.404	1089.937	839.111
43.169	13.404	1088.598	838.006
44.184	13.437	1087.801	837.489
45.199	13.399	1086.740	836.406
46.213	13.446	1085.373	835.515
47.228	13.454	1084.531	834.833
48.242	13.483	1083.320	833.971
49.257	13.552	1082.301	833.462
50.271	13.481	1081.560	832.459
51.286	13.536	1080.760	832.047
52.301	13.455	1079.650	830.715
53.315	13.558	1078.546	830.308
54.330	13.580	1077.200	829.307
55.344	13.470	1076.750	828.335
56.359	13.441	1075.687	827.298
57.374	13.471	1074.664	826.591
58.388	13.439	1074.003	825.852
59.403	13.576	1072.779	825.519
60.417	13.358	1072.397	824.064
61.432	13.329	1071.728	823.332
62.447	13.357	1070.520	822.471
63.461	13.355	1069.892	821.909
64.476	13.463	1068.615	821.387
65.490	13.330	1067.958	820.151
66.505	13.390	1067.202	819.795
67.520	13.386	1066.842	819.427
68.534	13.522	1065.614	819.083
69.549	13.404	1065.206	818.114
70.563	13.424	1064.465	817.573
71.578	13.371	1063.489	816.488
72.593	13.223	1062.880	815.221
73.607	13.257	1062.107	814.721
74.622	13.416	1061.270	814.791
75.636	13.359	1060.954	814.197
76.651	13.403	1059.762	813.425
77.666	13.221	1059.455	812.223
78.680	13.373	1058.649	812.277
79.695	13.333	1057.895	811.434
80.709	13.399	1057.123	811.093
81.724	13.445	1056.448	810.730
82.739	13.444	1055.835	810.178
83.753	13.612	1054.943	810.247
84.768	13.517	1053.826	808.853
85.782	13.666	1052.483	808.479
86.797	13.509	1052.422	807.593
87.812	13.487	1051.109	806.404
88.826	13.592	1050.008	806.004
89.841	13.491	1049.207	804.823
90.855	13.632	1047.925	804.454
91.870	13.775	1047.245	804.557
92.884	13.737	1046.297	803.572
93.899	13.644	1045.622	802.533
94.914	13.727	1044.668	802.127
95.928	13.704	1044.137	801.538
96.943	13.738	1043.236	800.941
97.957	13.613	1041.952	799.282
98.972	13.619	1041.502	798.895
99.987	13.625	1040.677	798.221
101.001	13.600	1039.433	797.077
102.016	13.579	1038.848	796.456
103.030	13.623	1037.700	795.716
104.045	13.583	1037.154	795.033
105.060	13.686	1036.070	794.627
106.074	13.553	1035.318	793.345
107.089	13.575	1034.309	792.607
108.103	13.525	1033.220	791.461
109.118	13.513	1032.087	790.464
110.133	13.647	1030.808	790.054
111.147	13.468	1030.763	789.097
112.162	13.441	1029.383	787.845
113.176	13.564	1028.870	787.967
114.191	13.549	1028.378	787.447
115.206	13.604	1027.426	786.910
116.220	13.550	1026.555	785.916
117.235	13.468	1025.407	784.578
118.249	13.705	1024.074	784.612
119.264	13.576	1023.757	783.692
120.279	13.557	1023.148	783.064
121.293	13.642	1021.396	782.057
122.308	13.518	1021.311	781.338
123.322	13.429	1020.248	780.034
124.337	13.552	1018.869	779.492
125.352	13.466	1018.012	778.363
126.366	13.518	1016.941	777.716
127.381	13.625	1015.565	777.101
128.395	13.538	1014.830	776.059
129.410	13.575	1013.628	775.244
130.424	13.679	1013.047	775.220
131.439	13.671	1012.013	774.320
132.454	13.739	1011.382	774.088
133.468	13.633	1010.771	773.059
134.483	13.705	1009.652	772.468
135.497	13.684	1008.866	771.702
136.512	13.693	1007.791	770.853
137.527	13.673	1007.018	770.101
138.541	13.728	1006.377	769.798
139.556	13.650	1005.428	768.642
140.570	13.730	1004.737	768.414
141.585	13.850	1003.884	768.248
142.600	13.820	1002.933	767.315
143.614	13.867	1002.166	766.877
144.629	13.922	1001.282	766.386
145.643	13.841	1000.232	765.143
146.658	13.848	999.489	764.537
147.673	13.697	998.266	762.840
148.687	13.807	997.584	762.758
149.702	13.748	996.564	761.640
150.716	13.742	995.829	760.985
151.731	13.713	995.110	760.234
152.746	13.691	994.376	759.507
153.760	13.840	993.656	759.569
154.775	13.835	992.957	758.943
155.789	13.764	992.893	758.506
156.804	13.745	991.782	757.503
157.819	13.804	991.207	757.263
158.833	13.835	990.482	756.787
159.848	14.010	989.787	756.986
160.862	13.859	988.484	755.233
161.877	13.813	987.867	754.488
162.892	13.913	986.331	753.702
163.906	13.835	985.653	752.763
164.921	13.938	984.675	752.418
165.935	13.840	983.855	751.280
166.950	13.892	983.163	750.918
167.964	13.949	982.012	750.230
168.979	13.947	980.818	749.246
169.994	13.923	980.030	748.465
171.008	13.928	979.951	748.365
172.023	13.906	978.858	747.363
173.037	13.850	978.178	746.527
174.052	13.951	977.131	746.114
175.067	13.954	976.062	745.248
176.081	13.874	976.183	744.913
177.096	14.041	975.311	744.931
178.110	14.025	974.623	744.269
179.125	14.009	973.932	743.604
180.140	13.977	973.926	743.387
181.154	14.012	972.891	742.690
182.169	14.162	972.383	742.905
183.183	14.155	971.838	742.395
184.198	14.176	970.765	741.601
185.213	14.238	970.007	741.234
186.227	14.329	969.269	741.007
187.242	14.152	969.118	740.039
188.256	14.274	968.605	740.124
189.271	14.224	967.903	739.301
190.286	14.096	966.831	737.850
191.300	13.971	966.298	736.821
192.315	14.100	965.763	736.919
193.329	14.000	965.642	736.317
194.344	14.114	964.127	735.603
195.359	14.167	963.480	735.278
196.373	14.174	962.909	734.807
197.388	14.227	962.729	734.840
198.402	14.271	962.143	734.521
199.417	14.327	961.034	733.860
200.432	14.329	960.545	733.429
201.446	14.417	960.017	733.348
202.461	14.446	959.656	733.135
203.475	14.401	959.038	732.399
204.490	14.407	958.229	731.746
205.504	14.381	957.146	730.739
206.519	14.438	956.446	730.390
207.534	14.364	956.157	729.778
208.548	14.368	955.314	729.089
209.563	14.404	954.555	728.603
210.577	14.513	953.701	728.361
211.592	14.533	953.222	728.019
212.607	14.448	952.511	727.039
213.621	14.509	951.338	726.349
214.636	14.590	950.631	726.093
215.650	14.451	950.438	725.277
216.665	14.686	949.244	725.323
217.680	14.730	948.411	724.814
218.694	14.631	948.084	724.071
219.709	14.651	947.431	723.597
220.723	14.533	946.642	722.419
221.738	14.582	946.052	722.116
222.753	14.614	945.103	721.467
223.767	14.762	944.412	721.513
224.782	14.744	943.930	721.005
225.796	14.792	943.641	720.927
226.811	14.757	943.006	720.227
227.826	14.777	941.977	719.464
228.840	14.753	941.352	718.819
229.855	14.677	940.527	717.798
230.869	14.828	939.605	717.680
231.884	14.734	939.189	716.897
232.899	14.723	938.282	716.094
233.913	14.722	937.450	715.391
234.928	14.642	937.255	714.836
235.942	14.684	936.459	714.344
236.957	14.717	935.943	714.030
237.972	14.752	935.087	713.460
238.986	14.708	934.588	712.831
240.001	14.795	933.507	712.315
241.015	14.795	933.082	711.927
242.030	14.748	932.993	711.595
243.045	14.859	931.933	711.195
244.059	14.886	931.253	710.730
245.074	14.907	930.638	710.286
246.088	15.008	929.761	709.981
247.103	15.015	928.866	709.266
248.117	15.081	928.404	709.130
249.132	15.028	927.791	708.375
250.147	15.065	927.140	707.971
251.161	15.094	926.618	707.630
252.176	15.162	926.118	707.475
253.190	15.257	925.327	707.209
254.205	15.093	924.947	706.164
255.220	15.304	923.884	706.180
256.234	15.244	923.372	705.474
257.249	15.267	922.734	705.020
258.263	15.256	921.930	704.298
259.278	15.261	921.280	703.760
260.293	15.282	920.487	703.178
261.307	15.329	920.016	702.953
262.322	15.327	919.428	702.434
263.336	15.407	918.405	701.924
264.351	15.456	917.673	701.509
265.366	15.343	917.458	700.810
266.380	15.426	916.581	700.425
267.395	15.347	916.269	699.796
268.409	15.563	915.041	699.695
269.424	15.561	914.357	699.100
270.439	15.473	913.524	698.036
271.453	15.406	912.801	697.143
272.468	15.521	912.229	697.121
273.482	15.389	911.929	696.286
274.497	15.317	911.424	695.539
275.512	15.443	910.496	695.291
276.526	15.418	910.388	695.042
277.541	15.531	909.574	694.829
278.555	15.510	908.804	694.092
279.570	15.655	908.436	694.349
280.585	15.713	907.482	693.798
281.599	15.613	907.130	693.053
282.614	15.631	905.997	692.200
283.628	15.662	905.160	691.627
284.643	15.621	904.406	690.823
285.657	15.674	904.048	690.703
286.672	15.658	903.556	690.203
287.687	15.691	902.841	689.729
288.701	15.702	902.634	689.557
289.716	15.749	901.494	688.817
290.730	15.776	900.985	688.479
291.745	15.730	900.336	687.734
292.760	15.823	899.619	687.504
293.774	15.862	899.561	687.557
294.789	15.862	898.251	686.495
295.803	15.820	897.664	685.814
296.818	15.973	896.954	685.837
297.833	15.785	896.257	684.477
298.847	15.862	895.438	684.104
299.862	15.976	894.676	683.923
300.876	15.997	894.246	683.622
301.891	15.991	893.849	683.230
302.906	15.788	893.504	682.084
303.920	16.035	892.750	682.450
304.935	16.079	892.100	682.070
305.949	16.168	891.434	681.859
306.964	16.117	890.880	681.169
307.979	16.077	890.270	680.480
308.993	16.021	889.864	679.884
310.008	16.238	888.742	679.843
311.022	16.141	888.238	679.005
312.037	16.151	887.682	678.561
313.052	16.196	887.144	678.272
314.066	16.057	886.963	677.514
315.081	16.050	886.403	676.998
316.095	16.093	885.167	676.168
317.110	16.089	884.683	675.720
318.125	16.038	884.259	675.132
319.139	16.072	884.118	675.103
320.154	16.314	883.231	675.334
321.168	16.188	882.795	674.434
322.183	16.104	882.250	673.622
323.197	16.119	881.875	673.336
324.212	16.239	881.495	673.467
325.227	16.138	880.433	672.192
326.241	16.238	879.764	672.021
327.256	16.221	879.040	671.342
328.270	16.230	878.850	671.172
329.285	16.084	878.749	670.455
330.300	16.173	877.534	669.821
331.314	16.214	877.269	669.723
332.329	16.300	876.672	669.550
333.343	16.219	876.308	668.891
334.358	16.311	875.761	668.781
335.373	16.295	875.501	668.456
336.387	16.368	875.046	668.342
337.402	16.423	874.537	668.110
338.416	16.321	874.573	667.674
339.431	16.547	873.667	667.817
340.446	16.522	873.278	667.361
341.460	16.473	872.974	666.877
342.475	16.552	872.314	666.625
343.489	16.595	872.002	666.495
344.504	16.709	871.400	666.426
345.519	16.591	871.273	665.805
346.533	16.696	870.348	665.454
347.548	16.487	870.141	664.413
348.562	16.545	869.351	663.981
349.577	16.684	868.994	664.194
350.592	16.635	868.203	663.340
351.606	16.612	867.197	662.420
352.621	16.485	866.901	661.642
353.635	16.573	866.320	661.481
354.650	16.673	865.584	661.252
355.665	16.764	864.782	660.937
356.679	16.711	864.102	660.151
357.694	16.822	863.804	660.299
358.708	16.779	862.927	659.401
359.723	16.776	862.219	658.791
360.738	16.705	861.499	657.907
361.752	16.695	861.011	657.435
362.767	16.856	860.256	657.428
363.781	16.966	859.814	657.458
364.796	16.887	859.573	656.911
365.810	17.001	858.943	656.812
366.825	16.998	858.731	656.579
367.840	17.111	857.845	656.281
368.854	16.945	857.480	655.300
369.869	17.008	856.978	655.101
370.883	16.923	856.728	654.524
371.898	17.001	856.116	654.299
372.913	17.208	855.618	654.660
373.927	17.019	855.537	653.813
374.942	17.056	855.072	653.543
375.956	17.122	854.636	653.402
376.971	17.078	854.121	652.782
377.986	17.183	853.389	652.569
379.000	17.178	852.860	652.089
380.015	17.310	852.197	652.030
381.029	17.273	851.515	651.310
382.044	17.253	851.045	650.815
383.059	17.295	850.816	650.744
384.073	17.242	850.028	649.879
385.088	17.339	849.234	649.587
386.102	17.200	849.098	648.894
387.117	17.238	848.400	648.446
388.132	17.177	847.898	647.773
389.146	17.338	847.295	647.871
390.161	17.322	846.869	647.425
391.175	17.315	846.332	646.930
392.190	17.349	845.959	646.717
393.205	17.318	845.348	646.075
394.219	17.338	844.956	645.795
395.234	17.381	844.655	645.671
396.248	17.418	844.041	645.286
397.263	17.326	843.526	644.486
398.278	17.362	843.047	644.197
399.292	17.358	842.819	643.952
400.307	17.506	842.116	643.917
401.321	17.355	841.706	642.975
402.336	17.478	841.269	643.051
403.350	17.471	840.790	642.603
404.365	17.497	840.162	642.162
405.380	17.534	839.506	641.743
406.394	17.550	839.390	641.657
407.409	17.435	839.159	640.993
408.423	17.633	838.518	641.190
409.438	17.660	838.292	641.062
410.453	17.624	837.660	640.387
411.467	17.653	837.041	639.967
412.482	17.782	836.594	640.051
413.496	17.739	836.543	639.795
414.511	17.793	835.868	639.426
415.526	17.931	835.266	639.424
416.540	17.767	835.218	638.717
417.555	17.757	834.627	638.171
418.569	17.937	833.820	638.172
419.584	17.798	833.580	637.410
420.599	17.732	833.265	636.866
421.613	96.812	1277.177	1405.530
422.628	83.706	1341.878	1405.627
