DTS Sentinel unit serial number:	SN413079Multiplexer serial number:	ORYXHardware model number:	OX4-SRSoftware version number:	ORYX F/W v4.00 Oryx Data Collector v3.7.2.0data status	okinstallation	princeton_trtdifferential loss correction	single-endedforward channel	channel 1reverse channel	N/Adate	2019/09/14time	05:22:35forward acquisition time	60.00reverse acquisition time	0.00gamma	496.2192k internal	0.2333k external	0.2333temperature offset calibration	1.0077default loss term (dB/km)	0.3790temperature slope calibration	1.0000multiplexer offset coefficient	1.0000multiplexer slope coefficient	1.0000fibre end	0.00T internal ref (°C)	26.92T ext. ref 1 (°C)	3.38T ext. ref 2 (°C)	21.91length (m)	temperature (°C)	Stokes	anti-Stokes-747.200	-200.000	-0.032	0.352
-746.185	-122.539	0.076	0.012
-745.171	-27.572	-0.098	-0.057
-744.156	-84.436	0.066	-0.021
-743.142	324.789	0.055	-0.106
-742.127	-39.876	0.163	0.086
-741.112	-200.000	-0.009	-0.229
-740.098	50.644	-0.040	0.038
-739.083	-27.114	-0.168	0.098
-738.069	-200.000	-0.095	0.614
-737.054	-0.333	-0.024	-0.017
-736.039	-109.535	-0.174	0.037
-735.025	-128.815	-0.195	-0.028
-734.010	201.777	-0.109	-0.170
-732.996	-170.769	0.160	-0.006
-731.981	-113.198	0.227	-0.045
-730.966	248.821	0.092	-0.157
-729.952	800.000	0.050	-0.199
-728.937	3.940	0.136	-0.100
-727.923	246.153	-0.067	-0.113
-726.908	-106.116	-0.368	-0.083
-725.894	24.410	0.278	-0.231
-724.879	125.556	-0.032	0.041
-723.864	800.000	-0.077	-0.240
-722.850	546.660	0.088	0.211
-721.835	-17.595	0.133	-0.084
-720.821	800.000	-0.148	-0.462
-719.806	-121.463	0.320	-0.053
-718.791	-200.000	0.049	0.250
-717.777	-152.892	-0.560	0.040
-716.762	35.834	-0.202	0.179
-715.748	-111.004	0.330	0.068
-714.733	-200.000	-0.024	0.158
-713.718	-122.473	0.279	-0.046
-712.704	-200.000	-0.086	-0.441
-711.689	-179.115	-0.086	-0.002
-710.675	402.694	-0.048	0.101
-709.660	233.426	0.055	-0.091
-708.645	153.803	-0.054	0.074
-707.631	-62.778	-0.263	0.110
-706.616	78.942	-0.117	0.126
-705.602	-200.000	0.040	-0.269
-704.587	800.000	0.059	0.190
-703.572	731.541	-0.181	0.487
-702.558	-11.038	-0.166	-0.110
-701.543	89.477	0.354	-0.396
-700.529	79.457	-0.142	-0.153
-699.514	-157.915	0.168	0.010
-698.499	610.869	-0.009	-0.024
-697.485	-28.506	-0.258	0.149
-696.470	800.000	-0.136	-0.425
-695.456	-200.000	0.062	-0.395
-694.441	557.042	0.066	-0.160
-693.426	-105.609	-0.110	-0.025
-692.412	722.212	0.082	0.218
-691.397	582.660	-0.013	-0.032
-690.383	800.000	0.072	0.246
-689.368	-2.586	-0.040	0.028
-688.354	-39.076	-0.223	-0.118
-687.339	-114.079	-0.167	0.032
-686.324	442.191	0.124	0.272
-685.310	121.502	0.076	0.095
-684.295	-19.606	0.210	0.130
-683.281	-69.901	0.399	0.153
-682.266	25.523	0.156	0.131
-681.251	-115.325	-0.138	-0.026
-680.237	-126.073	0.133	0.020
-679.222	503.862	0.109	-0.253
-678.208	117.463	-0.335	-0.413
-677.193	-159.488	-0.151	0.008
-676.178	-200.000	0.028	-0.567
-675.164	-17.817	-0.120	0.075
-674.149	475.293	-0.066	0.149
-673.135	88.253	-0.080	-0.089
-672.120	-69.826	-0.415	0.159
-671.105	392.388	0.050	-0.104
-670.091	-121.523	-0.102	-0.017
-669.076	-52.249	-0.152	-0.071
-668.062	-91.107	-0.421	0.121
-667.047	118.271	0.168	-0.207
-666.032	449.730	0.103	-0.227
-665.018	2.408	0.250	0.181
-664.003	-200.000	0.023	0.332
-662.989	-200.000	0.024	-0.233
-661.974	308.013	-0.092	0.173
-660.959	-45.391	-0.130	-0.065
-659.945	-174.842	-0.425	0.012
-658.930	-88.377	0.260	0.078
-657.916	61.738	0.136	-0.135
-656.901	147.390	-0.085	-0.115
-655.886	8.836	0.134	-0.101
-654.872	-69.333	0.235	-0.090
-653.857	86.526	-0.150	-0.166
-652.843	-200.000	-0.001	0.123
-651.828	246.605	0.120	0.204
-650.814	-90.508	-0.387	-0.112
-649.799	480.299	-0.238	-0.541
-648.784	523.186	-0.102	0.241
-647.770	222.836	-0.232	-0.375
-646.755	244.037	-0.140	-0.236
-645.741	-59.363	-0.312	-0.134
-644.726	800.000	0.035	-0.138
-643.711	122.950	-0.043	-0.054
-642.697	57.447	0.088	-0.086
-641.682	539.544	-0.098	0.233
-640.668	-42.317	0.001	-0.001
-639.653	800.000	-0.045	0.145
-638.638	-63.400	-0.213	0.088
-637.624	800.000	0.045	-0.187
-636.609	-185.447	0.203	0.003
-635.595	-200.000	-0.014	-0.114
-634.580	-129.036	-0.385	-0.054
-633.565	56.047	0.265	0.257
-632.551	-93.368	0.223	0.062
-631.536	231.067	0.086	-0.141
-630.522	252.817	0.067	-0.115
-629.507	-16.755	-0.463	-0.293
-628.492	-200.000	-0.017	-0.497
-627.478	-171.146	0.282	-0.010
-626.463	-119.283	-0.134	0.023
-625.449	800.000	0.025	-0.103
-624.434	-111.837	0.291	0.059
-623.419	265.137	0.046	0.081
-622.405	-200.000	0.016	-0.396
-621.390	-134.432	-0.131	-0.016
-620.376	-200.000	0.003	0.013
-619.361	-113.862	-0.505	-0.098
-618.346	-200.000	0.019	-0.549
-617.332	-24.979	-0.228	0.135
-616.317	-150.048	0.278	-0.022
-615.303	-200.000	0.050	0.338
-614.288	234.318	-0.275	-0.453
-613.273	-131.347	0.495	0.066
-612.259	258.999	-0.069	-0.119
-611.244	23.946	-0.135	0.111
-610.230	-49.666	-0.185	0.088
-609.215	-37.455	0.448	-0.239
-608.201	-119.694	-0.357	0.062
-607.186	-200.000	0.005	-0.280
-606.171	-66.444	0.451	-0.179
-605.157	274.852	0.117	-0.207
-604.142	374.871	0.088	0.179
-603.128	800.000	-0.099	-0.285
-602.113	-111.858	0.233	-0.047
-601.098	-200.000	0.027	-0.148
-600.084	-127.287	0.088	0.013
-599.069	-200.000	-0.029	-0.273
-598.055	-150.883	0.216	0.016
-597.040	321.428	0.183	-0.347
-596.025	800.000	0.135	-0.380
-595.011	124.510	-0.166	0.209
-593.996	-86.083	0.200	-0.062
-592.982	-173.436	0.040	-0.001
-591.967	275.935	-0.169	0.299
-590.952	800.000	0.016	0.047
-589.938	-130.496	-0.227	-0.031
-588.923	168.245	-0.140	-0.199
-587.909	-200.000	-0.014	-0.083
-586.894	134.898	0.033	-0.043
-585.879	-95.203	-0.395	0.106
-584.865	302.156	-0.109	-0.202
-583.850	100.391	-0.173	0.200
-582.836	-67.296	-0.280	-0.110
-581.821	161.564	0.201	0.281
-580.806	-8.640	0.078	-0.052
-579.792	-200.000	-0.057	0.365
-578.777	-200.000	0.047	0.471
-577.763	711.151	-0.088	-0.233
-576.748	369.036	-0.087	-0.176
-575.733	93.977	-0.097	0.110
-574.719	106.746	-0.041	-0.049
-573.704	205.696	0.214	-0.333
-572.690	-88.217	0.296	0.089
-571.675	436.866	0.038	-0.083
-570.661	-12.395	-0.149	0.097
-569.646	-44.689	0.043	-0.022
-568.631	800.000	-0.079	-0.261
-567.617	68.335	0.052	-0.053
-566.602	-86.535	-0.228	-0.070
-565.588	-77.859	-0.260	-0.090
-564.573	48.409	0.288	-0.269
-563.558	277.500	-0.114	-0.202
-562.544	-40.867	-0.422	0.218
-561.529	-200.000	0.001	0.451
-560.515	361.915	-0.116	0.232
-559.500	-114.075	-0.225	-0.044
-558.485	-36.610	-0.225	-0.121
-557.471	442.001	-0.132	-0.288
-556.456	-183.535	0.157	-0.003
-555.442	161.319	-0.063	-0.088
-554.427	-200.000	0.053	0.471
-553.412	-40.384	-0.252	0.131
-552.398	-130.354	0.144	-0.019
-551.383	-156.842	-0.252	0.015
-550.369	-200.000	0.014	0.232
-549.354	-91.154	0.256	-0.073
-548.339	185.261	0.107	-0.158
-547.325	134.384	-0.023	-0.030
-546.310	-55.731	-0.158	0.070
-545.296	800.000	-0.096	0.280
-544.281	-200.000	-0.023	0.158
-543.266	4.337	-0.299	0.219
-542.252	33.650	-0.245	0.213
-541.237	-41.679	-0.341	-0.175
-540.223	200.347	-0.088	-0.135
-539.208	158.146	0.112	-0.154
-538.193	95.826	-0.127	0.145
-537.179	-101.530	0.055	0.013
-536.164	-200.000	-0.064	0.571
-535.150	-40.113	0.294	0.153
-534.135	-200.000	-0.018	0.221
-533.121	-65.452	0.445	-0.178
-532.106	-91.656	-0.217	0.062
-531.091	-14.199	-0.218	-0.140
-530.077	-200.000	-0.041	-0.317
-529.062	-200.000	0.001	-0.083
-528.048	-200.000	-0.103	-0.486
-527.033	-57.675	-0.454	0.198
-526.018	-107.315	0.225	0.049
-525.004	-9.822	0.196	0.130
-523.989	-8.666	0.121	0.081
-522.975	40.972	-0.217	0.195
-521.960	-106.921	-0.030	0.007
-520.945	-93.449	0.141	0.039
-519.931	-70.122	-0.326	0.123
-518.916	-141.215	0.287	-0.029
-517.902	763.467	0.087	-0.237
-516.887	-200.000	-0.000	-0.117
-515.872	496.357	0.197	-0.452
-514.858	5.309	-0.087	-0.064
-513.843	216.905	0.155	0.246
-512.829	109.670	-0.130	0.156
-511.814	-109.942	-0.075	0.016
-510.799	-200.000	-0.013	-0.148
-509.785	-90.515	0.102	-0.029
-508.770	-36.174	-0.143	0.077
-507.756	-69.337	0.334	0.128
-506.741	-97.097	-0.062	0.016
-505.726	626.878	-0.118	-0.297
-504.712	20.111	-0.123	-0.099
-503.697	-124.711	-0.160	0.025
-502.683	397.428	0.076	-0.159
-501.668	45.065	0.106	-0.098
-500.653	-52.544	-0.236	0.109
-499.639	-86.487	0.123	-0.038
-498.624	159.687	0.149	0.206
-497.610	19.453	0.324	-0.259
-496.595	-200.000	0.010	0.135
-495.581	-32.594	-0.212	0.117
-494.566	-65.497	-0.051	-0.020
-493.551	740.401	-0.003	0.008
-492.537	-200.000	0.051	-0.280
-491.522	140.154	0.261	-0.343
-490.508	681.480	0.175	-0.453
-489.493	-113.132	0.398	0.078
-488.478	365.240	0.036	0.072
-487.464	278.806	-0.150	-0.266
-486.449	-195.750	0.061	0.000
-485.435	118.549	-0.134	-0.165
-484.420	325.110	0.195	-0.372
-483.405	108.682	-0.052	-0.062
-482.391	-23.561	0.113	-0.068
-481.376	159.052	-0.096	0.132
-480.362	800.000	0.100	-0.386
-479.347	-200.000	0.040	0.201
-478.332	-200.000	-0.075	-0.409
-477.318	92.360	0.118	0.132
-476.303	143.147	-0.065	-0.086
-475.289	181.544	0.113	0.166
-474.274	642.655	-0.015	-0.038
-473.259	-79.475	-0.124	0.042
-472.245	-200.000	0.012	-0.114
-471.230	421.203	0.184	0.393
-470.216	2.746	-0.249	0.180
-469.201	-70.252	0.284	0.107
-468.186	800.000	-0.037	-0.155
-467.172	28.856	0.258	0.218
-466.157	-109.378	0.037	-0.008
-465.143	-200.000	0.074	-0.348
-464.128	-27.955	0.226	0.130
-463.113	104.097	0.133	0.155
-462.099	199.536	0.101	-0.154
-461.084	401.944	-0.095	0.198
-460.070	-200.000	0.001	0.151
-459.055	385.554	-0.241	-0.495
-458.040	-200.000	0.056	-0.315
-457.026	800.000	-0.092	-0.260
-456.011	800.000	-0.033	-0.127
-454.997	-200.000	0.045	0.392
-453.982	-28.156	-0.248	0.143
-452.968	-97.361	0.270	0.070
-451.953	-103.483	-0.108	-0.025
-450.938	-112.535	-0.349	0.069
-449.924	94.931	-0.157	0.178
-448.909	389.002	-0.220	0.454
-447.895	-29.105	-0.210	0.120
-446.880	-200.000	0.022	0.222
-445.865	-31.676	0.313	-0.175
-444.851	225.108	0.064	0.103
-443.836	22.907	0.164	-0.134
-442.822	-7.449	0.098	0.066
-441.807	-42.261	-0.523	0.265
-440.792	-77.985	0.369	-0.126
-439.778	34.682	0.221	0.192
-438.763	-200.000	0.031	-0.150
-437.749	-25.458	-0.119	-0.070
-436.734	800.000	0.014	0.048
-435.719	-13.097	0.166	0.107
-434.705	-12.653	-0.156	-0.101
-433.690	-200.000	0.002	-0.312
-432.676	8.354	-0.228	0.170
-431.661	-142.202	0.505	0.050
-430.646	85.655	-0.247	-0.269
-429.632	-52.536	0.165	-0.076
-428.617	800.000	-0.002	0.008
-427.603	-200.000	-0.016	0.193
-426.588	-145.660	0.282	0.025
-425.573	50.367	-0.245	0.230
-424.559	78.272	-0.196	-0.207
-423.544	-119.543	0.255	-0.044
-422.530	204.498	-0.077	0.118
-421.515	-50.372	0.379	-0.178
-420.500	-200.000	-0.040	-0.196
-419.486	-127.587	-0.146	-0.021
-418.471	417.005	-0.097	-0.206
-417.457	710.057	0.026	0.067
-416.442	78.055	-0.111	0.117
-415.428	-195.445	-0.264	-0.002
-414.413	-94.251	0.102	0.028
-413.398	-92.367	0.213	-0.060
-412.384	116.108	-0.163	-0.199
-411.369	3.742	-0.299	-0.216
-410.355	4.217	-0.220	-0.160
-409.340	-110.429	0.134	-0.028
-408.325	35.553	-0.147	0.128
-407.311	79.371	0.137	0.145
-406.296	-200.000	0.050	0.342
-405.282	173.707	0.202	-0.290
-404.267	-200.000	-0.012	-0.316
-403.252	-61.856	0.105	0.044
-402.238	-200.000	0.008	-0.051
-401.223	800.000	-0.061	0.172
-400.209	318.364	-0.014	-0.026
-399.194	381.832	-0.124	0.253
-398.179	-93.976	-0.418	-0.114
-397.165	188.653	0.041	0.061
-396.150	-30.434	0.059	0.033
-395.136	-29.737	-0.574	0.325
-394.121	68.646	-0.121	-0.123
-393.106	217.958	-0.192	0.303
-392.092	80.554	0.231	0.247
-391.077	-68.197	0.126	-0.049
-390.063	91.573	-0.193	0.215
-389.048	-23.121	-0.066	-0.039
-388.033	355.185	0.089	0.176
-387.019	513.323	0.077	0.177
-386.004	40.647	-0.187	0.167
-384.990	751.446	0.108	-0.288
-383.975	10.702	-0.189	-0.143
-382.960	612.297	-0.129	0.319
-381.946	-177.296	0.204	0.005
-380.931	685.399	-0.024	0.061
-379.917	-33.715	-0.307	-0.168
-378.902	-200.000	0.013	0.207
-377.888	792.818	-0.049	-0.134
-376.873	-65.208	-0.239	0.095
-375.858	402.086	0.093	-0.194
-374.844	157.014	0.146	-0.200
-373.829	118.822	0.301	0.369
-372.815	800.000	-0.012	0.050
-371.800	-21.797	0.123	-0.074
-370.785	-31.213	-0.284	-0.159
-369.771	-200.000	0.051	0.356
-368.756	-39.828	-0.231	-0.120
-367.742	251.510	0.185	-0.311
-366.727	38.279	-0.116	-0.103
-365.712	127.957	-0.107	0.135
-364.698	-155.402	-0.079	0.005
-363.683	-17.647	0.245	-0.153
-362.669	0.849	-0.080	-0.057
-361.654	207.125	-0.038	0.059
-360.639	-200.000	0.016	-0.202
-359.625	172.323	0.221	0.315
-358.610	-29.102	0.085	-0.048
-357.596	-34.934	-0.087	-0.047
-356.581	239.432	-0.201	-0.332
-355.566	-200.000	0.049	0.250
-354.552	-72.280	0.267	0.098
-353.537	-101.837	0.296	0.071
-352.523	-91.782	-0.335	0.094
-351.508	-48.901	-0.112	0.053
-350.493	-84.197	0.110	0.034
-349.479	-200.000	0.049	-0.416
-348.464	-200.000	0.020	0.134
-347.450	-162.572	-0.268	-0.013
-346.435	-80.066	0.266	0.088
-345.420	-200.000	-0.041	-0.200
-344.406	-9.333	0.088	-0.058
-343.391	-25.464	0.405	-0.237
-342.377	79.319	0.119	-0.126
-341.362	153.520	0.082	0.111
-340.348	578.955	-0.069	-0.167
-339.333	800.000	0.075	0.262
-338.318	156.078	-0.146	0.200
-337.304	-200.000	0.040	0.224
-336.289	315.857	0.151	0.282
-335.275	-200.000	-0.001	-0.166
-334.260	82.076	0.162	0.174
-333.245	265.554	-0.082	0.141
-332.231	42.463	-0.106	-0.095
-331.216	-200.000	0.026	-0.295
-330.202	-180.584	0.277	-0.006
-329.187	-121.457	0.304	-0.050
-328.172	800.000	-0.076	-0.326
-327.158	134.828	-0.058	-0.074
-326.143	-158.804	0.016	-0.001
-325.129	-153.657	-0.239	0.016
-324.114	-104.385	0.209	-0.048
-323.099	623.682	-0.114	0.285
-322.085	119.224	-0.078	-0.096
-321.070	-123.762	0.176	-0.027
-320.056	115.035	-0.191	0.231
-319.041	410.611	-0.054	-0.114
-318.026	-200.000	0.008	-0.252
-317.012	-200.000	-0.014	-0.095
-315.997	668.466	0.025	0.064
-314.983	-200.000	0.031	0.240
-313.968	800.000	-0.093	0.319
-312.953	-200.000	0.004	0.175
-311.939	-60.512	-0.256	0.108
-310.924	-200.000	0.003	0.264
-309.910	-200.000	0.030	0.257
-308.895	226.337	-0.118	0.189
-307.880	8.695	-0.286	-0.213
-306.866	-200.000	-0.053	0.325
-305.851	120.532	0.251	0.308
-304.837	267.472	-0.194	-0.336
-303.822	42.599	0.164	0.148
-302.807	594.267	0.104	-0.254
-301.793	-134.483	-0.201	0.024
-300.778	134.456	-0.115	0.148
-299.764	-94.269	0.022	0.006
-298.749	-200.000	-0.034	0.155
-297.735	222.888	-0.038	-0.061
-296.720	289.310	0.059	-0.106
-295.705	653.071	0.017	0.042
-294.691	800.000	-0.054	0.163
-293.676	-40.426	0.084	0.043
-292.662	264.883	0.099	0.171
-291.647	423.877	-0.088	0.187
-290.632	-200.000	-0.018	-0.080
-289.618	6.452	-0.230	-0.169
-288.603	-120.544	0.042	0.007
-287.589	633.176	0.036	0.090
-286.574	-22.984	0.486	0.289
-285.559	-38.176	0.073	-0.038
-284.545	-73.730	-0.175	0.063
-283.530	259.840	0.059	-0.101
-282.516	233.631	-0.146	-0.237
-281.501	-145.955	0.115	0.010
-280.486	423.345	0.036	-0.077
-279.472	370.962	0.071	0.143
-278.457	79.743	-0.057	-0.061
-277.443	109.510	-0.082	0.097
-276.428	172.520	-0.072	0.103
-275.413	-50.516	0.223	-0.104
-274.399	-200.000	-0.041	0.263
-273.384	-16.732	0.326	0.204
-272.370	-67.684	0.245	-0.095
-271.355	130.268	0.126	0.160
-270.340	-200.000	-0.031	-0.364
-269.326	86.609	0.077	0.084
-268.311	-19.796	-0.323	-0.197
-267.297	-194.929	0.157	-0.001
-266.282	800.000	0.063	-0.190
-265.267	-169.927	0.138	0.005
-264.253	-87.828	-0.147	0.044
-263.238	25.666	-0.086	-0.071
-262.224	-90.134	0.161	0.046
-261.209	800.000	-0.011	-0.031
-260.195	-83.888	-0.133	0.042
-259.180	525.808	0.161	-0.374
-258.165	314.721	-0.057	0.105
-257.151	-132.004	-0.254	-0.033
-256.136	46.624	0.014	-0.013
-255.122	-200.000	0.011	-0.115
-254.107	-200.000	0.032	-0.190
-253.092	251.947	-0.139	-0.233
-252.078	28.180	0.307	0.256
-251.063	-200.000	-0.014	0.077
-250.049	-79.750	0.163	0.054
-249.034	-7.428	-0.204	0.136
-248.019	-200.000	0.004	0.145
-247.005	-200.000	-0.057	0.268
-245.990	42.746	-0.191	-0.171
-244.976	-34.061	0.160	-0.087
-243.961	-129.725	-0.312	-0.042
-242.946	800.000	0.056	0.224
-241.932	800.000	-0.014	-0.042
-240.917	-200.000	-0.001	0.167
-239.903	11.259	0.075	-0.057
-238.888	-200.000	0.021	0.098
-237.873	-38.294	-0.172	-0.090
-236.859	-124.465	0.253	-0.039
-235.844	800.000	-0.052	-0.185
-234.830	-200.000	0.016	-0.153
-233.815	-71.309	0.230	0.085
-232.800	194.254	-0.042	0.063
-231.786	333.646	-0.022	0.042
-230.771	-142.090	-0.359	0.035
-229.757	-200.000	0.014	0.198
-228.742	-200.000	-0.004	-0.123
-227.727	-10.645	0.310	0.202
-226.713	220.193	0.084	-0.132
-225.698	-200.000	-0.063	0.496
-224.684	123.814	-0.030	-0.037
-223.669	800.000	-0.020	0.070
-222.655	-104.082	-0.113	-0.026
-221.640	-62.212	-0.068	-0.028
-220.625	127.959	-0.289	0.363
-219.611	-58.460	0.220	-0.094
-218.596	53.648	0.171	-0.162
-217.582	89.511	-0.071	-0.078
-216.567	800.000	-0.057	0.185
-215.552	23.932	0.181	0.147
-214.538	171.953	0.082	0.116
-213.523	-65.020	-0.047	-0.019
-212.509	800.000	0.143	0.480
-211.494	132.674	0.113	0.143
-210.479	-38.654	0.264	0.137
-209.465	124.827	-0.182	0.225
-208.450	-1.292	0.186	0.129
-207.436	800.000	-0.048	-0.195
-206.421	427.539	-0.167	0.355
-205.406	800.000	-0.144	0.423
-204.392	-185.006	-0.278	-0.004
-203.377	-200.000	-0.028	-0.142
-202.363	101.641	-0.184	0.211
-201.348	-2.315	0.352	0.243
-200.333	-112.369	-0.122	0.024
-199.319	-119.652	-0.294	-0.050
-198.304	-119.811	-0.086	-0.015
-197.290	159.184	0.212	0.291
-196.275	107.263	0.168	0.196
-195.260	-200.000	-0.079	0.394
-194.246	-191.907	0.309	0.003
-193.231	128.892	0.054	0.068
-192.217	-31.436	0.133	0.074
-191.202	386.848	-0.131	0.266
-190.187	-200.000	0.010	-0.051
-189.173	-76.311	0.266	0.092
-188.158	102.609	0.137	0.157
-187.144	-18.503	0.279	0.171
-186.129	-140.220	0.263	-0.027
-185.114	800.000	0.113	-0.336
-184.100	207.865	0.056	0.086
-183.085	554.207	0.082	-0.195
-182.071	-108.676	0.160	-0.034
-181.056	59.736	-0.132	0.129
-180.042	-51.560	0.160	0.073
-179.027	-94.037	-0.141	-0.038
-178.012	800.000	0.151	0.451
-176.998	800.000	0.011	-0.037
-175.983	-133.062	0.165	0.021
-174.969	274.066	-0.019	-0.033
-173.954	-33.459	0.099	0.054
-172.939	-200.000	-0.013	-0.128
-171.925	-200.000	0.053	-0.340
-170.910	-200.000	-0.006	-0.158
-169.896	213.028	0.171	0.266
-168.881	-36.519	0.202	-0.107
-167.866	275.874	0.192	-0.335
-166.852	49.853	0.077	-0.071
-165.837	163.513	0.156	0.216
-164.823	800.000	0.013	0.046
-163.808	-162.581	-0.208	0.010
-162.793	800.000	0.047	-0.138
-161.779	-96.974	-0.230	-0.059
-160.764	-169.157	0.164	-0.006
-159.750	8.660	-0.189	-0.140
-158.735	259.687	0.098	-0.166
-157.720	201.999	-0.032	-0.048
-156.706	61.842	-0.132	-0.129
-155.691	92.120	-0.135	-0.149
-154.677	94.460	0.158	-0.177
-153.662	73.044	-0.099	-0.101
-152.647	800.000	-0.055	-0.191
-151.633	-153.964	0.124	-0.008
-150.618	24.489	-0.067	-0.055
-149.604	-88.910	0.295	0.086
-148.589	172.869	0.142	-0.201
-147.574	-78.834	-0.249	0.083
-146.560	-39.274	-0.384	0.198
-145.545	-59.681	0.158	0.067
-144.531	-200.000	-0.007	-0.029
-143.516	-50.823	0.107	0.049
-142.502	191.679	-0.052	0.076
-141.487	37.325	-0.143	-0.125
-140.472	800.000	0.024	0.092
-139.458	800.000	0.042	-0.126
-138.443	-99.138	0.352	-0.087
-137.429	-200.000	-0.025	0.177
-136.414	-200.000	-0.035	0.238
-135.399	433.973	-0.175	-0.374
-134.385	44.461	0.289	-0.261
-133.370	-74.214	0.125	-0.045
-132.356	111.030	0.165	-0.196
-131.341	-19.941	-0.125	-0.076
-130.326	87.260	-0.215	0.233
-129.312	206.638	-0.078	0.119
-128.297	-200.000	-0.066	-0.343
-127.283	295.980	0.155	-0.278
-126.268	-200.000	-0.031	-0.149
-125.253	81.821	0.026	0.028
-124.239	-74.109	-0.319	-0.113
-123.224	-54.146	-0.126	0.056
-122.210	-74.792	0.165	-0.058
-121.195	-181.172	0.524	0.010
-120.180	-200.000	0.020	-0.127
-119.166	-167.380	-0.203	-0.008
-118.151	800.000	0.059	-0.245
-117.137	91.307	-0.073	-0.080
-116.122	84.530	0.134	0.144
-115.107	-81.153	0.442	-0.143
-114.093	-128.188	-0.018	-0.003
-113.078	800.000	0.006	-0.016
-112.064	-136.676	0.225	0.026
-111.049	469.487	0.062	0.137
-110.034	-99.483	-0.160	0.040
-109.020	-128.143	-0.057	-0.008
-108.005	-77.421	0.295	0.100
-106.991	298.454	0.076	0.138
-105.976	532.805	-0.062	-0.143
-104.962	49.712	-0.233	-0.215
-103.947	-200.000	0.086	0.375
-102.932	-66.558	-0.246	0.096
-101.918	800.000	0.061	0.216
-100.903	800.000	-0.070	-0.219
-99.889	48.920	-0.134	0.124
-98.874	531.981	-0.026	0.060
-97.859	-125.112	0.225	0.034
-96.845	-7.021	0.134	-0.090
-95.830	-200.000	0.006	-0.296
-94.816	379.680	0.106	0.213
-93.801	49.783	0.177	0.163
-92.786	-12.174	0.124	0.079
-91.772	-130.178	0.138	-0.018
-90.757	-200.000	-0.012	0.221
-89.743	-104.755	-0.297	0.067
-88.728	-47.649	-0.272	0.129
-87.713	73.306	0.173	0.178
-86.699	-185.551	0.309	0.005
-85.684	-38.484	-0.504	0.261
-84.670	192.048	0.155	-0.229
-83.655	-8.333	-0.069	0.046
-82.640	98.610	-0.102	0.116
-81.626	-134.908	-0.140	0.017
-80.611	11.740	0.060	-0.045
-79.597	-142.947	-0.082	-0.008
-78.582	48.692	0.056	0.052
-77.567	-161.713	-0.212	-0.011
-76.553	800.000	0.057	0.220
-75.538	-98.149	-0.253	-0.064
-74.524	-54.961	0.102	0.045
-73.509	-123.606	-0.215	-0.033
-72.494	100.853	0.203	0.232
-71.480	-200.000	0.002	-0.268
-70.465	-200.000	0.031	-0.235
-69.451	-39.272	0.195	-0.100
-68.436	-67.830	0.112	0.043
-67.422	-88.658	0.360	-0.105
-66.407	-106.307	0.161	-0.035
-65.392	800.000	-0.070	-0.196
-64.378	-92.486	0.305	0.084
-63.363	-25.650	0.106	0.061
-62.349	353.142	0.105	0.205
-61.334	-28.943	-1.349	-0.759
-60.319	-2.021	0.501	0.345
-59.305	-200.000	-0.200	-0.935
-58.290	182.575	0.884	1.276
-57.276	-200.000	0.275	1.499
-56.261	-200.000	116.214	664.454
-55.246	530.897	1532.485	3545.905
-54.232	175.883	2705.953	3843.510
-53.217	108.988	2161.900	2530.531
-52.203	38.801	1598.845	1397.269
-51.188	30.127	1343.250	1121.645
-50.173	27.405	1304.802	1073.472
-49.159	55.582	1362.705	1291.485
-48.144	53.241	1376.389	1290.358
-47.130	30.503	1330.251	1112.865
-46.115	27.103	1312.806	1078.096
-45.100	26.860	1308.125	1072.767
-44.086	26.782	1305.225	1069.890
-43.071	26.755	1302.839	1067.732
-42.057	26.736	1300.953	1066.034
-41.042	26.853	1299.014	1065.086
-40.027	26.797	1297.798	1063.721
-39.013	26.675	1295.807	1061.330
-37.998	26.849	1293.575	1060.476
-36.984	26.961	1291.933	1059.741
-35.969	26.914	1290.392	1058.164
-34.954	26.852	1289.004	1056.621
-33.940	26.904	1287.386	1055.557
-32.925	26.974	1286.206	1054.951
-31.911	26.968	1284.569	1053.535
-30.896	27.055	1282.557	1052.349
-29.881	27.073	1281.463	1051.511
-28.867	27.066	1280.206	1050.401
-27.852	26.948	1279.177	1048.833
-26.838	27.021	1277.529	1047.861
-25.823	26.951	1276.368	1046.460
-24.809	26.991	1274.976	1045.508
-23.794	27.049	1273.691	1044.745
-22.779	26.966	1272.001	1042.845
-21.765	27.089	1270.455	1042.238
-20.750	27.097	1269.590	1041.532
-19.736	26.905	1268.861	1039.793
-18.721	26.923	1267.315	1038.591
-17.706	26.894	1266.588	1037.784
-16.692	26.883	1265.102	1036.466
-15.677	26.999	1263.737	1035.968
-14.663	26.943	1262.689	1034.750
-13.648	26.910	1261.956	1033.916
-12.633	26.793	1260.891	1032.340
-11.619	26.782	1260.282	1031.734
-10.604	26.885	1259.093	1031.307
-9.590	26.891	1258.099	1030.490
-8.575	26.891	1256.923	1029.482
-7.560	26.875	1256.268	1028.817
-6.546	26.770	1255.453	1027.509
-5.531	26.822	1254.619	1027.084
-4.517	26.879	1253.617	1026.545
-3.502	26.905	1252.938	1026.096
-2.487	26.922	1251.554	1025.015
-1.473	26.753	1247.955	1021.076
-0.458	25.330	1233.391	1001.194
0.556	22.393	1215.827	964.801
1.571	18.639	1221.918	948.830
2.586	17.771	1236.995	955.590
3.600	17.492	1224.414	944.238
4.615	13.004	1152.557	865.263
5.629	6.247	1081.637	778.604
6.644	3.338	1064.128	751.750
7.659	3.379	1061.143	749.778
8.673	3.332	1059.833	748.556
9.688	3.481	1058.575	748.326
10.702	3.534	1056.778	747.246
11.717	7.247	1061.430	768.505
12.731	14.393	1071.916	810.917
13.746	18.809	1077.435	836.575
14.761	19.457	1077.664	839.833
15.775	18.754	1075.838	834.921
16.790	17.622	1074.065	827.971
17.804	16.992	1072.311	823.492
18.819	16.679	1071.211	821.057
19.834	16.456	1070.625	819.454
20.848	16.294	1069.803	817.966
21.863	16.254	1068.964	817.059
22.877	16.008	1068.049	815.096
23.892	15.888	1067.631	814.126
24.907	15.890	1066.744	813.389
25.921	15.872	1065.660	812.403
26.936	15.908	1064.821	811.863
27.950	15.929	1063.177	810.637
28.965	16.101	1061.663	810.239
29.980	16.316	1060.011	809.939
30.994	16.334	1059.001	809.180
32.009	16.399	1057.909	808.589
33.023	16.292	1056.541	806.960
34.038	16.126	1056.213	805.843
35.053	16.037	1055.320	804.666
36.067	16.047	1054.165	803.762
37.082	16.059	1053.469	803.219
38.096	16.383	1052.400	803.873
39.111	16.284	1052.066	803.076
40.126	16.025	1050.730	800.754
41.140	15.911	1048.939	798.778
42.155	15.775	1048.167	797.476
43.169	15.732	1046.939	796.265
44.184	15.873	1045.462	795.740
45.199	15.776	1044.815	794.718
46.213	15.918	1044.020	794.715
47.228	16.041	1043.412	794.762
48.242	16.106	1041.682	793.678
49.257	16.091	1041.176	793.152
50.271	16.195	1039.947	792.635
51.286	16.205	1039.385	792.181
52.301	16.166	1037.942	790.831
53.315	15.980	1037.357	789.445
54.330	15.889	1036.521	788.310
55.344	15.892	1035.385	787.391
56.359	15.871	1034.511	786.557
57.374	15.864	1033.482	785.675
58.388	15.863	1032.523	784.869
59.403	15.767	1032.104	784.034
60.417	15.783	1031.413	783.513
61.432	15.847	1030.022	782.686
62.447	15.767	1029.661	781.969
63.461	15.687	1028.859	780.924
64.476	15.616	1027.518	779.507
65.490	15.611	1026.551	778.679
66.505	15.685	1025.858	778.428
67.520	15.662	1025.375	777.886
68.534	15.627	1024.749	777.179
69.549	15.815	1023.834	777.286
70.563	15.560	1022.924	775.348
71.578	15.587	1021.835	774.582
72.593	15.659	1021.015	774.224
73.607	15.519	1021.055	773.540
74.622	15.454	1020.469	772.726
75.636	15.528	1019.593	772.335
76.651	15.610	1018.906	772.124
77.666	15.564	1018.210	771.318
78.680	15.674	1017.461	771.184
79.695	15.684	1016.691	770.580
80.709	15.855	1016.151	770.883
81.724	15.935	1015.405	770.616
82.739	15.893	1014.736	769.852
83.753	16.023	1013.990	769.811
84.768	16.269	1013.508	770.498
85.782	16.262	1012.553	769.674
86.797	16.079	1011.816	768.211
87.812	16.015	1011.020	767.246
88.826	16.056	1009.701	766.366
89.841	16.239	1008.343	766.097
90.855	16.295	1007.746	765.827
91.870	16.258	1006.878	764.935
92.884	16.276	1006.045	764.314
93.899	16.300	1005.269	763.766
94.914	16.319	1004.354	763.088
95.928	16.307	1003.894	762.619
96.943	16.236	1002.587	761.239
97.957	16.183	1002.026	760.505
98.972	16.152	1000.839	759.397
99.987	16.249	1000.115	759.218
101.001	16.267	998.889	758.301
102.016	16.260	998.149	757.640
103.030	16.289	997.005	756.835
104.045	16.362	996.455	756.676
105.060	16.219	995.500	755.245
106.074	15.920	994.877	753.367
107.089	15.699	994.135	751.751
108.103	15.746	992.674	750.792
109.118	15.775	992.126	750.440
110.133	15.903	990.541	749.746
111.147	15.864	989.808	748.948
112.162	15.804	989.330	748.256
113.176	16.014	988.579	748.554
114.191	15.982	987.962	747.879
115.206	15.934	987.219	747.036
116.220	15.905	986.421	746.236
117.235	15.814	985.627	745.170
118.249	15.801	984.629	744.290
119.264	15.787	983.862	743.584
120.279	15.660	983.263	742.504
121.293	15.839	981.544	741.930
122.308	15.884	980.556	741.313
123.322	15.619	979.952	739.625
124.337	15.638	978.996	738.922
125.352	15.658	978.085	738.256
126.366	15.684	976.951	737.451
127.381	15.619	975.795	736.227
128.395	15.620	975.166	735.692
129.410	15.757	974.299	735.573
130.424	15.837	973.329	735.124
131.439	15.881	972.791	734.846
132.454	15.832	972.276	734.179
133.468	16.006	970.379	733.438
134.483	16.019	969.890	733.058
135.497	15.968	969.217	732.266
136.512	15.875	968.661	731.374
137.527	16.108	967.052	731.108
138.541	15.880	966.998	730.012
139.556	15.990	966.237	729.849
140.570	16.138	965.660	729.991
141.585	16.258	964.696	729.715
142.600	16.312	963.951	729.322
143.614	16.244	962.893	728.161
144.629	16.352	962.380	728.175
145.643	16.374	961.336	727.415
146.658	16.348	960.060	726.275
147.673	16.199	959.379	725.054
148.687	15.949	958.557	723.297
149.702	15.983	957.710	722.737
150.716	15.862	956.975	721.602
151.731	15.997	956.381	721.669
152.746	16.106	955.625	721.500
153.760	16.105	954.662	720.703
154.775	16.187	954.554	720.908
155.789	16.233	953.680	720.383
156.804	16.228	953.022	719.798
157.819	16.311	952.439	719.651
158.833	16.409	951.737	719.471
159.848	16.472	950.956	719.086
160.862	16.262	950.015	717.418
161.877	16.174	948.734	716.014
162.892	16.268	947.382	715.329
163.906	16.036	947.069	714.048
164.921	16.023	946.259	713.319
165.935	16.115	945.040	712.725
166.950	16.112	944.667	712.366
167.964	16.263	943.629	712.160
168.979	16.185	942.648	711.028
169.994	16.072	941.988	709.992
171.008	16.163	941.163	709.689
172.023	16.401	940.515	710.136
173.037	16.462	939.855	709.832
174.052	16.319	938.972	708.505
175.067	16.161	938.158	707.165
176.081	15.984	937.889	706.158
177.096	16.107	937.141	706.045
178.110	16.107	936.800	705.725
179.125	16.192	935.951	705.379
180.140	16.136	935.499	704.744
181.154	16.344	935.228	705.348
182.169	16.362	934.548	704.844
183.183	16.393	934.311	704.735
184.198	16.451	933.264	704.121
185.213	16.537	932.219	703.632
186.227	16.504	931.827	703.133
187.242	16.555	931.465	703.012
188.256	16.523	930.943	702.422
189.271	16.617	930.137	702.142
190.286	16.393	929.062	700.339
191.300	16.082	928.159	698.308
192.315	16.108	927.073	697.537
193.329	16.239	926.683	697.723
194.344	16.205	926.499	697.385
195.359	16.364	925.739	697.408
196.373	16.514	925.223	697.576
197.388	16.654	925.209	698.081
198.402	16.653	924.370	697.383
199.417	16.782	923.644	697.304
200.432	16.950	923.042	697.478
201.446	16.877	923.031	697.106
202.461	16.880	922.452	696.620
203.475	16.758	922.147	695.829
204.490	16.638	920.487	694.021
205.504	16.782	920.102	694.259
206.519	16.725	919.296	693.355
207.534	16.702	918.398	692.525
208.548	16.773	918.174	692.585
209.563	16.589	917.459	691.233
210.577	16.666	916.858	691.034
211.592	16.894	916.009	691.262
212.607	17.017	915.345	691.200
213.621	16.928	914.776	690.345
214.636	16.855	913.901	689.330
215.650	16.966	913.180	689.174
216.665	16.882	912.902	688.564
217.680	16.929	912.290	688.229
218.694	17.099	911.273	688.094
219.709	16.998	911.147	687.525
220.723	16.942	910.715	686.914
221.738	17.028	909.155	686.024
222.753	17.049	908.828	685.801
223.767	17.243	907.925	685.843
224.782	17.061	907.969	685.081
225.796	17.168	907.515	685.107
226.811	17.162	906.693	684.401
227.826	17.082	905.630	683.220
228.840	16.953	904.849	682.049
229.855	16.868	904.068	681.058
230.869	16.888	903.523	680.668
231.884	16.975	902.709	680.343
232.899	17.020	901.893	679.847
233.913	16.826	901.303	678.568
234.928	16.947	900.411	678.321
235.942	16.892	900.050	677.767
236.957	16.731	899.825	676.895
237.972	16.836	898.896	676.555
238.986	16.870	898.135	676.059
240.001	16.803	897.710	675.410
241.015	16.988	897.042	675.584
242.030	17.003	896.472	675.157
243.045	16.938	896.041	674.514
244.059	16.945	895.810	674.308
245.074	17.169	894.679	674.285
246.088	17.269	893.656	673.852
247.103	17.230	893.438	673.476
248.117	17.399	893.098	673.827
249.132	17.611	892.815	674.394
250.147	17.695	892.156	674.167
251.161	17.554	891.653	673.172
252.176	17.665	890.945	673.015
253.190	17.586	890.267	672.133
254.205	17.788	889.571	672.345
255.220	17.778	889.030	671.834
256.234	17.686	888.457	670.981
257.249	17.728	887.331	670.238
258.263	17.622	887.059	669.557
259.278	17.709	886.108	669.121
260.293	17.816	885.532	669.045
261.307	17.829	885.157	668.755
262.322	17.734	884.560	667.871
263.336	18.082	883.280	668.206
264.351	17.946	882.984	667.391
265.366	17.895	882.428	666.715
266.380	17.864	882.015	666.221
267.395	17.882	880.786	665.303
268.409	17.934	880.226	665.025
269.424	17.896	879.437	664.223
270.439	17.749	878.845	663.145
271.453	17.719	878.197	662.481
272.468	17.727	878.248	662.490
273.482	17.730	877.654	661.998
274.497	17.688	876.804	661.135
275.512	17.763	875.893	660.679
276.526	17.531	876.169	659.928
277.541	17.779	875.704	660.482
278.555	17.776	875.086	659.947
279.570	18.068	874.042	660.227
280.585	17.988	873.247	659.260
281.599	18.013	872.300	658.584
282.614	17.928	871.535	657.619
283.628	18.097	870.734	657.608
284.643	18.117	870.274	657.279
285.657	17.957	870.146	656.511
286.672	18.008	869.433	656.111
287.687	17.883	868.509	654.875
288.701	18.033	868.285	655.224
289.716	18.025	867.684	654.682
290.730	18.010	866.794	653.892
291.745	18.064	866.392	653.739
292.760	18.257	865.660	653.865
293.774	18.372	865.028	653.768
294.789	18.262	864.511	652.901
295.803	17.988	863.878	651.320
296.818	17.982	863.049	650.616
297.833	17.954	862.814	650.273
298.847	18.053	861.716	649.764
299.862	18.090	861.596	649.758
300.876	18.186	860.723	649.406
301.891	18.259	860.217	649.246
302.906	18.267	859.831	648.928
303.920	18.444	859.436	649.241
304.935	18.502	858.633	648.799
305.949	18.275	858.669	647.907
306.964	18.412	857.132	647.207
307.979	18.335	856.799	646.609
308.993	18.592	855.957	646.886
310.008	18.426	855.693	646.004
311.022	18.249	855.202	644.908
312.037	18.251	854.871	644.610
313.052	18.312	853.944	644.082
314.066	18.266	853.295	643.364
315.081	18.140	852.815	642.472
316.095	18.188	852.103	642.059
317.110	18.199	851.310	641.445
318.125	18.165	851.082	641.088
319.139	18.241	850.621	640.969
320.154	18.196	850.195	640.424
321.168	18.363	849.417	640.404
322.183	18.357	848.926	639.954
323.197	18.212	848.635	639.138
324.212	18.332	847.939	639.003
325.227	18.406	847.347	638.777
326.241	18.235	846.711	637.606
327.256	18.323	846.075	637.397
328.270	18.261	845.441	636.631
329.285	18.202	845.333	636.276
330.300	18.217	844.635	635.751
331.314	18.400	843.984	635.881
332.329	18.470	843.817	635.962
333.343	18.483	843.376	635.621
334.358	18.534	842.984	635.458
335.373	18.587	842.812	635.469
336.387	18.552	842.402	634.974
337.402	18.462	842.553	634.697
338.416	18.769	841.509	634.990
339.431	18.824	841.147	634.863
340.446	18.747	841.194	634.560
341.460	18.884	840.445	634.445
342.475	19.080	839.867	634.673
343.489	18.938	839.908	634.123
344.504	19.015	839.076	633.725
345.519	19.188	838.617	633.958
346.533	18.964	838.165	632.736
347.548	18.914	837.500	631.996
348.562	18.810	836.620	630.894
349.577	18.683	836.225	630.074
350.592	18.601	835.510	629.178
351.606	18.697	834.877	628.997
352.621	18.793	834.102	628.709
353.635	18.746	833.630	628.126
354.650	18.841	832.993	627.939
355.665	18.832	832.384	627.389
356.679	19.101	831.646	627.760
357.694	18.896	831.345	626.728
358.708	18.890	830.419	625.953
359.723	19.052	829.945	626.131
360.738	18.965	829.443	625.380
361.752	18.936	828.941	624.839
362.767	19.058	828.836	625.150
363.781	19.197	827.985	624.958
364.796	19.211	827.796	624.810
365.810	19.243	827.680	624.783
366.825	19.491	826.897	625.034
367.840	19.337	826.499	624.122
368.854	19.304	825.938	623.523
369.869	19.159	825.152	622.349
370.883	19.301	824.951	622.656
371.898	19.424	824.601	622.783
372.913	19.394	824.230	622.338
373.927	19.279	823.685	621.457
374.942	19.385	823.133	621.368
375.956	19.533	822.814	621.603
376.971	19.509	822.280	621.061
377.986	19.517	822.051	620.860
379.000	19.623	821.247	620.580
380.015	19.494	820.749	619.685
381.029	19.543	819.975	619.220
382.044	19.570	819.259	618.723
383.059	19.547	819.026	618.411
384.073	19.350	818.567	617.303
385.088	19.431	817.747	616.919
386.102	19.328	817.505	616.315
387.117	19.404	816.577	615.832
388.132	19.227	816.456	615.054
389.146	19.472	815.449	615.116
390.161	19.607	815.038	615.230
391.175	19.584	814.923	615.008
392.190	19.407	814.127	613.722
393.205	19.460	813.462	613.355
394.219	19.458	813.577	613.380
395.234	19.262	813.156	612.313
396.248	19.346	812.561	612.110
397.263	19.283	811.947	611.369
398.278	19.318	811.300	610.951
399.292	19.322	811.042	610.716
400.307	19.207	810.541	609.880
401.321	19.366	810.017	609.993
402.336	19.365	809.637	609.648
403.350	19.473	809.192	609.641
404.365	19.547	808.746	609.513
405.380	19.748	808.261	609.803
406.394	19.783	807.985	609.664
407.409	19.932	807.557	609.811
408.423	19.851	807.590	609.498
409.438	19.803	807.284	609.044
410.453	19.860	806.234	608.397
411.467	20.068	805.839	608.776
412.482	19.994	805.787	608.425
413.496	20.168	805.253	608.576
414.511	20.075	805.118	608.097
415.526	19.946	804.293	606.967
416.540	19.906	804.000	606.550
417.555	19.965	803.429	606.272
418.569	20.147	803.142	606.638
419.584	20.311	802.479	606.660
420.599	20.044	802.372	605.590
421.613	161.398	1373.336	1797.376
422.628	140.163	1456.514	1797.454
