DTS Sentinel unit serial number:	SN413079Multiplexer serial number:	ORYXHardware model number:	OX4-SRSoftware version number:	ORYX F/W v4.00 Oryx Data Collector v3.7.2.0data status	okinstallation	princeton_trtdifferential loss correction	single-endedforward channel	channel 1reverse channel	N/Adate	2019/09/12time	05:04:11forward acquisition time	60.00reverse acquisition time	0.00gamma	496.2192k internal	0.2322k external	0.2322temperature offset calibration	1.0059default loss term (dB/km)	0.3790temperature slope calibration	1.0000multiplexer offset coefficient	1.0000multiplexer slope coefficient	1.0000fibre end	0.00T internal ref (°C)	31.75T ext. ref 1 (°C)	1.71T ext. ref 2 (°C)	27.08length (m)	temperature (°C)	Stokes	anti-Stokes-747.200	423.638	-0.126	-0.274
-746.185	-200.000	-0.045	0.262
-745.171	290.671	-0.070	-0.128
-744.156	80.805	-0.324	0.353
-743.142	800.000	0.134	0.432
-742.127	-200.000	0.024	0.223
-741.112	209.636	-0.118	-0.186
-740.098	-77.686	0.247	0.086
-739.083	-147.349	0.133	0.011
-738.069	36.151	-0.344	0.306
-737.054	-100.526	0.443	-0.111
-736.039	361.152	0.190	0.384
-735.025	65.450	0.137	-0.140
-734.010	-103.622	-0.394	-0.093
-732.996	-111.551	0.135	-0.028
-731.981	-173.293	0.146	-0.004
-730.966	-54.672	0.053	0.024
-729.952	800.000	-0.033	-0.113
-728.937	-19.570	-0.193	-0.121
-727.923	-50.857	-0.270	-0.128
-726.908	-200.000	0.021	-0.196
-725.894	67.757	-0.436	-0.450
-724.879	305.843	-0.100	-0.188
-723.864	0.826	-0.166	0.120
-722.850	40.901	-0.188	0.171
-721.835	427.196	-0.053	-0.115
-720.821	106.716	-0.183	-0.220
-719.806	800.000	-0.104	-0.333
-718.791	-54.249	-0.270	-0.124
-717.777	-61.837	0.037	0.016
-716.762	-132.269	-0.527	-0.069
-715.748	800.000	0.050	-0.198
-714.733	-100.472	-0.113	0.028
-713.718	160.821	-0.164	-0.231
-712.704	24.998	-0.056	0.047
-711.689	-200.000	-0.012	-0.501
-710.675	-200.000	-0.028	0.324
-709.660	-152.099	0.412	-0.030
-708.645	-62.252	0.074	0.031
-707.631	232.401	-0.167	-0.277
-706.616	-2.655	0.133	-0.094
-705.602	58.672	-0.265	-0.262
-704.587	26.872	-0.106	0.090
-703.572	157.139	-0.135	-0.189
-702.558	-79.093	-0.112	-0.038
-701.543	87.465	-0.035	0.039
-700.529	-166.983	-0.207	-0.009
-699.514	97.602	0.161	0.187
-698.499	-59.122	-0.252	-0.109
-697.485	42.551	-0.295	-0.271
-696.470	446.237	0.067	-0.150
-695.456	415.146	0.043	0.092
-694.441	626.748	0.086	-0.219
-693.426	63.628	-0.124	0.126
-692.412	-200.000	0.004	0.185
-691.397	-98.913	0.323	0.083
-690.383	-47.530	-0.294	-0.144
-689.368	87.682	-0.059	0.066
-688.354	74.272	0.235	-0.249
-687.339	-98.040	-0.073	0.019
-686.324	-151.840	-0.144	-0.011
-685.310	-73.209	-0.188	0.069
-684.295	-174.471	0.264	-0.008
-683.281	123.352	-0.221	0.279
-682.266	-27.553	-0.310	-0.181
-681.251	800.000	0.042	-0.129
-680.237	5.432	0.206	-0.153
-679.222	-61.417	-0.253	-0.107
-678.208	9.872	-0.099	-0.076
-677.193	126.535	-0.256	0.327
-676.178	176.370	-0.157	0.229
-675.164	40.068	-0.336	-0.304
-674.149	800.000	-0.008	0.034
-673.135	-139.647	-0.231	-0.025
-672.120	-1.296	-0.368	-0.262
-671.105	527.585	0.069	0.164
-670.091	-200.000	-0.011	0.093
-669.076	-21.485	0.094	0.057
-668.062	-31.451	-0.385	-0.218
-667.047	308.993	0.087	0.164
-666.032	-125.081	-0.170	-0.026
-665.018	-36.075	-0.295	0.160
-664.003	-200.000	0.029	0.172
-662.989	800.000	-0.049	0.157
-661.974	440.987	-0.151	0.333
-660.959	351.067	0.066	0.133
-659.945	355.351	0.028	0.057
-658.930	-155.608	-0.280	-0.018
-657.916	497.168	-0.145	0.336
-656.901	73.848	-0.121	0.128
-655.886	-87.139	-0.173	-0.053
-654.872	-200.000	-0.007	-0.204
-653.857	125.642	-0.192	0.244
-652.843	-200.000	0.010	0.214
-651.828	-113.188	0.210	-0.042
-650.814	107.854	-0.217	0.261
-649.799	-200.000	0.011	0.063
-648.784	163.856	-0.162	-0.230
-647.770	358.710	-0.075	0.150
-646.755	-92.720	-0.177	0.050
-645.741	181.521	0.127	-0.189
-644.726	91.426	-0.088	0.100
-643.711	-200.000	-0.002	-0.191
-642.697	146.320	-0.036	0.048
-641.682	22.244	0.259	-0.213
-640.668	277.418	0.036	0.064
-639.653	0.091	-0.088	0.063
-638.638	-140.222	0.182	-0.019
-637.624	-200.000	-0.034	0.217
-636.609	-154.962	0.328	-0.022
-635.595	800.000	0.091	-0.320
-634.580	38.794	0.278	0.250
-633.565	-96.776	0.063	-0.017
-632.551	-52.597	-0.260	0.121
-631.536	-200.000	0.016	-0.332
-630.522	74.864	0.112	-0.119
-629.507	-70.454	-0.151	-0.057
-628.492	78.891	-0.154	0.166
-627.478	-200.000	-0.015	-0.077
-626.463	-54.132	-0.216	-0.099
-625.449	-84.292	0.192	-0.061
-624.434	-200.000	0.031	0.251
-623.419	800.000	-0.107	-0.421
-622.405	-138.189	0.034	-0.004
-621.390	-60.836	-0.142	0.060
-620.376	-200.000	-0.030	0.344
-619.361	4.915	-0.138	0.102
-618.346	63.381	-0.043	0.043
-617.332	184.920	-0.252	-0.376
-616.317	-63.061	0.226	0.094
-615.303	-38.322	-0.393	0.209
-614.288	-66.030	0.157	-0.063
-613.273	473.942	-0.119	0.269
-612.259	121.938	0.109	0.137
-611.244	-19.013	-0.395	0.247
-610.230	152.387	-0.230	-0.316
-609.215	800.000	0.042	0.117
-608.201	113.651	0.223	-0.272
-607.186	-55.260	-0.225	0.102
-606.171	-200.000	0.057	0.251
-605.157	-25.777	0.116	0.069
-604.142	-154.911	-0.099	-0.007
-603.128	-124.843	0.200	0.031
-602.113	329.547	0.070	-0.136
-601.098	93.050	-0.278	0.316
-600.084	-127.628	-0.061	0.009
-599.069	-24.380	-0.224	-0.134
-598.055	-44.884	0.312	-0.156
-597.040	-103.616	-0.062	0.015
-596.025	-120.720	-0.108	-0.018
-595.011	0.321	0.168	-0.121
-593.996	637.099	0.040	0.103
-592.982	75.872	-0.054	-0.057
-591.967	13.553	-0.141	0.110
-590.952	-74.829	-0.356	0.128
-589.938	800.000	0.013	0.054
-588.923	263.707	-0.055	0.095
-587.909	-200.000	-0.004	-0.200
-586.894	305.961	0.112	0.208
-585.879	-34.703	-0.155	0.085
-584.865	210.321	-0.038	0.060
-583.850	-28.620	-0.185	-0.107
-582.836	355.470	-0.182	-0.363
-581.821	57.264	-0.260	-0.254
-580.806	-140.278	-0.253	0.027
-579.792	49.575	-0.166	-0.157
-578.777	118.637	0.175	-0.216
-577.763	-200.000	0.015	-0.178
-576.748	800.000	-0.132	-0.556
-575.733	800.000	-0.123	0.442
-574.719	-200.000	0.010	0.183
-573.704	201.248	0.208	0.321
-572.690	-200.000	-0.035	-0.244
-571.675	698.363	-0.074	0.196
-570.661	47.478	0.250	-0.234
-569.646	-200.000	-0.043	-0.407
-568.631	-140.453	0.278	0.029
-567.617	317.688	0.095	0.181
-566.602	-200.000	-0.041	0.432
-565.588	-74.097	0.173	-0.063
-564.573	247.555	0.126	-0.214
-563.558	-200.000	-0.030	-0.205
-562.544	-200.000	-0.256	-0.001
-561.529	-145.909	0.211	-0.019
-560.515	548.676	-0.140	-0.336
-559.500	-150.579	0.233	-0.018
-558.485	92.209	0.082	-0.092
-557.471	-200.000	0.102	-0.551
-556.456	800.000	0.124	-0.353
-555.442	-18.787	0.159	-0.099
-554.427	-41.682	0.177	-0.091
-553.412	-12.524	-0.274	-0.179
-552.398	800.000	0.058	-0.200
-551.383	-31.219	0.080	0.045
-550.369	-142.034	-0.238	0.024
-549.354	611.567	0.091	0.227
-548.339	-40.596	0.210	-0.109
-547.325	265.219	0.019	-0.034
-546.310	-115.794	-0.015	-0.003
-545.296	-19.173	-0.190	0.119
-544.281	-31.419	0.092	0.052
-543.266	243.278	0.082	-0.138
-542.252	800.000	0.111	0.438
-541.237	-17.193	-0.145	0.091
-540.223	800.000	-0.138	0.395
-539.208	106.116	-0.134	-0.159
-538.193	257.470	0.128	-0.220
-537.179	-140.087	0.262	0.028
-536.164	29.196	-0.218	-0.185
-535.150	-147.456	-0.437	-0.037
-534.135	10.756	-0.234	-0.179
-533.121	37.407	-0.340	-0.302
-532.106	-200.000	0.005	-0.288
-531.091	-200.000	-0.039	0.214
-530.077	-200.000	0.016	-0.124
-529.062	-105.750	0.195	0.044
-528.048	-18.099	0.217	-0.136
-527.033	54.307	0.032	0.031
-526.018	-70.737	0.239	-0.090
-525.004	800.000	-0.147	-0.508
-523.989	21.574	0.168	-0.137
-522.975	-41.452	-0.245	0.126
-521.960	800.000	-0.053	0.220
-520.945	70.654	0.142	-0.147
-519.931	362.665	-0.170	-0.341
-518.916	-83.803	0.376	0.120
-517.902	49.148	0.339	0.319
-516.887	-75.846	-0.171	0.061
-515.872	-41.450	-0.216	-0.111
-514.858	38.674	-0.240	-0.215
-513.843	-103.825	0.055	-0.013
-512.829	-62.640	-0.345	-0.143
-511.814	57.701	-0.060	0.058
-510.799	290.858	0.076	-0.138
-509.785	285.757	-0.189	0.341
-508.770	-20.638	0.194	-0.119
-507.756	246.898	-0.242	0.409
-506.741	-200.000	0.009	0.048
-505.726	-161.461	0.520	0.027
-504.712	129.477	-0.129	-0.165
-503.697	438.479	-0.077	0.169
-502.683	-66.581	-0.394	-0.156
-501.668	-75.231	-0.146	0.052
-500.653	100.668	-0.059	-0.069
-499.639	-29.990	0.282	-0.161
-498.624	497.599	0.083	-0.191
-497.610	-200.000	0.019	0.109
-496.595	132.906	0.053	0.069
-495.581	800.000	-0.079	-0.289
-494.566	158.976	0.109	-0.152
-493.551	138.653	-0.112	0.148
-492.537	-110.977	-0.135	-0.028
-491.522	22.132	-0.055	0.045
-490.508	-41.168	-0.111	0.057
-489.493	-200.000	0.046	0.205
-488.478	175.110	0.111	-0.160
-487.464	63.029	0.058	0.058
-486.449	407.058	-0.071	-0.151
-485.435	-163.994	0.171	0.008
-484.420	800.000	-0.059	0.180
-483.405	-44.798	0.265	-0.132
-482.391	-18.834	-0.275	-0.171
-481.376	800.000	0.047	-0.191
-480.362	174.451	0.029	0.042
-479.347	-45.444	0.185	0.092
-478.332	531.011	-0.043	-0.101
-477.318	-8.876	-0.292	-0.196
-476.303	-148.449	-0.116	0.009
-475.289	332.481	-0.153	0.296
-474.274	-103.266	-0.043	0.010
-473.259	-98.534	0.336	-0.086
-472.245	800.000	0.062	0.239
-471.230	141.741	0.292	0.387
-470.216	302.031	-0.215	-0.398
-469.201	-103.795	-0.277	0.065
-468.186	-78.453	0.147	-0.050
-467.172	36.105	-0.060	0.053
-466.157	-200.000	0.013	0.082
-465.143	-24.327	0.322	0.192
-464.128	800.000	-0.095	0.273
-463.113	-69.686	-0.149	-0.057
-462.099	-200.000	0.009	0.155
-461.084	66.073	-0.217	-0.220
-460.070	62.424	0.262	0.261
-459.055	-94.529	-0.236	0.064
-458.040	-200.000	0.005	0.068
-457.026	24.170	-0.081	0.067
-456.011	800.000	0.057	-0.182
-454.997	-169.756	0.081	0.003
-453.982	32.736	0.124	-0.107
-452.968	80.797	-0.099	-0.106
-451.953	443.011	0.031	0.068
-450.938	-200.000	0.007	-0.104
-449.924	-200.000	0.013	-0.260
-448.909	91.044	-0.089	-0.100
-447.895	-157.565	0.326	-0.019
-446.880	9.125	-0.324	-0.244
-445.865	-124.124	-0.162	-0.025
-444.851	-41.961	0.182	0.093
-443.836	498.147	-0.122	-0.281
-442.822	327.941	0.152	0.290
-441.807	150.200	-0.102	0.139
-440.792	55.354	0.116	-0.112
-439.778	-42.952	0.053	-0.027
-438.763	-26.020	-0.157	0.092
-437.749	-164.459	0.180	-0.008
-436.734	6.861	0.259	0.192
-435.719	-84.143	-0.176	-0.056
-434.705	406.478	0.045	0.095
-433.690	45.854	0.163	-0.151
-432.676	522.184	0.108	0.252
-431.661	623.549	0.094	-0.237
-430.646	31.999	-0.075	-0.065
-429.632	-114.658	0.050	0.010
-428.617	-122.349	0.259	0.042
-427.603	263.702	-0.308	0.534
-426.588	-96.764	0.197	-0.052
-425.573	-97.280	0.196	-0.051
-424.559	-200.000	0.019	-0.314
-423.544	539.983	-0.087	-0.207
-422.530	-36.368	-0.119	0.064
-421.515	515.352	-0.040	-0.093
-420.500	-38.423	-0.205	-0.108
-419.486	-76.390	0.067	-0.023
-418.471	-98.333	-0.009	0.002
-417.457	57.529	-0.068	0.066
-416.442	-200.000	-0.010	0.049
-415.428	-138.644	-0.322	0.035
-414.413	149.859	-0.080	0.109
-413.398	-12.041	0.140	0.091
-412.384	87.782	0.267	0.295
-411.369	202.743	-0.083	-0.127
-410.355	-200.000	0.003	-0.032
-409.340	-126.309	-0.069	-0.010
-408.325	-157.392	-0.275	-0.017
-407.311	800.000	-0.021	-0.066
-406.296	-86.228	0.048	0.015
-405.282	-124.362	-0.178	-0.028
-404.267	800.000	0.030	0.088
-403.252	-104.382	-0.153	-0.035
-402.238	11.302	0.175	0.133
-401.223	207.169	-0.020	-0.032
-400.209	-99.500	-0.373	-0.094
-399.194	-60.099	0.247	-0.105
-398.179	-124.227	0.159	0.025
-397.165	-200.000	0.054	0.266
-396.150	-200.000	0.049	0.372
-395.136	800.000	0.073	0.247
-394.121	-60.825	0.243	0.103
-393.106	800.000	0.076	0.217
-392.092	-84.896	0.329	-0.103
-391.077	-34.285	0.209	-0.114
-390.063	243.352	0.119	-0.199
-389.048	211.910	0.176	-0.276
-388.033	176.309	0.072	-0.105
-387.019	-64.562	0.084	-0.034
-386.004	800.000	0.031	-0.115
-384.990	537.158	-0.112	-0.264
-383.975	225.952	0.059	-0.096
-382.960	-1.029	0.269	0.189
-381.946	-17.190	0.308	0.194
-380.931	96.150	0.224	0.255
-379.917	255.324	-0.055	-0.093
-378.902	-95.241	-0.270	0.072
-377.888	-130.507	0.125	0.017
-376.873	-200.000	-0.015	0.250
-375.858	-33.935	0.148	-0.081
-374.844	-200.000	0.008	-0.063
-373.829	-96.424	-0.234	-0.062
-372.815	800.000	-0.068	0.278
-371.800	-98.633	0.455	-0.115
-370.785	120.239	0.037	-0.046
-369.771	195.300	-0.057	-0.087
-368.756	539.768	-0.072	-0.170
-367.742	-200.000	0.021	0.220
-366.727	-140.114	0.239	-0.025
-365.712	148.539	-0.048	-0.065
-364.698	50.339	0.295	0.278
-363.683	800.000	-0.064	-0.222
-362.669	-149.757	-0.159	0.012
-361.654	-140.121	0.261	0.027
-360.639	185.268	0.226	0.334
-359.625	254.514	-0.150	0.256
-358.610	-53.213	-0.091	0.041
-357.596	-112.677	-0.205	0.041
-356.581	-97.451	-0.283	-0.073
-355.566	-200.000	-0.055	0.272
-354.552	-47.676	0.057	-0.028
-353.537	-139.025	0.219	0.024
-352.523	-16.870	-0.261	0.164
-351.508	643.886	0.046	0.117
-350.493	270.920	0.026	-0.046
-349.479	-63.881	-0.279	0.114
-348.464	-171.327	0.097	0.003
-347.450	21.337	-0.243	0.196
-346.435	451.823	-0.088	0.193
-345.420	-80.959	0.118	-0.039
-344.406	97.571	-0.133	-0.152
-343.391	-32.784	-0.180	0.099
-342.377	543.831	-0.065	0.154
-341.362	443.449	0.172	-0.376
-340.348	737.668	-0.078	0.209
-339.333	-73.690	-0.358	0.130
-338.318	800.000	0.118	-0.327
-337.304	72.257	0.184	-0.191
-336.289	-58.543	-0.084	-0.036
-335.275	12.033	0.138	-0.106
-334.260	-171.914	-0.184	-0.006
-333.245	1.911	0.227	0.163
-332.231	-57.422	0.179	0.078
-331.216	-99.974	0.186	-0.046
-330.202	-200.000	-0.006	0.073
-329.187	-200.000	-0.018	0.088
-328.172	800.000	-0.062	0.226
-327.158	-0.300	0.242	-0.171
-326.143	479.847	-0.016	-0.036
-325.129	-200.000	-0.023	-0.343
-324.114	536.555	-0.150	-0.353
-323.099	-12.336	0.137	0.089
-322.085	235.076	0.180	-0.296
-321.070	72.628	-0.292	-0.303
-320.056	92.914	-0.264	-0.296
-319.041	50.710	0.239	0.225
-318.026	44.706	-0.076	-0.070
-317.012	-7.583	0.157	0.105
-315.997	-152.110	0.305	-0.022
-314.983	-200.000	0.004	-0.048
-313.968	-20.540	0.128	-0.078
-312.953	-2.855	-0.321	0.223
-311.939	-138.390	0.266	-0.029
-310.924	153.772	0.137	-0.186
-309.910	-54.453	-0.106	-0.048
-308.895	-26.172	-0.200	0.117
-307.880	112.928	0.105	0.127
-306.866	661.923	-0.014	-0.037
-305.851	82.518	-0.206	-0.222
-304.837	-200.000	-0.013	-0.297
-303.822	800.000	-0.098	0.415
-302.807	154.706	-0.226	0.309
-301.793	-57.689	0.380	0.165
-300.778	422.269	-0.056	-0.119
-299.764	-92.139	-0.201	-0.056
-298.749	-132.380	-0.096	-0.012
-297.735	-153.014	0.274	0.019
-296.720	-200.000	-0.015	0.432
-295.705	6.675	0.191	0.141
-294.691	-76.139	0.171	-0.060
-293.676	-200.000	-0.018	0.184
-292.662	457.547	-0.159	0.352
-291.647	-200.000	-0.024	-0.165
-290.632	-130.425	0.245	-0.033
-289.618	-94.675	-0.170	-0.046
-288.603	575.766	-0.060	0.147
-287.589	-200.000	-0.034	-0.237
-286.574	112.587	-0.062	-0.075
-285.559	275.437	-0.173	0.305
-284.545	800.000	0.027	0.114
-283.530	61.052	0.146	0.144
-282.516	800.000	0.070	-0.230
-281.501	492.841	-0.104	0.237
-280.486	-90.650	-0.237	-0.068
-279.472	-200.000	-0.013	0.060
-278.457	800.000	-0.084	0.277
-277.443	197.351	-0.081	0.122
-276.428	-118.773	0.190	-0.033
-275.413	-200.000	-0.002	-0.060
-274.399	294.007	-0.079	0.142
-273.384	-200.000	-0.056	-0.337
-272.370	288.461	-0.011	-0.019
-271.355	-142.498	-0.046	0.004
-270.340	-45.909	0.072	-0.035
-269.326	-84.465	0.057	-0.018
-268.311	-3.870	0.072	-0.049
-267.297	-70.989	0.154	-0.057
-266.282	-21.662	-0.453	-0.274
-265.267	-125.089	0.259	0.039
-264.253	-26.687	-0.374	0.217
-263.238	-75.586	-0.251	-0.088
-262.224	113.026	-0.276	0.331
-261.209	71.293	-0.206	-0.212
-260.195	-129.822	-0.139	-0.019
-259.180	-9.822	0.260	0.172
-258.165	32.049	0.144	0.123
-257.151	0.681	-0.130	0.092
-256.136	119.710	0.060	0.074
-255.122	26.336	0.098	0.081
-254.107	800.000	-0.041	0.173
-253.092	-200.000	-0.057	-0.248
-252.078	25.693	0.113	-0.093
-251.063	92.296	0.096	-0.107
-250.049	-39.985	0.096	-0.049
-249.034	14.426	-0.064	0.049
-248.019	-200.000	0.013	0.288
-247.005	77.218	0.151	0.159
-245.990	340.670	0.053	0.102
-244.976	-200.000	0.043	0.208
-243.961	328.680	-0.132	-0.251
-242.946	-200.000	-0.016	-0.238
-241.932	-200.000	-0.083	-0.415
-240.917	45.789	-0.118	0.108
-239.903	-200.000	0.037	-0.346
-238.888	-74.807	0.497	-0.177
-237.873	-46.771	0.306	0.149
-236.859	-66.598	-0.071	-0.028
-235.844	521.344	-0.027	-0.062
-234.830	-142.456	-0.148	0.014
-233.815	-65.243	-0.445	0.178
-232.800	-200.000	0.046	-0.408
-231.786	-103.737	0.426	0.099
-230.771	112.037	-0.157	0.188
-229.757	162.611	0.094	0.131
-228.742	-200.000	0.002	0.288
-227.727	-55.774	-0.221	-0.098
-226.713	-200.000	-0.009	0.086
-225.698	-200.000	0.001	-0.011
-224.684	325.468	0.085	-0.161
-223.669	381.711	-0.109	-0.221
-222.655	-17.522	0.237	-0.147
-221.640	50.100	-0.148	0.139
-220.625	294.845	-0.052	-0.095
-219.611	-151.729	0.193	0.014
-218.596	230.996	-0.273	0.442
-217.582	191.089	0.191	0.284
-216.567	228.831	-0.068	0.110
-215.552	-200.000	0.021	-0.206
-214.538	182.689	-0.064	0.094
-213.523	-36.247	0.173	-0.092
-212.509	800.000	-0.093	0.296
-211.494	-5.172	-0.168	-0.114
-210.479	-200.000	-0.016	-0.138
-209.465	-200.000	0.078	-0.397
-208.450	234.651	-0.111	0.182
-207.436	417.481	-0.075	0.160
-206.421	-66.503	0.143	0.056
-205.406	800.000	0.170	0.477
-204.392	336.062	-0.118	0.227
-203.377	155.291	-0.088	0.120
-202.363	-200.000	0.037	0.277
-201.348	-47.120	-0.323	-0.156
-200.333	530.049	-0.114	0.267
-199.319	-157.722	0.087	0.005
-198.304	-200.000	0.010	0.148
-197.290	-49.547	-0.328	0.154
-196.275	12.675	-0.041	0.031
-195.260	221.545	0.084	-0.134
-194.246	-183.050	0.337	0.006
-193.231	123.813	0.108	0.134
-192.217	-42.883	0.315	0.158
-191.202	800.000	-0.045	-0.146
-190.187	304.846	0.050	0.092
-189.173	272.097	0.227	-0.396
-188.158	122.655	0.125	0.154
-187.144	-200.000	0.059	-0.417
-186.129	-77.740	-0.117	-0.040
-185.114	431.326	-0.064	0.136
-184.100	-147.275	0.073	-0.006
-183.085	-175.073	-0.236	0.006
-182.071	-78.351	0.269	0.091
-181.056	83.845	0.141	0.152
-180.042	800.000	0.021	-0.059
-179.027	251.064	0.077	-0.129
-178.012	-200.000	0.017	-0.197
-176.998	-30.937	0.113	0.063
-175.983	-200.000	-0.004	0.292
-174.969	737.692	0.150	-0.399
-173.954	800.000	0.041	-0.170
-172.939	-43.994	0.112	-0.056
-171.925	-1.812	0.354	-0.246
-170.910	-30.630	-0.446	-0.249
-169.896	-77.553	0.043	-0.015
-168.881	128.688	-0.120	0.151
-167.866	384.504	-0.063	0.128
-166.852	-39.298	0.109	0.057
-165.837	-44.231	0.115	-0.057
-164.823	800.000	-0.040	-0.162
-163.808	-86.829	-0.138	-0.042
-162.793	800.000	0.100	0.403
-161.779	657.625	-0.115	0.291
-160.764	-152.804	0.190	0.013
-159.750	403.895	-0.188	-0.391
-158.735	-152.666	-0.210	-0.015
-157.720	-200.000	-0.025	0.112
-156.706	167.023	0.095	0.134
-155.691	-142.742	-0.156	-0.015
-154.677	-108.986	0.257	0.054
-153.662	-200.000	0.045	-0.233
-152.647	-200.000	-0.006	0.398
-151.633	-194.131	0.076	-0.001
-150.618	-9.419	-0.124	0.082
-149.604	-200.000	0.010	0.279
-148.589	-195.022	-0.347	0.003
-147.574	-200.000	0.008	-0.049
-146.560	745.803	-0.131	0.349
-145.545	-30.633	0.327	0.183
-144.531	53.208	-0.159	0.150
-143.516	-34.338	0.142	0.077
-142.502	767.604	0.034	0.091
-141.487	-145.091	-0.291	0.026
-140.472	-76.365	-0.258	0.090
-139.458	800.000	0.065	0.205
-138.443	364.118	0.109	0.216
-137.429	133.743	0.147	0.188
-136.414	-181.416	0.297	0.006
-135.399	-34.731	0.256	-0.138
-134.385	-200.000	0.006	0.075
-133.370	213.199	-0.142	-0.220
-132.356	-200.000	-0.017	-0.230
-131.341	-25.273	-0.169	0.099
-130.326	18.279	0.285	0.225
-129.312	800.000	-0.095	-0.338
-128.297	56.600	0.057	-0.055
-127.283	-200.000	0.056	0.348
-126.268	-16.015	-0.281	0.176
-125.253	-49.377	0.242	-0.114
-124.239	-49.817	0.263	0.123
-123.224	-200.000	0.001	0.315
-122.210	-31.809	0.111	0.062
-121.195	-200.000	-0.012	-0.237
-120.180	108.516	0.168	0.198
-119.166	-12.942	-0.098	0.063
-118.151	-200.000	0.007	-0.035
-117.137	-61.191	-0.129	-0.054
-116.122	269.269	-0.153	0.265
-115.107	800.000	0.071	0.199
-114.093	400.328	-0.012	-0.024
-113.078	171.294	0.096	-0.136
-112.064	-200.000	0.062	-0.309
-111.049	-137.914	0.260	0.029
-110.034	-11.273	0.147	-0.096
-109.020	-22.530	0.277	-0.165
-108.005	11.373	0.179	0.135
-106.991	-2.229	0.245	-0.170
-105.976	7.945	0.213	0.157
-104.962	-102.225	0.122	0.029
-103.947	55.196	0.174	-0.166
-102.932	-200.000	-0.027	-0.169
-101.918	800.000	-0.097	-0.286
-100.903	800.000	0.090	-0.282
-99.889	-47.671	0.259	0.124
-98.874	101.804	-0.138	-0.159
-97.859	-42.691	0.111	-0.056
-96.845	-53.235	0.092	-0.041
-95.830	22.512	-0.159	-0.128
-94.816	143.294	-0.063	-0.082
-93.801	800.000	-0.087	0.250
-92.786	-52.482	-0.139	-0.063
-91.772	-200.000	-0.002	-0.329
-90.757	109.189	0.057	0.067
-89.743	-8.074	-0.072	0.048
-88.728	165.117	-0.161	0.224
-87.713	-200.000	0.002	-0.211
-86.699	-132.741	-0.054	-0.007
-85.684	-197.548	0.083	-0.001
-84.670	-92.897	-0.125	0.034
-83.655	800.000	0.053	0.204
-82.640	593.329	-0.113	0.275
-81.626	64.362	-0.029	-0.029
-80.611	-23.639	0.066	0.039
-79.597	-200.000	0.041	0.521
-78.582	-13.049	-0.012	-0.008
-77.567	145.859	-0.070	0.092
-76.553	-81.423	0.183	0.059
-75.538	103.150	-0.170	0.196
-74.524	616.743	0.191	0.471
-73.509	-138.688	0.116	-0.013
-72.494	-46.289	0.075	-0.036
-71.480	800.000	-0.013	0.053
-70.465	-49.703	0.126	-0.059
-69.451	300.761	0.142	0.259
-68.436	800.000	0.019	-0.072
-67.422	-200.000	-0.077	-0.336
-66.407	147.571	-0.160	-0.212
-65.392	-87.623	0.277	0.082
-64.378	50.301	0.020	0.019
-63.363	24.602	-0.289	0.235
-62.349	-200.000	0.035	-0.263
-61.334	186.205	-1.007	-1.474
-60.319	29.689	0.465	0.390
-59.305	800.000	-0.316	-1.200
-58.290	137.702	0.669	0.861
-57.276	800.000	0.371	1.410
-56.261	-200.000	96.248	594.041
-55.246	555.061	1368.768	3239.908
-54.232	162.095	2546.066	3508.533
-53.217	113.490	2134.953	2549.078
-52.203	43.807	1597.362	1438.268
-51.188	35.282	1335.477	1151.501
-50.173	32.096	1293.938	1097.063
-49.159	54.548	1341.738	1271.568
-48.144	56.531	1357.939	1298.645
-47.130	35.393	1316.771	1135.849
-46.115	32.001	1298.875	1100.512
-45.100	31.792	1294.163	1095.256
-44.086	31.651	1291.793	1092.383
-43.071	31.637	1289.220	1090.084
-42.057	31.577	1287.816	1088.506
-41.042	31.671	1285.810	1087.310
-40.027	31.701	1284.211	1086.088
-39.013	31.657	1282.669	1084.490
-37.998	31.595	1280.884	1082.578
-36.984	31.710	1279.116	1081.708
-35.969	31.788	1276.937	1080.271
-34.954	31.734	1275.603	1078.789
-33.940	31.887	1274.006	1078.274
-32.925	31.857	1272.894	1077.115
-31.911	31.905	1270.769	1075.552
-30.896	31.766	1270.310	1074.323
-29.881	31.820	1268.400	1072.974
-28.867	31.857	1267.020	1071.978
-27.852	31.840	1265.813	1070.817
-26.838	31.904	1264.180	1069.757
-25.823	31.808	1263.094	1068.249
-24.809	31.723	1262.343	1067.084
-23.794	31.794	1260.433	1065.833
-22.779	31.870	1259.143	1065.132
-21.765	31.877	1257.824	1064.016
-20.750	31.866	1256.330	1062.643
-19.736	31.834	1254.837	1061.160
-18.721	31.615	1254.281	1059.406
-17.706	31.761	1253.038	1059.144
-16.692	31.653	1251.725	1057.379
-15.677	31.632	1250.346	1056.056
-14.663	31.722	1249.592	1055.881
-13.648	31.797	1247.825	1054.769
-12.633	31.730	1247.093	1053.735
-11.619	31.717	1246.425	1053.054
-10.604	31.743	1245.608	1052.468
-9.590	31.662	1244.506	1051.038
-8.575	31.658	1243.722	1050.312
-7.560	31.613	1242.897	1049.324
-6.546	31.641	1241.741	1048.460
-5.531	31.703	1241.112	1048.237
-4.517	31.677	1240.175	1047.260
-3.502	31.743	1239.403	1046.931
-2.487	31.627	1238.720	1045.668
-1.473	31.652	1234.424	1042.138
-0.458	30.406	1219.943	1023.012
0.556	27.443	1202.880	988.215
1.571	23.987	1209.267	974.481
2.586	23.322	1224.310	982.830
3.600	22.684	1213.539	970.584
4.615	16.374	1140.035	878.988
5.629	6.258	1063.886	770.858
6.644	2.097	1044.090	736.407
7.659	1.638	1041.998	732.657
8.673	1.555	1040.193	730.923
9.688	1.561	1039.011	730.055
10.702	1.904	1037.238	730.390
11.717	8.058	1045.937	766.107
12.731	18.190	1060.579	825.924
13.746	23.757	1067.503	858.220
14.761	24.973	1068.905	865.146
15.775	25.055	1068.239	864.924
16.790	24.801	1067.574	863.086
17.804	24.806	1066.804	862.413
18.819	24.806	1066.817	862.347
19.834	25.018	1066.217	862.803
20.848	25.044	1066.144	862.794
21.863	24.983	1065.453	861.868
22.877	24.958	1064.578	860.963
23.892	24.933	1064.046	860.337
24.907	25.045	1063.001	859.951
25.921	24.875	1062.155	858.375
26.936	24.901	1060.696	857.244
27.950	24.918	1059.357	856.167
28.965	24.651	1058.015	853.734
29.980	24.866	1056.150	853.179
30.994	25.131	1054.888	853.343
32.009	25.055	1054.338	852.462
33.023	24.917	1052.889	850.561
34.038	24.932	1052.055	849.882
35.053	25.007	1051.869	850.013
36.067	25.133	1050.739	849.620
37.082	25.097	1050.307	849.025
38.096	25.270	1049.965	849.492
39.111	25.431	1048.559	849.042
40.126	25.175	1047.686	847.053
41.140	24.820	1045.769	843.755
42.155	24.626	1043.933	841.284
43.169	24.673	1043.803	841.324
44.184	24.622	1042.680	840.106
45.199	24.505	1041.738	838.725
46.213	24.747	1040.884	839.096
47.228	24.746	1040.224	838.486
48.242	24.885	1039.083	838.142
49.257	25.127	1038.057	838.376
50.271	25.058	1037.894	837.844
51.286	25.167	1036.862	837.447
52.301	25.107	1036.385	836.709
53.315	24.987	1035.341	835.232
54.330	24.913	1034.570	834.189
55.344	25.090	1033.435	834.026
56.359	24.986	1032.333	832.576
57.374	24.785	1031.137	830.607
58.388	24.786	1030.850	830.306
59.403	24.702	1029.750	828.956
60.417	24.588	1029.279	827.976
61.432	24.660	1028.503	827.613
62.447	24.668	1028.170	827.307
63.461	24.823	1027.059	827.059
64.476	24.730	1025.919	825.639
65.490	24.599	1025.426	824.563
66.505	24.781	1024.670	824.720
67.520	24.737	1023.926	823.846
68.534	24.623	1022.945	822.462
69.549	24.299	1021.582	819.801
70.563	24.414	1020.866	819.685
71.578	24.193	1020.575	818.364
72.593	24.124	1019.151	816.832
73.607	24.347	1018.737	817.451
74.622	24.588	1018.429	818.234
75.636	24.592	1017.926	817.777
76.651	24.460	1016.769	816.169
77.666	24.448	1015.992	815.418
78.680	24.498	1015.627	815.283
79.695	24.599	1014.465	814.740
80.709	24.590	1014.214	814.423
81.724	24.579	1013.242	813.520
82.739	24.656	1012.697	813.361
83.753	25.084	1012.279	814.900
84.768	25.400	1010.992	815.228
85.782	25.494	1010.224	814.963
86.797	25.126	1009.570	812.695
87.812	25.259	1008.300	812.201
88.826	25.181	1008.229	811.721
89.841	25.234	1007.061	810.950
90.855	25.214	1006.163	810.061
91.870	25.293	1004.904	809.333
92.884	25.088	1004.061	807.660
93.899	25.105	1002.903	806.735
94.914	25.293	1002.404	807.106
95.928	25.049	1001.308	805.056
96.943	24.912	999.950	803.277
97.957	24.650	998.978	801.252
98.972	24.513	997.816	799.637
99.987	24.819	997.215	800.450
101.001	24.998	996.559	800.654
102.016	25.041	995.500	799.925
103.030	24.996	994.789	799.084
104.045	24.760	994.010	797.334
105.060	24.544	992.932	795.436
106.074	24.785	992.237	795.881
107.089	25.053	992.045	796.851
108.103	24.889	991.006	795.216
109.118	24.658	990.142	793.425
110.133	24.737	988.299	792.230
111.147	24.566	987.094	790.437
112.162	24.520	985.992	789.283
113.176	24.686	985.445	789.507
114.191	24.632	984.870	788.739
115.206	24.276	983.885	786.311
116.220	24.325	983.052	785.788
117.235	24.320	982.844	785.532
118.249	24.486	981.115	784.809
119.264	24.368	980.725	783.910
120.279	24.359	980.118	783.319
121.293	24.348	979.645	782.823
122.308	24.553	978.335	782.605
123.322	24.492	976.978	781.181
124.337	24.270	975.653	779.085
125.352	23.756	974.352	775.733
126.366	23.643	973.263	774.305
127.381	24.428	973.469	777.821
128.395	24.956	972.876	779.580
129.410	24.937	972.201	778.888
130.424	24.915	971.151	777.882
131.439	25.048	970.197	777.623
132.454	24.882	969.186	776.024
133.468	24.805	968.641	775.186
134.483	24.918	968.183	775.243
135.497	25.059	967.296	775.071
136.512	25.190	966.246	774.727
137.527	25.156	965.563	773.964
138.541	25.083	965.073	773.191
139.556	25.253	963.917	772.926
140.570	25.340	963.360	772.787
141.585	25.322	962.587	772.022
142.600	25.244	961.470	770.719
143.614	25.397	960.707	770.697
144.629	25.461	960.073	770.395
145.643	25.383	958.793	768.965
146.658	25.095	957.483	766.618
147.673	25.121	956.377	765.773
148.687	25.083	954.959	764.407
149.702	25.009	954.298	763.496
150.716	24.794	953.726	762.054
151.731	25.255	952.727	763.153
152.746	25.356	952.100	763.010
153.760	25.279	951.705	762.299
154.775	25.481	950.901	762.443
155.789	25.280	950.257	761.011
156.804	25.327	949.527	760.556
157.819	25.496	948.204	760.146
158.833	25.563	947.918	760.129
159.848	25.445	947.152	758.953
160.862	25.409	945.436	757.357
161.877	25.400	944.677	756.646
162.892	25.499	943.495	756.048
163.906	25.370	942.675	754.781
164.921	25.374	941.820	754.044
165.935	25.498	940.937	753.793
166.950	25.290	939.980	752.089
167.964	25.413	939.341	752.024
168.979	25.059	938.689	749.958
169.994	25.022	937.643	748.899
171.008	25.351	937.139	749.805
172.023	25.328	936.430	749.077
173.037	25.263	934.752	747.397
174.052	24.876	934.578	745.581
175.067	25.038	933.628	745.430
176.081	25.277	932.856	745.740
177.096	25.097	932.289	744.473
178.110	24.701	931.576	742.194
179.125	24.748	930.282	741.293
180.140	24.844	930.625	741.897
181.154	24.933	929.774	741.524
182.169	25.225	929.991	742.838
183.183	25.493	929.527	743.512
184.198	25.214	928.836	741.739
185.213	25.168	927.677	740.560
186.227	25.349	927.253	740.902
187.242	25.460	926.341	740.566
188.256	25.494	926.044	740.402
189.271	25.451	925.204	739.488
190.286	25.198	924.054	737.463
191.300	24.460	922.500	733.128
192.315	23.667	921.217	728.787
193.329	23.643	920.758	728.264
194.344	24.713	920.867	732.673
195.359	25.190	920.851	734.549
196.373	25.358	920.916	735.225
197.388	25.174	920.170	733.809
198.402	25.224	919.632	733.519
199.417	25.203	918.926	732.806
200.432	25.025	917.627	730.980
201.446	24.893	917.218	730.051
202.461	24.789	916.810	729.237
203.475	24.121	914.539	724.650
204.490	23.460	912.938	720.631
205.504	24.255	913.746	724.440
206.519	24.796	913.841	726.648
207.534	24.926	913.083	726.510
208.548	25.390	912.813	728.112
209.563	24.959	912.196	725.806
210.577	25.121	911.578	725.906
211.592	25.592	910.995	727.286
212.607	25.391	910.381	725.917
213.621	25.406	909.774	725.430
214.636	25.372	909.432	724.957
215.650	25.466	908.310	724.377
216.665	25.640	907.547	724.403
217.680	25.464	906.950	723.156
218.694	25.059	905.711	720.475
219.709	24.979	904.738	719.317
220.723	25.220	904.625	720.132
221.738	25.306	904.279	720.137
222.753	25.206	903.599	719.128
223.767	25.305	903.401	719.306
224.782	25.503	902.864	719.606
225.796	25.406	902.876	719.167
226.811	24.964	900.776	715.664
227.826	24.270	899.787	712.042
228.840	24.322	899.539	711.990
229.855	24.503	898.647	711.945
230.869	24.251	897.270	709.785
231.884	24.633	897.290	711.262
232.899	25.239	897.668	713.910
233.913	25.073	896.854	712.537
234.928	25.036	896.689	712.197
235.942	25.007	896.004	711.474
236.957	24.770	894.949	709.635
237.972	24.743	894.423	709.046
238.986	24.830	893.922	708.931
240.001	24.936	892.833	708.424
241.015	24.944	892.821	708.384
242.030	25.142	892.002	708.454
243.045	25.264	891.829	708.737
244.059	25.557	891.134	709.276
245.074	25.097	890.730	707.080
246.088	24.947	889.342	705.323
247.103	25.193	888.919	705.895
248.117	25.734	888.928	707.968
249.132	25.980	888.871	708.825
250.147	26.037	888.125	708.391
251.161	26.215	887.846	708.806
252.176	26.135	887.429	708.097
253.190	26.236	886.603	707.771
254.205	26.361	886.069	707.770
255.220	26.202	885.534	706.658
256.234	26.304	884.227	705.953
257.249	26.050	883.897	704.634
258.263	26.121	883.430	704.476
259.278	26.278	882.589	704.356
260.293	26.272	881.944	703.757
261.307	26.075	881.484	702.558
262.322	25.909	880.577	701.129
263.336	25.109	878.886	696.613
264.351	24.205	876.924	691.488
265.366	24.277	877.012	691.777
266.380	25.385	877.332	696.266
267.395	25.710	877.333	697.465
268.409	25.656	876.623	696.630
269.424	25.907	876.064	697.097
270.439	25.847	875.243	696.150
271.453	25.922	875.079	696.247
272.468	26.121	874.547	696.527
273.482	26.195	874.103	696.400
274.497	25.744	872.635	693.430
275.512	25.499	871.697	691.683
276.526	25.701	872.300	692.879
277.541	25.977	871.691	693.392
278.555	25.735	870.901	691.775
279.570	25.642	870.129	690.741
280.585	25.703	869.571	690.473
281.599	25.677	868.359	689.349
282.614	25.187	866.911	686.266
283.628	25.188	866.490	685.875
284.643	25.394	866.842	686.880
285.657	25.095	865.374	684.514
286.672	24.967	864.547	683.312
287.687	25.503	864.604	685.342
288.701	25.477	864.105	684.784
289.716	25.151	863.148	682.724
290.730	25.132	862.479	682.065
291.745	24.907	861.585	680.441
292.760	25.179	861.711	681.512
293.774	26.330	861.771	685.874
294.789	26.514	861.968	686.665
295.803	26.481	861.465	686.078
296.818	26.600	860.113	685.393
297.833	26.090	859.120	682.610
298.847	25.951	858.976	681.911
299.862	26.409	858.718	683.379
300.876	26.455	858.373	683.215
301.891	26.330	857.382	681.893
302.906	26.080	856.277	680.016
303.920	26.180	856.136	680.217
304.935	26.516	856.219	681.490
305.949	26.404	855.117	680.130
306.964	26.138	854.783	678.806
307.979	26.169	854.561	678.687
308.993	26.620	854.233	680.058
310.008	26.623	853.320	679.285
311.022	26.414	852.674	677.924
312.037	26.189	852.226	676.665
313.052	25.947	850.912	674.659
314.066	24.956	849.656	669.898
315.081	24.838	848.970	668.857
316.095	25.711	849.143	672.194
317.110	26.209	848.896	673.799
318.125	25.264	847.278	668.935
319.139	24.363	845.986	664.500
320.154	24.285	845.759	663.973
321.168	25.225	845.956	667.570
322.183	25.765	846.179	669.695
323.197	26.012	845.925	670.352
324.212	26.196	845.540	670.670
325.227	26.260	844.789	670.253
326.241	26.067	844.446	669.205
327.256	25.900	843.981	668.158
328.270	25.882	842.916	667.191
329.285	25.735	842.051	665.904
330.300	25.533	841.604	664.745
331.314	25.830	841.301	665.544
332.329	26.201	841.332	666.878
333.343	26.359	840.670	666.878
334.358	26.326	840.178	666.306
335.373	26.377	839.834	666.162
336.387	26.695	840.072	667.467
337.402	26.758	840.030	667.604
338.416	26.716	839.356	666.855
339.431	26.894	839.064	667.218
340.446	26.930	838.628	666.944
341.460	26.812	838.280	666.177
342.475	26.663	837.559	664.999
343.489	26.849	837.042	665.212
344.504	27.034	837.084	665.862
345.519	27.274	836.616	666.310
346.533	27.262	836.252	665.917
347.548	27.179	835.786	665.185
348.562	27.103	835.285	664.448
349.577	27.073	834.430	663.599
350.592	27.107	833.318	662.781
351.606	27.067	833.117	662.416
352.621	26.917	832.304	661.167
353.635	26.916	831.491	660.459
354.650	26.159	829.916	656.396
355.665	25.399	828.275	652.283
356.679	25.723	828.304	653.423
357.694	26.243	827.792	654.849
358.708	26.136	827.314	654.025
359.723	26.444	827.697	655.385
360.738	26.698	827.283	655.918
361.752	26.951	826.678	656.295
362.767	27.221	826.230	656.860
363.781	27.615	825.730	657.825
364.796	27.562	825.751	657.592
365.810	27.559	825.301	657.163
366.825	27.407	824.824	656.180
367.840	27.335	823.990	655.197
368.854	26.953	822.991	652.971
369.869	26.905	822.658	652.476
370.883	26.851	822.297	651.940
371.898	26.807	821.652	651.213
372.913	26.954	821.313	651.414
373.927	27.063	820.919	651.433
374.942	27.066	820.747	651.251
375.956	27.288	820.113	651.484
376.971	27.337	820.060	651.560
377.986	27.568	819.492	651.877
379.000	27.411	819.188	651.018
380.015	27.273	818.438	649.872
381.029	27.393	817.741	649.687
382.044	27.395	817.177	649.192
383.059	27.439	816.833	649.017
384.073	27.432	816.275	648.491
385.088	27.424	815.744	647.983
386.102	27.415	814.864	647.194
387.117	27.154	814.266	645.733
388.132	26.766	813.273	643.515
389.146	26.522	812.001	641.585
390.161	26.797	812.198	642.659
391.175	27.337	812.265	644.567
392.190	26.956	811.065	642.210
393.205	25.554	808.766	635.382
394.219	24.018	807.334	628.781
395.234	24.009	807.161	628.558
396.248	25.608	808.440	635.151
397.263	27.113	809.412	641.174
398.278	26.879	808.838	639.838
399.292	26.746	808.193	638.801
400.307	26.679	807.621	638.057
401.321	26.847	807.775	638.713
402.336	27.153	807.453	639.479
403.350	27.766	806.692	640.972
404.365	27.981	806.872	641.814
405.380	28.258	806.415	642.366
406.394	28.353	805.898	642.231
407.409	28.086	805.879	641.224
408.423	28.172	805.373	641.064
409.438	28.228	805.150	641.027
410.453	28.420	804.418	641.059
411.467	28.226	803.814	639.843
412.482	28.234	803.365	639.457
413.496	28.210	803.449	639.385
414.511	28.231	803.098	639.122
415.526	28.217	802.275	638.359
416.540	27.953	802.039	637.194
417.555	27.689	801.023	635.413
418.569	27.743	800.922	635.465
419.584	27.837	800.037	635.031
420.599	27.642	799.397	633.791
421.613	111.209	1287.043	1460.529
422.628	95.901	1358.069	1460.639
