DTS Sentinel unit serial number:	SN413079Multiplexer serial number:	ORYXHardware model number:	OX4-SRSoftware version number:	ORYX F/W v4.00 Oryx Data Collector v3.7.2.0data status	okinstallation	princeton_trtdifferential loss correction	single-endedforward channel	channel 1reverse channel	N/Adate	2019/09/12time	19:59:34forward acquisition time	15.00reverse acquisition time	0.00gamma	496.2192k internal	0.2324k external	0.2324temperature offset calibration	1.0142default loss term (dB/km)	0.3790temperature slope calibration	1.0000multiplexer offset coefficient	1.0000multiplexer slope coefficient	1.0000fibre end	0.00T internal ref (°C)	31.75T ext. ref 1 (°C)	3.56T ext. ref 2 (°C)	26.39length (m)	temperature (°C)	Stokes	anti-Stokes-747.200	-200.000	-0.034	-0.522
-746.185	-200.000	-0.010	-0.105
-745.171	-83.202	0.190	0.062
-744.156	-88.130	-0.913	0.276
-743.142	800.000	0.166	-0.529
-742.127	8.532	-0.225	0.171
-741.112	-33.390	-0.885	-0.494
-740.098	6.701	0.730	0.548
-739.083	224.406	0.310	0.506
-738.069	-5.837	0.327	-0.226
-737.054	-200.000	0.003	-0.389
-736.039	-50.802	-0.423	0.201
-735.025	-97.511	0.488	0.128
-734.010	800.000	0.081	-0.338
-732.996	15.054	-0.355	-0.281
-731.981	-200.000	-0.164	-1.003
-730.966	-109.806	-0.606	-0.128
-729.952	-200.000	-0.022	0.187
-728.937	-126.509	0.342	-0.051
-727.923	54.115	-0.561	-0.544
-726.908	-180.741	0.670	-0.014
-725.894	174.494	-0.322	-0.470
-724.879	53.161	-0.174	0.168
-723.864	-1.357	0.104	0.074
-722.850	114.725	-0.149	-0.184
-721.835	800.000	-0.096	-0.375
-720.821	389.400	-0.236	0.494
-719.806	-110.361	0.226	-0.047
-718.791	57.906	-0.436	-0.430
-717.777	89.696	-0.184	0.208
-716.762	3.685	0.751	0.552
-715.748	110.309	0.452	0.547
-714.733	-92.227	-0.154	0.044
-713.718	-112.734	0.122	-0.024
-712.704	-17.450	-0.192	0.122
-711.689	67.526	-0.257	-0.265
-710.675	63.650	-0.017	0.017
-709.660	800.000	-0.216	0.610
-708.645	-14.570	-0.681	0.442
-707.631	-122.102	0.543	-0.090
-706.616	-200.000	-0.119	-0.613
-705.602	-200.000	-0.225	-1.615
-704.587	-200.000	0.019	-0.651
-703.572	-55.782	0.290	-0.131
-702.558	-200.000	-0.079	0.541
-701.543	580.288	0.308	-0.761
-700.529	-169.727	-0.986	-0.036
-699.514	-88.890	0.543	0.162
-698.499	515.242	-0.339	-0.797
-697.485	-9.171	0.375	-0.253
-696.470	-69.248	0.639	0.247
-695.456	-116.548	-0.567	-0.105
-694.441	-58.280	0.576	-0.253
-693.426	800.000	-0.192	0.562
-692.412	341.847	0.179	0.353
-691.397	-200.000	-0.004	0.140
-690.383	401.879	0.085	-0.179
-689.368	-200.000	0.412	0.001
-688.354	88.209	-0.367	0.410
-687.339	-13.125	0.302	-0.198
-686.324	674.274	0.046	-0.120
-685.310	111.814	0.277	-0.337
-684.295	-10.087	0.566	-0.379
-683.281	-200.000	-0.053	-0.777
-682.266	-133.689	0.630	-0.079
-681.251	-107.323	0.253	-0.056
-680.237	800.000	-0.048	-0.158
-679.222	514.387	0.125	0.294
-678.208	-111.068	0.616	-0.127
-677.193	-78.088	0.965	-0.334
-676.178	-134.079	-0.597	-0.074
-675.164	93.776	0.841	-0.960
-674.149	-69.887	-0.861	0.331
-673.135	6.304	0.377	-0.281
-672.120	20.274	0.294	0.239
-671.105	283.234	-0.202	-0.365
-670.091	-12.916	-0.606	-0.397
-669.076	-181.902	-0.630	-0.012
-668.062	-200.000	-0.172	-0.816
-667.047	-61.394	1.166	-0.494
-666.032	-17.499	-0.880	-0.557
-665.018	-48.815	-0.409	-0.197
-664.003	-31.989	0.346	0.195
-662.989	-19.406	0.806	-0.503
-661.974	-200.000	0.074	-1.010
-660.959	-155.706	-0.125	-0.008
-659.945	114.865	0.489	0.600
-658.930	174.870	0.524	-0.763
-657.916	800.000	0.320	-0.991
-656.901	154.713	-0.283	0.391
-655.886	686.541	0.327	0.859
-654.872	487.663	-0.154	0.354
-653.857	-134.228	0.343	-0.042
-652.843	476.577	-0.166	0.377
-651.828	57.052	0.224	-0.220
-650.814	-200.000	-0.029	-0.658
-649.799	108.867	-0.319	0.384
-648.784	485.281	-0.443	-1.015
-647.770	75.315	-0.122	0.130
-646.755	-43.591	-0.496	-0.252
-645.741	-142.782	-0.696	0.068
-644.726	-171.047	0.598	-0.020
-643.711	19.032	0.482	0.388
-642.697	91.637	0.356	-0.403
-641.682	-88.762	-0.499	0.149
-640.668	110.709	-0.256	0.309
-639.653	-135.348	1.020	-0.123
-638.638	-200.000	-0.081	-0.451
-637.624	800.000	-0.194	0.546
-636.609	509.749	-0.067	-0.156
-635.595	58.751	-0.266	-0.263
-634.580	19.234	-0.384	-0.310
-633.565	-200.000	-0.067	-1.037
-632.551	109.709	-0.288	0.347
-631.536	-143.021	-0.996	0.097
-630.522	308.489	0.209	0.392
-629.507	800.000	-0.156	0.468
-628.492	-136.563	-0.666	-0.078
-627.478	800.000	0.162	-0.552
-626.463	1.238	-0.478	-0.345
-625.449	800.000	-0.213	0.731
-624.434	-163.969	0.751	0.035
-623.419	-200.000	0.088	-0.433
-622.405	-150.709	0.629	-0.048
-621.390	-73.949	-0.348	0.127
-620.376	-67.834	0.140	0.055
-619.361	-92.709	-0.393	-0.110
-618.346	-156.083	-0.981	-0.062
-617.332	4.580	0.157	0.116
-616.317	49.142	1.218	-1.150
-615.303	-200.000	0.133	-0.679
-614.288	-23.374	0.185	0.112
-613.273	166.510	0.496	0.705
-612.259	-26.816	0.281	-0.165
-611.244	71.941	-0.457	0.477
-610.230	24.505	0.007	0.006
-609.215	149.516	0.129	0.176
-608.201	-59.583	0.873	0.376
-607.186	800.000	0.087	-0.321
-606.171	312.207	-0.134	0.253
-605.157	-200.000	-0.119	0.673
-604.142	83.057	0.109	0.119
-603.128	46.114	0.406	0.378
-602.113	600.332	-0.357	-0.890
-601.098	9.910	-0.857	0.653
-600.084	203.703	0.332	0.516
-599.069	-42.055	0.407	0.209
-598.055	17.632	0.256	0.204
-597.040	119.140	-0.159	-0.197
-596.025	800.000	0.121	0.436
-595.011	-44.740	0.419	0.210
-593.996	-152.662	0.394	-0.028
-592.982	-25.685	-0.363	0.215
-591.967	348.403	0.302	-0.598
-590.952	67.306	0.400	-0.409
-589.938	-11.389	0.162	0.107
-588.923	193.626	0.253	-0.385
-587.909	-109.747	0.570	0.120
-586.894	-71.912	-0.802	-0.299
-585.879	-81.537	-0.097	0.032
-584.865	-200.000	0.031	0.542
-583.850	136.812	0.118	-0.155
-582.836	-33.764	-0.233	-0.129
-581.821	29.856	0.143	-0.122
-580.806	605.219	-0.415	-1.036
-579.792	290.936	-0.573	-1.044
-578.777	-5.172	-0.304	0.209
-577.763	-95.370	-0.594	0.160
-576.748	800.000	-0.118	0.362
-575.733	84.730	0.853	-0.937
-574.719	800.000	0.142	0.522
-573.704	87.045	-0.308	-0.341
-572.690	57.964	-0.287	0.282
-571.675	383.961	0.165	0.340
-570.661	200.020	-0.458	-0.705
-569.646	313.703	-0.094	-0.177
-568.631	-7.879	-0.548	0.371
-567.617	-143.344	-0.180	-0.017
-566.602	800.000	0.131	-0.449
-565.588	124.214	0.104	-0.131
-564.573	-159.580	-0.274	0.015
-563.558	-200.000	0.195	0.867
-562.544	338.940	0.311	-0.607
-561.529	-26.684	0.456	-0.268
-560.515	-129.348	-0.320	0.045
-559.500	800.000	-0.120	0.432
-558.485	-133.690	0.404	0.051
-557.471	-83.687	-0.947	-0.303
-556.456	66.312	-0.245	-0.249
-555.442	-48.538	-0.689	-0.332
-554.427	112.744	0.614	-0.745
-553.412	478.199	0.283	0.643
-552.398	-49.386	-0.614	0.294
-551.383	103.974	-0.343	-0.404
-550.369	-129.093	-0.478	-0.067
-549.354	51.216	0.202	0.192
-548.339	99.086	0.387	0.448
-547.325	55.427	0.191	0.185
-546.310	201.354	0.383	-0.590
-545.296	117.138	0.123	-0.151
-544.281	-200.000	-0.068	-0.552
-543.266	132.550	0.416	-0.538
-542.252	-88.436	-0.558	-0.167
-541.237	-79.326	-0.268	-0.091
-540.223	-88.767	0.732	-0.218
-539.208	142.427	-0.558	-0.741
-538.193	-107.663	-0.208	-0.046
-537.179	-62.459	0.031	0.013
-536.164	80.112	0.198	-0.214
-535.150	64.737	0.095	0.096
-534.135	201.718	-0.173	0.266
-533.121	626.914	0.085	-0.215
-532.106	-200.000	0.035	-0.240
-531.091	556.510	-0.309	0.746
-530.077	23.854	0.343	0.283
-529.062	47.598	-0.631	0.589
-528.048	-28.667	-0.410	-0.236
-527.033	-172.841	0.245	-0.008
-526.018	-92.036	-0.461	0.131
-525.004	155.029	0.096	-0.133
-523.989	111.187	-0.112	-0.135
-522.975	800.000	-0.105	-0.358
-521.960	-90.012	1.040	-0.304
-520.945	-200.000	-0.055	-0.981
-519.931	3.652	0.131	0.096
-518.916	450.402	-0.284	0.627
-517.902	-172.356	0.237	-0.008
-516.887	-178.021	0.096	-0.002
-515.872	-200.000	-0.121	0.639
-514.858	-143.634	-0.527	-0.050
-513.843	-200.000	0.148	-0.944
-512.829	-200.000	-0.000	0.203
-511.814	149.292	0.309	0.418
-510.799	271.226	0.360	-0.635
-509.785	-35.032	-0.238	-0.130
-508.770	67.575	0.813	0.831
-507.756	647.716	0.145	-0.370
-506.741	-171.822	-0.624	0.020
-505.726	-2.954	-0.628	0.439
-504.712	-36.782	0.533	0.286
-503.697	800.000	0.158	0.483
-502.683	800.000	0.123	0.341
-501.668	121.476	0.242	-0.302
-500.653	23.188	-0.438	-0.360
-499.639	-200.000	-0.001	-0.475
-498.624	-3.847	-0.401	0.279
-497.610	-192.339	0.187	-0.002
-496.595	32.652	0.347	0.300
-495.581	-21.775	0.279	-0.170
-494.566	-200.000	-0.048	-0.772
-493.551	414.037	0.336	0.715
-492.537	-157.060	-0.464	0.028
-491.522	35.548	-0.515	0.452
-490.508	-94.306	0.803	0.219
-489.493	48.095	0.499	0.466
-488.478	-200.000	0.085	0.385
-487.464	-38.131	0.404	-0.214
-486.449	241.963	-0.249	-0.417
-485.435	-200.000	0.002	0.324
-484.420	94.205	0.153	-0.174
-483.405	131.549	0.631	-0.811
-482.391	330.515	-0.089	0.171
-481.376	461.214	-0.284	-0.632
-480.362	15.359	-0.766	0.601
-479.347	-200.000	0.004	-0.249
-478.332	85.110	-0.133	0.145
-477.318	-200.000	-0.015	0.307
-476.303	186.119	0.346	-0.515
-475.289	-107.803	0.352	-0.077
-474.274	328.214	0.037	0.070
-473.259	775.453	0.170	-0.464
-472.245	-200.000	-0.069	0.984
-471.230	-200.000	-0.164	-0.826
-470.216	-15.042	0.556	0.356
-469.201	-113.418	-0.885	-0.173
-468.186	-163.228	0.155	-0.007
-467.172	800.000	-0.108	0.366
-466.157	74.575	-0.712	0.747
-465.143	-20.118	-0.085	0.052
-464.128	54.602	-0.363	-0.349
-463.113	-153.385	-0.316	0.022
-462.099	-70.414	-0.453	-0.171
-461.084	-200.000	-0.058	0.537
-460.070	339.440	-0.406	0.790
-459.055	468.963	0.171	0.384
-458.040	-147.235	-0.857	-0.073
-457.026	79.738	-0.951	-1.020
-456.011	-15.206	0.497	0.318
-454.997	93.348	-0.549	0.620
-453.982	-143.151	-0.332	-0.032
-452.968	152.416	-0.208	-0.284
-451.953	-137.320	0.104	0.012
-450.938	-63.722	-0.684	-0.280
-449.924	590.350	0.037	0.091
-448.909	434.335	0.264	0.573
-447.895	-7.836	-0.437	0.294
-446.880	68.196	0.271	-0.277
-445.865	346.282	0.178	0.348
-444.851	37.572	0.627	0.555
-443.836	-200.000	-0.043	-0.521
-442.822	171.184	0.125	0.179
-441.807	140.787	-0.250	-0.329
-440.792	137.473	-0.394	0.515
-439.778	3.995	0.504	0.368
-438.763	-139.220	0.420	-0.045
-437.749	-25.813	0.633	0.372
-436.734	800.000	-0.206	0.741
-435.719	23.396	-0.541	0.444
-434.705	4.510	-0.401	0.294
-433.690	-121.911	0.054	0.009
-432.676	-103.172	0.718	-0.169
-431.661	-163.532	-0.719	0.034
-430.646	-48.243	-0.371	0.178
-429.632	87.387	-0.266	0.294
-428.617	225.203	-0.307	0.496
-427.603	374.163	0.078	0.159
-426.588	175.180	0.385	0.556
-425.573	800.000	0.083	0.331
-424.559	23.587	-0.387	0.317
-423.544	-56.238	-0.608	0.270
-422.530	-63.354	0.740	-0.304
-421.515	-87.615	0.727	-0.219
-420.500	-32.036	0.568	0.317
-419.486	-92.429	0.440	0.123
-418.471	-200.000	0.202	0.906
-417.457	-72.346	-0.781	0.288
-416.442	-148.991	-0.230	0.018
-415.428	129.304	-0.776	0.988
-414.413	-75.198	-0.546	-0.194
-413.398	-200.000	-0.069	0.535
-412.384	162.741	-0.433	0.606
-411.369	-46.364	0.742	-0.363
-410.355	-200.000	-0.070	-0.866
-409.340	-200.000	-0.081	-0.398
-408.325	-200.000	0.061	-0.613
-407.311	-69.567	-0.493	-0.188
-406.296	-110.137	0.727	-0.151
-405.282	-194.077	-0.766	-0.006
-404.267	60.277	-0.277	0.273
-403.252	-200.000	-0.045	0.394
-402.238	-200.000	0.031	-0.339
-401.223	-79.320	0.266	-0.090
-400.209	800.000	0.148	-0.410
-399.194	519.715	-0.197	0.459
-398.179	800.000	-0.147	-0.610
-397.165	93.923	0.621	0.701
-396.150	186.828	-0.399	-0.592
-395.136	-98.522	-0.377	0.096
-394.121	-116.328	0.421	-0.078
-393.106	163.069	-0.282	0.395
-392.092	163.033	-0.452	0.632
-391.077	240.002	-0.027	-0.045
-390.063	196.368	0.232	-0.352
-389.048	217.284	-0.323	0.513
-388.033	93.065	-0.067	-0.076
-387.019	-18.528	-0.355	0.221
-386.004	296.868	-0.325	0.593
-384.990	143.193	0.173	-0.229
-383.975	-58.339	0.405	0.175
-382.960	197.027	-0.652	-0.990
-381.946	187.260	0.682	1.012
-380.931	216.949	0.528	0.837
-379.917	-30.545	-0.343	0.193
-378.902	-33.080	-0.540	-0.298
-377.888	2.021	-0.060	0.043
-376.873	-200.000	0.127	-0.731
-375.858	457.918	-0.275	0.609
-374.844	-125.014	1.621	-0.248
-373.829	36.059	0.181	0.158
-372.815	-200.000	-0.015	-0.278
-371.800	-98.663	-1.034	0.262
-370.785	-200.000	0.111	-1.016
-369.771	445.321	0.154	-0.336
-368.756	-200.000	-0.109	0.673
-367.742	-200.000	-0.010	-0.167
-366.727	-82.394	-0.170	0.055
-365.712	-134.569	-1.136	-0.138
-364.698	-109.516	-0.093	0.020
-363.683	78.503	0.050	0.054
-362.669	-199.149	0.760	0.004
-361.654	34.440	-0.489	0.425
-360.639	-4.591	0.349	0.240
-359.625	-200.000	-0.031	0.654
-358.610	800.000	0.441	-1.596
-357.596	400.841	0.228	-0.475
-356.581	14.027	0.336	-0.260
-355.566	-70.879	0.666	-0.250
-354.552	4.416	-0.622	-0.454
-353.537	20.772	-0.200	-0.161
-352.523	68.567	0.451	0.460
-351.508	-200.000	-0.014	0.099
-350.493	-17.839	0.747	-0.466
-349.479	800.000	0.170	-0.557
-348.464	121.210	-0.240	-0.297
-347.450	800.000	0.224	-0.737
-346.435	95.234	-0.067	-0.076
-345.420	323.109	0.092	-0.173
-344.406	104.726	0.053	-0.062
-343.391	106.418	-0.157	-0.185
-342.377	-200.000	-0.013	0.722
-341.362	114.011	0.488	-0.590
-340.348	167.863	-0.566	-0.800
-339.333	-170.871	0.079	0.003
-338.318	-104.648	0.441	-0.101
-337.304	105.330	0.242	0.283
-336.289	-67.300	0.687	-0.268
-335.275	-111.077	0.169	-0.034
-334.260	-5.700	0.108	-0.074
-333.245	34.899	0.661	0.574
-332.231	-105.279	-0.971	0.220
-331.216	236.690	-0.094	0.155
-330.202	-22.797	0.137	0.082
-329.187	-200.000	0.018	-0.184
-328.172	77.391	0.766	-0.810
-327.158	-200.000	-0.101	0.519
-326.143	800.000	0.114	0.356
-325.129	20.515	-0.524	-0.421
-324.114	217.375	0.172	-0.273
-323.099	-82.774	0.188	-0.060
-322.085	800.000	0.222	0.709
-321.070	-200.000	0.153	-0.768
-320.056	207.587	0.232	-0.360
-319.041	4.431	0.417	-0.304
-318.026	230.568	0.302	-0.490
-317.012	-200.000	-0.032	-0.283
-315.997	-200.000	-0.067	1.006
-314.983	13.121	-0.497	-0.382
-313.968	211.053	0.537	0.838
-312.953	-8.456	0.009	-0.006
-311.939	-69.406	0.142	-0.054
-310.924	0.133	0.658	0.466
-309.910	-112.808	-0.492	-0.097
-308.895	800.000	-0.080	-0.244
-307.880	285.289	0.121	-0.217
-306.866	53.614	0.315	0.300
-305.851	380.586	-0.226	-0.460
-304.837	376.544	0.136	-0.275
-303.822	-141.307	1.071	-0.108
-302.807	-156.879	0.345	0.021
-301.793	-16.430	-0.652	-0.410
-300.778	4.436	-0.147	0.107
-299.764	-200.000	-0.029	-0.875
-298.749	-25.725	-0.240	0.140
-297.735	-26.694	-0.807	-0.468
-296.720	93.039	0.187	0.210
-295.705	-124.681	0.952	-0.146
-294.691	166.752	0.548	-0.770
-293.676	322.510	0.123	0.232
-292.662	15.064	0.346	0.269
-291.647	-96.114	-0.348	-0.092
-290.632	168.788	0.360	0.509
-289.618	800.000	-0.034	0.134
-288.603	7.355	-0.376	0.278
-287.589	-200.000	-0.128	-0.904
-286.574	471.010	-0.198	-0.442
-285.559	-36.973	0.764	-0.406
-284.545	-188.845	0.174	-0.002
-283.530	-200.000	0.059	-0.336
-282.516	196.216	-0.140	0.211
-281.501	130.918	0.402	0.512
-280.486	292.904	-0.396	0.716
-279.472	605.636	-0.100	-0.246
-278.457	696.914	0.160	-0.417
-277.443	148.899	-0.156	-0.210
-276.428	-200.000	-0.072	-0.366
-275.413	-56.747	-0.692	0.303
-274.399	-85.093	0.679	0.211
-273.384	-200.000	0.005	0.806
-272.370	-84.443	-1.083	-0.339
-271.355	175.959	0.677	-0.974
-270.340	379.370	0.346	-0.701
-269.326	205.755	-0.634	-0.977
-268.311	-0.186	-0.312	-0.220
-267.297	-17.122	-0.700	-0.438
-266.282	-87.350	-0.516	-0.155
-265.267	-200.000	0.017	0.621
-264.253	-25.041	-0.411	-0.241
-263.238	-69.188	-0.306	-0.117
-262.224	-132.035	0.636	0.082
-261.209	-32.207	0.247	-0.137
-260.195	-200.000	0.077	-0.428
-259.180	216.066	0.093	0.146
-258.165	-200.000	0.091	0.494
-257.151	544.979	0.109	0.259
-256.136	-142.896	-0.839	-0.081
-255.122	-67.308	0.749	0.292
-254.107	-33.622	-0.057	0.031
-253.092	-200.000	-0.176	-1.123
-252.078	47.435	-0.096	-0.089
-251.063	-67.930	-0.157	0.061
-250.049	-200.000	0.134	0.868
-249.034	800.000	0.121	0.453
-248.019	800.000	0.168	0.499
-247.005	-200.000	-0.101	0.539
-245.990	-45.029	0.538	0.265
-244.976	-154.549	-0.683	-0.045
-243.961	-55.576	-0.854	0.379
-242.946	-106.624	-0.136	-0.030
-241.932	15.673	0.425	-0.331
-240.917	-130.442	-0.404	0.054
-239.903	-183.988	0.343	0.006
-238.888	-95.274	0.128	-0.034
-237.873	-99.571	0.132	-0.033
-236.859	-71.588	0.791	0.292
-235.844	-21.617	-0.068	-0.041
-234.830	-148.012	0.501	0.041
-233.815	-51.436	-0.265	0.123
-232.800	92.128	0.460	0.513
-231.786	-0.342	-0.404	0.284
-230.771	353.962	-0.466	0.916
-229.757	-200.000	-0.121	-0.853
-228.742	-200.000	-0.086	0.441
-227.727	33.209	-0.330	-0.283
-226.713	-30.391	0.681	0.382
-225.698	44.727	-0.352	0.320
-224.684	-156.294	0.740	-0.046
-223.669	-58.013	0.317	0.137
-222.655	-166.256	-0.526	0.022
-221.640	-44.182	0.354	-0.176
-220.625	56.288	0.362	-0.348
-219.611	-178.923	0.503	0.011
-218.596	800.000	-0.230	0.687
-217.582	-31.688	0.653	-0.363
-216.567	-200.000	-0.003	-0.492
-215.552	-12.126	-0.779	-0.504
-214.538	406.553	-0.244	-0.510
-213.523	57.323	-0.311	0.300
-212.509	-53.106	0.161	0.073
-211.494	-8.541	0.579	0.385
-210.479	-200.000	0.061	0.362
-209.465	79.861	0.538	0.571
-208.450	48.426	-0.322	0.298
-207.436	240.194	0.295	-0.486
-206.421	69.286	-0.461	0.469
-205.406	-25.901	-0.144	0.084
-204.392	53.398	0.404	-0.383
-203.377	-6.271	0.270	-0.182
-202.363	282.494	0.224	-0.397
-201.348	800.000	0.386	1.123
-200.333	193.662	0.135	0.203
-199.319	-145.054	0.413	0.037
-198.304	-69.614	-0.372	-0.141
-197.290	-47.771	0.292	0.140
-196.275	603.127	0.399	0.981
-195.260	43.129	0.442	0.399
-194.246	-52.536	0.667	0.305
-193.231	245.880	-0.721	-1.200
-192.217	-101.095	0.859	-0.208
-191.202	-12.235	0.100	0.065
-190.187	800.000	-0.214	0.589
-189.173	-46.990	-0.246	-0.119
-188.158	34.862	-0.324	0.280
-187.144	159.972	-0.026	-0.036
-186.129	749.292	-0.050	0.134
-185.114	800.000	-0.069	0.218
-184.100	239.909	-0.086	0.142
-183.085	-2.235	0.654	0.453
-182.071	800.000	0.349	0.998
-181.056	609.146	0.056	-0.139
-180.042	202.507	-0.406	0.618
-179.027	-135.529	0.875	0.103
-178.012	-110.270	0.577	0.119
-176.998	800.000	0.066	0.198
-175.983	164.962	0.330	-0.460
-174.969	457.549	-0.326	0.714
-173.954	690.039	-0.163	0.421
-172.939	-111.831	-0.587	0.117
-171.925	-158.536	-0.327	-0.019
-170.910	-112.383	0.221	0.044
-169.896	-84.018	0.307	0.096
-168.881	-18.484	-0.193	0.119
-167.866	-122.679	-0.352	-0.056
-166.852	136.715	0.263	-0.339
-165.837	-12.610	-0.234	-0.151
-164.823	37.514	-0.500	-0.438
-163.808	202.305	-0.203	-0.310
-162.793	-200.000	0.050	-0.416
-161.779	-200.000	0.046	0.741
-160.764	-123.605	0.154	0.024
-159.750	96.058	-0.873	-0.984
-158.735	253.004	0.202	-0.340
-157.720	72.265	0.456	-0.469
-156.706	63.719	0.305	-0.303
-155.691	-139.447	-0.696	-0.074
-154.677	297.418	-0.204	-0.370
-153.662	-50.326	-0.978	-0.456
-152.647	-133.251	0.800	-0.100
-151.633	-83.778	-0.517	-0.163
-150.618	302.356	0.240	-0.439
-149.604	800.000	0.121	0.427
-148.589	-200.000	-0.042	-0.258
-147.574	-82.816	0.973	-0.310
-146.560	354.147	0.519	-1.016
-145.545	-56.629	-0.993	-0.434
-144.531	-89.317	-0.731	0.213
-143.516	-116.000	0.254	0.047
-142.502	-61.477	-1.100	-0.456
-141.487	118.564	0.502	0.611
-140.472	-77.878	-0.776	-0.264
-139.458	-200.000	-0.005	0.075
-138.443	-52.095	0.399	0.183
-137.429	-32.362	0.399	0.219
-136.414	-12.995	0.554	-0.355
-135.399	-77.950	-0.659	-0.224
-134.385	-32.712	-0.651	-0.357
-133.370	-200.000	-0.060	0.702
-132.356	207.365	0.232	-0.357
-131.341	-111.746	0.248	0.050
-130.326	-200.000	0.145	1.466
-129.312	-200.000	0.114	0.677
-128.297	-7.273	0.230	0.154
-127.283	3.319	0.984	0.706
-126.268	-110.065	0.776	-0.160
-125.253	-154.525	-0.581	-0.038
-124.239	60.143	-0.530	0.517
-123.224	-200.000	-0.148	-0.724
-122.210	574.626	-0.246	-0.591
-121.195	509.225	0.168	-0.386
-120.180	154.228	0.277	0.374
-119.166	-41.428	0.221	-0.112
-118.151	-52.253	-0.285	-0.130
-117.137	800.000	-0.125	-0.441
-116.122	-19.476	-0.240	-0.147
-115.107	-139.446	0.099	0.010
-114.093	665.922	0.258	-0.656
-113.078	-200.000	0.045	0.501
-112.064	-123.503	-0.475	0.074
-111.049	-200.000	0.049	-0.367
-110.034	-147.861	1.137	0.093
-109.020	-111.170	0.846	0.171
-108.005	-200.000	0.038	0.311
-106.991	-200.000	-0.078	-0.563
-105.976	-200.000	-0.006	-0.396
-104.962	110.740	-0.234	-0.277
-103.947	583.382	-0.175	-0.423
-102.932	800.000	-0.154	-0.420
-101.918	-129.672	0.343	-0.047
-100.903	95.791	0.454	-0.510
-99.889	70.687	-0.479	-0.488
-98.874	800.000	-0.106	-0.288
-97.859	147.432	0.565	-0.749
-96.845	-200.000	-0.036	0.803
-95.830	-69.227	-0.226	0.086
-94.816	174.008	0.515	-0.733
-93.801	-80.534	-0.339	-0.111
-92.786	201.330	0.498	-0.754
-91.772	289.771	-0.245	0.437
-90.757	8.228	-0.370	-0.274
-89.743	-69.503	0.957	-0.361
-88.728	273.504	0.098	0.170
-87.713	-200.000	-0.029	-0.175
-86.699	-25.670	0.204	0.118
-85.684	169.331	-0.305	-0.428
-84.670	139.714	-0.510	0.661
-83.655	-111.792	-0.071	-0.014
-82.640	-85.006	-0.761	0.235
-81.626	17.001	-0.465	-0.362
-80.611	486.910	0.267	-0.600
-79.597	471.502	-0.332	0.736
-78.582	-40.645	0.123	0.063
-77.567	62.989	0.427	0.420
-76.553	111.189	-0.211	-0.250
-75.538	8.778	0.560	-0.415
-74.524	251.745	-0.178	-0.298
-73.509	-34.502	0.338	-0.182
-72.494	800.000	0.039	-0.118
-71.480	-200.000	0.021	-0.429
-70.465	42.337	-0.630	-0.563
-69.451	200.530	-0.086	0.130
-68.436	800.000	0.245	0.729
-67.422	30.005	0.524	-0.439
-66.407	46.692	-0.446	0.407
-65.392	800.000	0.273	0.789
-64.378	706.623	0.216	-0.561
-63.363	-200.000	0.115	0.706
-62.349	146.264	0.327	0.432
-61.334	128.429	-0.735	-0.920
-60.319	-100.705	1.099	-0.266
-59.305	487.915	-0.283	-0.634
-58.290	153.241	0.723	0.972
-57.276	281.758	0.872	1.535
-56.261	-200.000	97.552	601.822
-55.246	629.024	1371.189	3406.271
-54.232	201.138	2538.882	3839.754
-53.217	118.619	2119.554	2571.479
-52.203	43.913	1585.663	1427.322
-51.188	35.453	1324.659	1142.262
-50.173	31.867	1285.024	1087.286
-49.159	56.945	1334.550	1277.697
-48.144	57.398	1351.275	1296.325
-47.130	35.393	1308.668	1127.938
-46.115	32.108	1289.772	1092.535
-45.100	31.884	1285.283	1087.389
-44.086	31.845	1282.603	1084.856
-43.071	31.655	1281.571	1082.840
-42.057	31.743	1279.379	1081.455
-41.042	31.610	1277.262	1078.856
-40.027	31.591	1276.833	1078.340
-39.013	31.734	1274.152	1076.856
-37.998	31.815	1272.351	1075.757
-36.984	31.876	1269.986	1074.063
-35.969	31.735	1268.460	1071.923
-34.954	31.932	1266.333	1071.205
-33.940	31.657	1266.375	1069.629
-32.925	31.793	1263.819	1068.204
-31.911	32.128	1262.014	1068.539
-30.896	31.764	1261.587	1066.066
-29.881	31.816	1260.929	1065.762
-28.867	31.848	1257.630	1063.115
-27.852	31.675	1257.275	1061.794
-26.838	31.536	1256.827	1060.582
-25.823	31.850	1253.963	1059.901
-24.809	32.041	1253.225	1060.312
-23.794	31.950	1251.796	1058.546
-22.779	31.581	1251.503	1056.176
-21.765	31.894	1249.746	1056.414
-20.750	31.932	1247.729	1054.881
-19.736	31.843	1246.810	1053.561
-18.721	31.678	1246.984	1052.739
-17.706	31.855	1245.457	1052.401
-16.692	31.763	1243.474	1050.169
-15.677	31.805	1241.910	1049.046
-14.663	31.404	1242.146	1046.958
-13.648	31.501	1240.354	1045.948
-12.633	31.728	1239.091	1046.108
-11.619	31.928	1237.845	1046.132
-10.604	31.666	1238.473	1045.155
-9.590	31.494	1237.431	1043.279
-8.575	31.754	1235.543	1043.091
-7.560	31.736	1233.930	1041.587
-6.546	31.655	1233.935	1041.103
-5.531	31.367	1233.882	1039.411
-4.517	31.501	1232.774	1039.182
-3.502	31.650	1231.501	1038.893
-2.487	31.532	1231.957	1038.583
-1.473	31.545	1226.572	1034.076
-0.458	30.158	1211.462	1013.719
0.556	28.012	1193.609	974.844
1.571	24.063	1198.957	957.921
2.586	23.080	1213.195	963.855
3.600	22.527	1202.840	952.556
4.615	16.998	1131.841	868.039
5.629	7.767	1057.562	766.680
6.644	3.774	1036.809	732.669
7.659	3.588	1034.639	730.192
8.673	3.559	1032.647	728.584
9.688	3.320	1031.761	726.769
10.702	3.702	1030.226	727.420
11.717	9.646	1037.858	760.878
12.731	19.013	1050.964	814.998
13.746	23.473	1057.266	841.019
14.761	24.800	1056.777	846.842
15.775	24.006	1055.892	842.304
16.790	23.300	1055.127	838.278
17.804	23.318	1054.327	837.653
18.819	23.262	1053.575	836.715
19.834	23.198	1053.339	836.151
20.848	23.188	1052.020	834.986
21.863	23.090	1052.125	834.532
22.877	22.965	1051.797	833.609
23.892	22.864	1051.024	832.445
24.907	22.818	1050.083	831.408
25.921	22.982	1049.255	831.453
26.936	22.793	1046.861	828.593
27.950	22.676	1046.345	827.563
28.965	22.852	1044.641	826.966
29.980	22.761	1043.429	825.509
30.994	22.962	1042.643	825.752
32.009	23.132	1041.114	825.261
33.023	23.005	1041.356	824.789
34.038	23.201	1038.938	823.714
35.053	22.849	1038.195	821.416
36.067	22.733	1038.236	820.833
37.082	22.963	1037.244	821.046
38.096	23.233	1035.791	821.074
39.111	23.259	1034.718	820.271
40.126	23.089	1034.143	818.956
41.140	22.557	1032.303	814.969
42.155	22.591	1031.178	814.166
43.169	22.153	1031.412	812.252
44.184	22.229	1029.690	811.178
45.199	22.527	1028.351	811.420
46.213	22.479	1028.693	811.399
47.228	22.954	1028.386	813.274
48.242	23.384	1027.151	814.201
49.257	23.110	1027.237	812.935
50.271	23.132	1025.272	811.412
51.286	23.216	1024.822	811.369
52.301	23.317	1022.538	809.949
53.315	23.221	1022.542	809.443
54.330	22.898	1021.468	807.044
55.344	22.626	1020.700	805.126
56.359	22.902	1019.459	805.332
57.374	22.663	1019.850	804.479
58.388	22.498	1018.649	802.713
59.403	22.498	1017.302	801.578
60.417	22.582	1016.460	801.225
61.432	22.465	1015.986	800.249
62.447	22.296	1016.159	799.546
63.461	22.303	1014.224	797.986
64.476	22.573	1013.180	798.319
65.490	22.109	1012.597	795.684
66.505	22.112	1011.970	795.134
67.520	22.343	1012.005	796.141
68.534	22.221	1011.283	794.949
69.549	22.173	1008.846	792.744
70.563	21.773	1009.013	791.001
71.578	21.871	1007.059	789.844
72.593	21.718	1006.808	788.888
73.607	21.748	1005.643	788.041
74.622	21.732	1006.316	788.425
75.636	21.696	1004.794	786.998
76.651	22.039	1004.150	787.968
77.666	21.669	1004.334	786.379
78.680	21.783	1003.949	786.522
79.695	22.203	1002.392	787.110
80.709	22.420	1001.736	787.498
81.724	22.127	1001.596	786.009
82.739	22.366	1001.331	786.800
83.753	22.941	1000.471	788.619
84.768	23.308	1000.396	790.129
85.782	23.509	999.290	790.082
86.797	23.679	998.604	790.228
87.812	23.142	997.671	787.030
88.826	23.199	997.106	786.768
89.841	23.170	996.047	785.733
90.855	23.457	995.003	786.115
91.870	23.071	995.246	784.526
92.884	23.538	993.614	785.234
93.899	23.397	992.321	783.519
94.914	23.313	991.776	782.648
95.928	23.255	990.160	781.049
96.943	23.028	989.316	779.314
97.957	22.900	988.775	778.256
98.972	23.244	987.575	778.754
99.987	23.310	986.711	778.295
101.001	23.377	986.111	778.046
102.016	23.389	984.073	776.421
103.030	23.113	984.465	775.454
104.045	23.441	983.600	776.139
105.060	23.252	982.578	774.437
106.074	23.043	982.572	773.452
107.089	22.703	980.971	770.636
108.103	22.372	980.171	768.497
109.118	22.528	977.187	766.765
110.133	22.132	977.378	765.124
111.147	22.116	975.755	763.718
112.162	22.375	974.648	763.909
113.176	22.382	975.221	764.321
114.191	22.720	974.522	765.171
115.206	22.375	973.615	762.893
116.220	22.182	972.606	761.203
117.235	22.441	970.883	760.906
118.249	22.065	970.292	758.749
119.264	21.852	970.878	758.220
120.279	21.532	968.943	755.263
121.293	21.920	967.764	755.949
122.308	21.676	968.442	755.358
123.322	21.772	966.354	754.077
124.337	21.537	965.123	752.041
125.352	21.339	965.374	751.319
126.366	21.615	963.959	751.333
127.381	22.099	962.970	752.569
128.395	21.888	962.880	751.532
129.410	22.337	961.884	752.605
130.424	22.422	960.855	752.099
131.439	22.446	960.516	751.871
132.454	22.521	959.633	751.430
133.468	22.594	957.447	749.965
134.483	22.333	957.524	748.849
135.497	22.485	957.312	749.260
136.512	22.674	956.079	749.034
137.527	22.822	955.553	749.183
138.541	22.376	955.515	747.192
139.556	22.685	954.025	747.271
140.570	22.814	953.369	747.240
141.585	23.176	952.396	747.941
142.600	22.850	952.855	746.856
143.614	23.418	951.953	748.483
144.629	23.589	950.982	748.375
145.643	23.567	949.589	747.118
146.658	22.760	949.433	743.529
147.673	22.861	947.398	742.296
148.687	22.375	947.020	739.893
149.702	22.606	944.940	739.168
150.716	22.393	944.375	737.771
151.731	22.679	944.127	738.708
152.746	22.706	943.395	738.184
153.760	22.780	943.135	738.223
154.775	22.905	942.729	738.365
155.789	22.995	942.039	738.133
156.804	23.154	940.639	737.636
157.819	23.209	939.379	736.810
158.833	23.443	939.628	737.915
159.848	23.479	938.371	737.012
160.862	23.166	937.708	735.126
161.877	23.049	935.553	732.887
162.892	22.839	934.219	730.905
163.906	22.673	933.901	729.906
164.921	22.499	934.028	729.221
165.935	22.596	932.418	728.302
166.950	22.855	931.368	728.484
167.964	22.711	930.686	727.295
168.979	22.354	930.150	725.337
169.994	22.787	928.513	725.781
171.008	22.714	928.137	725.122
172.023	23.550	926.764	727.411
173.037	23.355	927.317	726.983
174.052	22.872	926.556	724.341
175.067	22.700	924.846	722.237
176.081	22.210	924.401	719.818
177.096	22.259	923.126	718.966
178.110	22.196	922.169	717.899
179.125	22.053	923.232	718.078
180.140	22.311	922.944	718.842
181.154	22.647	923.416	720.519
182.169	23.026	923.405	721.998
183.183	23.321	921.725	721.822
184.198	22.857	921.170	719.431
185.213	23.220	918.490	718.750
186.227	23.119	919.173	718.810
187.242	23.219	918.745	718.818
188.256	23.239	918.825	718.897
189.271	23.413	918.049	718.935
190.286	22.980	916.125	715.612
191.300	22.378	914.968	712.210
192.315	21.966	914.260	709.928
193.329	22.150	913.452	709.981
194.344	22.523	912.962	711.043
195.359	22.622	912.678	711.161
196.373	22.472	912.992	710.735
197.388	23.074	912.293	712.554
198.402	23.290	912.755	713.721
199.417	23.692	911.604	714.376
200.432	23.361	912.546	713.720
201.446	23.734	911.089	714.015
202.461	23.436	910.015	711.913
203.475	23.588	909.099	711.745
204.490	23.179	907.586	708.858
205.504	22.960	907.202	707.618
206.519	23.045	907.016	707.752
207.534	22.979	906.525	707.045
208.548	23.168	905.270	706.759
209.563	23.069	905.379	706.386
210.577	23.017	904.978	705.802
211.592	23.368	904.245	706.565
212.607	23.857	903.388	707.782
213.621	23.568	902.768	706.084
214.636	23.892	900.944	705.880
215.650	23.421	900.760	703.804
216.665	23.265	900.999	703.311
217.680	23.376	900.330	703.165
218.694	23.341	899.530	702.340
219.709	23.168	897.773	700.220
220.723	23.329	898.560	701.409
221.738	23.045	896.832	698.876
222.753	23.509	896.710	700.552
223.767	23.346	895.689	699.051
224.782	23.829	895.390	700.660
225.796	23.282	896.295	699.148
226.811	23.414	893.972	697.793
227.826	23.109	893.133	695.878
228.840	22.994	892.613	694.957
229.855	23.165	891.747	694.892
230.869	22.833	891.334	693.209
231.884	23.059	891.360	694.052
232.899	22.990	889.887	692.573
233.913	22.934	888.814	691.458
234.928	22.909	888.805	691.291
235.942	22.349	888.436	688.752
236.957	22.532	887.299	688.526
237.972	22.481	886.855	687.922
238.986	22.547	886.472	687.822
240.001	22.694	885.280	687.407
241.015	22.587	886.104	687.572
242.030	22.627	885.651	687.312
243.045	23.123	884.097	687.978
244.059	22.982	884.394	687.599
245.074	23.058	884.181	687.669
246.088	23.236	882.834	687.248
247.103	23.500	882.917	688.277
248.117	24.033	882.183	689.712
249.132	23.942	882.945	689.893
250.147	24.624	881.960	691.702
251.161	24.673	881.470	691.448
252.176	24.828	879.958	690.799
253.190	24.501	880.312	689.751
254.205	24.873	878.998	690.095
255.220	24.327	878.523	687.560
256.234	24.462	879.027	688.412
257.249	24.212	877.522	686.210
258.263	24.314	876.241	685.540
259.278	24.047	876.156	684.385
260.293	24.304	875.818	685.049
261.307	24.442	875.089	684.948
262.322	24.558	874.305	684.719
263.336	24.623	873.261	684.088
264.351	24.456	872.607	682.877
265.366	24.324	871.710	681.610
266.380	24.608	871.844	682.741
267.395	24.238	871.061	680.656
268.409	24.503	869.833	680.644
269.424	24.251	870.344	680.025
270.439	24.427	868.028	678.824
271.453	24.188	867.991	677.826
272.468	24.288	866.835	677.240
273.482	24.145	867.391	677.072
274.497	23.840	866.808	675.401
275.512	23.830	865.723	674.456
276.526	24.187	866.261	676.169
277.541	24.234	865.239	675.492
278.555	24.380	865.807	676.427
279.570	24.417	864.550	675.528
280.585	24.688	862.979	675.265
281.599	24.186	863.329	673.580
282.614	24.187	861.730	672.278
283.628	23.885	861.343	670.776
284.643	23.628	861.122	669.574
285.657	23.913	860.499	670.107
286.672	23.594	860.241	668.644
287.687	23.943	860.154	669.833
288.701	23.876	858.841	668.498
289.716	23.988	858.555	668.637
290.730	24.213	857.602	668.678
291.745	24.149	856.663	667.647
292.760	24.494	855.840	668.242
293.774	24.440	856.531	668.520
294.789	24.583	855.907	668.506
295.803	24.150	854.526	665.750
296.818	24.317	854.010	665.913
297.833	24.305	852.121	664.337
298.847	24.198	851.487	663.386
299.862	24.369	851.815	664.218
300.876	24.628	851.613	664.969
301.891	24.610	852.037	665.171
302.906	24.746	851.668	665.331
303.920	25.415	849.665	666.192
304.935	25.004	850.025	664.886
305.949	24.799	849.416	663.593
306.964	24.527	848.198	661.577
307.979	24.501	847.552	660.917
308.993	24.662	848.208	661.967
310.008	24.376	848.154	660.807
311.022	24.317	846.569	659.295
312.037	24.312	845.947	658.734
313.052	23.992	845.413	657.077
314.066	23.729	844.249	655.145
315.081	23.758	843.899	654.920
316.095	24.033	843.117	655.272
317.110	23.896	843.543	655.038
318.125	23.512	842.521	652.775
319.139	23.108	842.126	650.923
320.154	23.748	840.091	651.641
321.168	23.999	839.895	652.351
322.183	23.825	839.775	651.563
323.197	24.013	839.413	651.914
324.212	24.142	838.922	651.945
325.227	24.036	838.106	650.866
326.241	23.623	837.956	649.184
327.256	23.641	837.878	649.130
328.270	23.706	836.737	648.426
329.285	23.734	835.991	647.895
330.300	23.694	835.167	647.053
331.314	24.020	834.801	647.897
332.329	24.019	834.344	647.483
333.343	24.260	834.455	648.387
334.358	24.090	834.638	647.853
335.373	24.197	833.770	647.513
336.387	24.556	834.374	649.230
337.402	24.639	833.001	648.403
338.416	24.763	833.608	649.269
339.431	25.517	831.210	650.072
340.446	25.087	833.130	649.958
341.460	24.943	833.093	649.348
342.475	24.911	832.451	648.676
343.489	25.152	831.779	648.968
344.504	25.750	830.271	649.891
345.519	25.697	830.602	649.901
346.533	25.037	829.948	646.950
347.548	24.978	829.523	646.349
348.562	24.767	828.865	645.019
349.577	24.756	826.658	643.203
350.592	24.501	827.556	642.926
351.606	24.099	826.814	640.850
352.621	24.307	825.175	640.269
353.635	24.435	824.382	640.056
354.650	24.736	824.371	641.068
355.665	24.370	824.071	639.467
356.679	24.616	823.240	639.649
357.694	24.561	822.648	638.935
358.708	24.363	822.890	638.358
359.723	24.700	821.238	638.222
360.738	24.447	820.167	636.431
361.752	24.387	820.753	636.616
362.767	25.227	819.883	638.876
363.781	25.293	820.131	639.249
364.796	25.259	819.672	638.713
365.810	25.649	819.658	640.035
366.825	25.576	819.283	639.423
367.840	25.338	817.939	637.475
368.854	24.967	817.702	635.916
369.869	24.946	816.162	634.589
370.883	25.189	816.522	635.673
371.898	25.230	816.530	635.768
372.913	25.308	815.951	635.537
373.927	24.914	816.193	634.273
374.942	25.085	814.872	633.795
375.956	25.200	815.108	634.331
376.971	25.260	814.562	634.060
377.986	25.281	814.223	633.814
379.000	25.845	813.222	634.970
380.015	25.692	811.745	633.222
381.029	25.792	811.135	633.041
382.044	25.693	810.889	632.444
383.059	25.666	811.054	632.423
384.073	25.595	810.416	631.620
385.088	25.107	808.914	628.681
386.102	24.801	808.210	627.007
387.117	24.713	807.745	626.281
388.132	24.616	806.701	625.077
389.146	24.647	806.456	624.941
390.161	25.538	806.830	628.293
391.175	25.328	806.589	627.315
392.190	25.524	805.687	627.240
393.205	24.883	803.727	623.430
394.219	24.759	804.024	623.171
395.234	24.488	803.994	622.149
396.248	24.579	803.729	622.205
397.263	24.701	803.313	622.251
398.278	24.512	802.220	620.696
399.292	24.246	802.028	619.566
400.307	24.268	801.366	619.077
401.321	24.427	800.709	619.067
402.336	24.718	800.957	620.214
403.350	24.874	800.743	620.535
404.365	25.444	801.114	622.742
405.380	25.774	799.870	622.861
406.394	26.113	799.409	623.619
407.409	25.787	800.091	622.967
408.423	26.098	799.366	623.424
409.438	25.908	799.385	622.727
410.453	25.941	798.814	622.339
411.467	25.916	797.299	621.018
412.482	25.992	797.235	621.175
413.496	25.986	797.230	621.096
414.511	25.621	797.463	619.966
415.526	25.876	796.235	619.832
416.540	25.508	796.319	618.579
417.555	25.766	795.157	618.506
418.569	25.564	794.898	617.558
419.584	25.802	794.426	617.951
420.599	25.884	793.957	617.815
421.613	162.198	1370.781	1793.259
422.628	140.637	1454.820	1793.299
