DTS Sentinel unit serial number:	SN413079Multiplexer serial number:	ORYXHardware model number:	OX4-SRSoftware version number:	ORYX F/W v4.00 Oryx Data Collector v3.7.2.0data status	okinstallation	princeton_trtdifferential loss correction	single-endedforward channel	channel 1reverse channel	N/Adate	2019/09/18time	19:34:35forward acquisition time	60.00reverse acquisition time	0.00gamma	496.2192k internal	0.2325k external	0.2325temperature offset calibration	1.0026default loss term (dB/km)	0.3790temperature slope calibration	1.0000multiplexer offset coefficient	1.0000multiplexer slope coefficient	1.0000fibre end	0.00T internal ref (°C)	32.48T ext. ref 1 (°C)	1.02T ext. ref 2 (°C)	22.64length (m)	temperature (°C)	Stokes	anti-Stokes-747.200	482.000	0.159	0.365
-746.185	-158.612	-0.224	0.013
-745.171	-95.130	0.118	-0.032
-744.156	-57.104	-0.177	-0.079
-743.142	-200.000	0.014	0.131
-742.127	-200.000	0.026	-0.234
-741.112	-117.846	0.238	-0.043
-740.098	-128.505	0.257	0.037
-739.083	110.869	-0.323	-0.393
-738.069	-200.000	0.006	0.168
-737.054	423.026	-0.137	0.296
-736.039	727.079	-0.057	-0.154
-735.025	-100.421	0.053	0.013
-734.010	-72.457	-0.104	-0.039
-732.996	158.891	-0.022	-0.031
-731.981	-140.998	-0.320	-0.033
-730.966	-74.555	0.124	0.045
-729.952	-200.000	0.076	0.369
-728.937	-78.873	-0.222	-0.076
-727.923	639.009	0.104	-0.268
-726.908	259.450	0.176	-0.307
-725.894	-9.773	-0.141	0.095
-724.879	-200.000	0.008	-0.082
-723.864	-2.520	-0.219	-0.155
-722.850	97.078	-0.118	0.136
-721.835	17.345	0.128	0.102
-720.821	-48.669	-0.256	-0.124
-719.806	19.928	0.153	-0.124
-718.791	147.096	0.127	-0.172
-717.777	369.972	0.068	-0.140
-716.762	-18.746	0.028	0.018
-715.748	800.000	0.020	0.059
-714.733	800.000	-0.035	0.100
-713.718	359.958	-0.110	0.222
-712.704	800.000	0.049	0.161
-711.689	-39.447	0.108	-0.057
-710.675	-200.000	-0.016	-0.081
-709.660	429.382	-0.090	0.196
-708.645	-40.695	-0.326	0.170
-707.631	-200.000	-0.016	0.207
-706.616	800.000	0.047	0.145
-705.602	609.505	0.051	-0.128
-704.587	113.233	-0.044	-0.054
-703.572	-69.463	0.078	-0.030
-702.558	-124.533	-0.205	0.032
-701.543	-6.180	-0.159	0.109
-700.529	46.674	0.053	0.050
-699.514	2.397	-0.528	-0.385
-698.499	645.675	0.038	-0.098
-697.485	-37.212	0.330	-0.178
-696.470	-148.818	0.158	-0.013
-695.456	377.587	-0.075	0.154
-694.441	138.474	-0.105	0.138
-693.426	800.000	0.088	-0.264
-692.412	-72.884	-0.428	-0.158
-691.397	800.000	0.029	-0.097
-690.383	-200.000	0.015	0.216
-689.368	-92.350	-0.117	0.033
-688.354	-200.000	0.015	-0.228
-687.339	-24.456	0.101	0.060
-686.324	741.903	-0.108	-0.294
-685.310	-200.000	-0.007	0.102
-684.295	-25.210	-0.109	-0.065
-683.281	170.622	0.112	-0.162
-682.266	-70.342	-0.183	-0.070
-681.251	52.528	0.137	0.132
-680.237	53.158	-0.103	-0.099
-679.222	-200.000	0.008	0.113
-678.208	207.028	0.027	-0.042
-677.193	67.396	0.350	0.360
-676.178	-200.000	0.011	-0.611
-675.164	222.625	0.082	-0.134
-674.149	70.009	0.177	-0.184
-673.135	-99.257	0.116	-0.029
-672.120	-94.239	0.056	0.015
-671.105	-200.000	-0.055	0.248
-670.091	-30.711	0.189	-0.108
-669.076	-79.168	-0.113	-0.038
-668.062	800.000	-0.122	-0.376
-667.047	-70.907	0.185	-0.070
-666.032	-130.255	-0.143	-0.020
-665.018	800.000	-0.051	0.184
-664.003	-200.000	-0.025	0.483
-662.989	-150.833	-0.303	0.023
-661.974	800.000	-0.044	-0.190
-660.959	-157.262	-0.153	0.009
-659.945	-82.804	-0.137	-0.045
-658.930	-98.485	-0.138	-0.036
-657.916	-134.479	0.059	0.007
-656.901	-200.000	-0.009	0.242
-655.886	245.933	0.112	0.189
-654.872	657.976	0.071	0.182
-653.857	197.015	-0.128	-0.197
-652.843	-80.744	-0.205	-0.068
-651.828	-132.082	-0.404	0.053
-650.814	270.429	-0.150	0.264
-649.799	800.000	0.080	0.224
-648.784	-18.289	-0.185	-0.116
-647.770	-99.102	0.294	-0.075
-646.755	-11.858	-0.205	-0.135
-645.741	-18.755	-0.345	0.216
-644.726	-200.000	0.005	-0.180
-643.711	-200.000	0.050	-0.330
-642.697	-72.116	0.196	0.073
-641.682	-129.322	-0.068	-0.010
-640.668	464.123	-0.058	0.131
-639.653	230.166	-0.168	0.276
-638.638	-200.000	-0.006	0.031
-637.624	183.783	-0.044	-0.065
-636.609	800.000	0.083	-0.354
-635.595	-110.445	-0.194	0.040
-634.580	296.721	0.134	0.247
-633.565	-6.378	0.157	-0.107
-632.551	-200.000	0.023	-0.424
-631.536	123.518	0.136	-0.172
-630.522	54.102	0.168	-0.163
-629.507	-104.552	0.262	0.061
-628.492	-116.468	0.264	-0.049
-627.478	-125.814	-0.157	-0.024
-626.463	-8.071	-0.138	-0.094
-625.449	800.000	-0.040	0.148
-624.434	-52.705	-0.394	0.183
-623.419	-200.000	-0.040	-0.208
-622.405	-200.000	0.000	-0.339
-621.390	-141.582	-0.078	0.008
-620.376	-148.301	0.265	-0.022
-619.361	473.575	-0.040	-0.090
-618.346	-43.941	0.423	-0.213
-617.332	-200.000	-0.001	0.100
-616.317	61.818	-0.100	0.100
-615.303	-200.000	-0.038	0.440
-614.288	-200.000	-0.002	0.161
-613.273	34.101	-0.091	0.080
-612.259	-200.000	0.000	0.085
-611.244	-14.524	-0.031	-0.020
-610.230	-200.000	0.027	0.171
-609.215	-27.382	0.247	-0.144
-608.201	-154.052	-0.495	0.034
-607.186	-200.000	-0.062	0.381
-606.171	309.990	-0.185	0.348
-605.157	-200.000	-0.075	0.403
-604.142	19.762	-0.094	-0.076
-603.128	24.903	-0.122	0.102
-602.113	-112.246	0.175	0.035
-601.098	-168.503	0.147	0.006
-600.084	-200.000	-0.036	-0.260
-599.069	-53.073	-0.207	-0.095
-598.055	36.109	0.074	-0.066
-597.040	-186.235	-0.132	0.002
-596.025	-88.485	-0.108	0.032
-595.011	23.793	-0.255	-0.211
-593.996	581.686	0.049	0.120
-592.982	8.310	0.150	-0.113
-591.967	469.222	-0.064	0.144
-590.952	-89.234	0.120	-0.036
-589.938	85.273	0.230	0.253
-588.923	6.117	-0.201	0.149
-587.909	-65.219	-0.070	-0.028
-586.894	-200.000	0.033	0.187
-585.879	-107.188	0.058	0.013
-584.865	314.131	-0.156	-0.294
-583.850	-200.000	-0.003	0.460
-582.836	-89.223	0.230	0.068
-581.821	-25.504	-0.344	-0.204
-580.806	-115.519	-0.236	0.045
-579.792	469.497	-0.013	-0.028
-578.777	131.404	0.129	-0.166
-577.763	-85.600	-0.166	0.052
-576.748	461.675	-0.128	-0.285
-575.733	-18.624	-0.100	-0.063
-574.719	-200.000	0.016	0.106
-573.704	44.090	0.178	-0.164
-572.690	-119.437	-0.324	0.056
-571.675	670.098	-0.043	0.110
-570.661	-13.183	-0.137	0.089
-569.646	-8.032	-0.246	-0.166
-568.631	-200.000	-0.003	0.193
-567.617	-200.000	0.006	0.231
-566.602	-127.522	0.164	-0.024
-565.588	-79.857	0.167	0.056
-564.573	-62.624	0.107	0.044
-563.558	-200.000	-0.029	-0.322
-562.544	423.906	-0.092	0.199
-561.529	-89.002	-0.376	0.111
-560.515	-18.483	-0.479	-0.299
-559.500	131.807	-0.148	-0.190
-558.485	-10.742	-0.144	0.095
-557.471	-10.003	0.140	-0.094
-556.456	-136.565	-0.242	-0.028
-555.442	25.403	-0.123	-0.102
-554.427	28.246	-0.106	-0.090
-553.412	-43.069	0.093	0.047
-552.398	165.656	-0.169	-0.239
-551.383	-102.935	-0.085	0.020
-550.369	-141.675	-0.066	-0.007
-549.354	-52.011	-0.248	-0.115
-548.339	-200.000	0.012	-0.081
-547.325	-33.726	0.237	-0.131
-546.310	-200.000	0.005	-0.109
-545.296	489.085	0.134	-0.307
-544.281	-130.954	-0.139	-0.019
-543.266	-177.590	-0.162	0.004
-542.252	-200.000	0.043	0.219
-541.237	-41.182	-0.055	-0.028
-540.223	-200.000	0.018	0.095
-539.208	-200.000	0.012	-0.147
-538.193	-141.606	-0.213	0.022
-537.179	-200.000	0.021	-0.153
-536.164	86.650	-0.083	-0.091
-535.150	-117.720	-0.016	-0.003
-534.135	-193.135	-0.184	-0.002
-533.121	233.955	-0.110	0.181
-532.106	101.234	0.067	0.079
-531.091	-164.529	-0.237	0.011
-530.077	-74.268	-0.193	0.070
-529.062	800.000	-0.079	-0.237
-528.048	7.682	-0.089	0.067
-527.033	670.497	-0.093	-0.242
-526.018	-18.288	0.226	0.141
-525.004	-120.354	0.091	-0.015
-523.989	60.395	-0.321	0.318
-522.975	204.074	0.050	-0.077
-521.960	640.272	0.109	-0.278
-520.945	198.135	0.112	-0.171
-519.931	203.929	-0.135	-0.209
-518.916	800.000	-0.080	0.310
-517.902	-124.262	0.479	0.075
-516.887	-116.912	-0.139	-0.025
-515.872	-200.000	0.009	-0.169
-514.858	-65.687	-0.065	-0.026
-513.843	446.313	-0.063	-0.138
-512.829	100.496	-0.333	-0.387
-511.814	-178.405	0.331	0.008
-510.799	-126.215	-0.248	0.037
-509.785	291.372	0.208	-0.378
-508.770	461.646	0.069	-0.153
-507.756	-38.647	-0.364	-0.192
-506.741	800.000	-0.081	-0.307
-505.726	238.740	0.119	-0.198
-504.712	800.000	-0.123	-0.404
-503.697	-153.866	-0.130	-0.009
-502.683	-106.223	0.176	-0.040
-501.668	-200.000	0.007	0.075
-500.653	222.361	0.041	0.066
-499.639	-45.275	0.019	-0.009
-498.624	800.000	0.056	-0.205
-497.610	269.018	-0.133	0.233
-496.595	155.577	0.036	-0.049
-495.581	-83.947	0.251	-0.080
-494.566	800.000	0.121	0.399
-493.551	-27.011	-0.355	0.207
-492.537	646.455	0.080	0.205
-491.522	800.000	0.063	-0.238
-490.508	800.000	-0.073	0.273
-489.493	-72.777	-0.024	0.009
-488.478	-125.109	0.236	-0.036
-487.464	142.553	0.238	0.316
-486.449	-200.000	-0.026	-0.132
-485.435	-200.000	0.021	-0.203
-484.420	11.999	-0.133	0.102
-483.405	385.737	-0.136	0.280
-482.391	-200.000	0.021	-0.173
-481.376	218.621	0.012	-0.020
-480.362	21.037	0.201	-0.163
-479.347	187.376	0.198	-0.294
-478.332	-143.369	-0.116	0.011
-477.318	-52.582	0.140	0.065
-476.303	67.688	0.159	-0.162
-475.289	-200.000	0.048	-0.263
-474.274	800.000	-0.044	-0.126
-473.259	-200.000	0.050	0.346
-472.245	-200.000	-0.006	-0.068
-471.230	685.529	0.020	0.052
-470.216	-152.502	-0.254	0.018
-469.201	-10.903	0.081	-0.054
-468.186	116.183	0.122	-0.149
-467.172	188.152	0.220	0.328
-466.157	-108.350	-0.267	-0.057
-465.143	-200.000	-0.045	-0.213
-464.128	-93.996	0.392	0.108
-463.113	205.579	-0.207	-0.322
-462.099	66.419	-0.167	0.170
-461.084	-141.198	0.124	0.013
-460.070	-200.000	-0.028	-0.431
-459.055	-122.862	-0.148	-0.024
-458.040	-200.000	0.029	-0.131
-457.026	166.803	-0.104	0.147
-456.011	122.509	0.160	0.200
-454.997	-194.364	-0.239	0.002
-453.982	-171.671	-0.328	0.011
-452.968	481.549	0.178	0.403
-451.953	4.859	-0.134	0.098
-450.938	800.000	0.100	-0.343
-449.924	-74.131	0.329	0.119
-448.909	-200.000	-0.071	0.316
-447.895	-86.385	-0.224	0.069
-446.880	84.726	0.034	0.037
-445.865	800.000	0.099	-0.317
-444.851	334.064	-0.130	-0.250
-443.836	47.053	-0.111	-0.103
-442.822	75.934	0.214	0.226
-441.807	-9.533	0.133	-0.089
-440.792	-123.330	-0.249	-0.040
-439.778	-114.508	-0.278	0.053
-438.763	29.776	0.179	0.152
-437.749	-106.849	0.195	-0.043
-436.734	37.485	0.081	0.072
-435.719	112.464	0.103	0.124
-434.705	800.000	-0.039	-0.115
-433.690	81.976	0.034	0.036
-432.676	-115.584	-0.400	-0.075
-431.661	441.704	-0.142	0.309
-430.646	-200.000	-0.018	-0.235
-429.632	-35.050	-0.471	0.256
-428.617	336.155	0.140	0.272
-427.603	102.801	0.253	0.295
-426.588	-184.084	0.294	0.005
-425.573	-99.126	0.165	-0.042
-424.559	-119.529	0.020	0.003
-423.544	-70.954	-0.169	-0.064
-422.530	-135.833	0.313	0.037
-421.515	167.733	-0.115	-0.163
-420.500	558.414	0.275	0.662
-419.486	-200.000	0.011	0.219
-418.471	800.000	-0.095	-0.287
-417.457	22.848	0.153	0.125
-416.442	-96.129	-0.114	-0.030
-415.428	-189.246	0.297	0.004
-414.413	22.115	0.009	0.007
-413.398	-15.006	0.156	-0.100
-412.384	503.637	0.065	0.149
-411.369	-124.727	0.261	0.040
-410.355	-200.000	0.013	-0.192
-409.340	360.638	0.158	-0.315
-408.325	-200.000	-0.001	0.012
-407.311	115.777	-0.343	0.417
-406.296	800.000	0.035	0.115
-405.282	-85.358	0.237	0.074
-404.267	-93.330	-0.371	-0.103
-403.252	188.580	-0.016	0.024
-402.238	370.841	0.148	0.298
-401.223	-39.023	-0.191	0.100
-400.209	403.135	-0.180	-0.378
-399.194	122.561	0.130	0.162
-398.179	-16.746	0.246	-0.155
-397.165	-138.054	-0.198	0.022
-396.150	800.000	-0.074	-0.287
-395.136	205.564	0.075	0.117
-394.121	-200.000	-0.008	-0.086
-393.106	-128.929	-0.041	-0.006
-392.092	88.832	0.142	-0.158
-391.077	-37.430	0.214	-0.114
-390.063	70.137	0.194	-0.199
-389.048	-106.940	-0.202	-0.045
-388.033	108.136	-0.112	0.133
-387.019	-66.397	0.139	0.055
-386.004	-200.000	-0.003	-0.074
-384.990	229.070	-0.042	-0.068
-383.975	246.788	0.159	0.266
-382.960	-109.520	-0.075	0.016
-381.946	588.786	0.124	0.304
-380.931	-200.000	-0.009	0.234
-379.917	179.909	0.056	-0.082
-378.902	800.000	0.039	0.157
-377.888	-138.915	-0.391	-0.042
-376.873	-126.497	0.055	0.008
-375.858	144.484	0.222	0.295
-374.844	80.633	-0.235	0.252
-373.829	295.017	-0.066	0.120
-372.815	-6.057	-0.146	-0.099
-371.800	-143.296	0.384	0.037
-370.785	-32.272	-0.087	0.048
-369.771	-114.021	-0.536	0.103
-368.756	337.526	0.157	0.303
-367.742	746.157	-0.137	0.366
-366.727	174.028	-0.139	0.200
-365.712	-143.799	0.095	0.009
-364.698	-53.529	0.385	0.175
-363.683	-84.284	-0.152	-0.048
-362.669	37.672	-0.166	-0.146
-361.654	-41.313	-0.289	0.148
-360.639	-200.000	0.117	0.001
-359.625	800.000	0.110	-0.346
-358.610	-55.376	-0.142	0.063
-357.596	-62.360	-0.144	-0.059
-356.581	568.012	0.091	0.220
-355.566	-77.527	-0.167	-0.057
-354.552	-200.000	0.024	-0.185
-353.537	-200.000	-0.018	-0.173
-352.523	-40.109	-0.244	0.127
-351.508	800.000	-0.065	-0.278
-350.493	105.687	-0.247	-0.290
-349.479	-149.589	0.083	-0.007
-348.464	373.873	0.145	0.294
-347.450	-149.965	-0.165	0.013
-346.435	-45.575	0.355	-0.175
-345.420	107.714	0.192	-0.227
-344.406	800.000	0.143	-0.515
-343.391	110.243	-0.131	0.156
-342.377	404.512	-0.229	-0.479
-341.362	-29.308	-0.039	-0.022
-340.348	256.828	0.135	0.230
-339.333	109.550	-0.197	0.234
-338.318	-124.211	-0.261	0.041
-337.304	29.884	-0.168	-0.142
-336.289	-200.000	-0.042	-0.249
-335.275	66.161	-0.018	0.018
-334.260	-114.213	-0.274	0.053
-333.245	73.797	-0.419	-0.437
-332.231	101.557	0.068	0.079
-331.216	161.705	-0.148	-0.205
-330.202	-12.855	-0.029	-0.019
-329.187	385.306	0.159	-0.325
-328.172	9.525	0.333	-0.251
-327.158	-32.719	-0.088	0.049
-326.143	-107.204	-0.186	-0.041
-325.129	-200.000	0.042	-0.260
-324.114	134.485	0.056	0.073
-323.099	97.284	-0.116	-0.132
-322.085	291.155	-0.063	-0.114
-321.070	-25.227	0.094	-0.055
-320.056	2.648	-0.028	0.020
-319.041	8.364	-0.402	0.300
-318.026	-134.769	0.353	0.043
-317.012	800.000	0.047	-0.142
-315.997	124.439	-0.214	-0.267
-314.983	-15.413	-0.260	0.165
-313.968	-37.101	0.166	0.088
-312.953	-200.000	-0.042	-0.247
-311.939	720.861	0.070	-0.183
-310.924	-3.280	0.204	0.141
-309.910	-134.371	-0.213	-0.026
-308.895	-67.615	0.111	-0.043
-307.880	-27.423	0.295	0.170
-306.866	-200.000	-0.005	0.052
-305.851	-200.000	0.059	-0.324
-304.837	-200.000	-0.015	-0.136
-303.822	-48.886	0.177	0.084
-302.807	382.682	-0.064	-0.131
-301.793	144.380	0.157	0.207
-300.778	37.999	0.106	0.093
-299.764	-200.000	0.017	-0.155
-298.749	16.713	0.237	0.186
-297.735	-20.940	0.212	0.129
-296.720	240.567	-0.097	0.160
-295.705	800.000	0.061	0.189
-294.691	70.480	0.282	0.289
-293.676	75.549	0.086	0.090
-292.662	-88.012	0.099	-0.029
-291.647	485.237	0.119	0.270
-290.632	-55.794	-0.405	0.179
-289.618	-12.144	-0.271	-0.176
-288.603	-17.994	0.295	-0.183
-287.589	-108.792	0.077	0.016
-286.574	-30.339	0.238	-0.134
-285.559	-55.796	-0.095	-0.042
-284.545	8.396	0.111	-0.083
-283.530	45.755	-0.271	-0.249
-282.516	800.000	0.030	0.087
-281.501	-200.000	0.008	0.269
-280.486	58.971	0.205	0.200
-279.472	-82.683	0.212	0.068
-278.457	-200.000	-0.042	0.241
-277.443	-147.705	0.186	-0.015
-276.428	-93.148	-0.211	-0.058
-275.413	130.648	0.115	-0.146
-274.399	800.000	-0.110	-0.325
-273.384	216.329	-0.117	0.185
-272.370	655.297	0.076	-0.194
-271.355	2.435	-0.158	-0.113
-270.340	-143.982	-0.053	0.005
-269.326	800.000	0.065	-0.212
-268.311	-33.432	0.180	0.099
-267.297	800.000	-0.086	0.279
-266.282	154.061	0.252	0.343
-265.267	-20.186	0.325	0.198
-264.253	800.000	-0.100	0.312
-263.238	800.000	0.058	-0.167
-262.224	-126.661	0.234	0.034
-261.209	107.688	0.045	0.053
-260.195	-200.000	-0.019	-0.142
-259.180	-59.837	0.407	0.172
-258.165	-200.000	-0.007	0.218
-257.151	511.818	0.062	0.142
-256.136	-200.000	-0.018	0.193
-255.122	-200.000	-0.013	0.082
-254.107	-113.281	-0.117	0.023
-253.092	258.524	-0.084	-0.143
-252.078	-56.782	0.166	0.073
-251.063	143.033	-0.091	-0.120
-250.049	-54.523	-0.268	-0.120
-249.034	-32.489	0.069	-0.038
-248.019	608.251	0.076	0.189
-247.005	356.193	-0.019	-0.037
-245.990	141.640	0.278	-0.365
-244.976	-62.279	0.109	-0.045
-243.961	-105.121	0.190	-0.043
-242.946	402.031	0.134	0.279
-241.932	-50.895	0.150	-0.070
-240.917	71.357	0.237	-0.243
-239.903	54.927	-0.090	-0.086
-238.888	-112.866	-0.341	-0.067
-237.873	93.825	0.132	-0.148
-236.859	123.669	-0.168	0.208
-235.844	75.464	0.047	0.049
-234.830	68.313	-0.023	0.024
-233.815	-200.000	0.016	0.124
-232.800	-6.926	-0.373	0.251
-231.786	44.551	-0.119	-0.108
-230.771	123.012	0.119	0.147
-229.757	-134.064	0.228	0.028
-228.742	47.936	-0.069	-0.063
-227.727	-200.000	0.044	-0.217
-226.713	320.198	0.119	0.224
-225.698	130.811	0.325	0.413
-224.684	-73.862	-0.123	-0.044
-223.669	200.641	0.062	0.095
-222.655	117.736	-0.180	0.219
-221.640	-141.784	0.245	0.024
-220.625	347.042	0.084	0.163
-219.611	-200.000	0.040	0.202
-218.596	-80.845	-0.184	-0.060
-217.582	88.493	0.134	-0.148
-216.567	-200.000	0.019	0.098
-215.552	-160.953	0.306	-0.016
-214.538	31.055	-0.188	0.159
-213.523	800.000	0.056	0.186
-212.509	-59.234	0.209	-0.089
-211.494	14.727	0.219	-0.169
-210.479	-101.716	-0.520	0.125
-209.465	518.101	-0.058	0.135
-208.450	104.858	0.292	0.340
-207.436	800.000	0.077	0.224
-206.421	-73.713	0.180	-0.065
-205.406	-136.269	0.284	-0.033
-204.392	-200.000	-0.083	-0.447
-203.377	-200.000	-0.047	-0.322
-202.363	-68.747	0.218	-0.083
-201.348	-174.974	-0.296	-0.008
-200.333	800.000	-0.055	-0.174
-199.319	-11.286	0.102	-0.066
-198.304	-125.855	0.183	-0.027
-197.290	2.171	-0.119	-0.085
-196.275	-71.878	-0.248	-0.091
-195.260	48.147	0.148	-0.137
-194.246	239.853	-0.079	-0.130
-193.231	-107.855	0.164	-0.035
-192.217	61.079	0.166	0.163
-191.202	510.744	-0.092	0.211
-190.187	480.649	0.076	-0.169
-189.173	392.414	-0.011	0.023
-188.158	557.772	0.170	0.405
-187.144	-28.106	0.103	-0.059
-186.129	-48.956	0.145	-0.069
-185.114	-35.613	-0.171	-0.092
-184.100	112.974	0.106	-0.127
-183.085	-41.636	-0.328	-0.167
-182.071	-41.987	0.123	-0.062
-181.056	-9.625	0.235	-0.155
-180.042	-135.390	0.185	-0.022
-179.027	-81.841	0.166	-0.054
-178.012	-4.202	0.083	-0.057
-176.998	800.000	-0.037	0.116
-175.983	150.036	0.109	0.146
-174.969	119.833	0.070	0.085
-173.954	-118.519	-0.359	0.063
-172.939	244.582	-0.146	-0.243
-171.925	-159.169	0.423	0.024
-170.910	-200.000	-0.036	-0.262
-169.896	-134.804	-0.170	-0.020
-168.881	-107.960	0.124	-0.027
-167.866	-200.000	-0.001	0.019
-166.852	-88.410	-0.130	0.038
-165.837	-22.475	0.148	0.088
-164.823	27.939	0.093	-0.077
-163.808	800.000	0.074	0.222
-162.793	3.964	0.211	0.152
-161.779	-62.123	-0.276	0.114
-160.764	-47.639	0.035	0.017
-159.750	-37.456	-0.214	-0.113
-158.735	-81.661	-0.347	0.112
-157.720	-200.000	-0.021	0.248
-156.706	-3.763	0.138	0.095
-155.691	42.095	0.357	0.320
-154.677	44.043	0.201	-0.182
-153.662	155.291	-0.172	-0.233
-152.647	104.360	0.136	0.158
-151.633	800.000	0.058	0.206
-150.618	136.005	-0.060	-0.077
-149.604	-47.354	0.212	-0.102
-148.589	800.000	-0.043	0.138
-147.574	-20.731	0.189	-0.114
-146.560	-75.483	0.214	0.075
-145.545	-55.170	0.346	0.154
-144.531	78.157	0.220	0.232
-143.516	-200.000	0.020	-0.259
-142.502	106.596	0.051	-0.060
-141.487	-200.000	0.102	-0.447
-140.472	-101.404	-0.072	0.017
-139.458	358.855	0.089	0.175
-138.443	-148.232	-0.246	0.020
-137.429	-101.121	-0.137	-0.033
-136.414	-107.663	-0.322	0.069
-135.399	298.846	-0.038	-0.069
-134.385	-99.452	0.112	-0.028
-133.370	117.297	-0.101	-0.122
-132.356	-162.380	-0.115	-0.006
-131.341	-200.000	0.019	0.174
-130.326	-200.000	-0.025	-0.143
-129.312	317.577	0.136	0.254
-128.297	645.754	-0.015	-0.037
-127.283	-39.915	0.205	-0.105
-126.268	52.241	-0.208	-0.195
-125.253	-86.507	-0.200	-0.060
-124.239	-51.165	0.077	-0.036
-123.224	-82.692	-0.110	-0.035
-122.210	-28.690	0.029	0.016
-121.195	96.792	0.155	0.175
-120.180	6.018	-0.181	-0.132
-119.166	-200.000	-0.028	-0.192
-118.151	-134.912	0.250	0.030
-117.137	-79.553	0.258	-0.086
-116.122	48.594	-0.079	-0.073
-115.107	-200.000	-0.036	0.426
-114.093	57.364	0.146	0.140
-113.078	-30.831	0.126	-0.070
-112.064	-90.771	0.361	0.102
-111.049	-200.000	0.031	-0.285
-110.034	-147.064	-0.391	-0.033
-109.020	-133.205	0.177	-0.022
-108.005	583.138	0.015	-0.036
-106.991	-178.403	0.080	-0.002
-105.976	-11.549	-0.134	0.087
-104.962	-4.533	0.108	0.073
-103.947	-200.000	-0.037	-0.275
-102.932	-123.540	0.507	-0.079
-101.918	87.753	-0.182	-0.199
-100.903	-109.477	0.445	-0.093
-99.889	226.829	-0.182	0.291
-98.874	39.035	-0.160	0.141
-97.859	-200.000	0.048	-0.213
-96.845	-129.832	0.276	-0.037
-95.830	800.000	0.138	0.449
-94.816	19.180	0.116	0.091
-93.801	-110.415	-0.130	0.027
-92.786	-15.581	0.239	-0.150
-91.772	365.291	0.040	-0.079
-90.757	70.149	0.191	0.194
-89.743	-200.000	0.017	-0.081
-88.728	-32.430	-0.196	-0.108
-87.713	800.000	-0.032	-0.124
-86.699	-159.891	0.260	-0.014
-85.684	-32.434	-0.008	0.004
-84.670	19.525	0.235	0.186
-83.655	-40.992	0.341	-0.173
-82.640	800.000	-0.067	0.290
-81.626	-200.000	-0.037	0.252
-80.611	47.784	0.144	0.133
-79.597	-68.642	-0.039	0.015
-78.582	109.674	-0.140	-0.165
-77.567	57.779	0.237	-0.228
-76.553	10.034	0.118	0.088
-75.538	-200.000	0.032	-0.235
-74.524	7.017	0.121	0.089
-73.509	189.645	0.170	0.250
-72.494	226.942	-0.274	-0.438
-71.480	-76.709	-0.200	0.069
-70.465	-52.655	0.397	-0.180
-69.451	-144.208	-0.372	-0.034
-68.436	-125.032	0.315	0.048
-67.422	51.255	-0.333	-0.311
-66.407	-118.773	0.324	0.056
-65.392	-200.000	0.053	0.547
-64.378	232.811	0.075	0.121
-63.363	149.567	0.021	-0.027
-62.349	260.017	0.216	0.366
-61.334	-9.759	-0.806	-0.528
-60.319	113.699	0.377	0.450
-59.305	216.749	-0.651	-1.018
-58.290	227.958	0.689	1.102
-57.276	800.000	0.537	1.487
-56.261	-200.000	99.340	585.205
-55.246	501.435	1418.064	3216.413
-54.232	155.671	2594.917	3511.151
-53.217	112.657	2149.095	2555.847
-52.203	44.420	1608.345	1450.833
-51.188	36.010	1347.752	1165.120
-50.173	32.732	1306.193	1109.889
-49.159	55.457	1354.789	1287.801
-48.144	57.626	1371.828	1316.927
-47.130	36.191	1329.618	1150.341
-46.115	32.576	1312.577	1114.217
-45.100	32.498	1306.935	1108.920
-44.086	32.491	1304.490	1106.762
-43.071	32.268	1303.048	1104.188
-42.057	32.383	1300.626	1102.762
-41.042	32.351	1298.897	1101.066
-40.027	32.400	1297.392	1100.033
-39.013	32.380	1295.345	1098.138
-37.998	32.369	1293.711	1096.643
-36.984	32.405	1291.880	1095.261
-35.969	32.503	1289.538	1093.799
-34.954	32.518	1288.462	1092.932
-33.940	32.458	1287.688	1091.882
-32.925	32.521	1286.111	1090.869
-31.911	32.521	1284.478	1089.436
-30.896	32.501	1283.032	1088.051
-29.881	32.619	1281.736	1087.592
-28.867	32.551	1280.465	1086.077
-27.852	32.637	1278.922	1085.219
-26.838	32.637	1277.680	1084.123
-25.823	32.544	1276.572	1082.607
-24.809	32.590	1274.906	1081.412
-23.794	32.623	1273.306	1080.201
-22.779	32.520	1272.513	1078.897
-21.765	32.664	1270.626	1078.080
-20.750	32.575	1269.429	1076.511
-19.736	32.468	1268.071	1074.707
-18.721	32.464	1266.876	1073.626
-17.706	32.555	1265.708	1073.115
-16.692	32.516	1264.497	1071.824
-15.677	32.479	1263.846	1071.018
-14.663	32.483	1262.551	1069.903
-13.648	32.372	1261.745	1068.547
-12.633	32.432	1260.681	1067.940
-11.619	32.329	1260.161	1066.878
-10.604	32.418	1258.899	1066.270
-9.590	32.480	1257.792	1065.643
-8.575	32.535	1256.535	1064.847
-7.560	32.326	1256.344	1063.460
-6.546	32.347	1255.842	1063.108
-5.531	32.369	1254.490	1062.045
-4.517	32.501	1253.120	1061.588
-3.502	32.400	1252.755	1060.671
-2.487	32.356	1252.109	1059.830
-1.473	32.144	1247.460	1054.665
-0.458	29.699	1230.982	1027.123
0.556	23.589	1210.833	975.704
1.571	18.479	1213.858	949.815
2.586	16.949	1227.809	952.066
3.600	16.602	1216.458	941.247
4.615	12.561	1146.141	865.538
5.629	5.016	1072.691	772.725
6.644	1.385	1052.540	740.465
7.659	0.840	1050.898	736.590
8.673	0.990	1049.292	736.128
9.688	0.867	1048.491	734.907
10.702	1.184	1046.369	734.890
11.717	5.427	1051.971	759.392
12.731	13.004	1061.404	803.139
13.746	17.086	1065.806	826.305
14.761	17.672	1066.316	829.480
15.775	16.838	1064.545	823.977
16.790	15.840	1062.539	817.506
17.804	15.155	1060.957	812.893
18.819	14.801	1059.788	810.208
19.834	14.536	1058.993	808.246
20.848	14.307	1058.185	806.449
21.863	14.064	1057.316	804.540
22.877	13.986	1056.139	803.196
23.892	13.858	1055.563	802.070
24.907	13.862	1055.148	801.700
25.921	13.921	1054.312	801.277
26.936	14.100	1053.275	801.283
27.950	13.934	1052.614	799.908
28.965	14.051	1050.889	799.091
29.980	14.047	1049.456	797.912
30.994	14.079	1049.102	797.727
32.009	14.198	1047.658	797.124
33.023	14.049	1046.974	795.824
34.038	14.049	1045.800	794.859
35.053	14.081	1045.006	794.340
36.067	14.008	1044.248	793.341
37.082	14.082	1043.326	792.926
38.096	14.110	1042.457	792.328
39.111	14.050	1041.923	791.568
40.126	13.947	1040.759	790.121
41.140	13.954	1039.621	789.222
42.155	13.916	1038.605	788.203
43.169	13.804	1037.384	786.672
44.184	13.964	1036.361	786.585
45.199	13.907	1035.338	785.472
46.213	13.944	1034.119	784.651
47.228	13.908	1033.415	783.877
48.242	13.986	1032.456	783.449
49.257	14.034	1030.915	782.436
50.271	13.964	1030.221	781.509
51.286	14.040	1029.409	781.185
52.301	13.894	1028.615	779.824
53.315	13.899	1027.720	779.100
54.330	13.882	1026.946	778.366
55.344	13.927	1025.403	777.340
56.359	13.853	1025.101	776.694
57.374	13.958	1024.063	776.332
58.388	13.812	1023.343	775.034
59.403	13.740	1022.542	774.024
60.417	13.872	1021.414	773.715
61.432	13.827	1020.943	773.082
62.447	13.799	1020.344	772.426
63.461	13.788	1019.071	771.347
64.476	13.837	1018.473	771.053
65.490	13.827	1017.767	770.401
66.505	13.921	1016.427	769.756
67.520	13.808	1016.494	769.215
68.534	13.902	1015.310	768.688
69.549	13.957	1014.738	768.440
70.563	13.985	1013.159	767.307
71.578	13.760	1013.055	766.117
72.593	13.813	1012.468	765.852
73.607	13.875	1011.584	765.401
74.622	13.820	1011.315	764.878
75.636	13.800	1010.329	763.971
76.651	13.760	1009.629	763.192
77.666	13.701	1009.356	762.646
78.680	13.799	1008.442	762.336
79.695	13.776	1008.009	761.836
80.709	13.762	1007.570	761.374
81.724	13.875	1006.524	761.032
82.739	13.957	1005.630	760.665
83.753	14.004	1004.901	760.261
84.768	14.019	1004.086	759.645
85.782	14.054	1003.153	759.031
86.797	13.989	1002.549	758.212
87.812	13.953	1001.366	757.085
88.826	13.952	1000.288	756.201
89.841	14.061	999.444	755.989
90.855	14.163	998.765	755.872
91.870	13.986	997.915	754.360
92.884	14.130	997.015	754.266
93.899	14.151	996.468	753.879
94.914	14.133	995.621	753.090
95.928	14.129	994.807	752.391
96.943	14.130	994.190	751.864
97.957	13.932	993.291	750.222
98.972	14.104	991.948	749.918
99.987	14.000	991.098	748.742
101.001	14.200	990.051	748.782
102.016	14.065	989.597	747.768
103.030	14.073	988.524	746.926
104.045	14.119	988.027	746.691
105.060	14.138	986.977	745.916
106.074	13.966	986.514	744.729
107.089	13.944	985.371	743.702
108.103	13.845	984.556	742.577
109.118	14.090	983.160	742.555
110.133	14.056	982.526	741.858
111.147	13.934	981.921	740.790
112.162	14.021	980.762	740.239
113.176	13.950	980.277	739.488
114.191	14.079	979.426	739.356
115.206	14.063	978.801	738.747
116.220	14.140	977.719	738.208
117.235	14.051	976.743	737.013
118.249	14.098	975.918	736.531
119.264	14.160	974.883	735.961
120.279	13.996	974.242	734.688
121.293	13.960	973.462	733.872
122.308	13.945	972.986	733.384
123.322	13.994	971.418	732.353
124.337	14.065	970.369	731.808
125.352	13.977	969.477	730.686
126.366	14.019	968.096	729.765
127.381	13.985	967.493	729.095
128.395	14.020	967.246	729.000
129.410	14.053	965.861	728.034
130.424	14.087	964.982	727.459
131.439	14.150	964.037	726.954
132.454	14.227	963.630	726.922
133.468	14.157	962.571	725.754
134.483	14.149	961.704	724.999
135.497	14.179	960.932	724.481
136.512	14.129	960.300	723.726
137.527	14.186	959.030	722.952
138.541	14.177	958.469	722.427
139.556	14.060	958.159	721.622
140.570	14.173	957.104	721.253
141.585	14.180	956.278	720.596
142.600	14.158	955.701	720.002
143.614	14.194	954.768	719.390
144.629	14.276	953.818	718.966
145.643	14.234	953.086	718.168
146.658	14.234	952.036	717.313
147.673	14.273	950.690	716.407
148.687	14.177	950.190	715.550
149.702	14.140	949.668	714.938
150.716	14.140	948.821	714.238
151.731	14.137	948.187	713.681
152.746	14.153	947.585	713.236
153.760	14.216	947.115	713.087
154.775	14.236	946.388	712.564
155.789	14.314	945.402	712.090
156.804	14.263	944.500	711.130
157.819	14.407	943.763	711.129
158.833	14.414	943.380	710.808
159.848	14.288	942.673	709.674
160.862	14.448	941.508	709.416
161.877	14.233	940.891	707.974
162.892	14.266	939.784	707.217
163.906	14.407	938.509	706.793
164.921	14.317	937.702	705.741
165.935	14.365	937.049	705.391
166.950	14.393	936.162	704.781
167.964	14.380	935.416	704.100
168.979	14.383	934.304	703.215
169.994	14.395	933.437	702.550
171.008	14.425	933.061	702.329
172.023	14.379	932.304	701.504
173.037	14.422	931.821	701.262
174.052	14.418	931.041	700.596
175.067	14.439	930.604	700.292
176.081	14.570	929.575	700.007
177.096	14.336	929.231	698.704
178.110	14.413	928.784	698.626
179.125	14.399	928.004	697.921
180.140	14.595	927.102	698.001
181.154	14.497	926.665	697.200
182.169	14.453	926.485	696.819
183.183	14.659	925.710	697.035
184.198	14.551	925.162	696.109
185.213	14.562	924.301	695.447
186.227	14.614	923.776	695.207
187.242	14.642	922.995	694.674
188.256	14.794	922.193	694.642
189.271	14.605	921.440	693.226
190.286	14.583	920.855	692.636
191.300	14.450	920.556	691.796
192.315	14.501	919.695	691.300
193.329	14.436	919.296	690.668
194.344	14.521	918.387	690.275
195.359	14.726	917.065	690.070
196.373	14.557	916.958	689.228
197.388	14.756	916.548	689.683
198.402	14.692	916.083	689.006
199.417	14.907	915.443	689.349
200.432	14.884	914.756	688.676
201.446	14.813	914.898	688.433
202.461	14.823	914.274	687.943
203.475	14.939	913.433	687.723
204.490	14.870	912.751	686.867
205.504	14.890	911.600	686.022
206.519	14.792	911.101	685.186
207.534	14.846	910.426	684.839
208.548	14.895	909.820	684.522
209.563	14.885	909.145	683.911
210.577	14.951	908.151	683.372
211.592	14.949	907.804	683.042
212.607	15.095	906.812	682.831
213.621	15.067	906.015	682.059
214.636	15.069	905.575	681.676
215.650	14.866	905.565	680.782
216.665	15.040	904.393	680.545
217.680	15.020	903.587	679.798
218.694	15.052	902.655	679.165
219.709	15.172	902.203	679.251
220.723	15.112	901.664	678.544
221.738	15.064	901.445	678.125
222.753	15.207	900.147	677.667
223.767	15.206	899.563	677.164
224.782	15.145	899.364	676.706
225.796	15.160	898.869	676.335
226.811	15.210	897.876	675.729
227.826	15.245	897.266	675.352
228.840	15.093	896.718	674.269
229.855	15.261	895.779	674.178
230.869	15.257	894.820	673.380
231.884	15.244	894.233	672.829
232.899	15.175	893.311	671.796
233.913	15.191	892.800	671.419
234.928	15.234	892.488	671.294
235.942	15.276	891.863	670.935
236.957	15.343	891.003	670.495
237.972	15.324	890.473	669.960
238.986	15.270	890.120	669.420
240.001	15.322	889.402	669.029
241.015	15.247	888.531	668.015
242.030	15.315	888.119	667.919
243.045	15.242	887.603	667.180
244.059	15.299	887.310	667.128
245.074	15.377	886.345	666.653
246.088	15.505	885.757	666.662
247.103	15.339	885.051	665.410
248.117	15.503	884.899	665.890
249.132	15.580	883.848	665.345
250.147	15.595	883.253	664.896
251.161	15.705	882.290	664.547
252.176	15.683	881.967	664.157
253.190	15.680	881.156	663.476
254.205	15.718	880.929	663.399
255.220	15.645	880.133	662.451
256.234	15.721	879.725	662.384
257.249	15.689	878.814	661.516
258.263	15.613	878.158	660.663
259.278	15.844	877.316	660.880
260.293	15.737	876.811	660.020
261.307	15.734	876.276	659.550
262.322	15.757	875.884	659.284
263.336	16.007	874.396	659.085
264.351	16.110	873.807	658.983
265.366	15.849	873.920	657.990
266.380	15.893	873.072	657.467
267.395	15.799	872.465	656.584
268.409	15.995	871.330	656.434
269.424	15.884	870.859	655.588
270.439	15.956	870.123	655.259
271.453	15.962	869.495	654.749
272.468	15.912	869.172	654.254
273.482	15.951	868.463	653.815
274.497	15.967	867.709	653.253
275.512	16.010	866.886	652.741
276.526	15.926	866.802	652.293
277.541	15.861	866.542	651.791
278.555	16.059	865.737	651.891
279.570	16.107	864.878	651.371
280.585	15.979	864.696	650.684
281.599	16.152	863.702	650.546
282.614	16.082	862.890	649.608
283.628	16.063	862.324	649.050
284.643	16.185	861.805	649.072
285.657	16.072	861.203	648.125
286.672	16.064	860.680	647.642
287.687	16.321	859.687	647.827
288.701	16.302	859.187	647.317
289.716	16.185	858.882	646.583
290.730	16.254	858.467	646.477
291.745	16.261	857.785	645.933
292.760	16.330	857.019	645.565
293.774	16.256	856.758	645.026
294.789	16.331	855.363	644.206
295.803	16.268	854.984	643.624
296.818	16.300	854.479	643.307
297.833	16.403	853.763	643.103
298.847	16.396	853.035	642.473
299.862	16.381	852.654	642.073
300.876	16.366	852.062	641.511
301.891	16.481	851.023	641.111
302.906	16.476	850.728	640.813
303.920	16.497	850.324	640.531
304.935	16.566	849.688	640.257
305.949	16.578	849.194	639.871
306.964	16.636	848.683	639.648
307.979	16.583	847.760	638.699
308.993	16.697	847.012	638.506
310.008	16.654	846.793	638.123
311.022	16.588	846.267	637.422
312.037	16.541	845.657	636.730
313.052	16.654	845.023	636.620
314.066	16.468	844.764	635.671
315.081	16.476	844.492	635.440
316.095	16.604	843.303	634.967
317.110	16.496	843.318	634.519
318.125	16.489	842.738	633.999
319.139	16.735	841.711	634.093
320.154	16.713	841.450	633.758
321.168	16.607	840.939	632.918
322.183	16.660	840.579	632.791
323.197	16.729	840.264	632.754
324.212	16.824	839.474	632.458
325.227	16.709	838.795	631.461
326.241	16.666	837.960	630.617
327.256	16.718	837.768	630.609
328.270	16.752	837.224	630.273
329.285	16.696	836.508	629.470
330.300	16.712	835.897	629.012
331.314	16.815	835.377	628.948
332.329	16.857	835.068	628.817
333.343	16.861	834.380	628.259
334.358	16.901	834.199	628.214
335.373	16.834	833.819	627.623
336.387	16.860	833.564	627.471
337.402	16.893	833.316	627.352
338.416	16.907	833.092	627.182
339.431	16.882	832.749	626.776
340.446	17.039	831.852	626.624
341.460	17.001	831.570	626.214
342.475	17.075	831.167	626.128
343.489	17.138	830.541	625.834
344.504	17.117	830.358	625.564
345.519	17.071	830.077	625.126
346.533	17.232	829.265	625.051
347.548	17.152	828.853	624.392
348.562	17.218	827.848	623.821
349.577	17.207	827.700	623.614
350.592	17.110	827.110	622.760
351.606	17.098	826.318	622.063
352.621	17.188	825.628	621.820
353.635	17.189	825.049	621.332
354.650	17.099	824.782	620.748
355.665	17.115	824.060	620.207
356.679	17.185	823.497	619.985
357.694	17.273	822.814	619.736
358.708	17.218	822.121	618.959
359.723	17.255	821.707	618.728
360.738	17.163	820.859	617.699
361.752	17.277	820.060	617.458
362.767	17.309	819.480	617.083
363.781	17.346	818.815	616.662
364.796	17.544	818.473	617.065
365.810	17.454	818.498	616.703
366.825	17.445	818.364	616.517
367.840	17.507	817.721	616.201
368.854	17.566	817.091	615.887
369.869	17.545	816.664	615.434
370.883	17.456	816.103	614.634
371.898	17.618	816.015	615.099
372.913	17.555	815.803	614.657
373.927	17.655	814.772	614.187
374.942	17.620	814.560	613.849
375.956	17.708	814.014	613.697
376.971	17.612	813.670	613.038
377.986	17.565	813.123	612.403
379.000	17.692	812.801	612.564
380.015	17.791	812.151	612.374
381.029	17.965	811.424	612.395
382.044	17.840	810.999	611.573
383.059	17.714	810.412	610.627
384.073	17.789	809.957	610.496
385.088	17.759	809.270	609.818
386.102	17.732	808.776	609.294
387.117	17.821	808.308	609.205
388.132	17.721	807.827	608.434
389.146	17.851	807.235	608.396
390.161	17.729	806.741	607.538
391.175	17.955	806.209	607.887
392.190	17.803	806.213	607.295
393.205	17.834	805.325	606.682
394.219	17.815	804.977	606.300
395.234	17.873	804.922	606.411
396.248	17.859	804.408	605.917
397.263	17.913	803.634	605.472
398.278	17.857	803.195	604.892
399.292	17.996	802.839	605.060
400.307	17.925	802.418	604.438
401.321	17.879	801.875	603.815
402.336	17.934	801.293	603.519
403.350	17.975	800.867	603.288
404.365	17.921	800.577	602.824
405.380	18.003	800.003	602.631
406.394	18.147	799.292	602.549
407.409	18.108	799.107	602.219
408.423	18.092	798.852	601.914
409.438	18.130	798.502	601.733
410.453	18.167	798.217	601.594
411.467	18.259	797.456	601.290
412.482	18.231	797.329	601.045
413.496	18.174	797.222	600.711
414.511	18.172	796.603	600.182
415.526	18.288	796.299	600.309
416.540	18.348	795.535	599.888
417.555	18.328	795.008	599.370
418.569	18.377	794.352	598.990
419.584	18.450	794.179	599.063
420.599	18.397	793.752	598.504
421.613	110.398	1290.113	1463.108
422.628	94.929	1362.440	1463.236
