DTS Sentinel unit serial number:	SN413079Multiplexer serial number:	ORYXHardware model number:	OX4-SRSoftware version number:	ORYX F/W v4.00 Oryx Data Collector v3.7.2.0data status	okinstallation	princeton_trtdifferential loss correction	single-endedforward channel	channel 1reverse channel	N/Adate	2019/09/11time	03:16:11forward acquisition time	60.00reverse acquisition time	0.00gamma	496.2192k internal	0.2331k external	0.2331temperature offset calibration	0.9925default loss term (dB/km)	0.3790temperature slope calibration	1.0000multiplexer offset coefficient	1.0000multiplexer slope coefficient	1.0000fibre end	0.00T internal ref (°C)	29.37T ext. ref 1 (°C)	-0.29T ext. ref 2 (°C)	24.07length (m)	temperature (°C)	Stokes	anti-Stokes-747.200	360.617	0.152	0.306
-746.185	-10.364	0.230	0.153
-745.171	389.800	0.074	0.155
-744.156	458.188	-0.121	0.272
-743.142	255.628	-0.144	-0.249
-742.127	-50.981	-0.041	0.019
-741.112	-12.333	-0.039	0.025
-740.098	-118.492	-0.145	-0.026
-739.083	2.928	-0.205	-0.150
-738.069	800.000	-0.070	-0.307
-737.054	-77.224	-0.183	0.064
-736.039	81.854	-0.110	0.119
-735.025	-77.996	-0.221	-0.076
-734.010	30.563	0.096	-0.082
-732.996	304.704	-0.174	-0.325
-731.981	800.000	0.110	-0.308
-730.966	81.071	-0.034	0.037
-729.952	-36.696	-0.310	0.168
-728.937	-130.507	-0.204	0.028
-727.923	-75.150	0.124	0.045
-726.908	800.000	-0.125	0.352
-725.894	-200.000	-0.066	-0.346
-724.879	477.989	-0.088	-0.201
-723.864	-17.762	-0.115	0.072
-722.850	-16.658	0.182	0.116
-721.835	-46.483	-0.179	-0.089
-720.821	-69.688	-0.218	0.084
-719.806	-27.536	-0.028	-0.017
-718.791	50.029	0.099	0.094
-717.777	800.000	0.080	0.352
-716.762	-166.576	0.159	-0.007
-715.748	2.957	0.230	0.168
-714.733	-124.018	0.172	0.027
-713.718	800.000	0.038	-0.111
-712.704	-45.424	-0.129	0.064
-711.689	800.000	-0.072	0.250
-710.675	280.572	-0.074	-0.133
-709.660	70.895	-0.203	0.211
-708.645	-110.006	0.270	-0.057
-707.631	-64.819	-0.117	-0.048
-706.616	-200.000	0.049	-0.284
-705.602	-200.000	-0.023	-0.290
-704.587	664.291	-0.085	-0.221
-703.572	-118.661	0.122	-0.022
-702.558	-108.272	-0.339	0.074
-701.543	-171.175	-0.328	0.011
-700.529	-200.000	-0.057	-0.288
-699.514	199.006	-0.061	0.095
-698.499	-83.209	0.098	0.032
-697.485	-127.893	0.406	-0.059
-696.470	-124.774	0.171	-0.027
-695.456	93.781	0.150	-0.171
-694.441	-200.000	0.006	0.189
-693.426	-119.552	0.116	0.020
-692.412	63.512	-0.204	0.206
-691.397	-119.574	-0.132	0.023
-690.383	800.000	-0.028	-0.100
-689.368	-200.000	0.019	0.298
-688.354	800.000	-0.103	-0.349
-687.339	800.000	0.094	-0.293
-686.324	-115.630	-0.054	-0.010
-685.310	-152.441	-0.090	0.007
-684.295	559.217	-0.109	-0.264
-683.281	-107.963	-0.215	-0.047
-682.266	-19.514	-0.231	0.144
-681.251	-47.081	-0.022	0.011
-680.237	-76.189	0.477	-0.169
-679.222	101.791	-0.317	-0.372
-678.208	-171.088	-0.261	-0.009
-677.193	800.000	-0.069	0.195
-676.178	-200.000	-0.002	-0.228
-675.164	-2.861	0.084	-0.059
-674.149	164.006	0.014	-0.020
-673.135	246.629	-0.140	-0.237
-672.120	235.263	0.148	-0.246
-671.105	-200.000	-0.028	-0.313
-670.091	800.000	0.036	-0.150
-669.076	-200.000	0.010	-0.555
-668.062	232.821	0.076	0.125
-667.047	-26.082	-0.200	-0.118
-666.032	-200.000	-0.055	-0.259
-665.018	-25.172	0.216	-0.128
-664.003	-7.239	-0.199	-0.135
-662.989	800.000	-0.041	-0.119
-661.974	165.484	-0.135	-0.192
-660.959	-162.795	-0.246	-0.012
-659.945	-200.000	0.024	0.187
-658.930	800.000	0.079	0.289
-657.916	-108.565	-0.393	-0.085
-656.901	800.000	0.052	0.146
-655.886	74.275	0.039	-0.041
-654.872	-51.580	-0.200	0.094
-653.857	101.056	-0.169	0.197
-652.843	383.225	-0.071	0.146
-651.828	-22.494	-0.407	-0.247
-650.814	393.830	-0.039	0.082
-649.799	800.000	0.059	-0.234
-648.784	561.150	0.068	-0.165
-647.770	-93.575	0.412	-0.114
-646.755	-12.871	0.213	0.139
-645.741	115.965	-0.131	-0.161
-644.726	223.839	-0.136	-0.220
-643.711	-113.872	0.382	-0.074
-642.697	-27.467	0.003	0.002
-641.682	800.000	0.045	-0.186
-640.668	-44.117	-0.162	0.082
-639.653	197.139	0.245	-0.374
-638.638	44.832	0.245	-0.226
-637.624	112.099	-0.161	-0.195
-636.609	-191.440	-0.057	0.001
-635.595	7.063	0.077	0.058
-634.580	-19.799	-0.127	-0.079
-633.565	-200.000	-0.017	0.354
-632.551	-200.000	-0.075	0.553
-631.536	338.203	0.087	-0.170
-630.522	-200.000	-0.004	-0.121
-629.507	-34.121	0.070	-0.039
-628.492	300.691	0.087	0.161
-627.478	-200.000	0.045	-0.307
-626.463	-46.086	-0.135	-0.066
-625.449	308.572	-0.114	0.214
-624.434	-40.977	0.287	-0.149
-623.419	-200.000	0.005	0.170
-622.405	-85.566	0.043	-0.013
-621.390	-59.333	-0.070	0.030
-620.376	-55.447	0.025	-0.011
-619.361	505.078	0.022	-0.050
-618.346	-200.000	0.000	-0.260
-617.332	-200.000	-0.016	-0.205
-616.317	-89.054	-0.413	0.122
-615.303	2.540	-0.014	0.010
-614.288	-200.000	-0.055	-0.347
-613.273	174.985	0.180	-0.261
-612.259	-20.695	-0.243	0.149
-611.244	-200.000	0.010	0.097
-610.230	266.421	0.091	-0.159
-609.215	107.959	-0.120	-0.143
-608.201	-105.014	-0.119	-0.027
-607.186	93.403	-0.099	-0.112
-606.171	-200.000	0.016	0.105
-605.157	-65.442	-0.087	0.035
-604.142	213.382	-0.199	0.316
-603.128	632.539	-0.153	0.389
-602.113	-56.743	-0.140	0.062
-601.098	-69.578	0.204	0.078
-600.084	-9.522	0.127	0.085
-599.069	-10.289	-0.324	0.215
-598.055	-32.511	-0.190	-0.106
-597.040	800.000	0.034	-0.123
-596.025	243.538	-0.208	-0.348
-595.011	-105.236	0.293	0.067
-593.996	506.710	0.079	-0.184
-592.982	-200.000	0.043	0.210
-591.967	-61.330	0.226	0.095
-590.952	-102.838	-0.219	0.052
-589.938	-200.000	-0.007	0.081
-588.923	30.337	-0.058	0.050
-587.909	800.000	-0.028	-0.109
-586.894	-98.141	0.239	0.061
-585.879	-57.839	0.232	0.101
-584.865	-78.777	0.159	0.054
-583.850	43.066	-0.164	-0.150
-582.836	-83.316	0.055	0.018
-581.821	108.990	-0.190	-0.228
-580.806	128.306	0.138	-0.176
-579.792	800.000	-0.070	0.210
-578.777	296.043	-0.218	0.399
-577.763	158.668	0.151	-0.210
-576.748	-80.824	-0.083	-0.028
-575.733	-122.055	0.214	0.035
-574.719	-11.740	0.285	0.187
-573.704	-33.128	-0.247	0.137
-572.690	332.023	0.279	-0.538
-571.675	-6.646	0.066	0.045
-570.661	-200.000	-0.042	0.327
-569.646	65.823	0.087	0.088
-568.631	-171.204	-0.231	0.008
-567.617	800.000	0.012	0.040
-566.602	115.400	-0.138	0.168
-565.588	-200.000	0.025	-0.367
-564.573	90.252	-0.147	0.165
-563.558	461.293	0.059	0.131
-562.544	203.298	-0.198	-0.307
-561.529	-181.717	0.262	0.005
-560.515	552.145	0.123	0.296
-559.500	676.957	0.084	0.219
-558.485	-200.000	-0.046	0.240
-557.471	-136.708	0.415	0.048
-556.456	328.940	-0.164	-0.314
-555.442	-188.282	-0.222	0.003
-554.427	-30.469	-0.059	-0.034
-553.412	377.862	-0.095	0.194
-552.398	-128.188	0.131	-0.019
-551.383	560.119	-0.057	0.137
-550.369	284.443	0.020	0.037
-549.354	-48.597	0.101	-0.049
-548.339	37.961	0.101	-0.089
-547.325	100.397	-0.274	-0.318
-546.310	-196.476	0.125	-0.001
-545.296	-200.000	0.047	-0.369
-544.281	39.926	0.062	-0.055
-543.266	-200.000	0.008	0.070
-542.252	613.262	0.074	0.185
-541.237	82.662	-0.253	0.274
-540.223	-31.203	-0.077	-0.043
-539.208	-200.000	-0.004	-0.021
-538.193	135.232	-0.114	-0.148
-537.179	-117.166	-0.171	0.031
-536.164	-104.293	0.253	-0.059
-535.150	-68.741	0.157	0.060
-534.135	13.753	-0.326	0.253
-533.121	76.298	-0.125	-0.133
-532.106	22.278	-0.357	-0.291
-531.091	-200.000	-0.009	-0.121
-530.077	-135.552	0.181	-0.021
-529.062	435.425	0.120	0.260
-528.048	-200.000	-0.043	-0.333
-527.033	-27.804	-0.128	0.074
-526.018	-43.164	-0.207	0.104
-525.004	-104.268	0.226	0.052
-523.989	311.158	-0.189	-0.353
-522.975	-200.000	0.070	-0.452
-521.960	-200.000	0.023	-0.378
-520.945	-32.607	-0.187	0.104
-519.931	-22.890	0.314	-0.189
-518.916	-200.000	0.027	0.127
-517.902	-168.683	0.139	0.005
-516.887	690.016	-0.012	-0.031
-515.872	231.035	0.113	-0.185
-514.858	259.238	-0.234	-0.403
-513.843	-130.315	-0.219	-0.030
-512.829	800.000	-0.040	-0.171
-511.814	-25.749	-0.223	0.131
-510.799	-36.901	0.174	0.093
-509.785	-200.000	-0.017	0.106
-508.770	14.243	-0.425	-0.330
-507.756	-104.029	-0.135	0.031
-506.741	-200.000	-0.046	0.264
-505.726	-200.000	-0.051	-0.330
-504.712	52.276	-0.215	0.204
-503.697	-24.964	0.178	0.105
-502.683	-176.106	0.102	-0.003
-501.668	16.333	-0.174	0.137
-500.653	-200.000	-0.041	0.180
-499.639	23.979	-0.270	0.222
-498.624	800.000	0.079	0.266
-497.610	130.272	-0.104	0.132
-496.595	-140.765	0.246	-0.025
-495.581	-91.864	0.304	0.086
-494.566	-112.854	0.219	-0.043
-493.551	-75.668	-0.350	-0.124
-492.537	-52.604	-0.242	-0.112
-491.522	800.000	-0.025	0.106
-490.508	-75.733	0.115	-0.041
-489.493	-120.409	-0.161	0.027
-488.478	-62.287	0.360	0.150
-487.464	429.912	-0.059	0.127
-486.449	-19.681	-0.111	-0.068
-485.435	-200.000	-0.053	-0.326
-484.420	-200.000	0.055	0.291
-483.405	-36.190	-0.286	0.154
-482.391	-200.000	-0.041	-0.378
-481.376	81.336	0.513	-0.552
-480.362	284.775	0.049	0.088
-479.347	111.697	0.068	-0.082
-478.332	800.000	-0.084	-0.342
-477.318	-106.648	0.334	0.074
-476.303	-3.556	0.519	0.360
-475.289	-63.829	-0.401	0.164
-474.274	185.505	0.063	0.093
-473.259	-147.578	-0.165	0.014
-472.245	-61.900	0.302	0.126
-471.230	-67.298	-0.396	0.155
-470.216	-19.625	0.090	0.055
-469.201	40.849	0.083	-0.075
-468.186	60.319	0.190	-0.188
-467.172	-200.000	0.000	-0.068
-466.157	-200.000	0.006	-0.191
-465.143	45.870	0.111	0.102
-464.128	341.940	-0.183	-0.356
-463.113	84.092	-0.388	-0.422
-462.099	-200.000	0.023	0.371
-461.084	69.370	-0.146	0.149
-460.070	504.657	-0.062	0.142
-459.055	-200.000	0.028	0.473
-458.040	2.877	0.167	0.121
-457.026	-81.836	0.165	0.054
-456.011	-97.893	-0.408	-0.105
-454.997	800.000	0.090	-0.300
-453.982	-19.844	-0.386	0.237
-452.968	-150.720	-0.090	-0.007
-451.953	-133.871	0.395	0.049
-450.938	297.730	-0.099	0.181
-449.924	215.976	0.135	0.213
-448.909	-200.000	-0.020	-0.265
-447.895	-200.000	-0.050	-0.567
-446.880	-200.000	0.051	0.250
-445.865	-81.555	0.183	0.060
-444.851	57.642	0.158	0.153
-443.836	280.982	-0.091	-0.162
-442.822	181.331	-0.244	-0.357
-441.807	-200.000	0.009	0.339
-440.792	260.928	0.089	0.154
-439.778	-106.993	0.187	0.041
-438.763	194.914	-0.105	0.158
-437.749	253.711	0.081	0.138
-436.734	165.697	-0.149	-0.210
-435.719	-92.588	0.247	-0.069
-434.705	13.014	0.205	0.158
-433.690	-171.440	0.372	-0.012
-432.676	-179.880	0.162	0.003
-431.661	168.896	0.128	-0.181
-430.646	134.798	-0.069	0.090
-429.632	-60.611	0.085	-0.036
-428.617	-119.422	-0.159	0.027
-427.603	95.810	-0.150	-0.170
-426.588	-76.761	0.129	0.045
-425.573	388.650	0.117	0.242
-424.559	105.454	-0.014	-0.016
-423.544	118.012	-0.147	-0.180
-422.530	-200.000	0.044	-0.346
-421.515	-13.066	-0.333	0.215
-420.500	-68.931	-0.285	-0.109
-419.486	15.961	-0.109	0.085
-418.471	800.000	0.012	0.054
-417.457	709.198	0.115	0.302
-416.442	-121.928	0.205	-0.034
-415.428	-158.041	-0.096	0.006
-414.413	426.925	0.029	-0.061
-413.398	405.716	-0.070	0.147
-412.384	-70.340	0.264	0.100
-411.369	800.000	-0.047	0.201
-410.355	651.037	-0.108	-0.274
-409.340	-200.000	0.006	0.032
-408.325	800.000	0.100	-0.284
-407.311	4.733	-0.272	-0.198
-406.296	-62.206	0.258	0.107
-405.282	-200.000	-0.022	-0.273
-404.267	-47.024	0.353	0.171
-403.252	800.000	-0.032	0.106
-402.238	78.248	0.170	0.180
-401.223	-41.421	-0.287	-0.146
-400.209	16.715	0.153	-0.120
-399.194	-16.778	0.181	0.114
-398.179	669.578	0.057	0.146
-397.165	-200.000	0.013	-0.071
-396.150	800.000	0.081	0.237
-395.136	-4.770	-0.129	0.088
-394.121	-52.911	0.093	0.043
-393.106	-200.000	0.025	0.478
-392.092	304.467	0.071	-0.131
-391.077	53.056	0.117	0.111
-390.063	-6.007	0.008	-0.005
-389.048	1.611	-0.096	-0.068
-388.033	800.000	-0.057	0.188
-387.019	65.557	0.212	-0.213
-386.004	344.793	-0.035	-0.068
-384.990	800.000	0.058	-0.207
-383.975	-200.000	0.005	0.067
-382.960	-2.751	-0.054	-0.037
-381.946	800.000	-0.104	-0.302
-380.931	33.744	-0.228	-0.196
-379.917	393.221	-0.147	-0.303
-378.902	11.628	-0.250	0.190
-377.888	18.364	0.222	-0.176
-376.873	154.209	0.062	0.085
-375.858	46.722	-0.102	0.094
-374.844	-200.000	-0.016	-0.096
-373.829	28.974	0.150	0.126
-372.815	6.673	0.263	0.194
-371.800	5.893	-0.117	0.086
-370.785	-65.136	0.224	-0.089
-369.771	-101.710	-0.259	-0.062
-368.756	98.247	-0.130	-0.148
-367.742	-32.821	0.155	-0.085
-366.727	800.000	0.040	0.125
-365.712	-113.657	0.475	0.092
-364.698	230.423	-0.070	0.114
-363.683	-200.000	0.022	0.333
-362.669	-200.000	0.032	-0.232
-361.654	-200.000	0.015	-0.124
-360.639	326.540	-0.048	0.092
-359.625	737.237	0.063	-0.168
-358.610	-126.129	-0.257	-0.038
-357.596	-200.000	0.002	0.111
-356.581	-23.582	0.204	-0.121
-355.566	-153.563	-0.231	-0.016
-354.552	-200.000	0.006	0.064
-353.537	79.199	-0.050	0.053
-352.523	-132.142	-0.009	-0.001
-351.508	-102.639	-0.264	-0.062
-350.493	-52.400	0.243	0.112
-349.479	-146.653	0.200	-0.017
-348.464	626.608	0.104	0.260
-347.450	145.156	-0.158	0.209
-346.435	800.000	-0.050	0.198
-345.420	-200.000	0.018	0.134
-344.406	302.899	-0.148	-0.271
-343.391	-200.000	0.019	-0.141
-342.377	-51.057	0.344	-0.160
-341.362	800.000	0.038	0.143
-340.348	-103.437	-0.054	-0.013
-339.333	345.666	-0.132	0.258
-338.318	214.873	-0.315	-0.495
-337.304	199.804	-0.109	0.165
-336.289	-200.000	-0.048	0.434
-335.275	75.855	0.234	-0.245
-334.260	19.038	-0.117	-0.093
-333.245	362.312	-0.013	-0.027
-332.231	-170.460	-0.352	0.012
-331.216	80.345	0.047	-0.051
-330.202	800.000	-0.041	0.130
-329.187	-200.000	-0.073	-0.484
-328.172	275.832	0.162	-0.285
-327.158	-46.356	-0.203	0.099
-326.143	-157.548	0.113	-0.007
-325.129	54.574	0.076	0.072
-324.114	-79.571	0.230	-0.077
-323.099	-115.551	-0.242	0.045
-322.085	-143.898	0.129	0.012
-321.070	-128.607	0.117	0.016
-320.056	-77.947	0.176	0.060
-319.041	-157.167	-0.143	-0.009
-318.026	-200.000	0.002	-0.352
-317.012	-140.702	-0.079	-0.008
-315.997	800.000	-0.069	0.279
-314.983	13.490	0.343	0.264
-313.968	-200.000	0.013	0.213
-312.953	-200.000	-0.018	-0.161
-311.939	-130.800	-0.256	0.034
-310.924	-96.485	0.141	-0.037
-309.910	512.789	0.111	0.256
-308.895	-135.492	0.068	0.008
-307.880	800.000	-0.084	-0.300
-306.866	340.110	-0.082	0.158
-305.851	86.059	-0.022	0.024
-304.837	-89.858	-0.225	-0.065
-303.822	800.000	0.036	-0.156
-302.807	-131.062	0.231	0.030
-301.793	221.950	0.100	0.159
-300.778	-200.000	-0.002	0.203
-299.764	-49.245	-0.164	-0.077
-298.749	-24.818	0.177	0.104
-297.735	766.372	0.045	-0.121
-296.720	-58.373	0.173	0.074
-295.705	-19.787	-0.279	-0.171
-294.691	-125.385	0.154	0.023
-293.676	-200.000	0.028	-0.233
-292.662	398.888	0.034	0.070
-291.647	-200.000	0.015	0.110
-290.632	79.632	0.065	0.069
-289.618	-200.000	-0.033	0.336
-288.603	-200.000	0.044	0.193
-287.589	-106.309	-0.052	-0.012
-286.574	-200.000	-0.005	-0.291
-285.559	48.133	0.289	-0.267
-284.545	-60.598	0.369	-0.155
-283.530	234.254	0.119	-0.193
-282.516	141.955	-0.132	0.172
-281.501	134.617	-0.148	0.190
-280.486	-200.000	0.010	0.181
-279.472	33.524	-0.092	-0.079
-278.457	-38.470	0.321	-0.168
-277.443	153.889	0.220	0.298
-276.428	5.476	-0.049	0.036
-275.413	-127.318	0.126	-0.018
-274.399	-200.000	-0.001	0.075
-273.384	-123.529	0.311	-0.049
-272.370	-160.886	0.186	0.010
-271.355	800.000	-0.068	0.203
-270.340	800.000	0.056	-0.168
-269.326	129.955	0.174	-0.220
-268.311	-200.000	-0.032	-0.225
-267.297	800.000	-0.096	0.314
-266.282	800.000	-0.040	-0.144
-265.267	288.530	0.149	-0.266
-264.253	153.982	0.063	-0.085
-263.238	800.000	-0.069	0.190
-262.224	-48.678	0.143	-0.068
-261.209	-48.644	0.311	0.147
-260.195	-118.048	-0.459	0.081
-259.180	-160.729	-0.272	0.014
-258.165	-23.016	-0.200	-0.119
-257.151	-91.843	-0.249	-0.070
-256.136	14.557	0.417	0.321
-255.122	165.200	-0.335	0.467
-254.107	-62.236	0.156	-0.064
-253.092	-171.792	-0.128	0.004
-252.078	-40.259	-0.238	-0.122
-251.063	-139.679	-0.117	-0.012
-250.049	1.232	0.134	0.095
-249.034	518.930	0.094	-0.217
-248.019	-83.941	-0.366	0.115
-247.005	-111.819	-0.489	-0.098
-245.990	-111.825	-0.350	-0.070
-244.976	800.000	0.087	-0.260
-243.961	69.572	-0.277	0.282
-242.946	-121.504	0.154	0.025
-241.932	-70.217	0.317	0.119
-240.917	-111.176	-0.127	-0.026
-239.903	-61.910	-0.300	0.124
-238.888	-71.757	0.346	-0.127
-237.873	-101.762	0.065	0.016
-236.859	28.898	0.142	-0.119
-235.844	-55.372	-0.421	-0.186
-234.830	-33.740	-0.162	-0.088
-233.815	-95.758	-0.276	0.073
-232.800	23.890	-0.199	-0.162
-231.786	-130.568	0.422	0.056
-230.771	291.095	-0.125	-0.224
-229.757	612.564	-0.067	-0.165
-228.742	-200.000	-0.043	0.442
-227.727	74.938	-0.078	-0.081
-226.713	-200.000	-0.012	0.143
-225.698	429.342	-0.072	0.154
-224.684	12.515	0.268	0.204
-223.669	-161.886	-0.121	-0.006
-222.655	-194.842	0.290	0.002
-221.640	-200.000	0.005	0.305
-220.625	98.466	-0.096	-0.109
-219.611	-176.719	0.037	0.001
-218.596	-79.141	0.127	0.042
-217.582	-190.780	0.118	0.001
-216.567	800.000	-0.038	-0.140
-215.552	66.620	-0.289	-0.289
-214.538	-64.877	0.021	-0.008
-213.523	23.953	0.131	0.107
-212.509	170.880	0.115	-0.163
-211.494	-200.000	0.040	-0.188
-210.479	-56.455	-0.039	-0.017
-209.465	-200.000	-0.065	-0.354
-208.450	-105.926	0.459	-0.102
-207.436	-125.770	0.077	-0.012
-206.421	243.831	-0.080	-0.132
-205.406	53.065	-0.177	-0.167
-204.392	124.495	0.054	0.067
-203.377	-200.000	-0.027	0.216
-202.363	642.862	0.032	0.081
-201.348	-56.029	-0.226	0.099
-200.333	-51.068	-0.465	0.215
-199.319	800.000	-0.042	0.115
-198.304	-200.000	0.031	-0.218
-197.290	-178.572	0.279	-0.006
-196.275	800.000	-0.039	0.163
-195.260	3.564	0.192	0.138
-194.246	-32.688	-0.228	0.125
-193.231	-42.191	0.107	0.054
-192.217	-200.000	-0.075	0.364
-191.202	38.874	0.157	0.138
-190.187	-200.000	0.014	0.109
-189.173	-24.008	0.201	0.118
-188.158	60.935	-0.070	-0.068
-187.144	139.728	0.105	-0.136
-186.129	-78.830	-0.051	-0.017
-185.114	-63.251	-0.149	-0.060
-184.100	305.593	0.002	-0.004
-183.085	34.705	0.139	0.120
-182.071	-94.670	0.106	-0.028
-181.056	11.104	0.187	0.141
-180.042	378.755	-0.042	0.085
-179.027	-98.492	0.184	0.046
-178.012	-82.004	-0.515	-0.166
-176.998	-163.477	0.214	0.010
-175.983	-16.597	0.118	-0.074
-174.969	-200.000	0.061	-0.000
-173.954	-46.342	-0.392	0.190
-172.939	800.000	-0.068	0.193
-171.925	115.073	0.145	0.174
-170.910	-62.913	-0.129	-0.053
-169.896	-15.955	0.182	0.114
-168.881	67.339	-0.085	-0.086
-167.866	162.282	-0.180	-0.249
-166.852	694.556	-0.098	0.252
-165.837	-200.000	-0.021	-0.167
-164.823	-32.093	0.016	0.009
-163.808	-200.000	0.006	-0.139
-162.793	-47.743	-0.226	-0.108
-161.779	-74.806	0.508	0.179
-160.764	186.539	0.025	0.037
-159.750	-33.363	-0.076	0.041
-158.735	159.655	-0.068	0.092
-157.720	97.373	0.148	0.167
-156.706	-200.000	-0.031	0.339
-155.691	-3.376	0.215	-0.147
-154.677	-76.082	-0.354	-0.123
-153.662	-106.542	-0.157	0.034
-152.647	-50.552	-0.272	-0.126
-151.633	702.692	0.047	-0.121
-150.618	-200.000	0.052	-0.282
-149.604	118.312	0.126	0.153
-148.589	-31.718	0.095	0.052
-147.574	37.846	-0.321	-0.280
-146.560	294.543	0.173	-0.312
-145.545	208.498	-0.036	0.056
-144.531	90.134	-0.185	-0.203
-143.516	-43.151	0.348	0.173
-142.502	219.018	-0.085	0.134
-141.487	373.399	-0.123	-0.245
-140.472	-123.079	0.253	-0.040
-139.458	-200.000	-0.017	0.124
-138.443	-53.205	0.488	0.220
-137.429	800.000	-0.044	-0.179
-136.414	-200.000	0.101	-0.541
-135.399	-200.000	0.017	-0.095
-134.385	97.139	0.126	-0.142
-133.370	15.551	-0.306	-0.236
-132.356	141.607	-0.186	-0.242
-131.341	52.156	0.382	0.358
-130.326	800.000	-0.106	0.437
-129.312	336.465	0.073	-0.139
-128.297	-200.000	-0.026	-0.184
-127.283	-1.330	-0.196	-0.136
-126.268	197.832	-0.109	0.163
-125.253	135.078	-0.011	-0.015
-124.239	-9.853	-0.291	0.190
-123.224	-51.541	-0.140	0.064
-122.210	-57.427	-0.253	-0.109
-121.195	24.071	0.174	-0.141
-120.180	-48.556	0.202	0.095
-119.166	153.977	-0.113	0.152
-118.151	-31.540	0.153	0.085
-117.137	800.000	-0.021	0.084
-116.122	800.000	-0.083	0.284
-115.107	-35.757	0.157	0.083
-114.093	-200.000	0.010	0.055
-113.078	112.499	0.099	0.118
-112.064	510.309	0.033	0.076
-111.049	585.916	0.020	-0.047
-110.034	159.547	-0.159	-0.217
-109.020	-64.928	-0.248	0.099
-108.005	-7.043	0.308	0.205
-106.991	100.891	-0.165	-0.189
-105.976	14.157	0.202	-0.154
-104.962	-200.000	0.026	-0.191
-103.947	179.218	0.340	0.489
-102.932	-200.000	-0.002	0.227
-101.918	800.000	-0.066	0.273
-100.903	-200.000	0.029	-0.160
-99.889	-76.986	0.102	0.035
-98.874	-99.671	0.230	-0.057
-97.859	-200.000	0.048	-0.207
-96.845	145.824	-0.057	0.075
-95.830	126.060	-0.137	-0.170
-94.816	165.057	-0.116	-0.160
-93.801	800.000	-0.125	-0.488
-92.786	-116.388	0.076	-0.014
-91.772	-66.432	-0.033	0.013
-90.757	-82.354	-0.441	-0.141
-89.743	66.582	-0.132	0.132
-88.728	158.253	-0.021	0.028
-87.713	800.000	-0.061	-0.165
-86.699	-10.526	0.297	-0.193
-85.684	230.225	-0.034	-0.054
-84.670	362.710	-0.192	0.378
-83.655	20.709	0.304	-0.241
-82.640	-106.955	0.099	0.021
-81.626	-200.000	-0.012	-0.069
-80.611	-13.691	-0.225	-0.143
-79.597	3.320	0.161	0.115
-78.582	267.382	-0.114	0.195
-77.567	-15.789	0.224	0.140
-76.553	-91.232	-0.384	-0.108
-75.538	41.711	0.196	-0.174
-74.524	19.816	0.122	-0.096
-73.509	123.057	0.005	-0.006
-72.494	-80.145	0.211	-0.069
-71.480	800.000	0.120	0.442
-70.465	413.882	0.198	-0.414
-69.451	0.343	-0.248	-0.174
-68.436	21.043	0.146	-0.116
-67.422	-26.321	0.144	0.083
-66.407	-155.152	-0.105	-0.007
-65.392	-82.273	0.349	-0.111
-64.378	10.245	-0.215	-0.160
-63.363	643.470	0.107	-0.267
-62.349	-200.000	-0.038	-0.328
-61.334	217.754	-0.784	-1.225
-60.319	100.020	0.497	0.565
-59.305	800.000	-0.240	-0.850
-58.290	270.254	0.686	1.181
-57.276	800.000	0.400	1.376
-56.261	-200.000	106.210	612.664
-55.246	504.864	1509.906	3425.142
-54.232	176.251	2701.917	3844.489
-53.217	111.385	2164.322	2556.108
-52.203	41.380	1598.856	1416.818
-51.188	32.865	1333.844	1131.172
-50.173	29.734	1292.279	1077.659
-49.159	54.269	1346.584	1269.574
-48.144	54.560	1361.797	1285.594
-47.130	32.905	1317.014	1116.960
-46.115	29.432	1299.031	1081.348
-45.100	29.298	1294.145	1076.457
-44.086	29.270	1291.828	1074.325
-43.071	29.152	1289.174	1071.390
-42.057	29.104	1287.028	1069.285
-41.042	29.324	1284.914	1068.762
-40.027	29.275	1283.431	1067.200
-39.013	29.255	1281.646	1065.556
-37.998	29.360	1279.947	1064.711
-36.984	29.288	1277.767	1062.440
-35.969	29.437	1275.969	1061.757
-34.954	29.417	1274.669	1060.521
-33.940	29.350	1273.517	1059.136
-32.925	29.417	1272.205	1058.384
-31.911	29.455	1270.506	1057.151
-30.896	29.556	1268.848	1056.303
-29.881	29.516	1267.795	1055.158
-28.867	29.560	1265.867	1053.764
-27.852	29.417	1265.061	1052.231
-26.838	29.533	1263.450	1051.512
-25.823	29.562	1261.859	1050.314
-24.809	29.332	1261.419	1048.594
-23.794	29.303	1259.972	1047.187
-22.779	29.582	1257.666	1046.813
-21.765	29.494	1257.055	1045.763
-20.750	29.478	1255.495	1044.335
-19.736	29.211	1254.591	1042.028
-18.721	29.361	1252.974	1041.491
-17.706	29.297	1252.274	1040.508
-16.692	29.401	1250.721	1039.761
-15.677	29.372	1250.031	1038.987
-14.663	29.453	1248.622	1038.228
-13.648	29.273	1248.412	1037.000
-12.633	29.292	1246.964	1035.864
-11.619	29.406	1245.699	1035.411
-10.604	29.267	1245.238	1034.206
-9.590	29.277	1244.149	1033.314
-8.575	29.236	1243.541	1032.538
-7.560	29.226	1242.926	1031.932
-6.546	29.313	1241.729	1031.382
-5.531	29.286	1240.899	1030.504
-4.517	29.391	1239.838	1030.168
-3.502	29.372	1239.293	1029.570
-2.487	29.374	1237.998	1028.462
-1.473	29.422	1233.834	1025.228
-0.458	27.939	1219.413	1005.056
0.556	22.331	1203.100	969.742
1.571	18.891	1209.360	955.609
2.586	18.434	1223.414	964.059
3.600	18.226	1213.644	955.110
4.615	13.552	1142.652	874.542
5.629	4.537	1067.692	772.451
6.644	0.128	1047.309	736.106
7.659	-0.380	1045.013	731.949
8.673	-0.451	1043.672	730.597
9.688	-0.475	1042.526	729.617
10.702	0.018	1040.963	730.855
11.717	6.023	1049.581	766.199
12.731	15.055	1061.996	819.599
13.746	19.415	1068.127	845.683
14.761	20.354	1068.674	850.644
15.775	20.314	1068.470	850.211
16.790	20.132	1067.106	848.160
17.804	20.163	1066.706	847.918
18.819	20.306	1066.448	848.335
19.834	20.470	1065.590	848.377
20.848	20.324	1065.359	847.407
21.863	20.423	1064.516	847.144
22.877	20.331	1063.906	846.138
23.892	20.188	1063.973	845.417
24.907	20.300	1062.573	844.776
25.921	20.341	1061.663	844.178
26.936	20.373	1060.236	843.121
27.950	20.306	1058.615	841.433
28.965	20.084	1056.567	838.656
29.980	20.144	1055.408	837.951
30.994	20.305	1054.371	837.832
32.009	20.364	1052.832	836.821
33.023	20.129	1051.762	834.763
34.038	20.209	1050.995	834.466
35.053	20.368	1050.378	834.669
36.067	20.367	1049.112	833.583
37.082	20.287	1048.765	832.852
38.096	20.550	1047.982	833.418
39.111	20.735	1047.201	833.605
40.126	20.377	1046.034	830.892
41.140	20.239	1043.630	828.250
42.155	19.918	1042.664	825.877
43.169	19.965	1041.634	825.213
44.184	20.123	1040.336	824.863
45.199	19.915	1039.538	823.171
46.213	19.909	1038.672	822.381
47.228	20.188	1037.244	822.501
48.242	20.176	1036.831	822.046
49.257	20.248	1036.445	822.006
50.271	20.349	1035.499	821.664
51.286	20.403	1034.526	821.073
52.301	20.435	1033.601	820.418
53.315	20.383	1032.356	819.109
54.330	20.293	1031.906	818.256
55.344	20.306	1031.022	817.544
56.359	20.325	1029.804	816.598
57.374	20.238	1028.754	815.284
58.388	20.066	1028.145	813.919
59.403	20.048	1027.233	813.041
60.417	19.838	1026.509	811.413
61.432	20.034	1025.570	811.518
62.447	20.156	1025.175	811.704
63.461	20.213	1024.405	811.287
64.476	20.133	1023.273	809.948
65.490	20.068	1022.103	808.644
66.505	20.141	1021.589	808.506
67.520	20.217	1020.909	808.253
68.534	19.897	1019.800	805.812
69.549	19.542	1018.924	803.396
70.563	19.778	1017.700	803.460
71.578	19.700	1017.369	802.762
72.593	19.488	1016.359	800.913
73.607	19.843	1015.520	801.825
74.622	20.028	1015.262	802.407
75.636	19.944	1014.733	801.529
76.651	19.849	1013.587	800.117
77.666	19.755	1013.129	799.248
78.680	19.998	1011.910	799.337
79.695	19.838	1012.120	798.694
80.709	19.977	1010.696	798.141
81.724	20.007	1009.865	797.553
82.739	20.081	1009.214	797.308
83.753	20.338	1009.179	798.391
84.768	20.585	1008.235	798.707
85.782	20.655	1007.363	798.270
86.797	20.575	1006.033	796.775
87.812	20.494	1005.705	796.077
88.826	20.496	1004.777	795.280
89.841	20.464	1004.163	794.578
90.855	20.647	1002.748	794.223
91.870	20.566	1002.072	793.247
92.884	20.490	1000.366	791.481
93.899	20.360	999.726	790.312
94.914	20.694	998.963	791.157
95.928	20.352	997.768	788.587
96.943	20.172	996.654	786.822
97.957	19.937	995.550	784.815
98.972	19.782	994.558	783.262
99.987	20.015	994.019	783.821
101.001	20.302	993.199	784.404
102.016	20.308	992.333	783.677
103.030	20.135	991.568	782.222
104.045	20.077	990.187	780.803
105.060	19.896	989.287	779.209
106.074	20.100	988.504	779.444
107.089	20.481	988.307	780.929
108.103	20.202	987.496	778.968
109.118	20.128	985.666	777.126
110.133	20.204	984.441	776.429
111.147	20.034	983.421	774.798
112.162	19.797	982.564	772.995
113.176	20.078	981.950	773.695
114.191	20.033	981.221	772.854
115.206	19.784	979.822	770.574
116.220	19.752	979.016	769.729
117.235	19.916	978.367	769.880
118.249	19.926	977.121	768.877
119.264	19.704	976.747	767.526
120.279	19.838	975.747	767.269
121.293	19.874	975.175	766.909
122.308	19.881	974.160	766.076
123.322	19.701	973.486	764.681
124.337	19.643	971.947	763.148
125.352	19.202	970.185	759.755
126.366	19.320	968.768	759.093
127.381	19.927	969.345	762.153
128.395	20.341	968.108	762.934
129.410	20.403	967.730	762.839
130.424	20.286	966.590	761.362
131.439	20.414	965.421	760.934
132.454	20.313	964.899	760.014
133.468	20.327	963.742	759.096
134.483	20.377	963.309	758.908
135.497	20.470	962.707	758.773
136.512	20.605	961.372	758.238
137.527	20.622	960.709	757.722
138.541	20.680	959.786	757.183
139.556	20.474	958.914	755.532
140.570	20.637	958.239	755.642
141.585	20.485	957.200	754.094
142.600	20.513	956.290	753.433
143.614	20.736	955.463	753.679
144.629	20.787	955.034	753.497
145.643	20.707	953.640	751.983
146.658	20.472	952.129	749.711
147.673	20.492	950.820	748.701
148.687	20.492	949.859	747.878
149.702	20.390	949.145	746.811
150.716	20.410	947.983	745.918
151.731	20.484	947.746	745.982
152.746	20.612	947.239	746.064
153.760	20.857	946.512	746.479
154.775	20.793	945.766	745.548
155.789	20.719	944.628	744.267
156.804	20.711	943.989	743.668
157.819	20.696	943.183	742.901
158.833	20.939	942.351	743.219
159.848	20.762	941.402	741.648
160.862	20.556	940.236	739.786
161.877	20.736	939.464	739.881
162.892	20.883	938.227	739.465
163.906	20.609	937.771	737.876
164.921	20.639	937.001	737.331
165.935	20.699	935.615	736.432
166.950	20.780	934.726	736.007
167.964	20.756	933.598	734.952
168.979	20.479	933.014	733.261
169.994	20.387	932.209	732.174
171.008	20.843	931.093	733.154
172.023	20.843	930.456	732.586
173.037	20.537	929.101	730.171
174.052	20.412	928.124	728.812
175.067	20.525	927.655	728.856
176.081	20.676	927.185	729.054
177.096	20.406	926.657	727.442
178.110	20.130	926.094	725.781
179.125	20.131	924.736	724.658
180.140	20.143	924.497	724.453
181.154	20.343	924.143	724.951
182.169	20.571	923.549	725.369
183.183	20.723	923.530	725.926
184.198	20.575	922.894	724.743
185.213	20.678	921.659	724.141
186.227	20.800	921.129	724.167
187.242	20.720	920.520	723.291
188.256	20.704	919.953	722.713
189.271	20.734	919.040	722.058
190.286	20.652	917.836	720.710
191.300	19.915	916.702	716.703
192.315	19.255	915.485	712.957
193.329	19.302	914.772	712.535
194.344	20.130	915.202	716.231
195.359	20.658	915.012	718.197
196.373	20.632	914.110	717.319
197.388	20.680	913.911	717.296
198.402	20.474	913.033	715.695
199.417	20.589	911.961	715.264
200.432	20.334	911.090	713.472
201.446	20.213	910.261	712.263
202.461	20.219	909.910	711.948
203.475	19.215	907.998	706.277
204.490	18.702	907.007	703.341
205.504	19.526	907.505	707.043
206.519	20.250	906.969	709.522
207.534	20.177	907.071	709.244
208.548	20.721	906.647	711.071
209.563	20.458	905.163	708.770
210.577	20.451	904.763	708.366
211.592	20.812	904.302	709.415
212.607	20.683	903.748	708.390
213.621	20.768	903.066	708.140
214.636	20.814	902.643	707.932
215.650	20.752	901.688	706.871
216.665	20.930	900.652	706.715
217.680	20.735	900.345	705.623
218.694	20.327	898.930	702.799
219.709	20.219	898.227	701.749
220.723	20.467	897.918	702.449
221.738	20.571	897.471	702.459
222.753	20.671	896.827	702.297
223.767	20.650	896.281	701.720
224.782	20.939	895.868	702.500
225.796	20.904	895.002	701.619
226.811	20.225	893.622	697.746
227.826	19.591	892.605	694.343
228.840	19.823	891.871	694.638
229.855	19.936	891.121	694.448
230.869	19.558	890.275	692.213
231.884	20.116	890.165	694.302
232.899	20.703	890.476	696.834
233.913	20.671	889.569	695.933
234.928	20.598	888.870	695.035
235.942	20.616	888.136	694.472
236.957	20.161	887.554	692.139
237.972	20.193	886.860	691.663
238.986	20.209	886.569	691.438
240.001	20.365	885.476	691.146
241.015	20.470	885.149	691.248
242.030	20.526	884.266	690.720
243.045	20.722	884.286	691.452
244.059	20.658	883.751	690.717
245.074	20.589	882.551	689.446
246.088	20.264	881.592	687.351
247.103	20.471	881.468	688.013
248.117	21.036	881.103	689.903
249.132	21.291	880.722	690.548
250.147	21.219	880.136	689.745
251.161	21.500	879.201	690.060
252.176	21.472	878.717	689.510
253.190	21.473	878.496	689.280
254.205	21.509	877.884	688.880
255.220	21.603	877.029	688.516
256.234	21.536	876.282	687.605
257.249	21.434	875.432	686.477
258.263	21.335	874.738	685.485
259.278	21.539	873.871	685.544
260.293	21.511	873.538	685.112
261.307	21.376	872.864	683.995
262.322	21.194	872.028	682.569
263.336	20.432	870.076	678.005
264.351	19.346	868.095	672.172
265.366	19.412	868.309	672.534
266.380	20.744	868.605	677.895
267.395	21.169	867.879	678.921
268.409	20.974	867.665	677.937
269.424	21.204	867.515	678.654
270.439	21.302	866.354	678.064
271.453	21.334	865.939	677.804
272.468	21.656	865.057	678.303
273.482	21.590	865.103	678.023
274.497	21.074	863.699	674.865
275.512	20.766	863.362	673.351
276.526	21.243	863.313	675.100
277.541	21.347	863.077	675.256
278.555	20.975	861.656	672.649
279.570	20.879	860.769	671.529
280.585	21.107	859.956	671.711
281.599	21.127	859.698	671.529
282.614	20.607	858.089	668.215
283.628	20.650	857.654	667.979
284.643	21.030	857.103	668.952
285.657	20.699	856.293	666.990
286.672	20.223	855.453	664.454
287.687	20.913	855.328	666.939
288.701	20.843	855.074	666.416
289.716	20.523	854.171	664.430
290.730	20.468	853.443	663.595
291.745	20.188	852.379	661.640
292.760	20.547	852.505	663.050
293.774	21.475	852.769	666.732
294.789	21.818	852.545	667.807
295.803	21.918	851.690	667.460
296.818	21.823	851.228	666.678
297.833	21.490	849.947	664.348
298.847	21.355	849.536	663.457
299.862	21.773	848.750	664.370
300.876	21.823	849.078	664.757
301.891	21.662	848.084	663.311
302.906	21.161	847.426	660.842
303.920	21.378	847.105	661.354
304.935	21.819	846.484	662.477
305.949	21.770	845.752	661.658
306.964	21.592	845.293	660.569
307.979	21.485	845.007	659.885
308.993	21.848	844.888	661.102
310.008	21.865	843.818	660.269
311.022	21.650	842.979	658.747
312.037	21.561	842.643	658.093
313.052	21.326	841.771	656.471
314.066	20.483	840.470	652.233
315.081	20.162	839.971	650.585
316.095	21.131	840.293	654.410
317.110	21.422	839.682	654.969
318.125	20.650	838.536	651.127
319.139	19.743	836.863	646.383
320.154	19.814	836.496	646.306
321.168	20.620	837.029	649.673
322.183	21.297	836.838	651.993
323.197	21.395	836.450	652.000
324.212	21.502	836.110	652.076
325.227	21.608	835.565	651.987
326.241	21.361	835.041	650.604
327.256	21.350	834.167	649.823
328.270	21.321	833.696	649.289
329.285	21.170	832.555	647.784
330.300	20.941	831.910	646.378
331.314	21.266	831.612	647.291
332.329	21.643	831.342	648.419
333.343	21.679	831.266	648.438
334.358	21.665	830.568	647.783
335.373	21.749	830.310	647.837
336.387	22.010	830.387	648.803
337.402	22.039	830.256	648.751
338.416	22.029	829.588	648.134
339.431	22.115	829.314	648.181
340.446	22.363	828.892	648.706
341.460	22.083	828.372	647.212
342.475	21.937	827.767	646.144
343.489	22.039	827.492	646.245
344.504	22.288	827.200	646.877
345.519	22.433	827.031	647.222
346.533	22.534	826.247	646.923
347.548	22.312	826.289	646.083
348.562	22.577	825.206	646.148
349.577	22.439	825.128	645.527
350.592	22.445	824.084	644.674
351.606	22.350	823.434	643.759
352.621	22.371	822.481	643.036
353.635	22.150	821.937	641.747
354.650	21.701	820.188	638.687
355.665	20.690	818.729	633.815
356.679	21.183	818.725	635.548
357.694	21.490	818.171	636.179
358.708	21.382	817.920	635.535
359.723	22.070	817.620	637.746
360.738	22.142	817.153	637.586
361.752	22.286	816.910	637.862
362.767	22.566	816.679	638.640
363.781	22.842	815.990	639.044
364.796	22.749	815.891	638.575
365.810	22.836	815.669	638.657
366.825	22.622	814.998	637.302
367.840	22.399	814.187	635.806
368.854	22.036	813.473	633.884
369.869	22.354	812.543	634.249
370.883	22.344	812.092	633.806
371.898	22.089	811.624	632.466
372.913	22.095	811.706	632.496
373.927	22.416	811.073	633.101
374.942	22.347	810.999	632.737
375.956	22.568	810.494	633.082
376.971	22.574	810.142	632.772
377.986	22.760	809.830	633.139
379.000	22.696	809.179	632.345
380.015	22.577	808.176	631.080
381.029	22.573	807.967	630.846
382.044	22.843	807.270	631.213
383.059	22.799	807.277	631.005
384.073	22.893	806.419	630.614
385.088	22.743	805.911	629.624
386.102	22.615	805.114	628.491
387.117	22.582	804.341	627.715
388.132	22.178	803.549	625.604
389.146	21.738	802.716	623.335
390.161	22.071	802.668	624.427
391.175	22.432	802.238	625.317
392.190	22.168	801.244	623.552
393.205	20.908	798.946	617.249
394.219	19.466	797.572	611.028
395.234	19.543	797.645	611.304
396.248	21.266	798.554	618.048
397.263	22.432	799.585	622.921
398.278	22.407	799.122	622.414
399.292	22.310	798.416	621.467
400.307	22.164	797.755	620.382
401.321	22.302	797.386	620.529
402.336	22.622	797.295	621.530
403.350	22.895	797.742	622.788
404.365	23.269	797.446	623.819
405.380	23.337	797.004	623.657
406.394	23.548	795.941	623.511
407.409	23.461	795.612	622.893
408.423	23.359	795.476	622.373
409.438	23.474	794.927	622.293
410.453	23.584	794.466	622.262
411.467	23.575	793.794	621.648
412.482	23.369	793.526	620.662
413.496	23.479	793.438	620.925
414.511	23.515	792.921	620.591
415.526	23.570	792.393	620.316
416.540	23.422	791.514	619.053
417.555	23.021	791.251	617.396
418.569	23.311	790.515	617.776
419.584	23.180	790.052	616.903
420.599	22.871	789.641	615.451
421.613	157.798	1365.257	1798.349
422.628	136.630	1449.122	1798.430
