DTS Sentinel unit serial number:	SN413079Multiplexer serial number:	ORYXHardware model number:	OX4-SRSoftware version number:	ORYX F/W v4.00 Oryx Data Collector v3.7.2.0data status	okinstallation	princeton_trtdifferential loss correction	single-endedforward channel	channel 1reverse channel	N/Adate	2019/09/18time	01:54:35forward acquisition time	60.00reverse acquisition time	0.00gamma	496.2192k internal	0.2341k external	0.2341temperature offset calibration	0.9978default loss term (dB/km)	0.3790temperature slope calibration	1.0000multiplexer offset coefficient	1.0000multiplexer slope coefficient	1.0000fibre end	0.00T internal ref (°C)	22.95T ext. ref 1 (°C)	0.17T ext. ref 2 (°C)	16.66length (m)	temperature (°C)	Stokes	anti-Stokes-747.200	-64.023	-0.192	-0.078
-746.185	6.572	-0.229	0.170
-745.171	458.751	-0.059	0.132
-744.156	-77.131	-0.335	0.117
-743.142	800.000	-0.021	0.075
-742.127	-3.253	-0.348	-0.243
-741.112	-133.959	0.172	0.021
-740.098	197.781	0.043	0.066
-739.083	322.629	0.099	-0.189
-738.069	-53.491	0.246	0.113
-737.054	-86.652	0.317	-0.097
-736.039	-35.380	-0.084	-0.046
-735.025	-66.799	-0.205	-0.081
-734.010	0.222	-0.457	0.327
-732.996	-86.135	0.189	0.058
-731.981	120.749	-0.040	-0.049
-730.966	-200.000	0.023	-0.156
-729.952	-125.780	-0.346	0.052
-728.937	11.213	-0.377	-0.289
-727.923	800.000	-0.101	-0.374
-726.908	243.836	-0.102	-0.172
-725.894	97.869	-0.231	-0.266
-724.879	457.953	0.060	0.133
-723.864	335.436	-0.087	-0.169
-722.850	-1.550	0.074	0.052
-721.835	64.502	-0.085	0.086
-720.821	183.883	0.096	-0.142
-719.806	-200.000	-0.019	-0.220
-718.791	96.238	-0.094	-0.108
-717.777	-200.000	0.008	0.041
-716.762	-115.735	-0.257	0.048
-715.748	800.000	0.062	0.191
-714.733	-120.851	0.180	0.030
-713.718	800.000	-0.056	0.237
-712.704	157.791	0.133	-0.184
-711.689	-200.000	0.006	0.369
-710.675	-131.292	-0.137	-0.018
-709.660	-62.710	0.097	-0.040
-708.645	800.000	-0.013	0.038
-707.631	-101.837	-0.359	-0.087
-706.616	-90.855	-0.045	-0.013
-705.602	202.403	0.145	0.224
-704.587	293.355	0.074	-0.135
-703.572	800.000	-0.077	-0.300
-702.558	-74.257	0.328	-0.119
-701.543	320.893	0.011	-0.022
-700.529	-200.000	-0.005	-0.073
-699.514	800.000	-0.031	0.106
-698.499	-118.612	-0.047	0.008
-697.485	68.100	-0.125	0.128
-696.470	-5.366	-0.198	0.136
-695.456	13.089	-0.112	-0.087
-694.441	56.791	0.117	-0.114
-693.426	80.468	-0.108	0.116
-692.412	-33.963	0.161	-0.089
-691.397	-10.282	0.158	0.105
-690.383	325.027	-0.110	0.210
-689.368	-83.804	-0.308	-0.098
-688.354	-155.498	-0.536	0.035
-687.339	-32.132	0.046	-0.026
-686.324	220.290	-0.194	-0.312
-685.310	94.539	-0.174	-0.197
-684.295	-94.658	-0.221	0.060
-683.281	-55.745	0.053	-0.024
-682.266	-31.320	-0.149	-0.084
-681.251	800.000	0.095	0.378
-680.237	-141.780	-0.169	0.017
-679.222	800.000	0.020	0.087
-678.208	-161.750	0.157	-0.008
-677.193	-139.776	0.397	0.042
-676.178	800.000	0.054	-0.161
-675.164	330.996	0.130	0.251
-674.149	161.804	0.177	-0.248
-673.135	-91.242	-0.551	0.158
-672.120	-83.599	0.060	0.019
-671.105	147.625	0.033	-0.045
-670.091	800.000	-0.050	0.161
-669.076	-66.697	-0.091	-0.036
-668.062	-143.142	0.321	0.031
-667.047	-106.815	0.098	0.022
-666.032	-178.469	-0.334	0.008
-665.018	-143.920	0.170	-0.016
-664.003	-75.094	-0.442	-0.158
-662.989	-17.889	-0.215	0.135
-661.974	-137.707	0.431	0.048
-660.959	88.788	-0.093	-0.103
-659.945	-113.426	-0.082	-0.016
-658.930	800.000	-0.011	-0.040
-657.916	-200.000	0.039	0.312
-656.901	-200.000	-0.079	-0.346
-655.886	-90.738	0.294	-0.085
-654.872	-59.603	0.500	0.214
-653.857	800.000	-0.034	-0.145
-652.843	247.824	-0.068	0.115
-651.828	800.000	-0.011	-0.041
-650.814	-66.652	-0.319	-0.126
-649.799	169.297	0.024	-0.034
-648.784	84.933	-0.020	-0.021
-647.770	12.716	0.195	0.150
-646.755	-200.000	-0.040	0.232
-645.741	-43.203	-0.390	-0.197
-644.726	96.314	0.199	-0.228
-643.711	-115.030	0.179	0.034
-642.697	180.867	0.091	0.133
-641.682	-135.004	-0.303	-0.036
-640.668	800.000	-0.123	-0.387
-639.653	-117.875	-0.195	-0.035
-638.638	238.120	-0.114	0.189
-637.624	423.383	0.110	0.237
-636.609	-111.367	-0.407	0.083
-635.595	488.161	0.039	0.089
-634.580	-200.000	-0.019	-0.193
-633.565	430.277	0.060	0.130
-632.551	105.925	-0.075	0.088
-631.536	150.845	-0.052	-0.071
-630.522	-0.165	0.055	0.039
-629.507	-75.120	-0.253	0.090
-628.492	-119.989	-0.292	0.050
-627.478	-51.741	-0.179	-0.083
-626.463	-156.798	0.509	0.031
-625.449	749.038	0.064	0.173
-624.434	-200.000	-0.009	0.047
-623.419	-79.391	-0.079	0.027
-622.405	148.137	-0.155	0.209
-621.390	-200.000	-0.021	0.260
-620.376	-200.000	-0.016	-0.199
-619.361	553.986	0.055	-0.132
-618.346	-200.000	0.045	-0.323
-617.332	-200.000	0.013	-0.155
-616.317	-76.237	-0.227	-0.080
-615.303	147.652	-0.194	0.261
-614.288	17.655	-0.163	0.130
-613.273	197.065	0.236	-0.358
-612.259	144.624	-0.184	0.245
-611.244	12.772	-0.132	-0.102
-610.230	-200.000	0.024	0.291
-609.215	117.484	-0.041	-0.051
-608.201	-117.688	0.139	-0.025
-607.186	218.728	-0.046	0.073
-606.171	-135.594	-0.455	0.054
-605.157	263.649	0.159	-0.276
-604.142	-61.532	-0.155	0.065
-603.128	-173.265	-0.074	0.002
-602.113	-95.195	0.414	-0.111
-601.098	-30.130	-0.244	0.138
-600.084	687.060	0.093	-0.241
-599.069	-114.161	-0.179	-0.034
-598.055	800.000	0.143	0.496
-597.040	-121.804	-0.442	-0.073
-596.025	134.569	0.173	0.223
-595.011	800.000	0.027	0.099
-593.996	-14.947	0.067	-0.043
-592.982	68.292	0.105	-0.107
-591.967	800.000	-0.044	-0.157
-590.952	-37.057	-0.232	-0.124
-589.938	-108.220	-0.284	0.061
-588.923	-140.358	0.197	0.020
-587.909	-75.885	0.229	-0.081
-586.894	200.631	-0.262	-0.401
-585.879	-34.027	-0.323	-0.177
-584.865	78.495	-0.328	-0.349
-583.850	-200.000	-0.009	0.151
-582.836	104.854	-0.141	-0.165
-581.821	57.545	0.062	-0.061
-580.806	-61.582	0.303	0.127
-579.792	645.432	0.048	-0.123
-578.777	-22.024	0.117	0.071
-577.763	800.000	0.038	-0.105
-576.748	-200.000	-0.023	-0.135
-575.733	-200.000	-0.489	0.001
-574.719	40.866	-0.107	0.096
-573.704	-200.000	-0.036	-0.295
-572.690	32.635	-0.405	0.348
-571.675	272.015	0.141	0.247
-570.661	160.668	-0.155	0.216
-569.646	-34.076	-0.021	-0.012
-568.631	-200.000	-0.026	-0.139
-567.617	-8.033	0.143	-0.096
-566.602	-200.000	-0.006	-0.174
-565.588	-102.456	-0.279	-0.066
-564.573	-64.153	0.339	0.138
-563.558	90.078	-0.039	0.043
-562.544	-6.403	0.406	-0.276
-561.529	-146.725	-0.312	-0.027
-560.515	162.083	0.087	0.122
-559.500	15.625	0.095	-0.075
-558.485	537.807	-0.020	-0.047
-557.471	199.334	-0.191	0.292
-556.456	800.000	0.094	-0.408
-555.442	800.000	0.030	0.103
-554.427	244.496	0.173	-0.289
-553.412	404.657	0.101	-0.212
-552.398	260.181	0.263	0.452
-551.383	-189.337	-0.217	-0.003
-550.369	586.584	0.032	-0.077
-549.354	-46.662	0.283	0.138
-548.339	-200.000	0.010	-0.069
-547.325	-83.285	-0.474	-0.151
-546.310	92.506	-0.195	-0.219
-545.296	124.869	-0.164	-0.206
-544.281	-90.390	-0.254	-0.073
-543.266	-65.754	0.263	0.105
-542.252	-14.296	-0.293	0.188
-541.237	320.912	0.095	0.180
-540.223	800.000	0.045	0.147
-539.208	97.045	0.105	0.120
-538.193	63.957	0.146	-0.146
-537.179	-200.000	-0.117	-0.529
-536.164	-88.893	-0.175	0.052
-535.150	129.131	-0.073	0.092
-534.135	199.746	-0.295	0.450
-533.121	-200.000	0.012	-0.264
-532.106	-200.000	-0.009	0.397
-531.091	-114.850	0.412	0.078
-530.077	66.340	-0.175	0.177
-529.062	-164.919	0.344	-0.015
-528.048	277.440	0.030	0.054
-527.033	305.026	0.127	-0.234
-526.018	149.441	0.279	-0.376
-525.004	-44.717	-0.200	0.099
-523.989	438.379	-0.086	0.185
-522.975	-77.668	0.445	-0.153
-521.960	108.178	-0.237	0.281
-520.945	140.465	0.090	0.118
-519.931	-200.000	-0.020	0.143
-518.916	-117.755	-0.347	0.062
-517.902	-12.675	0.264	-0.171
-516.887	-200.000	-0.002	0.142
-515.872	372.675	-0.067	-0.135
-514.858	266.432	0.151	0.261
-513.843	-5.733	-0.054	0.037
-512.829	164.426	-0.233	0.326
-511.814	-95.587	-0.263	-0.070
-510.799	296.127	0.088	-0.160
-509.785	-200.000	0.051	-0.285
-508.770	-12.001	0.181	-0.118
-507.756	538.621	-0.125	-0.296
-506.741	772.508	-0.063	-0.170
-505.726	16.177	0.090	-0.070
-504.712	293.127	0.065	0.118
-503.697	-158.923	0.255	0.014
-502.683	-46.679	-0.252	-0.123
-501.668	-104.751	0.189	-0.043
-500.653	41.971	0.110	0.099
-499.639	243.484	0.115	0.192
-498.624	-55.615	-0.246	-0.109
-497.610	-129.162	0.121	-0.017
-496.595	800.000	0.056	-0.185
-495.581	-200.000	0.021	-0.099
-494.566	-200.000	-0.040	0.303
-493.551	-121.225	0.300	0.050
-492.537	-148.186	0.337	-0.028
-491.522	-200.000	-0.016	-0.208
-490.508	800.000	-0.044	-0.147
-489.493	-95.104	0.098	-0.026
-488.478	-200.000	0.002	-0.013
-487.464	-176.135	-0.171	0.004
-486.449	-146.861	-0.158	-0.014
-485.435	149.912	-0.064	0.086
-484.420	241.425	0.220	0.364
-483.405	52.026	-0.091	0.086
-482.391	77.147	-0.171	-0.180
-481.376	-200.000	-0.021	-0.116
-480.362	-200.000	-0.020	0.159
-479.347	-32.563	-0.132	0.073
-478.332	800.000	-0.075	0.320
-477.318	146.104	0.064	0.085
-476.303	-40.742	-0.310	-0.159
-475.289	46.371	-0.138	-0.127
-474.274	369.328	-0.099	-0.198
-473.259	55.582	-0.123	-0.118
-472.245	47.818	0.187	0.173
-471.230	-200.000	-0.025	0.244
-470.216	-106.786	0.253	-0.056
-469.201	766.564	-0.059	-0.159
-468.186	-85.886	0.197	-0.061
-467.172	120.850	0.323	-0.398
-466.157	800.000	0.129	0.387
-465.143	612.352	0.030	0.074
-464.128	-112.873	-0.193	0.038
-463.113	14.271	0.024	0.019
-462.099	238.861	-0.058	-0.095
-461.084	76.333	0.095	0.100
-460.070	191.612	0.138	-0.206
-459.055	-15.763	0.229	0.145
-458.040	-200.000	0.067	0.323
-457.026	8.639	-0.250	0.187
-456.011	-2.289	-0.077	0.054
-454.997	64.829	-0.119	-0.119
-453.982	-200.000	0.019	0.193
-452.968	800.000	-0.049	0.181
-451.953	-19.833	-0.429	-0.262
-450.938	-166.282	0.053	-0.002
-449.924	-97.819	-0.228	-0.058
-448.909	-200.000	0.023	0.223
-447.895	169.522	-0.159	-0.224
-446.880	357.969	-0.076	-0.151
-445.865	-98.749	0.164	-0.041
-444.851	-200.000	-0.002	0.163
-443.836	435.316	-0.064	-0.138
-442.822	104.836	-0.088	0.103
-441.807	-200.000	0.030	0.345
-440.792	45.226	-0.242	0.221
-439.778	800.000	-0.071	0.225
-438.763	-61.005	0.201	-0.084
-437.749	-200.000	-0.015	0.074
-436.734	-30.400	0.332	-0.186
-435.719	-200.000	0.010	-0.062
-434.705	-53.832	-0.242	-0.109
-433.690	-91.929	0.201	-0.056
-432.676	320.578	0.014	0.027
-431.661	-200.000	-0.015	-0.082
-430.646	35.227	-0.128	-0.111
-429.632	-70.873	0.204	0.076
-428.617	25.945	-0.365	-0.301
-427.603	800.000	0.065	-0.241
-426.588	74.525	0.166	-0.173
-425.573	-200.000	-0.052	-0.241
-424.559	370.505	-0.179	-0.359
-423.544	-92.303	0.163	0.046
-422.530	-38.674	0.223	-0.116
-421.515	218.200	-0.072	0.113
-420.500	100.131	-0.276	-0.316
-419.486	85.769	0.203	0.221
-418.471	-102.879	0.264	0.062
-417.457	731.564	0.066	0.175
-416.442	-200.000	0.036	0.224
-415.428	14.639	0.259	0.200
-414.413	-1.785	0.173	-0.121
-413.398	430.062	-0.021	-0.045
-412.384	55.255	0.234	-0.224
-411.369	18.298	-0.259	-0.205
-410.355	-200.000	-0.021	0.349
-409.340	-61.634	-0.425	-0.177
-408.325	-66.339	-0.271	-0.107
-407.311	-88.065	-0.160	-0.048
-406.296	-200.000	0.027	0.356
-405.282	-60.220	-0.180	-0.076
-404.267	-117.894	0.029	0.005
-403.252	-200.000	0.002	-0.110
-402.238	148.073	0.101	0.134
-401.223	-80.694	0.046	-0.015
-400.209	26.613	0.174	-0.144
-399.194	-185.557	-0.088	0.001
-398.179	749.593	0.092	0.244
-397.165	-200.000	0.027	0.194
-396.150	-137.746	0.286	0.032
-395.136	-28.979	0.245	0.139
-394.121	-52.739	-0.093	-0.042
-393.106	-14.676	-0.196	-0.125
-392.092	800.000	-0.104	0.347
-391.077	44.122	0.070	-0.064
-390.063	-168.765	-0.321	-0.012
-389.048	61.324	-0.122	-0.120
-388.033	310.849	-0.090	-0.166
-387.019	84.850	0.107	0.116
-386.004	46.954	-0.011	-0.010
-384.990	145.775	0.136	-0.180
-383.975	43.212	-0.102	0.092
-382.960	-93.572	0.284	-0.077
-381.946	-150.999	-0.098	0.007
-380.931	800.000	-0.012	-0.034
-379.917	552.714	-0.091	-0.215
-378.902	3.815	-0.201	-0.145
-377.888	62.202	0.222	-0.219
-376.873	-19.554	0.127	-0.078
-375.858	-82.341	-0.042	-0.013
-374.844	-115.338	0.116	0.022
-373.829	-200.000	0.007	0.046
-372.815	800.000	-0.052	-0.179
-371.800	208.993	-0.048	0.075
-370.785	70.465	0.047	-0.048
-369.771	-47.985	-0.118	0.056
-368.756	-131.849	0.059	0.008
-367.742	-122.603	-0.244	-0.039
-366.727	-57.330	-0.101	-0.044
-365.712	800.000	-0.084	0.339
-364.698	10.676	-0.337	-0.254
-363.683	9.075	0.215	0.160
-362.669	-170.909	-0.096	0.003
-361.654	-11.762	0.149	-0.097
-360.639	-200.000	0.040	-0.254
-359.625	-44.027	0.122	-0.061
-358.610	-68.496	-0.311	-0.119
-357.596	-200.000	-0.032	-0.205
-356.581	-10.253	-0.277	-0.182
-355.566	418.195	0.061	-0.129
-354.552	-111.984	0.050	0.010
-353.537	-200.000	0.017	0.092
-352.523	-177.227	0.267	-0.007
-351.508	13.372	0.178	0.136
-350.493	-52.278	0.079	-0.036
-349.479	-200.000	0.008	-0.488
-348.464	-135.113	-0.149	-0.018
-347.450	-200.000	0.007	0.311
-346.435	800.000	-0.080	0.247
-345.420	800.000	-0.058	0.180
-344.406	-200.000	-0.017	-0.213
-343.391	523.468	-0.029	-0.068
-342.377	-51.108	0.213	-0.098
-341.362	7.447	-0.165	-0.122
-340.348	-98.081	0.247	0.063
-339.333	-149.352	-0.225	-0.018
-338.318	-128.643	0.216	-0.030
-337.304	-200.000	-0.012	-0.126
-336.289	8.544	-0.086	-0.064
-335.275	155.372	0.028	-0.038
-334.260	-24.541	0.226	0.133
-333.245	-16.728	0.223	0.139
-332.231	93.806	0.161	-0.180
-331.216	8.920	0.206	-0.153
-330.202	800.000	-0.097	0.274
-329.187	23.228	-0.135	0.109
-328.172	-96.627	-0.408	0.106
-327.158	309.260	0.107	-0.198
-326.143	-200.000	-0.008	0.040
-325.129	65.873	0.375	0.375
-324.114	-200.000	-0.025	-0.339
-323.099	247.028	0.272	-0.453
-322.085	-200.000	0.032	0.244
-321.070	-200.000	0.042	0.302
-320.056	184.268	0.206	-0.300
-319.041	-200.000	0.013	0.138
-318.026	-200.000	0.030	-0.208
-317.012	275.074	0.048	0.084
-315.997	-200.000	-0.031	0.294
-314.983	-200.000	0.012	-0.152
-313.968	16.867	0.103	-0.081
-312.953	-164.753	-0.120	-0.005
-311.939	-54.508	-0.271	-0.121
-310.924	-15.749	-0.006	-0.004
-309.910	-200.000	0.018	0.396
-308.895	-200.000	-0.020	-0.101
-307.880	-133.630	-0.187	0.023
-306.866	-200.000	0.412	0.002
-305.851	18.893	-0.122	0.096
-304.837	64.351	-0.245	-0.243
-303.822	115.233	0.158	0.191
-302.807	44.473	0.242	-0.219
-301.793	304.431	-0.049	-0.090
-300.778	-94.883	0.261	0.070
-299.764	800.000	-0.037	0.105
-298.749	-200.000	-0.001	-0.198
-297.735	-158.990	0.186	0.010
-296.720	-200.000	-0.025	-0.388
-295.705	-126.609	0.203	-0.030
-294.691	-200.000	0.043	0.294
-293.676	-200.000	-0.030	0.193
-292.662	-9.745	0.168	-0.110
-291.647	652.634	-0.015	-0.038
-290.632	203.721	0.164	-0.250
-289.618	-166.127	-0.071	0.003
-288.603	-112.484	0.295	-0.058
-287.589	-200.000	-0.003	0.391
-286.574	-72.070	0.195	-0.071
-285.559	365.607	-0.199	-0.395
-284.545	48.397	-0.153	0.141
-283.530	-4.268	0.109	0.074
-282.516	693.396	-0.037	-0.094
-281.501	90.884	0.037	0.040
-280.486	-13.863	0.104	-0.066
-279.472	-189.124	-0.189	0.002
-278.457	-9.302	-0.222	0.146
-277.443	687.577	0.026	0.066
-276.428	198.441	0.156	0.235
-275.413	-45.414	0.181	0.088
-274.399	-67.754	0.307	0.118
-273.384	218.166	-0.371	-0.582
-272.370	-200.000	0.012	-0.215
-271.355	-124.168	0.347	-0.053
-270.340	450.042	-0.067	0.145
-269.326	-200.000	-0.004	0.186
-268.311	-111.744	0.323	0.064
-267.297	-168.229	0.164	-0.006
-266.282	-200.000	0.051	-0.326
-265.267	-200.000	0.042	-0.214
-264.253	-111.118	0.094	-0.019
-263.238	9.778	-0.205	0.153
-262.224	-200.000	-0.008	0.049
-261.209	243.600	0.129	0.214
-260.195	800.000	-0.069	0.245
-259.180	800.000	-0.064	0.262
-258.165	279.723	0.042	0.073
-257.151	-108.137	0.178	-0.038
-256.136	-2.623	-0.131	-0.090
-255.122	-52.451	-0.262	0.119
-254.107	800.000	0.063	-0.270
-253.092	-115.744	0.119	0.022
-252.078	-74.979	-0.173	-0.061
-251.063	202.640	0.078	0.118
-250.049	247.383	-0.150	0.249
-249.034	800.000	-0.063	0.184
-248.019	-200.000	-0.013	0.252
-247.005	800.000	0.062	-0.206
-245.990	7.083	0.138	0.101
-244.976	-108.673	0.122	0.026
-243.961	-200.000	-0.029	0.157
-242.946	-103.276	0.074	-0.017
-241.932	-94.306	0.226	-0.061
-240.917	-32.150	0.170	-0.093
-239.903	-66.597	0.085	0.033
-238.888	91.056	-0.075	-0.082
-237.873	-105.714	0.251	0.056
-236.859	-15.557	0.205	0.129
-235.844	738.428	0.123	0.324
-234.830	205.852	0.032	0.048
-233.815	-105.328	0.180	0.040
-232.800	120.160	0.151	-0.184
-231.786	245.404	0.193	0.318
-230.771	-200.000	0.003	0.276
-229.757	-121.796	-0.335	-0.054
-228.742	-175.050	-0.081	0.002
-227.727	54.138	-0.166	0.157
-226.713	160.812	0.210	0.288
-225.698	-124.363	-0.197	0.030
-224.684	-200.000	0.023	0.390
-223.669	800.000	-0.038	-0.145
-222.655	-200.000	-0.013	-0.086
-221.640	103.973	-0.100	0.115
-220.625	136.362	0.176	0.226
-219.611	145.296	0.092	0.121
-218.596	-42.891	0.445	0.222
-217.582	504.567	-0.281	0.638
-216.567	-200.000	0.018	0.083
-215.552	800.000	0.056	0.166
-214.538	-173.447	0.145	-0.004
-213.523	-90.779	0.076	0.021
-212.509	-156.727	0.345	0.021
-211.494	-119.831	0.228	0.038
-210.479	7.034	-0.084	0.061
-209.465	-200.000	0.001	0.086
-208.450	485.262	0.040	-0.089
-207.436	37.372	0.164	-0.142
-206.421	-66.856	0.341	0.132
-205.406	-39.438	-0.133	-0.069
-204.392	-45.306	0.106	0.052
-203.377	384.108	-0.055	0.111
-202.363	125.844	-0.123	0.152
-201.348	-200.000	0.000	0.158
-200.333	80.842	0.091	0.096
-199.319	145.429	-0.157	-0.206
-198.304	299.500	-0.039	-0.071
-197.290	-114.200	-0.177	0.034
-196.275	-114.733	-0.465	-0.087
-195.260	-83.942	0.244	-0.076
-194.246	-53.606	-0.268	-0.120
-193.231	416.454	0.163	0.340
-192.217	-135.581	-0.212	0.025
-191.202	-200.000	0.003	-0.102
-190.187	179.964	0.226	-0.325
-189.173	56.414	0.023	0.022
-188.158	359.466	-0.158	0.309
-187.144	14.581	-0.096	-0.074
-186.129	193.205	0.208	-0.308
-185.114	520.497	-0.059	0.135
-184.100	138.110	-0.035	-0.044
-183.085	-125.260	0.249	0.037
-182.071	-173.408	-0.130	0.004
-181.056	-127.787	-0.215	0.030
-180.042	265.537	-0.064	0.109
-179.027	-141.852	-0.313	0.031
-178.012	187.083	-0.212	-0.310
-176.998	187.654	-0.092	-0.134
-175.983	-70.929	-0.254	0.094
-174.969	-200.000	-0.043	0.217
-173.954	-96.577	-0.123	0.032
-172.939	800.000	-0.107	-0.326
-171.925	-200.000	0.046	-0.248
-170.910	-98.022	0.164	-0.041
-169.896	-47.725	0.398	-0.189
-168.881	-197.716	-0.369	-0.002
-167.866	-200.000	-0.032	0.370
-166.852	-200.000	-0.065	-0.393
-165.837	-131.627	0.190	-0.024
-164.823	173.087	0.066	-0.093
-163.808	209.730	0.069	0.107
-162.793	-200.000	0.001	0.153
-161.779	27.434	-0.214	-0.176
-160.764	282.016	-0.097	0.170
-159.750	6.448	0.164	-0.119
-158.735	-200.000	0.005	-0.141
-157.720	-200.000	-0.002	-0.171
-156.706	-7.103	0.050	0.033
-155.691	-58.866	0.221	-0.094
-154.677	102.039	0.077	-0.088
-153.662	449.043	-0.155	-0.335
-152.647	-200.000	-0.001	0.045
-151.633	26.216	-0.135	0.110
-150.618	148.790	-0.201	0.266
-149.604	-117.542	0.137	0.024
-148.589	800.000	0.031	-0.130
-147.574	506.184	-0.166	-0.377
-146.560	269.760	0.099	0.170
-145.545	144.913	0.141	0.185
-144.531	447.238	0.048	-0.102
-143.516	-195.082	-0.121	-0.001
-142.502	-200.000	0.017	0.152
-141.487	-170.230	0.365	-0.013
-140.472	-122.302	-0.111	-0.018
-139.458	168.419	-0.109	0.152
-138.443	-4.403	0.142	0.096
-137.429	-80.344	-0.160	-0.052
-136.414	661.106	-0.093	0.235
-135.399	-91.481	0.385	0.107
-134.385	414.263	-0.043	-0.090
-133.370	62.143	0.088	-0.086
-132.356	147.475	-0.167	0.221
-131.341	-70.009	0.068	0.026
-130.326	-142.619	0.153	-0.015
-129.312	-103.349	-0.326	0.075
-128.297	800.000	0.073	0.301
-127.283	-12.902	-0.062	-0.039
-126.268	-11.088	0.234	-0.151
-125.253	4.513	-0.182	0.130
-124.239	-68.632	-0.266	-0.101
-123.224	-129.387	0.301	0.041
-122.210	-85.414	0.133	0.041
-121.195	-92.038	-0.300	-0.083
-120.180	-200.000	-0.108	-0.000
-119.166	85.224	-0.238	0.255
-118.151	-200.000	0.016	-0.223
-117.137	317.600	-0.099	-0.183
-116.122	-72.624	-0.299	-0.108
-115.107	-52.574	0.104	0.047
-114.093	175.070	-0.303	-0.429
-113.078	-63.982	-0.395	-0.158
-112.064	-8.662	0.265	-0.174
-111.049	106.401	-0.118	0.137
-110.034	711.126	-0.048	-0.125
-109.020	-159.075	0.344	-0.019
-108.005	-200.000	0.052	0.230
-106.991	800.000	-0.087	0.238
-105.976	800.000	0.065	-0.222
-104.962	-39.974	0.093	0.048
-103.947	-184.170	-0.203	0.003
-102.932	-25.027	0.055	0.032
-101.918	-60.290	-0.166	0.069
-100.903	401.696	0.111	-0.228
-99.889	-170.843	-0.275	0.009
-98.874	-27.324	-0.480	0.273
-97.859	-63.357	0.349	0.141
-96.845	21.870	0.145	0.116
-95.830	648.296	-0.076	0.190
-94.816	-41.600	-0.246	0.123
-93.801	-25.653	-0.112	-0.065
-92.786	-187.222	0.179	-0.002
-91.772	5.076	-0.115	0.082
-90.757	191.009	0.274	0.402
-89.743	-96.845	0.080	-0.021
-88.728	-76.160	-0.020	-0.007
-87.713	-103.702	-0.074	-0.017
-86.699	800.000	-0.047	0.196
-85.684	-200.000	0.022	0.107
-84.670	-49.275	0.339	0.158
-83.655	108.307	0.137	0.160
-82.640	3.504	-0.206	0.147
-81.626	-200.000	-0.010	0.425
-80.611	-200.000	-0.007	0.185
-79.597	-175.138	0.175	-0.005
-78.582	-200.000	0.005	-0.193
-77.567	800.000	-0.091	0.315
-76.553	-200.000	-0.056	0.402
-75.538	539.679	0.100	-0.232
-74.524	-45.949	0.240	0.116
-73.509	142.236	0.105	0.136
-72.494	114.294	-0.098	0.116
-71.480	163.193	-0.102	0.140
-70.465	-200.000	-0.013	0.067
-69.451	108.007	-0.168	-0.196
-68.436	318.324	0.069	-0.128
-67.422	121.133	-0.143	0.173
-66.407	800.000	0.082	0.303
-65.392	-200.000	0.035	0.207
-64.378	-144.270	0.187	0.017
-63.363	-5.061	-0.177	0.119
-62.349	-19.972	0.240	0.145
-61.334	20.935	-1.329	-1.051
-60.319	-36.690	0.679	0.356
-59.305	225.314	-0.811	-1.282
-58.290	184.591	0.971	1.404
-57.276	767.284	0.581	1.542
-56.261	-200.000	127.399	671.845
-55.246	412.724	1599.968	3317.372
-54.232	139.315	2754.414	3535.245
-53.217	95.540	2157.114	2400.000
-52.203	34.412	1588.981	1352.902
-51.188	26.230	1333.220	1086.131
-50.173	23.676	1295.729	1040.601
-49.159	51.695	1365.885	1267.040
-48.144	48.426	1376.550	1257.207
-47.130	26.423	1324.148	1079.724
-46.115	23.130	1305.280	1044.881
-45.100	22.911	1300.300	1039.565
-44.086	22.890	1297.553	1037.203
-43.071	22.904	1295.287	1035.432
-42.057	22.813	1293.519	1033.444
-41.042	22.861	1291.663	1032.204
-40.027	22.800	1290.417	1030.809
-39.013	22.887	1288.368	1029.639
-37.998	22.858	1286.479	1027.920
-36.984	22.963	1284.745	1027.104
-35.969	23.004	1283.034	1025.935
-34.954	23.041	1281.226	1024.661
-33.940	22.941	1280.240	1023.253
-32.925	22.902	1278.908	1021.921
-31.911	22.915	1277.609	1020.918
-30.896	23.086	1275.899	1020.497
-29.881	23.139	1274.397	1019.563
-28.867	23.145	1273.022	1018.458
-27.852	23.009	1272.134	1016.922
-26.838	23.058	1270.359	1015.746
-25.823	23.089	1269.473	1015.172
-24.809	23.068	1267.955	1013.801
-23.794	23.108	1266.338	1012.694
-22.779	23.024	1265.462	1011.476
-21.765	22.998	1264.233	1010.301
-20.750	22.983	1262.942	1009.145
-19.736	22.991	1261.452	1007.962
-18.721	22.953	1260.078	1006.605
-17.706	22.893	1259.311	1005.614
-16.692	22.961	1258.133	1005.018
-15.677	22.875	1257.192	1003.737
-14.663	22.883	1255.746	1002.590
-13.648	22.844	1254.996	1001.729
-12.633	22.960	1253.735	1001.340
-11.619	22.901	1253.417	1000.712
-10.604	22.819	1252.949	999.833
-9.590	22.807	1251.487	998.563
-8.575	22.905	1250.399	998.206
-7.560	22.859	1249.507	997.194
-6.546	22.944	1248.539	996.861
-5.531	22.806	1248.514	996.025
-4.517	22.892	1247.649	995.782
-3.502	22.921	1246.761	995.197
-2.487	22.883	1245.381	993.842
-1.473	22.845	1240.973	990.069
-0.458	21.330	1226.365	969.972
0.556	16.220	1211.540	933.642
1.571	12.711	1220.034	920.523
2.586	12.216	1235.154	929.046
3.600	12.198	1222.752	919.536
4.615	8.817	1151.730	848.174
5.629	2.931	1081.648	767.165
6.644	0.365	1065.055	742.699
7.659	0.139	1063.716	740.589
8.673	0.092	1062.764	739.626
9.688	0.074	1061.186	738.378
10.702	0.257	1058.667	737.455
11.717	3.849	1062.588	757.747
12.731	10.715	1071.750	798.052
13.746	15.544	1078.001	826.453
14.761	16.662	1079.259	832.845
15.775	16.040	1077.485	828.348
16.790	15.139	1075.306	822.180
17.804	14.340	1074.157	817.306
18.819	13.887	1073.176	814.266
19.834	13.733	1072.155	812.669
20.848	13.555	1071.073	810.905
21.863	13.258	1070.436	808.898
22.877	13.216	1069.206	807.692
23.892	13.262	1068.727	807.484
24.907	13.075	1068.094	806.022
25.921	13.149	1066.994	805.477
26.936	13.245	1066.344	805.383
27.950	13.150	1065.266	804.038
28.965	13.312	1064.103	803.875
29.980	13.430	1063.044	803.576
30.994	13.366	1061.706	802.184
32.009	13.370	1061.148	801.714
33.023	13.363	1060.033	800.764
34.038	13.419	1058.711	799.967
35.053	13.333	1058.365	799.215
36.067	13.311	1057.334	798.262
37.082	13.348	1056.087	797.431
38.096	13.346	1055.463	796.879
39.111	13.352	1054.761	796.308
40.126	13.049	1054.206	794.357
41.140	13.209	1052.645	793.879
42.155	13.126	1051.271	792.374
43.169	13.146	1050.492	791.815
44.184	13.087	1049.545	790.747
45.199	13.141	1048.440	790.103
46.213	13.180	1047.299	789.362
47.228	13.252	1046.276	788.862
48.242	13.182	1045.595	787.949
49.257	13.254	1044.318	787.255
50.271	13.220	1043.276	786.241
51.286	13.345	1042.731	786.356
52.301	13.220	1041.833	785.012
53.315	13.206	1040.738	784.051
54.330	13.090	1040.034	782.904
55.344	13.170	1038.774	782.264
56.359	13.200	1037.652	781.491
57.374	13.137	1037.020	780.647
58.388	13.192	1036.002	780.071
59.403	13.021	1035.662	778.943
60.417	13.117	1034.473	778.430
61.432	13.100	1033.756	777.741
62.447	13.029	1033.085	776.832
63.461	13.042	1032.446	776.348
64.476	13.044	1031.484	775.562
65.490	13.090	1030.272	774.800
66.505	13.206	1029.494	774.691
67.520	13.183	1028.833	774.015
68.534	13.035	1028.602	773.082
69.549	13.095	1027.574	772.519
70.563	13.020	1027.084	771.733
71.578	13.128	1025.842	771.237
72.593	12.971	1025.505	770.182
73.607	13.040	1024.610	769.765
74.622	12.963	1023.835	768.753
75.636	13.065	1022.996	768.532
76.651	12.993	1022.586	767.820
77.666	13.098	1021.610	767.505
78.680	13.035	1021.385	766.977
79.695	12.976	1020.319	765.834
80.709	13.183	1019.209	765.894
81.724	13.153	1019.361	765.802
82.739	13.063	1018.521	764.683
83.753	13.157	1017.219	764.074
84.768	13.332	1016.482	764.262
85.782	13.395	1014.937	763.322
86.797	13.366	1014.555	762.837
87.812	13.187	1013.974	761.508
88.826	13.171	1012.687	760.398
89.841	13.241	1011.886	760.049
90.855	13.352	1010.857	759.721
91.870	13.353	1010.008	759.021
92.884	13.416	1009.212	758.644
93.899	13.403	1008.506	757.988
94.914	13.400	1007.598	757.225
95.928	13.438	1007.086	756.947
96.943	13.304	1006.533	755.851
97.957	13.418	1004.776	754.985
98.972	13.258	1004.397	753.902
99.987	13.288	1003.236	753.102
101.001	13.326	1002.376	752.564
102.016	13.294	1001.805	751.921
103.030	13.255	1001.220	751.240
104.045	13.268	1000.104	750.395
105.060	13.291	999.456	749.947
106.074	13.282	998.258	748.941
107.089	13.190	997.389	747.804
108.103	13.178	996.696	747.164
109.118	13.164	995.713	746.301
110.133	13.225	994.849	745.861
111.147	13.217	993.482	744.733
112.162	13.205	992.983	744.238
113.176	13.275	991.818	743.614
114.191	13.229	991.325	742.972
115.206	13.284	990.593	742.605
116.220	13.334	989.826	742.188
117.235	13.282	988.857	741.165
118.249	13.228	988.123	740.308
119.264	13.281	987.607	740.094
120.279	13.260	986.280	738.938
121.293	13.286	985.283	738.242
122.308	13.243	984.945	737.732
123.322	13.302	983.584	736.911
124.337	13.325	982.639	736.237
125.352	13.151	982.046	734.954
126.366	13.244	980.740	734.327
127.381	13.197	979.831	733.372
128.395	13.103	978.677	732.028
129.410	13.351	977.467	732.156
130.424	13.377	976.843	731.740
131.439	13.331	976.187	730.980
132.454	13.286	975.665	730.323
133.468	13.245	974.993	729.576
134.483	13.269	973.898	728.796
135.497	13.379	973.006	728.548
136.512	13.167	972.342	727.057
137.527	13.243	971.476	726.679
138.541	13.408	970.449	726.567
139.556	13.340	970.279	726.080
140.570	13.294	969.535	725.257
141.585	13.435	968.001	724.660
142.600	13.433	967.629	724.309
143.614	13.508	966.719	723.892
144.629	13.425	966.289	723.146
145.643	13.452	964.982	722.223
146.658	13.380	964.154	721.223
147.673	13.394	963.210	720.515
148.687	13.326	962.389	719.541
149.702	13.467	961.448	719.384
150.716	13.285	961.432	718.521
151.731	13.485	960.019	718.269
152.746	13.492	959.370	717.750
153.760	13.529	958.733	717.370
154.775	13.429	958.486	716.689
155.789	13.506	957.657	716.336
156.804	13.543	957.096	716.013
157.819	13.569	956.145	715.354
158.833	13.643	955.328	714.997
159.848	13.588	954.398	714.000
160.862	13.599	953.402	713.241
161.877	13.565	952.856	712.620
162.892	13.581	951.850	711.874
163.906	13.486	950.891	710.686
164.921	13.522	949.813	709.971
165.935	13.553	949.046	709.469
166.950	13.513	948.296	708.675
167.964	13.648	947.234	708.396
168.979	13.570	946.518	707.463
169.994	13.692	945.439	707.115
171.008	13.502	944.954	705.882
172.023	13.694	944.089	705.987
173.037	13.721	943.480	705.585
174.052	13.777	942.579	705.087
175.067	13.743	942.402	704.751
176.081	13.625	941.624	703.602
177.096	13.756	941.261	703.828
178.110	13.638	940.454	702.660
179.125	13.716	940.065	702.637
180.140	13.638	939.833	702.070
181.154	13.826	938.630	701.905
182.169	13.842	938.104	701.519
183.183	13.908	937.455	701.251
184.198	13.978	936.694	700.913
185.213	13.951	936.100	700.295
186.227	13.857	935.715	699.548
187.242	13.930	934.606	698.963
188.256	13.868	934.317	698.425
189.271	13.927	933.204	697.780
190.286	13.673	932.734	696.301
191.300	13.764	931.810	695.928
192.315	13.882	931.133	695.858
193.329	13.716	930.847	694.884
194.344	13.762	930.243	694.566
195.359	13.776	929.788	694.222
196.373	13.902	928.726	693.896
197.388	14.044	928.230	694.059
198.402	14.083	927.874	693.893
199.417	14.089	926.861	693.097
200.432	14.145	926.220	692.793
201.446	14.192	925.922	692.704
202.461	14.216	925.525	692.442
203.475	14.015	925.261	691.349
204.490	13.972	924.423	690.481
205.504	13.974	923.443	689.700
206.519	13.907	923.268	689.230
207.534	14.011	921.893	688.570
208.548	14.102	921.369	688.498
209.563	14.138	920.720	688.098
210.577	14.067	920.127	687.300
211.592	14.143	919.478	687.071
212.607	14.065	918.924	686.273
213.621	14.204	917.871	686.001
214.636	14.220	917.029	685.374
215.650	14.340	916.364	685.309
216.665	14.333	915.482	684.564
217.680	14.357	914.922	684.183
218.694	14.385	914.270	683.751
219.709	14.316	913.869	683.104
220.723	14.306	913.226	682.522
221.738	14.374	912.440	682.152
222.753	14.289	912.103	681.493
223.767	14.395	911.456	681.383
224.782	14.479	910.469	680.927
225.796	14.539	909.855	680.653
226.811	14.366	909.689	679.763
227.826	14.412	909.033	679.401
228.840	14.522	908.040	679.048
229.855	14.385	907.359	677.919
230.869	14.547	906.445	677.833
231.884	14.562	905.597	677.200
232.899	14.449	905.183	676.374
233.913	14.468	904.361	675.776
234.928	14.368	904.161	675.160
235.942	14.477	903.300	674.902
236.957	14.604	902.422	674.697
237.972	14.427	902.086	673.672
238.986	14.449	901.254	673.082
240.001	14.397	900.624	672.341
241.015	14.401	900.406	672.134
242.030	14.576	899.714	672.263
243.045	14.558	899.241	671.778
244.059	14.709	898.089	671.466
245.074	14.653	897.668	670.865
246.088	14.573	897.321	670.224
247.103	14.611	896.551	669.744
248.117	14.577	896.168	669.262
249.132	14.784	895.390	669.452
250.147	14.887	894.574	669.195
251.161	14.926	893.839	668.741
252.176	14.754	893.691	667.885
253.190	14.845	892.511	667.307
254.205	14.744	892.114	666.548
255.220	14.898	891.283	666.480
256.234	15.044	890.369	666.320
257.249	15.012	889.910	665.790
258.263	14.960	889.312	665.078
259.278	15.017	888.734	664.812
260.293	15.041	888.171	664.427
261.307	15.174	887.321	664.262
262.322	15.083	886.651	663.340
263.336	15.066	886.016	662.739
264.351	15.133	885.321	662.424
265.366	15.245	884.584	662.258
266.380	15.302	883.814	661.848
267.395	15.091	883.297	660.569
268.409	15.250	882.235	660.345
269.424	15.239	881.655	659.806
270.439	15.070	881.545	659.001
271.453	15.120	880.558	658.403
272.468	14.951	879.936	657.213
273.482	15.071	879.471	657.282
274.497	15.153	878.716	656.978
275.512	15.280	877.889	656.801
276.526	15.140	877.859	656.172
277.541	15.307	877.110	656.209
278.555	15.414	876.561	656.159
279.570	15.346	876.073	655.469
280.585	15.412	874.625	654.584
281.599	15.341	874.662	654.277
282.614	15.388	873.654	653.650
283.628	15.422	873.036	653.259
284.643	15.352	872.912	652.835
285.657	15.406	872.106	652.387
286.672	15.467	871.418	652.051
287.687	15.419	870.660	651.242
288.701	15.419	870.491	651.058
289.716	15.372	869.658	650.194
290.730	15.610	868.833	650.439
291.745	15.597	868.055	649.751
292.760	15.480	867.779	649.033
293.774	15.445	867.231	648.430
294.789	15.652	866.327	648.497
295.803	15.549	865.846	647.681
296.818	15.596	865.006	647.176
297.833	15.557	864.416	646.528
298.847	15.486	863.748	645.701
299.862	15.703	863.296	646.137
300.876	15.619	863.003	645.540
301.891	15.618	862.140	644.832
302.906	15.550	861.846	644.295
303.920	15.718	861.403	644.549
304.935	15.799	860.630	644.226
305.949	15.814	860.040	643.782
306.964	15.774	859.126	642.889
307.979	15.796	858.562	642.496
308.993	15.790	858.046	642.027
310.008	15.916	857.075	641.724
311.022	15.740	857.437	641.269
312.037	15.908	856.210	640.936
313.052	15.787	855.883	640.170
314.066	15.864	855.269	639.949
315.081	15.781	854.743	639.182
316.095	15.771	853.970	638.513
317.110	15.780	853.603	638.216
318.125	15.837	853.263	638.119
319.139	15.956	852.524	637.960
320.154	15.888	852.266	637.455
321.168	15.826	851.675	636.720
322.183	15.977	850.832	636.607
323.197	15.879	850.810	636.162
324.212	15.986	849.909	635.834
325.227	16.003	849.457	635.506
326.241	15.939	848.692	634.637
327.256	16.083	847.983	634.593
328.270	15.979	847.655	633.901
329.285	15.929	846.906	633.096
330.300	16.102	846.361	633.280
331.314	16.000	846.205	632.726
332.329	16.062	845.677	632.506
333.343	16.195	845.203	632.594
334.358	16.068	844.880	631.821
335.373	16.139	844.188	631.515
336.387	16.205	844.014	631.576
337.402	16.000	843.786	630.582
338.416	16.191	843.727	631.196
339.431	16.229	843.049	630.774
340.446	16.201	842.713	630.364
341.460	16.222	842.763	630.424
342.475	16.206	842.238	629.915
343.489	16.303	841.515	629.679
344.504	16.426	840.936	629.650
345.519	16.435	840.143	629.034
346.533	16.394	839.676	628.476
347.548	16.228	839.780	627.880
348.562	16.282	838.795	627.288
349.577	16.316	838.180	626.899
350.592	16.193	837.788	626.093
351.606	16.325	837.049	625.976
352.621	16.436	836.312	625.783
353.635	16.381	835.754	625.106
354.650	16.247	835.360	624.260
355.665	16.474	834.508	624.407
356.679	16.501	833.664	623.818
357.694	16.474	833.356	623.435
358.708	16.467	832.577	622.769
359.723	16.521	831.835	622.359
360.738	16.437	831.691	621.886
361.752	16.545	830.781	621.546
362.767	16.619	830.208	621.338
363.781	16.650	829.577	620.922
364.796	16.692	829.334	620.841
365.810	16.740	828.866	620.612
366.825	16.768	828.717	620.546
367.840	16.601	828.508	619.722
368.854	16.608	827.733	619.116
369.869	16.759	827.131	619.163
370.883	16.804	826.721	618.965
371.898	16.806	826.366	618.651
372.913	16.881	825.802	618.448
373.927	16.969	825.134	618.212
374.942	16.834	825.035	617.593
375.956	16.970	824.057	617.301
376.971	16.931	824.324	617.305
377.986	17.198	823.102	617.307
379.000	17.020	823.148	616.639
380.015	16.951	822.670	615.974
381.029	17.085	822.057	615.946
382.044	16.981	821.556	615.140
383.059	17.131	820.667	614.962
384.073	17.082	820.451	614.572
385.088	17.073	819.808	614.003
386.102	17.026	819.261	613.369
387.117	16.948	818.756	612.655
388.132	16.873	818.343	612.021
389.146	16.991	818.010	612.143
390.161	17.021	817.504	611.818
391.175	17.018	816.596	611.071
392.190	17.037	816.240	610.819
393.205	17.077	815.731	610.529
394.219	16.897	815.639	609.758
395.234	17.117	814.592	609.712
396.248	16.920	814.530	608.905
397.263	17.062	814.022	608.982
398.278	17.059	813.861	608.796
399.292	17.030	813.510	608.376
400.307	17.060	812.869	607.948
401.321	17.008	812.204	607.213
402.336	17.216	811.712	607.533
403.350	17.110	811.296	606.793
404.365	17.228	810.622	606.655
405.380	17.236	810.364	606.435
406.394	17.407	809.711	606.504
407.409	17.363	809.363	606.031
408.423	17.401	809.152	605.957
409.438	17.483	808.916	606.020
410.453	17.534	808.286	605.675
411.467	17.293	808.280	604.759
412.482	17.424	807.480	604.570
413.496	17.555	806.998	604.624
414.511	17.474	807.060	604.327
415.526	17.527	806.746	604.227
416.540	17.451	805.904	603.273
417.555	17.527	805.091	602.880
418.569	17.536	805.144	602.899
419.584	17.685	804.617	602.979
420.599	17.580	804.064	602.141
421.613	113.918	1299.476	1488.088
422.628	98.299	1371.627	1488.150
