DTS Sentinel unit serial number:	SN413079Multiplexer serial number:	ORYXHardware model number:	OX4-SRSoftware version number:	ORYX F/W v4.00 Oryx Data Collector v3.7.2.0data status	okinstallation	princeton_trtdifferential loss correction	single-endedforward channel	channel 1reverse channel	N/Adate	2019/09/18time	23:22:35forward acquisition time	60.00reverse acquisition time	0.00gamma	496.2192k internal	0.2341k external	0.2341temperature offset calibration	1.0021default loss term (dB/km)	0.3790temperature slope calibration	1.0000multiplexer offset coefficient	1.0000multiplexer slope coefficient	1.0000fibre end	0.00T internal ref (°C)	23.81T ext. ref 1 (°C)	0.77T ext. ref 2 (°C)	16.96length (m)	temperature (°C)	Stokes	anti-Stokes-747.200	176.891	-0.202	0.295
-746.185	679.286	0.034	-0.088
-745.171	-83.688	-0.148	0.047
-744.156	13.046	-0.250	0.194
-743.142	678.692	-0.151	0.392
-742.127	19.913	-0.102	0.083
-741.112	281.799	-0.140	-0.251
-740.098	-77.529	-0.118	-0.041
-739.083	184.641	0.087	0.129
-738.069	89.121	-0.203	0.227
-737.054	800.000	0.062	0.191
-736.039	800.000	-0.025	0.090
-735.025	-200.000	-0.033	0.245
-734.010	150.693	0.214	-0.291
-732.996	-113.364	-0.216	-0.043
-731.981	5.512	-0.190	-0.141
-730.966	406.388	0.190	-0.402
-729.952	-50.832	-0.264	-0.124
-728.937	-115.626	-0.227	0.043
-727.923	-98.787	0.141	-0.036
-726.908	38.192	-0.160	-0.143
-725.894	212.103	-0.282	0.445
-724.879	171.332	-0.130	0.186
-723.864	259.573	0.127	-0.220
-722.850	-91.942	-0.390	0.111
-721.835	-81.537	-0.358	0.118
-720.821	-35.099	0.281	-0.153
-719.806	-200.000	0.007	-0.224
-718.791	-150.838	-0.122	-0.009
-717.777	-134.135	0.311	0.038
-716.762	800.000	0.076	0.234
-715.748	-200.000	0.022	-0.269
-714.733	47.533	-0.205	-0.192
-713.718	11.952	-0.080	-0.062
-712.704	51.058	0.008	0.008
-711.689	3.735	-0.240	-0.175
-710.675	21.869	-0.136	-0.111
-709.660	35.322	-0.124	-0.109
-708.645	594.902	-0.030	0.075
-707.631	-84.246	-0.260	-0.082
-706.616	231.405	-0.126	0.207
-705.602	303.676	-0.034	0.062
-704.587	-200.000	0.019	-0.166
-703.572	-200.000	0.012	-0.449
-702.558	-143.924	0.086	0.008
-701.543	-91.771	0.364	-0.103
-700.529	-105.945	-0.459	0.103
-699.514	36.301	-0.226	0.199
-698.499	-93.575	-0.353	0.098
-697.485	40.073	-0.214	0.192
-696.470	-65.422	-0.146	-0.059
-695.456	61.973	-0.117	-0.117
-694.441	-50.369	0.217	-0.103
-693.426	-200.000	-0.061	-0.280
-692.412	-200.000	-0.003	-0.030
-691.397	800.000	0.101	-0.324
-690.383	2.118	-0.123	0.089
-689.368	9.982	-0.108	0.082
-688.354	181.854	-0.087	0.128
-687.339	-19.230	0.046	-0.029
-686.324	-64.142	-0.164	0.067
-685.310	800.000	0.114	-0.372
-684.295	66.923	-0.029	0.029
-683.281	-200.000	0.011	0.587
-682.266	139.259	-0.269	0.354
-681.251	64.635	-0.121	-0.122
-680.237	-153.536	0.384	0.027
-679.222	-200.000	-0.033	-0.162
-678.208	282.031	-0.090	-0.162
-677.193	-49.374	-0.367	-0.175
-676.178	-3.434	-0.242	0.168
-675.164	476.352	-0.028	-0.063
-674.149	7.664	-0.210	0.157
-673.135	-200.000	0.019	-0.205
-672.120	-138.834	-0.130	-0.014
-671.105	129.630	-0.185	0.236
-670.091	-200.000	0.052	-0.281
-669.076	-75.582	-0.182	0.065
-668.062	211.136	0.029	0.045
-667.047	-37.614	-0.114	-0.060
-666.032	-38.711	-0.120	-0.063
-665.018	-148.084	-0.188	-0.016
-664.003	-200.000	-0.002	-0.078
-662.989	-156.888	-0.370	0.023
-661.974	87.415	0.061	-0.068
-660.959	-40.428	0.216	0.112
-659.945	-114.461	-0.218	-0.042
-658.930	160.730	-0.132	0.184
-657.916	-200.000	-0.022	-0.146
-656.901	76.458	0.186	-0.197
-655.886	800.000	-0.129	-0.423
-654.872	-200.000	-0.004	-0.074
-653.857	319.385	-0.030	0.058
-652.843	323.967	0.146	0.278
-651.828	800.000	-0.123	0.500
-650.814	-200.000	0.032	0.168
-649.799	41.473	-0.205	-0.186
-648.784	-62.441	-0.126	-0.052
-647.770	324.067	0.143	0.273
-646.755	55.947	-0.162	-0.157
-645.741	165.033	-0.201	0.283
-644.726	-12.240	0.030	0.020
-643.711	362.574	-0.083	0.166
-642.697	285.763	-0.103	0.186
-641.682	-200.000	0.003	0.053
-640.668	-200.000	0.069	-0.306
-639.653	96.822	0.236	-0.270
-638.638	36.793	0.093	-0.082
-637.624	55.657	0.208	-0.202
-636.609	-78.098	-0.134	0.046
-635.595	-200.000	0.012	-0.178
-634.580	-48.409	-0.213	0.102
-633.565	205.454	0.083	-0.129
-632.551	369.221	0.013	0.027
-631.536	-44.600	0.057	0.028
-630.522	-38.388	0.277	-0.146
-629.507	143.893	-0.074	0.098
-628.492	-200.000	-0.043	-0.223
-627.478	81.542	-0.123	0.133
-626.463	270.326	-0.091	0.159
-625.449	103.711	-0.030	0.035
-624.434	-200.000	0.018	-0.174
-623.419	268.023	0.175	0.305
-622.405	-38.147	0.086	-0.045
-621.390	-118.504	-0.162	-0.029
-620.376	800.000	-0.024	-0.083
-619.361	-69.127	0.091	0.035
-618.346	-57.013	-0.322	-0.142
-617.332	320.273	-0.009	-0.017
-616.317	-17.565	0.318	-0.199
-615.303	92.928	0.182	0.205
-614.288	-200.000	0.054	-0.283
-613.273	-140.621	0.085	-0.009
-612.259	361.639	-0.157	0.314
-611.244	-145.422	-0.051	0.005
-610.230	-160.383	-0.565	0.030
-609.215	-200.000	-0.032	0.188
-608.201	31.471	-0.128	0.110
-607.186	-125.072	0.045	-0.007
-606.171	15.851	0.192	0.151
-605.157	362.359	0.149	0.299
-604.142	-181.297	-0.256	0.005
-603.128	800.000	-0.120	-0.501
-602.113	-19.323	-0.270	0.167
-601.098	800.000	0.067	-0.239
-600.084	18.595	-0.043	-0.035
-599.069	439.453	0.098	-0.214
-598.055	-151.589	0.292	0.022
-597.040	-200.000	-0.026	-0.191
-596.025	216.125	0.167	0.265
-595.011	-43.983	-0.031	0.015
-593.996	-153.694	-0.128	-0.009
-592.982	-90.651	-0.116	-0.033
-591.967	800.000	-0.066	-0.183
-590.952	-94.951	-0.182	0.049
-589.938	361.434	-0.090	0.179
-588.923	295.268	0.084	0.154
-587.909	-108.175	0.061	0.013
-586.894	-18.202	0.268	0.167
-585.879	-49.292	0.114	-0.054
-584.865	-200.000	0.006	0.137
-583.850	800.000	-0.054	-0.181
-582.836	800.000	-0.066	0.202
-581.821	20.585	0.175	0.141
-580.806	-14.794	-0.051	0.033
-579.792	-18.103	-0.412	0.257
-578.777	189.569	0.113	-0.168
-577.763	-61.991	-0.286	0.119
-576.748	-99.389	0.084	-0.021
-575.733	49.048	-0.104	0.097
-574.719	-142.622	-0.101	-0.010
-573.704	-33.985	0.201	-0.110
-572.690	157.540	-0.147	-0.203
-571.675	800.000	0.105	-0.294
-570.661	378.964	0.108	0.219
-569.646	-20.930	-0.142	-0.087
-568.631	44.258	-0.283	-0.259
-567.617	-127.803	0.391	0.056
-566.602	-199.781	0.153	-0.001
-565.588	431.739	-0.103	-0.223
-564.573	-31.759	-0.234	-0.130
-563.558	95.252	0.242	0.275
-562.544	137.264	-0.152	0.197
-561.529	309.027	-0.128	-0.239
-560.515	-38.284	0.270	-0.142
-559.500	-200.000	-0.016	0.084
-558.485	-122.450	0.414	0.067
-557.471	-200.000	-0.019	-0.166
-556.456	-200.000	0.080	0.366
-555.442	-81.508	0.233	0.076
-554.427	316.914	0.105	-0.198
-553.412	800.000	0.072	0.271
-552.398	800.000	0.053	-0.208
-551.383	-47.540	0.153	0.074
-550.369	43.198	0.227	0.206
-549.354	-185.731	-0.269	-0.004
-548.339	800.000	0.051	0.144
-547.325	341.507	0.180	0.350
-546.310	-200.000	-0.004	-0.078
-545.296	-200.000	-0.026	-0.129
-544.281	156.609	0.116	-0.160
-543.266	6.802	-0.059	0.043
-542.252	58.367	-0.097	-0.094
-541.237	-36.029	-0.166	0.089
-540.223	401.066	0.037	0.076
-539.208	-22.149	0.411	-0.248
-538.193	33.036	-0.197	-0.170
-537.179	-147.694	0.255	0.021
-536.164	-131.361	-0.198	0.026
-535.150	-200.000	-0.029	-0.409
-534.135	-53.717	0.049	-0.022
-533.121	255.846	-0.116	0.198
-532.106	-98.088	-0.245	-0.063
-531.091	-176.682	-0.134	0.003
-530.077	-1.412	-0.280	0.196
-529.062	-84.336	0.091	0.029
-528.048	-200.000	-0.006	0.224
-527.033	-200.000	0.039	-0.246
-526.018	-71.265	-0.333	0.124
-525.004	337.482	0.068	0.131
-523.989	-83.308	0.103	-0.033
-522.975	222.660	-0.145	-0.232
-521.960	-117.504	0.572	0.103
-520.945	-100.671	-0.282	-0.069
-519.931	127.339	-0.054	0.068
-518.916	539.019	0.108	-0.254
-517.902	-190.455	0.177	0.002
-516.887	-115.723	-0.168	0.031
-515.872	-50.126	-0.129	0.061
-514.858	-141.771	-0.234	-0.023
-513.843	578.481	0.012	0.028
-512.829	-184.774	-0.028	0.000
-511.814	-160.149	0.179	0.010
-510.799	-200.000	-0.005	-0.071
-509.785	433.560	-0.016	0.035
-508.770	-200.000	-0.023	0.138
-507.756	277.875	0.040	0.071
-506.741	66.248	0.275	0.277
-505.726	-200.000	0.014	0.101
-504.712	113.267	-0.038	-0.046
-503.697	-161.775	-0.267	0.013
-502.683	-151.027	0.097	0.007
-501.668	-183.682	-0.054	-0.001
-500.653	92.536	-0.142	0.159
-499.639	-78.774	0.194	0.066
-498.624	106.486	-0.193	0.227
-497.610	189.449	-0.204	-0.303
-496.595	-15.464	0.338	-0.214
-495.581	-9.543	-0.433	-0.287
-494.566	-101.613	0.255	0.061
-493.551	-14.580	-0.070	0.044
-492.537	-200.000	0.007	0.371
-491.522	54.103	-0.253	0.241
-490.508	-200.000	0.032	0.348
-489.493	-94.267	-0.136	-0.037
-488.478	-200.000	-0.080	-0.363
-487.464	-37.765	-0.231	0.122
-486.449	503.719	0.132	-0.304
-485.435	627.922	-0.085	0.212
-484.420	-200.000	-0.020	0.118
-483.405	-127.352	-0.080	0.012
-482.391	220.929	0.167	-0.266
-481.376	709.899	0.030	-0.079
-480.362	498.741	-0.040	-0.091
-479.347	-200.000	0.001	0.007
-478.332	-200.000	0.035	0.278
-477.318	81.441	-0.259	-0.277
-476.303	-28.267	0.205	0.118
-475.289	-200.000	-0.033	-0.146
-474.274	317.336	-0.154	-0.289
-473.259	-103.241	-0.270	-0.063
-472.245	91.531	0.063	-0.070
-471.230	-200.000	-0.001	0.271
-470.216	-7.569	-0.191	-0.128
-469.201	641.403	-0.057	0.143
-468.186	-11.165	0.326	-0.213
-467.172	-52.970	0.206	-0.094
-466.157	800.000	0.034	0.093
-465.143	-42.093	0.030	0.015
-464.128	-151.463	-0.133	-0.010
-463.113	-200.000	0.009	-0.042
-462.099	-200.000	-0.011	0.107
-461.084	800.000	-0.140	0.413
-460.070	-86.881	0.289	0.087
-459.055	-126.016	-0.196	0.029
-458.040	115.833	-0.179	-0.217
-457.026	-38.242	-0.292	-0.153
-456.011	-200.000	0.033	0.315
-454.997	-94.956	-0.142	-0.038
-453.982	226.061	0.159	-0.255
-452.968	-65.679	0.407	-0.161
-451.953	33.005	-0.210	-0.180
-450.938	547.205	0.102	0.243
-449.924	67.134	-0.220	-0.222
-448.909	430.530	0.123	0.263
-447.895	-198.483	0.236	0.001
-446.880	-101.642	-0.119	-0.029
-445.865	-21.073	-0.253	0.153
-444.851	-200.000	0.039	0.214
-443.836	-200.000	-0.006	-0.451
-442.822	5.320	0.126	-0.092
-441.807	-200.000	0.021	0.231
-440.792	-200.000	-0.028	0.225
-439.778	-200.000	0.020	0.428
-438.763	800.000	-0.062	-0.195
-437.749	59.635	-0.092	-0.090
-436.734	800.000	-0.035	-0.114
-435.719	169.624	0.165	-0.233
-434.705	-98.790	-0.131	0.033
-433.690	-70.710	-0.494	-0.185
-432.676	430.030	0.157	-0.336
-431.661	317.281	0.128	0.239
-430.646	13.153	-0.241	0.185
-429.632	532.645	-0.072	-0.170
-428.617	-200.000	-0.044	-0.252
-427.603	-200.000	-0.010	-0.059
-426.588	-127.728	-0.533	-0.076
-425.573	337.867	-0.067	0.129
-424.559	800.000	0.077	0.325
-423.544	-10.795	0.286	-0.187
-422.530	-200.000	0.011	-0.060
-421.515	-200.000	-0.028	0.149
-420.500	-109.784	0.282	-0.059
-419.486	691.806	-0.060	-0.156
-418.471	-97.899	0.078	0.020
-417.457	-98.625	-0.177	-0.045
-416.442	-22.567	-0.335	0.200
-415.428	-169.162	-0.251	0.009
-414.413	-54.966	0.240	0.107
-413.398	-200.000	0.107	0.527
-412.384	-138.538	-0.321	0.035
-411.369	800.000	0.067	0.209
-410.355	107.178	0.119	-0.140
-409.340	443.105	-0.121	0.261
-408.325	27.989	-0.192	0.160
-407.311	-154.951	0.141	0.009
-406.296	800.000	-0.063	0.215
-405.282	-106.390	0.211	-0.047
-404.267	-45.739	-0.153	-0.075
-403.252	189.566	0.153	-0.227
-402.238	-120.935	0.045	-0.007
-401.223	-72.598	0.085	0.031
-400.209	-104.860	-0.160	-0.036
-399.194	-45.473	0.383	0.188
-398.179	-200.000	-0.011	-0.147
-397.165	-49.634	0.042	0.020
-396.150	-200.000	-0.031	-0.275
-395.136	-200.000	0.009	-0.295
-394.121	53.314	-0.206	-0.195
-393.106	-118.049	0.233	0.041
-392.092	18.056	0.316	-0.249
-391.077	-77.133	0.139	0.048
-390.063	501.875	-0.040	0.091
-389.048	251.706	0.087	0.147
-388.033	-200.000	0.008	-0.223
-387.019	-200.000	0.035	0.163
-386.004	-119.349	0.186	-0.032
-384.990	17.859	-0.104	0.082
-383.975	-200.000	0.050	-0.324
-382.960	-73.554	0.272	-0.098
-381.946	102.669	-0.195	-0.225
-380.931	-90.140	-0.120	0.034
-379.917	-37.056	0.053	0.028
-378.902	-164.749	-0.137	-0.006
-377.888	800.000	-0.098	-0.278
-376.873	-75.666	0.177	-0.062
-375.858	259.650	0.009	0.015
-374.844	-44.573	0.234	0.115
-373.829	-200.000	-0.028	-0.359
-372.815	187.757	-0.151	0.222
-371.800	266.142	0.188	0.325
-370.785	-60.353	-0.108	0.046
-369.771	800.000	0.105	-0.323
-368.756	-36.267	0.224	-0.119
-367.742	78.668	0.051	0.054
-366.727	66.154	-0.035	0.035
-365.712	-52.462	-0.408	-0.186
-364.698	513.989	0.057	0.131
-363.683	269.585	0.046	0.079
-362.669	-98.333	-0.163	-0.041
-361.654	430.030	-0.049	0.105
-360.639	46.942	0.273	0.250
-359.625	-54.936	-0.078	0.035
-358.610	-44.530	-0.146	0.072
-357.596	27.900	0.292	0.243
-356.581	-200.000	-0.072	0.376
-355.566	1.766	-0.107	0.076
-354.552	-13.934	-0.474	-0.302
-353.537	-129.995	-0.369	0.050
-352.523	736.364	0.037	0.097
-351.508	800.000	-0.051	0.191
-350.493	-200.000	-0.017	0.082
-349.479	98.158	0.117	-0.133
-348.464	-175.085	0.086	0.002
-347.450	-48.694	0.189	-0.090
-346.435	46.848	-0.079	-0.073
-345.420	17.498	-0.164	-0.129
-344.406	165.664	-0.070	0.098
-343.391	48.835	-0.113	0.105
-342.377	-179.774	-0.481	0.010
-341.362	-159.150	0.377	-0.021
-340.348	-25.394	-0.161	0.094
-339.333	-200.000	-0.023	0.195
-338.318	-56.645	-0.291	-0.127
-337.304	-13.052	0.057	0.036
-336.289	64.616	-0.173	-0.172
-335.275	133.471	-0.155	-0.198
-334.260	-44.155	0.343	-0.170
-333.245	-123.801	0.138	-0.022
-332.231	800.000	0.096	-0.314
-331.216	-20.271	0.102	0.062
-330.202	-58.328	-0.091	0.039
-329.187	-14.351	-0.179	-0.114
-328.172	76.599	0.145	-0.152
-327.158	64.231	0.216	0.215
-326.143	800.000	-0.069	0.205
-325.129	18.198	0.202	-0.159
-324.114	51.648	-0.041	-0.039
-323.099	59.622	-0.244	0.238
-322.085	128.594	0.283	0.356
-321.070	-200.000	0.011	-0.070
-320.056	-45.105	0.316	0.155
-319.041	42.986	-0.100	-0.090
-318.026	270.345	0.185	-0.320
-317.012	74.948	0.086	0.090
-315.997	-200.000	0.053	-0.295
-314.983	125.119	-0.085	-0.105
-313.968	-200.000	-0.047	-0.287
-312.953	-200.000	-0.030	0.218
-311.939	293.299	-0.117	0.210
-310.924	-186.155	0.374	-0.005
-309.910	327.159	0.129	0.243
-308.895	-200.000	-0.029	-0.146
-307.880	8.919	-0.207	0.154
-306.866	-76.176	-0.261	-0.091
-305.851	-200.000	-0.041	-0.233
-304.837	-75.225	0.117	0.041
-303.822	-142.938	0.146	-0.014
-302.807	-200.000	0.008	-0.071
-301.793	-24.293	0.276	0.162
-300.778	217.534	0.086	-0.136
-299.764	645.214	-0.080	-0.201
-298.749	-5.648	0.228	0.154
-297.735	-108.421	-0.197	-0.042
-296.720	-108.580	0.116	0.025
-295.705	522.175	0.173	0.400
-294.691	-145.056	-0.111	0.010
-293.676	181.347	-0.113	0.164
-292.662	81.805	-0.123	0.131
-291.647	-200.000	0.027	0.189
-290.632	90.586	-0.231	0.255
-289.618	22.568	-0.267	0.215
-288.603	-200.000	0.011	0.068
-287.589	-81.019	0.185	-0.060
-286.574	132.817	0.203	0.258
-285.559	-31.321	0.136	0.075
-284.545	202.958	0.139	-0.211
-283.530	-200.000	-0.014	-0.186
-282.516	-99.913	-0.168	-0.041
-281.501	-200.000	-0.017	0.084
-280.486	27.897	0.246	-0.204
-279.472	-52.572	0.174	-0.079
-278.457	612.987	0.022	-0.055
-277.443	-71.967	-0.189	-0.069
-276.428	107.905	0.108	-0.127
-275.413	-131.428	-0.281	-0.037
-274.399	270.046	-0.055	0.096
-273.384	-200.000	0.067	0.402
-272.370	800.000	0.035	-0.119
-271.355	-200.000	0.008	-0.062
-270.340	-83.041	-0.171	0.054
-269.326	-93.547	-0.208	0.057
-268.311	800.000	-0.064	-0.234
-267.297	-27.607	-0.141	-0.081
-266.282	-47.970	0.280	-0.133
-265.267	128.753	0.128	-0.160
-264.253	-76.072	0.220	0.076
-263.238	-200.000	-0.001	-0.017
-262.224	800.000	-0.029	0.091
-261.209	-137.949	0.498	0.055
-260.195	800.000	0.094	0.396
-259.180	97.431	-0.099	0.112
-258.165	283.438	-0.111	-0.196
-257.151	-200.000	0.037	-0.211
-256.136	800.000	-0.140	0.424
-255.122	-121.134	-0.319	0.053
-254.107	93.542	0.188	0.209
-253.092	59.290	-0.166	0.161
-252.078	367.143	-0.218	0.433
-251.063	-200.000	-0.056	0.290
-250.049	-200.000	0.015	0.175
-249.034	225.615	-0.144	-0.229
-248.019	257.592	0.078	0.131
-247.005	-200.000	0.011	-0.081
-245.990	-190.797	0.160	-0.002
-244.976	68.712	0.179	0.180
-243.961	-200.000	-0.000	-0.073
-242.946	144.686	0.255	-0.335
-241.932	-131.181	-0.353	-0.046
-240.917	12.684	0.308	-0.234
-239.903	31.816	-0.064	-0.054
-238.888	-12.372	-0.267	-0.172
-237.873	-145.556	-0.122	-0.011
-236.859	-26.520	0.042	0.024
-235.844	-200.000	-0.017	-0.147
-234.830	-80.046	0.124	-0.041
-233.815	-16.804	0.181	0.112
-232.800	-35.051	-0.302	0.162
-231.786	-13.419	-0.244	-0.155
-230.771	31.511	0.094	0.079
-229.757	305.516	-0.205	-0.374
-228.742	213.872	0.183	-0.285
-227.727	92.225	0.133	-0.147
-226.713	660.236	-0.093	0.235
-225.698	-200.000	0.035	-0.167
-224.684	-90.316	0.318	0.091
-223.669	513.155	0.097	0.222
-222.655	-79.742	0.128	0.042
-221.640	-44.988	0.215	-0.105
-220.625	800.000	0.060	0.184
-219.611	568.571	0.108	-0.258
-218.596	-200.000	-0.074	0.320
-217.582	-22.324	-0.157	0.093
-216.567	193.523	0.080	-0.118
-215.552	-200.000	0.004	0.145
-214.538	-17.186	-0.223	-0.138
-213.523	184.872	0.157	-0.228
-212.509	72.153	-0.261	-0.267
-211.494	-56.241	0.123	-0.054
-210.479	-137.891	0.118	0.013
-209.465	-72.677	0.201	-0.073
-208.450	800.000	0.069	-0.267
-207.436	-200.000	0.046	-0.454
-206.421	-103.060	0.214	0.050
-205.406	-200.000	0.000	0.139
-204.392	800.000	0.044	-0.130
-203.377	769.724	-0.042	0.111
-202.363	-200.000	-0.004	-0.137
-201.348	-157.578	0.043	-0.003
-200.333	178.305	-0.224	0.320
-199.319	-13.725	-0.027	0.017
-198.304	277.046	0.052	-0.091
-197.290	800.000	0.024	-0.070
-196.275	-89.445	0.016	-0.005
-195.260	-200.000	0.018	-0.243
-194.246	-200.000	0.016	-0.188
-193.231	-122.300	0.182	0.029
-192.217	558.482	0.075	-0.177
-191.202	-118.012	-0.290	0.051
-190.187	-142.712	0.379	0.036
-189.173	-91.623	0.137	0.038
-188.158	800.000	-0.189	-0.512
-187.144	51.450	0.243	0.226
-186.129	800.000	0.092	0.384
-185.114	428.787	-0.099	0.210
-184.100	-0.816	0.184	-0.128
-183.085	-200.000	-0.043	0.236
-182.071	-100.479	0.179	-0.043
-181.056	648.024	0.070	0.175
-180.042	99.604	0.153	0.173
-179.027	540.532	-0.200	0.466
-178.012	-200.000	-0.006	-0.097
-176.998	-151.722	0.115	0.008
-175.983	215.205	0.133	-0.208
-174.969	800.000	0.024	-0.093
-173.954	-200.000	0.020	0.160
-172.939	21.719	-0.202	-0.161
-171.925	209.467	-0.053	0.082
-170.910	-28.459	0.171	0.097
-169.896	195.358	-0.100	-0.150
-168.881	-200.000	-0.019	-0.307
-167.866	-200.000	-0.030	-0.137
-166.852	-5.238	0.080	-0.054
-165.837	-136.637	-0.231	0.026
-164.823	-152.715	0.138	0.010
-163.808	-124.298	-0.485	-0.074
-162.793	-186.082	-0.143	0.002
-161.779	352.889	-0.026	0.050
-160.764	-119.270	0.408	0.070
-159.750	-131.171	-0.113	-0.015
-158.735	19.760	0.451	-0.356
-157.720	-69.497	-0.301	0.113
-156.706	-103.075	0.061	0.014
-155.691	29.338	-0.062	0.052
-154.677	-136.354	0.089	-0.010
-153.662	70.917	0.231	0.234
-152.647	-200.000	0.053	-0.276
-151.633	-45.204	-0.184	0.090
-150.618	-145.577	0.199	0.017
-149.604	104.414	-0.005	0.006
-148.589	-169.259	0.427	0.015
-147.574	-200.000	0.027	-0.257
-146.560	-200.000	-0.030	-0.134
-145.545	25.391	0.081	-0.066
-144.531	-200.000	-0.013	0.176
-143.516	-200.000	0.035	-0.181
-142.502	218.285	0.190	-0.297
-141.487	3.190	-0.143	0.102
-140.472	-200.000	0.010	0.155
-139.458	-154.918	0.212	0.014
-138.443	74.864	-0.219	-0.225
-137.429	-29.433	0.193	0.108
-136.414	-52.304	-0.119	-0.054
-135.399	155.028	0.148	-0.199
-134.385	-62.699	0.112	-0.045
-133.370	-66.511	0.269	-0.105
-132.356	800.000	-0.181	0.648
-131.341	-152.570	-0.233	0.016
-130.326	800.000	0.095	-0.325
-129.312	-200.000	0.023	-0.221
-128.297	-147.441	-0.353	0.029
-127.283	800.000	0.034	-0.127
-126.268	-137.019	-0.297	0.033
-125.253	193.127	0.163	-0.241
-124.239	-200.000	-0.020	0.218
-123.224	41.397	0.092	0.082
-122.210	-133.044	0.005	-0.001
-121.195	69.403	0.054	-0.055
-120.180	25.763	-0.344	0.281
-119.166	-200.000	0.031	0.247
-118.151	-157.624	-0.330	0.019
-117.137	664.034	-0.146	0.368
-116.122	369.102	-0.093	-0.185
-115.107	-200.000	0.007	0.335
-114.093	-50.243	-0.170	0.078
-113.078	-43.441	-0.363	0.179
-112.064	-95.661	0.494	0.129
-111.049	-50.630	0.101	-0.046
-110.034	62.279	-0.125	0.122
-109.020	-200.000	0.010	-0.067
-108.005	37.617	0.399	0.346
-106.991	182.645	-0.280	0.404
-105.976	-112.556	-0.293	0.057
-104.962	-10.901	0.278	0.180
-103.947	-99.358	0.072	-0.018
-102.932	20.182	0.238	-0.188
-101.918	-112.946	-0.051	0.010
-100.903	-34.530	-0.307	0.164
-99.889	800.000	0.093	0.331
-98.874	-200.000	-0.029	0.196
-97.859	-17.915	0.128	0.079
-96.845	-25.842	0.169	-0.097
-95.830	800.000	0.029	-0.103
-94.816	-200.000	-0.080	-0.367
-93.801	273.782	-0.144	0.249
-92.786	27.056	0.346	0.283
-91.772	-16.308	0.007	0.005
-90.757	63.108	-0.044	-0.043
-89.743	-147.390	0.250	-0.021
-88.728	-31.309	0.176	0.097
-87.713	-112.638	0.288	-0.056
-86.699	-166.333	0.105	-0.004
-85.684	800.000	0.068	0.285
-84.670	47.646	0.212	0.193
-83.655	-103.756	-0.200	0.046
-82.640	-32.990	-0.195	0.106
-81.626	209.697	-0.181	0.277
-80.611	124.522	0.094	0.115
-79.597	23.072	0.096	-0.077
-78.582	114.417	0.184	-0.219
-77.567	335.022	0.209	-0.396
-76.553	-39.908	0.402	0.205
-75.538	-82.785	-0.282	0.089
-74.524	-77.678	0.072	-0.024
-73.509	119.669	0.138	0.167
-72.494	-45.520	0.405	0.196
-71.480	-39.561	-0.195	0.100
-70.465	403.031	-0.023	0.047
-69.451	-58.230	0.207	-0.088
-68.436	800.000	0.077	-0.223
-67.422	-28.203	0.172	0.097
-66.407	800.000	0.131	0.413
-65.392	-94.143	-0.352	0.094
-64.378	130.304	0.089	0.112
-63.363	52.379	-0.212	-0.197
-62.349	104.701	0.308	0.354
-61.334	64.776	-1.071	-1.054
-60.319	39.630	0.568	0.497
-59.305	361.372	-0.572	-1.119
-58.290	800.000	0.417	1.541
-57.276	-200.000	0.257	1.186
-56.261	-200.000	124.279	665.973
-55.246	435.585	1555.587	3301.435
-54.232	145.786	2705.975	3538.130
-53.217	98.690	2145.899	2414.844
-52.203	35.521	1584.292	1356.720
-51.188	27.065	1329.364	1087.972
-50.173	24.562	1291.133	1042.059
-49.159	52.714	1360.599	1268.151
-48.144	49.623	1371.747	1259.977
-47.130	27.258	1320.003	1081.284
-46.115	24.114	1300.755	1047.021
-45.100	23.804	1295.678	1041.081
-44.086	23.689	1293.542	1038.651
-43.071	23.741	1290.996	1036.868
-42.057	23.627	1289.522	1034.979
-41.042	23.737	1287.166	1033.684
-40.027	23.754	1286.395	1033.125
-39.013	23.667	1284.355	1030.938
-37.998	23.615	1282.517	1029.120
-36.984	23.811	1280.829	1028.859
-35.969	23.778	1279.307	1027.409
-34.954	23.796	1277.502	1026.023
-33.940	23.916	1275.856	1025.350
-32.925	23.840	1275.373	1024.486
-31.911	23.890	1274.014	1023.642
-30.896	23.893	1272.163	1022.127
-29.881	23.927	1270.880	1021.251
-28.867	23.925	1270.154	1020.615
-27.852	23.906	1268.439	1019.093
-26.838	23.832	1267.278	1017.691
-25.823	23.961	1265.486	1016.951
-24.809	23.964	1263.928	1015.675
-23.794	23.911	1262.872	1014.485
-22.779	23.892	1261.621	1013.330
-21.765	23.915	1260.794	1012.756
-20.750	23.893	1259.074	1011.211
-19.736	23.813	1258.066	1009.903
-18.721	23.843	1256.808	1009.027
-17.706	23.872	1255.641	1008.215
-16.692	23.745	1254.709	1006.706
-15.677	23.817	1253.078	1005.763
-14.663	23.778	1252.303	1004.882
-13.648	23.772	1250.905	1003.687
-12.633	23.777	1250.007	1002.952
-11.619	23.670	1249.868	1002.200
-10.604	23.673	1248.834	1001.349
-9.590	23.726	1248.000	1000.936
-8.575	23.662	1247.252	999.937
-7.560	23.714	1246.136	999.294
-6.546	23.862	1245.113	999.267
-5.531	23.785	1244.286	998.131
-4.517	23.769	1243.276	997.194
-3.502	23.755	1243.071	996.912
-2.487	23.735	1242.212	996.067
-1.473	23.619	1237.537	991.631
-0.458	21.858	1223.044	970.245
0.556	17.425	1206.747	932.471
1.571	13.631	1214.204	917.193
2.586	12.839	1229.326	924.094
3.600	12.786	1217.013	914.468
4.615	9.713	1146.403	845.248
5.629	3.768	1076.361	764.205
6.644	0.922	1059.670	738.420
7.659	0.735	1057.793	736.132
8.673	0.697	1056.840	735.223
9.688	0.736	1055.639	734.510
10.702	0.957	1053.800	734.237
11.717	4.549	1057.600	754.278
12.731	11.349	1066.158	793.490
13.746	16.107	1072.327	821.234
14.761	17.414	1073.557	828.473
15.775	16.781	1071.677	823.873
16.790	15.796	1069.777	817.552
17.804	15.092	1068.278	812.921
18.819	14.653	1067.380	810.034
19.834	14.387	1066.629	808.105
20.848	14.096	1065.446	805.726
21.863	14.038	1064.629	804.754
22.877	13.728	1063.951	802.672
23.892	13.775	1063.077	802.171
24.907	13.775	1062.187	801.428
25.921	13.827	1061.584	801.154
26.936	13.770	1060.949	800.327
27.950	13.827	1059.701	799.589
28.965	13.907	1058.403	798.924
29.980	13.969	1056.793	797.936
30.994	13.950	1056.222	797.342
32.009	13.918	1055.376	796.481
33.023	13.893	1054.644	795.736
34.038	13.860	1053.311	794.502
35.053	13.923	1052.529	794.143
36.067	13.927	1051.604	793.395
37.082	13.951	1050.670	792.737
38.096	13.938	1050.369	792.378
39.111	13.985	1049.337	791.752
40.126	13.860	1048.583	790.518
41.140	13.782	1047.116	788.971
42.155	13.840	1045.869	788.236
43.169	13.662	1045.420	786.985
44.184	13.758	1043.951	786.265
45.199	13.777	1042.650	785.302
46.213	13.653	1042.147	784.267
47.228	13.958	1040.472	784.379
48.242	13.907	1039.762	783.534
49.257	13.871	1038.736	782.520
50.271	13.852	1037.906	781.738
51.286	13.960	1037.018	781.509
52.301	13.762	1036.766	780.318
53.315	13.834	1035.223	779.424
54.330	13.904	1034.256	778.959
55.344	13.788	1033.738	777.954
56.359	13.792	1032.828	777.217
57.374	13.735	1032.108	776.340
58.388	13.731	1030.929	775.369
59.403	13.697	1030.386	774.731
60.417	13.797	1029.394	774.382
61.432	13.842	1028.358	773.748
62.447	13.671	1027.970	772.586
63.461	13.729	1027.163	772.184
64.476	13.690	1026.000	771.059
65.490	13.759	1025.272	770.766
66.505	13.723	1024.613	770.034
67.520	13.690	1023.601	769.054
68.534	13.650	1023.352	768.610
69.549	13.796	1022.392	768.500
70.563	13.713	1021.467	767.351
71.578	13.629	1020.984	766.534
72.593	13.697	1020.141	766.146
73.607	13.614	1019.633	765.311
74.622	13.743	1018.813	765.225
75.636	13.707	1017.946	764.341
76.651	13.575	1017.682	763.465
77.666	13.637	1017.074	763.229
78.680	13.581	1016.071	762.152
79.695	13.658	1015.541	762.041
80.709	13.768	1014.604	761.776
81.724	13.708	1014.000	760.978
82.739	13.892	1012.678	760.763
83.753	13.760	1012.330	759.828
84.768	13.975	1011.237	759.926
85.782	13.958	1010.042	758.881
86.797	13.949	1009.280	758.199
87.812	13.813	1008.784	757.138
88.826	13.787	1007.924	756.308
89.841	13.851	1006.800	755.689
90.855	13.914	1005.590	755.003
91.870	13.922	1005.091	754.595
92.884	14.021	1003.948	754.123
93.899	13.842	1003.634	753.008
94.914	13.923	1002.695	752.601
95.928	13.979	1002.168	752.394
96.943	13.951	1000.746	751.134
97.957	14.087	999.767	750.946
98.972	14.046	999.296	750.343
99.987	13.983	998.458	749.362
101.001	13.926	997.391	748.238
102.016	14.005	996.300	747.707
103.030	13.959	995.780	747.046
104.045	13.980	994.954	746.454
105.060	13.972	994.026	745.654
106.074	14.041	993.064	745.177
107.089	13.819	992.376	743.598
108.103	13.869	991.467	743.079
109.118	13.780	990.794	742.108
110.133	13.861	989.910	741.741
111.147	13.886	988.712	740.893
112.162	13.939	988.055	740.569
113.176	14.025	987.043	740.128
114.191	13.943	986.600	739.367
115.206	13.939	986.108	738.912
116.220	13.848	985.284	737.828
117.235	13.882	983.942	736.910
118.249	13.931	983.301	736.581
119.264	14.005	982.496	736.240
120.279	13.955	981.989	735.573
121.293	14.035	980.624	734.839
122.308	13.911	979.990	733.751
123.322	13.739	979.386	732.473
124.337	13.920	977.671	731.926
125.352	13.878	976.806	731.029
126.366	13.812	975.882	729.980
127.381	13.827	974.841	729.203
128.395	13.836	974.255	728.741
129.410	13.908	973.166	728.177
130.424	13.838	972.333	727.182
131.439	13.904	971.707	726.938
132.454	13.927	971.375	726.728
133.468	13.968	970.263	726.012
134.483	13.881	969.608	725.075
135.497	13.850	968.145	723.782
136.512	13.886	967.476	723.377
137.527	13.974	966.738	723.144
138.541	13.942	966.017	722.400
139.556	14.013	965.236	722.062
140.570	13.942	964.927	721.456
141.585	14.107	963.546	721.076
142.600	13.988	962.799	719.938
143.614	14.170	961.855	719.956
144.629	13.978	961.350	718.682
145.643	14.202	960.094	718.649
146.658	13.959	960.067	717.517
147.673	14.092	958.609	716.935
148.687	14.054	957.407	715.811
149.702	14.106	956.539	715.321
150.716	13.863	956.554	714.226
151.731	14.006	955.239	713.795
152.746	14.014	954.983	713.573
153.760	14.184	953.996	713.501
154.775	14.128	953.610	712.908
155.789	14.136	952.931	712.372
156.804	14.215	952.045	711.986
157.819	14.230	951.466	711.556
158.833	14.173	950.747	710.708
159.848	14.274	949.789	710.362
160.862	14.186	949.291	709.550
161.877	14.271	948.024	708.904
162.892	14.075	947.260	707.435
163.906	14.122	946.393	706.923
164.921	14.300	945.200	706.725
165.935	14.378	944.468	706.447
166.950	14.273	943.529	705.239
167.964	14.225	943.181	704.714
168.979	14.209	941.990	703.693
169.994	14.350	941.038	703.513
171.008	14.400	940.142	702.993
172.023	14.275	939.653	702.038
173.037	14.363	939.053	701.900
174.052	14.361	938.451	701.377
175.067	14.232	938.014	700.447
176.081	14.281	937.428	700.153
177.096	14.395	936.664	700.002
178.110	14.435	936.081	699.670
179.125	14.404	935.361	698.940
180.140	14.319	935.077	698.309
181.154	14.412	934.255	698.023
182.169	14.410	934.280	697.973
183.183	14.453	932.990	697.125
184.198	14.554	932.231	696.918
185.213	14.490	931.318	695.907
186.227	14.498	930.797	695.492
187.242	14.598	930.348	695.513
188.256	14.602	929.876	695.112
189.271	14.542	929.314	694.382
190.286	14.413	928.427	693.121
191.300	14.288	927.739	692.026
192.315	14.321	927.419	691.865
193.329	14.509	926.617	691.985
194.344	14.510	926.097	691.537
195.359	14.504	925.259	690.825
196.373	14.712	924.078	690.745
197.388	14.655	924.249	690.576
198.402	14.691	923.478	690.087
199.417	14.768	922.829	689.859
200.432	14.690	922.520	689.245
201.446	14.633	922.146	688.669
202.461	14.700	921.406	688.333
203.475	14.757	920.816	688.066
204.490	14.697	920.267	687.347
205.504	14.798	919.237	686.934
206.519	14.684	918.626	685.945
207.534	14.636	918.299	685.444
208.548	14.681	917.386	684.887
209.563	14.886	916.171	684.759
210.577	14.920	915.591	684.404
211.592	14.977	914.997	684.132
212.607	14.824	914.641	683.182
213.621	14.979	913.534	682.925
214.636	15.054	912.772	682.601
215.650	14.966	912.395	681.903
216.665	14.954	911.789	681.338
217.680	14.850	911.515	680.649
218.694	15.025	910.716	680.704
219.709	14.978	910.128	680.014
220.723	14.889	909.362	679.020
221.738	15.098	908.664	679.287
222.753	14.926	908.323	678.275
223.767	15.049	907.588	678.166
224.782	15.048	906.932	677.608
225.796	14.954	906.257	676.665
226.811	15.114	905.780	676.896
227.826	14.942	905.079	675.617
228.840	15.116	903.909	675.386
229.855	15.118	903.307	674.886
230.869	15.109	902.599	674.261
231.884	15.147	901.709	673.686
232.899	15.240	900.971	673.451
233.913	15.193	900.652	672.964
234.928	15.196	899.901	672.356
235.942	15.212	899.045	671.721
236.957	15.171	898.473	671.070
237.972	15.035	898.359	670.382
238.986	15.158	897.438	670.127
240.001	15.175	896.509	669.442
241.015	15.011	896.503	668.723
242.030	15.250	895.336	668.746
243.045	15.296	894.932	668.570
244.059	15.066	894.504	667.274
245.074	15.327	893.641	667.608
246.088	15.297	892.911	666.884
247.103	15.413	892.349	666.869
248.117	15.239	891.951	665.820
249.132	15.423	891.613	666.238
250.147	15.596	890.197	665.808
251.161	15.545	890.287	665.615
252.176	15.641	889.371	665.252
253.190	15.675	888.437	664.626
254.205	15.551	887.969	663.730
255.220	15.697	887.477	663.878
256.234	15.577	886.828	662.861
257.249	15.835	886.137	663.305
258.263	15.586	885.337	661.664
259.278	15.544	884.575	660.871
260.293	15.632	884.213	660.890
261.307	15.729	883.600	660.752
262.322	15.841	883.054	660.728
263.336	15.901	882.051	660.151
264.351	15.829	881.166	659.151
265.366	15.780	880.904	658.703
266.380	15.831	880.445	658.502
267.395	15.866	879.923	658.189
268.409	15.750	878.976	656.971
269.424	15.877	878.030	656.702
270.439	15.844	877.570	656.170
271.453	15.993	876.712	656.049
272.468	15.789	876.860	655.307
273.482	15.845	876.005	654.828
274.497	15.873	875.379	654.411
275.512	15.916	874.838	654.115
276.526	15.825	874.270	653.280
277.541	15.800	873.877	652.834
278.555	15.893	873.407	652.785
279.570	15.906	872.653	652.215
280.585	15.871	872.147	651.642
281.599	15.952	871.088	651.106
282.614	16.070	870.696	651.213
283.628	15.957	869.953	650.163
284.643	15.944	869.276	649.548
285.657	16.058	868.775	649.556
286.672	16.049	867.887	648.799
287.687	16.132	867.289	648.613
288.701	16.124	866.708	648.094
289.716	16.056	866.383	647.532
290.730	16.111	865.600	647.097
291.745	16.243	865.351	647.362
292.760	16.249	864.280	646.525
293.774	16.148	864.274	646.077
294.789	16.244	863.364	645.707
295.803	16.196	862.697	644.968
296.818	16.237	861.544	644.205
297.833	16.286	861.167	644.054
298.847	16.213	860.346	643.104
299.862	16.345	859.992	643.286
300.876	16.432	858.981	642.802
301.891	16.356	858.552	642.137
302.906	16.494	858.246	642.377
303.920	16.446	857.660	641.696
304.935	16.369	857.366	641.129
305.949	16.370	856.833	640.677
306.964	16.510	855.940	640.484
307.979	16.477	855.326	639.842
308.993	16.501	854.801	639.485
310.008	16.513	854.352	639.136
311.022	16.316	853.891	637.990
312.037	16.504	853.188	638.118
313.052	16.468	852.460	637.383
314.066	16.453	851.914	636.861
315.081	16.484	851.266	636.437
316.095	16.617	850.325	636.177
317.110	16.408	850.106	635.169
318.125	16.489	849.750	635.154
319.139	16.530	849.333	634.939
320.154	16.536	848.760	634.476
321.168	16.431	848.492	633.828
322.183	16.463	847.857	633.416
323.197	16.636	846.917	633.304
324.212	16.680	846.676	633.233
325.227	16.660	846.038	632.625
326.241	16.506	845.735	631.767
327.256	16.615	844.810	631.429
328.270	16.562	844.440	630.898
329.285	16.642	843.561	630.486
330.300	16.702	843.051	630.272
331.314	16.572	842.683	629.457
332.329	16.541	842.451	629.111
333.343	16.740	841.900	629.383
334.358	16.797	841.317	629.104
335.373	16.854	840.886	628.937
336.387	16.767	840.806	628.499
337.402	16.856	840.053	628.212
338.416	16.850	839.926	628.039
339.431	16.866	839.226	627.517
340.446	16.893	839.239	627.574
341.460	16.947	838.424	627.106
342.475	16.907	838.208	626.743
343.489	16.998	837.614	626.577
344.504	16.900	837.603	626.153
345.519	17.015	836.991	626.064
346.533	16.895	836.323	625.067
347.548	17.037	835.613	625.005
348.562	17.013	835.243	624.584
349.577	17.030	834.454	624.000
350.592	16.958	833.857	623.235
351.606	17.139	833.056	623.246
352.621	16.984	832.632	622.304
353.635	17.092	831.800	622.024
354.650	16.942	831.832	621.442
355.665	17.062	831.007	621.208
356.679	17.014	830.411	620.534
357.694	17.161	829.378	620.245
358.708	17.193	829.016	620.035
359.723	17.291	827.953	619.542
360.738	17.136	827.697	618.733
361.752	17.167	827.045	618.302
362.767	17.242	826.449	618.074
363.781	17.269	825.994	617.778
364.796	17.369	825.674	617.849
365.810	17.365	825.038	617.301
366.825	17.310	824.964	616.995
367.840	17.267	824.767	616.636
368.854	17.342	824.270	616.480
369.869	17.357	823.514	615.914
370.883	17.341	823.028	615.440
371.898	17.512	822.503	615.612
372.913	17.453	822.722	615.507
373.927	17.420	821.722	614.583
374.942	17.457	821.388	614.415
375.956	17.550	820.887	614.320
376.971	17.656	820.631	614.457
377.986	17.617	819.911	613.722
379.000	17.552	819.562	613.174
380.015	17.631	818.967	612.957
381.029	17.708	818.366	612.730
382.044	17.600	817.860	611.911
383.059	17.664	817.420	611.756
384.073	17.710	816.587	611.244
385.088	17.767	816.013	610.964
386.102	17.625	815.755	610.208
387.117	17.751	814.986	610.031
388.132	17.651	814.662	609.375
389.146	17.687	814.074	609.012
390.161	17.620	813.748	608.472
391.175	17.812	812.807	608.399
392.190	17.776	812.516	608.001
393.205	17.831	812.227	607.926
394.219	17.648	811.971	607.029
395.234	17.619	811.622	606.610
396.248	17.711	811.060	606.466
397.263	17.695	810.346	605.820
398.278	17.799	810.463	606.223
399.292	17.730	809.837	605.457
400.307	17.755	809.291	605.084
401.321	17.937	808.750	605.272
402.336	17.831	808.069	604.334
403.350	17.660	808.069	603.673
404.365	17.900	807.319	603.909
405.380	18.013	807.031	604.038
406.394	18.025	806.126	603.351
407.409	18.065	805.797	603.192
408.423	17.991	805.789	602.874
409.438	17.972	805.763	602.732
410.453	18.029	805.007	602.314
411.467	18.043	804.495	601.927
412.482	18.258	803.531	601.908
413.496	18.143	803.509	601.435
414.511	18.096	803.219	600.999
415.526	18.179	802.938	601.027
416.540	18.137	802.466	600.474
417.555	18.261	801.784	600.343
418.569	18.124	801.570	599.652
419.584	18.112	801.538	599.532
420.599	18.119	800.541	598.759
421.613	115.984	1298.761	1490.856
422.628	100.108	1371.320	1490.907
