DTS Sentinel unit serial number:	SN413079Multiplexer serial number:	ORYXHardware model number:	OX4-SRSoftware version number:	ORYX F/W v4.00 Oryx Data Collector v3.7.2.0data status	okinstallation	princeton_trtdifferential loss correction	single-endedforward channel	channel 1reverse channel	N/Adate	2019/09/14time	06:46:35forward acquisition time	60.00reverse acquisition time	0.00gamma	496.2192k internal	0.2336k external	0.2336temperature offset calibration	1.0079default loss term (dB/km)	0.3790temperature slope calibration	1.0000multiplexer offset coefficient	1.0000multiplexer slope coefficient	1.0000fibre end	0.00T internal ref (°C)	26.27T ext. ref 1 (°C)	3.42T ext. ref 2 (°C)	20.66length (m)	temperature (°C)	Stokes	anti-Stokes-747.200	-95.299	0.217	0.059
-746.185	-33.307	-0.274	-0.152
-745.171	276.772	0.142	0.253
-744.156	-9.752	-0.219	-0.146
-743.142	-74.315	0.285	0.103
-742.127	583.839	-0.123	0.304
-741.112	-200.000	-0.006	0.141
-740.098	800.000	0.127	0.487
-739.083	-200.000	-0.359	0.000
-738.069	-189.074	-0.248	0.003
-737.054	-103.357	0.276	-0.065
-736.039	-87.172	-0.326	0.099
-735.025	-200.000	0.038	0.229
-734.010	-33.363	0.111	-0.062
-732.996	44.488	0.135	0.125
-731.981	-200.000	-0.020	0.128
-730.966	322.715	0.084	0.160
-729.952	-69.863	-0.084	0.032
-728.937	126.644	-0.085	0.108
-727.923	-147.738	0.124	0.010
-726.908	128.949	-0.027	-0.035
-725.894	414.025	0.062	-0.133
-724.879	340.966	0.109	-0.213
-723.864	327.499	-0.178	0.342
-722.850	800.000	-0.013	-0.053
-721.835	-200.000	0.042	-0.241
-720.821	72.539	-0.064	-0.067
-719.806	76.657	0.206	0.220
-718.791	-78.422	-0.190	-0.065
-717.777	39.013	0.111	-0.099
-716.762	800.000	0.100	0.364
-715.748	113.438	-0.141	-0.172
-714.733	243.197	-0.220	0.370
-713.718	18.492	0.279	0.224
-712.704	-35.196	0.194	0.106
-711.689	-200.000	0.043	-0.312
-710.675	119.636	-0.063	-0.078
-709.660	-60.629	0.137	-0.058
-708.645	178.991	0.034	-0.050
-707.631	214.571	-0.173	-0.275
-706.616	-200.000	-0.023	-0.289
-705.602	4.919	-0.055	0.040
-704.587	229.298	0.158	0.258
-703.572	115.769	-0.167	-0.205
-702.558	17.682	-0.050	-0.040
-701.543	2.608	-0.278	-0.202
-700.529	11.322	0.142	0.109
-699.514	-52.705	-0.029	0.014
-698.499	-200.000	-0.002	0.056
-697.485	800.000	0.090	-0.291
-696.470	-1.393	0.161	-0.114
-695.456	185.213	-0.263	-0.391
-694.441	-95.763	0.106	-0.028
-693.426	73.438	0.127	-0.133
-692.412	-200.000	-0.043	-0.237
-691.397	31.892	-0.147	0.127
-690.383	-9.347	0.104	0.070
-689.368	639.141	0.113	-0.287
-688.354	199.394	-0.133	0.205
-687.339	-84.763	0.126	-0.040
-686.324	349.201	-0.009	0.018
-685.310	800.000	0.017	0.054
-684.295	-47.026	-0.044	0.021
-683.281	511.706	-0.175	-0.407
-682.266	-200.000	-0.023	0.214
-681.251	469.818	0.030	0.066
-680.237	289.385	-0.118	0.215
-679.222	250.057	-0.093	-0.158
-678.208	-158.906	-0.361	-0.021
-677.193	800.000	-0.096	0.405
-676.178	-200.000	0.009	0.164
-675.164	-64.029	-0.214	-0.088
-674.149	267.012	0.175	-0.306
-673.135	184.602	0.056	0.083
-672.120	-67.784	0.354	0.139
-671.105	548.041	-0.024	-0.058
-670.091	-200.000	-0.012	0.117
-669.076	47.531	0.255	-0.238
-668.062	-52.501	0.081	0.037
-667.047	469.756	0.067	0.151
-666.032	28.176	-0.097	0.082
-665.018	-0.907	0.182	-0.129
-664.003	259.076	-0.086	-0.149
-662.989	-27.576	-0.291	0.169
-661.974	185.189	0.049	0.073
-660.959	-103.236	-0.127	0.030
-659.945	-162.198	0.224	-0.011
-658.930	-200.000	0.048	0.241
-657.916	800.000	0.052	0.216
-656.901	-52.952	-0.090	-0.042
-655.886	18.860	-0.094	-0.075
-654.872	-31.766	-0.267	0.150
-653.857	-126.478	-0.351	0.052
-652.843	40.040	0.151	0.136
-651.828	-200.000	0.024	0.306
-650.814	-200.000	-0.036	0.377
-649.799	269.258	0.026	0.045
-648.784	-81.565	0.119	0.039
-647.770	-200.000	0.037	0.224
-646.755	238.151	0.060	0.099
-645.741	100.605	0.168	0.195
-644.726	59.739	-0.045	-0.045
-643.711	-99.656	-0.301	-0.076
-642.697	61.820	0.121	-0.121
-641.682	68.821	-0.194	0.200
-640.668	416.489	0.065	-0.139
-639.653	198.515	0.134	-0.205
-638.638	-200.000	-0.006	-0.094
-637.624	1.083	0.266	0.191
-636.609	-200.000	0.035	-0.330
-635.595	-200.000	-0.096	-0.440
-634.580	-181.461	-0.296	-0.006
-633.565	144.785	-0.115	-0.153
-632.551	-106.298	-0.141	-0.031
-631.536	-33.476	-0.220	-0.121
-630.522	-37.954	0.307	-0.163
-629.507	-82.744	0.168	0.054
-628.492	409.356	0.077	-0.163
-627.478	-137.297	-0.096	0.011
-626.463	-135.327	-0.215	-0.026
-625.449	-200.000	0.010	0.098
-624.434	-200.000	0.008	-0.040
-623.419	-54.301	-0.215	-0.097
-622.405	-93.671	0.107	0.029
-621.390	-57.701	-0.118	0.052
-620.376	101.918	-0.124	0.145
-619.361	-63.498	-0.204	0.084
-618.346	-153.151	0.102	0.007
-617.332	309.355	0.091	-0.171
-616.317	16.635	-0.183	0.144
-615.303	129.901	-0.218	-0.279
-614.288	168.986	0.082	-0.117
-613.273	-20.991	0.208	0.127
-612.259	151.396	-0.136	-0.184
-611.244	-13.258	-0.187	-0.121
-610.230	114.482	0.189	-0.230
-609.215	55.528	0.063	-0.061
-608.201	-38.435	-0.026	-0.014
-607.186	-91.880	0.144	0.041
-606.171	293.897	-0.125	-0.227
-605.157	-145.932	0.261	-0.023
-604.142	123.866	0.122	-0.152
-603.128	28.605	0.054	0.045
-602.113	-151.873	0.406	0.030
-601.098	215.313	-0.155	-0.246
-600.084	-65.803	0.177	-0.071
-599.069	-200.000	-0.043	0.329
-598.055	-77.574	0.504	-0.175
-597.040	-200.000	0.025	-0.118
-596.025	327.286	-0.191	0.366
-595.011	-200.000	0.027	-0.216
-593.996	-18.868	-0.031	-0.019
-592.982	-36.501	0.288	0.155
-591.967	-200.000	0.000	-0.043
-590.952	-200.000	-0.028	0.402
-589.938	-36.994	-0.128	0.069
-588.923	-152.791	-0.185	0.013
-587.909	800.000	-0.052	-0.182
-586.894	-156.318	-0.141	0.009
-585.879	286.347	-0.057	0.103
-584.865	212.959	0.089	0.140
-583.850	180.938	0.124	0.182
-582.836	45.185	-0.322	0.296
-581.821	195.083	0.237	-0.358
-580.806	91.369	-0.291	-0.326
-579.792	33.798	-0.010	-0.009
-578.777	235.055	-0.178	-0.293
-577.763	-75.398	0.036	0.013
-576.748	-200.000	0.012	0.238
-575.733	97.632	0.035	-0.041
-574.719	-98.359	-0.116	-0.030
-573.704	-173.661	0.283	-0.008
-572.690	-117.822	-0.170	-0.030
-571.675	35.789	-0.247	0.216
-570.661	800.000	-0.046	-0.163
-569.646	800.000	-0.141	0.458
-568.631	252.679	0.125	-0.213
-567.617	-200.000	0.017	-0.181
-566.602	-23.075	0.081	-0.049
-565.588	-89.009	-0.190	0.056
-564.573	360.035	-0.043	0.086
-563.558	-129.260	0.157	-0.022
-562.544	86.059	0.093	0.102
-561.529	536.131	0.105	0.249
-560.515	800.000	0.065	0.205
-559.500	-5.167	-0.138	-0.095
-558.485	11.760	-0.123	0.094
-557.471	-35.954	0.142	0.077
-556.456	292.035	0.034	0.062
-555.442	-55.553	-0.112	0.050
-554.427	-142.947	0.090	0.009
-553.412	-127.974	-0.275	0.039
-552.398	800.000	-0.057	0.176
-551.383	800.000	0.016	-0.064
-550.369	116.561	0.141	0.172
-549.354	111.907	0.278	-0.334
-548.339	-200.000	-0.002	0.223
-547.325	-33.859	-0.258	0.142
-546.310	-32.715	0.120	0.066
-545.296	71.395	-0.140	0.145
-544.281	-2.839	0.106	0.074
-543.266	668.001	-0.013	0.034
-542.252	-53.695	-0.172	-0.078
-541.237	-130.400	0.225	0.030
-540.223	191.696	-0.237	-0.356
-539.208	199.495	-0.233	-0.356
-538.193	103.522	0.134	0.157
-537.179	-72.084	-0.132	0.049
-536.164	125.730	0.049	0.062
-535.150	-200.000	-0.041	0.384
-534.135	111.974	-0.018	-0.022
-533.121	-200.000	0.023	0.269
-532.106	-88.055	0.062	0.018
-531.091	-129.000	0.113	-0.016
-530.077	-200.000	0.021	-0.423
-529.062	-106.134	0.052	-0.012
-528.048	223.852	0.120	-0.194
-527.033	296.985	-0.138	0.252
-526.018	-113.419	0.081	0.016
-525.004	73.835	-0.044	-0.046
-523.989	93.493	0.215	0.242
-522.975	8.191	0.099	-0.074
-521.960	20.888	-0.185	0.149
-520.945	192.559	-0.039	0.058
-519.931	-70.986	0.237	-0.089
-518.916	10.587	-0.159	-0.120
-517.902	335.694	-0.099	-0.190
-516.887	102.167	0.092	-0.107
-515.872	-113.738	0.078	0.015
-514.858	800.000	0.087	0.362
-513.843	-200.000	0.007	0.273
-512.829	304.359	0.066	-0.122
-511.814	-200.000	0.070	-0.407
-510.799	-65.425	-0.219	0.088
-509.785	28.551	-0.125	-0.105
-508.770	-151.054	-0.121	-0.009
-507.756	35.371	-0.212	0.185
-506.741	142.373	0.141	-0.186
-505.726	-200.000	-0.058	-0.270
-504.712	148.443	0.097	-0.130
-503.697	-19.759	-0.155	-0.095
-502.683	-152.628	-0.259	-0.018
-501.668	16.321	0.270	-0.212
-500.653	-49.513	0.159	-0.076
-499.639	-158.103	-0.312	0.018
-498.624	-98.195	0.366	-0.094
-497.610	-126.089	-0.464	-0.069
-496.595	91.298	-0.089	0.100
-495.581	-130.720	0.039	0.005
-494.566	-133.132	-0.134	0.017
-493.551	66.190	0.204	-0.206
-492.537	493.147	-0.101	0.230
-491.522	-129.348	-0.272	0.038
-490.508	800.000	0.041	0.142
-489.493	-8.713	0.061	0.040
-488.478	213.765	-0.193	-0.303
-487.464	-200.000	-0.083	0.381
-486.449	173.056	0.154	0.220
-485.435	31.018	0.096	0.082
-484.420	800.000	-0.041	0.145
-483.405	-59.245	-0.235	0.100
-482.391	800.000	-0.040	-0.149
-481.376	-14.047	-0.392	0.251
-480.362	-45.225	-0.117	-0.058
-479.347	-122.861	-0.321	0.051
-478.332	800.000	-0.053	0.180
-477.318	147.543	-0.142	-0.190
-476.303	-200.000	-0.028	0.382
-475.289	800.000	-0.099	0.298
-474.274	-60.408	0.115	0.049
-473.259	144.286	-0.123	0.163
-472.245	517.141	-0.051	-0.120
-471.230	-200.000	-0.042	-0.205
-470.216	101.991	-0.101	0.117
-469.201	503.116	-0.160	-0.368
-468.186	24.238	-0.116	0.095
-467.172	375.436	-0.105	-0.212
-466.157	-37.046	-0.371	0.198
-465.143	-44.707	0.133	0.066
-464.128	128.150	-0.021	0.026
-463.113	701.195	0.076	0.200
-462.099	50.622	0.165	-0.155
-461.084	35.610	-0.067	-0.059
-460.070	2.054	0.126	0.090
-459.055	-100.730	0.257	0.063
-458.040	-131.565	-0.121	-0.016
-457.026	-200.000	-0.021	-0.323
-456.011	-51.506	0.345	0.160
-454.997	-200.000	-0.007	0.240
-453.982	800.000	-0.087	0.367
-452.968	-31.728	0.235	-0.131
-451.953	800.000	0.054	-0.210
-450.938	-128.469	-0.096	0.014
-449.924	194.479	-0.108	0.163
-448.909	-68.285	0.241	-0.093
-447.895	80.263	0.135	-0.144
-446.880	-111.099	-0.232	-0.047
-445.865	-3.946	-0.131	0.090
-444.851	226.390	-0.204	-0.329
-443.836	118.122	0.071	0.087
-442.822	21.722	-0.202	-0.163
-441.807	3.822	0.179	-0.129
-440.792	-200.000	-0.024	0.202
-439.778	5.894	-0.261	-0.192
-438.763	740.859	-0.115	-0.305
-437.749	-176.634	0.088	0.002
-436.734	182.319	0.200	0.292
-435.719	104.885	0.088	-0.103
-434.705	10.472	-0.182	-0.138
-433.690	-70.239	0.130	-0.049
-432.676	-49.599	-0.105	0.050
-431.661	-113.583	-0.272	-0.053
-430.646	-87.488	-0.073	0.022
-429.632	716.374	-0.060	-0.159
-428.617	16.116	-0.305	-0.239
-427.603	-93.521	0.217	-0.060
-426.588	-200.000	0.014	-0.176
-425.573	-102.584	0.380	-0.090
-424.559	-79.203	0.162	0.055
-423.544	52.602	0.191	-0.181
-422.530	-200.000	-0.037	0.178
-421.515	758.424	0.054	0.145
-420.500	-28.759	0.256	0.146
-419.486	-200.000	0.012	-0.224
-418.471	-91.614	0.104	0.029
-417.457	161.665	-0.372	0.517
-416.442	-116.833	-0.176	-0.032
-415.428	800.000	0.119	0.382
-414.413	-200.000	0.004	0.134
-413.398	-73.462	-0.187	-0.068
-412.384	-34.537	-0.131	-0.071
-411.369	342.456	0.162	0.314
-410.355	800.000	-0.047	0.131
-409.340	-200.000	-0.000	-0.231
-408.325	716.383	-0.066	-0.173
-407.311	149.816	-0.072	0.097
-406.296	800.000	-0.065	0.214
-405.282	-200.000	0.027	0.269
-404.267	-200.000	0.030	0.271
-403.252	-122.224	0.311	0.050
-402.238	92.124	0.211	-0.236
-401.223	414.268	0.135	0.284
-400.209	-145.854	0.080	-0.007
-399.194	6.352	0.204	-0.150
-398.179	-200.000	-0.032	0.189
-397.165	103.173	-0.122	-0.141
-396.150	-153.708	0.136	-0.009
-395.136	32.303	0.252	-0.215
-394.121	800.000	-0.080	-0.324
-393.106	-2.827	0.249	-0.173
-392.092	800.000	-0.051	-0.150
-391.077	800.000	0.115	-0.430
-390.063	-200.000	0.016	-0.103
-389.048	552.929	0.044	-0.105
-388.033	-91.019	-0.077	0.022
-387.019	-200.000	0.020	-0.211
-386.004	96.110	0.168	0.190
-384.990	465.626	0.077	-0.170
-383.975	21.693	-0.077	0.062
-382.960	121.694	0.394	0.486
-381.946	-19.047	-0.326	-0.201
-380.931	800.000	0.031	0.086
-379.917	-1.107	0.149	-0.105
-378.902	559.701	-0.055	-0.132
-377.888	-158.905	0.507	-0.029
-376.873	-110.567	-0.218	0.045
-375.858	-77.133	-0.269	-0.093
-374.844	16.714	0.278	0.218
-373.829	-97.125	-0.045	0.012
-372.815	-112.091	-0.201	-0.040
-371.800	-96.302	0.121	0.032
-370.785	146.183	0.041	-0.054
-369.771	31.382	0.158	-0.135
-368.756	-5.912	-0.181	-0.123
-367.742	104.257	-0.088	-0.102
-366.727	-200.000	0.035	-0.208
-365.712	-200.000	-0.025	0.268
-364.698	800.000	0.040	0.113
-363.683	318.506	0.062	0.116
-362.669	106.854	-0.059	-0.069
-361.654	-101.063	-0.041	0.010
-360.639	163.330	-0.151	-0.210
-359.625	-73.308	-0.158	-0.057
-358.610	-200.000	0.006	0.248
-357.596	-163.067	-0.045	-0.002
-356.581	-160.847	-0.301	0.016
-355.566	83.158	0.095	-0.102
-354.552	-22.925	0.396	0.236
-353.537	-60.482	0.336	-0.141
-352.523	335.174	-0.149	0.285
-351.508	800.000	-0.079	-0.307
-350.493	-200.000	-0.062	0.355
-349.479	291.280	0.047	0.084
-348.464	800.000	0.149	0.407
-347.450	-133.706	0.199	0.025
-346.435	63.012	-0.102	-0.101
-345.420	50.487	0.226	-0.211
-344.406	-93.066	0.354	0.098
-343.391	-81.615	0.160	0.052
-342.377	268.901	-0.095	-0.165
-341.362	-121.472	0.336	-0.055
-340.348	-200.000	0.054	-0.299
-339.333	-23.762	0.222	0.131
-338.318	-22.522	0.171	0.102
-337.304	-80.891	-0.195	-0.064
-336.289	-117.942	-0.547	0.097
-335.275	-200.000	-0.054	-0.271
-334.260	-200.000	0.037	-0.169
-333.245	-200.000	-0.043	0.437
-332.231	-200.000	-0.009	0.106
-331.216	80.374	-0.168	0.179
-330.202	117.442	0.101	0.123
-329.187	-135.435	0.082	-0.010
-328.172	800.000	-0.077	-0.291
-327.158	336.477	-0.219	-0.420
-326.143	-31.961	-0.167	0.092
-325.129	800.000	-0.015	0.045
-324.114	68.724	-0.293	-0.297
-323.099	86.049	0.151	-0.165
-322.085	-81.392	-0.156	-0.051
-321.070	-97.004	0.262	-0.068
-320.056	-112.435	0.280	0.055
-319.041	-200.000	-0.005	-0.179
-318.026	-83.918	0.034	0.011
-317.012	133.076	0.223	0.284
-315.997	-200.000	-0.012	0.105
-314.983	795.392	0.039	-0.105
-313.968	-200.000	0.036	-0.157
-312.953	-200.000	0.008	0.139
-311.939	422.931	-0.054	-0.115
-310.924	-182.592	0.218	-0.004
-309.910	84.113	0.047	0.051
-308.895	169.398	-0.071	0.100
-307.880	-200.000	-0.020	0.339
-306.866	-55.962	-0.214	0.094
-305.851	-200.000	-0.011	0.268
-304.837	-200.000	-0.054	0.373
-303.822	83.073	-0.251	-0.270
-302.807	-45.249	0.124	-0.061
-301.793	16.646	0.291	-0.227
-300.778	-56.046	0.229	0.101
-299.764	-45.021	-0.190	0.093
-298.749	-168.867	-0.114	0.004
-297.735	595.349	-0.103	-0.250
-296.720	-33.833	0.198	-0.108
-295.705	12.622	-0.228	0.173
-294.691	-70.860	-0.176	0.065
-293.676	-162.287	-0.217	0.011
-292.662	147.215	0.153	0.203
-291.647	-200.000	0.014	-0.166
-290.632	800.000	-0.084	-0.244
-289.618	-129.813	0.202	-0.027
-288.603	-25.312	-0.181	0.105
-287.589	40.460	0.048	-0.043
-286.574	208.021	0.113	0.175
-285.559	223.087	0.123	0.196
-284.545	408.807	-0.144	-0.300
-283.530	125.894	-0.128	-0.159
-282.516	-66.226	-0.185	0.073
-281.501	41.820	0.057	0.051
-280.486	-103.985	0.326	0.075
-279.472	175.024	0.294	-0.420
-278.457	-79.819	0.064	-0.021
-277.443	30.997	0.206	-0.174
-276.428	336.287	-0.080	0.152
-275.413	29.084	-0.349	0.292
-274.399	-140.826	-0.268	-0.027
-273.384	404.944	-0.170	0.354
-272.370	-7.616	0.171	0.114
-271.355	661.074	0.060	0.152
-270.340	-42.974	-0.313	0.156
-269.326	121.754	-0.124	-0.153
-268.311	28.410	-0.115	-0.095
-267.297	-93.441	0.189	0.052
-266.282	-95.675	-0.268	-0.071
-265.267	507.007	-0.042	-0.096
-264.253	-112.709	0.087	-0.017
-263.238	-200.000	-0.035	0.209
-262.224	-200.000	0.055	-0.407
-261.209	-51.951	0.057	-0.026
-260.195	56.226	-0.055	-0.053
-259.180	-53.841	0.240	0.108
-258.165	800.000	-0.117	0.331
-257.151	-100.263	0.205	-0.050
-256.136	-66.480	0.257	-0.101
-255.122	182.844	-0.115	0.167
-254.107	38.736	0.268	-0.236
-253.092	-43.414	-0.289	0.144
-252.078	-192.903	0.108	0.001
-251.063	253.705	-0.092	0.155
-250.049	225.502	-0.169	0.269
-249.034	-167.223	-0.395	0.016
-248.019	71.941	0.267	0.273
-247.005	-200.000	0.018	0.101
-245.990	7.872	0.306	-0.226
-244.976	-200.000	-0.085	-0.405
-243.961	236.569	0.066	0.108
-242.946	-200.000	-0.017	0.167
-241.932	136.144	-0.040	-0.051
-240.917	77.543	0.111	0.117
-239.903	62.160	0.141	0.138
-238.888	14.963	-0.181	0.140
-237.873	-8.498	0.082	-0.054
-236.859	-9.148	-0.209	-0.138
-235.844	175.398	-0.120	-0.171
-234.830	322.022	0.087	0.163
-233.815	173.852	0.147	0.209
-232.800	354.235	-0.056	0.109
-231.786	-140.612	0.281	-0.029
-230.771	800.000	0.061	-0.209
-229.757	-200.000	0.010	-0.075
-228.742	-200.000	0.026	-0.180
-227.727	207.154	-0.096	0.148
-226.713	78.217	0.032	-0.034
-225.698	-140.172	0.038	-0.004
-224.684	-9.596	0.185	0.121
-223.669	102.021	-0.071	-0.082
-222.655	-54.994	0.142	-0.063
-221.640	-64.026	-0.390	0.157
-220.625	-124.110	0.255	0.039
-219.611	181.924	0.082	0.118
-218.596	-123.779	-0.107	-0.017
-217.582	0.209	0.047	0.033
-216.567	800.000	0.123	-0.415
-215.552	311.132	0.102	-0.188
-214.538	-30.174	-0.141	0.079
-213.523	-200.000	0.031	0.187
-212.509	21.761	-0.111	0.089
-211.494	268.803	0.120	-0.207
-210.479	-200.000	0.004	0.142
-209.465	30.011	-0.286	-0.240
-208.450	1.912	0.077	0.054
-207.436	92.486	0.170	0.189
-206.421	550.015	0.053	-0.126
-205.406	-156.360	-0.240	0.015
-204.392	-200.000	0.026	-0.139
-203.377	104.243	0.297	-0.343
-202.363	-22.665	-0.341	-0.202
-201.348	181.037	-0.101	0.145
-200.333	-95.913	0.272	-0.071
-199.319	-164.365	-0.252	0.011
-198.304	84.781	-0.126	0.136
-197.290	-17.571	0.119	0.074
-196.275	-63.882	0.045	0.018
-195.260	-200.000	0.016	-0.077
-194.246	-43.079	-0.122	-0.061
-193.231	800.000	-0.028	0.088
-192.217	-52.841	-0.117	0.053
-191.202	74.523	-0.036	0.037
-190.187	318.422	-0.110	-0.204
-189.173	135.953	-0.060	0.077
-188.158	697.494	-0.037	0.095
-187.144	6.912	0.354	0.259
-186.129	800.000	-0.126	-0.389
-185.114	31.715	-0.111	0.094
-184.100	19.700	-0.276	-0.219
-183.085	180.809	0.159	-0.229
-182.071	-166.283	-0.169	0.007
-181.056	-200.000	0.018	-0.226
-180.042	31.831	-0.087	-0.073
-179.027	-200.000	-0.021	0.182
-178.012	242.499	0.101	-0.166
-176.998	150.057	0.275	0.367
-175.983	800.000	0.072	-0.300
-174.969	10.092	0.154	0.115
-173.954	-128.810	-0.139	-0.019
-172.939	-30.875	0.245	0.136
-171.925	317.263	-0.096	0.178
-170.910	-99.991	0.085	0.021
-169.896	-112.907	-0.185	0.036
-168.881	144.479	-0.038	0.050
-167.866	-200.000	-0.014	-0.167
-166.852	-200.000	-0.036	-0.266
-165.837	-200.000	-0.004	0.060
-164.823	-0.129	-0.295	-0.206
-163.808	47.853	0.365	0.334
-162.793	-19.026	0.252	0.154
-161.779	-60.607	0.125	-0.052
-160.764	-97.005	0.086	-0.022
-159.750	-200.000	-0.001	0.164
-158.735	320.548	0.089	-0.166
-157.720	154.377	-0.026	-0.035
-156.706	-200.000	-0.021	0.253
-155.691	85.436	0.059	-0.064
-154.677	-16.228	0.268	-0.167
-153.662	-11.809	0.105	-0.067
-152.647	-200.000	-0.088	0.449
-151.633	124.096	-0.063	0.077
-150.618	332.768	0.097	0.184
-149.604	712.845	0.040	0.103
-148.589	464.383	-0.186	-0.407
-147.574	-68.987	-0.249	-0.094
-146.560	-200.000	0.024	-0.301
-145.545	-25.345	-0.213	-0.123
-144.531	319.703	0.099	-0.184
-143.516	-143.096	-0.473	-0.045
-142.502	18.619	0.110	-0.086
-141.487	70.025	-0.162	0.164
-140.472	66.997	0.162	0.161
-139.458	-4.215	0.213	-0.145
-138.443	610.153	0.022	-0.054
-137.429	-200.000	-0.020	-0.112
-136.414	-200.000	-0.031	-0.163
-135.399	2.650	0.247	0.176
-134.385	-200.000	0.013	0.066
-133.370	-148.016	0.299	-0.024
-132.356	88.013	-0.094	-0.102
-131.341	800.000	-0.042	0.115
-130.326	800.000	0.013	0.043
-129.312	-99.665	-0.024	0.006
-128.297	201.541	0.017	0.026
-127.283	-200.000	0.002	-0.169
-126.268	542.279	-0.078	-0.182
-125.253	80.152	0.194	0.205
-124.239	41.432	-0.055	-0.049
-123.224	-200.000	0.030	0.210
-122.210	36.546	0.033	-0.029
-121.195	371.024	-0.138	0.274
-120.180	-200.000	0.002	-0.207
-119.166	260.867	-0.025	-0.042
-118.151	-200.000	0.005	-0.064
-117.137	-130.250	0.271	0.036
-116.122	-200.000	0.070	-0.479
-115.107	-21.674	0.144	0.086
-114.093	-81.605	-0.373	0.120
-113.078	-27.745	-0.159	-0.090
-112.064	-53.810	0.333	-0.149
-111.049	-200.000	-0.030	-0.272
-110.034	318.072	0.094	-0.175
-109.020	-72.631	0.235	0.085
-108.005	19.909	-0.078	0.062
-106.991	204.617	-0.115	-0.175
-105.976	800.000	0.079	-0.272
-104.962	17.814	0.106	0.083
-103.947	-200.000	-0.024	0.253
-102.932	-200.000	0.006	-0.378
-101.918	-200.000	-0.052	-0.226
-100.903	210.466	-0.097	-0.149
-99.889	593.633	0.159	0.386
-98.874	11.702	-0.106	-0.079
-97.859	27.086	0.098	0.081
-96.845	43.215	0.037	-0.033
-95.830	57.927	-0.213	-0.204
-94.816	-200.000	-0.003	0.419
-93.801	-134.898	-0.234	0.028
-92.786	-200.000	0.042	-0.264
-91.772	-82.818	0.133	0.042
-90.757	-200.000	-0.024	-0.304
-89.743	-159.545	-0.217	0.012
-88.728	800.000	0.060	-0.237
-87.713	296.962	0.011	0.019
-86.699	-107.946	0.136	0.029
-85.684	-103.319	-0.268	-0.062
-84.670	-86.861	0.461	0.138
-83.655	-102.470	0.163	-0.038
-82.640	-200.000	-0.020	0.106
-81.626	-200.000	0.006	-0.297
-80.611	-200.000	0.038	0.350
-79.597	239.984	-0.156	0.255
-78.582	164.506	-0.083	-0.114
-77.567	-200.000	-0.001	-0.218
-76.553	-115.171	0.087	0.016
-75.538	-200.000	-0.027	0.138
-74.524	187.653	0.129	-0.188
-73.509	-200.000	0.059	-0.438
-72.494	-23.461	-0.108	-0.063
-71.480	749.712	-0.014	-0.037
-70.465	-107.861	0.231	0.049
-69.451	56.809	-0.181	0.172
-68.436	-126.991	0.158	0.023
-67.422	108.383	0.165	-0.193
-66.407	800.000	-0.010	-0.032
-65.392	-131.818	-0.249	0.032
-64.378	222.132	0.114	-0.180
-63.363	-81.566	-0.181	0.058
-62.349	246.473	0.151	-0.249
-61.334	172.059	-0.879	-1.235
-60.319	-4.738	0.585	0.395
-59.305	800.000	-0.276	-1.078
-58.290	794.593	0.501	1.348
-57.276	410.486	0.820	1.699
-56.261	-200.000	117.650	636.952
-55.246	475.308	1556.557	3435.001
-54.232	173.410	2725.425	3841.682
-53.217	103.594	2159.100	2476.916
-52.203	37.975	1590.045	1381.617
-51.188	29.670	1333.323	1108.920
-50.173	26.772	1294.515	1059.687
-49.159	51.671	1353.645	1257.875
-48.144	50.277	1366.570	1261.500
-47.130	29.720	1319.988	1097.949
-46.115	26.349	1302.226	1063.340
-45.100	26.218	1296.979	1058.248
-44.086	26.057	1295.040	1055.682
-43.071	26.151	1291.975	1053.691
-42.057	25.991	1290.489	1051.501
-41.042	26.056	1288.591	1050.293
-40.027	26.205	1286.915	1049.752
-39.013	26.065	1285.331	1047.603
-37.998	26.226	1282.832	1046.458
-36.984	26.245	1281.712	1045.615
-35.969	26.286	1279.715	1044.180
-34.954	26.307	1278.084	1042.932
-33.940	26.322	1276.723	1041.861
-32.925	26.201	1275.346	1040.004
-31.911	26.330	1273.220	1038.966
-30.896	26.371	1272.725	1038.758
-29.881	26.348	1271.488	1037.579
-28.867	26.389	1269.949	1036.512
-27.852	26.331	1268.377	1034.861
-26.838	26.398	1267.031	1034.100
-25.823	26.384	1265.643	1032.848
-24.809	26.384	1264.350	1031.753
-23.794	26.287	1263.082	1030.125
-22.779	26.477	1261.016	1029.481
-21.765	26.356	1260.192	1028.080
-20.750	26.290	1259.374	1026.996
-19.736	26.170	1258.135	1025.263
-18.721	26.224	1256.694	1024.352
-17.706	26.220	1255.679	1023.461
-16.692	26.312	1254.580	1023.046
-15.677	26.205	1253.301	1021.357
-14.663	26.232	1252.150	1020.533
-13.648	26.267	1251.045	1019.790
-12.633	26.217	1250.140	1018.729
-11.619	26.268	1249.036	1018.078
-10.604	26.242	1248.273	1017.265
-9.590	26.102	1247.831	1016.079
-8.575	26.242	1246.375	1015.637
-7.560	26.239	1245.497	1014.869
-6.546	26.221	1244.928	1014.260
-5.531	26.102	1244.252	1013.003
-4.517	26.241	1242.712	1012.489
-3.502	26.241	1241.971	1011.844
-2.487	26.198	1241.406	1011.102
-1.473	26.157	1237.254	1007.455
-0.458	24.598	1222.158	986.518
0.556	21.359	1205.568	949.363
1.571	17.758	1211.932	934.594
2.586	16.977	1226.238	941.212
3.600	16.715	1214.165	930.422
4.615	12.637	1142.901	854.603
5.629	6.167	1073.458	770.963
6.644	3.590	1055.937	745.871
7.659	3.328	1053.892	743.100
8.673	3.366	1052.765	742.422
9.688	3.416	1051.653	741.810
10.702	3.537	1049.134	740.550
11.717	7.381	1053.630	762.157
12.731	14.184	1064.242	802.689
13.746	18.686	1069.618	828.452
14.761	19.459	1069.814	832.261
15.775	18.682	1068.253	827.229
16.790	17.741	1066.231	821.061
17.804	16.847	1065.199	815.893
18.819	16.701	1063.556	813.858
19.834	16.474	1063.083	812.334
20.848	16.449	1062.091	811.387
21.863	16.126	1061.365	809.212
22.877	15.974	1060.764	807.951
23.892	16.136	1059.587	807.760
24.907	16.029	1059.257	806.921
25.921	16.163	1057.805	806.388
26.936	16.069	1056.955	805.221
27.950	16.022	1055.976	804.179
28.965	16.042	1054.124	802.791
29.980	16.374	1052.287	802.899
30.994	16.447	1050.721	801.981
32.009	16.243	1050.785	800.991
33.023	16.351	1049.219	800.237
34.038	16.309	1047.947	798.998
35.053	16.188	1047.178	797.770
36.067	16.162	1046.437	797.011
37.082	16.201	1046.115	796.880
38.096	16.268	1045.151	796.388
39.111	16.153	1044.560	795.328
40.126	16.074	1043.371	793.979
41.140	15.919	1041.498	791.754
42.155	15.810	1040.268	790.239
43.169	15.769	1039.492	789.386
44.184	15.740	1038.742	788.611
45.199	15.850	1037.383	788.024
46.213	15.995	1036.707	788.118
47.228	15.995	1035.793	787.353
48.242	16.051	1034.582	786.627
49.257	16.076	1033.777	786.060
50.271	16.116	1032.590	785.274
51.286	16.179	1031.873	784.952
52.301	16.077	1030.835	783.620
53.315	16.012	1029.776	782.445
54.330	15.981	1028.988	781.630
55.344	16.041	1027.347	780.594
56.359	15.956	1026.911	779.801
57.374	15.868	1026.314	778.871
58.388	15.911	1025.338	778.262
59.403	15.663	1024.843	776.672
60.417	15.813	1023.774	776.483
61.432	15.761	1023.136	775.692
62.447	15.672	1022.501	774.729
63.461	15.754	1021.541	774.314
64.476	15.693	1020.454	773.138
65.490	15.628	1019.883	772.337
66.505	15.810	1018.795	772.282
67.520	15.771	1018.546	771.848
68.534	15.776	1017.680	771.144
69.549	15.611	1017.540	770.213
70.563	15.739	1015.821	769.432
71.578	15.630	1015.215	768.404
72.593	15.684	1014.190	767.808
73.607	15.716	1013.411	767.297
74.622	15.645	1013.235	766.773
75.636	15.869	1012.576	767.226
76.651	15.688	1011.907	765.828
77.666	15.619	1011.067	764.810
78.680	15.622	1010.354	764.214
79.695	15.707	1009.772	764.097
80.709	15.897	1009.327	764.554
81.724	15.925	1008.737	764.168
82.739	15.923	1008.261	763.729
83.753	16.137	1007.409	763.984
84.768	16.265	1006.349	763.693
85.782	16.411	1005.405	763.569
86.797	16.350	1004.187	762.301
87.812	16.155	1003.544	760.864
88.826	16.162	1002.596	760.109
89.841	16.305	1001.732	760.030
90.855	16.285	1000.757	759.137
91.870	16.367	999.827	758.731
92.884	16.288	999.106	757.762
93.899	16.374	997.996	757.238
94.914	16.371	997.396	756.705
95.928	16.342	996.538	755.855
96.943	16.291	995.866	755.053
97.957	16.240	995.111	754.184
98.972	16.246	994.340	753.558
99.987	16.251	993.190	752.644
101.001	16.366	992.084	752.251
102.016	16.296	991.552	751.470
103.030	16.473	990.404	751.322
104.045	16.318	989.948	750.221
105.060	16.149	988.891	748.599
106.074	16.036	988.209	747.516
107.089	15.765	987.340	745.592
108.103	15.839	985.875	744.747
109.118	15.825	985.131	744.058
110.133	15.920	984.531	743.961
111.147	15.846	983.299	742.634
112.162	15.827	983.062	742.309
113.176	16.039	981.770	742.201
114.191	16.044	980.997	741.574
115.206	15.971	980.559	740.856
116.220	15.938	979.688	739.985
117.235	16.154	978.275	739.802
118.249	16.009	977.912	738.825
119.264	15.989	976.830	737.857
120.279	15.867	976.121	736.719
121.293	15.656	975.689	735.404
122.308	15.646	974.699	734.551
123.322	15.683	973.825	733.989
124.337	15.713	972.173	732.808
125.352	15.744	971.105	732.074
126.366	15.744	970.051	731.214
127.381	15.768	969.140	730.567
128.395	15.769	968.500	730.026
129.410	15.826	967.592	729.522
130.424	15.872	966.805	729.066
131.439	16.046	965.969	729.122
132.454	16.075	965.091	728.520
133.468	15.999	964.430	727.628
134.483	16.045	963.494	727.055
135.497	16.102	962.714	726.647
136.512	16.023	961.950	725.669
137.527	16.098	961.289	725.428
138.541	15.966	960.594	724.271
139.556	16.014	960.205	724.119
140.570	16.110	959.238	723.741
141.585	16.248	958.650	723.825
142.600	16.296	957.881	723.385
143.614	16.344	956.876	722.769
144.629	16.419	956.368	722.641
145.643	16.253	955.491	721.205
146.658	16.278	954.019	720.135
147.673	16.227	952.943	719.041
148.687	16.068	952.703	718.123
149.702	16.143	951.735	717.649
150.716	16.117	951.013	716.931
151.731	16.115	950.445	716.429
152.746	16.108	949.748	715.812
153.760	16.082	949.067	715.125
154.775	16.359	948.245	715.616
155.789	16.278	947.684	714.785
156.804	16.266	947.069	714.208
157.819	16.335	946.429	713.952
158.833	16.477	946.057	714.209
159.848	16.504	945.041	713.493
160.862	16.416	943.544	711.927
161.877	16.338	942.470	710.727
162.892	16.126	941.823	709.284
163.906	16.112	940.824	708.410
164.921	16.174	940.362	708.260
165.935	16.277	939.422	707.924
166.950	16.379	938.351	707.480
167.964	16.114	937.791	705.886
168.979	16.196	936.973	705.551
169.994	16.280	935.645	704.839
171.008	16.196	935.318	704.178
172.023	16.565	934.302	704.888
173.037	16.531	934.016	704.469
174.052	16.492	933.387	703.772
175.067	16.275	932.176	701.896
176.081	16.202	931.768	701.221
177.096	16.223	931.279	700.879
178.110	16.140	930.979	700.247
179.125	16.240	930.497	700.237
180.140	16.409	929.720	700.290
181.154	16.492	929.313	700.264
182.169	16.528	928.828	699.985
183.183	16.637	927.860	699.646
184.198	16.650	927.313	699.227
185.213	16.488	926.578	697.940
186.227	16.617	925.849	697.862
187.242	16.492	925.740	697.202
188.256	16.790	924.762	697.633
189.271	16.734	923.941	696.719
190.286	16.456	923.047	694.843
191.300	16.185	922.206	693.033
192.315	16.099	921.654	692.204
193.329	16.149	921.050	691.894
194.344	16.279	920.710	692.112
195.359	16.465	919.735	692.078
196.373	16.558	919.137	691.948
197.388	16.783	918.618	692.414
198.402	16.818	918.320	692.272
199.417	16.721	918.075	691.632
200.432	16.882	917.686	691.932
201.446	16.983	916.867	691.666
202.461	17.056	916.139	691.353
203.475	16.977	915.460	690.459
204.490	16.903	914.828	689.620
205.504	16.783	913.962	688.421
206.519	16.779	913.366	687.892
207.534	16.658	912.799	686.915
208.548	16.768	912.284	686.909
209.563	16.789	911.472	686.324
210.577	16.827	910.927	686.008
211.592	16.904	910.455	685.903
212.607	16.980	909.330	685.300
213.621	16.962	908.828	684.788
214.636	16.989	908.129	684.313
215.650	17.015	907.504	683.884
216.665	16.976	907.277	683.496
217.680	16.962	906.571	682.846
218.694	17.020	905.819	682.455
219.709	16.982	905.076	681.682
220.723	16.916	904.717	681.084
221.738	17.103	903.351	680.745
222.753	17.036	902.838	680.032
223.767	17.096	902.623	680.049
224.782	17.176	902.136	679.941
225.796	17.267	901.264	679.587
226.811	17.324	900.359	679.072
227.826	17.000	899.995	677.446
228.840	17.139	898.775	677.023
229.855	17.064	898.015	676.090
230.869	17.144	897.376	675.867
231.884	17.092	896.746	675.125
232.899	16.930	896.294	674.084
233.913	16.875	895.559	673.252
234.928	16.923	895.120	673.054
235.942	16.865	894.677	672.429
236.957	17.067	893.710	672.443
237.972	17.073	892.979	671.860
238.986	16.943	892.734	671.101
240.001	17.113	891.913	671.096
241.015	17.086	891.181	670.378
242.030	17.127	890.980	670.329
243.045	17.081	890.355	669.620
244.059	17.162	889.648	669.348
245.074	17.188	889.063	668.950
246.088	17.321	888.408	668.921
247.103	17.410	887.776	668.737
248.117	17.429	887.480	668.529
249.132	17.555	887.254	668.795
250.147	17.749	886.748	669.115
251.161	17.768	885.582	668.252
252.176	17.797	884.913	667.802
253.190	17.825	884.688	667.682
254.205	17.916	883.587	667.148
255.220	17.823	883.307	666.512
256.234	17.817	882.797	666.047
257.249	17.808	882.070	665.401
258.263	17.761	881.440	664.685
259.278	17.912	880.315	664.368
260.293	17.830	880.275	663.959
261.307	17.964	879.186	663.600
262.322	18.020	879.059	663.664
263.336	17.992	877.973	662.675
264.351	18.013	877.285	662.177
265.366	18.117	876.993	662.302
266.380	17.986	876.142	661.092
267.395	17.905	875.398	660.159
268.409	17.924	874.481	659.485
269.424	18.006	874.099	659.454
270.439	17.910	872.748	658.007
271.453	17.833	872.814	657.701
272.468	17.792	872.225	657.041
273.482	17.884	871.312	656.650
274.497	17.758	871.109	655.956
275.512	17.785	870.466	655.516
276.526	17.836	870.130	655.401
277.541	17.857	869.557	654.991
278.555	17.900	869.292	654.898
279.570	18.309	868.316	655.673
280.585	18.128	867.692	654.450
281.599	18.024	866.716	653.258
282.614	18.015	865.825	652.496
283.628	17.960	865.426	651.925
284.643	18.009	864.953	651.699
285.657	17.997	864.330	651.127
286.672	17.971	863.964	650.692
287.687	18.051	863.371	650.495
288.701	18.021	862.689	649.809
289.716	18.119	861.954	649.571
290.730	18.198	861.463	649.442
291.745	18.233	860.901	649.094
292.760	18.129	860.472	648.317
293.774	18.343	859.736	648.518
294.789	18.298	859.140	647.841
295.803	18.203	858.010	646.573
296.818	18.138	857.390	645.801
297.833	18.010	856.900	644.894
298.847	18.301	856.299	645.483
299.862	18.349	855.664	645.126
300.876	18.373	855.445	644.995
301.891	18.354	854.940	644.486
302.906	18.633	854.002	644.770
303.920	18.584	853.916	644.465
304.935	18.595	853.411	644.068
305.949	18.488	852.538	642.948
306.964	18.455	851.862	642.259
307.979	18.546	851.342	642.151
308.993	18.378	851.159	641.329
310.008	18.699	850.324	641.843
311.022	18.393	849.486	640.009
312.037	18.259	849.214	639.246
313.052	18.398	848.221	638.963
314.066	18.220	847.744	637.882
315.081	18.281	847.183	637.631
316.095	18.382	846.732	637.612
317.110	18.234	846.035	636.479
318.125	18.422	845.581	636.778
319.139	18.269	845.208	635.874
320.154	18.372	844.806	635.897
321.168	18.459	844.102	635.634
322.183	18.358	843.700	634.900
323.197	18.490	843.121	634.897
324.212	18.350	842.597	633.931
325.227	18.494	841.813	633.817
326.241	18.405	841.354	633.086
327.256	18.503	840.870	633.027
328.270	18.342	840.436	632.052
329.285	18.472	839.373	631.673
330.300	18.519	838.804	631.362
331.314	18.431	838.919	631.070
332.329	18.590	838.201	631.059
333.343	18.684	837.752	631.012
334.358	18.550	837.463	630.246
335.373	18.678	837.007	630.314
336.387	18.592	836.924	629.880
337.402	18.590	836.720	629.666
338.416	18.874	836.014	630.120
339.431	18.898	835.821	630.006
340.446	18.962	835.388	629.857
341.460	19.025	835.038	629.770
342.475	18.962	834.877	629.363
343.489	19.066	834.139	629.131
344.504	19.176	833.470	628.970
345.519	19.087	832.898	628.160
346.533	19.037	832.923	627.940
347.548	18.911	832.058	626.773
348.562	18.768	831.758	625.972
349.577	18.841	830.772	625.438
350.592	18.750	830.086	624.534
351.606	18.759	829.583	624.134
352.621	18.775	829.047	623.736
353.635	18.893	828.228	623.493
354.650	18.882	827.557	622.893
355.665	18.958	827.202	622.844
356.679	19.031	826.504	622.528
357.694	19.120	825.635	622.140
358.708	19.056	825.025	621.396
359.723	18.851	825.125	620.674
360.738	19.081	823.548	620.261
361.752	19.230	823.396	620.631
362.767	19.118	823.169	619.998
363.781	19.217	822.622	619.890
364.796	19.408	821.816	619.914
365.810	19.446	821.956	620.100
366.825	19.444	821.361	619.591
367.840	19.442	820.685	619.020
368.854	19.384	820.314	618.476
369.869	19.274	820.135	617.891
370.883	19.341	819.600	617.674
371.898	19.461	819.390	617.889
372.913	19.447	818.966	617.467
373.927	19.365	818.628	616.865
374.942	19.547	817.849	616.871
375.956	19.595	817.450	616.690
376.971	19.698	816.801	616.510
377.986	19.635	816.650	616.118
379.000	19.606	816.071	615.524
380.015	19.704	815.487	615.377
381.029	19.747	815.003	615.112
382.044	19.647	814.178	614.079
383.059	19.640	813.818	613.726
384.073	19.796	812.969	613.587
385.088	19.485	812.383	611.986
386.102	19.526	812.146	611.898
387.117	19.417	811.477	610.953
388.132	19.488	810.689	610.559
389.146	19.462	810.479	610.254
390.161	19.585	809.991	610.270
391.175	19.602	809.850	610.170
392.190	19.685	808.971	609.747
393.205	19.538	808.537	608.847
394.219	19.504	808.550	608.680
395.234	19.481	807.975	608.115
396.248	19.417	807.160	607.220
397.263	19.459	806.846	607.080
398.278	19.470	806.236	606.604
399.292	19.389	806.220	606.255
400.307	19.437	805.625	605.922
401.321	19.323	804.846	604.881
402.336	19.457	804.696	605.187
403.350	19.651	804.299	605.515
404.365	19.878	803.652	605.769
405.380	19.911	803.366	605.615
406.394	19.981	803.116	605.618
407.409	19.954	802.562	605.051
408.423	19.969	802.519	605.019
409.438	20.027	801.664	604.521
410.453	20.086	801.581	604.611
411.467	20.060	801.054	604.071
412.482	20.347	800.642	604.706
413.496	20.359	799.797	604.055
414.511	20.273	799.315	603.339
415.526	20.214	799.100	602.919
416.540	20.133	798.895	602.429
417.555	20.064	798.610	601.921
418.569	20.178	797.865	601.703
419.584	20.179	797.539	601.408
420.599	20.156	797.021	600.881
421.613	162.536	1371.718	1797.451
422.628	141.041	1455.441	1797.541
