DTS Sentinel unit serial number:	SN413079Multiplexer serial number:	ORYXHardware model number:	OX4-SRSoftware version number:	ORYX F/W v4.00 Oryx Data Collector v3.7.2.0data status	okinstallation	princeton_trtdifferential loss correction	single-endedforward channel	channel 1reverse channel	N/Adate	2019/09/19time	07:50:35forward acquisition time	60.00reverse acquisition time	0.00gamma	496.2192k internal	0.2342k external	0.2342temperature offset calibration	1.0005default loss term (dB/km)	0.3790temperature slope calibration	1.0000multiplexer offset coefficient	1.0000multiplexer slope coefficient	1.0000fibre end	0.00T internal ref (°C)	19.62T ext. ref 1 (°C)	0.55T ext. ref 2 (°C)	14.91length (m)	temperature (°C)	Stokes	anti-Stokes-747.200	190.009	-0.113	0.169
-746.185	-200.000	0.041	0.182
-745.171	-87.330	-0.229	-0.070
-744.156	220.114	-0.094	0.151
-743.142	-200.000	-0.002	0.387
-742.127	203.004	-0.048	-0.074
-741.112	-78.862	0.413	0.141
-740.098	33.032	-0.224	0.194
-739.083	-132.551	-0.431	-0.055
-738.069	-151.663	-0.279	-0.021
-737.054	-200.000	0.019	0.095
-736.039	-104.182	-0.301	-0.070
-735.025	-200.000	0.008	-0.177
-734.010	-61.178	-0.289	-0.122
-732.996	747.867	-0.092	-0.248
-731.981	-16.530	0.175	0.111
-730.966	259.388	-0.153	0.264
-729.952	-200.000	0.026	-0.162
-728.937	-200.000	-0.022	0.163
-727.923	-46.667	-0.201	0.099
-726.908	187.480	0.020	0.030
-725.894	96.481	-0.109	0.125
-724.879	-87.490	-0.105	-0.032
-723.864	-121.266	0.068	0.011
-722.850	-83.649	-0.148	-0.047
-721.835	70.209	0.112	0.116
-720.821	-99.616	-0.137	0.034
-719.806	30.558	-0.066	0.056
-718.791	-200.000	0.017	0.176
-717.777	800.000	0.080	0.282
-716.762	-72.904	-0.173	-0.063
-715.748	453.648	-0.175	-0.387
-714.733	45.069	0.448	-0.413
-713.718	-52.815	-0.185	0.085
-712.704	16.923	-0.074	-0.058
-711.689	112.019	0.315	0.380
-710.675	800.000	0.128	0.522
-709.660	-89.726	-0.215	-0.063
-708.645	-43.397	-0.095	0.048
-707.631	-158.317	-0.096	-0.006
-706.616	-100.082	-0.249	-0.062
-705.602	150.392	0.034	-0.047
-704.587	-200.000	0.005	0.052
-703.572	-37.854	-0.387	0.206
-702.558	1.071	0.073	-0.053
-701.543	-200.000	0.032	0.168
-700.529	800.000	0.024	0.072
-699.514	-75.116	-0.155	-0.056
-698.499	-117.111	-0.115	-0.021
-697.485	34.014	-0.205	-0.179
-696.470	50.245	0.185	0.175
-695.456	-60.401	-0.269	0.114
-694.441	68.219	-0.130	-0.133
-693.426	-200.000	-0.020	0.277
-692.412	277.580	-0.113	-0.201
-691.397	527.915	0.057	-0.133
-690.383	178.881	0.061	0.089
-689.368	-200.000	-0.049	0.216
-688.354	-102.619	-0.056	0.013
-687.339	-94.382	0.471	0.129
-686.324	-200.000	0.010	-0.073
-685.310	157.702	-0.126	-0.174
-684.295	800.000	-0.043	0.162
-683.281	-5.282	0.334	0.229
-682.266	20.559	0.123	0.100
-681.251	800.000	0.077	-0.281
-680.237	-200.000	0.012	-0.059
-679.222	-200.000	-0.021	0.092
-678.208	800.000	-0.050	0.188
-677.193	800.000	0.011	0.038
-676.178	672.273	-0.076	-0.197
-675.164	-34.961	-0.041	0.023
-674.149	-102.581	-0.217	0.052
-673.135	-39.187	-0.227	0.119
-672.120	97.920	-0.086	0.099
-671.105	-200.000	-0.026	-0.351
-670.091	213.010	-0.077	-0.121
-669.076	725.585	-0.097	-0.258
-668.062	800.000	-0.147	-0.524
-667.047	800.000	-0.090	-0.343
-666.032	-87.416	-0.301	0.091
-665.018	369.974	0.138	-0.278
-664.003	236.908	-0.147	-0.244
-662.989	-200.000	-0.034	-0.210
-661.974	-200.000	-0.027	0.211
-660.959	143.581	-0.109	0.145
-659.945	-200.000	-0.035	0.329
-658.930	-200.000	0.034	-0.193
-657.916	36.635	-0.078	0.069
-656.901	-24.123	-0.254	0.151
-655.886	-23.440	-0.131	-0.078
-654.872	-200.000	0.025	0.123
-653.857	-65.613	-0.315	0.126
-652.843	-91.278	0.134	-0.038
-651.828	386.971	-0.029	0.060
-650.814	800.000	0.036	-0.147
-649.799	185.497	0.074	0.110
-648.784	-84.979	-0.362	0.113
-647.770	102.314	-0.160	-0.186
-646.755	325.350	0.125	-0.238
-645.741	83.103	-0.325	-0.353
-644.726	-200.000	0.003	0.039
-643.711	800.000	0.041	-0.120
-642.697	800.000	0.045	0.148
-641.682	-83.268	-0.608	-0.195
-640.668	-67.980	-0.223	0.087
-639.653	-182.378	0.123	-0.002
-638.638	-184.528	-0.516	0.008
-637.624	763.269	0.100	-0.271
-636.609	-109.598	0.276	0.058
-635.595	-150.996	-0.269	-0.020
-634.580	123.190	0.238	-0.297
-633.565	800.000	0.142	-0.405
-632.551	274.054	0.120	-0.212
-631.536	-200.000	-0.030	-0.154
-630.522	68.858	0.156	0.160
-629.507	92.836	-0.202	0.227
-628.492	-66.630	0.194	0.077
-627.478	297.596	0.260	0.476
-626.463	-80.739	-0.380	0.126
-625.449	162.653	0.112	-0.156
-624.434	-46.857	0.049	-0.024
-623.419	1.000	-0.250	0.179
-622.405	466.621	0.075	-0.168
-621.390	-37.477	0.118	-0.063
-620.376	-99.607	-0.177	0.044
-619.361	-4.335	-0.114	0.078
-618.346	-9.812	-0.146	-0.097
-617.332	800.000	-0.065	0.248
-616.317	18.150	-0.152	0.121
-615.303	-101.369	-0.119	0.029
-614.288	-25.153	-0.187	-0.110
-613.273	17.403	-0.075	0.060
-612.259	94.732	0.136	-0.154
-611.244	-49.564	-0.157	0.075
-610.230	-111.447	-0.208	-0.042
-609.215	4.534	-0.106	0.078
-608.201	107.727	-0.317	0.376
-607.186	-200.000	0.007	-0.337
-606.171	30.076	-0.108	0.092
-605.157	15.425	-0.219	-0.171
-604.142	67.457	0.362	0.368
-603.128	11.929	-0.265	-0.203
-602.113	-8.788	-0.106	-0.071
-601.098	-191.818	-0.406	0.004
-600.084	-52.830	-0.315	0.145
-599.069	401.076	0.131	-0.273
-598.055	800.000	-0.046	-0.174
-597.040	800.000	-0.024	0.086
-596.025	52.195	0.300	-0.285
-595.011	-44.279	0.115	0.057
-593.996	-166.074	0.155	0.007
-592.982	-42.550	0.129	-0.066
-591.967	182.188	0.134	-0.196
-590.952	199.825	0.022	0.034
-589.938	100.127	0.200	-0.231
-588.923	109.111	-0.127	-0.152
-587.909	129.365	-0.133	0.170
-586.894	-100.952	-0.123	-0.030
-585.879	69.189	-0.272	-0.279
-584.865	171.882	0.127	0.181
-583.850	-103.338	0.061	0.014
-582.836	201.518	0.132	-0.202
-581.821	-117.857	-0.159	-0.028
-580.806	-147.411	-0.153	0.013
-579.792	-200.000	0.190	0.001
-578.777	250.040	-0.197	0.333
-577.763	-65.297	-0.117	-0.047
-576.748	800.000	-0.081	0.295
-575.733	-38.350	-0.249	0.131
-574.719	-41.728	0.060	-0.031
-573.704	9.811	0.330	-0.249
-572.690	185.020	0.133	-0.196
-571.675	-200.000	-0.024	-0.174
-570.661	48.615	-0.099	-0.093
-569.646	-57.580	0.163	-0.071
-568.631	4.274	0.183	-0.133
-567.617	204.279	0.075	0.115
-566.602	-200.000	-0.021	-0.307
-565.588	-13.101	-0.042	0.027
-564.573	800.000	-0.136	-0.533
-563.558	298.615	0.108	-0.198
-562.544	36.600	-0.221	0.194
-561.529	412.154	0.165	-0.349
-560.515	10.420	0.135	0.102
-559.500	-51.854	-0.383	-0.177
-558.485	128.546	0.250	-0.317
-557.471	53.424	0.219	0.209
-556.456	-104.812	0.279	0.064
-555.442	800.000	-0.112	-0.333
-554.427	800.000	-0.066	-0.211
-553.412	1.679	0.052	-0.037
-552.398	34.937	-0.307	-0.267
-551.383	-121.267	-0.082	0.014
-550.369	-72.823	-0.112	-0.041
-549.354	-200.000	-0.022	-0.170
-548.339	-200.000	0.015	0.079
-547.325	-62.578	-0.277	0.114
-546.310	13.791	0.193	0.149
-545.296	62.231	0.421	-0.418
-544.281	-95.594	-0.173	-0.046
-543.266	-42.914	-0.230	-0.116
-542.252	247.859	-0.073	0.122
-541.237	-162.387	-0.244	0.012
-540.223	340.818	0.141	-0.273
-539.208	291.063	0.021	-0.037
-538.193	-200.000	-0.025	0.138
-537.179	648.794	0.042	-0.107
-536.164	-17.075	0.355	-0.222
-535.150	-92.172	-0.344	-0.096
-534.135	-135.054	0.070	-0.008
-533.121	-2.108	0.247	0.172
-532.106	-89.172	0.100	-0.029
-531.091	-160.028	-0.367	-0.020
-530.077	-65.150	0.117	0.047
-529.062	-200.000	-0.113	0.000
-528.048	-200.000	-0.016	-0.345
-527.033	246.521	-0.180	0.302
-526.018	139.216	0.207	-0.270
-525.004	-152.866	-0.181	-0.013
-523.989	9.618	-0.118	-0.089
-522.975	-200.000	0.068	-0.307
-521.960	800.000	-0.055	0.197
-520.945	599.421	0.057	0.140
-519.931	-3.392	-0.134	0.092
-518.916	-200.000	-0.073	0.327
-517.902	800.000	0.121	0.356
-516.887	39.682	-0.074	-0.066
-515.872	97.840	0.221	0.252
-514.858	-158.354	-0.147	0.008
-513.843	800.000	0.012	-0.051
-512.829	-122.045	-0.112	-0.018
-511.814	-43.258	0.086	-0.043
-510.799	568.357	0.084	0.202
-509.785	96.929	0.180	-0.205
-508.770	-85.480	0.377	-0.116
-507.756	421.106	0.053	0.112
-506.741	89.455	-0.111	0.123
-505.726	-132.145	-0.139	0.018
-504.712	800.000	-0.070	0.238
-503.697	-155.929	-0.092	-0.006
-502.683	-62.603	0.154	0.063
-501.668	-200.000	-0.024	-0.329
-500.653	147.302	0.071	0.095
-499.639	-109.221	0.191	-0.040
-498.624	-95.611	0.289	0.077
-497.610	-112.273	0.203	-0.040
-496.595	279.596	0.053	-0.094
-495.581	152.050	-0.155	0.210
-494.566	800.000	-0.042	0.164
-493.551	46.928	-0.297	0.274
-492.537	-32.024	-0.266	-0.148
-491.522	800.000	0.139	0.485
-490.508	-8.819	-0.054	0.036
-489.493	212.382	0.175	-0.273
-488.478	45.595	-0.065	-0.059
-487.464	1.474	-0.051	0.036
-486.449	514.951	-0.079	-0.184
-485.435	-66.125	-0.226	0.089
-484.420	800.000	0.189	0.560
-483.405	73.408	0.124	-0.128
-482.391	-200.000	-0.048	0.213
-481.376	-134.872	0.240	-0.029
-480.362	-44.180	-0.162	-0.081
-479.347	25.995	0.122	0.101
-478.332	198.972	0.225	-0.342
-477.318	464.055	-0.124	-0.274
-476.303	61.121	0.148	0.146
-475.289	-18.856	-0.225	0.139
-474.274	-86.910	0.352	-0.106
-473.259	-200.000	0.002	-0.163
-472.245	-200.000	0.013	-0.164
-471.230	163.074	-0.106	0.147
-470.216	32.605	-0.164	0.141
-469.201	137.885	-0.140	-0.182
-468.186	154.216	-0.248	-0.338
-467.172	-55.183	-0.261	-0.116
-466.157	72.977	0.151	-0.157
-465.143	-105.580	-0.221	0.050
-464.128	-141.553	0.346	-0.035
-463.113	-65.181	-0.260	-0.104
-462.099	-16.138	-0.347	-0.218
-461.084	225.307	0.032	-0.051
-460.070	120.169	-0.198	0.244
-459.055	80.408	0.101	-0.108
-458.040	62.908	-0.261	0.259
-457.026	-122.604	-0.253	-0.041
-456.011	-134.398	-0.217	0.026
-454.997	-200.000	-0.006	-0.143
-453.982	432.428	0.011	-0.024
-452.968	-200.000	0.069	0.456
-451.953	-7.482	0.284	-0.191
-450.938	-200.000	0.042	0.251
-449.924	765.415	0.043	0.117
-448.909	-200.000	0.003	0.060
-447.895	175.443	-0.076	-0.109
-446.880	-42.889	0.254	-0.128
-445.865	-5.100	-0.138	-0.094
-444.851	109.049	-0.133	0.157
-443.836	800.000	0.011	0.038
-442.822	81.179	0.065	-0.070
-441.807	16.004	-0.162	-0.126
-440.792	800.000	-0.020	0.069
-439.778	-8.194	0.202	-0.135
-438.763	4.441	0.159	-0.115
-437.749	-200.000	-0.029	0.343
-436.734	-159.239	0.301	0.017
-435.719	-8.401	-0.308	-0.205
-434.705	21.755	0.111	0.090
-433.690	-190.059	0.083	0.001
-432.676	-38.379	0.221	-0.116
-431.661	-200.000	0.064	-0.381
-430.646	11.591	0.115	-0.087
-429.632	800.000	-0.032	0.089
-428.617	-200.000	-0.016	-0.103
-427.603	244.467	-0.086	-0.142
-426.588	800.000	-0.033	0.098
-425.573	316.764	-0.150	-0.280
-424.559	-187.134	0.233	-0.003
-423.544	-138.188	-0.093	-0.010
-422.530	122.014	0.119	-0.147
-421.515	-167.685	0.090	-0.004
-420.500	-27.096	0.195	-0.112
-419.486	-123.324	-0.356	-0.056
-418.471	-111.270	-0.342	0.069
-417.457	-73.273	-0.308	-0.112
-416.442	296.766	0.165	0.299
-415.428	800.000	0.011	0.033
-414.413	137.190	0.161	0.208
-413.398	-200.000	0.027	0.275
-412.384	-59.508	-0.134	0.057
-411.369	150.470	0.189	0.254
-410.355	-33.938	-0.111	0.060
-409.340	28.097	-0.174	0.145
-408.325	-30.567	-0.290	0.163
-407.311	45.186	0.040	-0.037
-406.296	-106.340	0.440	0.097
-405.282	23.151	-0.036	0.029
-404.267	1.916	0.172	0.123
-403.252	-0.695	-0.143	-0.100
-402.238	91.022	-0.288	0.319
-401.223	6.495	0.103	-0.076
-400.209	21.358	0.231	0.186
-399.194	800.000	0.098	0.342
-398.179	-200.000	0.000	-0.005
-397.165	139.700	0.109	0.142
-396.150	-66.942	0.113	0.044
-395.136	264.634	-0.125	-0.216
-394.121	-127.832	-0.228	0.032
-393.106	278.170	0.169	0.297
-392.092	75.179	0.127	-0.132
-391.077	666.890	0.012	0.030
-390.063	132.666	-0.155	-0.198
-389.048	633.164	-0.128	-0.321
-388.033	-62.647	-0.267	0.109
-387.019	61.518	-0.189	0.185
-386.004	-59.153	0.062	0.027
-384.990	24.739	0.261	-0.213
-383.975	-200.000	-0.024	-0.232
-382.960	800.000	-0.065	-0.193
-381.946	-200.000	-0.003	0.469
-380.931	20.226	0.173	0.138
-379.917	-62.473	-0.231	-0.095
-378.902	-200.000	-0.019	-0.424
-377.888	-187.001	-0.188	-0.003
-376.873	-186.540	0.213	0.003
-375.858	-46.036	-0.122	0.059
-374.844	-200.000	-0.021	-0.188
-373.829	-200.000	0.016	0.141
-372.815	-23.134	0.206	0.123
-371.800	456.023	0.049	-0.107
-370.785	-200.000	-0.013	0.254
-369.771	-200.000	-0.011	0.098
-368.756	-143.745	0.250	0.023
-367.742	-200.000	-0.025	0.189
-366.727	-200.000	0.028	0.256
-365.712	-81.788	-0.088	-0.028
-364.698	-117.569	0.223	0.040
-363.683	150.509	-0.132	0.177
-362.669	259.375	0.093	0.159
-361.654	-19.063	0.198	0.122
-360.639	-48.569	0.088	-0.042
-359.625	167.110	0.079	-0.111
-358.610	232.439	-0.126	-0.204
-357.596	16.289	-0.180	-0.140
-356.581	-34.489	-0.184	-0.099
-355.566	-54.759	0.259	-0.115
-354.552	1.548	0.272	0.193
-353.537	426.661	0.054	0.115
-352.523	-200.000	-0.007	-0.287
-351.508	314.096	-0.084	0.156
-350.493	-145.120	-0.212	0.019
-349.479	800.000	-0.036	0.100
-348.464	-110.231	0.231	0.048
-347.450	400.460	0.176	-0.365
-346.435	251.752	-0.276	0.463
-345.420	404.705	-0.035	0.072
-344.406	-96.537	0.214	0.056
-343.391	215.951	-0.069	-0.108
-342.377	62.040	-0.213	0.209
-341.362	-200.000	-0.007	0.046
-340.348	462.291	-0.215	0.472
-339.333	82.244	0.193	0.206
-338.318	-1.861	-0.149	-0.103
-337.304	290.127	0.189	-0.339
-336.289	-154.630	0.239	-0.016
-335.275	190.264	-0.089	0.132
-334.260	-87.396	-0.113	-0.034
-333.245	213.408	-0.120	-0.188
-332.231	-157.987	0.217	-0.013
-331.216	145.653	-0.127	-0.168
-330.202	-200.000	-0.026	-0.392
-329.187	34.537	-0.178	0.153
-328.172	800.000	0.088	-0.283
-327.158	-69.412	-0.328	0.124
-326.143	-116.108	-0.348	0.064
-325.129	-200.000	-0.016	-0.154
-324.114	800.000	-0.088	0.240
-323.099	-47.364	0.131	0.063
-322.085	471.218	0.149	0.331
-321.070	-64.769	0.337	0.135
-320.056	-48.880	0.181	0.086
-319.041	-83.886	-0.218	-0.069
-318.026	166.143	0.100	0.139
-317.012	-83.401	0.251	-0.079
-315.997	-23.746	-0.228	0.135
-314.983	-38.722	-0.158	-0.082
-313.968	776.321	0.045	0.121
-312.953	800.000	0.076	0.234
-311.939	15.650	0.064	0.049
-310.924	-200.000	0.005	0.281
-309.910	-200.000	0.009	0.123
-308.895	-45.543	0.147	0.072
-307.880	-200.000	-0.004	0.187
-306.866	51.576	0.059	-0.055
-305.851	-200.000	-0.002	-0.156
-304.837	-200.000	-0.027	-0.315
-303.822	9.241	-0.227	-0.169
-302.807	107.655	0.105	0.123
-301.793	-200.000	0.023	-0.155
-300.778	-200.000	0.012	-0.066
-299.764	-89.595	0.441	0.127
-298.749	154.361	0.220	-0.297
-297.735	755.253	-0.059	0.158
-296.720	-200.000	0.001	0.176
-295.705	-169.432	0.182	0.007
-294.691	498.032	0.169	0.383
-293.676	800.000	0.112	0.369
-292.662	21.406	-0.106	-0.085
-291.647	-75.647	0.197	-0.069
-290.632	-117.527	-0.283	0.050
-289.618	-120.739	0.261	0.043
-288.603	87.379	0.136	-0.149
-287.589	-134.545	-0.372	0.045
-286.574	-200.000	0.013	0.434
-285.559	18.188	-0.290	0.228
-284.545	-200.000	0.051	0.373
-283.530	10.182	0.328	0.246
-282.516	65.677	0.153	-0.153
-281.501	-200.000	0.063	-0.301
-280.486	-48.153	0.022	0.010
-279.472	691.073	0.141	0.364
-278.457	-200.000	0.008	0.123
-277.443	21.659	0.240	0.193
-276.428	-69.793	0.211	-0.079
-275.413	800.000	0.041	-0.156
-274.399	800.000	-0.100	-0.311
-273.384	800.000	0.041	-0.121
-272.370	211.644	0.154	0.239
-271.355	231.007	-0.050	0.080
-270.340	179.537	0.203	-0.293
-269.326	-62.748	-0.205	0.084
-268.311	-122.812	0.130	0.021
-267.297	378.797	0.114	0.229
-266.282	-200.000	-0.004	-0.122
-265.267	-85.177	-0.170	0.052
-264.253	800.000	0.045	-0.166
-263.238	-200.000	-0.034	-0.201
-262.224	235.653	-0.070	-0.113
-261.209	126.510	-0.026	-0.032
-260.195	-200.000	-0.002	0.084
-259.180	231.633	-0.173	-0.279
-258.165	-112.800	-0.193	-0.038
-257.151	-142.739	0.121	0.012
-256.136	26.009	-0.114	-0.093
-255.122	-200.000	0.007	-0.313
-254.107	539.184	0.070	0.163
-253.092	-200.000	0.015	0.270
-252.078	23.538	0.143	0.115
-251.063	-108.080	-0.298	-0.063
-250.049	45.170	0.251	0.227
-249.034	-200.000	-0.044	-0.243
-248.019	32.595	-0.231	-0.196
-247.005	24.698	0.336	-0.273
-245.990	-108.245	-0.096	-0.020
-244.976	-55.230	-0.205	-0.091
-243.961	-59.527	0.042	-0.018
-242.946	-200.000	-0.015	-0.066
-241.932	450.910	0.012	-0.026
-240.917	-95.570	0.146	0.039
-239.903	-22.064	-0.146	-0.087
-238.888	-20.190	0.147	-0.089
-237.873	29.222	-0.145	0.121
-236.859	236.757	-0.211	0.343
-235.844	-100.664	-0.074	-0.018
-234.830	-121.508	0.336	0.055
-233.815	9.761	-0.140	-0.104
-232.800	-37.587	0.113	-0.059
-231.786	800.000	0.005	0.017
-230.771	-17.242	-0.315	-0.195
-229.757	120.404	0.175	-0.213
-228.742	155.059	-0.208	0.281
-227.727	-200.000	0.013	-0.132
-226.713	6.810	-0.244	-0.178
-225.698	85.825	0.258	0.278
-224.684	237.199	0.057	0.093
-223.669	112.249	-0.159	-0.189
-222.655	-81.520	0.261	-0.084
-221.640	89.055	-0.461	-0.504
-220.625	-49.623	0.360	0.168
-219.611	-200.000	-0.030	0.157
-218.596	-200.000	0.017	0.200
-217.582	645.735	0.115	0.288
-216.567	57.001	0.169	0.162
-215.552	458.470	0.146	0.319
-214.538	-200.000	-0.057	0.400
-213.523	612.059	-0.021	0.052
-212.509	-67.378	0.217	0.084
-211.494	-200.000	-0.015	-0.086
-210.479	-68.910	0.094	0.036
-209.465	-47.970	0.199	-0.095
-208.450	-200.000	-0.084	0.365
-207.436	-94.752	0.206	0.055
-206.421	191.704	-0.092	0.136
-205.406	-62.334	-0.464	0.190
-204.392	241.109	0.245	-0.402
-203.377	-200.000	0.005	-0.032
-202.363	800.000	0.066	-0.207
-201.348	-112.706	-0.151	0.030
-200.333	350.166	-0.073	0.141
-199.319	295.238	0.114	-0.205
-198.304	-50.356	0.136	0.063
-197.290	-200.000	0.037	-0.257
-196.275	457.220	-0.162	0.352
-195.260	5.994	0.230	-0.167
-194.246	-200.000	0.048	0.265
-193.231	-171.542	0.232	0.008
-192.217	629.585	0.115	-0.286
-191.202	1.438	-0.049	-0.035
-190.187	-200.000	-0.018	-0.207
-189.173	-42.115	-0.326	0.163
-188.158	162.710	0.097	-0.134
-187.144	92.803	0.166	0.183
-186.129	18.079	-0.122	-0.095
-185.114	109.660	0.236	0.278
-184.100	-6.177	-0.294	0.197
-183.085	-7.004	0.030	-0.020
-182.071	-35.350	0.217	-0.115
-181.056	-49.886	0.254	0.118
-180.042	-173.961	0.413	0.012
-179.027	-1.301	0.195	-0.135
-178.012	-141.873	-0.172	0.017
-176.998	-71.257	0.030	-0.011
-175.983	222.338	0.211	-0.332
-174.969	203.055	-0.066	-0.100
-173.954	15.881	0.119	-0.092
-172.939	-149.712	0.045	-0.003
-171.925	800.000	0.101	-0.376
-170.910	-200.000	-0.058	0.302
-169.896	-200.000	0.057	-0.433
-168.881	25.638	0.264	0.215
-167.866	-150.568	0.149	0.011
-166.852	442.117	-0.036	-0.077
-165.837	-200.000	-0.008	0.053
-164.823	-95.646	-0.303	-0.079
-163.808	468.028	0.136	-0.299
-162.793	45.058	0.055	0.049
-161.779	-200.000	-0.001	0.230
-160.764	-63.955	-0.083	-0.033
-159.750	-85.470	-0.064	-0.020
-158.735	116.266	0.094	-0.113
-157.720	-200.000	0.012	0.181
-156.706	162.834	-0.106	0.146
-155.691	375.402	-0.094	-0.187
-154.677	71.784	0.218	0.222
-153.662	17.531	-0.151	0.118
-152.647	16.098	-0.165	0.127
-151.633	800.000	0.060	0.168
-150.618	280.080	0.149	0.261
-149.604	-200.000	-0.537	0.003
-148.589	567.569	-0.020	-0.048
-147.574	-169.199	-0.136	0.005
-146.560	114.929	0.068	-0.081
-145.545	99.599	0.147	-0.166
-144.531	-200.000	-0.011	0.183
-143.516	-28.712	-0.143	-0.080
-142.502	-4.367	-0.164	-0.111
-141.487	-80.815	0.224	-0.073
-140.472	-66.358	0.067	0.026
-139.458	-200.000	-0.015	0.173
-138.443	-20.185	-0.407	0.245
-137.429	194.644	0.190	0.281
-136.414	17.891	-0.166	0.129
-135.399	152.134	0.181	0.241
-134.385	-200.000	-0.009	-0.118
-133.370	-21.874	-0.170	0.101
-132.356	800.000	-0.103	0.313
-131.341	-81.277	0.108	0.035
-130.326	254.205	0.075	0.126
-129.312	32.231	-0.283	0.238
-128.297	800.000	-0.006	-0.018
-127.283	-142.188	0.259	-0.025
-126.268	9.916	-0.018	-0.014
-125.253	51.522	0.134	0.124
-124.239	-200.000	0.012	0.170
-123.224	-200.000	0.005	-0.127
-122.210	125.063	-0.024	-0.029
-121.195	800.000	-0.064	0.189
-120.180	-200.000	-0.074	-0.322
-119.166	-164.412	0.146	-0.007
-118.151	113.821	-0.110	0.131
-117.137	-27.606	-0.200	0.114
-116.122	-130.272	0.121	-0.016
-115.107	156.401	-0.075	0.101
-114.093	496.850	-0.070	-0.158
-113.078	370.128	0.110	-0.218
-112.064	-93.867	-0.082	-0.022
-111.049	800.000	0.060	0.199
-110.034	123.470	-0.149	0.182
-109.020	272.950	0.140	-0.242
-108.005	4.657	0.153	0.109
-106.991	-15.084	0.096	0.060
-105.976	337.640	-0.157	0.298
-104.962	264.601	-0.059	-0.100
-103.947	316.432	0.168	-0.310
-102.932	-113.550	-0.271	0.052
-101.918	-200.000	0.092	0.447
-100.903	800.000	-0.022	0.090
-99.889	800.000	-0.123	0.343
-98.874	-70.789	0.017	0.006
-97.859	576.383	0.138	0.330
-96.845	-200.000	-0.030	0.220
-95.830	800.000	-0.090	0.283
-94.816	-101.501	0.194	-0.046
-93.801	123.973	-0.116	0.143
-92.786	-12.251	0.160	-0.102
-91.772	800.000	-0.037	0.118
-90.757	-79.851	-0.097	0.032
-89.743	-200.000	-0.010	0.327
-88.728	-200.000	-0.002	0.294
-87.713	26.041	-0.102	-0.083
-86.699	-129.450	0.438	-0.059
-85.684	-49.331	-0.082	0.038
-84.670	800.000	0.063	0.198
-83.655	-68.846	0.155	0.058
-82.640	-200.000	-0.014	-0.166
-81.626	-200.000	0.046	0.422
-80.611	-70.421	0.351	-0.130
-79.597	91.802	0.162	0.178
-78.582	20.444	-0.089	0.070
-77.567	-200.000	0.012	0.055
-76.553	-200.000	0.054	0.255
-75.538	-143.839	-0.104	-0.010
-74.524	-98.557	0.418	0.104
-73.509	47.159	0.203	-0.185
-72.494	166.060	0.164	0.227
-71.480	-122.716	0.374	0.059
-70.465	-120.030	-0.381	0.064
-69.451	-155.721	0.341	-0.021
-68.436	800.000	0.094	0.273
-67.422	-164.463	0.139	0.006
-66.407	4.755	-0.302	-0.216
-65.392	447.153	0.089	0.190
-64.378	-200.000	0.080	0.386
-63.363	25.075	-0.287	0.232
-62.349	-127.477	-0.109	0.015
-61.334	36.785	-1.275	-1.099
-60.319	-11.375	0.946	0.607
-59.305	685.374	-0.531	-1.351
-58.290	295.360	0.942	1.681
-57.276	-200.000	0.326	1.525
-56.261	-200.000	135.713	635.589
-55.246	332.340	1656.238	3118.233
-54.232	134.402	2796.073	3535.541
-53.217	83.100	2171.810	2304.439
-52.203	30.433	1600.871	1333.944
-51.188	22.595	1350.774	1077.786
-50.173	20.717	1315.296	1038.242
-49.159	47.467	1390.389	1263.512
-48.144	43.262	1399.127	1245.518
-47.130	22.741	1346.583	1075.162
-46.115	19.717	1327.910	1042.009
-45.100	19.606	1322.230	1036.843
-44.086	19.550	1319.840	1034.595
-43.071	19.632	1317.228	1032.997
-42.057	19.446	1315.834	1030.752
-41.042	19.602	1314.219	1030.375
-40.027	19.631	1312.741	1029.348
-39.013	19.487	1311.077	1027.146
-37.998	19.561	1309.398	1026.226
-36.984	19.632	1307.359	1025.010
-35.969	19.664	1305.379	1023.605
-34.954	19.705	1303.864	1022.621
-33.940	19.728	1302.528	1021.672
-32.925	19.817	1300.983	1020.943
-31.911	19.735	1299.690	1019.406
-30.896	19.795	1297.712	1018.168
-29.881	19.697	1297.192	1017.141
-28.867	19.718	1295.488	1015.884
-27.852	19.595	1294.371	1014.247
-26.838	19.704	1292.874	1013.672
-25.823	19.640	1291.737	1012.368
-24.809	19.751	1290.001	1011.617
-23.794	19.647	1289.309	1010.427
-22.779	19.734	1287.319	1009.337
-21.765	19.726	1286.319	1008.461
-20.750	19.568	1285.394	1006.778
-19.736	19.599	1283.877	1005.731
-18.721	19.598	1282.407	1004.534
-17.706	19.625	1281.165	1003.675
-16.692	19.549	1280.485	1002.660
-15.677	19.570	1278.755	1001.389
-14.663	19.674	1277.548	1001.010
-13.648	19.617	1276.515	999.828
-12.633	19.603	1276.120	999.396
-11.619	19.468	1275.527	998.115
-10.604	19.592	1274.219	997.767
-9.590	19.614	1273.039	996.931
-8.575	19.463	1272.489	995.587
-7.560	19.515	1271.264	994.890
-6.546	19.591	1270.209	994.464
-5.531	19.485	1270.213	993.816
-4.517	19.660	1268.742	993.630
-3.502	19.607	1268.354	992.983
-2.487	19.521	1267.498	991.782
-1.473	19.550	1262.757	988.199
-0.458	18.210	1247.729	968.814
0.556	14.128	1233.358	935.677
1.571	10.854	1242.610	924.029
2.586	10.270	1259.184	932.908
3.600	10.532	1246.387	924.840
4.615	7.864	1174.265	856.899
5.629	2.827	1105.104	780.781
6.644	0.703	1088.883	758.601
7.659	0.556	1087.659	756.946
8.673	0.505	1086.441	755.776
9.688	0.435	1085.507	754.709
10.702	0.605	1082.623	753.485
11.717	3.671	1085.593	770.804
12.731	9.852	1093.960	807.689
13.746	15.060	1101.472	839.337
14.761	16.936	1103.523	850.243
15.775	16.321	1101.554	845.570
16.790	15.414	1099.654	839.504
17.804	14.710	1098.051	834.684
18.819	14.396	1096.801	832.096
19.834	14.143	1096.036	830.176
20.848	13.973	1094.897	828.394
21.863	13.733	1094.020	826.463
22.877	13.576	1093.167	824.961
23.892	13.522	1092.411	824.051
24.907	13.552	1091.976	823.798
25.921	13.327	1091.550	822.286
26.936	13.621	1090.091	822.574
27.950	13.558	1089.264	821.563
28.965	13.574	1087.684	820.379
29.980	13.655	1086.496	819.809
30.994	13.692	1085.078	818.849
32.009	13.679	1084.896	818.577
33.023	13.764	1083.453	817.836
34.038	13.559	1082.888	816.324
35.053	13.616	1082.077	815.923
36.067	13.636	1080.596	814.833
37.082	13.663	1080.077	814.502
38.096	13.519	1079.664	813.413
39.111	13.591	1078.527	812.836
40.126	13.622	1077.238	811.943
41.140	13.496	1076.084	810.386
42.155	13.488	1074.898	809.384
43.169	13.464	1073.716	808.303
44.184	13.604	1072.801	808.228
45.199	13.480	1071.744	806.754
46.213	13.572	1070.568	806.245
47.228	13.468	1069.741	805.043
48.242	13.544	1068.539	804.437
49.257	13.552	1067.652	803.737
50.271	13.638	1066.190	802.984
51.286	13.628	1065.950	802.685
52.301	13.667	1064.786	801.924
53.315	13.616	1063.644	800.748
54.330	13.572	1062.997	799.976
55.344	13.500	1062.312	799.040
56.359	13.632	1061.196	798.767
57.374	13.502	1060.127	797.267
58.388	13.504	1059.534	796.761
59.403	13.474	1058.639	795.875
60.417	13.475	1057.704	795.103
61.432	13.420	1056.883	794.153
62.447	13.350	1056.171	793.213
63.461	13.434	1055.002	792.666
64.476	13.403	1054.388	791.988
65.490	13.490	1053.222	791.456
66.505	13.511	1052.755	791.138
67.520	13.512	1052.104	790.580
68.534	13.420	1051.501	789.619
69.549	13.444	1050.722	789.079
70.563	13.510	1050.335	789.031
71.578	13.369	1048.867	787.189
72.593	13.412	1048.320	786.915
73.607	13.410	1048.017	786.605
74.622	13.386	1047.366	785.937
75.636	13.482	1045.937	785.250
76.651	13.282	1045.876	784.183
77.666	13.238	1045.522	783.641
78.680	13.283	1044.359	782.913
79.695	13.421	1043.517	782.866
80.709	13.514	1042.752	782.660
81.724	13.427	1042.049	781.654
82.739	13.560	1040.850	781.312
83.753	13.594	1040.496	781.138
84.768	13.607	1039.361	780.278
85.782	13.678	1038.720	780.062
86.797	13.605	1037.480	778.718
87.812	13.513	1037.026	777.879
88.826	13.602	1035.855	777.347
89.841	13.582	1034.856	776.437
90.855	13.597	1034.184	775.930
91.870	13.725	1032.857	775.465
92.884	13.681	1032.038	774.577
93.899	13.737	1031.578	774.424
94.914	13.773	1030.238	773.519
95.928	13.739	1029.965	773.085
96.943	13.729	1028.660	771.995
97.957	13.596	1028.063	770.856
98.972	13.779	1026.862	770.741
99.987	13.603	1026.161	769.326
101.001	13.643	1024.883	768.485
102.016	13.734	1023.839	768.059
103.030	13.675	1023.436	767.414
104.045	13.653	1022.453	766.507
105.060	13.647	1021.454	765.663
106.074	13.638	1020.264	764.662
107.089	13.490	1019.697	763.487
108.103	13.520	1018.612	762.743
109.118	13.616	1017.720	762.449
110.133	13.618	1016.663	761.602
111.147	13.519	1015.811	760.440
112.162	13.636	1014.667	760.052
113.176	13.606	1014.193	759.493
114.191	13.564	1013.539	758.744
115.206	13.616	1012.840	758.394
116.220	13.621	1011.999	757.717
117.235	13.628	1010.879	756.845
118.249	13.692	1009.944	756.369
119.264	13.576	1009.545	755.475
120.279	13.543	1008.969	754.826
121.293	13.522	1007.970	753.917
122.308	13.609	1006.999	753.521
123.322	13.701	1006.048	753.160
124.337	13.619	1004.624	751.653
125.352	13.538	1003.956	750.721
126.366	13.637	1002.694	750.160
127.381	13.512	1001.692	748.780
128.395	13.580	1000.837	748.380
129.410	13.491	999.980	747.271
130.424	13.600	998.819	746.828
131.439	13.658	997.823	746.279
132.454	13.615	996.760	745.226
133.468	13.651	996.460	745.094
134.483	13.691	995.106	744.199
135.497	13.852	994.239	744.205
136.512	13.642	993.563	742.692
137.527	13.645	992.508	741.849
138.541	13.759	992.124	742.010
139.556	13.745	991.242	741.219
140.570	13.664	990.827	740.483
141.585	13.793	989.787	740.215
142.600	13.693	988.796	738.965
143.614	13.805	988.176	738.934
144.629	13.731	987.502	738.033
145.643	13.818	985.933	737.185
146.658	13.681	985.774	736.391
147.673	13.808	984.326	735.809
148.687	13.814	983.614	735.238
149.702	13.677	982.825	733.977
150.716	13.864	981.579	733.807
151.731	13.825	981.217	733.300
152.746	13.722	980.837	732.498
153.760	13.783	979.899	731.998
154.775	13.858	979.559	732.012
155.789	13.899	978.856	731.603
156.804	13.852	977.949	730.653
157.819	13.866	977.387	730.228
158.833	13.733	977.134	729.393
159.848	13.937	976.178	729.509
160.862	13.857	975.370	728.488
161.877	13.940	974.099	727.840
162.892	13.947	973.031	727.009
163.906	13.789	972.309	725.712
164.921	13.882	971.493	725.444
165.935	14.070	970.146	725.195
166.950	13.994	969.599	724.390
167.964	14.060	968.465	723.767
168.979	14.000	967.526	722.742
169.994	13.950	966.982	722.053
171.008	14.070	965.981	721.765
172.023	14.006	965.528	721.083
173.037	14.125	964.681	720.905
174.052	14.056	964.466	720.378
175.067	14.087	963.219	719.518
176.081	13.989	962.718	718.658
177.096	14.027	962.518	718.609
178.110	14.063	961.772	718.141
179.125	14.109	960.911	717.637
180.140	14.165	960.420	717.446
181.154	14.022	960.194	716.598
182.169	14.021	959.837	716.263
183.183	14.124	959.143	716.125
184.198	14.315	957.818	715.894
185.213	14.294	956.815	714.990
186.227	14.199	956.217	714.075
187.242	14.347	955.669	714.235
188.256	14.314	954.894	713.451
189.271	14.231	954.180	712.500
190.286	14.208	953.487	711.821
191.300	14.285	952.716	711.513
192.315	14.143	952.591	710.747
193.329	14.228	951.594	710.304
194.344	14.156	951.144	709.596
195.359	14.171	950.744	709.300
196.373	14.162	949.996	708.642
197.388	14.381	949.330	709.014
198.402	14.431	948.792	708.764
199.417	14.525	947.670	708.260
200.432	14.424	947.508	707.648
201.446	14.550	946.794	707.587
202.461	14.480	946.543	707.041
203.475	14.380	946.044	706.179
204.490	14.621	945.016	706.371
205.504	14.483	944.339	705.221
206.519	14.474	943.656	704.609
207.534	14.516	942.706	704.015
208.548	14.491	942.107	703.397
209.563	14.472	941.654	702.917
210.577	14.607	940.715	702.726
211.592	14.672	940.166	702.525
212.607	14.617	939.474	701.715
213.621	14.595	938.909	701.139
214.636	14.632	938.193	700.697
215.650	14.610	937.322	699.893
216.665	14.635	936.652	699.435
217.680	14.626	935.601	698.551
218.694	14.779	934.859	698.576
219.709	14.737	934.593	698.140
220.723	14.688	933.901	697.356
221.738	14.678	933.258	696.773
222.753	14.782	932.692	696.722
223.767	14.749	932.235	696.181
224.782	14.836	931.555	695.972
225.796	14.741	930.846	694.987
226.811	14.853	930.074	694.815
227.826	14.885	929.095	694.153
228.840	14.765	928.643	693.256
229.855	14.840	927.576	692.711
230.869	14.837	927.044	692.240
231.884	14.784	926.476	691.535
232.899	14.803	925.436	690.775
233.913	14.731	925.296	690.311
234.928	14.849	924.278	689.980
235.942	14.792	923.390	689.018
236.957	14.784	922.935	688.587
237.972	14.779	922.696	688.326
238.986	15.004	921.041	687.956
240.001	14.836	920.920	687.113
241.015	14.972	919.909	686.857
242.030	14.802	919.723	685.961
243.045	14.879	919.138	685.778
244.059	15.002	918.483	685.732
245.074	15.075	917.611	685.321
246.088	14.984	917.234	684.607
247.103	15.008	916.431	684.045
248.117	14.950	916.283	683.638
249.132	15.133	915.000	683.365
250.147	15.061	914.436	682.590
251.161	15.188	913.938	682.676
252.176	15.053	913.536	681.766
253.190	15.284	912.410	681.803
254.205	15.212	912.359	681.412
255.220	15.280	911.004	680.614
256.234	15.377	910.099	680.275
257.249	15.299	910.028	679.842
258.263	15.349	908.940	679.173
259.278	15.350	908.349	678.677
260.293	15.348	907.919	678.286
261.307	15.369	907.142	677.729
262.322	15.463	906.130	677.295
263.336	15.454	905.648	676.838
264.351	15.479	905.158	676.513
265.366	15.564	903.774	675.760
266.380	15.443	903.963	675.355
267.395	15.673	902.638	675.230
268.409	15.660	901.871	674.545
269.424	15.552	901.209	673.556
270.439	15.487	900.820	672.945
271.453	15.556	900.419	672.861
272.468	15.438	900.026	672.035
273.482	15.428	899.515	671.555
274.497	15.484	898.699	671.110
275.512	15.640	897.908	671.085
276.526	15.579	897.548	670.513
277.541	15.569	896.814	669.864
278.555	15.726	896.419	670.136
279.570	15.755	895.307	669.362
280.585	15.742	894.814	668.881
281.599	15.770	893.750	668.135
282.614	15.614	893.752	667.459
283.628	15.724	892.876	667.182
284.643	15.775	892.072	666.725
285.657	15.677	891.955	666.190
286.672	15.798	891.093	665.966
287.687	15.747	890.427	665.207
288.701	15.878	889.809	665.204
289.716	15.798	889.810	664.832
290.730	15.798	889.062	664.215
291.745	15.815	887.888	663.344
292.760	15.977	887.195	663.405
293.774	16.073	886.671	663.335
294.789	15.980	886.042	662.439
295.803	15.798	885.584	661.321
296.818	15.837	885.013	660.993
297.833	15.790	883.816	659.853
298.847	15.951	883.168	659.943
299.862	16.060	882.337	659.690
300.876	15.988	882.376	659.379
301.891	16.065	881.314	658.829
302.906	16.038	881.046	658.464
303.920	16.116	880.452	658.267
304.935	16.114	880.396	658.159
305.949	16.191	879.324	657.597
306.964	16.180	878.570	656.934
307.979	16.205	878.059	656.591
308.993	16.235	877.399	656.156
310.008	16.142	877.190	655.578
311.022	16.135	876.398	654.902
312.037	16.222	875.605	654.588
313.052	16.109	875.465	653.988
314.066	16.050	874.516	652.993
315.081	16.196	873.845	653.001
316.095	16.219	873.251	652.588
317.110	16.207	873.041	652.326
318.125	16.244	872.170	651.759
319.139	16.299	871.927	651.735
320.154	16.319	870.951	651.022
321.168	16.415	870.839	651.254
322.183	16.298	870.107	650.198
323.197	16.399	869.688	650.214
324.212	16.367	869.016	649.532
325.227	16.306	868.157	648.598
326.241	16.381	867.915	648.646
327.256	16.313	867.475	647.999
328.270	16.391	866.689	647.654
329.285	16.315	865.902	646.718
330.300	16.412	865.547	646.769
331.314	16.350	865.354	646.328
332.329	16.420	864.790	646.119
333.343	16.443	864.198	645.705
334.358	16.390	863.996	645.297
335.373	16.519	863.605	645.440
336.387	16.425	863.355	644.838
337.402	16.387	863.160	644.490
338.416	16.531	862.745	644.671
339.431	16.501	862.093	644.013
340.446	16.493	861.364	643.382
341.460	16.517	861.310	643.373
342.475	16.675	860.633	643.412
343.489	16.753	859.944	643.138
344.504	16.734	859.274	642.506
345.519	16.652	859.130	642.032
346.533	16.721	858.569	641.817
347.548	16.754	858.238	641.636
348.562	16.664	857.707	640.844
349.577	16.646	857.105	640.269
350.592	16.761	856.127	639.917
351.606	16.779	855.629	639.554
352.621	16.731	855.148	638.957
353.635	16.732	854.628	638.516
354.650	16.835	853.817	638.241
355.665	16.822	852.967	637.500
356.679	16.832	852.695	637.277
357.694	16.877	851.686	636.636
358.708	16.952	850.964	636.323
359.723	16.899	850.326	635.590
360.738	16.950	849.954	635.448
361.752	17.011	849.168	635.031
362.767	16.930	848.978	634.532
363.781	17.093	848.053	634.393
364.796	16.989	847.850	633.798
365.810	17.062	847.231	633.551
366.825	17.156	846.935	633.623
367.840	17.099	846.442	632.984
368.854	17.118	846.115	632.755
369.869	17.003	845.650	631.925
370.883	17.212	845.159	632.279
371.898	17.090	844.927	631.595
372.913	17.097	844.792	631.465
373.927	17.132	843.990	630.939
374.942	17.196	843.509	630.760
375.956	17.352	842.523	630.547
376.971	17.195	842.395	629.815
377.986	17.359	841.841	629.951
379.000	17.265	841.503	629.293
380.015	17.411	840.984	629.389
381.029	17.286	840.493	628.505
382.044	17.380	840.017	628.442
383.059	17.459	839.029	627.939
384.073	17.453	838.703	627.615
385.088	17.263	838.260	626.530
386.102	17.400	837.641	626.513
387.117	17.295	837.222	625.761
388.132	17.238	836.584	625.019
389.146	17.401	835.581	624.813
390.161	17.362	835.144	624.286
391.175	17.529	834.741	624.542
392.190	17.477	834.662	624.238
393.205	17.430	833.867	623.414
394.219	17.345	833.710	622.932
395.234	17.478	832.861	622.728
396.248	17.280	833.040	622.082
397.263	17.442	832.580	622.278
398.278	17.354	832.119	621.557
399.292	17.470	831.598	621.533
400.307	17.448	831.060	620.998
401.321	17.519	830.595	620.855
402.336	17.486	830.136	620.336
403.350	17.559	829.561	620.116
404.365	17.522	829.191	619.651
405.380	17.553	828.594	619.264
406.394	17.584	828.293	619.095
407.409	17.736	827.123	618.717
408.423	17.658	827.765	618.859
409.438	17.724	827.151	618.586
410.453	17.753	826.435	618.101
411.467	17.711	825.798	617.418
412.482	17.712	825.756	617.335
413.496	17.795	825.459	617.360
414.511	17.827	824.974	617.057
415.526	17.897	824.367	616.802
416.540	17.806	823.842	616.028
417.555	17.755	823.741	615.710
418.569	17.916	823.394	615.979
419.584	18.004	822.418	615.511
420.599	17.902	822.147	614.887
421.613	114.928	1301.924	1491.127
422.628	99.723	1371.792	1491.190
