DTS Sentinel unit serial number:	SN413079Multiplexer serial number:	ORYXHardware model number:	OX4-SRSoftware version number:	ORYX F/W v4.00 Oryx Data Collector v3.7.2.0data status	okinstallation	princeton_trtdifferential loss correction	single-endedforward channel	channel 1reverse channel	N/Adate	2019/09/14time	03:50:35forward acquisition time	60.00reverse acquisition time	0.00gamma	496.2192k internal	0.2336k external	0.2336temperature offset calibration	1.0075default loss term (dB/km)	0.3790temperature slope calibration	1.0000multiplexer offset coefficient	1.0000multiplexer slope coefficient	1.0000fibre end	0.00T internal ref (°C)	26.67T ext. ref 1 (°C)	3.30T ext. ref 2 (°C)	21.66length (m)	temperature (°C)	Stokes	anti-Stokes-747.200	112.881	0.178	0.216
-746.185	638.057	-0.163	0.415
-745.171	-36.177	0.312	-0.169
-744.156	-43.997	-0.202	-0.102
-743.142	-200.000	-0.023	-0.176
-742.127	-94.432	0.117	-0.032
-741.112	-120.240	0.402	0.069
-740.098	201.057	-0.099	0.153
-739.083	800.000	-0.080	0.294
-738.069	-155.767	-0.275	0.018
-737.054	-200.000	0.018	-0.093
-736.039	488.124	-0.131	-0.299
-735.025	-113.514	0.295	0.058
-734.010	165.414	-0.094	-0.133
-732.996	-200.000	0.006	0.074
-731.981	800.000	-0.047	0.208
-730.966	-200.000	0.020	0.359
-729.952	443.250	-0.143	-0.316
-728.937	-200.000	0.001	0.078
-727.923	84.517	-0.165	-0.181
-726.908	26.675	-0.132	0.111
-725.894	-17.954	-0.559	-0.352
-724.879	218.169	0.177	0.283
-723.864	252.874	-0.051	-0.087
-722.850	299.700	-0.054	-0.100
-721.835	127.757	-0.050	-0.064
-720.821	-100.731	0.420	-0.104
-719.806	203.102	-0.139	-0.216
-718.791	14.818	-0.035	0.027
-717.777	740.410	-0.105	0.282
-716.762	-114.747	-0.379	0.073
-715.748	18.371	-0.148	-0.118
-714.733	-200.000	-0.015	-0.256
-713.718	-53.561	-0.184	-0.084
-712.704	27.573	0.180	-0.152
-711.689	800.000	0.036	-0.119
-710.675	800.000	0.123	-0.446
-709.660	-96.919	0.522	0.137
-708.645	-200.000	-0.031	-0.225
-707.631	-82.765	0.263	-0.085
-706.616	-200.000	-0.017	0.150
-705.602	-200.000	-0.003	-0.115
-704.587	55.031	-0.186	-0.180
-703.572	162.567	-0.276	-0.388
-702.558	273.305	-0.091	0.162
-701.543	-111.840	0.227	-0.046
-700.529	113.403	-0.227	0.277
-699.514	800.000	0.048	0.193
-698.499	-132.771	0.240	0.031
-697.485	-200.000	0.010	0.058
-696.470	-131.323	-0.115	0.015
-695.456	-200.000	0.002	0.107
-694.441	-19.924	-0.131	0.081
-693.426	-34.454	-0.182	-0.100
-692.412	-118.199	-0.081	0.014
-691.397	47.114	-0.066	-0.061
-690.383	-200.000	-0.000	-0.219
-689.368	28.996	0.158	0.135
-688.354	-200.000	0.003	0.188
-687.339	-64.300	0.156	-0.063
-686.324	165.680	-0.162	-0.229
-685.310	-67.845	-0.167	0.065
-684.295	-200.000	0.006	-0.118
-683.281	102.259	0.111	0.130
-682.266	398.980	-0.076	0.160
-681.251	-200.000	0.018	0.138
-680.237	-166.833	-0.438	-0.018
-679.222	-112.346	-0.331	0.066
-678.208	-52.536	-0.288	-0.133
-677.193	359.233	-0.089	-0.177
-676.178	247.522	0.168	-0.284
-675.164	-44.098	0.226	0.114
-674.149	143.916	-0.219	0.292
-673.135	-115.236	0.372	-0.070
-672.120	8.871	-0.273	0.206
-671.105	-200.000	0.015	-0.220
-670.091	21.541	0.178	0.145
-669.076	-200.000	0.028	0.152
-668.062	-187.853	-0.435	0.006
-667.047	-122.380	-0.353	-0.058
-666.032	-18.266	-0.189	-0.118
-665.018	-37.241	0.170	-0.091
-664.003	44.321	-0.075	-0.069
-662.989	-149.664	-0.489	-0.039
-661.974	-200.000	-0.020	0.296
-660.959	457.776	-0.089	0.198
-659.945	-140.716	-0.248	0.026
-658.930	-169.783	-0.205	-0.007
-657.916	-200.000	0.019	0.129
-656.901	62.733	-0.032	-0.032
-655.886	-200.000	0.019	0.096
-654.872	800.000	-0.071	-0.205
-653.857	490.384	0.014	-0.031
-652.843	74.793	-0.034	-0.036
-651.828	81.219	0.111	-0.120
-650.814	-85.171	-0.117	0.037
-649.799	45.241	0.132	0.122
-648.784	81.434	-0.261	-0.283
-647.770	50.131	-0.476	0.450
-646.755	-148.956	0.013	-0.001
-645.741	313.626	0.164	-0.309
-644.726	-48.264	-0.311	-0.150
-643.711	800.000	0.088	-0.248
-642.697	-200.000	0.003	-0.087
-641.682	-76.643	0.164	-0.057
-640.668	-200.000	0.034	0.223
-639.653	-192.137	0.305	-0.003
-638.638	-200.000	0.016	-0.188
-637.624	165.515	0.189	-0.267
-636.609	235.259	-0.121	-0.200
-635.595	-43.727	-0.180	-0.091
-634.580	89.025	0.202	-0.225
-633.565	70.711	-0.159	0.164
-632.551	800.000	-0.050	0.203
-631.536	-50.177	0.265	0.126
-630.522	44.001	-0.363	0.333
-629.507	-29.363	0.230	-0.132
-628.492	230.494	-0.143	-0.233
-627.478	800.000	0.083	-0.341
-626.463	-17.304	0.270	-0.170
-625.449	-32.170	-0.169	-0.094
-624.434	592.801	0.136	-0.335
-623.419	-162.162	0.238	0.012
-622.405	-200.000	-0.012	0.128
-621.390	-200.000	0.011	-0.313
-620.376	86.632	0.201	-0.222
-619.361	-40.002	-0.096	-0.050
-618.346	-200.000	0.003	-0.061
-617.332	601.450	-0.113	-0.281
-616.317	800.000	-0.099	0.423
-615.303	-129.297	0.198	-0.028
-614.288	182.675	0.135	0.199
-613.273	-41.516	-0.349	0.179
-612.259	281.909	0.125	-0.224
-611.244	357.037	-0.158	0.315
-610.230	214.876	-0.109	-0.172
-609.215	28.954	-0.085	-0.072
-608.201	-200.000	0.001	0.209
-607.186	-162.881	0.115	-0.006
-606.171	-85.184	0.082	0.026
-605.157	-62.455	0.387	0.161
-604.142	32.695	0.021	0.018
-603.128	-139.313	-0.105	-0.011
-602.113	-16.611	-0.265	-0.167
-601.098	-172.928	0.198	0.006
-600.084	-76.150	0.114	-0.040
-599.069	583.108	0.102	0.251
-598.055	-133.207	-0.075	0.010
-597.040	-75.374	-0.158	-0.056
-596.025	1.705	-0.157	-0.113
-595.011	-94.526	-0.288	-0.078
-593.996	11.608	0.262	0.201
-592.982	-67.807	-0.152	-0.059
-591.967	-90.326	0.314	0.091
-590.952	9.816	-0.332	0.252
-589.938	-200.000	0.038	0.198
-588.923	800.000	0.047	0.190
-587.909	-111.027	0.136	0.028
-586.894	-148.073	0.320	0.026
-585.879	-17.692	0.191	-0.120
-584.865	-62.581	0.256	-0.106
-583.850	312.333	0.094	0.176
-582.836	-200.000	0.047	0.298
-581.821	101.845	-0.043	0.050
-580.806	46.890	-0.089	-0.082
-579.792	95.665	0.097	-0.110
-578.777	-91.476	-0.058	0.017
-577.763	179.924	0.061	0.089
-576.748	-26.109	0.093	0.054
-575.733	-72.025	-0.282	-0.105
-574.719	35.803	-0.306	0.269
-573.704	-200.000	-0.039	0.344
-572.690	-33.785	-0.065	-0.036
-571.675	-200.000	0.007	-0.051
-570.661	122.548	0.083	-0.103
-569.646	132.900	-0.103	0.133
-568.631	17.260	-0.316	0.250
-567.617	-200.000	-0.047	0.213
-566.602	-200.000	0.039	0.456
-565.588	-164.493	0.094	-0.004
-564.573	269.400	-0.121	0.212
-563.558	800.000	-0.074	-0.247
-562.544	-47.747	0.093	-0.045
-561.529	209.933	0.118	0.184
-560.515	377.238	0.085	-0.173
-559.500	-200.000	0.019	-0.108
-558.485	-130.766	0.377	0.050
-557.471	800.000	0.043	-0.166
-556.456	-200.000	-0.013	-0.079
-555.442	-200.000	0.054	-0.266
-554.427	-45.639	0.339	-0.167
-553.412	-135.591	0.270	-0.032
-552.398	444.308	0.169	0.369
-551.383	-63.030	0.200	-0.082
-550.369	117.045	0.267	-0.327
-549.354	-137.894	0.323	-0.036
-548.339	-32.254	-0.057	-0.032
-547.325	800.000	0.063	0.221
-546.310	-33.028	0.233	-0.129
-545.296	-77.103	-0.094	0.033
-544.281	-2.182	-0.344	0.241
-543.266	205.101	-0.173	0.267
-542.252	43.129	-0.102	-0.093
-541.237	333.319	0.069	-0.132
-540.223	-122.476	0.168	-0.027
-539.208	422.892	-0.032	-0.069
-538.193	21.217	0.161	0.131
-537.179	96.052	0.187	-0.213
-536.164	20.248	-0.054	0.044
-535.150	104.729	0.103	-0.121
-534.135	-200.000	-0.017	-0.133
-533.121	525.164	0.192	-0.451
-532.106	-87.668	0.285	0.086
-531.091	395.669	-0.081	-0.168
-530.077	-7.712	0.091	0.061
-529.062	-42.710	-0.190	-0.096
-528.048	474.224	-0.103	0.231
-527.033	-200.000	-0.007	0.231
-526.018	-200.000	-0.025	0.299
-525.004	26.214	0.146	0.122
-523.989	92.088	-0.130	0.146
-522.975	461.058	0.118	-0.261
-521.960	-73.656	-0.251	0.091
-520.945	-200.000	0.038	-0.184
-519.931	105.891	0.128	-0.151
-518.916	-34.131	0.069	0.038
-517.902	84.011	-0.287	-0.312
-516.887	-13.120	0.351	-0.227
-515.872	162.407	-0.167	-0.233
-514.858	-68.420	-0.249	0.096
-513.843	-23.971	0.108	-0.064
-512.829	388.444	-0.130	-0.268
-511.814	800.000	-0.124	-0.345
-510.799	200.609	-0.217	0.331
-509.785	-120.827	-0.088	0.015
-508.770	800.000	0.059	0.193
-507.756	-200.000	-0.015	0.072
-506.741	-200.000	0.025	0.131
-505.726	-200.000	-0.001	-0.331
-504.712	-73.459	-0.178	0.065
-503.697	734.659	-0.134	-0.358
-502.683	-46.023	0.444	0.218
-501.668	-102.608	0.122	0.029
-500.653	-78.133	0.023	0.008
-499.639	-51.872	-0.100	0.046
-498.624	800.000	-0.068	0.210
-497.610	20.342	0.226	-0.181
-496.595	348.751	-0.160	-0.313
-495.581	63.149	-0.050	-0.050
-494.566	-56.903	0.084	-0.037
-493.551	-71.346	0.081	0.030
-492.537	89.418	0.125	-0.138
-491.522	-111.629	-0.171	0.035
-490.508	274.301	-0.042	0.074
-489.493	-59.013	-0.221	-0.095
-488.478	-200.000	0.051	-0.278
-487.464	716.631	-0.107	0.283
-486.449	800.000	-0.141	-0.422
-485.435	187.729	0.024	-0.036
-484.420	30.008	-0.151	0.128
-483.405	-113.300	-0.138	0.027
-482.391	-200.000	-0.025	0.222
-481.376	-28.760	0.118	-0.067
-480.362	19.764	-0.311	-0.249
-479.347	800.000	-0.106	0.302
-478.332	-87.880	-0.231	0.069
-477.318	-62.220	0.372	0.154
-476.303	232.170	-0.107	0.174
-475.289	532.582	-0.047	0.110
-474.274	-34.867	0.139	-0.076
-473.259	112.626	-0.345	0.415
-472.245	-173.088	0.171	0.005
-471.230	-189.881	-0.167	-0.002
-470.216	800.000	0.034	-0.096
-469.201	565.780	0.035	0.085
-468.186	800.000	0.089	0.273
-467.172	-56.190	-0.072	-0.032
-466.157	-122.826	0.448	-0.072
-465.143	-33.799	-0.093	-0.051
-464.128	551.519	0.029	0.070
-463.113	39.771	-0.006	0.006
-462.099	800.000	0.020	-0.079
-461.084	44.776	-0.209	-0.191
-460.070	-63.956	0.050	-0.020
-459.055	-51.983	0.247	-0.114
-458.040	346.006	0.056	-0.110
-457.026	-200.000	-0.002	0.191
-456.011	-90.768	0.219	0.063
-454.997	-200.000	-0.012	-0.410
-453.982	-2.607	0.105	-0.073
-452.968	-152.294	0.375	0.027
-451.953	-132.158	0.150	0.019
-450.938	213.853	0.082	0.129
-449.924	17.145	-0.102	-0.080
-448.909	26.991	0.080	0.066
-447.895	-200.000	0.003	-0.236
-446.880	-110.109	-0.043	0.009
-445.865	-167.380	-0.168	0.007
-444.851	61.336	0.150	-0.148
-443.836	800.000	-0.072	-0.300
-442.822	7.832	-0.289	0.215
-441.807	179.957	0.221	0.322
-440.792	-72.821	-0.263	-0.096
-439.778	-97.299	0.158	0.041
-438.763	-200.000	0.003	-0.035
-437.749	-71.195	0.199	-0.074
-436.734	151.700	0.035	-0.048
-435.719	8.958	0.402	0.301
-434.705	-61.362	0.144	-0.060
-433.690	420.811	-0.129	-0.275
-432.676	-200.000	-0.023	-0.125
-431.661	-200.000	-0.002	0.230
-430.646	-133.599	0.102	0.013
-429.632	-132.813	-0.067	-0.008
-428.617	-200.000	0.062	-0.420
-427.603	-75.333	0.167	-0.059
-426.588	800.000	-0.059	-0.223
-425.573	-125.109	0.148	-0.023
-424.559	-96.530	-0.104	-0.027
-423.544	137.872	0.136	0.177
-422.530	-131.770	0.406	0.053
-421.515	222.086	-0.058	0.092
-420.500	688.641	-0.063	0.162
-419.486	-137.953	-0.086	-0.009
-418.471	-186.684	0.067	0.001
-417.457	800.000	0.046	-0.161
-416.442	425.335	-0.091	0.194
-415.428	800.000	0.015	0.050
-414.413	1.990	-0.252	0.180
-413.398	800.000	-0.036	0.115
-412.384	-116.364	0.232	0.042
-411.369	-169.284	-0.179	0.007
-410.355	-176.721	0.559	0.014
-409.340	85.985	0.210	-0.229
-408.325	-121.131	0.170	0.028
-407.311	61.246	-0.229	0.225
-406.296	162.051	0.209	0.291
-405.282	208.861	0.151	0.234
-404.267	119.469	0.231	0.283
-403.252	-93.424	-0.197	-0.054
-402.238	-44.349	-0.237	-0.118
-401.223	-200.000	0.031	-0.239
-400.209	-82.960	-0.162	0.052
-399.194	-200.000	0.024	-0.180
-398.179	261.558	0.099	-0.169
-397.165	226.408	0.111	0.179
-396.150	42.688	-0.049	-0.044
-395.136	-130.936	0.129	-0.017
-394.121	13.244	0.079	-0.060
-393.106	-78.206	-0.173	0.059
-392.092	-0.339	0.338	-0.238
-391.077	-200.000	0.042	-0.196
-390.063	76.026	0.171	0.179
-389.048	-119.960	-0.083	0.014
-388.033	800.000	0.097	0.371
-387.019	41.750	-0.117	0.105
-386.004	-114.170	0.271	-0.052
-384.990	-6.013	-0.203	-0.137
-383.975	211.786	0.089	-0.140
-382.960	157.157	0.113	0.155
-381.946	-109.950	0.105	-0.022
-380.931	-162.768	-0.083	0.004
-379.917	110.737	0.099	0.118
-378.902	-69.794	0.260	0.098
-377.888	26.456	-0.386	0.320
-376.873	-8.414	-0.080	0.053
-375.858	-53.381	-0.314	-0.143
-374.844	-200.000	-0.004	-0.067
-373.829	-89.694	-0.223	-0.065
-372.815	628.193	-0.158	0.395
-371.800	-200.000	-0.036	-0.188
-370.785	-170.707	-0.129	-0.004
-369.771	79.944	0.157	-0.167
-368.756	238.827	-0.184	-0.302
-367.742	-200.000	-0.017	-0.234
-366.727	48.302	-0.241	-0.223
-365.712	15.866	0.185	-0.144
-364.698	-61.965	-0.167	0.069
-363.683	-21.620	0.060	-0.036
-362.669	22.961	-0.296	-0.241
-361.654	-73.463	0.393	-0.142
-360.639	245.616	0.035	-0.058
-359.625	-200.000	0.048	-0.315
-358.610	302.201	-0.017	0.030
-357.596	-200.000	-0.032	0.423
-356.581	-104.606	-0.269	0.061
-355.566	94.305	-0.064	-0.071
-354.552	-102.997	-0.067	0.016
-353.537	-122.735	0.049	0.008
-352.523	269.821	0.160	-0.277
-351.508	-92.094	0.078	-0.022
-350.493	-5.955	0.144	0.097
-349.479	800.000	-0.018	-0.070
-348.464	66.286	0.059	0.060
-347.450	-200.000	-0.010	-0.155
-346.435	221.737	-0.146	-0.232
-345.420	611.670	0.100	-0.246
-344.406	-200.000	-0.002	-0.134
-343.391	448.860	-0.110	0.239
-342.377	227.645	-0.192	0.309
-341.362	-150.223	-0.180	-0.014
-340.348	-82.880	-0.312	-0.100
-339.333	800.000	0.039	0.163
-338.318	154.984	0.055	0.075
-337.304	-200.000	0.061	-0.391
-336.289	800.000	0.045	0.179
-335.275	-76.853	-0.308	-0.106
-334.260	-145.196	0.262	0.023
-333.245	265.112	-0.083	-0.143
-332.231	75.301	0.141	-0.147
-331.216	-200.000	-0.022	-0.220
-330.202	-149.810	-0.358	0.028
-329.187	800.000	0.106	0.301
-328.172	134.874	-0.116	-0.149
-327.158	533.394	0.065	-0.151
-326.143	197.147	0.176	-0.265
-325.129	90.692	0.151	-0.167
-324.114	-44.856	-0.081	0.040
-323.099	-20.457	-0.320	0.194
-322.085	800.000	-0.087	0.275
-321.070	35.659	-0.141	-0.122
-320.056	213.628	-0.033	0.052
-319.041	554.821	-0.057	0.134
-318.026	-56.454	-0.267	-0.117
-317.012	-88.430	-0.244	0.072
-315.997	-140.004	0.117	-0.012
-314.983	-113.798	-0.128	-0.025
-313.968	20.978	-0.167	-0.134
-312.953	112.883	-0.093	0.111
-311.939	790.403	0.089	-0.243
-310.924	173.819	0.146	-0.208
-309.910	-64.011	-0.121	0.049
-308.895	652.380	-0.122	-0.309
-307.880	-22.149	0.331	0.198
-306.866	-113.594	-0.254	0.049
-305.851	-67.693	-0.307	0.119
-304.837	51.743	-0.319	0.299
-303.822	-7.455	0.267	0.178
-302.807	32.897	0.191	0.163
-301.793	-79.737	-0.249	-0.083
-300.778	-200.000	-0.003	0.084
-299.764	-146.227	-0.230	0.020
-298.749	148.162	-0.187	0.249
-297.735	800.000	0.018	-0.074
-296.720	-1.360	0.289	0.202
-295.705	-46.962	0.154	0.074
-294.691	133.362	0.139	0.177
-293.676	-119.856	-0.196	-0.033
-292.662	81.716	0.053	0.056
-291.647	67.235	-0.226	0.227
-290.632	-133.193	0.046	-0.006
-289.618	-136.212	-0.256	0.030
-288.603	800.000	-0.046	-0.136
-287.589	35.988	-0.240	-0.208
-286.574	-69.559	-0.193	-0.073
-285.559	-200.000	-0.017	0.269
-284.545	132.048	0.133	0.169
-283.530	-200.000	0.003	-0.319
-282.516	50.527	0.185	-0.172
-281.501	-200.000	0.020	0.181
-280.486	800.000	0.045	-0.183
-279.472	800.000	-0.064	-0.203
-278.457	-200.000	-0.005	-0.129
-277.443	-40.449	0.211	0.108
-276.428	475.445	-0.138	0.307
-275.413	-37.305	-0.244	0.129
-274.399	-53.438	0.281	0.127
-273.384	51.301	0.014	0.014
-272.370	-47.998	-0.392	-0.187
-271.355	-2.211	0.009	0.006
-270.340	-4.306	0.251	-0.171
-269.326	248.252	0.105	0.175
-268.311	-17.941	-0.133	0.082
-267.297	-53.865	0.437	-0.196
-266.282	-85.876	-0.218	-0.067
-265.267	-18.655	-0.153	-0.094
-264.253	-200.000	-0.011	0.400
-263.238	-200.000	-0.019	0.246
-262.224	-110.427	-0.247	-0.051
-261.209	-71.879	-0.185	-0.068
-260.195	-116.587	0.354	-0.064
-259.180	-36.498	0.136	0.072
-258.165	53.527	0.180	-0.171
-257.151	-72.723	0.350	-0.127
-256.136	-200.000	-0.013	0.075
-255.122	159.411	0.156	0.214
-254.107	-6.573	-0.236	0.158
-253.092	113.802	0.065	0.078
-252.078	19.343	-0.110	0.087
-251.063	-139.265	0.136	0.014
-250.049	170.484	-0.185	-0.261
-249.034	800.000	0.102	0.303
-248.019	-65.179	0.223	-0.088
-247.005	72.023	0.082	0.084
-245.990	125.626	-0.241	0.300
-244.976	-35.313	-0.158	-0.085
-243.961	245.952	-0.048	0.080
-242.946	-200.000	0.036	-0.389
-241.932	301.938	-0.072	0.132
-240.917	-57.819	-0.036	0.015
-239.903	-200.000	0.032	0.140
-238.888	-200.000	-0.029	0.425
-237.873	131.361	0.093	0.118
-236.859	-127.399	-0.394	0.056
-235.844	800.000	0.044	-0.141
-234.830	-200.000	0.000	0.051
-233.815	-114.623	0.232	0.044
-232.800	-93.005	0.201	-0.055
-231.786	-50.199	-0.326	0.152
-230.771	204.182	0.166	-0.253
-229.757	-83.662	0.142	0.045
-228.742	62.755	0.063	-0.062
-227.727	-130.102	0.088	-0.012
-226.713	46.128	0.368	-0.336
-225.698	-105.147	-0.145	-0.033
-224.684	-81.615	0.270	-0.087
-223.669	-59.506	0.291	0.123
-222.655	-200.000	0.004	-0.056
-221.640	-200.000	-0.032	-0.140
-220.625	491.277	0.085	-0.192
-219.611	-35.765	0.183	0.097
-218.596	70.223	0.204	-0.208
-217.582	88.901	0.074	0.081
-216.567	800.000	-0.122	0.457
-215.552	-42.155	0.127	-0.064
-214.538	-200.000	0.007	-0.174
-213.523	34.321	-0.373	0.320
-212.509	175.639	0.196	0.280
-211.494	800.000	-0.053	0.158
-210.479	-200.000	-0.045	0.241
-209.465	35.522	-0.195	0.169
-208.450	-58.822	0.146	0.062
-207.436	-57.370	-0.202	0.087
-206.421	-134.499	-0.172	-0.021
-205.406	-27.727	-0.150	0.086
-204.392	273.521	-0.120	0.208
-203.377	-167.286	-0.335	-0.013
-202.363	-200.000	-0.068	0.292
-201.348	261.442	0.179	-0.305
-200.333	-39.424	-0.067	-0.035
-199.319	19.272	-0.196	0.155
-198.304	-200.000	0.031	-0.379
-197.290	-200.000	0.004	-0.295
-196.275	75.676	-0.068	0.070
-195.260	9.755	0.130	-0.097
-194.246	498.167	-0.026	0.059
-193.231	-139.557	-0.275	-0.029
-192.217	35.161	-0.226	0.195
-191.202	204.798	0.068	-0.104
-190.187	474.248	-0.152	0.336
-189.173	22.338	0.198	0.159
-188.158	-13.254	-0.299	-0.191
-187.144	165.304	-0.149	-0.207
-186.129	-107.652	0.200	0.043
-185.114	-127.159	-0.323	-0.046
-184.100	469.846	-0.036	-0.080
-183.085	-200.000	-0.016	-0.086
-182.071	20.529	-0.168	-0.134
-181.056	-101.866	-0.051	-0.012
-180.042	30.158	0.157	0.132
-179.027	71.358	-0.227	-0.231
-178.012	-200.000	-0.025	0.153
-176.998	406.350	-0.050	-0.104
-175.983	73.980	0.084	-0.087
-174.969	-105.604	-0.251	-0.056
-173.954	-115.168	0.411	0.076
-172.939	-183.615	0.170	0.003
-171.925	70.590	-0.154	0.157
-170.910	199.928	-0.208	0.313
-169.896	130.073	-0.079	0.099
-168.881	-99.391	0.160	0.040
-167.866	28.157	-0.201	0.166
-166.852	-71.584	0.340	0.125
-165.837	-200.000	-0.025	0.224
-164.823	-47.531	0.277	-0.132
-163.808	55.189	0.208	0.197
-162.793	69.481	0.267	-0.270
-161.779	-114.846	-0.488	-0.091
-160.764	-12.207	-0.107	0.069
-159.750	-29.787	-0.279	0.156
-158.735	-198.427	0.150	-0.001
-157.720	44.872	0.175	-0.158
-156.706	-38.999	-0.230	-0.119
-155.691	59.945	-0.124	0.120
-154.677	-200.000	0.020	-0.087
-153.662	-140.233	-0.280	-0.029
-152.647	-200.000	0.011	-0.156
-151.633	800.000	0.048	-0.132
-150.618	10.961	-0.296	-0.222
-149.604	198.918	0.267	-0.401
-148.589	-47.145	-0.073	0.035
-147.574	800.000	0.086	0.245
-146.560	-123.782	0.225	0.035
-145.545	-70.831	-0.112	0.041
-144.531	-143.553	0.147	-0.014
-143.516	159.744	-0.112	-0.152
-142.502	-200.000	0.051	-0.497
-141.487	606.237	-0.171	-0.418
-140.472	-9.804	0.197	0.129
-139.458	42.444	0.005	-0.004
-138.443	157.569	0.129	-0.175
-137.429	59.280	0.160	-0.154
-136.414	-13.291	-0.067	0.043
-135.399	205.634	0.150	0.228
-134.385	-200.000	-0.010	0.094
-133.370	-19.852	0.171	0.104
-132.356	-31.458	0.200	0.110
-131.341	8.121	-0.116	-0.086
-130.326	-21.289	-0.158	-0.095
-129.312	186.803	0.260	0.380
-128.297	140.026	-0.031	-0.040
-127.283	-6.671	0.191	-0.128
-126.268	800.000	0.088	0.314
-125.253	785.642	0.110	-0.295
-124.239	113.640	-0.086	0.102
-123.224	-82.979	0.203	0.064
-122.210	-31.258	-0.123	0.068
-121.195	-200.000	-0.040	0.274
-120.180	-200.000	-0.440	-0.002
-119.166	800.000	0.084	-0.261
-118.151	45.963	0.288	-0.261
-117.137	8.418	-0.313	0.231
-116.122	-107.886	-0.114	0.024
-115.107	207.529	-0.166	-0.254
-114.093	-200.000	0.055	-0.286
-113.078	-87.036	-0.200	-0.060
-112.064	-89.260	0.243	-0.070
-111.049	-19.150	0.395	0.241
-110.034	17.856	-0.168	0.131
-109.020	-165.261	0.364	-0.016
-108.005	-137.267	0.195	-0.022
-106.991	-200.000	0.010	0.170
-105.976	20.153	0.167	0.132
-104.962	800.000	-0.112	0.305
-103.947	117.820	-0.129	0.156
-102.932	-80.071	0.366	-0.120
-101.918	712.886	0.173	-0.449
-100.903	-117.280	0.233	-0.042
-99.889	160.055	-0.189	-0.257
-98.874	-73.196	-0.029	-0.010
-97.859	12.541	0.144	-0.109
-96.845	28.059	0.245	0.203
-95.830	-5.248	-0.087	-0.058
-94.816	-21.596	-0.237	0.142
-93.801	-200.000	0.048	0.351
-92.786	-97.391	-0.115	0.029
-91.772	-26.866	-0.266	0.152
-90.757	27.183	0.197	-0.162
-89.743	-199.917	0.203	-0.001
-88.728	-82.380	0.039	0.012
-87.713	14.337	-0.170	0.130
-86.699	-200.000	0.006	0.037
-85.684	-43.195	-0.231	-0.114
-84.670	136.949	-0.052	-0.066
-83.655	102.540	-0.233	0.267
-82.640	145.850	-0.172	-0.226
-81.626	-135.471	0.236	0.027
-80.611	-200.000	0.008	-0.125
-79.597	-22.304	0.310	-0.184
-78.582	-200.000	0.052	0.232
-77.567	-200.000	-0.184	0.000
-76.553	-68.748	-0.293	0.111
-75.538	-200.000	-0.066	-0.308
-74.524	-96.517	-0.254	-0.066
-73.509	-39.763	-0.296	-0.151
-72.494	-151.898	0.087	0.006
-71.480	20.497	0.393	0.311
-70.465	-174.247	-0.137	0.004
-69.451	120.794	-0.143	0.174
-68.436	78.405	0.064	-0.067
-67.422	-63.170	0.265	0.107
-66.407	-38.892	0.180	-0.093
-65.392	1.965	-0.200	0.141
-64.378	-200.000	0.022	0.174
-63.363	-47.341	-0.183	0.087
-62.349	121.484	-0.237	0.288
-61.334	44.202	-1.092	-0.980
-60.319	133.291	0.636	0.804
-59.305	757.825	-0.472	-1.250
-58.290	211.048	0.628	0.965
-57.276	341.977	0.654	1.250
-56.261	-200.000	116.048	649.441
-55.246	515.659	1537.742	3511.685
-54.232	175.619	2710.873	3843.379
-53.217	107.481	2159.546	2511.797
-52.203	38.567	1593.310	1389.106
-51.188	29.880	1336.289	1113.011
-50.173	27.076	1297.874	1064.566
-49.159	53.986	1355.031	1273.263
-48.144	52.199	1369.008	1275.668
-47.130	30.170	1323.414	1103.834
-46.115	26.825	1305.238	1068.953
-45.100	26.559	1300.156	1063.190
-44.086	26.582	1297.525	1061.128
-43.071	26.519	1295.456	1059.027
-42.057	26.450	1293.433	1056.928
-41.042	26.566	1291.438	1055.931
-40.027	26.446	1290.225	1054.198
-39.013	26.468	1288.610	1052.966
-37.998	26.652	1285.923	1051.795
-36.984	26.619	1284.942	1050.761
-35.969	26.644	1282.856	1049.158
-34.954	26.711	1280.768	1047.796
-33.940	26.691	1279.581	1046.668
-32.925	26.707	1278.351	1045.716
-31.911	26.760	1276.927	1044.810
-30.896	26.733	1275.132	1043.149
-29.881	26.735	1274.184	1042.340
-28.867	26.824	1272.495	1041.428
-27.852	26.840	1271.291	1040.493
-26.838	26.874	1269.959	1039.558
-25.823	26.744	1268.709	1037.749
-24.809	26.594	1267.614	1035.954
-23.794	26.724	1265.912	1035.268
-22.779	26.725	1264.894	1034.395
-21.765	26.770	1263.122	1033.162
-20.750	26.874	1261.565	1032.442
-19.736	26.670	1260.946	1030.731
-18.721	26.586	1260.169	1029.576
-17.706	26.597	1258.887	1028.555
-16.692	26.617	1257.522	1027.512
-15.677	26.727	1256.453	1027.219
-14.663	26.593	1255.611	1025.733
-13.648	26.608	1254.291	1024.697
-12.633	26.620	1253.152	1023.791
-11.619	26.609	1252.327	1023.015
-10.604	26.727	1251.550	1023.008
-9.590	26.595	1250.643	1021.483
-8.575	26.629	1249.734	1020.892
-7.560	26.587	1248.887	1019.919
-6.546	26.618	1248.115	1019.424
-5.531	26.594	1246.888	1018.250
-4.517	26.601	1246.051	1017.564
-3.502	26.762	1245.301	1017.813
-2.487	26.630	1244.043	1016.003
-1.473	26.694	1240.157	1013.151
-0.458	25.112	1225.652	992.506
0.556	22.016	1208.986	956.301
1.571	18.451	1215.743	942.000
2.586	17.591	1230.887	948.863
3.600	17.347	1219.023	938.286
4.615	13.109	1147.438	861.055
5.629	6.277	1076.652	774.340
6.644	3.400	1058.975	747.620
7.659	3.262	1056.418	745.078
8.673	3.222	1055.627	744.261
9.688	3.317	1054.460	743.832
10.702	3.451	1052.176	742.803
11.717	7.395	1057.268	765.395
12.731	14.629	1067.665	807.987
13.746	18.945	1073.110	832.995
14.761	19.589	1073.326	836.207
15.775	18.859	1071.409	831.108
16.790	17.730	1069.500	824.100
17.804	16.947	1068.208	819.251
18.819	16.749	1067.026	817.319
19.834	16.645	1066.090	816.028
20.848	16.357	1065.373	814.020
21.863	16.342	1064.429	813.154
22.877	16.134	1063.967	811.726
23.892	16.177	1063.291	811.344
24.907	16.055	1062.577	810.141
25.921	16.131	1061.583	809.679
26.936	16.129	1060.245	808.579
27.950	16.119	1058.863	807.402
28.965	16.362	1056.623	806.785
29.980	16.334	1055.460	805.691
30.994	16.452	1054.696	805.598
32.009	16.471	1054.140	805.193
33.023	16.423	1052.742	803.829
34.038	16.174	1052.009	802.013
35.053	16.246	1050.512	801.143
36.067	16.313	1049.747	800.804
37.082	16.312	1048.838	800.035
38.096	16.330	1048.429	799.739
39.111	16.448	1047.533	799.542
40.126	16.217	1046.235	797.389
41.140	16.022	1044.846	795.339
42.155	15.856	1043.616	793.554
43.169	15.990	1042.575	793.322
44.184	15.801	1041.955	791.889
45.199	15.891	1040.394	791.054
46.213	16.005	1039.840	791.100
47.228	16.134	1038.802	790.844
48.242	16.184	1037.743	790.206
49.257	16.135	1036.889	789.253
50.271	16.211	1035.928	788.807
51.286	16.218	1035.346	788.327
52.301	16.196	1034.174	787.262
53.315	16.041	1033.394	785.878
54.330	16.039	1031.974	784.720
55.344	16.040	1030.934	783.862
56.359	16.066	1030.035	783.228
57.374	15.944	1029.673	782.320
58.388	15.901	1028.443	781.117
59.403	15.871	1027.693	780.340
60.417	15.749	1027.083	779.241
61.432	15.758	1026.254	778.585
62.447	15.765	1025.357	777.870
63.461	15.671	1024.257	776.529
64.476	15.701	1023.195	775.795
65.490	15.797	1022.494	775.638
66.505	15.718	1021.924	774.774
67.520	15.746	1021.144	774.239
68.534	15.864	1020.080	773.907
69.549	15.725	1019.487	772.752
70.563	15.677	1018.832	771.968
71.578	15.704	1017.801	771.242
72.593	15.584	1017.496	770.390
73.607	15.738	1016.372	770.179
74.622	15.639	1015.986	769.365
75.636	15.606	1015.331	768.650
76.651	15.655	1014.342	768.058
77.666	15.691	1013.826	767.762
78.680	15.805	1012.976	767.567
79.695	15.857	1012.344	767.259
80.709	15.824	1011.967	766.755
81.724	15.908	1011.377	766.625
82.739	15.921	1010.482	765.937
83.753	16.060	1010.102	766.213
84.768	16.336	1008.876	766.470
85.782	16.465	1007.956	766.284
86.797	16.335	1007.348	765.164
87.812	16.185	1006.332	763.648
88.826	16.238	1005.070	762.862
89.841	16.364	1004.253	762.744
90.855	16.436	1003.819	762.672
91.870	16.312	1003.502	761.805
92.884	16.332	1001.847	760.573
93.899	16.385	1001.127	760.194
94.914	16.340	1000.788	759.670
95.928	16.403	1000.082	759.349
96.943	16.374	998.335	757.827
97.957	16.360	997.566	757.112
98.972	16.340	997.109	756.607
99.987	16.318	996.258	755.795
101.001	16.385	994.820	754.936
102.016	16.221	994.019	753.529
103.030	16.398	993.686	754.003
104.045	16.431	992.602	753.261
105.060	16.253	991.573	751.620
106.074	16.174	990.542	750.423
107.089	16.004	989.349	748.695
108.103	15.880	988.528	747.458
109.118	15.944	987.597	746.970
110.133	15.799	986.979	745.793
111.147	15.930	985.862	745.464
112.162	16.002	984.861	744.959
113.176	15.951	984.639	744.499
114.191	15.990	984.070	744.177
115.206	16.133	982.677	743.687
116.220	15.901	982.267	742.289
117.235	15.963	981.402	741.842
118.249	15.968	980.290	740.957
119.264	15.960	979.433	740.209
120.279	15.908	978.939	739.544
121.293	15.745	978.113	738.140
122.308	15.854	977.091	737.780
123.322	15.802	976.076	736.719
124.337	15.770	974.959	735.670
125.352	15.692	974.034	734.569
126.366	15.837	973.009	734.363
127.381	15.761	972.134	733.306
128.395	15.877	970.539	732.543
129.410	15.794	970.333	731.961
130.424	15.909	969.302	731.621
131.439	16.040	968.609	731.598
132.454	16.061	967.516	730.802
133.468	16.074	966.798	730.250
134.483	16.050	966.486	729.848
135.497	16.066	965.644	729.214
136.512	15.977	964.565	727.949
137.527	16.113	963.883	727.960
138.541	16.115	963.029	727.258
139.556	16.053	962.410	726.458
140.570	16.198	962.104	726.787
141.585	16.385	961.452	727.037
142.600	16.440	960.026	726.129
143.614	16.330	959.693	725.340
144.629	16.503	958.778	725.328
145.643	16.431	957.766	724.189
146.658	16.300	956.713	722.770
147.673	16.264	956.203	722.165
148.687	16.044	955.230	720.425
149.702	16.139	953.410	719.395
150.716	16.115	952.972	718.897
151.731	16.052	952.505	718.214
152.746	16.135	951.690	717.890
153.760	16.220	951.097	717.740
154.775	16.342	950.616	717.833
155.789	16.397	949.985	717.527
156.804	16.335	949.377	716.739
157.819	16.428	948.865	716.686
158.833	16.443	948.175	716.162
159.848	16.646	947.147	716.185
160.862	16.452	946.454	714.774
161.877	16.206	945.331	712.823
162.892	16.231	944.101	711.939
163.906	16.286	943.110	711.362
164.921	16.139	942.959	710.565
165.935	16.356	941.495	710.310
166.950	16.347	940.399	709.386
167.964	16.383	940.117	709.262
168.979	16.195	939.195	707.711
169.994	16.201	938.299	706.999
171.008	16.285	937.961	707.035
172.023	16.449	937.030	706.959
173.037	16.585	936.393	706.981
174.052	16.432	935.741	705.791
175.067	16.275	934.821	704.377
176.081	16.191	934.267	703.545
177.096	16.187	933.688	703.032
178.110	16.199	933.455	702.844
179.125	16.325	932.094	702.281
180.140	16.264	932.101	701.971
181.154	16.416	931.712	702.249
182.169	16.637	931.310	702.800
183.183	16.560	930.525	701.827
184.198	16.659	929.553	701.440
185.213	16.564	929.128	700.663
186.227	16.568	928.515	700.159
187.242	16.785	927.474	700.207
188.256	16.712	927.160	699.607
189.271	16.814	926.161	699.213
190.286	16.403	925.678	697.092
191.300	16.236	924.429	695.400
192.315	16.278	923.953	695.154
193.329	16.195	923.660	694.530
194.344	16.405	922.645	694.571
195.359	16.461	922.211	694.412
196.373	16.460	922.123	694.280
197.388	16.756	921.425	694.905
198.402	16.736	921.266	694.643
199.417	16.847	920.281	694.294
200.432	17.013	919.637	694.424
201.446	16.944	919.244	693.785
202.461	17.026	919.195	694.023
203.475	17.072	917.887	693.160
204.490	16.984	916.995	692.068
205.504	16.744	916.266	690.476
206.519	16.721	915.791	689.966
207.534	16.688	915.220	689.337
208.548	16.818	914.696	689.411
209.563	16.868	913.868	688.929
210.577	16.849	913.126	688.234
211.592	17.159	912.233	688.756
212.607	16.999	912.253	688.061
213.621	17.090	911.068	687.477
214.636	16.914	910.523	686.292
215.650	16.911	909.763	685.644
216.665	17.098	909.086	685.830
217.680	17.307	908.462	686.144
218.694	17.260	907.794	685.389
219.709	17.216	907.043	684.584
220.723	17.169	906.343	683.805
221.738	17.025	905.729	682.700
222.753	17.146	905.251	682.767
223.767	17.248	904.464	682.521
224.782	17.305	903.747	682.149
225.796	17.227	903.772	681.797
226.811	17.268	902.559	680.983
227.826	17.120	901.742	679.716
228.840	17.059	901.408	679.160
229.855	17.135	900.248	678.530
230.869	17.140	900.000	678.302
231.884	17.168	898.697	677.372
232.899	16.949	898.260	676.109
233.913	16.993	897.355	675.542
234.928	16.972	897.098	675.208
235.942	16.916	896.631	674.574
236.957	16.971	895.822	674.123
237.972	17.065	895.255	674.009
238.986	16.985	894.622	673.157
240.001	16.917	894.104	672.437
241.015	17.117	893.275	672.548
242.030	17.193	892.990	672.572
243.045	17.220	892.161	671.997
244.059	17.281	891.545	671.714
245.074	17.285	891.183	671.398
246.088	17.417	890.006	670.971
247.103	17.461	889.549	670.742
248.117	17.551	889.678	671.135
249.132	17.658	889.362	671.259
250.147	17.789	888.344	670.947
251.161	17.800	887.820	670.533
252.176	17.691	887.381	669.714
253.190	17.942	886.364	669.874
254.205	17.969	885.872	669.547
255.220	17.928	885.085	668.731
256.234	17.801	884.835	667.987
257.249	17.832	884.102	667.497
258.263	17.798	883.281	666.685
259.278	17.797	882.414	665.966
260.293	17.882	882.256	666.122
261.307	18.039	881.368	666.002
262.322	18.071	880.841	665.669
263.336	18.125	879.848	665.070
264.351	18.050	879.159	664.201
265.366	18.089	879.043	664.205
266.380	18.061	878.427	663.574
267.395	18.037	877.372	662.623
268.409	17.998	876.590	661.823
269.424	18.027	875.966	661.407
270.439	17.853	875.465	660.297
271.453	17.814	874.449	659.322
272.468	17.786	874.026	658.836
273.482	17.806	873.744	658.641
274.497	17.910	873.060	658.467
275.512	17.943	872.442	658.071
276.526	17.869	872.265	657.593
277.541	17.945	871.607	657.333
278.555	18.048	871.252	657.405
279.570	18.264	870.502	657.611
280.585	18.179	869.451	656.430
281.599	18.025	868.834	655.316
282.614	18.156	867.634	654.854
283.628	18.093	867.471	654.432
284.643	18.106	866.795	653.914
285.657	18.130	866.288	653.568
286.672	18.213	865.524	653.248
287.687	18.117	865.347	652.690
288.701	18.206	864.633	652.434
289.716	18.106	864.565	651.943
290.730	18.218	863.093	651.201
291.745	18.195	862.410	650.544
292.760	18.331	862.306	650.922
293.774	18.320	861.436	650.167
294.789	18.384	860.713	649.808
295.803	18.145	860.027	648.327
296.818	18.078	859.776	647.826
297.833	18.200	859.298	647.870
298.847	18.211	858.638	647.356
299.862	18.195	858.170	646.887
300.876	18.401	857.408	647.032
301.891	18.454	857.030	646.888
302.906	18.457	856.535	646.471
303.920	18.569	856.009	646.437
304.935	18.671	855.239	646.184
305.949	18.616	854.634	645.461
306.964	18.500	853.722	644.278
307.979	18.527	853.144	643.888
308.993	18.459	853.057	643.512
310.008	18.661	852.062	643.462
311.022	18.462	851.881	642.522
312.037	18.390	851.253	641.722
313.052	18.398	850.527	641.147
314.066	18.244	849.843	639.999
315.081	18.342	849.433	639.997
316.095	18.450	848.554	639.682
317.110	18.232	848.532	638.795
318.125	18.330	847.806	638.559
319.139	18.329	847.217	638.054
320.154	18.521	846.522	638.192
321.168	18.448	846.129	637.566
322.183	18.585	845.396	637.468
323.197	18.310	845.266	636.288
324.212	18.327	844.673	635.851
325.227	18.471	843.829	635.692
326.241	18.561	843.123	635.437
327.256	18.465	842.770	634.759
328.270	18.514	842.017	634.318
329.285	18.449	841.620	633.721
330.300	18.404	841.195	633.180
331.314	18.399	840.791	632.801
332.329	18.805	840.051	633.688
333.343	18.660	839.379	632.589
334.358	18.670	839.393	632.581
335.373	18.669	839.054	632.266
336.387	18.698	838.867	632.177
337.402	18.925	838.516	632.689
338.416	19.000	838.266	632.723
339.431	19.063	838.037	632.725
340.446	18.932	837.545	631.814
341.460	19.021	837.426	631.995
342.475	19.140	836.686	631.818
343.489	18.968	836.394	630.911
344.504	19.244	835.639	631.298
345.519	19.131	835.542	630.754
346.533	19.144	834.891	630.254
347.548	19.030	834.054	629.149
348.562	18.987	833.238	628.323
349.577	19.000	832.613	627.845
350.592	18.931	831.742	626.881
351.606	18.886	831.423	626.418
352.621	18.786	831.221	625.845
353.635	18.820	830.420	625.314
354.650	18.843	829.662	624.772
355.665	19.010	828.976	624.805
356.679	19.079	828.405	624.569
357.694	18.955	828.124	623.854
358.708	19.024	827.528	623.598
359.723	19.064	826.619	623.004
360.738	19.067	826.163	622.615
361.752	19.306	825.443	622.883
362.767	19.377	824.765	622.572
363.781	19.222	824.731	621.930
364.796	19.335	823.908	621.663
365.810	19.448	824.014	622.096
366.825	19.597	823.250	622.001
367.840	19.380	823.110	621.057
368.854	19.546	822.193	620.909
369.869	19.377	822.065	620.147
370.883	19.384	821.533	619.719
371.898	19.490	821.432	619.969
372.913	19.533	820.947	619.699
373.927	19.432	820.378	618.855
374.942	19.355	820.096	618.311
375.956	19.632	819.379	618.709
376.971	19.721	818.891	618.603
377.986	19.776	818.435	618.401
379.000	19.702	818.138	617.858
380.015	19.763	817.411	617.471
381.029	19.649	816.693	616.467
382.044	19.785	816.193	616.520
383.059	19.807	815.695	616.169
384.073	19.831	815.052	615.712
385.088	19.488	814.400	613.948
386.102	19.555	813.666	613.577
387.117	19.654	812.990	613.365
388.132	19.479	812.817	612.556
389.146	19.634	812.340	612.693
390.161	19.620	812.252	612.525
391.175	19.753	811.161	612.119
392.190	19.584	810.971	611.320
393.205	19.579	810.479	610.880
394.219	19.518	810.403	610.553
395.234	19.652	809.403	610.218
396.248	19.498	809.181	609.454
397.263	19.562	808.187	608.877
398.278	19.449	807.887	608.199
399.292	19.494	807.814	608.249
400.307	19.402	807.322	607.497
401.321	19.479	807.264	607.672
402.336	19.585	806.566	607.466
403.350	19.521	806.320	607.004
404.365	19.763	805.759	607.377
405.380	19.857	805.348	607.343
406.394	19.986	804.686	607.243
407.409	20.049	804.216	607.055
408.423	20.069	804.070	606.961
409.438	20.068	803.921	606.791
410.453	20.249	803.006	606.680
411.467	20.138	802.929	606.180
412.482	20.167	802.696	606.054
413.496	20.155	802.232	605.605
414.511	20.276	801.501	605.425
415.526	20.196	801.136	604.814
416.540	20.095	800.788	604.145
417.555	20.228	799.879	603.869
418.569	20.127	799.646	603.288
419.584	20.223	799.241	603.265
420.599	20.239	799.095	603.157
421.613	162.395	1371.597	1797.888
422.628	140.990	1454.981	1797.966
