DTS Sentinel unit serial number:	SN413079Multiplexer serial number:	ORYXHardware model number:	OX4-SRSoftware version number:	ORYX F/W v4.00 Oryx Data Collector v3.7.2.0data status	okinstallation	princeton_trtdifferential loss correction	single-endedforward channel	channel 1reverse channel	N/Adate	2019/09/16time	17:26:35forward acquisition time	60.00reverse acquisition time	0.00gamma	496.2192k internal	0.2297k external	0.2297temperature offset calibration	0.9962default loss term (dB/km)	0.3790temperature slope calibration	1.0000multiplexer offset coefficient	1.0000multiplexer slope coefficient	1.0000fibre end	0.00T internal ref (°C)	38.61T ext. ref 1 (°C)	15.44T ext. ref 2 (°C)	32.60length (m)	temperature (°C)	Stokes	anti-Stokes-747.200	187.082	-0.114	0.174
-746.185	-72.664	0.043	0.016
-745.171	121.900	0.089	0.114
-744.156	-101.675	-0.438	0.108
-743.142	-200.000	0.033	0.223
-742.127	17.296	-0.270	0.219
-741.112	577.335	-0.088	0.219
-740.098	-200.000	-0.033	-0.381
-739.083	272.818	0.164	0.296
-738.069	-200.000	-0.023	0.322
-737.054	-59.722	0.205	0.090
-736.039	51.880	-0.112	0.109
-735.025	147.376	0.231	0.317
-734.010	-74.642	-0.290	0.107
-732.996	120.135	-0.112	-0.142
-731.981	475.590	-0.085	-0.196
-730.966	800.000	-0.019	0.080
-729.952	580.680	0.038	0.096
-728.937	377.650	0.027	-0.056
-727.923	-160.626	0.138	-0.007
-726.908	800.000	-0.012	-0.053
-725.894	-86.842	0.156	-0.049
-724.879	309.305	-0.069	-0.132
-723.864	-200.000	0.077	-0.441
-722.850	800.000	-0.062	-0.196
-721.835	307.768	-0.124	-0.236
-720.821	800.000	-0.089	0.267
-719.806	-200.000	-0.043	-0.316
-718.791	-119.527	-0.478	-0.085
-717.777	-140.204	0.161	0.017
-716.762	105.596	-0.133	-0.161
-715.748	800.000	0.080	-0.252
-714.733	62.759	-0.203	-0.207
-713.718	800.000	-0.146	-0.500
-712.704	800.000	-0.040	0.149
-711.689	-65.182	0.190	-0.078
-710.675	138.215	0.086	0.115
-709.660	-89.571	0.206	-0.062
-708.645	-200.000	0.063	0.429
-707.631	-57.442	0.190	0.085
-706.616	-140.989	-0.304	0.032
-705.602	213.711	-0.195	-0.315
-704.587	-200.000	-0.015	-0.115
-703.572	-200.000	0.031	0.388
-702.558	453.294	-0.023	0.053
-701.543	-107.662	0.233	0.052
-700.529	800.000	0.040	-0.157
-699.514	-95.715	0.225	0.061
-698.499	-200.000	0.052	-0.295
-697.485	69.936	0.055	0.058
-696.470	-66.720	0.383	0.155
-695.456	-200.000	-0.028	0.281
-694.441	-100.709	0.146	0.037
-693.426	-127.080	-0.327	-0.049
-692.412	27.673	0.221	-0.190
-691.397	152.060	0.031	0.043
-690.383	-45.388	-0.213	0.108
-689.368	-2.318	0.151	-0.108
-688.354	176.131	0.095	-0.141
-687.339	143.562	-0.077	-0.105
-686.324	244.377	0.148	-0.254
-685.310	61.833	0.171	0.173
-684.295	57.330	0.040	-0.040
-683.281	800.000	0.150	-0.423
-682.266	800.000	0.104	-0.303
-681.251	-74.387	-0.354	-0.130
-680.237	420.981	0.112	0.245
-679.222	-200.000	-0.017	-0.171
-678.208	207.804	-0.103	-0.164
-677.193	800.000	-0.053	0.191
-676.178	-23.401	-0.182	-0.111
-675.164	-200.000	-0.023	-0.314
-674.149	-51.179	-0.357	0.170
-673.135	-2.397	-0.144	0.103
-672.120	690.660	0.106	-0.281
-671.105	-15.344	0.205	-0.133
-670.091	-161.317	0.289	-0.015
-669.076	-20.765	-0.189	-0.118
-668.062	607.938	0.064	-0.162
-667.047	238.652	-0.109	0.185
-666.032	-200.000	-0.064	-0.368
-665.018	-68.105	0.059	-0.023
-664.003	-200.000	0.038	-0.214
-662.989	-106.067	0.216	-0.049
-661.974	1.394	-0.207	-0.152
-660.959	305.724	-0.260	0.493
-659.945	-78.925	-0.228	0.079
-658.930	-118.696	0.118	0.021
-657.916	265.701	0.185	-0.329
-656.901	-88.619	-0.231	-0.070
-655.886	-74.279	-0.211	-0.078
-654.872	117.753	-0.236	0.296
-653.857	-87.845	0.464	0.142
-652.843	320.944	0.174	0.337
-651.828	58.164	-0.137	0.137
-650.814	800.000	-0.027	-0.119
-649.799	364.398	0.123	0.252
-648.784	326.371	0.069	0.135
-647.770	800.000	0.062	-0.278
-646.755	8.134	-0.124	0.095
-645.741	115.741	-0.102	0.127
-644.726	275.373	-0.287	-0.518
-643.711	-200.000	0.083	-0.378
-642.697	392.291	0.057	-0.120
-641.682	-200.000	-0.011	-0.142
-640.668	258.630	0.068	-0.118
-639.653	-145.654	-0.241	-0.022
-638.638	-171.113	-0.179	-0.006
-637.624	-87.074	-0.593	0.184
-636.609	336.347	-0.051	0.101
-635.595	-87.650	0.243	-0.075
-634.580	-200.000	0.016	0.077
-633.565	-200.000	0.027	0.270
-632.551	-57.058	-0.221	0.099
-631.536	135.178	-0.096	-0.127
-630.522	8.852	-0.158	-0.121
-629.507	48.003	-0.275	-0.262
-628.492	-115.090	-0.057	-0.011
-627.478	339.287	0.036	-0.071
-626.463	800.000	-0.028	0.088
-625.449	485.612	0.103	0.239
-624.434	119.322	-0.177	-0.223
-623.419	-182.663	-0.332	0.006
-622.405	-200.000	0.004	0.163
-621.390	-200.000	-0.025	0.405
-620.376	800.000	-0.033	0.098
-619.361	800.000	-0.014	-0.044
-618.346	-64.668	0.215	0.088
-617.332	-26.465	0.318	0.189
-616.317	-200.000	-0.010	-0.312
-615.303	-70.401	0.120	-0.046
-614.288	-141.865	0.233	-0.024
-613.273	-145.354	-0.220	-0.020
-612.259	73.206	0.178	-0.190
-611.244	113.101	0.068	-0.083
-610.230	13.582	-0.356	-0.281
-609.215	-68.168	-0.163	-0.064
-608.201	-93.130	-0.045	0.013
-607.186	707.011	0.031	-0.084
-606.171	-122.086	0.404	-0.067
-605.157	-72.819	-0.119	-0.044
-604.142	800.000	-0.040	0.149
-603.128	-16.971	-0.407	0.261
-602.113	-94.136	-0.182	0.051
-601.098	203.991	-0.156	0.245
-600.084	-100.052	-0.035	-0.009
-599.069	-133.831	-0.147	-0.019
-598.055	-200.000	0.023	0.210
-597.040	800.000	-0.034	0.124
-596.025	800.000	-0.082	0.295
-595.011	32.690	-0.170	0.150
-593.996	18.092	0.283	-0.229
-592.982	-200.000	0.014	-0.246
-591.967	-200.000	-0.009	-0.316
-590.952	-200.000	0.004	-0.355
-589.938	-91.130	-0.125	-0.036
-588.923	-72.315	-0.351	0.132
-587.909	-18.605	0.168	-0.106
-586.894	357.904	-0.066	0.133
-585.879	-182.136	0.206	-0.004
-584.865	273.876	-0.150	0.269
-583.850	-121.289	0.100	-0.017
-582.836	-200.000	0.006	0.030
-581.821	196.441	0.128	-0.198
-580.806	67.949	-0.233	-0.242
-579.792	176.098	-0.170	0.251
-578.777	9.882	0.268	-0.206
-577.763	66.431	0.082	0.085
-576.748	-200.000	0.037	0.176
-575.733	800.000	0.093	0.349
-574.719	800.000	0.049	0.164
-573.704	-166.837	-0.201	-0.008
-572.690	-13.921	0.285	0.187
-571.675	223.327	-0.109	-0.178
-570.661	88.382	0.076	-0.085
-569.646	-28.775	0.270	-0.158
-568.631	800.000	0.015	-0.052
-567.617	-86.461	0.064	-0.020
-566.602	219.623	-0.155	0.251
-565.588	96.754	-0.049	-0.057
-564.573	-154.505	-0.225	-0.015
-563.558	800.000	0.017	-0.068
-562.544	-120.882	-0.284	-0.049
-561.529	800.000	0.021	-0.086
-560.515	-200.000	0.020	0.260
-559.500	152.169	-0.178	-0.246
-558.485	-61.748	0.309	0.131
-557.471	-127.456	-0.179	-0.026
-556.456	-78.705	-0.235	0.081
-555.442	-200.000	-0.060	-0.349
-554.427	-104.320	-0.235	0.055
-553.412	-200.000	0.017	0.151
-552.398	800.000	-0.148	-0.479
-551.383	269.705	-0.054	0.096
-550.369	91.419	0.046	-0.052
-549.354	282.335	-0.021	0.038
-548.339	-85.379	0.158	0.050
-547.325	800.000	-0.034	0.117
-546.310	-200.000	-0.051	-0.279
-545.296	-200.000	0.008	-0.179
-544.281	113.251	0.126	0.155
-543.266	800.000	-0.125	0.500
-542.252	579.766	0.065	-0.160
-541.237	351.253	0.081	0.162
-540.223	-72.769	0.336	0.125
-539.208	-8.024	0.035	-0.024
-538.193	-200.000	0.037	-0.344
-537.179	59.695	-0.108	-0.108
-536.164	-200.000	0.011	0.128
-535.150	97.620	-0.343	0.399
-534.135	-200.000	0.011	-0.389
-533.121	-200.000	-0.032	-0.299
-532.106	113.847	0.031	-0.038
-531.091	-107.735	-0.304	-0.067
-530.077	523.738	0.091	0.217
-529.062	-93.431	-0.240	0.067
-528.048	16.805	-0.134	-0.108
-527.033	22.934	0.208	-0.173
-526.018	-144.191	-0.351	-0.033
-525.004	-98.446	-0.321	-0.083
-523.989	-125.723	-0.379	-0.058
-522.975	50.540	0.010	-0.010
-521.960	457.953	-0.215	-0.485
-520.945	392.848	0.113	-0.239
-519.931	48.654	0.087	0.083
-518.916	-17.378	0.161	0.102
-517.902	-138.384	0.122	-0.014
-516.887	-30.045	0.251	0.145
-515.872	106.144	0.207	-0.249
-514.858	800.000	-0.057	0.215
-513.843	259.772	0.087	-0.152
-512.829	-152.453	0.247	0.018
-511.814	255.609	0.075	0.130
-510.799	252.069	-0.126	0.218
-509.785	-122.907	-0.152	0.025
-508.770	800.000	0.051	0.146
-507.756	-162.435	-0.173	0.009
-506.741	391.129	-0.031	-0.065
-505.726	-25.454	-0.272	0.163
-504.712	-7.989	-0.080	0.055
-503.697	0.214	0.052	-0.038
-502.683	-52.501	-0.467	-0.219
-501.668	-200.000	-0.034	0.450
-500.653	166.260	-0.034	0.049
-499.639	-200.000	0.029	0.175
-498.624	127.967	-0.111	-0.143
-497.610	-200.000	0.006	-0.161
-496.595	800.000	0.058	-0.203
-495.581	-200.000	0.006	0.289
-494.566	14.250	-0.341	-0.269
-493.551	-177.915	0.446	-0.011
-492.537	-144.428	0.107	0.010
-491.522	-26.941	0.118	0.070
-490.508	-118.801	0.321	0.057
-489.493	-123.768	-0.256	0.041
-488.478	-35.295	0.127	0.070
-487.464	171.987	-0.158	-0.229
-486.449	-52.184	0.326	0.153
-485.435	632.345	-0.028	-0.071
-484.420	800.000	-0.049	0.202
-483.405	-31.653	0.521	0.296
-482.391	148.921	-0.040	0.054
-481.376	392.543	-0.052	-0.110
-480.362	-126.887	-0.169	-0.025
-479.347	-52.246	0.133	0.062
-478.332	-200.000	-0.038	0.462
-477.318	15.957	0.094	-0.075
-476.303	-12.985	-0.296	0.195
-475.289	800.000	0.056	0.199
-474.274	-108.315	-0.277	-0.060
-473.259	447.479	-0.077	0.172
-472.245	800.000	0.108	-0.450
-471.230	800.000	-0.098	0.426
-470.216	9.548	0.232	0.177
-469.201	800.000	-0.058	-0.178
-468.186	800.000	0.060	-0.259
-467.172	107.320	-0.047	0.056
-466.157	-81.635	-0.172	-0.057
-465.143	161.257	-0.134	0.190
-464.128	119.473	0.145	0.181
-463.113	-200.000	-0.036	-0.324
-462.099	800.000	-0.093	-0.329
-461.084	-3.629	-0.129	-0.090
-460.070	522.917	-0.066	0.157
-459.055	155.491	0.086	-0.120
-458.040	-140.830	-0.192	-0.020
-457.026	61.313	-0.112	-0.112
-456.011	-200.000	0.003	0.083
-454.997	22.029	0.180	-0.148
-453.982	-67.954	-0.220	0.087
-452.968	-31.539	0.173	-0.098
-451.953	-200.000	0.019	0.105
-450.938	-40.988	0.199	0.104
-449.924	368.930	0.066	0.135
-448.909	-191.981	0.132	-0.001
-447.895	229.971	-0.064	0.106
-446.880	192.716	0.172	-0.262
-445.865	120.751	-0.120	-0.151
-444.851	-70.414	0.216	0.083
-443.836	40.166	-0.031	-0.028
-442.822	559.337	0.046	0.111
-441.807	-13.992	0.084	-0.055
-440.792	47.273	-0.250	-0.235
-439.778	491.075	-0.034	-0.077
-438.763	800.000	-0.090	0.260
-437.749	5.433	0.037	-0.028
-436.734	-141.576	0.147	-0.015
-435.719	-91.427	0.194	0.056
-434.705	-48.575	0.113	0.055
-433.690	-200.000	0.032	-0.160
-432.676	-200.000	0.030	-0.301
-431.661	-200.000	0.426	-0.000
-430.646	35.008	-0.025	0.022
-429.632	589.387	-0.115	-0.286
-428.617	800.000	-0.027	-0.112
-427.603	188.775	-0.090	-0.135
-426.588	107.950	0.144	0.173
-425.573	343.696	-0.168	0.331
-424.559	392.594	-0.100	0.210
-423.544	673.901	-0.038	-0.100
-422.530	800.000	-0.069	-0.260
-421.515	738.795	-0.067	-0.182
-420.500	142.158	-0.136	0.181
-419.486	-200.000	0.014	0.284
-418.471	-200.000	-0.029	0.334
-417.457	-64.091	-0.122	0.050
-416.442	23.258	-0.071	-0.059
-415.428	-200.000	-0.032	0.635
-414.413	43.610	0.070	0.065
-413.398	800.000	0.096	-0.271
-412.384	575.700	-0.041	-0.102
-411.369	23.649	-0.169	-0.140
-410.355	-111.182	-0.250	-0.052
-409.340	-200.000	0.015	0.191
-408.325	73.012	0.123	0.130
-407.311	-138.309	-0.291	-0.032
-406.296	-6.489	0.110	0.075
-405.282	122.832	0.161	0.202
-404.267	167.883	-0.132	-0.190
-403.252	-146.317	0.267	0.024
-402.238	16.971	0.049	0.039
-401.223	-23.372	0.123	-0.074
-400.209	-200.000	-0.012	0.110
-399.194	40.011	0.130	0.117
-398.179	106.320	0.084	0.101
-397.165	-38.980	0.202	0.107
-396.150	-169.630	-0.119	0.004
-395.136	77.020	-0.207	-0.221
-394.121	44.917	-0.222	-0.206
-393.106	800.000	0.091	0.377
-392.092	-112.082	0.344	-0.070
-391.077	194.931	-0.028	0.043
-390.063	-73.725	0.171	0.063
-389.048	-107.496	0.190	0.042
-388.033	-103.380	0.523	-0.124
-387.019	-89.210	0.163	0.048
-386.004	140.192	0.177	0.235
-384.990	-17.221	0.119	-0.075
-383.975	-114.699	-0.210	-0.041
-382.960	46.345	-0.197	0.184
-381.946	-200.000	0.084	0.505
-380.931	-104.707	0.473	-0.110
-379.917	-23.455	0.274	0.165
-378.902	666.429	0.095	0.247
-377.888	-124.647	-0.122	-0.019
-376.873	-6.974	-0.059	0.040
-375.858	480.730	-0.100	0.228
-374.844	470.374	-0.068	0.155
-373.829	-87.548	0.228	0.069
-372.815	-38.055	-0.323	0.173
-371.800	15.056	-0.245	0.194
-370.785	-168.012	0.168	-0.007
-369.771	-76.569	-0.429	0.151
-368.756	22.505	0.208	-0.172
-367.742	35.693	-0.052	-0.046
-366.727	32.617	0.304	0.265
-365.712	-128.158	0.278	-0.040
-364.698	-73.966	0.085	0.031
-363.683	520.785	0.092	-0.217
-362.669	22.136	-0.169	0.139
-361.654	305.876	0.147	-0.275
-360.639	-91.167	0.450	-0.130
-359.625	370.241	-0.092	-0.187
-358.610	206.796	0.140	0.219
-357.596	335.110	0.003	0.005
-356.581	466.630	-0.101	-0.228
-355.566	510.227	0.060	0.139
-354.552	-105.184	-0.176	0.041
-353.537	-118.691	0.228	-0.041
-352.523	800.000	-0.047	-0.183
-351.508	-200.000	-0.012	0.090
-350.493	-32.689	-0.181	0.101
-349.479	800.000	-0.014	-0.062
-348.464	-161.380	0.236	0.012
-347.450	800.000	0.061	-0.224
-346.435	37.795	-0.112	0.100
-345.420	-73.885	0.121	-0.044
-344.406	-111.142	0.203	-0.042
-343.391	800.000	-0.037	0.149
-342.377	58.523	-0.150	-0.148
-341.362	394.430	-0.133	-0.279
-340.348	800.000	-0.083	-0.277
-339.333	800.000	-0.040	-0.146
-338.318	197.849	-0.097	-0.149
-337.304	8.905	0.217	-0.164
-336.289	-63.647	0.095	-0.039
-335.275	800.000	0.051	-0.148
-334.260	-200.000	0.035	0.389
-333.245	1.501	-0.240	-0.174
-332.231	800.000	-0.065	-0.252
-331.216	680.439	-0.068	0.178
-330.202	-123.746	0.238	-0.038
-329.187	800.000	0.107	-0.321
-328.172	184.786	0.232	0.345
-327.158	-165.924	0.068	-0.003
-326.143	274.745	0.078	0.138
-325.129	20.922	0.099	-0.080
-324.114	464.833	-0.067	0.152
-323.099	8.629	0.341	-0.258
-322.085	237.750	0.114	-0.190
-321.070	800.000	-0.108	-0.332
-320.056	11.923	-0.116	-0.089
-319.041	-200.000	0.021	0.147
-318.026	26.169	-0.265	0.223
-317.012	-16.994	0.235	-0.149
-315.997	-139.799	0.088	-0.009
-314.983	-169.218	-0.089	0.003
-313.968	-200.000	0.022	0.244
-312.953	561.782	-0.062	-0.150
-311.939	-200.000	0.018	0.411
-310.924	-80.692	0.148	0.050
-309.910	-89.369	-0.289	0.086
-308.895	170.581	0.135	-0.194
-307.880	50.045	-0.417	-0.395
-306.866	152.744	0.047	0.064
-305.851	-200.000	-0.005	-0.233
-304.837	-164.746	0.124	-0.006
-303.822	424.320	-0.037	0.079
-302.807	-200.000	0.003	0.386
-301.793	-18.008	-0.173	0.109
-300.778	483.145	-0.019	0.043
-299.764	273.113	0.086	-0.152
-298.749	122.560	-0.140	0.176
-297.735	-200.000	0.035	0.335
-296.720	411.298	0.065	0.139
-295.705	-171.242	-0.170	0.006
-294.691	-154.891	0.111	0.007
-293.676	96.685	-0.162	0.186
-292.662	-48.202	0.277	0.134
-291.647	800.000	-0.068	0.223
-290.632	-86.448	-0.140	-0.043
-289.618	800.000	-0.047	0.200
-288.603	167.933	-0.222	-0.317
-287.589	191.078	-0.108	-0.162
-286.574	412.913	0.085	0.182
-285.559	-136.750	0.067	-0.008
-284.545	800.000	-0.079	0.342
-283.530	-200.000	0.062	-0.389
-282.516	46.326	0.170	-0.158
-281.501	-180.246	-0.045	-0.001
-280.486	800.000	-0.045	-0.124
-279.472	0.653	-0.180	-0.129
-278.457	-163.590	0.283	0.013
-277.443	274.391	-0.086	-0.153
-276.428	632.331	-0.022	0.057
-275.413	-200.000	0.058	0.312
-274.399	-200.000	-0.015	0.119
-273.384	-37.025	0.447	0.240
-272.370	461.833	-0.257	0.574
-271.355	30.949	0.136	0.117
-270.340	478.286	0.013	-0.029
-269.326	800.000	0.053	0.210
-268.311	-81.477	-0.129	0.043
-267.297	-133.657	0.222	-0.028
-266.282	-105.476	-0.312	-0.071
-265.267	-200.000	-0.083	-0.373
-264.253	37.429	0.193	0.172
-263.238	-200.000	-0.001	0.118
-262.224	147.071	0.178	0.239
-261.209	800.000	-0.032	-0.096
-260.195	800.000	0.099	-0.346
-259.180	800.000	-0.058	0.227
-258.165	-133.044	0.047	0.006
-257.151	29.373	-0.218	-0.186
-256.136	40.807	-0.164	-0.148
-255.122	-45.407	-0.092	-0.046
-254.107	800.000	0.101	-0.410
-253.092	146.376	-0.190	-0.256
-252.078	-19.457	-0.218	0.135
-251.063	-200.000	-0.018	-0.210
-250.049	-65.242	-0.260	0.105
-249.034	-200.000	0.012	0.139
-248.019	-200.000	-0.005	0.052
-247.005	17.591	-0.163	-0.130
-245.990	338.789	-0.167	0.326
-244.976	-200.000	0.020	-0.307
-243.961	63.697	0.184	0.185
-242.946	-200.000	-0.019	-0.084
-241.932	55.768	0.352	-0.342
-240.917	-200.000	0.001	-0.198
-239.903	239.671	0.046	-0.077
-238.888	166.573	-0.035	-0.050
-237.873	-38.811	0.249	0.131
-236.859	-126.717	0.259	0.038
-235.844	800.000	-0.018	0.054
-234.830	-200.000	0.073	-0.373
-233.815	266.024	-0.093	0.163
-232.800	-200.000	0.009	-0.206
-231.786	316.304	-0.110	0.208
-230.771	-200.000	-0.019	0.085
-229.757	-11.260	-0.349	0.230
-228.742	-160.555	-0.171	-0.009
-227.727	-200.000	-0.045	-0.291
-226.713	78.206	-0.171	-0.183
-225.698	-11.772	0.189	0.124
-224.684	296.220	0.103	0.189
-223.669	800.000	0.045	-0.142
-222.655	146.534	-0.196	0.264
-221.640	42.267	0.117	-0.106
-220.625	43.223	0.117	-0.107
-219.611	-200.000	-0.030	-0.173
-218.596	-54.899	-0.100	0.045
-217.582	92.385	-0.053	0.059
-216.567	247.240	0.093	-0.158
-215.552	800.000	-0.096	-0.406
-214.538	-78.069	0.513	-0.177
-213.523	249.400	-0.276	-0.468
-212.509	487.644	0.062	-0.141
-211.494	-55.653	0.226	0.101
-210.479	143.841	-0.090	0.121
-209.465	800.000	-0.082	-0.307
-208.450	-8.134	0.109	-0.073
-207.436	-200.000	0.019	-0.166
-206.421	50.556	-0.064	0.060
-205.406	-200.000	0.008	0.280
-204.392	33.491	-0.299	0.260
-203.377	252.463	0.107	0.182
-202.363	-200.000	-0.039	0.227
-201.348	-70.942	0.073	-0.028
-200.333	222.271	-0.080	-0.129
-199.319	-200.000	0.030	-0.267
-198.304	800.000	-0.075	-0.300
-197.290	800.000	0.119	-0.352
-196.275	-103.157	0.342	-0.081
-195.260	26.952	0.274	0.230
-194.246	-200.000	0.015	0.205
-193.231	-200.000	-0.010	-0.104
-192.217	-5.695	0.032	-0.022
-191.202	-41.443	-0.260	-0.134
-190.187	-200.000	-0.002	-0.058
-189.173	61.380	0.262	-0.260
-188.158	8.156	0.079	-0.059
-187.144	-99.153	-0.130	-0.033
-186.129	800.000	0.035	0.126
-185.114	-170.065	-0.148	0.005
-184.100	-105.116	-0.136	-0.031
-183.085	32.546	-0.444	0.383
-182.071	216.293	0.144	-0.228
-181.056	606.987	-0.082	0.205
-180.042	-139.735	-0.286	-0.030
-179.027	-126.582	-0.261	-0.039
-178.012	-167.179	0.350	-0.014
-176.998	143.941	-0.200	0.267
-175.983	271.692	0.065	0.115
-174.969	132.177	-0.176	-0.226
-173.954	800.000	-0.033	0.126
-172.939	115.186	-0.070	-0.086
-171.925	136.715	-0.216	0.282
-170.910	57.070	0.135	0.131
-169.896	-7.368	0.369	-0.250
-168.881	800.000	0.088	-0.274
-167.866	-10.250	0.177	-0.118
-166.852	6.451	0.175	0.130
-165.837	-82.985	0.041	0.013
-164.823	800.000	-0.056	0.178
-163.808	-200.000	-0.030	-0.175
-162.793	114.841	0.074	-0.090
-161.779	-130.575	0.142	-0.019
-160.764	800.000	0.095	-0.349
-159.750	799.256	-0.079	-0.217
-158.735	-200.000	0.018	0.229
-157.720	-69.888	0.490	0.186
-156.706	57.295	0.414	0.403
-155.691	-104.835	0.444	0.102
-154.677	-25.777	0.361	0.212
-153.662	185.737	0.044	-0.065
-152.647	392.966	-0.047	-0.097
-151.633	-51.431	-0.156	0.073
-150.618	51.632	0.121	0.115
-149.604	-200.000	0.013	-0.457
-148.589	-61.733	-0.317	0.133
-147.574	800.000	0.061	0.170
-146.560	277.535	-0.061	0.109
-145.545	517.787	-0.016	-0.036
-144.531	800.000	-0.069	-0.274
-143.516	47.494	-0.179	-0.166
-142.502	95.155	0.136	0.154
-141.487	-200.000	-0.027	-0.178
-140.472	56.908	0.288	-0.280
-139.458	-47.617	0.109	0.053
-138.443	-52.337	0.163	-0.075
-137.429	-114.022	-0.260	0.050
-136.414	-200.000	0.037	0.186
-135.399	-98.779	-0.026	0.006
-134.385	17.789	-0.212	0.168
-133.370	157.065	0.173	0.238
-132.356	-107.231	0.113	0.025
-131.341	283.859	0.164	-0.294
-130.326	-16.598	0.397	-0.251
-129.312	-200.000	0.021	0.386
-128.297	-0.545	0.103	0.073
-127.283	-25.000	0.252	0.149
-126.268	18.533	0.167	0.133
-125.253	-200.000	-0.014	-0.253
-124.239	74.000	-0.218	0.228
-123.224	-200.000	0.010	0.201
-122.210	59.437	0.183	0.180
-121.195	-200.000	-0.024	0.507
-120.180	-141.944	-0.089	-0.009
-119.166	-23.841	0.145	0.087
-118.151	-14.323	0.193	0.124
-117.137	800.000	-0.021	-0.060
-116.122	-200.000	0.042	0.239
-115.107	-106.805	0.078	0.017
-114.093	-200.000	0.004	-0.248
-113.078	-65.402	0.110	0.044
-112.064	-200.000	-0.008	-0.049
-111.049	800.000	-0.087	0.373
-110.034	408.461	-0.148	0.312
-109.020	206.445	-0.074	0.115
-108.005	-200.000	-0.009	0.310
-106.991	-200.000	0.009	-0.105
-105.976	-86.221	-0.163	0.050
-104.962	-200.000	0.007	0.033
-103.947	68.347	-0.147	0.150
-102.932	-200.000	-0.014	0.076
-101.918	-200.000	0.068	-0.308
-100.903	96.656	-0.230	-0.262
-99.889	-181.717	0.126	0.002
-98.874	-200.000	-0.067	0.350
-97.859	-36.802	0.240	0.128
-96.845	-200.000	-0.002	-0.032
-95.830	138.705	-0.104	0.136
-94.816	800.000	0.058	-0.207
-93.801	-200.000	0.016	-0.245
-92.786	800.000	-0.033	-0.106
-91.772	-154.653	-0.313	-0.021
-90.757	203.154	-0.149	0.229
-89.743	-82.285	-0.218	0.071
-88.728	800.000	0.059	-0.256
-87.713	7.796	0.148	0.110
-86.699	576.944	0.121	-0.295
-85.684	28.285	-0.091	0.077
-84.670	800.000	0.053	0.202
-83.655	426.761	0.171	-0.367
-82.640	-108.676	-0.228	0.049
-81.626	-3.313	0.322	-0.223
-80.611	13.901	0.153	-0.118
-79.597	-161.864	0.213	0.011
-78.582	106.431	-0.116	-0.136
-77.567	263.133	-0.055	0.095
-76.553	44.618	-0.093	-0.085
-75.538	-27.306	-0.255	0.148
-74.524	287.682	0.119	0.215
-73.509	800.000	-0.014	0.055
-72.494	152.534	-0.171	0.233
-71.480	450.756	-0.153	0.335
-70.465	114.048	0.072	-0.087
-69.451	87.744	0.071	-0.078
-68.436	-197.382	0.224	-0.001
-67.422	25.004	0.278	-0.230
-66.407	-81.803	-0.431	0.140
-65.392	-200.000	0.016	0.321
-64.378	-32.831	-0.322	0.178
-63.363	-3.045	0.192	-0.133
-62.349	-77.808	0.072	-0.025
-61.334	33.173	-0.740	-0.638
-60.319	424.510	0.143	0.306
-59.305	800.000	-0.200	-0.673
-58.290	157.771	0.594	0.817
-57.276	400.484	0.697	1.453
-56.261	-200.000	85.299	522.209
-55.246	506.871	1355.524	3125.548
-54.232	150.080	2561.813	3454.923
-53.217	113.241	2210.947	2666.273
-52.203	49.345	1665.514	1557.234
-51.188	42.013	1397.721	1260.844
-50.173	38.686	1353.847	1200.878
-49.159	57.114	1396.853	1354.017
-48.144	62.415	1415.861	1405.348
-47.130	42.454	1373.367	1241.406
-46.115	38.809	1355.999	1203.349
-45.100	38.527	1351.370	1197.469
-44.086	38.478	1348.598	1194.663
-43.071	38.422	1346.563	1192.474
-42.057	38.357	1344.201	1189.942
-41.042	38.497	1342.536	1189.268
-40.027	38.533	1340.873	1187.966
-39.013	38.617	1338.505	1186.331
-37.998	38.481	1337.651	1184.703
-36.984	38.549	1335.438	1183.108
-35.969	38.565	1334.219	1182.078
-34.954	38.622	1332.212	1180.599
-33.940	38.625	1330.773	1179.293
-32.925	38.717	1329.214	1178.415
-31.911	38.696	1327.944	1177.119
-30.896	38.618	1326.362	1175.201
-29.881	38.672	1325.260	1174.504
-28.867	38.723	1323.495	1173.199
-27.852	38.752	1321.798	1171.817
-26.838	38.678	1320.735	1170.388
-25.823	38.678	1319.465	1169.217
-24.809	38.680	1318.316	1168.162
-23.794	38.695	1316.658	1166.736
-22.779	38.805	1314.485	1165.419
-21.765	38.741	1313.444	1164.072
-20.750	38.606	1312.190	1162.112
-19.736	38.645	1310.841	1161.099
-18.721	38.564	1309.654	1159.523
-17.706	38.593	1308.763	1158.864
-16.692	38.644	1307.409	1157.920
-15.677	38.625	1306.602	1157.043
-14.663	38.579	1305.518	1155.767
-13.648	38.593	1304.404	1154.816
-12.633	38.514	1303.444	1153.458
-11.619	38.543	1302.315	1152.585
-10.604	38.590	1301.503	1152.095
-9.590	38.487	1300.591	1150.635
-8.575	38.516	1299.362	1149.671
-7.560	38.513	1298.829	1149.138
-6.546	38.601	1297.376	1148.323
-5.531	38.440	1296.851	1146.870
-4.517	38.557	1295.691	1146.483
-3.502	38.672	1295.002	1146.501
-2.487	38.671	1293.709	1145.305
-1.473	38.579	1290.083	1141.512
-0.458	36.904	1274.411	1117.946
0.556	30.974	1255.464	1073.142
1.571	26.518	1259.031	1050.301
2.586	25.091	1273.905	1054.233
3.600	24.489	1263.821	1042.282
4.615	22.208	1196.375	973.951
5.629	17.941	1124.711	893.257
6.644	15.582	1105.073	865.444
7.659	15.422	1102.242	862.328
8.673	15.328	1100.825	860.660
9.688	15.438	1098.877	859.624
10.702	15.473	1097.840	858.914
11.717	18.077	1101.399	874.970
12.731	20.753	1104.471	891.052
13.746	19.773	1101.419	883.508
14.761	17.810	1098.225	870.855
15.775	16.459	1095.816	861.986
16.790	15.383	1093.811	854.852
17.804	14.704	1091.713	849.682
18.819	14.162	1090.439	845.860
19.834	13.878	1089.273	843.436
20.848	13.624	1088.173	841.225
21.863	13.199	1087.985	838.848
22.877	13.262	1086.635	838.048
23.892	13.128	1085.820	836.669
24.907	13.239	1085.315	836.767
25.921	13.176	1084.025	835.379
26.936	13.198	1083.266	834.834
27.950	13.318	1081.638	834.109
28.965	13.397	1079.992	833.166
29.980	13.412	1078.482	832.001
30.994	13.461	1077.424	831.357
32.009	13.420	1076.692	830.511
33.023	13.455	1075.422	829.635
34.038	13.408	1073.919	828.167
35.053	13.451	1073.451	827.950
36.067	13.462	1072.111	826.897
37.082	13.381	1071.636	826.054
38.096	13.412	1070.614	825.345
39.111	13.412	1069.985	824.789
40.126	13.343	1068.726	823.402
41.140	13.175	1067.599	821.625
42.155	13.192	1066.279	820.622
43.169	13.131	1065.379	819.555
44.184	13.248	1064.353	819.269
45.199	13.157	1063.431	818.040
46.213	13.248	1062.351	817.584
47.228	13.269	1061.133	816.678
48.242	13.206	1060.662	815.934
49.257	13.254	1059.250	815.014
50.271	13.274	1058.701	814.615
51.286	13.362	1057.565	814.101
52.301	13.236	1056.628	812.688
53.315	13.231	1055.484	811.712
54.330	13.210	1054.292	810.622
55.344	13.294	1053.639	810.462
56.359	13.319	1052.723	809.804
57.374	13.156	1052.039	808.410
58.388	13.149	1051.460	807.858
59.403	13.181	1050.230	806.999
60.417	13.177	1048.860	805.857
61.432	13.126	1048.776	805.471
62.447	13.101	1047.698	804.452
63.461	12.987	1047.296	803.515
64.476	13.098	1046.047	803.027
65.490	13.059	1045.232	802.140
66.505	13.113	1044.332	801.642
67.520	13.191	1043.373	801.211
68.534	13.117	1042.774	800.324
69.549	13.145	1042.271	800.003
70.563	13.069	1041.650	799.088
71.578	13.174	1040.582	798.705
72.593	13.017	1039.904	797.356
73.607	12.949	1039.805	796.879
74.622	12.961	1038.829	796.118
75.636	13.020	1037.958	795.664
76.651	13.007	1037.719	795.347
77.666	13.182	1036.584	795.252
78.680	13.040	1036.095	794.123
79.695	12.976	1035.535	793.315
80.709	13.189	1034.247	793.281
81.724	13.264	1033.720	793.166
82.739	13.157	1033.409	792.343
83.753	13.317	1032.406	792.273
84.768	13.293	1031.381	791.301
85.782	13.453	1029.966	790.908
86.797	13.370	1029.388	790.000
87.812	13.226	1028.806	788.796
88.826	13.394	1027.436	788.475
89.841	13.386	1026.545	787.686
90.855	13.438	1025.652	787.174
91.870	13.438	1024.913	786.538
92.884	13.421	1024.030	785.710
93.899	13.477	1023.019	785.133
94.914	13.492	1022.441	784.690
95.928	13.632	1021.530	784.583
96.943	13.420	1020.448	782.680
97.957	13.417	1020.205	782.413
98.972	13.466	1019.035	781.674
99.987	13.450	1017.956	780.704
101.001	13.456	1016.577	779.605
102.016	13.313	1016.263	778.623
103.030	13.460	1015.256	778.473
104.045	13.491	1014.245	777.775
105.060	13.385	1013.761	776.839
106.074	13.251	1012.923	775.499
107.089	13.220	1011.463	774.166
108.103	13.204	1010.919	773.606
109.118	13.214	1010.041	772.914
110.133	13.206	1008.724	771.801
111.147	13.202	1008.049	771.194
112.162	13.364	1007.039	771.109
113.176	13.272	1006.392	770.118
114.191	13.348	1005.574	769.779
115.206	13.353	1004.737	769.090
116.220	13.290	1004.019	768.181
117.235	13.264	1003.258	767.409
118.249	13.261	1002.423	766.689
119.264	13.405	1001.343	766.462
120.279	13.236	1000.927	765.292
121.293	13.335	999.869	764.875
122.308	13.259	998.856	763.683
123.322	13.402	997.689	763.384
124.337	13.229	997.127	762.088
125.352	13.410	995.597	761.685
126.366	13.343	994.511	760.476
127.381	13.241	994.185	759.695
128.395	13.272	992.794	758.704
129.410	13.332	992.137	758.412
130.424	13.352	991.227	757.741
131.439	13.439	990.307	757.367
132.454	13.361	989.739	756.511
133.468	13.466	988.673	756.108
134.483	13.463	987.934	755.461
135.497	13.379	987.568	754.730
136.512	13.456	986.360	754.089
137.527	13.446	985.454	753.287
138.541	13.504	984.815	752.996
139.556	13.429	984.153	752.080
140.570	13.453	983.312	751.481
141.585	13.438	982.674	750.860
142.600	13.487	981.793	750.344
143.614	13.719	980.591	750.407
144.629	13.591	980.265	749.511
145.643	13.561	979.246	748.533
146.658	13.567	977.974	747.518
147.673	13.487	976.868	746.248
148.687	13.396	976.606	745.570
149.702	13.399	975.745	744.863
150.716	13.404	974.738	744.051
151.731	13.457	974.166	743.787
152.746	13.540	973.109	743.286
153.760	13.529	972.720	742.871
154.775	13.541	972.344	742.574
155.789	13.450	971.372	741.359
156.804	13.645	970.700	741.651
157.819	13.704	970.038	741.345
158.833	13.675	969.509	740.746
159.848	13.799	968.624	740.557
160.862	13.668	967.305	738.897
161.877	13.558	966.226	737.519
162.892	13.535	965.716	736.961
163.906	13.515	964.916	736.200
164.921	13.495	964.116	735.435
165.935	13.528	963.116	734.752
166.950	13.640	962.035	734.359
167.964	13.669	961.077	733.691
168.979	13.619	960.327	732.834
169.994	13.633	959.342	732.078
171.008	13.663	958.568	731.554
172.023	13.597	957.955	730.731
173.037	13.718	957.147	730.586
174.052	13.830	956.419	730.456
175.067	13.706	955.687	729.288
176.081	13.521	955.410	728.197
177.096	13.741	954.562	728.452
178.110	13.711	953.942	727.786
179.125	13.703	953.576	727.407
180.140	13.724	953.127	727.090
181.154	13.736	952.834	726.855
182.169	13.739	952.198	726.320
183.183	13.888	951.340	726.252
184.198	13.786	950.277	724.931
185.213	13.769	950.192	724.728
186.227	13.927	949.328	724.694
187.242	13.718	949.144	723.577
188.256	13.890	948.335	723.647
189.271	13.799	947.467	722.524
190.286	13.749	946.812	721.743
191.300	13.816	945.325	720.837
192.315	13.802	944.844	720.343
193.329	13.792	944.249	719.786
194.344	13.855	943.335	719.298
195.359	13.857	943.233	719.162
196.373	14.021	942.318	719.111
197.388	13.980	942.102	718.705
198.402	14.056	941.880	718.801
199.417	14.034	941.177	718.106
200.432	14.166	940.482	718.082
201.446	14.204	939.694	717.581
202.461	14.299	939.018	717.412
203.475	14.185	938.673	716.595
204.490	14.074	938.195	715.688
205.504	14.196	936.809	715.090
206.519	14.197	935.960	714.384
207.534	14.166	935.568	713.888
208.548	14.060	935.399	713.242
209.563	14.128	934.641	712.892
210.577	14.105	933.910	712.175
211.592	14.300	933.030	712.273
212.607	14.251	932.024	711.234
213.621	14.287	931.324	710.789
214.636	14.344	930.542	710.374
215.650	14.263	930.203	709.705
216.665	14.351	929.215	709.266
217.680	14.330	928.936	708.900
218.694	14.379	928.019	708.345
219.709	14.383	927.364	707.800
220.723	14.331	926.717	707.022
221.738	14.441	925.518	706.513
222.753	14.240	925.318	705.443
223.767	14.366	924.531	705.315
224.782	14.368	923.936	704.808
225.796	14.488	923.350	704.806
226.811	14.539	922.718	704.477
227.826	14.416	922.141	703.452
228.840	14.527	921.117	703.079
229.855	14.449	919.967	701.811
230.869	14.406	919.609	701.294
231.884	14.430	919.082	700.930
232.899	14.342	918.595	700.128
233.913	14.333	917.905	699.501
234.928	14.512	916.863	699.397
235.942	14.339	916.052	697.993
236.957	14.472	915.669	698.194
237.972	14.414	915.146	697.492
238.986	14.477	914.656	697.321
240.001	14.495	914.009	696.838
241.015	14.644	912.715	696.412
242.030	14.477	912.728	695.665
243.045	14.554	912.169	695.499
244.059	14.579	911.332	694.904
245.074	14.540	910.735	694.226
246.088	14.541	910.396	693.910
247.103	14.660	909.378	693.564
248.117	14.765	908.438	693.224
249.132	14.902	908.300	693.624
250.147	14.861	907.537	692.812
251.161	14.939	906.963	692.635
252.176	14.884	906.691	692.138
253.190	14.847	905.605	691.093
254.205	14.988	904.958	691.121
255.220	14.975	904.555	690.700
256.234	15.041	903.661	690.226
257.249	14.971	903.046	689.409
258.263	14.887	902.466	688.557
259.278	14.892	901.540	687.813
260.293	14.997	900.828	687.638
261.307	15.061	900.444	687.550
262.322	14.999	900.420	687.215
263.336	15.137	899.532	687.042
264.351	15.184	898.049	686.039
265.366	15.299	897.315	685.889
266.380	15.290	896.948	685.513
267.395	15.153	896.360	684.443
268.409	15.055	895.425	683.267
269.424	15.117	894.874	683.040
270.439	15.152	894.130	682.555
271.453	15.097	893.429	681.734
272.468	15.141	892.878	681.432
273.482	15.112	892.433	680.915
274.497	15.164	891.678	680.492
275.512	15.207	891.306	680.320
276.526	15.171	890.985	679.870
277.541	15.254	890.236	679.573
278.555	15.343	889.588	679.381
279.570	15.279	889.120	678.704
280.585	15.387	888.336	678.481
281.599	15.345	887.243	677.417
282.614	15.214	886.784	676.476
283.628	15.204	886.457	676.127
284.643	15.388	885.293	675.922
285.657	15.397	884.625	675.387
286.672	15.492	883.857	675.123
287.687	15.336	883.166	673.909
288.701	15.569	882.795	674.502
289.716	15.343	882.528	673.333
290.730	15.505	881.822	673.385
291.745	15.526	881.179	672.918
292.760	15.628	880.170	672.496
293.774	15.630	879.928	672.259
294.789	15.523	879.403	671.368
295.803	15.529	878.590	670.713
296.818	15.528	877.742	670.004
297.833	15.510	877.149	669.419
298.847	15.513	876.792	669.100
299.862	15.586	876.180	668.863
300.876	15.652	875.501	668.550
301.891	15.834	874.606	668.529
302.906	15.858	874.089	668.169
303.920	15.773	874.089	667.773
304.935	15.922	873.107	667.555
305.949	15.699	872.787	666.368
306.964	15.770	871.979	665.974
307.979	15.690	871.537	665.262
308.993	15.805	871.122	665.338
310.008	15.778	870.222	664.486
311.022	15.941	869.205	664.293
312.037	15.794	868.942	663.455
313.052	15.754	868.534	662.929
314.066	15.658	868.349	662.351
315.081	15.767	867.455	662.037
316.095	15.626	866.913	661.011
317.110	15.751	866.314	660.988
318.125	15.710	865.657	660.265
319.139	15.801	865.421	660.383
320.154	15.838	864.858	660.042
321.168	15.758	864.524	659.413
322.183	15.791	863.583	658.770
323.197	16.083	862.911	659.339
324.212	15.869	862.611	658.213
325.227	16.074	861.520	658.125
326.241	15.750	861.478	656.770
327.256	15.899	860.694	656.694
328.270	15.910	860.192	656.298
329.285	16.015	859.157	655.859
330.300	16.032	858.877	655.650
331.314	15.853	858.575	654.668
332.329	15.920	857.779	654.261
333.343	16.119	857.347	654.648
334.358	16.049	857.107	654.133
335.373	16.152	856.588	654.079
336.387	16.034	856.479	653.482
337.402	16.012	856.032	652.998
338.416	16.049	855.744	652.865
339.431	16.255	855.117	653.124
340.446	16.096	854.761	652.178
341.460	16.213	854.455	652.341
342.475	16.333	853.989	652.389
343.489	16.182	853.912	651.692
344.504	16.319	852.743	651.271
345.519	16.341	852.581	651.173
346.533	16.445	851.471	650.668
347.548	16.331	851.141	649.919
348.562	16.393	850.681	649.748
349.577	16.188	850.214	648.546
350.592	16.278	850.002	648.673
351.606	16.318	848.777	647.834
352.621	16.260	848.053	647.003
353.635	16.369	847.581	647.003
354.650	16.439	846.942	646.725
355.665	16.254	846.704	645.780
356.679	16.442	845.508	645.529
357.694	16.519	845.107	645.458
358.708	16.351	844.605	644.378
359.723	16.230	844.472	643.756
360.738	16.329	843.640	643.443
361.752	16.533	842.783	643.510
362.767	16.493	842.421	643.025
363.781	16.501	841.780	642.509
364.796	16.679	841.198	642.681
365.810	16.681	840.816	642.342
366.825	16.617	840.768	642.005
367.840	16.693	839.992	641.645
368.854	16.682	839.463	641.141
369.869	16.763	838.796	640.880
370.883	16.721	838.584	640.506
371.898	16.694	838.455	640.246
372.913	16.678	837.962	639.752
373.927	16.774	837.258	639.522
374.942	16.703	837.154	639.119
375.956	16.750	836.549	638.776
376.971	16.911	835.727	638.701
377.986	16.982	835.200	638.506
379.000	16.864	835.145	637.965
380.015	16.965	834.568	637.847
381.029	16.917	833.694	636.943
382.044	16.912	833.159	636.457
383.059	16.953	832.786	636.271
384.073	16.980	832.017	635.726
385.088	16.926	831.599	635.150
386.102	16.939	831.189	634.831
387.117	16.891	830.346	633.950
388.132	16.847	829.517	633.097
389.146	16.856	829.302	632.910
390.161	16.943	829.160	633.070
391.175	16.964	828.329	632.459
392.190	17.038	827.819	632.288
393.205	16.977	827.135	631.485
394.219	16.986	826.828	631.229
395.234	17.112	826.244	631.192
396.248	17.049	825.999	630.716
397.263	17.044	825.486	630.250
398.278	17.065	825.050	629.939
399.292	16.993	824.854	629.468
400.307	17.010	824.316	629.064
401.321	17.053	823.706	628.700
402.336	17.018	823.208	628.135
403.350	17.110	823.033	628.289
404.365	17.124	822.920	628.199
405.380	17.295	821.584	627.754
406.394	17.265	821.263	627.344
407.409	17.282	821.280	627.362
408.423	17.309	821.039	627.224
409.438	17.335	820.354	626.739
410.453	17.294	820.107	626.345
411.467	17.243	819.163	625.381
412.482	17.348	819.118	625.678
413.496	17.484	818.918	625.969
414.511	17.533	818.577	625.833
415.526	17.559	818.024	625.448
416.540	17.558	817.230	624.783
417.555	17.551	816.897	624.449
418.569	17.592	816.336	624.116
419.584	17.541	815.800	623.463
420.599	17.497	815.843	623.279
421.613	96.992	1276.384	1406.901
422.628	83.412	1343.494	1407.032
