DTS Sentinel unit serial number:	SN413079Multiplexer serial number:	ORYXHardware model number:	OX4-SRSoftware version number:	ORYX F/W v4.00 Oryx Data Collector v3.7.2.0data status	okinstallation	princeton_trtdifferential loss correction	single-endedforward channel	channel 1reverse channel	N/Adate	2019/09/16time	05:50:35forward acquisition time	60.00reverse acquisition time	0.00gamma	496.2192k internal	0.2331k external	0.2331temperature offset calibration	0.9985default loss term (dB/km)	0.3790temperature slope calibration	1.0000multiplexer offset coefficient	1.0000multiplexer slope coefficient	1.0000fibre end	0.00T internal ref (°C)	27.37T ext. ref 1 (°C)	11.21T ext. ref 2 (°C)	22.21length (m)	temperature (°C)	Stokes	anti-Stokes-747.200	-200.000	-0.017	0.222
-746.185	-53.918	-0.170	0.078
-745.171	-30.783	0.216	0.123
-744.156	800.000	0.023	-0.088
-743.142	800.000	-0.054	0.154
-742.127	-200.000	0.044	0.233
-741.112	-54.045	0.166	-0.076
-740.098	-108.541	-0.242	-0.052
-739.083	164.230	0.101	-0.143
-738.069	-89.686	-0.328	-0.097
-737.054	6.421	0.069	-0.051
-736.039	-60.410	-0.145	-0.062
-735.025	-72.857	0.325	0.120
-734.010	-200.000	-0.008	-0.080
-732.996	-81.128	-0.196	-0.065
-731.981	-75.233	-0.203	0.073
-730.966	800.000	0.120	-0.394
-729.952	785.516	-0.086	-0.237
-728.937	-135.149	0.079	0.010
-727.923	190.349	0.135	-0.204
-726.908	117.812	-0.181	-0.224
-725.894	198.806	-0.250	-0.385
-724.879	-200.000	-0.020	0.125
-723.864	663.819	-0.137	-0.355
-722.850	800.000	-0.059	-0.210
-721.835	28.391	-0.084	0.071
-720.821	-48.604	0.207	-0.100
-719.806	-24.521	-0.309	0.185
-718.791	-94.790	0.111	-0.030
-717.777	800.000	0.056	-0.199
-716.762	390.431	-0.028	0.059
-715.748	-14.098	0.353	0.229
-714.733	476.766	-0.050	0.113
-713.718	134.838	-0.132	0.173
-712.704	211.711	0.152	0.241
-711.689	-200.000	-0.004	-0.290
-710.675	-61.144	-0.111	0.047
-709.660	8.125	0.200	-0.151
-708.645	800.000	0.062	0.201
-707.631	800.000	0.054	0.226
-706.616	800.000	-0.008	-0.034
-705.602	800.000	0.031	-0.090
-704.587	31.834	0.281	-0.243
-703.572	-0.743	-0.188	-0.134
-702.558	-46.293	-0.267	-0.132
-701.543	800.000	0.106	0.312
-700.529	800.000	0.074	-0.262
-699.514	87.069	0.063	0.070
-698.499	-133.041	0.529	0.067
-697.485	-200.000	-0.023	0.368
-696.470	-200.000	0.008	-0.318
-695.456	445.677	-0.022	0.049
-694.441	-200.000	-0.040	-0.229
-693.426	-128.950	-0.318	0.045
-692.412	800.000	-0.102	-0.305
-691.397	18.023	-0.252	-0.202
-690.383	-4.564	-0.202	-0.140
-689.368	-20.671	-0.046	-0.028
-688.354	-6.095	-0.180	-0.124
-687.339	549.547	-0.046	0.110
-686.324	139.811	-0.080	-0.106
-685.310	-200.000	-0.001	-0.093
-684.295	-39.388	-0.299	-0.158
-683.281	-50.393	-0.363	-0.172
-682.266	-25.738	-0.216	-0.128
-681.251	769.391	-0.136	-0.373
-680.237	384.186	-0.034	-0.070
-679.222	253.016	-0.206	0.353
-678.208	82.176	-0.107	-0.117
-677.193	800.000	0.061	0.248
-676.178	-7.146	0.072	-0.049
-675.164	-50.879	-0.379	-0.179
-674.149	-154.016	0.516	-0.035
-673.135	35.253	0.150	-0.132
-672.120	77.110	-0.111	0.119
-671.105	800.000	-0.026	0.087
-670.091	-92.401	0.253	0.071
-669.076	562.845	0.102	-0.249
-668.062	-86.516	-0.385	-0.119
-667.047	-68.951	-0.033	0.013
-666.032	-200.000	0.017	-0.400
-665.018	23.754	-0.306	-0.253
-664.003	-89.386	0.149	0.044
-662.989	-94.855	0.096	-0.026
-661.974	95.206	0.295	0.337
-660.959	183.725	0.124	-0.184
-659.945	-78.429	-0.266	-0.091
-658.930	-15.494	0.111	-0.071
-657.916	-80.932	-0.297	-0.099
-656.901	111.030	0.160	-0.193
-655.886	36.838	0.164	0.145
-654.872	43.727	-0.071	-0.065
-653.857	-40.058	0.374	0.196
-652.843	-91.545	-0.375	0.107
-651.828	-4.279	0.239	0.166
-650.814	21.961	-0.165	-0.135
-649.799	-86.573	-0.286	-0.088
-648.784	35.771	0.056	0.050
-647.770	259.752	0.043	0.075
-646.755	17.573	0.108	-0.086
-645.741	71.995	0.127	0.132
-644.726	159.558	-0.070	-0.097
-643.711	-200.000	-0.016	-0.260
-642.697	-53.341	0.087	-0.040
-641.682	-153.402	0.387	-0.027
-640.668	-79.607	0.199	-0.067
-639.653	-200.000	-0.001	-0.267
-638.638	-67.807	-0.086	0.034
-637.624	14.988	-0.125	0.098
-636.609	-200.000	-0.027	-0.265
-635.595	-200.000	-0.062	-0.288
-634.580	-102.139	0.386	-0.093
-633.565	-88.561	0.100	0.030
-632.551	82.775	-0.131	-0.143
-631.536	-200.000	0.009	0.159
-630.522	-112.620	-0.100	-0.020
-629.507	-142.108	-0.271	-0.027
-628.492	199.972	-0.130	-0.200
-627.478	-200.000	0.062	-0.394
-626.463	-73.624	-0.018	-0.007
-625.449	-62.689	-0.266	0.110
-624.434	-73.083	-0.387	0.142
-623.419	-43.165	-0.186	-0.095
-622.405	129.094	0.131	-0.167
-621.390	-200.000	0.031	-0.184
-620.376	609.878	-0.075	0.188
-619.361	-183.420	0.449	-0.008
-618.346	-122.184	-0.144	-0.024
-617.332	56.643	0.141	0.137
-616.317	47.457	-0.256	0.239
-615.303	800.000	0.056	0.244
-614.288	370.556	0.140	0.283
-613.273	-154.173	-0.095	-0.006
-612.259	77.178	0.090	0.096
-611.244	45.552	0.248	0.230
-610.230	255.658	0.035	0.060
-609.215	177.679	-0.229	-0.334
-608.201	-111.945	-0.173	-0.035
-607.186	-200.000	0.041	-0.283
-606.171	-117.042	0.275	-0.050
-605.157	-117.744	-0.080	-0.014
-604.142	343.676	-0.023	0.045
-603.128	607.337	0.084	-0.209
-602.113	76.868	0.104	-0.111
-601.098	-168.852	0.203	-0.008
-600.084	-200.000	0.020	-0.292
-599.069	800.000	-0.063	-0.207
-598.055	-74.068	0.123	-0.045
-597.040	-36.444	-0.270	-0.146
-596.025	-61.529	0.088	0.037
-595.011	-21.374	-0.321	-0.196
-593.996	-79.118	0.147	0.050
-592.982	-200.000	0.060	0.297
-591.967	249.643	0.259	0.439
-590.952	591.000	0.048	-0.118
-589.938	-141.778	-0.229	-0.023
-588.923	800.000	0.078	-0.220
-587.909	-200.000	-0.047	-0.228
-586.894	-200.000	0.016	-0.112
-585.879	-18.480	0.089	0.056
-584.865	201.434	0.110	-0.169
-583.850	286.549	0.108	0.195
-582.836	81.848	-0.012	0.013
-581.821	-94.799	0.092	-0.025
-580.806	-130.250	0.277	-0.038
-579.792	-200.000	-0.034	-0.264
-578.777	-175.316	-0.191	0.005
-577.763	550.365	-0.074	0.177
-576.748	-200.000	-0.025	-0.124
-575.733	124.664	-0.062	0.078
-574.719	800.000	0.065	0.279
-573.704	-36.260	-0.519	-0.280
-572.690	9.099	0.260	-0.197
-571.675	314.552	0.070	0.131
-570.661	-13.335	0.179	-0.116
-569.646	800.000	-0.046	0.196
-568.631	-200.000	-0.040	-0.202
-567.617	-200.000	0.023	0.252
-566.602	-200.000	-0.023	0.118
-565.588	-42.968	-0.121	-0.062
-564.573	-104.138	0.319	0.074
-563.558	-14.812	0.205	-0.131
-562.544	-110.939	-0.202	-0.041
-561.529	800.000	-0.026	-0.099
-560.515	95.305	0.141	0.161
-559.500	-200.000	-0.012	0.138
-558.485	39.868	-0.177	-0.159
-557.471	-200.000	0.004	0.020
-556.456	28.151	0.294	-0.248
-555.442	11.183	0.302	0.231
-554.427	800.000	-0.059	0.210
-553.412	800.000	-0.031	0.109
-552.398	800.000	0.073	-0.263
-551.383	-132.997	-0.325	0.041
-550.369	-108.187	-0.045	0.010
-549.354	-200.000	-0.004	-0.214
-548.339	-200.000	0.045	-0.260
-547.325	-200.000	0.015	-0.247
-546.310	-115.856	-0.079	0.015
-545.296	-200.000	-0.026	-0.172
-544.281	-84.562	0.417	0.131
-543.266	-177.182	0.007	0.000
-542.252	-73.217	0.198	0.072
-541.237	11.759	0.122	-0.093
-540.223	-85.577	-0.318	-0.099
-539.208	-105.389	-0.087	-0.020
-538.193	-101.826	-0.376	-0.091
-537.179	-200.000	0.001	-0.148
-536.164	-147.994	0.298	-0.025
-535.150	137.935	-0.157	0.205
-534.135	148.589	0.108	0.145
-533.121	-200.000	0.012	-0.142
-532.106	800.000	-0.047	-0.172
-531.091	280.711	0.019	0.034
-530.077	-154.612	0.142	-0.009
-529.062	-154.320	0.104	0.007
-528.048	-90.150	-0.120	-0.035
-527.033	369.361	0.118	-0.238
-526.018	-26.130	0.143	0.084
-525.004	-134.428	0.183	0.022
-523.989	-44.443	-0.338	0.169
-522.975	154.611	0.120	-0.165
-521.960	-49.985	0.266	-0.126
-520.945	354.803	-0.101	-0.201
-519.931	-86.072	-0.056	0.017
-518.916	-34.142	-0.034	-0.018
-517.902	-10.555	0.234	0.155
-516.887	-200.000	0.012	-0.206
-515.872	501.102	-0.106	0.244
-514.858	-110.374	0.132	0.027
-513.843	800.000	-0.057	-0.239
-512.829	378.996	-0.119	-0.244
-511.814	-107.464	-0.120	-0.026
-510.799	83.763	-0.192	0.209
-509.785	-200.000	-0.033	0.152
-508.770	-200.000	-0.023	-0.123
-507.756	104.039	0.181	-0.212
-506.741	800.000	0.116	0.378
-505.726	-159.413	-0.326	0.018
-504.712	92.244	-0.083	0.093
-503.697	26.088	-0.131	0.109
-502.683	30.581	-0.115	-0.098
-501.668	-132.343	0.121	0.016
-500.653	121.146	-0.171	-0.212
-499.639	-109.604	0.238	-0.050
-498.624	-156.754	0.142	-0.009
-497.610	19.592	0.144	-0.116
-496.595	-120.315	0.309	-0.053
-495.581	-18.719	-0.461	0.286
-494.566	324.553	-0.077	0.147
-493.551	-200.000	-0.011	0.112
-492.537	-18.187	-0.198	0.123
-491.522	-200.000	-0.125	-0.559
-490.508	255.921	-0.186	0.318
-489.493	73.715	0.111	-0.116
-488.478	-106.348	0.339	-0.076
-487.464	26.065	-0.194	0.161
-486.449	-85.376	-0.214	0.066
-485.435	301.604	0.080	-0.147
-484.420	134.054	-0.156	0.202
-483.405	-200.000	0.094	0.000
-482.391	-98.420	-0.341	-0.087
-481.376	100.282	0.210	-0.242
-480.362	154.421	0.038	0.052
-479.347	-49.745	-0.063	-0.030
-478.332	198.405	0.085	0.129
-477.318	-128.106	-0.230	0.033
-476.303	22.602	-0.197	-0.160
-475.289	328.160	0.040	0.076
-474.274	144.931	-0.208	0.276
-473.259	-113.672	0.217	0.042
-472.245	-200.000	0.024	0.106
-471.230	264.880	0.218	0.378
-470.216	-5.102	0.123	0.085
-469.201	-200.000	0.000	0.177
-468.186	-55.021	0.209	0.094
-467.172	139.709	0.276	0.362
-466.157	50.578	-0.210	-0.198
-465.143	-63.902	0.091	0.037
-464.128	271.243	0.031	-0.054
-463.113	731.929	0.126	-0.334
-462.099	-200.000	-0.192	-0.001
-461.084	-1.093	0.105	0.074
-460.070	-200.000	0.011	-0.066
-459.055	286.266	-0.177	-0.317
-458.040	-178.928	-0.158	-0.004
-457.026	661.467	-0.090	-0.232
-456.011	-62.366	0.227	-0.094
-454.997	-200.000	-0.050	0.304
-453.982	34.487	-0.269	0.234
-452.968	108.718	0.271	-0.322
-451.953	-139.980	-0.130	0.014
-450.938	-200.000	0.003	0.076
-449.924	-200.000	0.004	0.122
-448.909	29.086	0.151	0.128
-447.895	231.852	0.039	-0.063
-446.880	800.000	0.035	-0.104
-445.865	-110.333	-0.217	0.045
-444.851	-200.000	-0.008	-0.107
-443.836	213.115	-0.364	0.572
-442.822	42.487	-0.324	-0.293
-441.807	800.000	0.062	0.199
-440.792	82.933	-0.062	0.067
-439.778	51.647	-0.039	-0.036
-438.763	800.000	0.150	0.482
-437.749	9.982	-0.157	0.119
-436.734	-92.740	0.351	-0.098
-435.719	-7.759	-0.241	-0.162
-434.705	-200.000	0.014	0.315
-433.690	-17.908	0.047	-0.030
-432.676	-73.464	0.072	-0.026
-431.661	-68.428	0.108	0.042
-430.646	-44.651	0.276	0.137
-429.632	-40.685	0.275	-0.142
-428.617	-200.000	0.020	-0.165
-427.603	-184.227	-0.118	0.002
-426.588	-132.124	0.166	0.021
-425.573	126.756	0.204	-0.257
-424.559	-16.679	0.252	-0.159
-423.544	-200.000	0.003	0.316
-422.530	-17.270	-0.073	-0.045
-421.515	27.149	0.162	0.135
-420.500	623.950	-0.082	0.206
-419.486	-114.836	0.098	0.019
-418.471	109.349	-0.186	-0.221
-417.457	-181.751	0.179	0.003
-416.442	-23.025	-0.270	0.162
-415.428	-200.000	0.003	0.075
-414.413	-147.979	0.412	-0.034
-413.398	265.983	0.135	-0.234
-412.384	355.489	0.074	0.147
-411.369	-118.881	-0.250	-0.044
-410.355	638.350	-0.080	-0.201
-409.340	6.507	0.156	0.115
-408.325	-97.716	0.200	0.052
-407.311	21.722	0.225	-0.182
-406.296	-83.529	0.208	0.066
-405.282	-200.000	0.024	0.205
-404.267	4.396	0.538	-0.392
-403.252	-200.000	-0.017	-0.111
-402.238	800.000	-0.073	0.216
-401.223	800.000	-0.045	0.133
-400.209	219.260	-0.106	0.168
-399.194	-25.463	0.110	0.064
-398.179	150.668	-0.199	0.268
-397.165	369.289	0.156	0.313
-396.150	191.747	-0.114	0.171
-395.136	-32.335	-0.367	0.204
-394.121	37.798	0.292	-0.257
-393.106	-29.918	0.143	-0.081
-392.092	20.795	0.152	0.122
-391.077	-28.186	0.098	0.056
-390.063	-144.666	0.074	0.007
-389.048	-24.635	-0.133	-0.079
-388.033	-114.248	0.229	0.044
-387.019	-200.000	-0.086	-0.390
-386.004	800.000	-0.042	-0.176
-384.990	-153.823	0.246	-0.017
-383.975	235.564	-0.038	-0.062
-382.960	-200.000	0.007	0.048
-381.946	702.180	0.035	0.093
-380.931	-52.207	0.241	-0.111
-379.917	17.602	-0.124	-0.098
-378.902	-120.348	-0.184	-0.031
-377.888	-123.423	0.199	-0.031
-376.873	-79.867	0.300	-0.100
-375.858	157.501	0.173	-0.238
-374.844	469.367	0.055	0.123
-373.829	-99.581	-0.286	-0.071
-372.815	142.727	-0.160	-0.211
-371.800	33.965	0.073	0.063
-370.785	-71.182	0.211	-0.078
-369.771	-106.362	-0.277	-0.061
-368.756	800.000	-0.037	-0.122
-367.742	-41.117	0.066	-0.034
-366.727	396.031	-0.097	-0.201
-365.712	-175.253	-0.193	-0.005
-364.698	-26.866	-0.299	0.173
-363.683	-158.116	0.101	0.006
-362.669	-200.000	0.022	-0.138
-361.654	246.891	-0.124	0.207
-360.639	-116.245	0.583	-0.107
-359.625	-150.402	-0.353	-0.027
-358.610	98.984	-0.092	-0.105
-357.596	183.708	0.178	-0.261
-356.581	-200.000	0.059	-0.353
-355.566	-119.027	-0.370	0.064
-354.552	-92.716	0.204	-0.057
-353.537	-141.665	-0.030	0.003
-352.523	-126.043	0.161	0.024
-351.508	-200.000	0.017	-0.228
-350.493	-200.000	0.013	0.293
-349.479	-200.000	-0.021	-0.148
-348.464	-200.000	-0.060	-0.267
-347.450	800.000	0.048	0.140
-346.435	-78.161	0.247	0.084
-345.420	131.430	-0.097	-0.124
-344.406	270.632	-0.173	-0.301
-343.391	411.679	-0.134	-0.282
-342.377	139.795	-0.109	-0.142
-341.362	-167.850	0.269	-0.010
-340.348	87.083	0.130	-0.142
-339.333	153.761	0.127	0.172
-338.318	414.622	-0.084	-0.177
-337.304	-200.000	-0.073	0.322
-336.289	120.732	0.035	-0.043
-335.275	-200.000	-0.046	-0.218
-334.260	-78.865	0.306	-0.103
-333.245	273.935	0.042	0.073
-332.231	-200.000	0.033	0.269
-331.216	-41.861	-0.136	0.069
-330.202	644.032	0.046	0.116
-329.187	800.000	0.075	-0.222
-328.172	-200.000	-0.007	-0.076
-327.158	-139.447	0.241	0.026
-326.143	-159.406	-0.330	0.018
-325.129	568.076	-0.105	-0.251
-324.114	800.000	0.008	-0.021
-323.099	672.071	0.006	0.016
-322.085	-60.870	0.161	-0.068
-321.070	21.226	0.299	-0.240
-320.056	5.786	0.114	0.084
-319.041	-104.919	-0.264	-0.060
-318.026	800.000	0.128	0.430
-317.012	-57.062	0.056	-0.025
-315.997	300.349	0.040	-0.073
-314.983	-200.000	-0.335	0.001
-313.968	-72.695	-0.240	-0.088
-312.953	-184.814	-0.137	-0.002
-311.939	-144.575	-0.320	-0.029
-310.924	-200.000	-0.000	0.296
-309.910	800.000	-0.033	0.133
-308.895	194.539	-0.020	0.030
-307.880	-148.215	0.171	0.014
-306.866	326.243	0.094	0.177
-305.851	-14.459	0.225	-0.143
-304.837	-148.901	-0.409	0.033
-303.822	-140.887	0.159	0.016
-302.807	-44.263	-0.379	0.188
-301.793	156.973	-0.198	0.270
-300.778	-133.516	0.218	0.027
-299.764	-69.183	-0.153	-0.058
-298.749	800.000	-0.022	0.087
-297.735	58.103	0.387	-0.375
-296.720	13.890	0.093	-0.071
-295.705	-200.000	0.023	0.313
-294.691	105.417	-0.129	0.151
-293.676	-74.423	0.063	-0.022
-292.662	56.214	-0.102	0.098
-291.647	197.926	-0.192	-0.290
-290.632	307.833	0.074	-0.136
-289.618	-1.053	0.266	-0.186
-288.603	-147.509	-0.358	-0.030
-287.589	-138.725	0.076	0.008
-286.574	-200.000	0.012	0.105
-285.559	-200.000	-0.043	-0.256
-284.545	800.000	0.045	0.161
-283.530	-52.620	0.154	-0.070
-282.516	223.777	0.066	0.106
-281.501	698.219	-0.121	0.315
-280.486	281.725	0.079	0.139
-279.472	574.841	0.113	-0.272
-278.457	361.092	-0.036	0.070
-277.443	119.353	0.249	0.305
-276.428	182.360	-0.271	0.395
-275.413	800.000	0.075	0.314
-274.399	-51.490	-0.278	0.128
-273.384	-9.165	-0.301	-0.199
-272.370	-120.312	-0.071	-0.012
-271.355	-90.561	-0.048	-0.014
-270.340	413.989	-0.074	0.156
-269.326	113.586	0.178	0.214
-268.311	-200.000	-0.021	-0.108
-267.297	-200.000	-0.016	0.078
-266.282	-52.151	-0.156	-0.071
-265.267	-187.906	0.059	0.001
-264.253	-191.098	-0.502	-0.005
-263.238	-200.000	-0.050	-0.220
-262.224	-168.752	-0.232	0.009
-261.209	-200.000	0.007	0.040
-260.195	-39.273	0.061	0.032
-259.180	-200.000	-0.030	-0.242
-258.165	186.627	0.124	-0.182
-257.151	-67.183	-0.401	-0.156
-256.136	27.394	0.174	0.144
-255.122	67.288	0.101	-0.102
-254.107	-112.331	-0.112	0.022
-253.092	-200.000	0.018	-0.259
-252.078	-129.414	0.193	-0.027
-251.063	69.874	-0.081	-0.082
-250.049	32.855	-0.174	-0.148
-249.034	-119.963	0.187	0.032
-248.019	-200.000	-0.213	0.000
-247.005	-200.000	0.005	0.088
-245.990	642.098	0.106	0.268
-244.976	-30.355	0.302	0.169
-243.961	-124.315	0.218	0.034
-242.946	-80.755	-0.159	-0.052
-241.932	-39.525	-0.263	0.136
-240.917	-139.753	0.167	-0.017
-239.903	-130.465	0.165	0.022
-238.888	-200.000	0.022	0.173
-237.873	-188.646	-0.251	-0.003
-236.859	262.579	0.098	0.168
-235.844	-57.255	-0.166	-0.072
-234.830	120.808	0.087	-0.107
-233.815	-47.931	-0.344	0.164
-232.800	19.172	-0.327	0.259
-231.786	608.100	0.079	-0.195
-230.771	-200.000	-0.010	0.111
-229.757	-81.365	-0.189	0.061
-228.742	-94.184	-0.185	0.050
-227.727	354.201	0.145	0.285
-226.713	64.864	0.071	-0.071
-225.698	-53.542	0.210	-0.095
-224.684	-36.545	-0.242	-0.128
-223.669	94.136	0.051	-0.057
-222.655	258.467	-0.104	0.177
-221.640	737.618	-0.079	0.209
-220.625	-115.616	0.181	-0.034
-219.611	-200.000	-0.040	0.283
-218.596	800.000	-0.042	0.159
-217.582	800.000	0.076	-0.225
-216.567	-151.552	0.325	-0.024
-215.552	144.090	-0.220	0.290
-214.538	-200.000	-0.019	-0.157
-213.523	-147.607	0.088	0.007
-212.509	424.297	-0.121	0.256
-211.494	800.000	-0.090	-0.274
-210.479	152.958	-0.224	-0.302
-209.465	-12.023	0.447	0.289
-208.450	800.000	0.030	-0.101
-207.436	32.803	-0.083	-0.071
-206.421	-117.457	-0.403	0.072
-205.406	-114.904	0.286	-0.054
-204.392	-200.000	-0.007	-0.247
-203.377	-162.445	-0.111	0.005
-202.363	34.644	-0.124	0.107
-201.348	800.000	-0.088	0.248
-200.333	-111.766	0.136	-0.027
-199.319	-55.209	-0.367	-0.163
-198.304	-10.564	0.154	0.101
-197.290	-200.000	0.013	0.180
-196.275	-47.910	-0.250	-0.119
-195.260	-45.834	0.188	-0.092
-194.246	-73.495	-0.184	0.066
-193.231	800.000	-0.114	0.418
-192.217	-7.284	0.203	-0.135
-191.202	-200.000	0.017	0.235
-190.187	-126.955	0.110	-0.016
-189.173	454.445	0.041	0.090
-188.158	501.961	-0.023	0.052
-187.144	-42.163	0.175	0.088
-186.129	-200.000	-0.035	0.258
-185.114	67.508	0.250	-0.252
-184.100	-40.601	-0.070	0.036
-183.085	-66.944	-0.096	-0.037
-182.071	323.029	0.108	0.203
-181.056	66.630	-0.206	-0.207
-180.042	79.864	0.062	0.065
-179.027	475.108	-0.146	0.325
-178.012	575.278	-0.064	-0.154
-176.998	800.000	0.041	-0.143
-175.983	252.724	0.066	0.112
-174.969	95.133	-0.140	0.156
-173.954	-44.687	-0.303	0.149
-172.939	67.805	-0.092	0.093
-171.925	-200.000	-0.024	0.255
-170.910	246.797	-0.104	-0.172
-169.896	-200.000	-0.018	-0.097
-168.881	-200.000	0.010	0.056
-167.866	-164.805	0.208	-0.009
-166.852	474.401	-0.140	0.312
-165.837	-97.135	0.055	-0.014
-164.823	68.896	0.156	-0.158
-163.808	-200.000	-0.033	0.302
-162.793	-200.000	-0.021	-0.241
-161.779	800.000	0.084	-0.332
-160.764	-200.000	-0.021	0.130
-159.750	33.687	-0.203	0.174
-158.735	-2.152	0.106	0.073
-157.720	-200.000	-0.033	0.272
-156.706	800.000	-0.018	-0.069
-155.691	612.536	-0.063	0.154
-154.677	275.119	0.126	0.219
-153.662	-72.909	0.105	-0.038
-152.647	2.975	0.085	0.061
-151.633	5.767	-0.354	-0.258
-150.618	-200.000	0.032	-0.142
-149.604	615.275	0.050	0.124
-148.589	-142.445	0.075	-0.007
-147.574	-147.877	0.056	0.005
-146.560	590.223	0.076	0.183
-145.545	-24.143	0.101	0.060
-144.531	-200.000	-0.004	0.336
-143.516	363.147	-0.136	0.269
-142.502	-56.516	0.102	0.044
-141.487	-200.000	-0.007	-0.143
-140.472	32.319	-0.033	0.028
-139.458	800.000	-0.023	0.089
-138.443	92.717	-0.115	-0.128
-137.429	800.000	-0.056	0.159
-136.414	-113.268	0.219	0.042
-135.399	64.985	-0.079	0.078
-134.385	800.000	0.059	-0.164
-133.370	-200.000	0.034	-0.277
-132.356	-107.493	0.260	0.056
-131.341	-35.853	0.125	-0.066
-130.326	-200.000	0.023	0.183
-129.312	76.492	-0.269	0.280
-128.297	179.528	0.217	0.312
-127.283	229.920	-0.062	0.100
-126.268	763.798	-0.072	-0.192
-125.253	-200.000	0.018	0.219
-124.239	-200.000	0.004	-0.058
-123.224	-199.736	0.270	0.001
-122.210	-50.183	0.192	0.089
-121.195	-14.695	0.182	-0.115
-120.180	-179.187	0.267	0.006
-119.166	-141.478	-0.093	0.009
-118.151	137.009	0.110	0.141
-117.137	156.693	0.143	0.194
-116.122	670.712	-0.060	0.152
-115.107	-200.000	0.049	0.542
-114.093	-101.561	0.206	0.049
-113.078	55.111	0.143	-0.135
-112.064	800.000	-0.045	-0.148
-111.049	139.271	0.139	-0.180
-110.034	95.845	0.382	0.428
-109.020	800.000	0.078	0.320
-108.005	112.941	0.052	-0.062
-106.991	187.603	-0.123	0.181
-105.976	50.474	0.203	-0.188
-104.962	92.466	0.080	-0.089
-103.947	206.478	-0.164	0.251
-102.932	-67.009	0.220	0.085
-101.918	612.572	0.056	-0.137
-100.903	-47.077	0.137	0.065
-99.889	-97.406	0.348	-0.089
-98.874	-200.000	-0.086	0.451
-97.859	800.000	0.035	0.113
-96.845	15.486	-0.076	0.059
-95.830	-8.493	0.144	-0.095
-94.816	-200.000	-0.016	-0.294
-93.801	-200.000	0.047	-0.266
-92.786	800.000	0.014	0.041
-91.772	-36.443	0.349	0.184
-90.757	-69.828	0.368	0.138
-89.743	-133.303	0.221	-0.027
-88.728	-180.983	-0.354	0.007
-87.713	-200.000	0.060	-0.278
-86.699	-174.283	0.074	0.002
-85.684	-124.264	0.095	0.015
-84.670	138.527	0.107	-0.138
-83.655	-23.860	0.190	-0.112
-82.640	371.266	0.085	0.170
-81.626	121.753	-0.116	0.142
-80.611	-22.742	-0.142	0.084
-79.597	-173.542	0.239	0.007
-78.582	800.000	-0.082	-0.261
-77.567	-200.000	-0.015	-0.220
-76.553	27.032	-0.161	-0.132
-75.538	-75.657	-0.254	0.089
-74.524	-185.327	0.148	0.002
-73.509	153.825	0.148	0.199
-72.494	120.714	0.180	-0.220
-71.480	-125.287	0.181	0.027
-70.465	-181.812	-0.214	0.004
-69.451	-200.000	-0.013	-0.112
-68.436	-200.000	0.010	-0.196
-67.422	428.567	-0.094	-0.199
-66.407	299.514	0.014	-0.025
-65.392	24.391	-0.057	0.046
-64.378	-23.147	0.429	0.253
-63.363	-200.000	-0.036	0.209
-62.349	64.386	-0.222	-0.219
-61.334	27.568	-1.051	-0.867
-60.319	800.000	0.149	0.467
-59.305	-200.000	-0.059	-1.297
-58.290	702.215	0.441	1.139
-57.276	278.947	0.932	1.628
-56.261	-200.000	113.311	640.599
-55.246	465.320	1509.048	3308.492
-54.232	146.694	2677.108	3524.552
-53.217	103.634	2157.098	2481.017
-52.203	38.723	1603.497	1402.058
-51.188	30.573	1349.142	1130.311
-50.173	27.746	1311.537	1082.019
-49.159	55.290	1367.322	1295.307
-48.144	53.900	1381.542	1300.349
-47.130	30.952	1337.101	1122.326
-46.115	27.543	1319.219	1086.975
-45.100	27.252	1314.782	1081.547
-44.086	27.218	1311.844	1078.883
-43.071	27.244	1309.391	1076.980
-42.057	27.292	1307.542	1075.697
-41.042	27.170	1306.113	1073.763
-40.027	27.289	1304.315	1072.939
-39.013	27.262	1302.041	1070.871
-37.998	27.261	1300.711	1069.729
-36.984	27.320	1298.851	1068.499
-35.969	27.371	1296.627	1066.929
-34.954	27.457	1294.751	1065.845
-33.940	27.309	1293.923	1064.254
-32.925	27.428	1292.924	1064.089
-31.911	27.422	1291.183	1062.580
-30.896	27.461	1290.057	1061.839
-29.881	27.493	1288.169	1060.429
-28.867	27.589	1286.648	1059.694
-27.852	27.468	1285.873	1058.307
-26.838	27.534	1283.924	1057.046
-25.823	27.484	1282.665	1055.677
-24.809	27.422	1281.533	1054.345
-23.794	27.354	1280.536	1053.086
-22.779	27.554	1278.226	1052.301
-21.765	27.541	1277.434	1051.534
-20.750	27.496	1276.329	1050.321
-19.736	27.383	1274.853	1048.414
-18.721	27.222	1274.396	1047.072
-17.706	27.371	1273.208	1046.911
-16.692	27.342	1271.850	1045.585
-15.677	27.328	1270.795	1044.594
-14.663	27.303	1269.219	1043.114
-13.648	27.381	1267.813	1042.365
-12.633	27.260	1267.382	1041.275
-11.619	27.275	1266.635	1040.709
-10.604	27.328	1265.727	1040.223
-9.590	27.306	1264.767	1039.266
-8.575	27.314	1263.815	1038.486
-7.560	27.303	1262.963	1037.683
-6.546	27.334	1262.030	1037.055
-5.531	27.308	1260.718	1035.785
-4.517	27.327	1259.858	1035.148
-3.502	27.351	1259.249	1034.744
-2.487	27.338	1258.190	1033.759
-1.473	27.261	1254.322	1030.102
-0.458	25.891	1239.849	1010.502
0.556	21.362	1222.850	974.485
1.571	17.908	1229.752	960.503
2.586	17.211	1244.581	968.026
3.600	17.415	1234.419	961.189
4.615	16.012	1168.153	902.006
5.629	13.010	1101.149	835.028
6.644	11.365	1084.798	814.350
7.659	11.128	1082.908	811.674
8.673	11.202	1081.169	810.671
9.688	11.155	1080.038	809.515
10.702	11.359	1077.841	808.809
11.717	13.410	1079.356	820.046
12.731	16.382	1083.554	837.927
13.746	17.799	1085.208	846.163
14.761	17.654	1084.565	844.868
15.775	16.705	1082.101	838.181
16.790	15.664	1079.971	831.312
17.804	14.893	1078.595	826.371
18.819	14.365	1077.347	822.732
19.834	14.287	1075.911	821.180
20.848	14.018	1075.404	819.394
21.863	13.824	1074.306	817.530
22.877	13.593	1073.784	815.920
23.892	13.522	1073.355	815.172
24.907	13.573	1072.279	814.535
25.921	13.599	1071.096	813.694
26.936	13.549	1069.816	812.403
27.950	13.754	1068.219	812.124
28.965	13.761	1067.142	811.263
29.980	13.919	1065.434	810.664
30.994	13.869	1064.126	809.354
32.009	13.892	1063.212	808.702
33.023	13.823	1062.576	807.811
34.038	13.854	1061.269	806.895
35.053	13.501	1060.679	804.660
36.067	13.642	1059.857	804.649
37.082	13.810	1058.613	804.447
38.096	13.792	1058.071	803.880
39.111	13.845	1057.265	803.451
40.126	13.673	1055.737	801.388
41.140	13.647	1054.718	800.420
42.155	13.655	1053.544	799.495
43.169	13.445	1052.517	797.635
44.184	13.549	1051.269	797.118
45.199	13.517	1050.707	796.466
46.213	13.460	1049.441	795.162
47.228	13.732	1048.346	795.566
48.242	13.692	1047.054	794.328
49.257	13.673	1046.521	793.761
50.271	13.741	1045.413	793.174
51.286	13.811	1044.265	792.569
52.301	13.791	1043.292	791.665
53.315	13.616	1042.623	790.253
54.330	13.566	1041.735	789.269
55.344	13.665	1040.603	788.812
56.359	13.621	1039.465	787.675
57.374	13.600	1039.143	787.260
58.388	13.569	1038.230	786.352
59.403	13.489	1036.769	784.793
60.417	13.572	1036.261	784.732
61.432	13.555	1035.378	783.917
62.447	13.473	1034.500	782.792
63.461	13.450	1033.885	782.151
64.476	13.484	1032.686	781.335
65.490	13.469	1032.178	780.813
66.505	13.297	1032.061	779.844
67.520	13.432	1031.273	779.813
68.534	13.608	1029.492	779.226
69.549	13.468	1029.098	778.198
70.563	13.512	1028.302	777.737
71.578	13.394	1027.933	776.836
72.593	13.429	1026.971	776.202
73.607	13.429	1026.350	775.663
74.622	13.431	1025.430	774.911
75.636	13.471	1024.596	774.401
76.651	13.411	1024.128	773.698
77.666	13.455	1023.662	773.480
78.680	13.459	1023.027	772.954
79.695	13.505	1022.257	772.516
80.709	13.442	1021.874	771.865
81.724	13.638	1020.751	771.859
82.739	13.653	1020.264	771.494
83.753	13.676	1019.498	770.955
84.768	13.698	1018.633	770.332
85.782	13.742	1017.496	769.611
86.797	13.822	1016.408	769.090
87.812	13.709	1015.712	767.969
88.826	13.719	1014.663	767.156
89.841	13.698	1013.968	766.468
90.855	13.757	1012.941	765.894
91.870	13.776	1011.923	765.142
92.884	13.855	1010.933	764.691
93.899	13.831	1010.325	764.056
94.914	13.909	1009.719	763.886
95.928	13.888	1008.972	763.159
96.943	13.853	1007.856	762.086
97.957	13.854	1007.257	761.571
98.972	13.708	1006.144	759.990
99.987	13.776	1005.256	759.564
101.001	13.808	1004.300	758.924
102.016	13.738	1003.243	757.735
103.030	13.636	1003.272	757.226
104.045	13.702	1002.235	756.679
105.060	13.802	1001.005	756.138
106.074	13.678	1000.022	754.761
107.089	13.469	999.136	753.075
108.103	13.560	998.378	752.853
109.118	13.566	996.786	751.615
110.133	13.548	996.057	750.916
111.147	13.516	995.239	750.086
112.162	13.479	994.855	749.563
113.176	13.684	993.666	749.529
114.191	13.646	993.157	748.905
115.206	13.634	992.312	748.148
116.220	13.795	991.320	748.062
117.235	13.715	990.774	747.223
118.249	13.700	989.390	746.042
119.264	13.692	988.533	745.295
120.279	13.668	988.026	744.742
121.293	13.617	986.775	743.501
122.308	13.540	986.160	742.630
123.322	13.404	985.721	741.621
124.337	13.594	984.107	741.191
125.352	13.535	983.254	740.219
126.366	13.544	981.779	739.083
127.381	13.546	980.747	738.250
128.395	13.686	979.766	738.072
129.410	13.715	979.088	737.625
130.424	13.645	978.365	736.702
131.439	13.660	977.589	736.120
132.454	13.692	976.840	735.631
133.468	13.739	975.993	735.138
134.483	13.713	975.135	734.313
135.497	13.779	974.126	733.777
136.512	13.832	973.509	733.482
137.527	13.763	972.444	732.311
138.541	13.718	972.104	731.790
139.556	13.810	970.925	731.246
140.570	13.835	970.298	730.820
141.585	13.887	970.094	730.829
142.600	13.895	968.937	729.929
143.614	13.827	968.270	729.062
144.629	14.029	966.983	728.915
145.643	13.944	966.201	727.890
146.658	13.864	965.203	726.724
147.673	13.821	964.427	725.885
148.687	13.781	963.461	724.917
149.702	13.869	962.057	724.185
150.716	13.823	961.493	723.494
151.731	13.828	961.197	723.227
152.746	13.769	960.668	722.511
153.760	13.846	959.781	722.116
154.775	13.885	959.528	722.027
155.789	13.953	958.505	721.490
156.804	13.853	957.862	720.509
157.819	13.930	957.447	720.467
158.833	14.001	956.921	720.316
159.848	14.162	955.759	720.075
160.862	14.129	954.380	718.828
161.877	13.904	953.880	717.414
162.892	13.856	952.975	716.464
163.906	13.839	951.658	715.339
164.921	13.971	951.111	715.433
165.935	13.947	949.960	714.401
166.950	14.098	948.772	714.093
167.964	13.952	948.468	713.175
168.979	13.951	947.264	712.202
169.994	13.944	946.461	711.503
171.008	14.022	945.908	711.361
172.023	13.931	945.306	710.455
173.037	14.085	944.564	710.492
174.052	14.177	943.216	709.808
175.067	13.946	943.085	708.661
176.081	14.020	942.325	708.341
177.096	14.051	941.546	707.826
178.110	13.996	941.305	707.350
179.125	14.090	940.514	707.089
180.140	14.050	939.900	706.399
181.154	14.217	939.441	706.698
182.169	14.244	938.799	706.269
183.183	14.327	938.107	706.034
184.198	14.287	937.164	705.094
185.213	14.319	936.443	704.625
186.227	14.245	936.287	704.135
187.242	14.339	935.217	703.663
188.256	14.318	935.146	703.459
189.271	14.366	934.276	702.944
190.286	14.193	933.435	701.521
191.300	14.197	932.469	700.748
192.315	14.015	931.957	699.537
193.329	14.023	931.391	699.082
194.344	14.027	931.299	698.969
195.359	14.115	930.400	698.603
196.373	14.265	929.778	698.701
197.388	14.315	929.573	698.696
198.402	14.478	928.778	698.721
199.417	14.509	928.105	698.282
200.432	14.368	928.166	697.676
201.446	14.602	927.233	697.893
202.461	14.683	926.349	697.502
203.475	14.682	925.871	697.078
204.490	14.618	924.983	696.082
205.504	14.530	924.377	695.196
206.519	14.518	923.418	694.362
207.534	14.538	922.866	693.970
208.548	14.517	921.954	693.134
209.563	14.429	921.832	692.616
210.577	14.463	921.291	692.291
211.592	14.652	920.331	692.291
212.607	14.656	919.524	691.639
213.621	14.699	918.682	691.122
214.636	14.628	917.952	690.219
215.650	14.607	917.307	689.586
216.665	14.772	916.871	689.878
217.680	14.807	915.789	689.146
218.694	14.910	915.057	688.960
219.709	14.707	914.908	687.952
220.723	14.770	913.945	687.424
221.738	14.746	913.223	686.723
222.753	14.804	912.600	686.430
223.767	14.762	912.206	685.901
224.782	14.801	911.482	685.455
225.796	14.944	910.982	685.608
226.811	14.937	909.973	684.758
227.826	14.887	909.483	684.125
228.840	14.819	908.812	683.279
229.855	14.840	907.801	682.546
230.869	14.980	907.006	682.459
231.884	14.834	906.439	681.377
232.899	14.773	905.732	680.537
233.913	14.792	905.476	680.361
234.928	14.726	904.547	679.335
235.942	14.737	904.122	679.001
236.957	14.782	903.712	678.815
237.972	14.719	903.116	678.051
238.986	14.941	901.767	677.877
240.001	14.820	901.423	677.068
241.015	14.957	900.838	677.124
242.030	14.953	900.041	676.451
243.045	14.939	899.515	675.937
244.059	14.964	899.009	675.601
245.074	15.093	898.146	675.410
246.088	14.978	897.874	674.682
247.103	15.026	897.293	674.380
248.117	15.036	896.725	673.934
249.132	15.304	895.725	674.201
250.147	15.390	894.978	673.926
251.161	15.245	894.807	673.152
252.176	15.234	894.001	672.443
253.190	15.395	893.546	672.686
254.205	15.330	893.128	672.051
255.220	15.454	892.156	671.759
256.234	15.383	891.736	671.096
257.249	15.426	890.851	670.544
258.263	15.483	889.836	669.949
259.278	15.499	889.216	669.488
260.293	15.378	888.760	668.603
261.307	15.431	888.437	668.511
262.322	15.443	888.032	668.195
263.336	15.498	887.060	667.621
264.351	15.645	886.003	667.352
265.366	15.633	885.867	667.142
266.380	15.407	885.470	665.888
267.395	15.388	884.760	665.218
268.409	15.531	883.851	665.045
269.424	15.593	882.748	664.401
270.439	15.571	881.918	663.631
271.453	15.623	881.348	663.346
272.468	15.652	880.985	663.128
273.482	15.631	880.407	662.555
274.497	15.570	880.049	661.983
275.512	15.535	879.141	661.104
276.526	15.525	879.029	660.922
277.541	15.675	877.932	660.628
278.555	15.717	877.664	660.535
279.570	15.732	877.116	660.121
280.585	15.851	875.918	659.628
281.599	15.771	875.166	658.690
282.614	15.851	874.780	658.655
283.628	15.805	874.280	658.039
284.643	15.718	873.833	657.304
285.657	15.903	872.690	657.112
286.672	15.702	871.975	655.730
287.687	15.867	871.515	655.970
288.701	15.952	870.718	655.641
289.716	16.094	870.123	655.689
290.730	15.906	869.714	654.590
291.745	15.788	869.518	653.928
292.760	15.857	868.700	653.520
293.774	15.881	868.141	653.135
294.789	15.895	867.539	652.679
295.803	15.954	866.825	652.315
296.818	15.779	865.938	650.910
297.833	15.955	865.607	651.286
298.847	16.132	864.291	650.923
299.862	15.924	864.521	650.232
300.876	16.017	863.869	650.045
301.891	15.993	863.291	649.460
302.906	16.234	862.596	649.807
303.920	16.159	862.402	649.315
304.935	16.135	861.409	648.416
305.949	16.204	860.842	648.198
306.964	16.147	860.604	647.742
307.979	16.275	859.894	647.644
308.993	16.327	859.173	647.239
310.008	16.215	858.737	646.425
311.022	16.229	858.044	645.903
312.037	16.144	857.458	645.078
313.052	16.047	856.860	644.201
314.066	16.156	856.254	644.105
315.081	16.114	855.667	643.444
316.095	16.127	854.955	642.902
317.110	16.253	854.475	642.966
318.125	16.226	853.928	642.395
319.139	16.162	853.586	641.835
320.154	16.369	853.082	642.187
321.168	16.299	852.767	641.628
322.183	16.212	852.437	640.993
323.197	16.159	851.795	640.253
324.212	16.319	850.796	640.050
325.227	16.197	850.222	639.099
326.241	16.253	849.839	638.967
327.256	16.344	848.754	638.440
328.270	16.236	848.514	637.793
329.285	16.263	848.168	637.580
330.300	16.266	847.852	637.296
331.314	16.300	846.744	636.533
332.329	16.424	846.333	636.639
333.343	16.426	845.950	636.301
334.358	16.553	845.507	636.389
335.373	16.410	845.355	635.679
336.387	16.538	845.086	635.903
337.402	16.598	844.693	635.777
338.416	16.533	844.226	635.124
339.431	16.658	843.837	635.247
340.446	16.712	843.816	635.377
341.460	16.596	842.986	634.260
342.475	16.690	842.682	634.327
343.489	16.757	842.021	634.022
344.504	16.753	841.872	633.842
345.519	16.755	841.345	633.393
346.533	16.703	840.708	632.666
347.548	16.714	840.077	632.176
348.562	16.702	839.322	631.507
349.577	16.634	838.872	630.860
350.592	16.595	838.261	630.200
351.606	16.715	837.545	630.050
352.621	16.536	837.207	629.073
353.635	16.642	836.301	628.733
354.650	16.835	835.621	628.882
355.665	16.778	835.005	628.150
356.679	16.808	834.667	627.953
357.694	16.791	834.250	627.521
358.708	16.865	833.402	627.102
359.723	16.661	832.990	625.979
360.738	16.784	832.131	625.735
361.752	16.846	831.759	625.629
362.767	16.957	831.051	625.449
363.781	17.013	830.453	625.152
364.796	17.017	830.147	624.881
365.810	17.059	829.900	624.792
366.825	17.018	829.431	624.234
367.840	17.007	828.752	623.628
368.854	17.077	828.437	623.593
369.869	17.037	827.795	622.907
370.883	17.141	827.406	622.941
371.898	17.164	827.091	622.731
372.913	17.187	826.816	622.555
373.927	17.167	826.155	621.927
374.942	17.174	825.980	621.768
375.956	17.318	825.098	621.574
376.971	17.398	824.829	621.608
377.986	17.296	824.341	620.814
379.000	17.486	823.500	620.819
380.015	17.535	823.002	620.566
381.029	17.298	822.796	619.495
382.044	17.305	822.080	618.924
383.059	17.477	821.770	619.262
384.073	17.402	821.094	618.425
385.088	17.318	820.591	617.687
386.102	17.261	820.037	617.009
387.117	17.466	819.126	617.012
388.132	17.405	818.263	616.087
389.146	17.295	818.275	615.642
390.161	17.414	818.003	615.814
391.175	17.559	817.009	615.536
392.190	17.427	816.865	614.895
393.205	17.384	816.338	614.287
394.219	17.455	815.808	614.092
395.234	17.314	815.371	613.200
396.248	17.382	815.102	613.190
397.263	17.340	814.756	612.724
398.278	17.261	814.109	611.896
399.292	17.404	813.655	612.017
400.307	17.377	813.233	611.547
401.321	17.552	812.716	611.733
402.336	17.579	812.066	611.289
403.350	17.496	811.704	610.662
404.365	17.459	811.520	610.337
405.380	17.470	810.970	609.910
406.394	17.623	810.154	609.789
407.409	17.663	809.966	609.737
408.423	17.780	809.537	609.780
409.438	17.708	809.614	609.525
410.453	17.824	809.023	609.440
411.467	17.855	808.080	608.787
412.482	17.900	807.628	608.552
413.496	17.770	807.791	608.158
414.511	17.921	807.235	608.225
415.526	17.715	806.877	607.166
416.540	17.855	806.125	607.046
417.555	17.774	806.055	606.649
418.569	17.929	805.308	606.584
419.584	18.023	804.912	606.567
420.599	17.966	804.392	605.919
421.613	111.551	1295.176	1476.801
422.628	96.218	1366.638	1476.909
