DTS Sentinel unit serial number:	SN413079Multiplexer serial number:	ORYXHardware model number:	OX4-SRSoftware version number:	ORYX F/W v4.00 Oryx Data Collector v3.7.2.0data status	okinstallation	princeton_trtdifferential loss correction	single-endedforward channel	channel 1reverse channel	N/Adate	2019/09/19time	10:26:35forward acquisition time	60.00reverse acquisition time	0.00gamma	496.2192k internal	0.2339k external	0.2339temperature offset calibration	1.0008default loss term (dB/km)	0.3790temperature slope calibration	1.0000multiplexer offset coefficient	1.0000multiplexer slope coefficient	1.0000fibre end	0.00T internal ref (°C)	24.31T ext. ref 1 (°C)	0.70T ext. ref 2 (°C)	19.83length (m)	temperature (°C)	Stokes	anti-Stokes-747.200	56.859	-0.331	0.323
-746.185	515.457	0.098	0.229
-745.171	78.524	0.016	0.018
-744.156	542.440	-0.145	0.347
-743.142	-161.091	-0.387	0.020
-742.127	408.345	0.062	0.132
-741.112	104.974	0.167	-0.197
-740.098	-24.356	-0.135	0.081
-739.083	522.623	-0.069	-0.163
-738.069	-96.788	0.123	-0.032
-737.054	-200.000	0.003	-0.078
-736.039	-200.000	-0.036	0.264
-735.025	-73.287	0.203	-0.074
-734.010	-200.000	0.045	0.245
-732.996	49.014	-0.104	-0.098
-731.981	402.042	-0.151	-0.318
-730.966	179.975	-0.111	0.164
-729.952	85.832	-0.227	-0.250
-728.937	50.176	0.211	0.200
-727.923	-155.002	-0.064	-0.004
-726.908	-200.000	0.016	-0.110
-725.894	-44.586	-0.234	0.117
-724.879	-200.000	-0.083	-0.370
-723.864	-145.917	-0.069	-0.006
-722.850	363.414	0.099	-0.199
-721.835	-200.000	-0.003	-0.032
-720.821	800.000	-0.096	0.313
-719.806	800.000	0.076	-0.243
-718.791	-200.000	0.048	-0.210
-717.777	31.902	-0.116	0.100
-716.762	-148.661	0.053	-0.004
-715.748	-48.580	-0.179	-0.086
-714.733	800.000	0.004	-0.015
-713.718	-200.000	-0.005	-0.028
-712.704	-28.141	0.042	0.024
-711.689	-200.000	-0.003	0.189
-710.675	-112.420	0.187	0.037
-709.660	315.875	0.019	-0.037
-708.645	348.408	0.130	-0.257
-707.631	-35.667	-0.219	0.119
-706.616	-28.644	0.046	0.027
-705.602	86.978	0.174	0.192
-704.587	299.011	-0.084	-0.155
-703.572	-26.286	0.167	-0.098
-702.558	-200.000	0.014	0.167
-701.543	-200.000	-0.015	-0.182
-700.529	-172.039	-0.141	0.005
-699.514	-100.868	-0.131	-0.032
-698.499	-71.914	0.254	-0.095
-697.485	800.000	0.034	-0.136
-696.470	-200.000	0.010	0.252
-695.456	93.660	-0.149	-0.169
-694.441	730.353	0.071	0.189
-693.426	-200.000	-0.067	-0.390
-692.412	-200.000	0.090	-0.407
-691.397	-26.248	-0.112	-0.066
-690.383	-200.000	0.007	-0.121
-689.368	800.000	0.146	-0.408
-688.354	151.341	0.028	-0.038
-687.339	-59.058	0.097	0.042
-686.324	-100.732	-0.125	0.031
-685.310	-101.024	-0.165	-0.041
-684.295	13.518	-0.089	-0.069
-683.281	-81.676	0.253	-0.083
-682.266	35.860	-0.101	-0.089
-681.251	11.098	-0.262	-0.201
-680.237	-112.209	-0.203	-0.041
-679.222	376.107	0.044	0.089
-678.208	-19.339	-0.105	0.065
-677.193	92.461	-0.093	-0.105
-676.178	22.352	-0.113	0.092
-675.164	159.361	-0.184	0.256
-674.149	-116.697	0.387	0.071
-673.135	-12.313	0.127	-0.083
-672.120	237.006	-0.043	-0.072
-671.105	-200.000	0.020	-0.251
-670.091	-131.836	0.010	0.001
-669.076	516.059	-0.018	-0.042
-668.062	304.412	0.070	-0.129
-667.047	-200.000	0.031	-0.355
-666.032	-200.000	-0.052	-0.273
-665.018	-65.790	-0.478	-0.191
-664.003	-18.229	-0.225	-0.141
-662.989	-200.000	-0.017	-0.264
-661.974	-200.000	-0.352	0.000
-660.959	-200.000	-0.002	-0.060
-659.945	-13.389	0.375	0.243
-658.930	-146.465	-0.419	-0.037
-657.916	-200.000	0.056	-0.416
-656.901	800.000	0.109	-0.314
-655.886	-91.199	0.023	-0.007
-654.872	-200.000	-0.000	-0.121
-653.857	-200.000	0.006	-0.074
-652.843	-118.005	-0.308	0.055
-651.828	-200.000	-0.034	0.244
-650.814	-200.000	-0.026	0.146
-649.799	527.154	0.165	0.389
-648.784	800.000	-0.036	0.127
-647.770	-89.897	0.307	-0.090
-646.755	202.872	-0.243	-0.375
-645.741	-149.273	0.239	-0.019
-644.726	800.000	-0.058	-0.179
-643.711	800.000	-0.099	-0.359
-642.697	-23.514	0.207	-0.124
-641.682	-129.314	0.284	-0.040
-640.668	78.444	0.124	-0.132
-639.653	-200.000	0.019	-0.288
-638.638	-200.000	-0.047	-0.341
-637.624	342.844	-0.114	0.222
-636.609	-25.421	0.342	0.202
-635.595	800.000	-0.065	-0.195
-634.580	-200.000	0.046	0.217
-633.565	-200.000	0.002	-0.306
-632.551	156.574	-0.069	0.095
-631.536	143.896	-0.077	0.103
-630.522	104.615	0.195	-0.230
-629.507	-66.372	-0.209	-0.083
-628.492	353.741	-0.123	0.243
-627.478	-40.095	0.102	0.053
-626.463	-200.000	0.031	0.273
-625.449	137.108	0.196	0.255
-624.434	-12.503	0.138	-0.090
-623.419	354.549	-0.174	-0.346
-622.405	-55.145	-0.361	-0.162
-621.390	-95.089	-0.178	-0.048
-620.376	228.603	-0.086	-0.140
-619.361	-200.000	0.019	-0.155
-618.346	-200.000	-0.016	-0.129
-617.332	416.926	-0.055	-0.117
-616.317	58.729	-0.113	0.111
-615.303	-200.000	0.001	-0.351
-614.288	194.001	-0.081	0.122
-613.273	-6.687	0.129	-0.088
-612.259	-23.803	0.297	0.177
-611.244	800.000	-0.132	-0.561
-610.230	-29.708	0.289	0.165
-609.215	-13.242	-0.243	-0.158
-608.201	-86.891	0.321	0.098
-607.186	-10.561	0.262	-0.173
-606.171	800.000	-0.091	-0.268
-605.157	-121.947	-0.211	-0.035
-604.142	-120.054	-0.084	0.014
-603.128	-60.022	-0.163	-0.069
-602.113	161.900	0.182	0.254
-601.098	24.762	-0.030	0.025
-600.084	81.526	-0.117	0.126
-599.069	-60.438	-0.184	-0.078
-598.055	246.606	0.142	0.239
-597.040	758.708	0.106	0.286
-596.025	-200.000	0.044	-0.209
-595.011	-38.568	-0.132	0.070
-593.996	800.000	0.101	-0.327
-592.982	800.000	0.036	0.125
-591.967	381.303	0.118	0.242
-590.952	-200.000	0.028	0.439
-589.938	154.443	-0.122	-0.167
-588.923	-200.000	-0.039	0.235
-587.909	-7.506	0.210	-0.142
-586.894	-200.000	0.058	0.257
-585.879	65.364	-0.054	0.055
-584.865	-119.352	-0.172	-0.030
-583.850	-110.194	0.225	-0.047
-582.836	-27.312	-0.207	0.120
-581.821	-200.000	-0.032	0.180
-580.806	-200.000	0.002	0.314
-579.792	800.000	-0.119	0.341
-578.777	434.308	-0.083	-0.179
-577.763	-200.000	0.042	0.269
-576.748	215.188	-0.084	0.133
-575.733	-200.000	0.007	-0.272
-574.719	285.852	0.180	-0.324
-573.704	163.003	-0.169	-0.237
-572.690	-166.734	0.177	-0.007
-571.675	166.584	-0.060	-0.085
-570.661	-200.000	-0.028	-0.193
-569.646	-34.639	0.048	-0.026
-568.631	334.954	-0.127	-0.245
-567.617	140.752	0.095	-0.125
-566.602	351.130	-0.113	0.223
-565.588	-160.283	0.133	-0.007
-564.573	-200.000	-0.012	-0.064
-563.558	-42.340	-0.062	-0.031
-562.544	36.546	0.157	0.138
-561.529	442.620	-0.101	-0.221
-560.515	414.288	0.174	-0.368
-559.500	-111.810	-0.274	-0.055
-558.485	338.476	-0.117	-0.228
-557.471	-78.281	-0.216	-0.074
-556.456	146.542	0.129	-0.173
-555.442	215.751	-0.172	-0.272
-554.427	88.637	-0.085	-0.094
-553.412	11.997	-0.267	0.204
-552.398	800.000	0.078	0.228
-551.383	-28.596	0.309	0.177
-550.369	573.643	0.057	0.139
-549.354	-200.000	0.030	-0.253
-548.339	120.555	0.188	-0.233
-547.325	-200.000	0.023	0.301
-546.310	39.710	0.220	-0.196
-545.296	800.000	-0.016	0.048
-544.281	-200.000	-0.114	0.555
-543.266	65.137	-0.186	0.187
-542.252	-179.912	0.320	0.007
-541.237	67.317	0.132	0.134
-540.223	118.020	0.129	-0.159
-539.208	495.355	-0.108	-0.246
-538.193	-200.000	0.024	-0.218
-537.179	-81.584	0.334	-0.109
-536.164	-83.628	-0.052	0.017
-535.150	-200.000	0.014	-0.320
-534.135	-200.000	0.008	0.133
-533.121	22.085	0.233	-0.189
-532.106	248.896	-0.065	0.110
-531.091	-111.173	0.075	-0.015
-530.077	311.719	-0.090	0.167
-529.062	60.952	0.135	-0.133
-528.048	-47.769	-0.148	-0.071
-527.033	1.437	0.089	-0.064
-526.018	31.895	0.266	-0.228
-525.004	110.739	0.097	-0.116
-523.989	-94.476	0.264	0.072
-522.975	800.000	0.098	0.365
-521.960	1.427	-0.191	-0.137
-520.945	800.000	0.064	-0.210
-519.931	-165.899	0.285	0.012
-518.916	-18.455	-0.299	-0.186
-517.902	599.456	-0.049	0.122
-516.887	701.980	0.073	0.192
-515.872	-200.000	-0.013	-0.337
-514.858	-104.773	-0.192	-0.044
-513.843	388.613	-0.082	0.170
-512.829	-119.454	-0.386	-0.067
-511.814	800.000	0.072	-0.293
-510.799	-100.993	-0.202	-0.049
-509.785	-130.385	-0.426	0.057
-508.770	-159.732	0.270	0.015
-507.756	110.289	0.238	0.284
-506.741	7.390	-0.246	-0.182
-505.726	109.220	-0.037	-0.044
-504.712	-95.235	-0.150	-0.040
-503.697	-200.000	0.046	-0.237
-502.683	-200.000	0.054	0.257
-501.668	-64.362	0.060	0.024
-500.653	243.004	-0.217	0.361
-499.639	153.294	0.118	0.161
-498.624	-200.000	-0.005	0.216
-497.610	64.668	0.075	0.075
-496.595	-11.911	0.311	-0.202
-495.581	-36.195	-0.261	0.140
-494.566	218.851	0.195	0.310
-493.551	62.056	-0.138	0.137
-492.537	-122.008	-0.193	-0.032
-491.522	-95.636	-0.226	-0.060
-490.508	584.300	-0.108	-0.265
-489.493	-95.913	0.037	0.010
-488.478	11.189	0.127	-0.097
-487.464	320.607	0.036	-0.069
-486.449	232.989	-0.055	0.089
-485.435	-200.000	-0.008	0.083
-484.420	129.645	0.125	0.159
-483.405	-15.759	0.203	0.128
-482.391	800.000	0.017	-0.063
-481.376	800.000	-0.051	0.219
-480.362	-32.965	0.207	-0.114
-479.347	324.191	-0.021	-0.040
-478.332	453.709	0.099	0.218
-477.318	229.297	0.098	0.159
-476.303	-16.447	-0.083	-0.052
-475.289	800.000	-0.043	-0.127
-474.274	243.396	-0.217	-0.362
-473.259	53.926	-0.307	-0.293
-472.245	306.385	0.129	-0.239
-471.230	23.812	-0.178	0.145
-470.216	-200.000	-0.018	0.150
-469.201	-97.537	-0.021	-0.006
-468.186	-183.163	-0.147	-0.003
-467.172	461.738	-0.068	-0.151
-466.157	800.000	-0.043	-0.123
-465.143	-94.800	0.377	-0.101
-464.128	-14.448	0.252	0.161
-463.113	800.000	0.160	-0.450
-462.099	76.966	-0.043	-0.046
-461.084	-200.000	-0.002	-0.160
-460.070	125.820	0.169	0.212
-459.055	-200.000	-0.021	-0.413
-458.040	14.461	-0.085	0.066
-457.026	145.562	-0.164	0.218
-456.011	-60.563	-0.229	-0.097
-454.997	201.101	0.207	0.316
-453.982	-135.057	-0.187	-0.022
-452.968	-78.427	0.156	-0.053
-451.953	-200.000	-0.000	0.126
-450.938	-74.466	-0.143	0.051
-449.924	-52.539	-0.096	-0.044
-448.909	-94.214	-0.361	0.098
-447.895	-200.000	-0.040	0.208
-446.880	153.382	0.152	0.206
-445.865	-150.465	-0.213	-0.016
-444.851	-40.878	0.221	-0.113
-443.836	800.000	-0.043	0.147
-442.822	-126.282	-0.054	0.008
-441.807	-119.086	0.295	0.051
-440.792	332.783	0.076	-0.146
-439.778	141.309	-0.040	-0.053
-438.763	2.397	0.013	-0.009
-437.749	-67.284	0.231	-0.090
-436.734	-97.970	-0.163	-0.042
-435.719	-104.300	0.256	0.059
-434.705	800.000	-0.119	-0.404
-433.690	-133.482	0.084	-0.010
-432.676	144.462	0.243	-0.321
-431.661	332.497	-0.268	0.513
-430.646	-113.671	0.451	0.087
-429.632	230.898	-0.067	-0.108
-428.617	-11.662	0.191	-0.124
-427.603	257.955	-0.153	0.261
-426.588	291.247	0.191	0.344
-425.573	-42.918	-0.258	-0.129
-424.559	224.535	0.136	-0.218
-423.544	-135.125	-0.108	0.013
-422.530	-200.000	-0.003	0.260
-421.515	-54.489	-0.042	0.019
-420.500	-8.324	0.196	-0.131
-419.486	117.228	0.029	-0.035
-418.471	296.496	-0.163	-0.297
-417.457	-136.741	-0.043	-0.005
-416.442	120.941	0.349	0.429
-415.428	91.483	-0.047	-0.052
-414.413	-200.000	-0.028	0.391
-413.398	69.770	0.118	0.121
-412.384	316.810	0.121	-0.227
-411.369	-81.558	0.145	0.047
-410.355	-17.101	0.088	-0.055
-409.340	-118.648	-0.151	-0.026
-408.325	-33.095	0.096	-0.053
-407.311	370.170	0.169	0.339
-406.296	-33.556	0.102	0.056
-405.282	-200.000	0.015	-0.131
-404.267	-63.014	0.209	0.086
-403.252	386.277	0.072	0.148
-402.238	217.338	0.168	-0.265
-401.223	-14.752	0.223	0.141
-400.209	198.188	-0.142	0.215
-399.194	470.712	-0.145	-0.323
-398.179	-200.000	-0.023	-0.180
-397.165	-200.000	-0.012	0.142
-396.150	-67.766	-0.061	0.023
-395.136	46.346	-0.200	-0.183
-394.121	598.407	-0.093	0.229
-393.106	451.353	-0.112	0.244
-392.092	-10.764	-0.163	-0.107
-391.077	328.854	-0.107	0.204
-390.063	-24.610	0.274	0.161
-389.048	24.625	-0.210	0.172
-388.033	587.293	-0.041	0.100
-387.019	-200.000	0.259	0.000
-386.004	145.618	0.102	0.135
-384.990	-52.693	0.423	0.193
-383.975	-77.210	0.057	0.020
-382.960	800.000	-0.012	0.045
-381.946	-200.000	0.012	-0.139
-380.931	81.133	-0.203	-0.217
-379.917	-18.108	-0.309	-0.192
-378.902	-99.872	0.098	0.024
-377.888	800.000	0.032	0.133
-376.873	59.960	0.380	-0.371
-375.858	800.000	0.065	0.259
-374.844	-85.478	0.400	0.123
-373.829	269.115	-0.133	0.231
-372.815	104.743	0.093	-0.108
-371.800	222.739	-0.066	-0.105
-370.785	468.989	0.089	0.197
-369.771	5.139	-0.185	-0.135
-368.756	-169.336	-0.046	-0.002
-367.742	800.000	-0.055	0.198
-366.727	-34.186	0.366	-0.199
-365.712	-200.000	-0.051	-0.231
-364.698	-109.920	-0.526	-0.109
-363.683	-21.267	0.147	0.088
-362.669	-151.345	-0.351	-0.026
-361.654	32.947	-0.312	-0.267
-360.639	-88.299	0.263	0.078
-359.625	800.000	0.002	0.006
-358.610	515.122	-0.015	-0.033
-357.596	-190.701	0.283	-0.003
-356.581	25.499	0.301	-0.248
-355.566	16.303	-0.263	0.205
-354.552	204.191	0.094	0.144
-353.537	255.917	0.037	0.063
-352.523	-15.087	0.071	0.045
-351.508	71.393	-0.136	0.139
-350.493	-14.587	0.095	-0.060
-349.479	-139.445	0.411	-0.044
-348.464	119.330	-0.254	-0.310
-347.450	720.386	-0.072	-0.189
-346.435	-13.611	-0.088	0.056
-345.420	-179.850	-0.202	0.004
-344.406	800.000	-0.066	0.229
-343.391	-35.510	-0.275	0.148
-342.377	-198.186	-0.378	0.002
-341.362	138.320	-0.112	-0.145
-340.348	326.546	-0.082	-0.155
-339.333	-200.000	0.028	0.251
-338.318	132.176	0.101	-0.129
-337.304	-200.000	0.000	-0.209
-336.289	-200.000	0.007	-0.095
-335.275	-111.555	0.125	-0.025
-334.260	-90.231	-0.235	0.068
-333.245	-200.000	-0.029	0.342
-332.231	71.817	-0.271	-0.278
-331.216	107.614	0.133	-0.156
-330.202	82.700	0.138	-0.148
-329.187	163.293	0.042	0.058
-328.172	-89.341	0.310	0.090
-327.158	-95.086	0.096	0.026
-326.143	-200.000	0.023	-0.237
-325.129	-2.857	0.179	-0.124
-324.114	166.754	0.061	0.085
-323.099	-11.629	-0.053	-0.034
-322.085	119.171	0.241	0.294
-321.070	335.446	-0.214	-0.409
-320.056	404.707	-0.100	-0.208
-319.041	328.564	-0.069	0.131
-318.026	48.819	-0.050	0.046
-317.012	-174.842	0.059	-0.002
-315.997	800.000	0.012	-0.052
-314.983	131.832	-0.116	-0.147
-313.968	-200.000	-0.011	0.225
-312.953	-78.040	-0.230	-0.078
-311.939	-69.457	0.131	0.050
-310.924	-137.363	-0.428	-0.048
-309.910	800.000	-0.098	-0.297
-308.895	240.970	0.064	0.106
-307.880	800.000	-0.043	-0.170
-306.866	800.000	-0.136	0.417
-305.851	3.483	0.279	0.201
-304.837	800.000	-0.072	-0.230
-303.822	529.095	0.119	-0.276
-302.807	-200.000	-0.014	0.269
-301.793	320.624	0.110	-0.206
-300.778	18.546	-0.133	-0.105
-299.764	23.808	-0.146	0.119
-298.749	-200.000	-0.036	-0.188
-297.735	237.076	-0.059	0.096
-296.720	111.095	-0.076	-0.091
-295.705	-39.704	-0.211	0.109
-294.691	436.477	0.084	0.181
-293.676	-138.909	-0.182	-0.019
-292.662	-200.000	0.023	0.201
-291.647	3.055	-0.194	0.139
-290.632	320.146	-0.045	0.084
-289.618	36.128	0.175	-0.152
-288.603	662.137	0.067	0.171
-287.589	-200.000	0.011	0.138
-286.574	-83.603	0.315	0.099
-285.559	-200.000	0.033	0.230
-284.545	800.000	-0.073	-0.272
-283.530	354.913	0.097	0.189
-282.516	5.092	0.240	-0.174
-281.501	608.960	0.101	0.249
-280.486	-21.036	-0.181	-0.109
-279.472	-136.436	-0.344	-0.039
-278.457	-69.785	0.152	-0.057
-277.443	-185.614	0.166	0.002
-276.428	-14.705	-0.282	-0.179
-275.413	72.213	0.194	0.199
-274.399	180.208	-0.105	0.152
-273.384	27.270	-0.080	0.066
-272.370	254.384	0.053	0.090
-271.355	395.277	0.056	0.115
-270.340	120.811	-0.017	-0.020
-269.326	800.000	-0.113	0.361
-268.311	800.000	0.059	0.179
-267.297	290.353	-0.085	0.152
-266.282	-200.000	0.053	-0.265
-265.267	-32.939	-0.116	-0.064
-264.253	-98.194	0.122	0.031
-263.238	782.380	0.102	0.276
-262.224	598.055	0.073	0.178
-261.209	11.376	0.332	-0.250
-260.195	-44.439	-0.081	0.040
-259.180	-153.615	-0.185	0.013
-258.165	389.181	0.046	0.094
-257.151	462.829	0.095	0.209
-256.136	-110.432	-0.129	0.026
-255.122	-200.000	-0.026	0.249
-254.107	57.387	0.065	0.062
-253.092	-135.722	-0.096	0.011
-252.078	450.900	0.186	0.404
-251.063	-156.580	-0.126	0.008
-250.049	132.980	-0.144	0.183
-249.034	174.314	-0.031	-0.044
-248.019	19.749	0.186	0.148
-247.005	-138.309	-0.301	-0.033
-245.990	-166.910	-0.154	0.006
-244.976	54.359	-0.236	0.223
-243.961	94.220	-0.057	0.064
-242.946	-200.000	0.044	0.350
-241.932	251.520	-0.075	-0.125
-240.917	-19.371	0.129	-0.079
-239.903	14.362	-0.235	-0.180
-238.888	800.000	0.028	0.113
-237.873	328.556	-0.159	0.300
-236.859	800.000	0.015	0.052
-235.844	-200.000	-0.019	0.310
-234.830	800.000	0.039	0.126
-233.815	-200.000	-0.007	0.165
-232.800	-64.171	0.101	0.040
-231.786	566.240	0.196	0.467
-230.771	51.931	0.160	-0.150
-229.757	493.654	-0.065	-0.146
-228.742	239.112	-0.131	-0.214
-227.727	-190.891	0.016	-0.000
-226.713	-9.196	0.300	-0.197
-225.698	800.000	-0.121	-0.330
-224.684	800.000	-0.095	-0.268
-223.669	59.861	-0.254	-0.247
-222.655	56.717	-0.196	-0.188
-221.640	-111.059	0.195	0.039
-220.625	-113.302	-0.130	-0.025
-219.611	800.000	0.074	-0.232
-218.596	-31.901	0.195	-0.107
-217.582	-200.000	0.059	0.263
-216.567	128.207	0.097	-0.122
-215.552	-30.425	0.166	0.092
-214.538	-65.198	0.095	0.038
-213.523	601.312	0.086	0.210
-212.509	37.854	0.235	0.205
-211.494	-88.235	0.142	-0.042
-210.479	115.986	0.071	0.086
-209.465	692.267	-0.151	0.387
-208.450	-144.506	0.159	-0.014
-207.436	-139.601	0.251	-0.026
-206.421	-29.139	-0.175	0.099
-205.406	48.494	-0.252	-0.232
-204.392	-82.043	-0.277	-0.089
-203.377	111.827	-0.149	-0.177
-202.363	-49.944	-0.352	-0.164
-201.348	238.164	0.095	-0.156
-200.333	-200.000	-0.015	0.130
-199.319	-200.000	0.024	0.258
-198.304	-52.618	0.259	-0.117
-197.290	-24.487	-0.158	0.093
-196.275	-122.877	-0.235	0.037
-195.260	-200.000	-0.060	0.362
-194.246	-58.870	-0.057	0.024
-193.231	-182.934	-0.499	-0.009
-192.217	152.288	0.141	0.189
-191.202	-37.295	0.356	0.187
-190.187	98.840	-0.127	0.144
-189.173	-200.000	-0.039	-0.374
-188.158	-101.124	-0.273	-0.066
-187.144	73.971	-0.243	-0.250
-186.129	669.154	0.087	-0.221
-185.114	-85.771	-0.052	0.016
-184.100	-158.547	-0.335	0.019
-183.085	-104.054	-0.094	-0.022
-182.071	-94.344	0.191	0.051
-181.056	280.359	0.259	0.455
-180.042	-63.500	-0.417	-0.168
-179.027	33.221	-0.098	0.083
-178.012	124.327	-0.169	0.208
-176.998	-29.462	0.261	-0.146
-175.983	-132.851	0.070	0.009
-174.969	-51.352	0.250	-0.115
-173.954	-93.607	-0.182	-0.049
-172.939	22.330	-0.307	0.246
-171.925	256.014	-0.043	0.073
-170.910	-31.204	0.141	0.078
-169.896	63.859	-0.199	-0.196
-168.881	-15.634	0.167	-0.104
-167.866	260.123	-0.255	-0.433
-166.852	8.797	0.155	0.115
-165.837	36.203	-0.183	0.158
-164.823	113.405	-0.138	0.164
-163.808	-159.959	0.294	-0.016
-162.793	123.222	-0.054	0.066
-161.779	-200.000	0.029	0.188
-160.764	72.569	-0.266	-0.272
-159.750	38.819	0.231	-0.202
-158.735	800.000	-0.127	-0.355
-157.720	534.820	0.127	-0.295
-156.706	-200.000	-0.003	-0.066
-155.691	800.000	0.122	-0.398
-154.677	-200.000	-0.027	0.200
-153.662	-158.022	0.086	-0.005
-152.647	-146.250	-0.100	0.009
-151.633	-104.206	0.378	-0.086
-150.618	-200.000	0.011	-0.201
-149.604	64.556	-0.266	0.263
-148.589	-95.925	-0.169	0.044
-147.574	-47.478	-0.232	0.110
-146.560	83.976	0.157	0.168
-145.545	800.000	-0.060	0.210
-144.531	-100.944	0.218	0.053
-143.516	-90.931	0.222	-0.063
-142.502	-76.358	0.273	-0.094
-141.487	-200.000	-0.018	-0.323
-140.472	-200.000	0.001	0.100
-139.458	-200.000	-0.043	0.257
-138.443	-52.926	0.114	0.051
-137.429	143.207	0.161	0.210
-136.414	10.712	0.135	-0.101
-135.399	-200.000	-0.003	0.184
-134.385	-39.566	0.257	-0.132
-133.370	-110.756	0.089	-0.018
-132.356	-164.078	0.170	0.008
-131.341	-60.067	0.309	0.129
-130.326	278.496	0.145	0.253
-129.312	-200.000	-0.039	-0.312
-128.297	324.718	-0.177	-0.330
-127.283	800.000	0.061	-0.167
-126.268	623.915	0.160	0.394
-125.253	97.279	0.229	-0.258
-124.239	37.757	0.156	-0.135
-123.224	220.610	0.021	-0.033
-122.210	800.000	0.092	0.359
-121.195	-66.477	0.202	0.078
-120.180	-4.835	0.008	-0.006
-119.166	-200.000	0.001	0.029
-118.151	-200.000	0.002	0.045
-117.137	38.644	0.330	-0.288
-116.122	586.471	0.137	0.330
-115.107	180.436	0.190	0.273
-114.093	-175.550	0.016	0.000
-113.078	-200.000	-0.017	-0.201
-112.064	-80.964	0.061	0.020
-111.049	800.000	0.044	0.182
-110.034	593.562	0.099	-0.241
-109.020	23.957	0.040	0.033
-108.005	800.000	-0.062	0.204
-106.991	-45.624	0.409	0.198
-105.976	269.440	0.155	-0.267
-104.962	-70.795	0.212	0.078
-103.947	-4.431	-0.212	0.144
-102.932	693.069	0.158	-0.406
-101.918	-87.758	0.103	0.030
-100.903	188.436	0.013	0.019
-99.889	-115.214	0.230	-0.043
-98.874	494.050	-0.155	-0.348
-97.859	-62.421	-0.104	0.042
-96.845	-12.805	0.251	0.160
-95.830	-200.000	-0.019	-0.150
-94.816	162.058	0.032	0.044
-93.801	-119.562	0.342	-0.058
-92.786	72.044	0.102	-0.104
-91.772	113.511	0.205	0.243
-90.757	11.200	-0.134	0.100
-89.743	-26.726	-0.042	-0.024
-88.728	800.000	-0.090	0.297
-87.713	54.647	0.044	-0.041
-86.699	236.111	0.195	0.316
-85.684	-160.174	-0.418	-0.022
-84.670	-91.723	-0.104	0.029
-83.655	800.000	-0.067	0.271
-82.640	-200.000	-0.001	-0.156
-81.626	294.559	0.196	-0.350
-80.611	800.000	0.070	-0.248
-79.597	-131.765	-0.190	0.024
-78.582	-89.603	-0.305	0.088
-77.567	-200.000	-0.022	0.142
-76.553	195.616	0.143	-0.213
-75.538	-129.524	0.123	-0.017
-74.524	-200.000	-0.066	-0.399
-73.509	-94.303	0.156	0.042
-72.494	-46.963	0.241	0.115
-71.480	10.065	0.160	0.118
-70.465	800.000	-0.095	-0.258
-69.451	-88.938	-0.110	0.032
-68.436	164.385	0.281	0.387
-67.422	-200.000	-0.011	0.300
-66.407	232.976	0.137	-0.220
-65.392	-95.650	-0.253	-0.066
-64.378	77.695	-0.110	-0.114
-63.363	280.013	0.266	-0.465
-62.349	77.901	0.083	-0.087
-61.334	108.300	-1.165	-1.357
-60.319	239.065	0.421	0.684
-59.305	800.000	-0.464	-1.469
-58.290	800.000	0.475	1.313
-57.276	800.000	0.442	1.528
-56.261	-200.000	122.289	623.765
-55.246	384.561	1575.146	3168.458
-54.232	139.660	2748.208	3533.251
-53.217	95.395	2184.879	2431.267
-52.203	36.071	1612.929	1386.186
-51.188	27.618	1354.712	1112.880
-50.173	24.875	1317.159	1065.681
-49.159	50.831	1384.093	1279.588
-48.144	48.684	1396.700	1278.065
-47.130	27.761	1344.442	1105.135
-46.115	24.463	1325.986	1070.186
-45.100	24.313	1320.872	1065.115
-44.086	24.208	1318.457	1062.502
-43.071	24.231	1315.871	1060.514
-42.057	24.125	1314.323	1058.592
-41.042	24.135	1312.782	1057.368
-40.027	24.063	1311.415	1055.800
-39.013	24.232	1309.048	1054.850
-37.998	24.257	1306.881	1053.209
-36.984	24.346	1305.128	1052.281
-35.969	24.258	1303.657	1050.536
-34.954	24.275	1302.151	1049.379
-33.940	24.334	1300.607	1048.442
-32.925	24.430	1299.332	1047.937
-31.911	24.497	1297.712	1046.981
-30.896	24.475	1296.282	1045.657
-29.881	24.458	1295.411	1044.812
-28.867	24.461	1293.707	1043.417
-27.852	24.415	1291.986	1041.713
-26.838	24.455	1290.764	1040.921
-25.823	24.391	1290.129	1039.995
-24.809	24.472	1288.141	1038.824
-23.794	24.417	1286.919	1037.476
-22.779	24.305	1286.039	1036.074
-21.765	24.412	1284.626	1035.519
-20.750	24.303	1283.118	1033.632
-19.736	24.266	1282.077	1032.533
-18.721	24.277	1280.957	1031.655
-17.706	24.252	1279.984	1030.685
-16.692	24.360	1278.555	1030.120
-15.677	24.253	1278.013	1029.023
-14.663	24.274	1276.633	1027.991
-13.648	24.324	1274.878	1026.827
-12.633	24.237	1274.363	1025.868
-11.619	24.204	1273.931	1025.292
-10.604	24.203	1273.173	1024.635
-9.590	24.107	1271.804	1022.940
-8.575	24.213	1270.053	1022.103
-7.560	24.265	1269.206	1021.678
-6.546	24.264	1268.881	1021.367
-5.531	24.143	1268.301	1020.171
-4.517	24.286	1267.316	1020.153
-3.502	24.229	1266.308	1018.974
-2.487	24.226	1265.662	1018.397
-1.473	24.257	1260.790	1014.613
-0.458	22.908	1246.450	995.438
0.556	18.629	1230.303	959.342
1.571	15.032	1237.966	944.963
2.586	14.246	1253.065	951.906
3.600	14.082	1240.575	941.410
4.615	10.525	1167.442	866.851
5.629	3.904	1095.337	779.945
6.644	0.961	1077.143	752.312
7.659	0.603	1075.715	749.473
8.673	0.544	1074.848	748.510
9.688	0.693	1073.580	748.298
10.702	0.838	1071.499	747.496
11.717	4.798	1075.779	770.035
12.731	11.561	1084.985	810.192
13.746	15.979	1090.282	836.047
14.761	17.202	1091.621	843.073
15.775	16.537	1089.759	838.269
16.790	15.447	1087.703	831.217
17.804	14.720	1086.546	826.660
18.819	14.510	1084.939	824.326
19.834	14.269	1084.029	822.372
20.848	14.081	1083.162	820.712
21.863	13.744	1082.154	818.214
22.877	13.619	1081.008	816.660
23.892	13.439	1081.359	815.969
24.907	13.473	1080.704	815.568
25.921	13.573	1079.338	814.957
26.936	13.635	1078.587	814.621
27.950	13.678	1077.527	813.962
28.965	13.620	1076.708	812.986
29.980	13.713	1075.191	812.221
30.994	13.787	1073.715	811.397
32.009	13.764	1072.878	810.584
33.023	13.865	1071.618	810.053
34.038	13.850	1070.711	809.218
35.053	13.767	1070.061	808.253
36.067	13.640	1069.092	806.833
37.082	13.808	1068.308	806.986
38.096	13.774	1067.489	806.132
39.111	13.560	1067.142	804.757
40.126	13.652	1065.322	803.761
41.140	13.638	1064.213	802.784
42.155	13.573	1063.538	801.891
43.169	13.658	1061.867	800.971
44.184	13.618	1060.926	799.998
45.199	13.574	1060.341	799.273
46.213	13.629	1059.091	798.525
47.228	13.685	1057.968	797.874
48.242	13.659	1056.649	796.688
49.257	13.694	1055.787	796.135
50.271	13.717	1054.672	795.331
51.286	13.845	1053.812	795.226
52.301	13.727	1053.177	794.112
53.315	13.616	1052.265	792.826
54.330	13.716	1050.411	791.835
55.344	13.599	1050.187	791.036
56.359	13.701	1048.976	790.542
57.374	13.647	1048.233	789.653
58.388	13.438	1048.022	788.428
59.403	13.621	1046.717	788.248
60.417	13.569	1046.094	787.464
61.432	13.555	1044.972	786.483
62.447	13.506	1044.219	785.615
63.461	13.516	1043.506	785.052
64.476	13.540	1042.084	784.027
65.490	13.531	1041.778	783.685
66.505	13.503	1041.098	782.974
67.520	13.572	1040.447	782.739
68.534	13.598	1039.411	782.016
69.549	13.581	1038.853	781.443
70.563	13.436	1038.558	780.472
71.578	13.502	1037.282	779.752
72.593	13.503	1036.454	779.065
73.607	13.533	1035.871	778.699
74.622	13.491	1035.254	777.972
75.636	13.469	1034.499	777.230
76.651	13.521	1033.542	776.686
77.666	13.349	1033.129	775.500
78.680	13.463	1032.311	775.354
79.695	13.381	1031.976	774.651
80.709	13.408	1031.547	774.387
81.724	13.619	1030.266	774.340
82.739	13.609	1029.495	773.644
83.753	13.623	1028.515	772.905
84.768	13.797	1027.327	772.756
85.782	13.715	1027.078	772.118
86.797	13.659	1026.267	771.178
87.812	13.646	1024.962	770.070
88.826	13.726	1023.708	769.433
89.841	13.719	1022.745	768.606
90.855	13.647	1022.421	767.960
91.870	13.693	1021.060	767.084
92.884	13.687	1020.599	766.644
93.899	13.787	1019.553	766.253
94.914	13.724	1018.834	765.350
95.928	13.705	1017.956	764.535
96.943	13.848	1016.906	764.341
97.957	13.802	1016.247	763.563
98.972	13.685	1015.521	762.413
99.987	13.778	1014.173	761.762
101.001	13.714	1013.303	760.746
102.016	13.837	1012.489	760.632
103.030	13.952	1011.472	760.328
104.045	13.752	1010.926	758.933
105.060	13.806	1010.174	758.548
106.074	13.710	1009.152	757.278
107.089	13.626	1008.308	756.195
108.103	13.553	1007.469	755.164
109.118	13.601	1006.299	754.440
110.133	13.692	1005.323	754.054
111.147	13.761	1004.275	753.515
112.162	13.646	1003.947	752.681
113.176	13.722	1002.986	752.239
114.191	13.842	1002.082	752.038
115.206	13.741	1001.392	750.996
116.220	13.752	1000.589	750.379
117.235	13.682	999.960	749.524
118.249	13.731	998.688	748.722
119.264	13.702	997.985	748.000
120.279	13.827	997.156	747.874
121.293	13.662	996.559	746.616
122.308	13.879	994.989	746.352
123.322	13.713	994.754	745.362
124.337	13.767	993.313	744.461
125.352	13.655	991.994	742.903
126.366	13.675	991.076	742.238
127.381	13.740	990.107	741.738
128.395	13.672	989.421	740.858
129.410	13.741	988.131	740.131
130.424	13.686	987.632	739.446
131.439	13.784	986.307	738.826
132.454	13.807	985.908	738.565
133.468	13.800	985.151	737.902
134.483	13.818	983.949	737.017
135.497	13.819	983.129	736.341
136.512	13.765	982.590	735.633
137.527	13.815	981.229	734.769
138.541	13.741	980.737	734.010
139.556	13.777	979.995	733.550
140.570	13.729	979.758	733.094
141.585	13.930	978.489	732.966
142.600	13.819	977.833	731.919
143.614	13.879	976.966	731.473
144.629	13.893	976.028	730.766
145.643	13.869	975.213	729.984
146.658	13.918	973.971	729.208
147.673	13.921	972.835	728.302
148.687	13.835	972.270	727.439
149.702	13.881	971.388	726.919
150.716	13.816	970.472	725.883
151.731	13.875	970.183	725.860
152.746	13.855	969.448	725.158
153.760	13.941	968.626	724.855
154.775	13.935	968.332	724.544
155.789	14.086	967.104	724.219
156.804	13.892	966.520	722.876
157.819	14.090	965.641	723.014
158.833	14.176	964.924	722.787
159.848	14.177	964.404	722.337
160.862	14.043	963.529	721.036
161.877	14.007	962.327	719.916
162.892	14.014	961.540	719.295
163.906	14.011	960.401	718.368
164.921	14.045	959.615	717.863
165.935	14.025	959.082	717.313
166.950	14.117	957.690	716.604
167.964	13.975	957.208	715.568
168.979	14.164	955.651	715.154
169.994	14.081	955.333	714.496
171.008	14.163	954.335	714.040
172.023	14.165	953.680	713.493
173.037	14.137	953.435	713.128
174.052	14.164	952.732	712.657
175.067	14.142	951.896	711.875
176.081	14.183	951.311	711.550
177.096	14.107	950.868	710.828
178.110	13.996	950.741	710.196
179.125	14.226	949.457	710.155
180.140	14.179	949.262	709.747
181.154	14.188	948.505	709.157
182.169	14.208	947.882	708.713
183.183	14.260	947.356	708.477
184.198	14.304	946.633	708.062
185.213	14.223	946.202	707.334
186.227	14.270	945.301	706.797
187.242	14.371	944.520	706.579
188.256	14.457	943.722	706.282
189.271	14.419	942.696	705.294
190.286	14.282	942.410	704.435
191.300	14.311	941.567	703.866
192.315	14.240	940.844	702.961
193.329	14.214	940.456	702.501
194.344	14.473	939.422	702.758
195.359	14.353	939.086	701.938
196.373	14.366	938.751	701.683
197.388	14.546	937.732	701.614
198.402	14.485	937.239	700.926
199.417	14.583	936.638	700.828
200.432	14.625	936.217	700.626
201.446	14.573	935.947	700.147
202.461	14.489	935.591	699.465
203.475	14.507	934.955	699.004
204.490	14.605	933.731	698.436
205.504	14.579	933.296	697.942
206.519	14.713	931.940	697.424
207.534	14.564	931.375	696.317
208.548	14.606	931.169	696.278
209.563	14.499	930.735	695.445
210.577	14.684	929.745	695.416
211.592	14.769	928.941	695.105
212.607	14.740	928.023	694.238
213.621	14.837	927.269	694.013
214.636	14.697	926.635	692.897
215.650	14.842	925.654	692.703
216.665	14.673	925.403	691.755
217.680	14.801	924.476	691.527
218.694	14.842	923.888	691.198
219.709	14.869	923.145	690.692
220.723	14.982	922.372	690.521
221.738	14.771	921.678	689.070
222.753	14.900	921.399	689.332
223.767	15.052	920.508	689.229
224.782	14.847	920.140	688.049
225.796	14.954	919.928	688.267
226.811	15.016	918.565	687.445
227.826	14.912	918.307	686.760
228.840	14.936	917.273	686.028
229.855	14.994	916.256	685.443
230.869	14.885	915.947	684.706
231.884	14.946	914.886	684.100
232.899	14.903	914.479	683.560
233.913	14.929	914.008	683.253
234.928	14.983	913.016	682.670
235.942	14.936	912.529	682.054
236.957	14.987	911.796	681.655
237.972	15.025	911.199	681.303
238.986	15.016	910.723	680.850
240.001	14.876	910.298	679.904
241.015	15.143	909.073	680.013
242.030	15.033	908.562	679.125
243.045	15.045	908.340	678.944
244.059	15.179	907.585	678.866
245.074	15.095	906.893	677.947
246.088	15.021	906.102	676.997
247.103	15.241	905.379	677.286
248.117	15.201	905.073	676.836
249.132	15.236	904.773	676.691
250.147	15.287	903.596	675.956
251.161	15.343	903.129	675.773
252.176	15.263	902.598	674.997
253.190	15.274	902.129	674.627
254.205	15.278	901.067	673.791
255.220	15.470	899.926	673.647
256.234	15.370	899.795	673.089
257.249	15.446	899.343	672.996
258.263	15.440	898.250	672.097
259.278	15.425	897.886	671.702
260.293	15.521	897.362	671.636
261.307	15.478	896.603	670.834
262.322	15.647	895.715	670.786
263.336	15.690	894.835	670.241
264.351	15.642	894.145	669.472
265.366	15.466	894.142	668.713
266.380	15.667	893.055	668.640
267.395	15.621	892.498	667.979
268.409	15.588	891.746	667.226
269.424	15.711	890.836	666.975
270.439	15.673	890.090	666.208
271.453	15.710	889.545	665.887
272.468	15.675	888.892	665.198
273.482	15.542	888.913	664.629
274.497	15.828	887.673	664.773
275.512	15.707	887.258	663.927
276.526	15.670	887.119	663.619
277.541	15.722	886.519	663.316
278.555	15.751	885.849	662.870
279.570	15.777	885.391	662.572
280.585	15.785	884.570	661.928
281.599	15.786	883.556	661.116
282.614	15.751	882.891	660.422
283.628	15.826	882.666	660.490
284.643	15.883	881.430	659.728
285.657	16.010	880.800	659.698
286.672	15.966	880.109	658.948
287.687	15.833	879.769	658.118
288.701	15.982	879.088	658.131
289.716	15.839	878.755	657.264
290.730	16.017	878.260	657.531
291.745	16.025	877.598	657.008
292.760	16.105	876.572	656.494
293.774	16.024	876.093	655.762
294.789	15.962	875.638	655.123
295.803	15.974	874.595	654.332
296.818	16.221	873.770	654.612
297.833	15.983	873.288	653.271
298.847	16.009	872.719	652.890
299.862	16.077	872.127	652.653
300.876	16.075	871.561	652.161
301.891	16.096	871.055	651.808
302.906	16.138	870.233	651.295
303.920	16.188	869.850	651.144
304.935	16.255	869.228	650.882
305.949	16.263	868.651	650.422
306.964	16.290	867.930	649.930
307.979	16.141	867.995	649.347
308.993	16.331	866.782	649.112
310.008	16.238	866.368	648.389
311.022	16.400	866.056	648.718
312.037	16.343	864.992	647.645
313.052	16.164	864.846	646.790
314.066	16.264	864.469	646.836
315.081	16.275	863.618	646.183
316.095	16.264	862.647	645.357
317.110	16.276	862.410	645.168
318.125	16.399	861.434	644.853
319.139	16.376	861.130	644.480
320.154	16.384	860.935	644.306
321.168	16.423	860.271	643.902
322.183	16.504	859.645	643.684
323.197	16.394	859.266	642.925
324.212	16.385	858.572	642.316
325.227	16.270	858.187	641.533
326.241	16.517	857.449	641.861
327.256	16.473	857.080	641.363
328.270	16.612	856.236	641.199
329.285	16.540	855.847	640.579
330.300	16.433	855.015	639.496
331.314	16.605	854.430	639.651
332.329	16.580	854.062	639.225
333.343	16.640	853.764	639.172
334.358	16.521	853.286	638.310
335.373	16.552	853.043	638.189
336.387	16.667	852.636	638.261
337.402	16.539	852.491	637.613
338.416	16.575	852.188	637.467
339.431	16.591	851.461	636.924
340.446	16.712	851.045	637.014
341.460	16.677	850.923	636.733
342.475	16.836	850.315	636.821
343.489	16.708	849.959	636.015
344.504	16.883	849.095	635.970
345.519	16.820	849.160	635.725
346.533	16.761	848.691	635.098
347.548	16.761	848.212	634.684
348.562	16.776	847.330	634.022
349.577	16.818	846.815	633.740
350.592	16.930	846.062	633.539
351.606	16.960	845.318	633.036
352.621	16.729	844.895	631.803
353.635	16.782	844.091	631.344
354.650	16.860	843.241	630.940
355.665	16.852	842.895	630.596
356.679	16.857	842.356	630.155
357.694	16.890	841.387	629.499
358.708	16.923	840.947	629.234
359.723	17.135	839.885	629.172
360.738	17.020	839.695	628.546
361.752	16.910	839.031	627.587
362.767	17.203	838.123	627.935
363.781	17.139	838.295	627.771
364.796	17.155	837.630	627.276
365.810	17.218	837.203	627.135
366.825	17.292	836.571	626.878
367.840	17.226	836.481	626.512
368.854	17.168	835.972	625.860
369.869	17.192	835.455	625.509
370.883	17.181	835.126	625.165
371.898	17.109	835.027	624.771
372.913	17.334	834.350	625.036
373.927	17.338	833.510	624.367
374.942	17.362	832.913	623.952
375.956	17.404	832.745	623.924
376.971	17.417	832.238	623.536
377.986	17.456	831.469	623.049
379.000	17.440	831.212	622.743
380.015	17.548	830.539	622.577
381.029	17.444	830.510	622.123
382.044	17.600	829.617	621.967
383.059	17.672	828.516	621.348
384.073	17.580	828.705	621.100
385.088	17.577	828.230	620.680
386.102	17.328	827.702	619.322
387.117	17.575	826.587	619.330
388.132	17.406	826.527	618.616
389.146	17.584	825.800	618.663
390.161	17.480	825.619	618.096
391.175	17.586	824.885	617.877
392.190	17.613	824.552	617.670
393.205	17.591	824.147	617.232
394.219	17.566	823.593	616.674
395.234	17.456	823.001	615.775
396.248	17.568	822.485	615.740
397.263	17.485	822.159	615.143
398.278	17.646	821.959	615.519
399.292	17.640	821.494	615.096
400.307	17.532	821.087	614.348
401.321	17.565	820.429	613.919
402.336	17.534	820.410	613.739
403.350	17.714	819.572	613.704
404.365	17.593	819.164	612.911
405.380	17.758	818.556	612.994
406.394	17.818	817.976	612.723
407.409	17.988	817.544	612.955
408.423	17.824	817.709	612.436
409.438	17.798	817.159	611.875
410.453	17.872	816.530	611.616
411.467	17.920	815.927	611.282
412.482	17.932	815.484	610.940
413.496	18.032	815.152	610.992
414.511	18.199	814.705	611.201
415.526	17.939	814.744	610.248
416.540	17.910	814.038	609.559
417.555	18.159	813.511	610.002
418.569	18.081	813.081	609.346
419.584	18.182	812.603	609.295
420.599	18.008	812.071	608.220
421.613	114.392	1298.798	1486.120
422.628	98.990	1369.662	1486.183
