DTS Sentinel unit serial number:	SN413079Multiplexer serial number:	ORYXHardware model number:	OX4-SRSoftware version number:	ORYX F/W v4.00 Oryx Data Collector v3.7.2.0data status	okinstallation	princeton_trtdifferential loss correction	single-endedforward channel	channel 1reverse channel	N/Adate	2019/09/16time	12:14:35forward acquisition time	60.00reverse acquisition time	0.00gamma	496.2192k internal	0.2296k external	0.2296temperature offset calibration	0.9960default loss term (dB/km)	0.3790temperature slope calibration	1.0000multiplexer offset coefficient	1.0000multiplexer slope coefficient	1.0000fibre end	0.00T internal ref (°C)	39.12T ext. ref 1 (°C)	13.26T ext. ref 2 (°C)	36.52length (m)	temperature (°C)	Stokes	anti-Stokes-747.200	83.480	0.202	0.225
-746.185	-200.000	-0.126	0.582
-745.171	16.810	0.083	-0.067
-744.156	15.593	0.144	0.116
-743.142	508.258	-0.049	-0.116
-742.127	-51.251	-0.201	0.096
-741.112	-154.131	0.399	0.028
-740.098	2.037	0.131	0.097
-739.083	276.633	-0.146	-0.265
-738.069	67.689	0.182	0.190
-737.054	-77.618	-0.147	0.052
-736.039	-200.000	-0.009	0.173
-735.025	-200.000	-0.008	0.107
-734.010	205.858	0.045	-0.071
-732.996	708.828	-0.077	0.207
-731.981	-85.268	-0.169	0.054
-730.966	-200.000	0.035	-0.167
-729.952	-62.526	0.226	-0.096
-728.937	-26.103	-0.045	-0.027
-727.923	-200.000	-0.027	-0.143
-726.908	96.141	-0.024	-0.028
-725.894	37.288	-0.406	-0.368
-724.879	800.000	-0.067	-0.261
-723.864	203.305	0.162	0.255
-722.850	800.000	0.085	0.315
-721.835	800.000	-0.074	0.241
-720.821	252.652	0.145	0.253
-719.806	-129.992	-0.376	-0.053
-718.791	-139.246	-0.325	0.036
-717.777	180.930	0.120	-0.179
-716.762	800.000	-0.087	-0.374
-715.748	65.638	-0.218	-0.226
-714.733	107.988	0.184	-0.223
-713.718	216.628	-0.079	-0.128
-712.704	83.507	-0.077	-0.086
-711.689	800.000	0.029	0.095
-710.675	-4.564	-0.202	0.142
-709.660	111.929	0.243	0.300
-708.645	-42.251	0.237	0.123
-707.631	8.905	0.136	-0.104
-706.616	-80.085	0.225	0.077
-705.602	165.436	-0.153	0.220
-704.587	-139.388	-0.241	-0.026
-703.572	749.315	0.031	-0.084
-702.558	65.179	-0.007	-0.007
-701.543	-82.044	-0.025	0.008
-700.529	-97.438	-0.200	0.053
-699.514	800.000	0.039	0.113
-698.499	245.216	-0.078	-0.134
-697.485	-36.762	-0.194	-0.106
-696.470	-65.650	-0.161	0.066
-695.456	-51.542	-0.057	-0.027
-694.441	88.075	-0.034	-0.039
-693.426	415.178	0.061	-0.131
-692.412	-49.913	-0.044	0.021
-691.397	-200.000	0.072	-0.383
-690.383	-188.817	-0.275	0.003
-689.368	289.215	0.092	0.171
-688.354	-200.000	0.018	0.087
-687.339	800.000	-0.059	-0.225
-686.324	-200.000	-0.006	-0.396
-685.310	32.292	-0.174	0.153
-684.295	800.000	-0.076	-0.277
-683.281	-19.255	0.172	-0.109
-682.266	-95.481	-0.170	-0.046
-681.251	155.728	0.089	-0.125
-680.237	57.753	0.293	-0.292
-679.222	127.577	-0.267	0.346
-678.208	-200.000	0.065	0.429
-677.193	113.354	0.026	-0.032
-676.178	-96.701	-0.164	0.044
-675.164	82.701	0.174	-0.192
-674.149	-45.259	-0.319	-0.161
-673.135	353.554	-0.115	-0.233
-672.120	-98.683	0.117	-0.030
-671.105	-9.657	0.178	0.121
-670.091	28.047	0.271	-0.232
-669.076	-200.000	-0.013	0.163
-668.062	-200.000	-0.047	0.264
-667.047	32.899	0.096	0.085
-666.032	-105.825	0.117	0.027
-665.018	800.000	0.075	0.226
-664.003	32.379	0.040	-0.035
-662.989	78.552	0.172	0.187
-661.974	215.827	-0.053	-0.085
-660.959	155.258	0.080	-0.113
-659.945	16.290	-0.305	0.245
-658.930	155.071	-0.079	-0.111
-657.916	622.471	-0.162	-0.414
-656.901	241.631	0.107	-0.182
-655.886	-38.186	-0.053	-0.029
-654.872	65.728	0.087	-0.089
-653.857	521.941	-0.015	-0.036
-652.843	-124.191	0.230	0.037
-651.828	-143.567	-0.089	-0.009
-650.814	25.329	0.126	0.106
-649.799	136.217	0.086	0.113
-648.784	-74.336	0.182	-0.067
-647.770	481.564	-0.078	-0.180
-646.755	-74.350	-0.077	0.028
-645.741	-138.001	-0.476	0.054
-644.726	-86.985	0.265	-0.082
-643.711	-115.682	-0.141	0.027
-642.697	800.000	-0.069	-0.302
-641.682	-128.939	-0.295	0.042
-640.668	-97.737	-0.101	-0.027
-639.653	158.700	0.073	0.103
-638.638	223.823	-0.172	0.282
-637.624	800.000	0.059	-0.218
-636.609	328.130	0.140	-0.274
-635.595	800.000	-0.036	-0.146
-634.580	-81.182	-0.123	0.041
-633.565	400.601	0.155	-0.331
-632.551	105.818	-0.164	0.197
-631.536	114.271	0.207	0.256
-630.522	19.424	-0.279	0.228
-629.507	-200.000	0.025	-0.204
-628.492	160.746	-0.091	0.129
-627.478	-109.235	-0.104	0.022
-626.463	206.474	0.099	-0.156
-625.449	-152.579	0.129	-0.009
-624.434	-121.038	0.274	-0.047
-623.419	-132.668	0.139	-0.018
-622.405	-200.000	-0.009	-0.081
-621.390	-200.000	0.199	0.000
-620.376	583.297	-0.049	0.121
-619.361	-200.000	0.401	-0.002
-618.346	-25.628	-0.193	-0.116
-617.332	154.171	-0.201	0.280
-616.317	-84.069	0.013	-0.004
-615.303	-200.000	0.003	-0.252
-614.288	-200.000	-0.047	0.232
-613.273	800.000	0.089	-0.319
-612.259	-43.743	0.255	0.130
-611.244	-87.888	0.214	0.066
-610.230	576.854	0.097	-0.240
-609.215	-87.198	0.318	0.098
-608.201	69.913	0.106	-0.111
-607.186	-17.140	0.238	-0.153
-606.171	-112.344	0.198	-0.040
-605.157	141.351	0.109	0.146
-604.142	-34.499	0.141	0.078
-603.128	-8.962	-0.158	-0.107
-602.113	-133.173	-0.196	-0.025
-601.098	800.000	0.039	0.143
-600.084	303.699	-0.043	-0.080
-599.069	26.401	-0.142	0.121
-598.055	227.964	-0.019	0.032
-597.040	-108.590	-0.405	-0.088
-596.025	24.800	-0.144	-0.121
-595.011	-128.566	-0.336	0.048
-593.996	-119.119	0.022	0.004
-592.982	-200.000	-0.022	-0.180
-591.967	125.152	0.036	0.047
-590.952	92.572	-0.150	0.172
-589.938	0.147	-0.125	-0.091
-588.923	-28.461	-0.069	-0.040
-587.909	164.084	-0.060	-0.086
-586.894	-54.005	0.136	0.063
-585.879	-200.000	-0.027	0.417
-584.865	-122.823	0.058	0.009
-583.850	-200.000	0.016	-0.159
-582.836	-200.000	-0.068	-0.391
-581.821	-2.657	-0.243	-0.172
-580.806	198.569	-0.034	-0.053
-579.792	-200.000	-0.018	-0.120
-578.777	-75.068	-0.161	-0.059
-577.763	-63.798	-0.078	0.032
-576.748	221.816	0.113	-0.184
-575.733	-75.884	-0.243	-0.087
-574.719	-172.980	-0.151	-0.005
-573.704	86.464	0.293	0.328
-572.690	124.944	0.065	-0.083
-571.675	311.208	0.107	-0.203
-570.661	800.000	-0.047	-0.180
-569.646	-15.171	-0.231	-0.150
-568.631	-200.000	-0.012	0.417
-567.617	-1.036	0.102	0.073
-566.602	125.373	0.155	0.198
-565.588	22.856	0.234	-0.194
-564.573	226.414	-0.393	-0.647
-563.558	-7.530	0.116	0.079
-562.544	-180.827	-0.274	-0.006
-561.529	20.053	-0.254	0.208
-560.515	-165.255	-0.388	-0.017
-559.500	-46.467	0.421	-0.210
-558.485	-200.000	0.017	-0.252
-557.471	-123.549	-0.245	-0.040
-556.456	117.706	-0.038	-0.048
-555.442	-68.371	-0.188	0.074
-554.427	163.289	0.090	0.128
-553.412	126.746	-0.131	0.168
-552.398	119.229	0.081	-0.101
-551.383	-200.000	-0.045	-0.248
-550.369	-142.164	0.093	-0.009
-549.354	-71.376	-0.174	-0.066
-548.339	-101.920	-0.187	-0.046
-547.325	62.210	0.211	-0.214
-546.310	-200.000	-0.004	0.058
-545.296	-200.000	0.005	0.145
-544.281	59.818	-0.322	0.322
-543.266	-135.919	-0.070	-0.008
-542.252	-158.724	0.064	0.004
-541.237	129.578	-0.185	0.239
-540.223	38.044	-0.106	0.096
-539.208	-125.433	-0.248	0.038
-538.193	-129.347	0.176	-0.025
-537.179	618.814	0.103	0.262
-536.164	38.124	0.245	0.221
-535.150	-200.000	-0.056	-0.330
-534.135	50.824	0.134	-0.129
-533.121	124.028	0.073	0.093
-532.106	120.839	-0.061	-0.077
-531.091	474.055	0.062	-0.142
-530.077	-86.907	0.158	0.049
-529.062	261.516	0.029	0.050
-528.048	23.398	0.334	0.278
-527.033	-37.686	0.079	0.043
-526.018	524.032	0.038	-0.092
-525.004	37.309	0.180	-0.162
-523.989	89.769	-0.107	-0.121
-522.975	10.175	-0.064	-0.049
-521.960	-13.867	-0.304	-0.199
-520.945	391.057	-0.101	0.212
-519.931	-115.424	-0.207	0.039
-518.916	-93.025	-0.126	-0.036
-517.902	800.000	-0.105	-0.319
-516.887	-45.369	-0.056	-0.028
-515.872	-81.606	-0.314	-0.104
-514.858	800.000	0.060	0.234
-513.843	800.000	-0.032	-0.136
-512.829	-144.378	-0.188	-0.018
-511.814	214.176	-0.100	0.161
-510.799	-164.370	0.114	0.005
-509.785	-200.000	-0.016	-0.111
-508.770	601.212	0.184	-0.461
-507.756	800.000	0.071	-0.212
-506.741	-2.864	-0.164	0.116
-505.726	522.175	0.082	-0.196
-504.712	-200.000	-0.011	-0.201
-503.697	-117.994	0.272	0.049
-502.683	-36.090	-0.172	0.094
-501.668	-105.446	-0.068	0.016
-500.653	22.719	-0.208	-0.172
-499.639	729.830	0.116	0.314
-498.624	-200.000	-0.321	0.000
-497.610	-200.000	0.048	-0.258
-496.595	800.000	0.098	0.301
-495.581	45.553	0.311	0.290
-494.566	-200.000	0.020	-0.127
-493.551	67.278	-0.123	0.127
-492.537	800.000	0.103	0.384
-491.522	649.497	0.088	0.229
-490.508	256.104	0.050	0.086
-489.493	-145.135	-0.276	0.025
-488.478	-116.280	-0.422	-0.079
-487.464	-20.003	-0.260	-0.162
-486.449	-119.931	-0.181	-0.032
-485.435	387.066	0.269	0.563
-484.420	-200.000	0.046	0.273
-483.405	259.904	0.191	0.334
-482.391	-200.000	-0.021	0.152
-481.376	48.179	0.116	-0.110
-480.362	183.915	0.144	0.215
-479.347	-200.000	0.018	0.110
-478.332	-104.797	0.115	-0.027
-477.318	32.092	0.255	0.222
-476.303	-164.806	-0.174	-0.008
-475.289	-200.000	0.004	0.079
-474.274	-35.249	-0.340	-0.187
-473.259	800.000	-0.042	-0.127
-472.245	274.546	0.032	-0.058
-471.230	355.279	0.084	0.168
-470.216	-53.895	-0.080	-0.037
-469.201	-200.000	0.011	0.183
-468.186	-13.706	-0.117	-0.076
-467.172	-135.712	-0.494	-0.059
-466.157	133.145	0.155	0.202
-465.143	-200.000	0.000	-0.074
-464.128	159.407	-0.110	-0.154
-463.113	118.695	-0.046	-0.057
-462.099	71.578	-0.145	-0.152
-461.084	298.040	0.032	0.060
-460.070	-48.325	-0.164	0.080
-459.055	-67.583	0.291	-0.115
-458.040	-170.200	0.367	-0.013
-457.026	-70.069	0.023	0.009
-456.011	-139.814	0.371	0.040
-454.997	736.709	-0.067	0.182
-453.982	18.693	0.186	-0.150
-452.968	-169.341	0.204	-0.008
-451.953	11.199	-0.150	0.116
-450.938	-142.175	0.071	0.007
-449.924	800.000	0.069	0.212
-448.909	185.805	-0.122	0.184
-447.895	-200.000	0.051	0.348
-446.880	228.633	0.184	-0.303
-445.865	46.800	0.124	-0.116
-444.851	-200.000	0.066	0.362
-443.836	17.031	-0.015	0.012
-442.822	8.976	-0.308	0.235
-441.807	587.668	-0.020	0.049
-440.792	168.079	0.161	-0.231
-439.778	-200.000	-0.033	-0.275
-438.763	-50.292	0.164	-0.078
-437.749	800.000	-0.082	0.350
-436.734	-7.863	0.219	-0.150
-435.719	800.000	0.038	0.152
-434.705	461.190	-0.198	-0.446
-433.690	273.476	-0.072	0.129
-432.676	-101.927	-0.086	0.021
-431.661	800.000	0.075	-0.224
-430.646	-111.713	0.281	-0.057
-429.632	-73.208	0.285	-0.105
-428.617	-129.815	0.201	-0.028
-427.603	-200.000	-0.001	0.016
-426.588	113.002	-0.332	0.406
-425.573	23.656	0.159	0.132
-424.559	-142.394	0.087	-0.009
-423.544	-49.620	-0.169	-0.081
-422.530	167.514	0.091	0.130
-421.515	32.042	-0.216	-0.188
-420.500	-200.000	-0.030	0.240
-419.486	-200.000	0.060	-0.434
-418.471	134.495	-0.121	-0.158
-417.457	-200.000	0.101	-0.466
-416.442	210.809	0.111	-0.176
-415.428	-104.689	-0.326	0.076
-414.413	199.466	-0.196	0.302
-413.398	31.609	-0.101	-0.088
-412.384	-53.536	-0.298	0.138
-411.369	-154.213	0.422	0.029
-410.355	-29.778	-0.368	-0.212
-409.340	-77.078	-0.132	0.046
-408.325	217.049	-0.016	0.025
-407.311	-54.411	0.492	0.225
-406.296	-53.332	-0.105	-0.049
-405.282	-200.000	0.000	-0.491
-404.267	110.774	0.182	0.221
-403.252	17.632	0.034	-0.027
-402.238	-31.018	-0.446	0.254
-401.223	-130.793	-0.215	0.029
-400.209	-74.277	0.312	-0.114
-399.194	65.898	-0.267	0.273
-398.179	-64.653	-0.180	-0.074
-397.165	0.337	-0.059	-0.042
-396.150	-124.625	-0.345	0.054
-395.136	-200.000	0.007	-0.102
-394.121	-151.356	-0.184	-0.014
-393.106	147.159	-0.068	-0.092
-392.092	10.139	0.282	0.216
-391.077	-200.000	0.021	0.164
-390.063	-144.821	-0.198	0.018
-389.048	135.738	0.169	-0.221
-388.033	-68.001	0.076	0.030
-387.019	800.000	0.106	0.380
-386.004	-181.790	-0.353	0.007
-384.990	-8.395	-0.245	-0.166
-383.975	-200.000	0.032	0.321
-382.960	366.452	-0.133	-0.270
-381.946	224.922	-0.041	-0.067
-380.931	-122.897	0.165	-0.027
-379.917	800.000	-0.025	-0.084
-378.902	399.573	-0.108	0.229
-377.888	-64.672	0.122	0.050
-376.873	-85.552	0.170	0.053
-375.858	800.000	-0.065	-0.235
-374.844	-200.000	0.065	-0.288
-373.829	-20.445	-0.245	0.152
-372.815	-130.887	0.023	0.003
-371.800	-134.810	0.273	0.033
-370.785	-200.000	-0.005	-0.058
-369.771	64.979	0.235	-0.239
-368.756	-200.000	0.005	-0.047
-367.742	-200.000	0.041	-0.299
-366.727	12.820	-0.042	-0.033
-365.712	-123.780	-0.238	-0.038
-364.698	-200.000	0.033	0.236
-363.683	192.277	-0.110	-0.167
-362.669	-12.250	-0.177	-0.117
-361.654	-80.074	0.149	-0.050
-360.639	800.000	0.107	0.313
-359.625	721.558	-0.026	-0.071
-358.610	-75.903	-0.338	0.120
-357.596	122.615	-0.090	-0.113
-356.581	-65.895	-0.245	-0.099
-355.566	800.000	0.036	0.150
-354.552	7.884	0.174	0.131
-353.537	77.669	-0.051	0.054
-352.523	189.860	-0.127	0.192
-351.508	-113.909	-0.055	0.011
-350.493	51.112	-0.137	0.131
-349.479	396.092	0.022	-0.047
-348.464	-47.415	0.194	-0.095
-347.450	30.495	-0.122	0.105
-346.435	-135.049	-0.331	0.040
-345.420	800.000	0.068	-0.228
-344.406	52.025	-0.118	0.113
-343.391	-200.000	0.026	0.115
-342.377	72.488	-0.215	-0.225
-341.362	-178.059	0.075	-0.002
-340.348	800.000	0.142	0.420
-339.333	800.000	-0.032	-0.115
-338.318	-118.201	0.226	-0.041
-337.304	329.378	0.071	-0.138
-336.289	229.195	-0.235	-0.385
-335.275	-129.805	0.377	0.052
-334.260	107.098	0.282	0.337
-333.245	-158.312	-0.165	-0.010
-332.231	-68.711	0.272	-0.106
-331.216	-109.285	0.141	-0.030
-330.202	246.669	0.262	-0.445
-329.187	-200.000	-0.002	-0.190
-328.172	23.548	0.198	-0.164
-327.158	-130.157	0.353	-0.048
-326.143	-56.798	-0.254	0.113
-325.129	-33.187	-0.173	-0.096
-324.114	-13.163	-0.230	-0.150
-323.099	7.538	0.222	0.167
-322.085	47.578	-0.121	0.114
-321.070	-89.203	-0.111	0.033
-320.056	100.056	0.104	-0.121
-319.041	12.002	0.144	-0.111
-318.026	49.926	-0.209	-0.198
-317.012	-200.000	-0.002	-0.432
-315.997	-113.620	0.117	0.023
-314.983	-49.427	-0.136	-0.065
-313.968	23.656	-0.090	-0.074
-312.953	114.232	0.172	0.211
-311.939	156.093	0.258	0.358
-310.924	-72.799	0.390	0.144
-309.910	-50.274	0.110	-0.052
-308.895	-200.000	-0.033	0.384
-307.880	-26.687	0.125	-0.073
-306.866	-89.491	-0.423	0.125
-305.851	-200.000	-0.060	-0.371
-304.837	245.433	-0.136	-0.231
-303.822	-35.562	0.306	-0.167
-302.807	-200.000	0.033	-0.261
-301.793	211.743	0.268	0.424
-300.778	39.089	-0.073	-0.066
-299.764	-200.000	0.023	-0.126
-298.749	311.540	0.230	0.433
-297.735	13.494	-0.120	0.093
-296.720	660.191	-0.085	-0.220
-295.705	6.424	-0.146	-0.108
-294.691	218.723	-0.194	-0.311
-293.676	5.540	-0.160	-0.118
-292.662	33.374	0.148	0.129
-291.647	-154.257	0.337	0.023
-290.632	-94.839	0.282	-0.077
-289.618	123.297	-0.083	-0.104
-288.603	271.657	0.035	-0.062
-287.589	800.000	-0.019	0.053
-286.574	-28.441	-0.145	-0.084
-285.559	131.997	-0.167	0.216
-284.545	170.311	0.127	0.182
-283.530	635.549	0.060	0.152
-282.516	-200.000	0.055	0.397
-281.501	131.124	0.100	-0.128
-280.486	-64.936	-0.183	0.074
-279.472	230.666	-0.109	0.179
-278.457	31.446	0.119	-0.102
-277.443	-200.000	-0.011	0.276
-276.428	332.844	0.084	0.162
-275.413	800.000	-0.011	-0.034
-274.399	-95.069	0.260	-0.070
-273.384	-116.794	0.359	0.066
-272.370	-125.105	0.266	0.041
-271.355	416.753	0.012	0.026
-270.340	84.044	-0.082	-0.089
-269.326	-200.000	0.054	0.000
-268.311	-148.835	-0.468	-0.038
-267.297	-64.797	-0.100	0.041
-266.282	500.679	-0.085	0.196
-265.267	262.381	0.050	0.086
-264.253	800.000	-0.073	-0.239
-263.238	-200.000	0.058	0.303
-262.224	173.601	-0.087	0.126
-261.209	800.000	-0.042	0.120
-260.195	21.281	0.104	-0.085
-259.180	-104.465	0.451	-0.105
-258.165	800.000	0.054	-0.232
-257.151	800.000	-0.003	-0.010
-256.136	54.671	-0.255	-0.247
-255.122	800.000	-0.040	0.175
-254.107	-54.648	0.145	0.066
-253.092	-27.910	0.134	0.078
-252.078	480.562	-0.218	0.496
-251.063	-107.363	-0.224	-0.049
-250.049	6.584	0.356	0.265
-249.034	-50.746	0.062	0.029
-248.019	-74.338	-0.166	0.060
-247.005	505.476	0.088	-0.204
-245.990	354.723	0.071	-0.141
-244.976	121.257	0.050	0.063
-243.961	-150.754	0.232	-0.018
-242.946	151.258	0.105	0.143
-241.932	169.929	-0.151	-0.216
-240.917	-200.000	-0.027	0.168
-239.903	800.000	-0.017	0.062
-238.888	800.000	-0.048	-0.183
-237.873	41.825	0.167	0.152
-236.859	209.144	-0.020	0.031
-235.844	-97.803	-0.250	-0.065
-234.830	-200.000	0.036	0.234
-233.815	33.670	0.294	-0.256
-232.800	-200.000	0.028	0.214
-231.786	-134.732	0.132	0.016
-230.771	797.331	-0.171	-0.473
-229.757	567.802	0.067	0.162
-228.742	-151.246	0.233	0.017
-227.727	252.047	-0.084	-0.143
-226.713	443.782	-0.048	-0.106
-225.698	800.000	-0.065	-0.260
-224.684	157.442	0.080	-0.111
-223.669	-14.192	0.231	0.149
-222.655	-159.660	0.401	0.022
-221.640	-2.089	-0.109	0.076
-220.625	800.000	-0.045	0.193
-219.611	-112.856	-0.327	0.065
-218.596	196.251	-0.095	0.144
-217.582	-34.420	0.138	0.076
-216.567	6.876	0.051	0.038
-215.552	-177.216	-0.328	0.008
-214.538	647.124	-0.022	-0.055
-213.523	299.968	-0.134	0.246
-212.509	800.000	-0.065	0.215
-211.494	778.883	0.049	-0.134
-210.479	58.404	-0.139	0.136
-209.465	172.243	-0.077	0.111
-208.450	-15.636	-0.111	-0.071
-207.436	-61.476	-0.155	-0.065
-206.421	306.674	0.065	0.121
-205.406	-59.472	0.154	-0.066
-204.392	499.130	0.068	0.158
-203.377	19.323	0.108	0.087
-202.363	-149.262	0.048	0.004
-201.348	-122.463	-0.301	-0.049
-200.333	5.216	0.276	-0.204
-199.319	-200.000	0.017	-0.111
-198.304	-2.686	-0.122	-0.085
-197.290	-97.712	0.366	-0.095
-196.275	-200.000	-0.014	-0.342
-195.260	89.956	0.186	0.207
-194.246	44.169	-0.117	0.107
-193.231	221.803	-0.146	0.235
-192.217	506.337	0.054	0.125
-191.202	-82.919	-0.463	-0.149
-190.187	-108.294	-0.233	0.050
-189.173	-15.440	-0.120	-0.077
-188.158	-200.000	-0.005	-0.026
-187.144	-200.000	-0.001	-0.169
-186.129	800.000	0.093	-0.295
-185.114	-18.596	-0.227	-0.141
-184.100	-97.564	0.210	-0.054
-183.085	-64.177	0.356	0.145
-182.071	369.009	0.131	-0.265
-181.056	263.055	-0.081	-0.141
-180.042	541.609	-0.054	0.129
-179.027	-104.162	0.393	0.091
-178.012	-138.744	0.409	0.045
-176.998	32.654	0.162	0.140
-175.983	117.114	0.208	0.255
-174.969	270.653	-0.016	-0.028
-173.954	800.000	0.022	0.075
-172.939	-122.951	0.163	0.026
-171.925	81.953	0.147	-0.159
-170.910	-64.521	-0.151	0.061
-169.896	11.504	-0.043	-0.033
-168.881	268.709	0.063	0.111
-167.866	-44.139	-0.070	0.035
-166.852	-46.777	0.347	0.170
-165.837	-54.725	0.303	0.137
-164.823	-67.113	-0.080	-0.031
-163.808	-200.000	-0.026	-0.190
-162.793	-29.964	0.469	-0.267
-161.779	-51.760	-0.208	0.097
-160.764	150.426	0.154	0.208
-159.750	-56.150	-0.160	0.071
-158.735	-200.000	0.068	-0.338
-157.720	-200.000	-0.001	-0.084
-156.706	-200.000	0.027	0.165
-155.691	-45.980	-0.264	-0.130
-154.677	61.700	-0.229	0.227
-153.662	-200.000	0.018	-0.090
-152.647	-11.341	0.136	0.089
-151.633	-131.310	-0.295	-0.039
-150.618	312.769	-0.049	0.091
-149.604	-129.287	-0.198	0.028
-148.589	30.550	-0.082	0.070
-147.574	-156.565	0.432	0.027
-146.560	-114.958	-0.397	0.075
-145.545	800.000	0.122	0.368
-144.531	241.425	0.105	0.174
-143.516	17.334	0.205	-0.163
-142.502	366.501	0.035	-0.071
-141.487	-200.000	0.040	0.269
-140.472	-150.068	0.323	0.025
-139.458	800.000	-0.036	0.135
-138.443	-31.050	-0.248	-0.140
-137.429	133.754	-0.094	0.121
-136.414	-200.000	-0.068	0.562
-135.399	-200.000	0.008	0.401
-134.385	-124.196	-0.292	0.046
-133.370	775.378	0.040	-0.109
-132.356	34.630	0.111	0.097
-131.341	-13.562	-0.099	0.064
-130.326	-42.939	-0.101	0.051
-129.312	-99.036	0.260	0.066
-128.297	-200.000	0.026	-0.484
-127.283	-200.000	-0.026	-0.231
-126.268	207.738	0.157	0.244
-125.253	-62.045	0.299	-0.125
-124.239	319.297	0.080	0.151
-123.224	124.975	-0.044	-0.056
-122.210	-41.816	-0.126	-0.065
-121.195	-17.253	-0.072	0.045
-120.180	173.521	-0.085	0.122
-119.166	-51.811	0.240	-0.112
-118.151	23.915	-0.131	0.108
-117.137	381.720	0.164	-0.337
-116.122	154.073	0.258	0.352
-115.107	-19.575	-0.146	0.090
-114.093	-61.287	0.312	-0.131
-113.078	-200.000	0.036	0.251
-112.064	83.767	-0.279	0.304
-111.049	-200.000	-0.011	0.213
-110.034	-200.000	-0.006	0.087
-109.020	27.258	-0.074	-0.062
-108.005	2.754	0.108	-0.078
-106.991	-54.379	-0.132	0.060
-105.976	529.392	0.146	0.343
-104.962	-149.491	0.159	0.013
-103.947	-93.880	0.250	-0.069
-102.932	101.985	0.083	-0.097
-101.918	49.745	-0.079	0.074
-100.903	-33.312	0.296	0.163
-99.889	432.615	-0.037	0.080
-98.874	79.471	-0.185	-0.197
-97.859	706.043	0.046	-0.121
-96.845	-114.404	0.216	-0.041
-95.830	85.043	0.176	0.193
-94.816	-200.000	0.018	-0.144
-93.801	-122.537	-0.308	0.050
-92.786	269.383	-0.104	-0.181
-91.772	-190.066	0.200	-0.002
-90.757	735.670	0.144	0.384
-89.743	27.018	-0.155	-0.129
-88.728	-56.689	-0.256	0.113
-87.713	-22.876	0.182	-0.109
-86.699	-45.694	-0.313	-0.154
-85.684	125.290	0.176	-0.220
-84.670	163.134	-0.147	0.206
-83.655	-157.055	-0.117	0.007
-82.640	236.177	0.044	0.073
-81.626	-200.000	0.024	-0.135
-80.611	-125.602	0.284	-0.043
-79.597	10.517	0.086	0.065
-78.582	-200.000	-0.023	0.126
-77.567	76.993	0.160	-0.169
-76.553	59.511	0.202	-0.198
-75.538	199.371	0.091	0.139
-74.524	2.057	-0.171	-0.123
-73.509	176.898	-0.052	-0.075
-72.494	367.472	-0.009	0.018
-71.480	-61.785	0.082	0.034
-70.465	-135.117	0.102	-0.012
-69.451	1.829	-0.079	0.057
-68.436	-77.757	-0.154	-0.053
-67.422	43.466	0.296	0.269
-66.407	-200.000	-0.071	0.403
-65.392	-200.000	-0.040	-0.291
-64.378	800.000	0.060	-0.201
-63.363	48.176	-0.244	0.227
-62.349	290.352	0.041	0.074
-61.334	0.463	-0.908	-0.646
-60.319	206.486	0.379	0.587
-59.305	800.000	-0.237	-0.913
-58.290	202.412	0.569	0.873
-57.276	800.000	0.477	1.654
-56.261	-200.000	79.386	503.401
-55.246	480.927	1363.475	3076.597
-54.232	142.997	2606.172	3446.177
-53.217	111.299	2260.798	2709.454
-52.203	50.129	1708.475	1603.773
-51.188	42.572	1436.703	1299.956
-50.173	39.185	1392.785	1238.874
-49.159	56.834	1430.810	1385.515
-48.144	61.973	1449.828	1436.626
-47.130	42.996	1410.828	1279.037
-46.115	39.275	1393.444	1239.828
-45.100	39.041	1388.924	1234.289
-44.086	38.897	1386.642	1231.308
-43.071	38.934	1384.204	1229.329
-42.057	38.909	1381.594	1226.801
-41.042	38.896	1380.444	1225.653
-40.027	38.921	1378.817	1224.315
-39.013	39.101	1376.509	1223.340
-37.998	39.012	1374.929	1221.331
-36.984	39.101	1372.689	1219.845
-35.969	39.166	1371.317	1218.979
-34.954	39.120	1369.120	1216.697
-33.940	39.160	1368.090	1215.978
-32.925	39.256	1366.492	1215.106
-31.911	39.254	1365.327	1214.008
-30.896	39.285	1363.361	1212.403
-29.881	39.211	1362.328	1210.979
-28.867	39.308	1360.357	1209.777
-27.852	39.220	1359.278	1208.229
-26.838	39.238	1357.632	1206.824
-25.823	39.307	1356.054	1205.797
-24.809	39.160	1354.593	1203.556
-23.794	39.133	1353.183	1202.089
-22.779	39.233	1351.378	1201.049
-21.765	39.245	1350.465	1200.261
-20.750	39.152	1349.251	1198.569
-19.736	39.013	1348.314	1196.838
-18.721	39.058	1346.730	1195.660
-17.706	39.078	1345.773	1194.887
-16.692	39.058	1344.533	1193.613
-15.677	39.130	1343.297	1192.911
-14.663	39.128	1342.162	1191.842
-13.648	39.057	1341.102	1190.424
-12.633	39.085	1339.792	1189.383
-11.619	38.912	1339.681	1188.185
-10.604	39.053	1338.206	1187.687
-9.590	39.104	1336.985	1186.860
-8.575	39.026	1335.933	1185.412
-7.560	38.981	1335.131	1184.381
-6.546	39.149	1334.208	1184.528
-5.531	39.002	1333.347	1182.828
-4.517	39.082	1332.645	1182.639
-3.502	39.068	1331.458	1181.459
-2.487	39.121	1330.227	1180.637
-1.473	39.096	1326.777	1177.375
-0.458	38.201	1311.490	1158.464
0.556	33.216	1292.533	1118.592
1.571	29.197	1296.566	1098.089
2.586	27.699	1311.686	1101.753
3.600	26.444	1300.026	1084.347
4.615	22.694	1227.550	1002.535
5.629	16.752	1150.636	907.879
6.644	13.510	1128.856	873.542
7.659	13.271	1126.310	870.237
8.673	13.159	1125.078	868.617
9.688	13.110	1123.406	866.992
10.702	13.399	1122.218	867.515
11.717	17.245	1127.643	891.852
12.731	21.407	1132.566	917.553
13.746	20.251	1129.497	908.934
14.761	17.797	1125.882	893.113
15.775	16.476	1123.303	884.085
16.790	15.472	1121.019	876.969
17.804	14.760	1119.263	871.799
18.819	14.099	1118.705	867.842
19.834	13.817	1117.363	865.252
20.848	13.601	1116.181	863.135
21.863	13.384	1115.183	861.159
22.877	13.364	1114.406	860.376
23.892	13.348	1113.301	859.367
24.907	13.254	1113.012	858.580
25.921	13.268	1111.700	857.565
26.936	13.325	1110.649	856.974
27.950	13.381	1108.734	855.710
28.965	13.322	1107.793	854.603
29.980	13.439	1105.890	853.663
30.994	13.616	1104.386	853.338
32.009	13.618	1103.233	852.378
33.023	13.530	1102.100	850.975
34.038	13.523	1100.767	849.835
35.053	13.336	1100.633	848.698
36.067	13.346	1099.595	847.877
37.082	13.459	1098.485	847.522
38.096	13.465	1097.818	846.966
39.111	13.443	1097.030	846.166
40.126	13.448	1095.204	844.711
41.140	13.227	1094.584	843.033
42.155	13.361	1092.881	842.325
43.169	13.168	1092.367	840.876
44.184	13.255	1090.813	840.047
45.199	13.194	1089.950	838.994
46.213	13.354	1088.721	838.788
47.228	13.379	1087.562	837.949
48.242	13.395	1086.506	837.138
49.257	13.271	1086.025	836.067
50.271	13.348	1084.991	835.588
51.286	13.508	1083.491	835.163
52.301	13.462	1082.813	834.335
53.315	13.333	1081.621	832.696
54.330	13.444	1080.028	831.954
55.344	13.421	1079.370	831.257
56.359	13.495	1078.716	831.051
57.374	13.354	1077.745	829.522
58.388	13.180	1077.199	828.157
59.403	13.288	1075.680	827.459
60.417	13.248	1075.358	826.935
61.432	13.151	1074.771	825.924
62.447	13.267	1073.694	825.602
63.461	13.216	1072.622	824.455
64.476	13.066	1072.077	823.213
65.490	13.289	1070.675	823.172
66.505	13.157	1070.306	822.161
67.520	13.227	1069.389	821.732
68.534	13.191	1068.734	820.979
69.549	13.140	1068.131	820.189
70.563	13.249	1066.958	819.757
71.578	13.038	1066.404	818.213
72.593	13.061	1065.727	817.734
73.607	13.062	1064.916	817.041
74.622	13.033	1064.414	816.444
75.636	13.131	1063.529	816.178
76.651	13.148	1062.754	815.591
77.666	13.152	1062.141	815.069
78.680	13.193	1061.805	814.940
79.695	13.202	1060.763	814.112
80.709	13.288	1060.207	814.042
81.724	13.270	1059.231	813.128
82.739	13.373	1058.667	813.130
83.753	13.365	1058.005	812.512
84.768	13.594	1056.709	812.566
85.782	13.478	1056.335	811.638
86.797	13.438	1055.159	810.469
87.812	13.358	1054.120	809.208
88.826	13.446	1052.932	808.652
89.841	13.428	1051.944	807.735
90.855	13.498	1051.560	807.710
91.870	13.427	1050.500	806.478
92.884	13.537	1049.596	806.250
93.899	13.666	1048.121	805.672
94.914	13.597	1047.254	804.597
95.928	13.494	1046.807	803.684
96.943	13.544	1045.644	802.961
97.957	13.525	1045.071	802.357
98.972	13.451	1044.285	801.327
99.987	13.491	1043.176	800.598
101.001	13.544	1042.669	800.396
102.016	13.500	1041.772	799.421
103.030	13.563	1040.383	798.588
104.045	13.550	1039.483	797.764
105.060	13.433	1039.008	796.769
106.074	13.356	1038.093	795.623
107.089	13.344	1036.666	794.401
108.103	13.250	1035.860	793.263
109.118	13.329	1034.923	792.856
110.133	13.259	1034.150	791.856
111.147	13.204	1033.394	790.943
112.162	13.231	1032.314	790.176
113.176	13.358	1031.641	790.198
114.191	13.403	1030.832	789.723
115.206	13.503	1029.856	789.384
116.220	13.480	1028.793	788.387
117.235	13.462	1027.648	787.354
118.249	13.322	1027.424	786.449
119.264	13.313	1026.565	785.678
120.279	13.299	1025.908	785.039
121.293	13.281	1024.649	783.923
122.308	13.190	1024.139	783.031
123.322	13.179	1022.646	781.768
124.337	13.349	1021.810	781.866
125.352	13.329	1020.459	780.666
126.366	13.326	1019.385	779.763
127.381	13.340	1018.264	778.901
128.395	13.332	1017.646	778.321
129.410	13.392	1016.550	777.696
130.424	13.466	1015.919	777.492
131.439	13.431	1015.230	776.733
132.454	13.375	1014.554	775.883
133.468	13.471	1013.577	775.518
134.483	13.477	1012.393	774.570
135.497	13.459	1011.447	773.696
136.512	13.482	1011.070	773.444
137.527	13.515	1009.957	772.683
138.541	13.550	1009.345	772.306
139.556	13.411	1008.775	771.157
140.570	13.546	1008.140	771.230
141.585	13.703	1006.874	770.923
142.600	13.625	1006.112	769.907
143.614	13.752	1004.830	769.448
144.629	13.712	1004.279	768.773
145.643	13.652	1003.369	767.731
146.658	13.511	1002.480	766.330
147.673	13.640	1001.294	765.951
148.687	13.659	1000.298	765.211
149.702	13.512	999.395	763.775
150.716	13.432	998.901	762.959
151.731	13.704	997.735	763.254
152.746	13.522	997.294	762.011
153.760	13.656	996.287	761.790
154.775	13.599	996.142	761.349
155.789	13.617	995.470	760.851
156.804	13.725	994.145	760.269
157.819	13.836	993.349	760.098
158.833	13.683	992.997	759.061
159.848	13.767	992.136	758.719
160.862	13.740	991.428	757.990
161.877	13.609	990.581	756.675
162.892	13.612	989.503	755.802
163.906	13.661	988.233	754.986
164.921	13.648	987.473	754.281
165.935	13.719	986.514	753.804
166.950	13.664	985.345	752.595
167.964	13.759	984.227	752.105
168.979	13.647	983.635	751.077
169.994	13.766	982.599	750.758
171.008	13.690	982.515	750.285
172.023	13.757	981.626	749.843
173.037	13.773	980.597	749.062
174.052	13.768	980.182	748.655
175.067	13.656	979.773	747.774
176.081	13.674	978.978	747.179
177.096	13.786	978.091	746.940
178.110	13.703	977.434	745.999
179.125	13.814	976.564	745.769
180.140	13.767	976.419	745.380
181.154	13.750	976.152	745.035
182.169	13.866	975.313	744.850
183.183	13.948	974.584	744.592
184.198	13.995	973.574	743.966
185.213	13.970	973.114	743.437
186.227	13.896	972.398	742.492
187.242	13.972	971.970	742.443
188.256	14.051	971.173	742.120
189.271	14.036	970.303	741.322
190.286	13.927	969.454	740.124
191.300	13.775	968.830	738.902
192.315	13.754	968.070	738.163
193.329	13.771	967.752	737.932
194.344	13.837	967.119	737.677
195.359	13.932	966.187	737.326
196.373	14.115	965.623	737.638
197.388	13.907	965.688	736.703
198.402	14.274	964.383	737.264
199.417	14.191	964.055	736.582
200.432	14.278	963.293	736.318
201.446	14.234	962.916	735.772
202.461	14.259	962.271	735.325
203.475	14.319	961.780	735.149
204.490	14.345	960.758	734.417
205.504	14.192	959.883	733.013
206.519	14.167	959.477	732.524
207.534	14.120	958.708	731.668
208.548	14.142	958.304	731.392
209.563	14.183	957.527	730.912
210.577	14.133	956.920	730.164
211.592	14.321	956.307	730.457
212.607	14.201	955.574	729.305
213.621	14.332	954.315	728.857
214.636	14.364	953.616	728.398
215.650	14.264	953.426	727.751
216.665	14.416	952.259	727.459
217.680	14.358	951.298	726.406
218.694	14.399	950.941	726.248
219.709	14.496	950.437	726.220
220.723	14.442	949.509	725.216
221.738	14.481	948.335	724.421
222.753	14.575	947.778	724.341
223.767	14.523	947.764	724.039
224.782	14.611	946.720	723.559
225.796	14.538	946.414	722.947
226.811	14.580	945.755	722.560
227.826	14.485	944.900	721.432
228.840	14.525	944.189	720.997
229.855	14.584	943.003	720.283
230.869	14.411	942.742	719.273
231.884	14.481	942.223	719.118
232.899	14.501	941.223	718.375
233.913	14.377	940.577	717.287
234.928	14.380	939.959	716.764
235.942	14.533	939.109	716.709
236.957	14.637	938.514	716.639
237.972	14.458	938.019	715.428
238.986	14.606	937.183	715.362
240.001	14.464	936.922	714.492
241.015	14.612	935.768	714.183
242.030	14.629	935.231	713.780
243.045	14.694	934.581	713.502
244.059	14.696	934.138	713.107
245.074	14.647	933.354	712.238
246.088	14.743	932.803	712.163
247.103	14.756	932.265	711.745
248.117	14.782	931.645	711.319
249.132	14.854	931.179	711.204
250.147	14.983	930.393	711.089
251.161	15.019	929.585	710.564
252.176	14.956	929.409	710.097
253.190	15.072	928.657	709.954
254.205	14.988	927.781	708.865
255.220	15.008	927.314	708.528
256.234	15.044	926.329	707.866
257.249	15.130	925.813	707.774
258.263	15.019	924.939	706.572
259.278	15.090	924.333	706.349
260.293	15.160	923.513	705.956
261.307	15.178	923.163	705.701
262.322	15.221	922.429	705.257
263.336	15.221	921.684	704.626
264.351	15.189	920.933	703.856
265.366	15.188	920.260	703.272
266.380	15.255	919.850	703.181
267.395	15.274	918.947	702.505
268.409	15.228	918.031	701.552
269.424	15.320	917.381	701.376
270.439	15.299	916.199	700.323
271.453	15.234	915.842	699.718
272.468	15.190	915.574	699.266
273.482	15.199	914.674	698.558
274.497	15.328	913.919	698.454
275.512	15.326	913.183	697.821
276.526	15.233	913.395	697.533
277.541	15.309	912.682	697.244
278.555	15.406	912.088	697.131
279.570	15.461	911.295	696.694
280.585	15.445	910.490	695.949
281.599	15.436	909.626	695.190
282.614	15.350	908.928	694.238
283.628	15.371	908.345	693.821
284.643	15.503	907.416	693.595
285.657	15.517	907.010	693.278
286.672	15.574	906.342	692.944
287.687	15.559	906.049	692.596
288.701	15.446	905.394	691.566
289.716	15.466	905.157	691.408
290.730	15.634	903.802	691.003
291.745	15.578	903.225	690.270
292.760	15.691	902.871	690.401
293.774	15.634	902.072	689.496
294.789	15.521	901.241	688.338
295.803	15.662	900.563	688.335
296.818	15.456	900.097	687.076
297.833	15.723	899.046	687.304
298.847	15.597	898.647	686.424
299.862	15.640	898.241	686.228
300.876	15.771	897.169	685.882
301.891	15.786	896.574	685.430
302.906	15.826	896.367	685.373
303.920	15.870	895.976	685.191
304.935	15.849	895.357	684.572
305.949	16.002	894.405	684.405
306.964	15.878	893.674	683.283
307.979	15.898	892.993	682.782
308.993	15.860	892.647	682.304
310.008	15.878	891.846	681.706
311.022	15.846	891.170	680.998
312.037	15.860	890.835	680.739
313.052	15.767	890.209	679.826
314.066	15.695	890.251	679.505
315.081	15.850	889.135	679.219
316.095	15.793	888.227	678.233
317.110	15.807	887.545	677.709
318.125	15.867	887.211	677.638
319.139	15.931	886.426	677.235
320.154	15.853	886.285	676.753
321.168	15.954	885.650	676.615
322.183	15.955	885.105	676.143
323.197	15.919	884.654	675.592
324.212	16.000	883.774	675.185
325.227	15.889	883.382	674.383
326.241	15.949	882.700	674.043
327.256	15.987	882.061	673.648
328.270	15.979	881.507	673.132
329.285	15.999	880.693	672.531
330.300	16.055	880.042	672.196
331.314	16.110	879.787	672.162
332.329	16.108	879.276	671.704
333.343	16.066	878.818	671.127
334.358	16.120	878.704	671.196
335.373	16.005	878.314	670.381
336.387	16.189	877.715	670.597
337.402	16.185	877.330	670.226
338.416	16.247	877.078	670.221
339.431	16.156	876.796	669.587
340.446	16.272	875.966	669.352
341.460	16.313	875.911	669.414
342.475	16.406	875.406	669.337
343.489	16.483	874.908	669.202
344.504	16.382	874.828	668.682
345.519	16.515	873.774	668.341
346.533	16.451	873.108	667.522
347.548	16.295	872.957	666.730
348.562	16.256	872.235	665.964
349.577	16.350	871.278	665.548
350.592	16.248	871.104	664.954
351.606	16.412	870.148	664.810
352.621	16.260	869.755	663.854
353.635	16.370	868.892	663.568
354.650	16.508	868.197	663.518
355.665	16.411	867.792	662.770
356.679	16.516	866.982	662.506
357.694	16.505	866.366	661.932
358.708	16.569	865.734	661.644
359.723	16.419	865.368	660.716
360.738	16.490	864.543	660.306
361.752	16.508	863.902	659.828
362.767	16.647	863.582	660.067
363.781	16.612	862.848	659.311
364.796	16.648	862.441	659.085
365.810	16.670	861.957	658.740
366.825	16.742	861.957	658.962
367.840	16.893	860.817	658.620
368.854	16.838	860.467	658.079
369.869	16.685	860.088	657.136
370.883	16.796	859.513	657.072
371.898	16.809	859.653	657.168
372.913	16.884	858.909	656.834
373.927	16.815	858.226	655.986
374.942	16.806	858.033	655.745
375.956	16.840	857.699	655.563
376.971	16.972	857.114	655.569
377.986	17.097	856.381	655.433
379.000	17.055	855.771	654.746
380.015	17.160	855.276	654.716
381.029	17.053	854.368	653.550
382.044	17.140	853.949	653.506
383.059	17.182	853.200	653.037
384.073	17.061	852.929	652.306
385.088	17.087	852.078	651.696
386.102	17.018	851.601	651.012
387.117	17.067	851.006	650.687
388.132	16.921	850.809	649.919
389.146	17.039	850.072	649.747
390.161	17.080	849.758	649.608
391.175	17.044	849.206	648.990
392.190	17.161	848.236	648.639
393.205	17.083	847.834	647.976
394.219	17.138	847.505	647.878
395.234	17.077	847.112	647.287
396.248	17.154	846.629	647.154
397.263	17.069	846.433	646.623
398.278	16.984	846.006	645.918
399.292	17.092	845.210	645.664
400.307	16.926	845.488	645.187
401.321	17.196	844.388	645.316
402.336	17.194	843.744	644.760
403.350	17.163	843.699	644.549
404.365	17.236	842.808	644.087
405.380	17.324	842.448	644.090
406.394	17.287	842.074	643.605
407.409	17.420	841.157	643.352
408.423	17.328	841.187	642.969
409.438	17.439	840.726	642.981
410.453	17.524	840.088	642.755
411.467	17.413	839.800	642.061
412.482	17.487	839.669	642.184
413.496	17.484	839.164	641.726
414.511	17.591	838.714	641.729
415.526	17.579	838.176	641.216
416.540	17.572	838.018	641.013
417.555	17.502	837.355	640.186
418.569	17.528	836.914	639.888
419.584	17.538	836.308	639.407
420.599	17.701	835.804	639.575
421.613	95.362	1275.443	1398.166
422.628	82.459	1339.538	1398.288
