DTS Sentinel unit serial number:	SN413079Multiplexer serial number:	ORYXHardware model number:	OX4-SRSoftware version number:	ORYX F/W v4.00 Oryx Data Collector v3.7.2.0data status	okinstallation	princeton_trtdifferential loss correction	single-endedforward channel	channel 1reverse channel	N/Adate	2019/09/16time	01:06:35forward acquisition time	60.00reverse acquisition time	0.00gamma	496.2192k internal	0.2335k external	0.2335temperature offset calibration	0.9973default loss term (dB/km)	0.3790temperature slope calibration	1.0000multiplexer offset coefficient	1.0000multiplexer slope coefficient	1.0000fibre end	0.00T internal ref (°C)	27.31T ext. ref 1 (°C)	9.77T ext. ref 2 (°C)	21.57length (m)	temperature (°C)	Stokes	anti-Stokes-747.200	228.296	-0.044	-0.071
-746.185	-10.293	-0.165	-0.110
-745.171	10.508	-0.232	0.178
-744.156	-71.360	-0.078	0.029
-743.142	55.853	0.248	0.241
-742.127	230.309	0.077	0.126
-741.112	62.155	0.134	-0.134
-740.098	718.459	-0.085	0.228
-739.083	-200.000	0.049	0.272
-738.069	-48.737	0.316	0.152
-737.054	-200.000	0.054	-0.248
-736.039	800.000	-0.055	-0.222
-735.025	63.278	0.343	-0.345
-734.010	736.613	-0.095	-0.256
-732.996	-120.209	-0.132	-0.023
-731.981	-16.273	0.292	-0.186
-730.966	-102.691	0.368	-0.088
-729.952	148.292	0.080	0.108
-728.937	800.000	0.028	0.078
-727.923	15.208	-0.230	-0.181
-726.908	-79.868	0.186	0.063
-725.894	-42.913	-0.155	-0.079
-724.879	-58.797	-0.215	0.093
-723.864	-122.401	-0.138	0.023
-722.850	694.328	-0.157	0.412
-721.835	208.168	0.056	-0.088
-720.821	800.000	-0.023	0.086
-719.806	-200.000	0.014	0.284
-718.791	-200.000	0.009	0.068
-717.777	190.828	0.073	-0.110
-716.762	198.622	-0.179	0.276
-715.748	-127.956	0.093	0.013
-714.733	27.703	0.172	0.146
-713.718	-200.000	0.047	0.237
-712.704	-155.864	-0.191	-0.012
-711.689	-104.808	-0.302	0.070
-710.675	-152.331	0.118	0.009
-709.660	366.903	-0.155	0.315
-708.645	131.321	0.176	0.227
-707.631	-71.704	0.302	0.113
-706.616	800.000	-0.015	-0.067
-705.602	22.858	0.364	0.299
-704.587	-200.000	-0.065	0.531
-703.572	-75.879	-0.219	-0.078
-702.558	42.578	0.145	0.132
-701.543	-49.079	-0.405	0.194
-700.529	57.617	-0.046	-0.045
-699.514	-124.490	-0.226	0.035
-698.499	-22.419	0.276	0.168
-697.485	-32.557	0.222	-0.124
-696.470	302.767	-0.137	-0.255
-695.456	69.064	-0.177	0.182
-694.441	800.000	-0.037	-0.160
-693.426	-200.000	0.013	-0.156
-692.412	116.890	-0.041	-0.051
-691.397	-141.967	-0.334	0.033
-690.383	104.638	-0.099	0.117
-689.368	-69.789	-0.337	-0.129
-688.354	427.674	-0.067	-0.146
-687.339	120.204	0.138	0.171
-686.324	3.308	-0.063	0.046
-685.310	187.103	-0.083	0.124
-684.295	111.742	0.173	-0.209
-683.281	-200.000	0.010	-0.062
-682.266	800.000	0.063	-0.177
-681.251	-11.307	0.233	0.154
-680.237	676.812	-0.058	-0.152
-679.222	-200.000	0.001	-0.037
-678.208	413.267	-0.135	-0.288
-677.193	513.260	0.134	0.313
-676.178	-69.839	0.234	0.089
-675.164	113.681	0.164	-0.200
-674.149	567.270	0.091	-0.222
-673.135	-57.887	0.206	0.090
-672.120	800.000	0.038	-0.117
-671.105	800.000	-0.032	0.123
-670.091	-103.019	-0.068	-0.016
-669.076	800.000	-0.026	-0.091
-668.062	-168.565	0.383	-0.015
-667.047	3.580	-0.259	-0.189
-666.032	365.669	-0.140	0.283
-665.018	641.239	-0.068	0.175
-664.003	-85.621	0.241	-0.075
-662.989	-200.000	0.024	-0.217
-661.974	-114.426	0.289	-0.056
-660.959	-138.838	0.482	0.053
-659.945	-49.091	0.169	-0.081
-658.930	-16.180	-0.284	0.181
-657.916	-11.874	-0.129	-0.085
-656.901	-9.205	-0.162	0.109
-655.886	-44.391	-0.238	-0.119
-654.872	618.922	0.067	-0.169
-653.857	210.333	-0.129	-0.203
-652.843	258.958	-0.051	-0.088
-651.828	78.918	-0.112	0.120
-650.814	166.760	-0.121	0.172
-649.799	-128.113	-0.351	0.050
-648.784	-65.904	-0.257	0.103
-647.770	-144.195	-0.504	0.047
-646.755	130.666	0.073	0.093
-645.741	226.288	0.108	-0.175
-644.726	-163.910	-0.311	-0.015
-643.711	-93.806	0.177	-0.049
-642.697	61.039	0.104	-0.104
-641.682	86.725	0.128	0.141
-640.668	-23.914	-0.301	0.180
-639.653	36.299	0.092	-0.081
-638.638	800.000	0.061	0.193
-637.624	92.533	-0.093	0.105
-636.609	-106.364	-0.370	-0.083
-635.595	-200.000	0.024	-0.264
-634.580	37.318	0.071	0.063
-633.565	124.919	-0.105	-0.133
-632.551	8.713	-0.353	0.266
-631.536	-200.000	-0.057	-0.465
-630.522	67.044	-0.188	-0.192
-629.507	-5.512	-0.079	-0.054
-628.492	14.712	-0.250	-0.195
-627.478	467.476	0.046	0.102
-626.463	-19.002	0.112	-0.070
-625.449	222.764	0.029	0.047
-624.434	-40.529	0.180	-0.093
-623.419	180.976	-0.202	-0.297
-622.405	-114.385	0.121	-0.023
-621.390	-134.547	-0.290	-0.035
-620.376	-155.629	0.056	0.004
-619.361	800.000	0.030	0.128
-618.346	-200.000	0.007	0.064
-617.332	-156.986	0.256	-0.016
-616.317	207.670	-0.172	-0.268
-615.303	800.000	-0.136	-0.545
-614.288	604.548	-0.053	0.132
-613.273	-85.976	-0.229	-0.071
-612.259	202.159	0.096	0.148
-611.244	-200.000	-0.022	0.150
-610.230	-66.425	-0.058	0.023
-609.215	-200.000	0.020	0.237
-608.201	-200.000	0.022	-0.191
-607.186	-121.538	-0.076	0.013
-606.171	-200.000	-0.041	-0.193
-605.157	800.000	-0.082	-0.230
-604.142	-33.105	-0.142	-0.079
-603.128	-70.945	0.300	-0.113
-602.113	-61.920	-0.097	0.041
-601.098	-200.000	0.163	-0.000
-600.084	172.097	0.095	0.137
-599.069	209.348	-0.160	0.250
-598.055	-176.610	-0.150	-0.004
-597.040	-200.000	-0.037	-0.272
-596.025	800.000	0.046	-0.193
-595.011	-200.000	-0.374	0.001
-593.996	-200.000	0.005	0.098
-592.982	-49.683	-0.166	-0.079
-591.967	-200.000	0.024	0.482
-590.952	202.663	-0.188	0.290
-589.938	397.327	-0.105	-0.219
-588.923	108.686	-0.051	-0.061
-587.909	-60.383	-0.038	-0.016
-586.894	54.685	-0.113	-0.109
-585.879	800.000	0.085	-0.258
-584.865	242.263	0.062	-0.103
-583.850	800.000	0.112	0.384
-582.836	5.082	0.141	0.104
-581.821	-200.000	0.023	0.288
-580.806	43.813	-0.132	-0.120
-579.792	-117.107	0.512	0.093
-578.777	-104.481	-0.112	-0.026
-577.763	367.098	0.106	-0.214
-576.748	15.123	0.202	0.158
-575.733	129.246	0.068	-0.087
-574.719	92.064	0.176	-0.198
-573.704	160.224	-0.091	-0.126
-572.690	195.682	0.036	-0.054
-571.675	-98.548	-0.382	-0.097
-570.661	357.799	0.044	-0.089
-569.646	616.194	0.027	-0.069
-568.631	129.685	-0.057	0.073
-567.617	800.000	0.072	-0.207
-566.602	87.871	-0.189	0.209
-565.588	103.383	0.201	0.235
-564.573	-162.059	0.196	-0.010
-563.558	-190.503	0.137	-0.001
-562.544	172.528	-0.059	-0.084
-561.529	-47.766	0.277	0.134
-560.515	-24.018	0.039	0.023
-559.500	-56.518	0.275	0.122
-558.485	176.080	0.247	0.358
-557.471	800.000	0.073	-0.279
-556.456	-147.148	0.144	0.012
-555.442	-19.596	-0.371	-0.229
-554.427	42.124	0.186	-0.168
-553.412	-200.000	0.014	-0.268
-552.398	238.957	0.064	-0.107
-551.383	310.108	0.141	0.263
-550.369	800.000	0.024	-0.092
-549.354	61.972	-0.204	0.202
-548.339	225.074	-0.037	-0.059
-547.325	-69.609	0.168	-0.064
-546.310	-54.492	0.306	0.138
-545.296	455.932	-0.119	0.264
-544.281	-200.000	-0.020	0.170
-543.266	40.078	0.186	-0.167
-542.252	135.053	-0.147	0.191
-541.237	-16.896	-0.299	-0.188
-540.223	-89.347	0.065	-0.019
-539.208	-200.000	-0.029	-0.351
-538.193	800.000	0.042	-0.135
-537.179	-102.831	-0.108	-0.026
-536.164	-200.000	0.008	-0.048
-535.150	-168.888	0.024	-0.001
-534.135	1.269	-0.141	-0.101
-533.121	-89.059	-0.170	-0.050
-532.106	135.817	0.106	-0.138
-531.091	-84.937	-0.374	0.117
-530.077	-150.258	-0.417	0.032
-529.062	-118.873	-0.263	-0.046
-528.048	-200.000	0.027	-0.339
-527.033	-192.025	0.184	-0.002
-526.018	32.645	0.180	-0.155
-525.004	286.558	-0.105	0.189
-523.989	428.737	-0.115	-0.248
-522.975	159.827	0.107	-0.149
-521.960	146.287	0.113	-0.151
-520.945	-200.000	0.003	0.089
-519.931	800.000	0.090	-0.301
-518.916	-200.000	-0.002	-0.353
-517.902	-54.485	-0.150	-0.068
-516.887	-170.025	-0.171	-0.006
-515.872	-200.000	0.017	-0.150
-514.858	101.093	0.051	-0.059
-513.843	800.000	0.088	-0.265
-512.829	-137.095	0.329	0.037
-511.814	29.294	-0.076	-0.064
-510.799	-200.000	0.007	-0.031
-509.785	310.420	-0.068	0.127
-508.770	125.119	0.117	0.147
-507.756	800.000	-0.060	-0.166
-506.741	-110.043	0.555	0.115
-505.726	69.692	-0.201	0.206
-504.712	312.335	0.162	-0.303
-503.697	183.531	0.113	-0.166
-502.683	187.272	-0.197	-0.293
-501.668	175.811	0.052	0.075
-500.653	446.058	-0.027	0.059
-499.639	-200.000	0.006	0.028
-498.624	-200.000	-0.019	0.456
-497.610	25.378	0.052	-0.043
-496.595	358.425	-0.153	-0.303
-495.581	-200.000	0.029	-0.243
-494.566	154.028	-0.032	0.044
-493.551	800.000	0.044	-0.161
-492.537	250.590	0.082	-0.138
-491.522	-200.000	0.030	-0.156
-490.508	-143.767	-0.079	-0.007
-489.493	-200.000	0.042	0.229
-488.478	-83.322	-0.176	0.056
-487.464	210.158	0.086	0.134
-486.449	-200.000	0.017	0.192
-485.435	-106.402	-0.237	-0.053
-484.420	-181.363	0.274	0.005
-483.405	-200.000	-0.012	-0.144
-482.391	86.448	-0.167	-0.183
-481.376	-200.000	-0.021	-0.179
-480.362	-200.000	0.018	-0.120
-479.347	56.330	0.083	0.081
-478.332	-22.460	0.102	0.061
-477.318	515.052	0.213	-0.495
-476.303	-200.000	-0.044	-0.210
-475.289	800.000	0.027	0.075
-474.274	0.248	0.222	-0.157
-473.259	-94.080	-0.167	-0.046
-472.245	-43.517	0.178	0.089
-471.230	286.830	0.010	0.019
-470.216	356.242	0.156	0.309
-469.201	-9.934	-0.195	-0.129
-468.186	-187.913	-0.265	0.003
-467.172	71.882	0.044	-0.045
-466.157	346.490	0.080	-0.157
-465.143	-200.000	-0.027	-0.174
-464.128	-186.681	-0.126	-0.002
-463.113	800.000	0.134	0.440
-462.099	-13.619	-0.194	0.125
-461.084	-200.000	0.007	-0.128
-460.070	-52.825	-0.115	0.053
-459.055	526.523	-0.079	0.184
-458.040	800.000	-0.080	0.278
-457.026	769.506	0.072	-0.195
-456.011	-132.122	-0.179	-0.023
-454.997	-200.000	0.002	-0.102
-453.982	-51.956	-0.166	-0.077
-452.968	103.615	0.330	0.385
-451.953	727.517	-0.139	0.368
-450.938	-200.000	-0.032	0.277
-449.924	-65.820	-0.216	0.086
-448.909	-73.913	-0.174	0.063
-447.895	-200.000	-0.018	-0.105
-446.880	184.491	0.053	0.078
-445.865	-128.667	-0.050	0.007
-444.851	-33.079	-0.260	0.143
-443.836	-200.000	-0.055	-0.294
-442.822	-125.825	0.110	-0.017
-441.807	-3.396	0.177	0.122
-440.792	28.105	-0.211	-0.177
-439.778	800.000	0.058	0.166
-438.763	-38.120	-0.478	-0.252
-437.749	-128.968	-0.182	-0.025
-436.734	-200.000	0.018	-0.240
-435.719	82.223	-0.208	-0.224
-434.705	-200.000	-0.023	-0.330
-433.690	240.696	-0.235	0.389
-432.676	698.245	-0.079	-0.205
-431.661	-200.000	-0.052	-0.419
-430.646	-200.000	-0.008	0.155
-429.632	-82.836	0.161	0.052
-428.617	-94.298	0.385	0.104
-427.603	-200.000	0.043	0.199
-426.588	800.000	-0.093	0.370
-425.573	412.409	-0.077	0.162
-424.559	-96.379	0.072	-0.019
-423.544	-58.899	-0.290	-0.124
-422.530	-145.395	0.373	0.033
-421.515	-36.627	0.205	0.110
-420.500	-124.733	-0.497	0.076
-419.486	-23.404	-0.249	0.149
-418.471	9.879	-0.312	0.235
-417.457	409.703	-0.040	0.083
-416.442	-0.117	-0.205	-0.145
-415.428	152.220	0.078	0.105
-414.413	-21.420	-0.197	-0.120
-413.398	-200.000	-0.017	0.311
-412.384	-17.458	-0.126	0.079
-411.369	800.000	0.184	-0.551
-410.355	195.947	-0.020	-0.029
-409.340	110.789	-0.197	-0.235
-408.325	133.241	0.147	-0.188
-407.311	-108.761	0.365	0.077
-406.296	-156.101	0.300	0.019
-405.282	-200.000	0.014	-0.182
-404.267	800.000	0.042	0.150
-403.252	-36.887	-0.249	0.132
-402.238	22.578	0.177	-0.144
-401.223	2.119	0.317	-0.227
-400.209	-200.000	0.015	-0.096
-399.194	-32.981	0.035	0.019
-398.179	-112.573	0.095	0.019
-397.165	730.423	-0.079	0.210
-396.150	-200.000	0.020	0.176
-395.136	-143.049	-0.197	0.019
-394.121	336.841	-0.279	-0.537
-393.106	386.279	-0.213	0.435
-392.092	-154.502	0.328	-0.022
-391.077	107.100	0.063	-0.074
-390.063	170.777	0.094	-0.134
-389.048	511.616	0.101	0.234
-388.033	103.537	-0.212	-0.247
-387.019	-98.325	0.339	-0.086
-386.004	168.902	0.143	0.203
-384.990	-139.666	0.135	-0.014
-383.975	114.413	-0.134	0.162
-382.960	135.758	0.083	0.107
-381.946	270.868	-0.140	0.244
-380.931	-200.000	-0.052	-0.248
-379.917	377.220	-0.122	0.246
-378.902	800.000	-0.029	0.116
-377.888	197.749	-0.089	0.134
-376.873	-69.330	-0.179	0.068
-375.858	172.159	-0.149	-0.212
-374.844	5.284	-0.139	0.101
-373.829	800.000	0.045	0.167
-372.815	29.232	-0.060	0.050
-371.800	-2.552	0.173	-0.120
-370.785	122.060	-0.358	-0.442
-369.771	25.081	0.172	-0.142
-368.756	328.597	-0.071	0.135
-367.742	-200.000	-0.021	-0.210
-366.727	49.806	0.168	0.157
-365.712	62.717	0.073	0.073
-364.698	-80.206	0.111	0.037
-363.683	-85.015	0.296	0.092
-362.669	178.826	0.111	0.161
-361.654	-199.863	0.222	-0.001
-360.639	-7.672	-0.167	-0.112
-359.625	-200.000	0.040	-0.264
-358.610	-200.000	-0.005	0.189
-357.596	24.632	-0.089	0.073
-356.581	-200.000	-0.048	0.376
-355.566	601.123	-0.051	-0.125
-354.552	-200.000	-0.066	0.338
-353.537	-17.414	-0.044	-0.027
-352.523	87.096	0.120	-0.131
-351.508	-68.086	-0.049	-0.019
-350.493	800.000	0.034	-0.128
-349.479	618.206	-0.132	0.327
-348.464	-54.199	0.115	0.052
-347.450	-200.000	-0.065	0.416
-346.435	94.896	0.201	0.227
-345.420	-90.687	0.313	-0.089
-344.406	-200.000	-0.025	-0.170
-343.391	-107.869	0.119	0.026
-342.377	-200.000	0.002	0.141
-341.362	190.543	-0.150	-0.223
-340.348	-94.309	0.105	0.029
-339.333	-17.586	0.286	-0.178
-338.318	21.254	-0.055	-0.045
-337.304	-13.013	0.402	0.258
-336.289	-140.504	-0.111	0.011
-335.275	86.245	-0.249	-0.272
-334.260	686.334	-0.072	-0.186
-333.245	58.936	0.273	0.265
-332.231	555.763	0.037	-0.089
-331.216	-138.305	0.445	0.049
-330.202	-200.000	-0.015	-0.234
-329.187	10.503	-0.188	-0.141
-328.172	-200.000	-0.069	-0.346
-327.158	-138.467	0.081	0.009
-326.143	-149.426	-0.217	-0.017
-325.129	193.940	0.082	0.122
-324.114	-85.290	0.172	-0.053
-323.099	678.528	0.097	0.249
-322.085	800.000	-0.069	0.200
-321.070	-15.803	0.115	0.073
-320.056	-64.024	-0.215	0.087
-319.041	580.226	-0.109	0.264
-318.026	-200.000	-0.071	0.000
-317.012	-94.575	-0.155	-0.042
-315.997	208.334	-0.106	0.164
-314.983	800.000	-0.049	0.167
-313.968	-200.000	0.033	0.145
-312.953	800.000	-0.127	0.371
-311.939	56.182	0.032	-0.030
-310.924	-38.911	-0.464	-0.241
-309.910	-128.209	0.144	-0.020
-308.895	515.952	0.108	0.250
-307.880	81.087	0.088	-0.094
-306.866	-61.457	0.357	0.148
-305.851	13.960	-0.336	0.258
-304.837	-178.448	-0.300	-0.007
-303.822	-144.706	0.098	-0.009
-302.807	231.177	0.040	0.065
-301.793	800.000	0.007	0.030
-300.778	315.481	-0.029	0.053
-299.764	73.780	0.057	0.059
-298.749	-200.000	0.024	-0.177
-297.735	254.131	-0.236	-0.399
-296.720	-68.036	-0.291	0.112
-295.705	800.000	-0.005	0.018
-294.691	-135.894	-0.453	-0.053
-293.676	-200.000	-0.014	-0.233
-292.662	-111.182	0.334	0.067
-291.647	618.502	0.093	-0.231
-290.632	489.575	-0.126	0.284
-289.618	30.158	0.343	0.289
-288.603	800.000	0.052	-0.190
-287.589	-125.264	-0.248	-0.037
-286.574	-200.000	-0.026	0.616
-285.559	800.000	-0.022	-0.085
-284.545	-111.545	-0.490	0.098
-283.530	800.000	0.083	-0.233
-282.516	42.247	0.138	0.123
-281.501	-25.270	0.123	-0.072
-280.486	-200.000	-0.017	0.208
-279.472	-107.807	0.066	-0.014
-278.457	-200.000	-0.001	0.112
-277.443	-57.907	0.226	0.097
-276.428	-200.000	0.017	0.100
-275.413	20.552	-0.104	-0.083
-274.399	-57.586	-0.196	-0.085
-273.384	-200.000	0.025	-0.196
-272.370	-200.000	0.051	-0.276
-271.355	-200.000	0.026	-0.135
-270.340	199.062	0.058	0.088
-269.326	-91.252	0.222	-0.063
-268.311	-28.339	0.127	-0.072
-267.297	-2.005	0.168	-0.116
-266.282	-128.181	0.335	-0.047
-265.267	398.213	0.077	-0.159
-264.253	-56.176	0.153	0.067
-263.238	-200.000	0.019	0.214
-262.224	-187.897	-0.202	-0.003
-261.209	87.078	-0.046	0.050
-260.195	112.297	0.251	0.299
-259.180	610.457	-0.086	0.212
-258.165	-47.811	0.380	-0.182
-257.151	138.289	-0.190	-0.245
-256.136	356.758	-0.082	-0.162
-255.122	131.159	-0.040	0.051
-254.107	629.547	-0.095	0.238
-253.092	-63.340	0.037	0.015
-252.078	-143.252	0.484	0.046
-251.063	-102.308	0.111	0.026
-250.049	62.077	0.130	-0.127
-249.034	-23.855	0.292	0.172
-248.019	800.000	-0.103	0.334
-247.005	48.429	0.119	-0.109
-245.990	-115.561	0.154	0.029
-244.976	5.560	-0.021	-0.015
-243.961	196.162	-0.141	0.211
-242.946	47.933	0.227	-0.209
-241.932	-200.000	0.039	-0.244
-240.917	-9.281	0.338	0.223
-239.903	68.990	-0.329	0.333
-238.888	-58.779	0.308	0.131
-237.873	19.238	0.104	0.082
-236.859	-37.662	0.122	0.064
-235.844	-152.849	-0.120	0.008
-234.830	261.544	-0.179	-0.305
-233.815	-86.596	-0.117	-0.035
-232.800	-3.126	0.088	0.060
-231.786	253.415	-0.195	0.327
-230.771	4.660	-0.170	-0.123
-229.757	18.098	0.115	0.091
-228.742	114.287	0.204	-0.245
-227.727	-200.000	0.026	0.225
-226.713	-200.000	0.002	0.156
-225.698	60.967	0.078	-0.076
-224.684	800.000	0.057	0.242
-223.669	163.621	-0.127	0.176
-222.655	800.000	0.063	-0.245
-221.640	212.113	0.347	0.539
-220.625	404.471	-0.062	-0.129
-219.611	94.797	-0.260	0.292
-218.596	69.309	-0.076	-0.077
-217.582	535.798	0.103	0.240
-216.567	-33.233	-0.055	-0.030
-215.552	566.662	-0.108	-0.259
-214.538	41.490	-0.078	0.069
-213.523	44.978	0.130	0.118
-212.509	44.254	0.226	0.204
-211.494	351.353	0.118	0.230
-210.479	442.271	0.046	0.099
-209.465	677.678	0.109	-0.278
-208.450	38.051	-0.212	0.186
-207.436	-36.553	0.226	-0.120
-206.421	485.709	-0.048	0.108
-205.406	-198.587	0.148	0.001
-204.392	-52.842	-0.239	-0.108
-203.377	1.234	0.311	-0.220
-202.363	800.000	0.104	0.420
-201.348	233.157	-0.167	0.270
-200.333	-91.323	-0.143	0.040
-199.319	800.000	-0.086	-0.312
-198.304	-17.429	-0.238	-0.147
-197.290	-24.651	0.310	-0.181
-196.275	132.192	-0.031	0.039
-195.260	-91.495	0.102	-0.029
-194.246	32.937	0.106	0.090
-193.231	72.706	0.260	-0.267
-192.217	-127.584	0.257	0.037
-191.202	712.336	0.183	0.477
-190.187	-65.159	-0.168	-0.067
-189.173	-103.191	-0.139	-0.032
-188.158	-83.534	0.469	-0.148
-187.144	800.000	-0.056	0.220
-186.129	-200.000	-0.010	-0.044
-185.114	-115.505	0.106	0.020
-184.100	-157.159	-0.233	-0.014
-183.085	-22.424	-0.060	0.036
-182.071	-200.000	-0.040	0.272
-181.056	-148.222	-0.112	-0.009
-180.042	-200.000	-0.009	0.111
-179.027	-200.000	0.017	0.102
-178.012	-200.000	0.035	0.152
-176.998	-49.928	-0.060	0.028
-175.983	-73.893	0.505	-0.180
-174.969	-123.101	-0.309	0.049
-173.954	204.475	-0.234	0.356
-172.939	82.001	0.051	0.054
-171.925	-86.007	0.173	0.052
-170.910	-107.374	-0.304	-0.066
-169.896	-65.370	0.175	-0.069
-168.881	-60.891	-0.181	0.075
-167.866	-70.825	0.462	0.171
-166.852	-23.320	0.095	-0.056
-165.837	-109.149	-0.205	-0.043
-164.823	-118.174	0.127	-0.022
-163.808	177.169	0.131	-0.187
-162.793	-178.130	-0.253	0.006
-161.779	-2.328	-0.097	0.067
-160.764	29.777	0.347	-0.290
-159.750	-38.549	-0.333	-0.173
-158.735	800.000	-0.062	-0.192
-157.720	-200.000	0.017	-0.103
-156.706	-20.899	-0.321	-0.193
-155.691	-200.000	0.029	0.231
-154.677	590.799	0.048	-0.117
-153.662	-200.000	-0.022	-0.179
-152.647	-101.064	0.084	0.020
-151.633	81.849	0.403	-0.428
-150.618	-159.164	0.205	0.011
-149.604	-200.000	0.023	-0.257
-148.589	-200.000	0.026	0.187
-147.574	-94.285	-0.188	0.050
-146.560	-97.500	0.159	0.041
-145.545	497.967	0.090	-0.202
-144.531	-200.000	-0.008	0.240
-143.516	-200.000	-0.017	0.337
-142.502	-200.000	0.018	0.110
-141.487	800.000	0.022	-0.076
-140.472	-200.000	0.019	-0.177
-139.458	369.375	0.067	-0.133
-138.443	165.280	-0.177	-0.246
-137.429	-171.459	0.132	0.004
-136.414	-138.070	0.037	-0.004
-135.399	-200.000	-0.019	0.135
-134.385	-200.000	-0.001	0.157
-133.370	49.508	0.199	0.184
-132.356	93.391	-0.105	0.117
-131.341	-200.000	-0.008	0.291
-130.326	-200.000	0.034	0.179
-129.312	800.000	-0.055	0.221
-128.297	7.361	0.298	0.219
-127.283	-200.000	-0.011	-0.235
-126.268	8.811	0.108	-0.080
-125.253	-64.316	-0.087	-0.035
-124.239	516.789	-0.073	0.168
-123.224	-38.254	0.390	-0.203
-122.210	-11.278	-0.082	0.053
-121.195	-105.844	-0.248	-0.055
-120.180	109.002	-0.168	-0.197
-119.166	163.047	0.074	0.102
-118.151	800.000	0.053	-0.155
-117.137	128.472	-0.115	0.144
-116.122	-200.000	-0.051	-0.223
-115.107	-146.237	-0.167	0.014
-114.093	-102.681	-0.120	0.028
-113.078	-68.854	-0.179	-0.068
-112.064	-85.465	0.087	-0.026
-111.049	-73.167	0.212	0.076
-110.034	-149.541	0.200	0.016
-109.020	16.999	0.128	0.099
-108.005	115.384	0.104	0.124
-106.991	-200.000	0.032	-0.154
-105.976	800.000	-0.108	-0.305
-104.962	-2.678	-0.205	0.140
-103.947	800.000	0.018	0.057
-102.932	-180.804	0.096	-0.002
-101.918	79.954	-0.343	-0.362
-100.903	-5.009	0.159	-0.107
-99.889	125.751	-0.063	0.078
-98.874	538.078	-0.044	-0.103
-97.859	390.082	0.050	0.102
-96.845	60.054	-0.184	-0.178
-95.830	5.532	-0.323	0.234
-94.816	46.255	0.171	0.156
-93.801	372.211	0.021	-0.042
-92.786	9.697	-0.085	0.063
-91.772	66.016	0.068	0.068
-90.757	-135.715	0.232	0.027
-89.743	-60.359	-0.282	0.117
-88.728	800.000	-0.086	0.269
-87.713	93.207	0.138	0.153
-86.699	-100.832	0.165	0.040
-85.684	-200.000	0.007	-0.143
-84.670	193.152	0.090	-0.133
-83.655	324.661	0.110	-0.205
-82.640	173.010	-0.097	0.137
-81.626	-200.000	-0.032	0.326
-80.611	161.037	0.148	0.203
-79.597	-78.234	0.134	0.045
-78.582	800.000	0.027	-0.093
-77.567	-200.000	0.013	0.097
-76.553	-165.267	-0.296	-0.013
-75.538	21.286	0.350	-0.278
-74.524	-176.130	0.207	-0.005
-73.509	-48.927	-0.116	0.054
-72.494	-84.166	-0.242	0.075
-71.480	800.000	0.016	0.063
-70.465	-119.627	0.182	-0.031
-69.451	84.018	-0.194	0.208
-68.436	11.316	0.155	-0.116
-67.422	800.000	-0.040	0.117
-66.407	-70.452	0.173	0.064
-65.392	-131.059	-0.329	-0.043
-64.378	-20.930	-0.050	0.030
-63.363	92.793	0.238	0.263
-62.349	-34.257	0.115	0.062
-61.334	107.012	-1.168	-1.357
-60.319	763.392	0.314	0.833
-59.305	800.000	-0.311	-1.057
-58.290	361.743	0.747	1.466
-57.276	800.000	0.443	1.653
-56.261	-200.000	114.023	642.263
-55.246	475.883	1499.475	3313.094
-54.232	149.818	2659.287	3525.707
-53.217	102.711	2139.395	2448.492
-52.203	38.423	1589.376	1385.198
-51.188	30.609	1334.890	1116.662
-50.173	27.856	1296.864	1068.721
-49.159	54.268	1353.015	1273.528
-48.144	53.090	1367.136	1279.745
-47.130	30.779	1323.442	1107.921
-46.115	27.395	1305.757	1073.162
-45.100	27.267	1300.364	1067.932
-44.086	27.177	1297.434	1064.956
-43.071	27.119	1295.760	1063.202
-42.057	27.054	1294.191	1061.492
-41.042	27.140	1292.164	1060.290
-40.027	27.158	1290.838	1059.264
-39.013	27.205	1288.790	1057.814
-37.998	27.153	1286.717	1055.770
-36.984	27.361	1284.838	1055.395
-35.969	27.270	1283.241	1053.513
-34.954	27.408	1281.636	1052.953
-33.940	27.305	1280.596	1051.457
-32.925	27.310	1279.080	1050.204
-31.911	27.313	1277.634	1048.990
-30.896	27.452	1275.556	1048.044
-29.881	27.439	1274.417	1046.990
-28.867	27.355	1273.411	1045.638
-27.852	27.428	1271.902	1044.780
-26.838	27.561	1270.255	1044.147
-25.823	27.494	1268.896	1042.605
-24.809	27.399	1268.130	1041.391
-23.794	27.391	1266.629	1040.073
-22.779	27.394	1265.060	1038.756
-21.765	27.316	1264.925	1038.164
-20.750	27.368	1262.828	1036.694
-19.736	27.241	1261.865	1035.142
-18.721	27.311	1260.289	1034.202
-17.706	27.238	1259.089	1032.763
-16.692	27.164	1258.436	1031.767
-15.677	27.257	1257.076	1031.137
-14.663	27.291	1255.923	1030.344
-13.648	27.291	1254.632	1029.243
-12.633	27.325	1253.304	1028.310
-11.619	27.290	1253.074	1027.876
-10.604	27.238	1252.143	1026.782
-9.590	27.357	1250.812	1026.319
-8.575	27.146	1250.374	1024.730
-7.560	27.254	1249.178	1024.319
-6.546	27.297	1248.089	1023.627
-5.531	27.222	1247.468	1022.656
-4.517	27.184	1246.825	1021.875
-3.502	27.271	1245.917	1021.578
-2.487	27.313	1244.902	1020.939
-1.473	27.240	1241.129	1017.400
-0.458	25.731	1225.950	996.566
0.556	20.814	1209.764	960.530
1.571	17.258	1216.358	945.926
2.586	16.581	1230.804	953.261
3.600	16.694	1219.624	945.148
4.615	14.822	1154.075	884.375
5.629	11.490	1087.730	816.815
6.644	9.798	1071.411	796.148
7.659	9.826	1068.290	793.893
8.673	9.722	1067.807	792.954
9.688	9.724	1066.173	791.683
10.702	9.820	1064.273	790.670
11.717	11.976	1065.773	802.285
12.731	15.353	1070.797	822.580
13.746	17.443	1073.030	834.481
14.761	17.450	1072.619	834.125
15.775	16.551	1070.477	827.985
16.790	15.415	1068.257	820.643
17.804	14.746	1066.553	815.995
18.819	14.274	1065.550	812.850
19.834	14.116	1064.496	811.206
20.848	13.809	1063.661	809.001
21.863	13.504	1063.281	807.151
22.877	13.465	1062.108	806.001
23.892	13.294	1061.782	804.850
24.907	13.517	1060.398	804.813
25.921	13.413	1059.806	803.785
26.936	13.521	1058.272	803.077
27.950	13.510	1057.259	802.181
28.965	13.550	1055.661	801.093
29.980	13.681	1053.452	799.978
30.994	13.685	1052.819	799.446
32.009	13.721	1051.718	798.715
33.023	13.826	1050.481	798.206
34.038	13.628	1049.837	796.699
35.053	13.683	1048.695	796.021
36.067	13.621	1047.970	795.105
37.082	13.549	1047.288	794.171
38.096	13.628	1047.050	794.302
39.111	13.716	1045.453	793.437
40.126	13.574	1044.384	791.880
41.140	13.442	1043.231	790.304
42.155	13.425	1041.442	788.796
43.169	13.336	1040.924	787.911
44.184	13.390	1039.695	787.170
45.199	13.444	1038.732	786.628
46.213	13.463	1037.506	785.721
47.228	13.606	1036.525	785.583
48.242	13.631	1035.607	784.938
49.257	13.626	1034.711	784.167
50.271	13.582	1033.616	783.061
51.286	13.522	1032.970	782.216
52.301	13.618	1031.870	781.768
53.315	13.447	1031.045	780.267
54.330	13.543	1029.704	779.637
55.344	13.485	1028.661	778.504
56.359	13.535	1028.362	778.443
57.374	13.444	1027.141	777.023
58.388	13.466	1025.938	776.147
59.403	13.432	1025.560	775.634
60.417	13.342	1024.683	774.480
61.432	13.286	1024.032	773.657
62.447	13.389	1022.615	772.998
63.461	13.322	1022.180	772.292
64.476	13.342	1020.736	771.224
65.490	13.298	1020.336	770.651
66.505	13.322	1019.842	770.320
67.520	13.381	1019.350	770.155
68.534	13.446	1018.357	769.637
69.549	13.458	1017.567	769.029
70.563	13.325	1016.531	767.558
71.578	13.370	1015.706	767.076
72.593	13.206	1015.204	765.869
73.607	13.301	1014.294	765.558
74.622	13.275	1013.804	765.000
75.636	13.289	1013.276	764.595
76.651	13.340	1012.608	764.262
77.666	13.279	1011.979	763.437
78.680	13.245	1010.979	762.458
79.695	13.309	1010.691	762.469
80.709	13.357	1009.928	762.047
81.724	13.284	1009.846	761.579
82.739	13.487	1008.781	761.647
83.753	13.551	1007.900	761.205
84.768	13.739	1006.436	760.897
85.782	13.671	1006.067	760.236
86.797	13.752	1005.023	759.753
87.812	13.547	1004.406	758.283
88.826	13.558	1003.321	757.444
89.841	13.724	1002.146	757.250
90.855	13.670	1001.367	756.346
91.870	13.643	1000.857	755.772
92.884	13.658	999.876	755.030
93.899	13.612	999.164	754.217
94.914	13.749	997.745	753.702
95.928	13.759	997.195	753.267
96.943	13.662	996.335	752.109
97.957	13.756	995.839	752.093
98.972	13.647	995.199	751.049
99.987	13.678	994.246	750.408
101.001	13.746	992.660	749.451
102.016	13.638	992.059	748.441
103.030	13.702	991.533	748.270
104.045	13.676	990.633	747.404
105.060	13.658	989.447	746.362
106.074	13.499	989.013	745.255
107.089	13.345	988.167	743.856
108.103	13.456	986.651	743.150
109.118	13.439	985.829	742.390
110.133	13.462	984.628	741.524
111.147	13.539	984.120	741.417
112.162	13.511	983.248	740.570
113.176	13.660	982.627	740.702
114.191	13.637	981.624	739.777
115.206	13.697	980.766	739.336
116.220	13.566	980.201	738.259
117.235	13.422	979.132	736.750
118.249	13.557	978.055	736.473
119.264	13.473	977.346	735.501
120.279	13.590	976.559	735.364
121.293	13.651	975.346	734.652
122.308	13.533	974.812	733.663
123.322	13.484	973.526	732.416
124.337	13.383	973.243	731.692
125.352	13.505	971.853	731.120
126.366	13.430	971.098	730.154
127.381	13.577	969.702	729.689
128.395	13.526	968.976	728.854
129.410	13.365	968.566	727.773
130.424	13.457	967.377	727.220
131.439	13.578	966.584	727.090
132.454	13.601	966.237	726.863
133.468	13.544	965.216	725.781
134.483	13.683	964.208	725.568
135.497	13.567	963.609	724.546
136.512	13.543	962.564	723.594
137.527	13.552	962.074	723.199
138.541	13.602	961.149	722.659
139.556	13.677	960.025	722.074
140.570	13.673	959.523	721.617
141.585	13.671	958.806	721.004
142.600	13.872	957.737	721.009
143.614	13.738	957.103	719.888
144.629	13.775	956.518	719.546
145.643	13.742	955.455	718.539
146.658	13.653	954.577	717.429
147.673	13.765	953.326	716.908
148.687	13.619	952.913	715.903
149.702	13.609	952.088	715.179
150.716	13.685	950.948	714.587
151.731	13.717	950.278	714.159
152.746	13.686	950.065	713.800
153.760	13.620	949.154	712.768
154.775	13.818	948.501	713.067
155.789	13.836	947.752	712.519
156.804	13.800	947.588	712.176
157.819	13.792	946.383	711.173
158.833	13.845	945.751	710.862
159.848	14.016	944.999	710.966
160.862	13.976	944.084	710.046
161.877	13.912	943.009	708.901
162.892	13.823	942.165	707.823
163.906	13.672	941.187	706.385
164.921	13.790	940.702	706.458
165.935	13.904	939.436	705.932
166.950	13.858	938.855	705.236
167.964	14.005	937.620	704.870
168.979	13.767	937.101	703.405
169.994	13.876	936.243	703.162
171.008	13.884	935.337	702.455
172.023	13.964	934.598	702.177
173.037	13.982	934.145	701.847
174.052	14.042	933.564	701.603
175.067	13.905	932.959	700.507
176.081	13.874	932.055	699.638
177.096	13.885	931.618	699.293
178.110	13.836	931.233	698.736
179.125	13.834	930.713	698.277
180.140	13.968	929.882	698.156
181.154	13.985	929.798	698.100
182.169	14.170	928.537	697.869
183.183	14.112	928.508	697.540
184.198	14.063	927.739	696.699
185.213	14.052	927.005	696.038
186.227	14.104	926.169	695.565
187.242	14.194	925.724	695.546
188.256	14.227	925.064	695.126
189.271	14.287	924.012	694.525
190.286	14.023	923.532	693.000
191.300	13.968	922.469	691.915
192.315	13.979	921.919	691.488
193.329	13.927	921.741	691.076
194.344	13.951	920.959	690.528
195.359	14.051	920.408	690.467
196.373	14.091	920.219	690.433
197.388	14.246	919.472	690.452
198.402	14.316	918.714	690.114
199.417	14.281	918.655	689.863
200.432	14.462	917.423	689.627
201.446	14.473	917.373	689.574
202.461	14.369	916.845	688.685
203.475	14.431	916.132	688.346
204.490	14.408	915.053	687.378
205.504	14.285	914.531	686.417
206.519	14.369	913.402	685.855
207.534	14.326	913.178	685.449
208.548	14.353	912.604	685.069
209.563	14.331	911.716	684.252
210.577	14.434	910.780	683.912
211.592	14.552	910.142	683.857
212.607	14.540	910.113	683.724
213.621	14.547	909.012	682.865
214.636	14.298	908.527	681.422
215.650	14.595	907.460	681.773
216.665	14.658	906.672	681.378
217.680	14.626	906.159	680.803
218.694	14.725	905.836	680.903
219.709	14.514	904.950	679.316
220.723	14.699	904.105	679.377
221.738	14.622	903.809	678.779
222.753	14.536	903.139	677.869
223.767	14.707	902.472	678.001
224.782	14.822	901.714	677.839
225.796	14.827	901.236	677.440
226.811	14.743	900.887	676.776
227.826	14.770	899.877	676.066
228.840	14.650	899.434	675.189
229.855	14.712	898.600	674.755
230.869	14.877	897.114	674.244
231.884	14.706	896.772	673.238
232.899	14.699	895.901	672.495
233.913	14.548	895.617	671.617
234.928	14.671	894.551	671.252
235.942	14.728	894.213	671.169
236.957	14.728	893.624	670.667
237.972	14.708	893.262	670.255
238.986	14.691	892.719	669.720
240.001	14.666	891.847	668.905
241.015	14.664	891.206	668.358
242.030	14.628	891.000	668.001
243.045	14.785	890.307	668.049
244.059	14.794	889.647	667.530
245.074	14.882	888.522	666.978
246.088	14.867	888.031	666.492
247.103	14.930	887.264	666.109
248.117	14.906	887.189	665.896
249.132	14.921	886.690	665.523
250.147	15.200	885.880	665.965
251.161	15.111	885.734	665.445
252.176	15.356	884.246	665.240
253.190	15.161	884.122	664.314
254.205	15.285	883.090	663.969
255.220	15.229	882.854	663.512
256.234	15.348	882.205	663.436
257.249	15.273	881.217	662.338
258.263	15.311	880.598	661.966
259.278	15.248	880.031	661.231
260.293	15.340	879.528	661.157
261.307	15.413	878.989	660.981
262.322	15.297	878.710	660.256
263.336	15.401	877.294	659.542
264.351	15.471	876.561	659.208
265.366	15.482	876.474	659.128
266.380	15.488	875.774	658.567
267.395	15.416	875.271	657.846
268.409	15.384	874.499	657.084
269.424	15.327	873.607	656.133
270.439	15.325	872.980	655.595
271.453	15.400	872.244	655.279
272.468	15.448	871.760	655.042
273.482	15.542	870.918	654.721
274.497	15.312	870.448	653.414
275.512	15.476	869.696	653.431
276.526	15.520	869.456	653.360
277.541	15.538	868.799	652.881
278.555	15.338	868.815	652.056
279.570	15.638	867.688	652.319
280.585	15.646	867.038	651.801
281.599	15.691	865.916	651.076
282.614	15.542	865.563	650.178
283.628	15.546	865.100	649.785
284.643	15.599	864.601	649.559
285.657	15.659	864.218	649.444
286.672	15.679	863.119	648.637
287.687	15.697	862.767	648.385
288.701	15.694	862.234	647.918
289.716	15.606	861.846	647.229
290.730	15.793	860.833	647.129
291.745	15.787	860.164	646.547
292.760	15.856	859.566	646.305
293.774	15.902	859.102	646.075
294.789	15.800	858.432	645.123
295.803	15.889	857.598	644.782
296.818	15.866	856.955	644.152
297.833	15.853	856.233	643.505
298.847	15.904	855.733	643.267
299.862	15.865	855.078	642.565
300.876	15.870	854.585	642.158
301.891	15.913	854.027	641.846
302.906	15.924	853.992	641.805
303.920	15.994	852.887	641.186
304.935	16.063	852.759	641.295
305.949	16.025	852.185	640.662
306.964	15.993	851.343	639.849
307.979	16.083	850.827	639.746
308.993	16.120	850.449	639.545
310.008	16.172	849.854	639.238
311.022	16.034	849.275	638.224
312.037	16.107	848.675	637.992
313.052	16.163	847.671	637.393
314.066	16.015	847.023	636.291
315.081	15.948	846.871	635.870
316.095	16.048	846.175	635.667
317.110	16.070	845.526	635.204
318.125	15.982	845.284	634.636
319.139	16.036	844.733	634.369
320.154	16.029	844.170	633.866
321.168	16.101	843.873	633.854
322.183	16.236	842.819	633.516
323.197	16.152	842.629	633.001
324.212	16.091	842.129	632.342
325.227	16.188	841.402	632.103
326.241	16.249	841.027	631.993
327.256	16.192	840.558	631.372
328.270	16.031	839.960	630.264
329.285	16.154	839.144	630.057
330.300	16.202	838.483	629.684
331.314	16.190	838.319	629.461
332.329	16.251	837.751	629.205
333.343	16.327	837.458	629.211
334.358	16.418	837.013	629.159
335.373	16.353	836.592	628.545
336.387	16.426	836.100	628.395
337.402	16.527	835.982	628.625
338.416	16.464	835.755	628.162
339.431	16.468	835.126	627.650
340.446	16.539	834.583	627.450
341.460	16.590	834.408	627.452
342.475	16.486	834.288	626.919
343.489	16.625	833.359	626.683
344.504	16.654	833.197	626.610
345.519	16.630	832.649	626.056
346.533	16.563	832.249	625.453
347.548	16.842	831.080	625.547
348.562	16.592	831.001	624.511
349.577	16.577	830.133	623.748
350.592	16.505	829.735	623.126
351.606	16.399	829.448	622.464
352.621	16.584	828.118	622.094
353.635	16.624	827.353	621.612
354.650	16.713	826.932	621.564
355.665	16.798	826.338	621.375
356.679	16.770	825.724	620.757
357.694	16.664	825.600	620.219
358.708	16.803	824.169	619.600
359.723	16.637	824.127	618.907
360.738	16.600	823.650	618.358
361.752	16.861	822.820	618.631
362.767	16.842	822.476	618.252
363.781	16.854	822.209	618.038
364.796	16.842	821.994	617.779
365.810	17.009	821.003	617.585
366.825	17.148	820.790	617.878
367.840	17.097	820.104	617.121
368.854	16.896	820.155	616.375
369.869	16.939	819.588	616.051
370.883	17.023	818.811	615.714
371.898	17.009	818.658	615.497
372.913	17.244	818.176	615.929
373.927	17.123	817.520	614.943
374.942	17.065	817.631	614.762
375.956	17.134	816.613	614.194
376.971	17.097	816.528	613.940
377.986	17.155	816.314	613.935
379.000	17.217	815.587	613.556
380.015	17.363	814.824	613.456
381.029	17.424	814.005	613.007
382.044	17.226	813.839	612.113
383.059	17.256	813.287	611.753
384.073	17.374	812.640	611.635
385.088	17.342	811.730	610.782
386.102	17.225	811.564	610.182
387.117	17.160	810.865	609.370
388.132	17.261	810.414	609.338
389.146	17.360	809.475	608.934
390.161	17.327	809.479	608.765
391.175	17.358	808.850	608.348
392.190	17.237	808.471	607.575
393.205	17.175	807.938	606.902
394.219	17.546	807.329	607.713
395.234	17.190	807.449	606.479
396.248	17.311	806.842	606.402
397.263	17.240	806.273	605.665
398.278	17.135	805.873	604.938
399.292	17.217	805.631	604.995
400.307	17.305	804.840	604.661
401.321	17.271	804.645	604.340
402.336	17.332	804.172	604.148
403.350	17.330	803.951	603.923
404.365	17.368	803.374	603.568
405.380	17.449	802.633	603.246
406.394	17.536	801.729	602.820
407.409	17.650	801.652	603.115
408.423	17.580	801.415	602.634
409.438	17.575	800.913	602.188
410.453	17.559	800.607	601.845
411.467	17.648	800.343	601.911
412.482	17.870	799.346	601.889
413.496	17.746	799.463	601.487
414.511	17.780	798.775	601.033
415.526	17.817	798.607	600.987
416.540	17.751	798.113	600.328
417.555	17.701	798.264	600.214
418.569	17.603	797.275	599.074
419.584	17.795	796.681	599.248
420.599	17.820	796.400	599.071
421.613	112.088	1294.741	1478.180
422.628	96.482	1367.322	1478.286
