DTS Sentinel unit serial number:	SN413079Multiplexer serial number:	ORYXHardware model number:	OX4-SRSoftware version number:	ORYX F/W v4.00 Oryx Data Collector v3.7.2.0data status	okinstallation	princeton_trtdifferential loss correction	single-endedforward channel	channel 1reverse channel	N/Adate	2019/09/15time	02:46:35forward acquisition time	60.00reverse acquisition time	0.00gamma	496.2192k internal	0.2323k external	0.2323temperature offset calibration	0.9989default loss term (dB/km)	0.3790temperature slope calibration	1.0000multiplexer offset coefficient	1.0000multiplexer slope coefficient	1.0000fibre end	0.00T internal ref (°C)	31.37T ext. ref 1 (°C)	4.57T ext. ref 2 (°C)	25.76length (m)	temperature (°C)	Stokes	anti-Stokes-747.200	-200.000	-0.006	-0.122
-746.185	-6.390	-0.189	0.130
-745.171	236.771	0.175	0.293
-744.156	-101.950	-0.127	-0.031
-743.142	218.891	-0.104	0.168
-742.127	67.943	-0.113	0.116
-741.112	-37.176	0.264	-0.143
-740.098	-179.704	-0.106	0.002
-739.083	-72.571	0.124	-0.046
-738.069	-200.000	0.025	0.432
-737.054	800.000	-0.063	-0.273
-736.039	-93.388	-0.159	0.044
-735.025	7.934	0.084	0.063
-734.010	-200.000	-0.029	-0.216
-732.996	-77.803	-0.071	0.025
-731.981	-200.000	-0.011	0.223
-730.966	-123.308	0.204	-0.033
-729.952	72.704	-0.219	-0.231
-728.937	204.350	-0.238	-0.372
-727.923	-200.000	0.007	-0.131
-726.908	197.903	0.057	-0.088
-725.894	-139.676	-0.325	-0.035
-724.879	20.691	-0.209	-0.171
-723.864	800.000	-0.022	-0.080
-722.850	135.150	0.054	0.071
-721.835	210.099	-0.120	0.189
-720.821	94.923	-0.102	0.117
-719.806	-79.002	0.161	-0.055
-718.791	25.774	-0.204	-0.172
-717.777	-174.234	0.079	0.002
-716.762	-66.961	-0.058	-0.023
-715.748	-42.418	0.222	-0.114
-714.733	272.776	-0.088	0.157
-713.718	-122.375	0.163	0.027
-712.704	-81.756	-0.318	-0.105
-711.689	800.000	-0.069	-0.294
-710.675	31.505	-0.141	0.122
-709.660	-141.656	-0.375	0.038
-708.645	-200.000	0.005	0.180
-707.631	800.000	0.088	0.347
-706.616	147.664	0.091	0.124
-705.602	-200.000	-0.037	-0.171
-704.587	30.925	-0.085	0.074
-703.572	800.000	-0.040	-0.159
-702.558	-21.775	0.231	0.142
-701.543	-176.223	-0.245	0.006
-700.529	-32.199	0.110	0.062
-699.514	12.243	-0.187	0.145
-698.499	-27.472	-0.275	0.161
-697.485	-200.000	-0.024	-0.264
-696.470	-46.409	0.179	0.088
-695.456	-85.141	0.309	0.098
-694.441	-41.117	-0.113	-0.059
-693.426	-153.976	-0.442	-0.030
-692.412	-8.580	0.183	-0.124
-691.397	-200.000	0.031	-0.279
-690.383	332.584	0.038	0.074
-689.368	415.864	0.028	0.060
-688.354	114.996	0.118	-0.145
-687.339	26.305	0.103	-0.087
-686.324	447.632	-0.106	0.235
-685.310	-200.000	-0.012	0.155
-684.295	-68.048	-0.410	0.161
-683.281	-22.220	-0.024	0.015
-682.266	-14.787	0.128	-0.083
-681.251	94.030	-0.321	-0.367
-680.237	-200.000	0.005	-0.318
-679.222	-8.381	0.168	-0.114
-678.208	-200.000	0.006	0.040
-677.193	-121.474	-0.080	-0.013
-676.178	-152.036	0.193	0.014
-675.164	-120.341	-0.099	-0.017
-674.149	-194.888	0.310	0.002
-673.135	-134.884	-0.275	0.033
-672.120	-62.714	0.146	-0.061
-671.105	95.284	-0.196	-0.225
-670.091	-102.408	0.201	0.049
-669.076	63.404	-0.205	-0.207
-668.062	-87.287	-0.253	0.077
-667.047	-200.000	0.041	0.278
-666.032	55.376	-0.262	-0.255
-665.018	523.682	0.133	-0.315
-664.003	69.795	0.158	-0.164
-662.989	455.206	-0.040	0.089
-661.974	-200.000	0.058	0.429
-660.959	800.000	0.033	0.125
-659.945	-69.779	-0.311	-0.119
-658.930	-125.135	-0.156	0.024
-657.916	380.028	0.023	-0.048
-656.901	170.054	-0.046	0.067
-655.886	27.367	-0.097	-0.082
-654.872	-102.880	0.287	-0.069
-653.857	-27.179	-0.218	-0.128
-652.843	-104.124	-0.238	-0.056
-651.828	-62.607	0.201	-0.084
-650.814	417.681	0.060	-0.130
-649.799	12.537	-0.130	-0.101
-648.784	-127.208	-0.173	0.025
-647.770	-102.898	0.339	-0.081
-646.755	-62.786	-0.235	0.098
-645.741	-137.519	-0.318	0.036
-644.726	-18.740	0.213	0.134
-643.711	129.859	0.129	-0.165
-642.697	800.000	-0.025	0.087
-641.682	-140.610	-0.416	0.043
-640.668	-37.355	-0.084	-0.045
-639.653	183.756	0.035	0.052
-638.638	-52.147	0.117	-0.055
-637.624	-152.605	-0.178	0.013
-636.609	114.099	-0.288	-0.353
-635.595	61.728	0.227	0.227
-634.580	-182.736	0.264	-0.005
-633.565	40.616	0.049	0.045
-632.551	-200.000	-0.019	-0.212
-631.536	271.446	-0.158	-0.281
-630.522	-140.577	-0.110	-0.011
-629.507	-200.000	0.002	-0.076
-628.492	128.049	0.110	0.140
-627.478	257.536	0.149	0.258
-626.463	621.954	0.004	0.011
-625.449	58.413	-0.168	-0.165
-624.434	756.740	-0.049	-0.132
-623.419	338.265	0.152	-0.298
-622.405	-122.707	-0.176	-0.029
-621.390	130.858	-0.097	0.125
-620.376	-116.129	0.333	0.062
-619.361	-200.000	-0.022	0.163
-618.346	104.075	-0.094	-0.111
-617.332	-58.350	0.189	-0.083
-616.317	-16.080	-0.132	-0.084
-615.303	-154.508	-0.094	-0.006
-614.288	6.669	-0.008	-0.006
-613.273	44.314	-0.123	0.113
-612.259	-200.000	-0.007	-0.105
-611.244	-43.158	-0.376	-0.191
-610.230	-123.634	0.067	-0.011
-609.215	-28.124	0.092	0.053
-608.201	-10.733	0.201	0.133
-607.186	170.087	0.047	-0.067
-606.171	114.442	-0.168	-0.205
-605.157	134.531	0.094	0.123
-604.142	770.918	0.042	0.114
-603.128	437.841	0.107	-0.234
-602.113	-123.820	-0.184	0.029
-601.098	46.368	0.065	0.061
-600.084	-49.740	0.056	0.027
-599.069	-61.741	-0.323	0.136
-598.055	-113.325	-0.298	0.059
-597.040	97.056	-0.059	-0.068
-596.025	270.900	-0.121	-0.214
-595.011	102.042	-0.135	0.158
-593.996	639.302	-0.119	0.303
-592.982	-85.359	-0.205	0.064
-591.967	-200.000	0.017	0.188
-590.952	134.666	-0.119	-0.155
-589.938	3.801	0.126	-0.092
-588.923	69.908	-0.289	0.299
-587.909	360.870	-0.073	0.148
-586.894	-22.197	-0.134	0.081
-585.879	800.000	-0.055	0.182
-584.865	-140.338	-0.160	-0.017
-583.850	800.000	-0.065	-0.271
-582.836	800.000	-0.057	0.182
-581.821	20.079	-0.070	-0.056
-580.806	115.645	-0.302	-0.370
-579.792	31.346	-0.239	0.206
-578.777	-21.528	-0.220	0.135
-577.763	144.381	0.154	-0.206
-576.748	41.194	0.074	0.067
-575.733	82.933	0.114	-0.125
-574.719	67.497	-0.127	0.130
-573.704	-2.997	0.141	-0.098
-572.690	-58.726	-0.371	-0.161
-571.675	-80.648	-0.354	0.118
-570.661	-136.993	0.122	0.014
-569.646	-200.000	0.030	-0.140
-568.631	3.166	-0.208	-0.152
-567.617	261.750	0.151	-0.262
-566.602	118.103	-0.317	0.392
-565.588	-53.040	0.072	-0.033
-564.573	532.642	0.108	0.256
-563.558	173.489	-0.119	0.172
-562.544	-193.065	0.120	0.001
-561.529	-78.124	-0.351	-0.121
-560.515	248.757	-0.122	-0.208
-559.500	-29.883	-0.183	-0.105
-558.485	-43.252	0.292	0.148
-557.471	-200.000	0.057	0.345
-556.456	-99.597	-0.117	-0.030
-555.442	-127.525	-0.323	-0.047
-554.427	-44.599	0.174	-0.087
-553.412	800.000	-0.067	-0.283
-552.398	800.000	-0.035	0.118
-551.383	-200.000	0.027	0.168
-550.369	632.965	-0.022	-0.056
-549.354	-200.000	0.025	-0.160
-548.339	40.170	0.132	0.119
-547.325	148.067	0.157	0.212
-546.310	-58.105	0.207	0.090
-545.296	800.000	-0.062	0.234
-544.281	161.479	0.070	0.098
-543.266	322.313	-0.019	0.036
-542.252	485.135	-0.115	0.262
-541.237	-200.000	-0.008	0.043
-540.223	36.670	0.220	-0.195
-539.208	716.149	-0.065	-0.174
-538.193	20.766	-0.227	0.184
-537.179	25.812	0.142	-0.118
-536.164	35.178	0.269	0.236
-535.150	-200.000	0.022	0.135
-534.135	800.000	-0.020	-0.086
-533.121	363.049	0.165	0.333
-532.106	-22.814	0.029	-0.018
-531.091	-152.321	-0.286	-0.021
-530.077	-118.946	0.388	-0.068
-529.062	-200.000	-0.010	0.142
-528.048	-64.881	0.102	0.041
-527.033	-14.969	0.165	-0.106
-526.018	150.279	-0.171	0.232
-525.004	307.333	-0.153	-0.285
-523.989	517.278	-0.054	0.126
-522.975	-128.678	0.213	-0.030
-521.960	-12.020	-0.050	-0.032
-520.945	-43.347	0.167	0.085
-519.931	-200.000	0.037	-0.231
-518.916	-33.363	0.194	-0.107
-517.902	-200.000	-0.048	-0.231
-516.887	-154.111	-0.165	-0.011
-515.872	115.438	-0.114	0.139
-514.858	-151.323	0.097	0.007
-513.843	248.816	-0.039	0.066
-512.829	-129.358	0.306	-0.043
-511.814	65.319	0.237	-0.240
-510.799	-32.185	-0.212	-0.118
-509.785	-69.529	0.236	-0.091
-508.770	-51.156	0.263	0.123
-507.756	251.811	0.046	-0.078
-506.741	-142.540	-0.291	0.029
-505.726	20.767	-0.087	0.071
-504.712	800.000	0.030	0.103
-503.697	82.685	-0.103	-0.112
-502.683	568.449	0.183	-0.444
-501.668	255.160	-0.132	0.227
-500.653	-78.863	-0.120	0.041
-499.639	578.021	0.147	0.359
-498.624	-200.000	0.043	0.212
-497.610	-200.000	0.006	-0.206
-496.595	-172.409	0.132	-0.004
-495.581	-200.000	-0.005	0.287
-494.566	-66.448	-0.038	-0.015
-493.551	-81.202	0.149	-0.049
-492.537	-35.441	-0.162	0.088
-491.522	-12.666	-0.364	-0.237
-490.508	359.191	-0.093	0.186
-489.493	800.000	0.057	0.223
-488.478	-200.000	0.029	0.142
-487.464	-200.000	0.013	-0.214
-486.449	342.888	-0.076	0.148
-485.435	176.751	-0.066	0.096
-484.420	800.000	-0.083	0.275
-483.405	100.815	-0.112	0.130
-482.391	-13.529	-0.167	-0.108
-481.376	-200.000	-0.041	0.301
-480.362	109.506	0.109	0.130
-479.347	-129.024	-0.021	0.003
-478.332	-100.017	0.139	0.035
-477.318	-132.670	0.010	-0.001
-476.303	76.746	-0.290	0.308
-475.289	6.963	0.232	-0.173
-474.274	495.989	0.090	0.206
-473.259	-84.648	0.261	0.082
-472.245	800.000	-0.127	-0.369
-471.230	800.000	0.085	0.257
-470.216	-74.005	-0.050	0.018
-469.201	265.199	-0.246	0.428
-468.186	800.000	-0.096	0.287
-467.172	-97.876	-0.192	0.049
-466.157	-51.418	-0.150	-0.070
-465.143	-200.000	0.059	-0.285
-464.128	107.849	-0.205	0.244
-463.113	-116.786	-0.082	-0.015
-462.099	800.000	-0.083	-0.236
-461.084	-200.000	-0.000	0.149
-460.070	219.019	-0.133	0.212
-459.055	-200.000	0.044	-0.216
-458.040	143.046	0.107	0.142
-457.026	-48.112	-0.072	0.035
-456.011	-85.064	-0.382	0.119
-454.997	-200.000	-0.004	0.096
-453.982	66.231	0.197	0.200
-452.968	102.334	-0.159	-0.185
-451.953	-67.153	-0.056	-0.022
-450.938	416.165	0.127	-0.271
-449.924	-200.000	-0.023	-0.224
-448.909	-200.000	0.207	0.000
-447.895	155.944	0.199	0.274
-446.880	13.744	-0.136	0.106
-445.865	-162.846	0.141	-0.007
-444.851	-29.636	0.161	-0.092
-443.836	10.323	-0.223	0.170
-442.822	-45.998	0.159	-0.078
-441.807	-42.915	-0.262	0.133
-440.792	-200.000	0.287	0.000
-439.778	800.000	0.021	-0.078
-438.763	400.530	0.071	-0.150
-437.749	-119.616	0.177	0.031
-436.734	152.338	-0.053	0.072
-435.719	-105.261	-0.292	-0.067
-434.705	-115.766	-0.172	-0.032
-433.690	171.002	0.185	0.264
-432.676	-114.173	0.134	-0.026
-431.661	-47.259	-0.215	-0.105
-430.646	106.488	0.208	-0.246
-429.632	800.000	0.067	-0.197
-428.617	510.220	-0.085	-0.197
-427.603	800.000	-0.052	0.159
-426.588	47.234	-0.151	-0.141
-425.573	138.998	0.122	0.160
-424.559	24.935	0.403	0.334
-423.544	-109.617	0.214	-0.045
-422.530	800.000	0.088	-0.314
-421.515	-70.618	-0.370	0.139
-420.500	-75.056	-0.439	-0.157
-419.486	-44.374	0.384	-0.192
-418.471	-143.371	-0.228	-0.022
-417.457	206.858	-0.145	-0.225
-416.442	97.136	0.074	0.085
-415.428	-200.000	-0.038	-0.308
-414.413	215.130	0.057	0.090
-413.398	559.989	-0.119	-0.286
-412.384	410.985	0.112	-0.238
-411.369	-181.517	0.074	0.001
-410.355	17.457	0.127	-0.101
-409.340	329.577	0.072	-0.138
-408.325	387.675	0.008	0.017
-407.311	202.334	-0.117	-0.180
-406.296	-200.000	-0.055	-0.305
-405.282	-200.000	0.043	0.284
-404.267	21.227	0.188	-0.152
-403.252	-66.005	-0.118	-0.047
-402.238	470.774	-0.075	-0.168
-401.223	291.777	-0.133	-0.241
-400.209	-54.535	-0.231	0.104
-399.194	70.459	-0.044	0.046
-398.179	211.017	0.094	0.147
-397.165	30.614	0.143	0.122
-396.150	-64.949	-0.058	0.023
-395.136	-200.000	-0.009	0.055
-394.121	-72.993	0.092	0.034
-393.106	164.869	0.097	0.137
-392.092	-200.000	0.007	0.219
-391.077	-200.000	0.066	0.322
-390.063	782.443	0.020	0.054
-389.048	68.795	0.140	-0.143
-388.033	-200.000	-0.032	-0.193
-387.019	148.845	-0.207	0.279
-386.004	392.513	-0.101	-0.208
-384.990	748.241	-0.084	-0.227
-383.975	7.945	-0.062	0.046
-382.960	800.000	-0.034	-0.142
-381.946	-200.000	0.026	0.167
-380.931	-103.078	0.107	0.025
-379.917	800.000	-0.036	-0.112
-378.902	-141.189	-0.141	0.014
-377.888	-200.000	-0.025	0.167
-376.873	800.000	0.031	-0.118
-375.858	52.122	-0.252	0.239
-374.844	185.259	0.045	0.066
-373.829	-32.008	0.239	0.133
-372.815	-4.595	-0.305	-0.209
-371.800	-95.529	-0.395	0.105
-370.785	800.000	-0.054	0.163
-369.771	134.378	0.167	0.216
-368.756	-163.060	0.378	-0.018
-367.742	35.484	-0.046	0.040
-366.727	8.484	0.202	0.151
-365.712	800.000	-0.101	-0.289
-364.698	384.216	-0.184	0.378
-363.683	-46.690	0.187	0.091
-362.669	103.249	0.186	-0.217
-361.654	800.000	0.056	-0.190
-360.639	110.498	-0.232	-0.277
-359.625	-200.000	-0.038	0.351
-358.610	-18.272	0.159	0.099
-357.596	141.127	0.145	0.191
-356.581	-80.557	0.156	-0.052
-355.566	-200.000	-0.036	-0.309
-354.552	-98.810	-0.109	-0.028
-353.537	-35.448	-0.127	0.069
-352.523	-200.000	-0.146	0.000
-351.508	-105.745	-0.175	-0.039
-350.493	-100.712	-0.170	-0.042
-349.479	29.794	-0.263	-0.223
-348.464	80.553	-0.147	-0.158
-347.450	-188.345	0.275	0.003
-346.435	118.333	-0.200	-0.245
-345.420	-94.740	-0.404	0.109
-344.406	43.215	0.020	0.018
-343.391	310.058	-0.135	-0.251
-342.377	-68.817	0.029	0.011
-341.362	-200.000	-0.008	-0.062
-340.348	107.261	0.110	-0.130
-339.333	703.486	-0.150	0.393
-338.318	496.826	-0.084	-0.191
-337.304	-45.372	-0.255	-0.126
-336.289	-27.224	-0.128	0.074
-335.275	-200.000	0.001	-0.055
-334.260	-135.148	0.395	0.047
-333.245	33.181	0.219	0.189
-332.231	147.457	-0.134	0.179
-331.216	107.214	0.139	0.164
-330.202	-140.321	0.165	0.017
-329.187	-34.298	-0.049	-0.027
-328.172	49.330	-0.193	-0.180
-327.158	-200.000	0.018	-0.182
-326.143	-200.000	0.051	-0.304
-325.129	755.469	0.085	-0.227
-324.114	70.823	-0.118	-0.121
-323.099	800.000	0.018	-0.053
-322.085	-44.848	0.201	0.100
-321.070	800.000	-0.092	-0.271
-320.056	-90.943	-0.170	0.049
-319.041	800.000	0.082	-0.306
-318.026	434.073	-0.087	-0.187
-317.012	83.511	-0.038	-0.041
-315.997	561.579	-0.044	0.107
-314.983	-47.675	-0.386	-0.186
-313.968	166.631	0.132	-0.186
-312.953	-73.040	-0.210	0.077
-311.939	213.652	-0.141	-0.221
-310.924	29.068	0.225	0.190
-309.910	647.560	-0.071	-0.181
-308.895	-153.144	-0.101	0.007
-307.880	-40.834	0.112	0.058
-306.866	-9.060	0.144	-0.095
-305.851	-200.000	-0.038	-0.240
-304.837	-73.480	0.181	-0.065
-303.822	-44.466	0.111	0.055
-302.807	-126.738	0.181	-0.027
-301.793	44.774	-0.277	0.253
-300.778	220.178	-0.010	0.015
-299.764	162.173	0.094	0.131
-298.749	391.070	-0.122	0.251
-297.735	17.492	0.045	-0.035
-296.720	-200.000	0.015	-0.245
-295.705	-170.729	-0.181	0.006
-294.691	-200.000	-0.012	0.354
-293.676	9.147	0.129	-0.096
-292.662	222.250	-0.205	-0.327
-291.647	-200.000	0.012	0.132
-290.632	-200.000	-0.052	0.259
-289.618	484.248	0.023	-0.053
-288.603	-200.000	0.005	-0.361
-287.589	36.418	0.049	0.043
-286.574	-16.071	-0.089	0.056
-285.559	-200.000	0.030	-0.206
-284.545	-200.000	-0.016	-0.454
-283.530	-34.851	-0.533	-0.289
-282.516	-97.010	0.288	-0.075
-281.501	157.060	0.205	0.281
-280.486	-95.622	0.190	0.050
-279.472	-200.000	0.051	-0.222
-278.457	107.861	0.185	0.218
-277.443	4.655	0.148	0.108
-276.428	15.932	0.282	0.220
-275.413	-68.209	-0.091	-0.035
-274.399	504.393	0.139	0.319
-273.384	-155.473	-0.432	-0.028
-272.370	316.900	-0.070	-0.130
-271.355	-200.000	0.053	0.000
-270.340	246.082	0.303	-0.507
-269.326	415.923	0.194	0.411
-268.311	-117.734	-0.164	-0.029
-267.297	-200.000	-0.017	-0.370
-266.282	-200.000	0.028	0.190
-265.267	237.971	-0.114	0.188
-264.253	99.020	-0.193	0.220
-263.238	-200.000	0.033	0.167
-262.224	746.606	0.116	-0.308
-261.209	599.461	-0.085	0.209
-260.195	74.231	-0.257	-0.267
-259.180	-3.393	0.319	0.220
-258.165	222.204	-0.221	-0.352
-257.151	69.384	-0.307	-0.313
-256.136	649.423	-0.078	-0.197
-255.122	49.189	0.172	-0.160
-254.107	800.000	0.140	-0.461
-253.092	173.566	-0.074	0.106
-252.078	-81.350	0.118	-0.038
-251.063	-100.788	0.169	-0.041
-250.049	150.605	-0.033	-0.044
-249.034	-84.776	0.041	-0.013
-248.019	61.733	-0.217	0.214
-247.005	-130.424	0.201	-0.027
-245.990	488.715	0.084	0.190
-244.976	69.975	0.139	0.142
-243.961	-67.212	-0.146	0.057
-242.946	24.461	0.152	-0.124
-241.932	530.751	0.110	0.258
-240.917	-65.935	0.304	0.120
-239.903	-15.426	0.307	-0.194
-238.888	293.593	-0.105	0.189
-237.873	-164.725	0.307	0.014
-236.859	-122.887	0.240	0.038
-235.844	-43.068	0.396	0.199
-234.830	377.245	0.124	-0.251
-233.815	102.946	0.151	0.175
-232.800	800.000	0.088	-0.290
-231.786	-200.000	-0.001	0.044
-230.771	800.000	0.015	-0.043
-229.757	-138.702	-0.065	0.007
-228.742	317.461	0.234	-0.438
-227.727	800.000	-0.073	0.238
-226.713	210.467	-0.093	-0.144
-225.698	800.000	0.073	-0.210
-224.684	-200.000	-0.024	0.313
-223.669	7.003	0.395	0.291
-222.655	-144.095	0.183	0.017
-221.640	116.399	0.149	-0.180
-220.625	-15.903	0.341	0.215
-219.611	61.001	0.177	-0.174
-218.596	-0.633	0.145	-0.102
-217.582	-52.572	0.219	-0.100
-216.567	800.000	0.023	-0.089
-215.552	-200.000	0.017	-0.314
-214.538	-112.429	-0.046	0.009
-213.523	-86.582	0.204	-0.062
-212.509	67.269	-0.029	-0.029
-211.494	4.927	0.214	0.155
-210.479	-200.000	0.075	0.432
-209.465	202.484	-0.257	-0.393
-208.450	-200.000	0.122	-0.000
-207.436	-157.638	0.146	0.009
-206.421	7.360	0.212	-0.156
-205.406	172.501	0.177	0.252
-204.392	62.169	-0.318	-0.314
-203.377	-105.004	-0.247	-0.056
-202.363	-5.035	0.122	0.083
-201.348	800.000	0.060	0.226
-200.333	800.000	-0.088	0.328
-199.319	-54.427	-0.214	0.096
-198.304	-84.581	-0.040	-0.013
-197.290	-170.360	0.444	-0.015
-196.275	49.080	-0.341	-0.317
-195.260	400.066	-0.113	0.235
-194.246	9.206	0.200	0.150
-193.231	-31.399	-0.087	0.049
-192.217	800.000	0.038	-0.133
-191.202	113.376	0.158	0.190
-190.187	220.857	0.066	-0.104
-189.173	267.052	0.108	0.186
-188.158	-102.577	-0.054	-0.013
-187.144	471.668	0.109	-0.242
-186.129	18.545	0.053	0.042
-185.114	-198.803	-0.196	0.001
-184.100	800.000	-0.039	0.125
-183.085	258.159	-0.122	0.208
-182.071	-113.267	-0.108	-0.021
-181.056	343.229	-0.183	-0.355
-180.042	-150.859	-0.364	-0.027
-179.027	150.475	-0.126	0.169
-178.012	63.847	0.239	-0.237
-176.998	-30.285	0.289	0.162
-175.983	-168.809	0.348	-0.013
-174.969	-89.568	0.132	-0.038
-173.954	7.450	0.319	0.235
-172.939	185.853	-0.111	0.163
-171.925	-136.798	0.182	0.021
-170.910	-24.310	-0.066	0.039
-169.896	800.000	0.062	0.245
-168.881	-33.116	0.067	-0.037
-167.866	407.465	0.048	-0.099
-166.852	9.794	0.114	0.086
-165.837	-21.292	-0.192	0.116
-164.823	-200.000	-0.003	0.172
-163.808	-200.000	-0.002	0.223
-162.793	8.076	-0.095	-0.070
-161.779	-100.454	0.522	0.128
-160.764	83.576	0.102	-0.110
-159.750	-14.884	0.183	0.116
-158.735	800.000	-0.112	0.360
-157.720	-200.000	-0.004	-0.199
-156.706	25.689	0.167	0.137
-155.691	-200.000	0.012	0.078
-154.677	-200.000	-0.044	-0.207
-153.662	-56.277	0.265	0.116
-152.647	-96.022	-0.173	-0.046
-151.633	94.587	0.077	-0.086
-150.618	61.940	-0.056	0.055
-149.604	-200.000	-0.042	-0.310
-148.589	-200.000	0.020	-0.247
-147.574	-34.198	0.145	0.079
-146.560	64.615	-0.261	0.259
-145.545	-57.237	0.233	-0.101
-144.531	-18.745	0.185	0.113
-143.516	288.299	-0.159	0.284
-142.502	269.565	0.098	0.170
-141.487	-93.012	0.317	0.087
-140.472	-97.305	0.065	0.017
-139.458	-200.000	0.013	0.456
-138.443	-134.557	-0.022	-0.003
-137.429	-80.298	0.247	-0.081
-136.414	-200.000	-0.055	0.563
-135.399	2.004	0.101	0.072
-134.385	-115.005	-0.206	0.039
-133.370	127.167	0.100	-0.125
-132.356	82.417	0.145	-0.155
-131.341	-200.000	-0.015	0.241
-130.326	-26.922	-0.101	0.058
-129.312	744.283	0.030	0.078
-128.297	-162.357	-0.130	-0.006
-127.283	299.717	0.143	-0.260
-126.268	-200.000	0.000	0.090
-125.253	-16.310	-0.048	-0.030
-124.239	-85.701	0.045	0.014
-123.224	555.494	0.024	-0.056
-122.210	-200.000	0.011	-0.117
-121.195	30.802	0.168	-0.142
-120.180	-75.413	-0.081	0.029
-119.166	-200.000	-0.012	-0.165
-118.151	-88.742	0.097	-0.028
-117.137	-200.000	-0.014	0.085
-116.122	49.320	0.091	0.085
-115.107	800.000	0.051	-0.211
-114.093	-200.000	0.022	-0.217
-113.078	40.109	0.167	0.148
-112.064	-56.543	0.079	0.034
-111.049	-151.221	-0.099	-0.007
-110.034	800.000	-0.065	0.217
-109.020	631.487	-0.122	0.305
-108.005	-124.318	0.056	-0.009
-106.991	-45.211	0.414	-0.203
-105.976	88.475	0.066	0.072
-104.962	-200.000	-0.024	-0.227
-103.947	-200.000	-0.003	-0.031
-102.932	-143.791	0.109	-0.010
-101.918	-29.824	0.069	-0.039
-100.903	224.002	0.251	0.399
-99.889	800.000	0.083	-0.317
-98.874	78.308	0.212	0.223
-97.859	-27.951	-0.242	0.138
-96.845	240.961	-0.153	-0.251
-95.830	-200.000	-0.005	-0.056
-94.816	-109.046	0.109	0.023
-93.801	453.555	0.067	0.145
-92.786	51.266	0.142	0.132
-91.772	-74.911	-0.318	0.112
-90.757	153.993	-0.145	0.196
-89.743	-167.820	-0.200	0.008
-88.728	-200.000	-0.043	0.257
-87.713	204.905	0.095	0.146
-86.699	-26.312	0.422	0.243
-85.684	71.789	0.060	-0.061
-84.670	-200.000	0.040	0.281
-83.655	397.191	0.144	-0.295
-82.640	-77.842	-0.055	0.019
-81.626	559.457	0.119	-0.283
-80.611	-25.601	0.161	-0.094
-79.597	-75.329	0.110	0.039
-78.582	-102.198	0.552	0.131
-77.567	-111.716	-0.381	0.076
-76.553	47.563	-0.237	0.218
-75.538	581.738	0.133	-0.322
-74.524	800.000	-0.081	-0.226
-73.509	-5.710	-0.190	-0.128
-72.494	-91.715	0.089	0.025
-71.480	800.000	-0.074	-0.283
-70.465	-200.000	0.035	0.236
-69.451	-200.000	-0.002	0.088
-68.436	-200.000	-0.044	0.221
-67.422	393.488	0.240	-0.491
-66.407	77.334	-0.164	-0.171
-65.392	-200.000	-0.002	-0.009
-64.378	223.746	0.131	-0.208
-63.363	448.837	0.106	-0.229
-62.349	800.000	-0.075	0.224
-61.334	78.908	-1.121	-1.180
-60.319	-5.572	0.590	0.398
-59.305	800.000	-0.200	-0.842
-58.290	70.563	0.666	0.677
-57.276	300.093	0.849	1.539
-56.261	-200.000	99.069	606.550
-55.246	605.355	1399.019	3425.204
-54.232	193.998	2581.004	3842.574
-53.217	119.414	2140.909	2604.760
-52.203	43.566	1595.801	1434.369
-51.188	35.037	1331.130	1145.659
-50.173	31.679	1289.620	1090.374
-49.159	54.862	1338.570	1269.713
-48.144	56.647	1355.865	1296.639
-47.130	35.199	1312.648	1130.529
-46.115	31.548	1295.374	1094.303
-45.100	31.318	1290.701	1088.970
-44.086	31.302	1287.397	1086.048
-43.071	31.172	1285.977	1084.051
-42.057	31.097	1283.985	1081.891
-41.042	31.236	1281.826	1080.837
-40.027	31.329	1280.202	1079.958
-39.013	31.300	1279.050	1078.780
-37.998	31.359	1276.855	1077.226
-36.984	31.361	1275.287	1075.871
-35.969	31.409	1273.440	1074.544
-34.954	31.365	1271.890	1072.944
-33.940	31.388	1270.693	1072.025
-32.925	31.327	1269.244	1070.407
-31.911	31.467	1267.846	1069.988
-30.896	31.493	1266.240	1068.737
-29.881	31.543	1264.897	1067.847
-28.867	31.530	1263.489	1066.542
-27.852	31.480	1261.949	1064.915
-26.838	31.416	1261.040	1063.740
-25.823	31.570	1259.231	1063.049
-24.809	31.518	1258.130	1061.785
-23.794	31.505	1256.540	1060.327
-22.779	31.529	1255.221	1059.303
-21.765	31.443	1254.104	1057.836
-20.750	31.324	1252.920	1056.121
-19.736	31.507	1251.182	1055.644
-18.721	31.367	1250.095	1053.900
-17.706	31.350	1249.073	1052.897
-16.692	31.334	1247.791	1051.687
-15.677	31.260	1247.387	1050.885
-14.663	31.378	1245.878	1050.236
-13.648	31.349	1244.659	1049.003
-12.633	31.314	1243.708	1047.968
-11.619	31.223	1243.028	1046.843
-10.604	31.244	1242.222	1046.237
-9.590	31.247	1241.001	1045.186
-8.575	31.279	1240.065	1044.534
-7.560	31.192	1239.487	1043.519
-6.546	31.266	1238.353	1042.935
-5.531	31.350	1237.298	1042.478
-4.517	31.310	1236.776	1041.772
-3.502	31.256	1235.763	1040.576
-2.487	31.188	1235.098	1039.599
-1.473	31.180	1231.074	1036.125
-0.458	29.885	1215.296	1015.702
0.556	24.916	1198.410	977.188
1.571	21.212	1202.815	960.362
2.586	20.216	1217.516	966.464
3.600	19.743	1206.677	955.167
4.615	15.251	1135.932	875.670
5.629	7.798	1064.566	783.972
6.644	4.731	1045.521	755.013
7.659	4.551	1042.884	752.172
8.673	4.498	1041.910	751.148
9.688	4.511	1040.585	750.187
10.702	4.680	1038.901	749.724
11.717	8.639	1044.441	772.803
12.731	15.474	1054.164	813.143
13.746	18.447	1056.618	829.376
14.761	17.938	1055.271	825.781
15.775	16.826	1053.654	819.073
16.790	15.781	1051.428	812.226
17.804	15.130	1049.757	807.728
18.819	14.820	1048.735	805.373
19.834	14.571	1047.963	803.512
20.848	14.372	1047.102	801.820
21.863	14.166	1046.128	800.015
22.877	13.941	1045.440	798.338
23.892	14.017	1044.897	798.216
24.907	14.005	1044.201	797.556
25.921	14.057	1042.914	796.754
26.936	14.126	1041.271	795.754
27.950	13.967	1040.537	794.363
28.965	14.223	1038.841	794.223
29.980	14.330	1036.923	793.195
30.994	14.313	1035.909	792.266
32.009	14.332	1035.480	791.961
33.023	14.308	1034.296	790.871
34.038	14.137	1033.375	789.285
35.053	14.029	1032.502	788.039
36.067	14.153	1031.669	787.917
37.082	14.170	1030.531	787.061
38.096	14.236	1030.144	787.006
39.111	14.323	1029.392	786.776
40.126	14.120	1028.134	784.786
41.140	13.926	1026.520	782.568
42.155	13.840	1025.662	781.442
43.169	13.884	1024.462	780.666
44.184	13.863	1023.347	779.648
45.199	14.028	1022.447	779.665
46.213	13.953	1021.615	778.612
47.228	14.098	1020.402	778.296
48.242	14.083	1019.677	777.603
49.257	14.112	1018.644	776.884
50.271	14.125	1017.719	776.172
51.286	14.069	1017.358	775.565
52.301	14.101	1015.543	774.262
53.315	14.158	1014.755	773.859
54.330	14.010	1013.771	772.351
55.344	14.051	1012.594	771.579
56.359	14.072	1012.048	771.188
57.374	13.994	1011.525	770.362
58.388	13.894	1010.643	769.161
59.403	13.817	1010.239	768.425
60.417	13.867	1009.200	767.798
61.432	13.930	1007.791	766.951
62.447	13.749	1007.445	765.786
63.461	13.705	1006.846	765.057
64.476	13.815	1005.238	764.274
65.490	13.734	1004.728	763.447
66.505	13.749	1004.730	763.452
67.520	13.737	1003.656	762.511
68.534	13.920	1002.726	762.579
69.549	13.748	1002.489	761.539
70.563	13.721	1001.467	760.571
71.578	13.746	1000.508	759.893
72.593	13.735	999.758	759.206
73.607	13.776	999.053	758.788
74.622	13.776	998.243	758.107
75.636	13.661	997.971	757.308
76.651	13.611	997.543	756.687
77.666	13.759	996.516	756.517
78.680	13.844	995.781	756.278
79.695	13.717	995.726	755.593
80.709	13.937	994.538	755.623
81.724	13.963	994.135	755.369
82.739	13.972	993.436	754.810
83.753	14.103	992.826	754.877
84.768	14.158	992.036	754.459
85.782	14.217	990.818	753.735
86.797	14.144	990.192	752.861
87.812	14.146	988.998	751.895
88.826	14.095	988.127	750.933
89.841	14.129	987.673	750.676
90.855	14.190	986.539	750.024
91.870	14.308	985.298	749.544
92.884	14.207	984.690	748.561
93.899	14.312	983.703	748.217
94.914	14.310	983.079	747.670
95.928	14.321	982.343	747.090
96.943	14.158	981.723	745.823
97.957	14.198	980.711	745.168
98.972	14.236	980.049	744.768
99.987	14.307	978.888	744.136
101.001	14.225	977.935	742.982
102.016	14.092	977.217	741.775
103.030	14.244	976.737	742.023
104.045	14.222	975.628	741.017
105.060	14.372	974.457	740.729
106.074	14.191	973.290	738.972
107.089	13.952	972.784	737.464
108.103	13.929	971.756	736.515
109.118	13.961	970.471	735.618
110.133	13.880	969.874	734.743
111.147	14.008	968.948	734.543
112.162	13.882	968.723	733.748
113.176	13.946	967.828	733.289
114.191	14.155	966.769	733.342
115.206	14.049	966.221	732.395
116.220	13.999	964.834	731.062
117.235	14.055	964.586	731.053
118.249	13.955	963.388	729.642
119.264	13.984	963.087	729.476
120.279	13.841	961.982	727.950
121.293	13.966	960.855	727.580
122.308	13.948	960.253	726.981
123.322	13.849	959.441	725.867
124.337	13.998	958.137	725.467
125.352	13.909	957.438	724.486
126.366	13.880	956.204	723.361
127.381	13.906	955.133	722.602
128.395	13.970	954.037	721.984
129.410	13.947	953.300	721.264
130.424	13.923	952.673	720.622
131.439	14.001	951.919	720.327
132.454	14.066	951.367	720.125
133.468	14.065	950.683	719.539
134.483	14.154	949.723	719.137
135.497	14.049	949.053	718.112
136.512	13.945	948.418	717.117
137.527	14.162	947.131	717.018
138.541	14.082	946.612	716.218
139.556	14.184	945.855	716.018
140.570	14.177	945.680	715.791
141.585	14.339	944.751	715.721
142.600	14.254	943.978	714.710
143.614	14.370	942.813	714.260
144.629	14.299	942.651	713.771
145.643	14.355	941.309	712.928
146.658	14.277	940.100	711.617
147.673	14.224	939.241	710.679
148.687	14.112	938.684	709.714
149.702	14.164	937.465	708.955
150.716	14.148	936.862	708.366
151.731	14.132	936.418	707.901
152.746	14.224	935.682	707.674
153.760	14.179	935.133	707.003
154.775	14.337	934.303	706.982
155.789	14.273	934.185	706.560
156.804	14.192	933.259	705.455
157.819	14.291	932.672	705.368
158.833	14.464	932.068	705.582
159.848	14.349	931.451	704.565
160.862	14.347	930.439	703.730
161.877	14.329	929.003	702.503
162.892	14.214	928.265	701.399
163.906	14.287	927.149	700.802
164.921	14.236	926.427	699.978
165.935	14.223	925.598	699.237
166.950	14.350	924.835	699.129
167.964	14.165	923.882	697.572
168.979	14.341	922.901	697.508
169.994	14.271	922.254	696.663
171.008	14.416	921.893	696.935
172.023	14.483	921.083	696.540
173.037	14.562	920.182	696.130
174.052	14.508	919.405	695.254
175.067	14.302	919.064	694.076
176.081	14.352	918.193	693.567
177.096	14.247	917.728	692.716
178.110	14.439	916.845	692.784
179.125	14.295	916.758	692.060
180.140	14.404	916.424	692.199
181.154	14.432	915.616	691.644
182.169	14.562	915.432	691.984
183.183	14.602	914.630	691.482
184.198	14.567	913.722	690.588
185.213	14.632	913.131	690.349
186.227	14.606	912.230	689.500
187.242	14.653	911.800	689.311
188.256	14.794	910.941	689.179
189.271	14.770	910.533	688.710
190.286	14.548	909.598	687.028
191.300	14.385	908.558	685.513
192.315	14.316	907.972	684.727
193.329	14.301	907.554	684.287
194.344	14.378	906.789	683.968
195.359	14.487	906.239	683.941
196.373	14.600	905.908	684.091
197.388	14.580	905.715	683.805
198.402	14.653	905.557	683.921
199.417	14.861	904.301	683.764
200.432	14.997	903.720	683.822
201.446	14.987	903.155	683.294
202.461	15.042	902.683	683.098
203.475	14.981	902.231	682.449
204.490	14.910	901.649	681.660
205.504	14.745	900.860	680.329
206.519	14.841	899.701	679.782
207.534	14.863	899.414	679.595
208.548	14.792	898.625	678.653
209.563	14.768	898.299	678.247
210.577	14.803	897.586	677.792
211.592	14.899	897.086	677.743
212.607	15.071	895.697	677.329
213.621	15.112	895.041	676.938
214.636	14.950	894.952	676.158
215.650	15.004	894.081	675.660
216.665	15.153	893.097	675.453
217.680	15.028	892.656	674.559
218.694	15.284	891.713	674.817
219.709	15.027	891.606	673.642
220.723	15.094	890.613	673.101
221.738	14.914	890.695	672.378
222.753	14.981	889.815	671.926
223.767	15.249	888.591	672.014
224.782	15.147	888.595	671.552
225.796	15.333	887.659	671.528
226.811	15.246	887.224	670.790
227.826	15.107	886.491	669.621
228.840	15.148	885.616	669.066
229.855	15.148	885.096	668.614
230.869	15.200	884.171	668.065
231.884	15.032	883.893	667.126
232.899	15.077	882.768	666.393
233.913	15.059	882.490	666.055
234.928	15.089	881.532	665.391
235.942	15.055	881.056	664.838
236.957	15.034	880.801	664.503
237.972	14.990	880.113	663.751
238.986	15.131	879.344	663.670
240.001	15.063	878.762	662.906
241.015	15.212	877.736	662.661
242.030	15.162	877.575	662.283
243.045	15.352	876.858	662.433
244.059	15.223	876.699	661.748
245.074	15.254	875.929	661.230
246.088	15.312	875.172	660.827
247.103	15.286	874.828	660.408
248.117	15.507	874.213	660.755
249.132	15.622	873.801	660.838
250.147	15.702	872.999	660.485
251.161	15.607	872.202	659.450
252.176	15.651	871.567	659.087
253.190	15.783	870.957	659.085
254.205	15.695	870.805	658.563
255.220	15.863	869.530	658.199
256.234	15.697	869.175	657.222
257.249	15.829	868.385	657.084
258.263	15.757	867.797	656.300
259.278	15.802	866.864	655.713
260.293	15.875	866.542	655.696
261.307	15.977	865.740	655.426
262.322	15.929	865.545	655.032
263.336	15.865	864.616	654.023
264.351	15.867	863.915	653.444
265.366	15.918	863.163	653.014
266.380	15.841	862.963	652.507
267.395	15.815	862.260	651.819
268.409	16.013	861.021	651.591
269.424	16.095	860.595	651.525
270.439	15.874	859.925	650.107
271.453	15.877	859.087	649.429
272.468	15.861	858.603	648.941
273.482	15.875	858.031	648.508
274.497	15.792	857.900	648.031
275.512	15.852	857.140	647.632
276.526	15.970	856.501	647.542
277.541	15.971	856.047	647.147
278.555	15.972	855.780	646.892
279.570	16.016	854.950	646.375
280.585	16.288	853.918	646.580
281.599	16.113	852.876	645.067
282.614	16.032	852.529	644.434
283.628	16.010	851.676	643.652
284.643	16.105	851.408	643.753
285.657	16.105	851.109	643.469
286.672	16.026	850.151	642.387
287.687	15.969	850.033	642.024
288.701	16.087	849.418	641.951
289.716	16.149	848.573	641.493
290.730	16.103	848.294	641.049
291.745	16.104	847.538	640.428
292.760	16.270	846.771	640.420
293.774	16.304	846.244	640.092
294.789	16.271	845.894	639.647
295.803	16.171	845.052	638.574
296.818	16.102	844.402	637.766
297.833	16.254	843.387	637.520
298.847	16.312	842.734	637.188
299.862	16.230	842.461	636.614
300.876	16.334	841.940	636.555
301.891	16.460	841.196	636.413
302.906	16.478	841.079	636.337
303.920	16.729	840.291	636.626
304.935	16.548	839.955	635.636
305.949	16.625	839.002	635.146
306.964	16.443	838.587	634.095
307.979	16.448	838.240	633.796
308.993	16.485	837.574	633.374
310.008	16.631	836.617	633.140
311.022	16.580	836.360	632.700
312.037	16.412	835.838	631.618
313.052	16.507	835.089	631.353
314.066	16.340	834.951	630.570
315.081	16.453	833.817	630.077
316.095	16.239	833.547	629.022
317.110	16.381	832.937	629.035
318.125	16.382	832.204	628.426
319.139	16.431	831.879	628.307
320.154	16.442	831.780	628.217
321.168	16.402	831.259	627.623
322.183	16.652	830.481	627.904
323.197	16.522	830.202	627.156
324.212	16.552	829.568	626.736
325.227	16.625	828.865	626.419
326.241	16.478	828.417	625.480
327.256	16.640	827.845	625.593
328.270	16.444	827.144	624.283
329.285	16.429	826.875	623.970
330.300	16.512	825.916	623.497
331.314	16.606	825.803	623.701
332.329	16.650	825.523	623.597
333.343	16.801	824.724	623.495
334.358	16.633	824.557	622.696
335.373	16.695	823.989	622.438
336.387	16.747	823.903	622.512
337.402	16.797	823.475	622.317
338.416	16.832	822.969	622.008
339.431	16.871	823.190	622.261
340.446	16.930	822.591	621.972
341.460	16.892	822.259	621.525
342.475	17.150	821.350	621.728
343.489	17.096	820.907	621.140
344.504	16.889	820.740	620.203
345.519	17.084	820.573	620.732
346.533	16.995	819.705	619.698
347.548	17.079	818.831	619.289
348.562	16.950	818.309	618.369
349.577	16.770	818.041	617.452
350.592	16.962	817.115	617.398
351.606	17.063	816.699	617.398
352.621	16.942	815.976	616.356
353.635	17.086	815.351	616.352
354.650	16.947	814.902	615.456
355.665	16.944	814.053	614.749
356.679	17.047	813.756	614.843
357.694	17.087	813.167	614.490
358.708	17.225	812.306	614.283
359.723	17.050	811.799	613.212
360.738	17.068	811.180	612.755
361.752	17.243	810.338	612.698
362.767	17.185	810.207	612.335
363.781	17.125	809.848	611.791
364.796	17.417	809.390	612.444
365.810	17.509	809.110	612.508
366.825	17.560	808.698	612.326
367.840	17.589	807.935	611.797
368.854	17.311	807.510	610.425
369.869	17.284	807.163	610.012
370.883	17.496	806.337	610.091
371.898	17.586	806.142	610.213
372.913	17.418	805.871	609.353
373.927	17.444	805.415	609.047
374.942	17.459	804.774	608.562
375.956	17.598	804.746	608.984
376.971	17.553	804.318	608.443
377.986	17.718	803.765	608.562
379.000	17.647	803.031	607.700
380.015	17.676	802.570	607.399
381.029	17.661	802.224	607.030
382.044	17.554	801.894	606.345
383.059	17.695	801.020	606.135
384.073	17.561	800.910	605.519
385.088	17.558	799.936	604.720
386.102	17.535	799.569	604.307
387.117	17.590	798.433	603.591
388.132	17.390	798.416	602.814
389.146	17.510	798.175	603.004
390.161	17.870	797.308	603.571
391.175	17.737	796.863	602.711
392.190	17.762	796.381	602.381
393.205	17.668	796.132	601.806
394.219	17.554	795.745	601.057
395.234	17.735	795.049	601.118
396.248	17.464	794.770	599.896
397.263	17.622	794.339	600.075
398.278	17.501	794.104	599.418
399.292	17.570	793.688	599.294
400.307	17.618	792.761	598.711
401.321	17.484	792.258	597.808
402.336	17.593	792.068	597.993
403.350	17.639	791.317	597.536
404.365	17.761	791.326	597.917
405.380	17.838	790.728	597.681
406.394	17.928	789.887	597.308
407.409	17.862	789.859	597.004
408.423	18.014	789.333	597.083
409.438	17.994	789.511	597.095
410.453	17.890	788.671	596.045
411.467	18.134	787.974	596.315
412.482	18.014	788.030	595.889
413.496	18.243	787.469	596.209
414.511	18.132	787.177	595.547
415.526	18.162	786.916	595.401
416.540	18.169	786.230	594.854
417.555	18.212	785.518	594.413
418.569	18.256	785.140	594.226
419.584	18.271	785.012	594.129
420.599	18.377	784.478	594.041
421.613	157.115	1369.593	1795.358
422.628	135.752	1454.855	1795.448
