DTS Sentinel unit serial number:	SN413079Multiplexer serial number:	ORYXHardware model number:	OX4-SRSoftware version number:	ORYX F/W v4.00 Oryx Data Collector v3.7.2.0data status	okinstallation	princeton_trtdifferential loss correction	single-endedforward channel	channel 1reverse channel	N/Adate	2019/09/17time	09:10:35forward acquisition time	60.00reverse acquisition time	0.00gamma	496.2192k internal	0.2326k external	0.2326temperature offset calibration	0.9960default loss term (dB/km)	0.3790temperature slope calibration	1.0000multiplexer offset coefficient	1.0000multiplexer slope coefficient	1.0000fibre end	0.00T internal ref (°C)	28.31T ext. ref 1 (°C)	0.14T ext. ref 2 (°C)	25.21length (m)	temperature (°C)	Stokes	anti-Stokes-747.200	35.080	0.036	0.032
-746.185	374.316	0.094	0.193
-745.171	314.574	-0.189	0.359
-744.156	-200.000	0.012	0.152
-743.142	309.525	0.109	-0.206
-742.127	5.681	0.082	0.061
-741.112	800.000	-0.042	0.143
-740.098	-200.000	-0.051	0.395
-739.083	-86.266	0.050	0.016
-738.069	-200.000	0.021	-0.336
-737.054	800.000	-0.091	-0.328
-736.039	-72.474	-0.445	-0.166
-735.025	-200.000	0.081	0.357
-734.010	-199.553	0.074	0.000
-732.996	204.898	-0.224	-0.350
-731.981	2.825	-0.258	-0.189
-730.966	-131.152	0.139	-0.019
-729.952	-129.883	-0.239	-0.033
-728.937	144.341	-0.245	-0.330
-727.923	-13.593	0.140	-0.092
-726.908	35.340	-0.277	-0.245
-725.894	800.000	-0.050	-0.185
-724.879	100.339	-0.169	0.198
-723.864	-200.000	-0.011	-0.521
-722.850	800.000	0.061	-0.251
-721.835	-33.611	-0.213	0.118
-720.821	90.608	-0.078	-0.088
-719.806	75.520	0.204	-0.217
-718.791	-172.200	-0.163	0.005
-717.777	-132.207	0.196	0.026
-716.762	-92.882	-0.158	-0.044
-715.748	8.280	0.102	-0.077
-714.733	115.481	0.069	0.084
-713.718	159.347	-0.101	0.141
-712.704	9.098	0.189	0.144
-711.689	-89.738	-0.273	0.080
-710.675	800.000	0.080	0.311
-709.660	-200.000	-0.008	0.089
-708.645	-200.000	0.017	0.171
-707.631	-200.000	0.020	-0.130
-706.616	205.671	0.084	0.131
-705.602	-200.000	0.001	0.147
-704.587	-106.712	-0.098	0.022
-703.572	-3.527	0.040	-0.028
-702.558	268.582	0.045	0.079
-701.543	389.843	0.057	-0.120
-700.529	272.543	-0.040	0.071
-699.514	66.173	0.098	-0.100
-698.499	-51.454	-0.173	-0.082
-697.485	800.000	-0.076	0.267
-696.470	800.000	0.086	0.313
-695.456	-6.869	0.231	-0.158
-694.441	-200.000	-0.001	-0.214
-693.426	5.882	0.051	-0.038
-692.412	-102.453	-0.522	-0.126
-691.397	800.000	0.031	-0.116
-690.383	-26.348	0.118	-0.070
-689.368	-86.713	-0.183	-0.056
-688.354	-110.460	0.259	0.054
-687.339	-91.079	-0.322	0.093
-686.324	-200.000	-0.027	0.245
-685.310	-61.078	-0.278	-0.118
-684.295	121.080	-0.161	-0.202
-683.281	63.669	0.210	-0.212
-682.266	-74.927	0.155	0.056
-681.251	128.454	0.093	0.119
-680.237	-111.986	0.093	0.019
-679.222	-200.000	0.016	0.126
-678.208	800.000	-0.038	-0.142
-677.193	-97.790	0.060	0.016
-676.178	313.811	-0.049	-0.094
-675.164	-200.000	-0.057	-0.421
-674.149	-37.519	0.192	0.103
-673.135	615.863	0.074	-0.186
-672.120	-28.010	0.240	-0.140
-671.105	800.000	0.032	-0.094
-670.091	-95.015	0.259	0.070
-669.076	13.362	-0.161	0.125
-668.062	-170.781	0.122	-0.004
-667.047	-200.000	0.010	-0.103
-666.032	11.450	-0.144	-0.111
-665.018	-61.507	0.081	-0.034
-664.003	255.302	0.127	-0.219
-662.989	-200.000	-0.016	0.268
-661.974	-86.017	0.127	-0.040
-660.959	192.473	0.170	0.259
-659.945	15.245	-0.101	0.079
-658.930	-200.000	-0.139	-0.001
-657.916	392.281	0.088	-0.184
-656.901	-36.122	0.049	0.027
-655.886	800.000	0.129	-0.397
-654.872	-158.502	-0.226	0.013
-653.857	-200.000	-0.249	-0.001
-652.843	32.083	0.112	-0.097
-651.828	131.809	0.118	-0.153
-650.814	-145.935	-0.421	-0.037
-649.799	-122.317	0.262	-0.043
-648.784	177.911	-0.047	0.069
-647.770	800.000	0.073	-0.225
-646.755	80.340	-0.274	0.297
-645.741	-28.480	0.277	0.160
-644.726	46.578	-0.269	-0.251
-643.711	-136.081	-0.182	0.021
-642.697	-128.474	0.143	-0.020
-641.682	-119.413	0.200	-0.035
-640.668	41.033	0.106	0.096
-639.653	-92.418	0.392	-0.111
-638.638	71.423	0.222	-0.231
-637.624	23.461	-0.096	0.079
-636.609	-200.000	0.020	-0.173
-635.595	-98.385	-0.143	0.037
-634.580	-70.950	0.339	0.128
-633.565	283.251	-0.094	0.170
-632.551	572.726	-0.023	0.056
-631.536	-9.550	0.047	-0.032
-630.522	800.000	0.053	-0.186
-629.507	110.161	0.169	0.204
-628.492	800.000	-0.061	0.213
-627.478	270.860	-0.168	0.297
-626.463	-30.653	-0.105	0.060
-625.449	-183.892	-0.224	0.004
-624.434	-80.290	0.246	-0.083
-623.419	78.740	-0.112	0.120
-622.405	-200.000	-0.025	-0.193
-621.390	-200.000	-0.047	-0.321
-620.376	186.462	0.094	-0.141
-619.361	-68.858	0.198	-0.077
-618.346	-175.149	0.340	0.009
-617.332	314.490	-0.114	-0.216
-616.317	165.381	-0.061	0.086
-615.303	-46.991	-0.157	0.077
-614.288	123.760	0.128	0.161
-613.273	-42.855	-0.198	0.101
-612.259	208.574	-0.073	-0.115
-611.244	-200.000	-0.012	-0.225
-610.230	674.022	-0.108	-0.281
-609.215	-138.853	-0.199	-0.022
-608.201	242.469	0.080	-0.135
-607.186	-157.338	0.242	0.015
-606.171	148.545	0.044	0.060
-605.157	800.000	0.060	-0.191
-604.142	689.949	-0.074	-0.193
-603.128	-200.000	0.037	-0.275
-602.113	25.574	-0.216	-0.180
-601.098	-90.544	0.325	-0.094
-600.084	218.047	-0.080	0.128
-599.069	-44.230	-0.073	-0.037
-598.055	800.000	-0.057	-0.197
-597.040	-154.798	-0.093	-0.006
-596.025	132.412	-0.190	0.245
-595.011	40.950	-0.101	-0.092
-593.996	-171.362	0.140	0.005
-592.982	139.854	0.112	-0.148
-591.967	34.329	0.254	-0.222
-590.952	-200.000	-0.047	0.364
-589.938	-79.672	0.187	-0.063
-588.923	-200.000	-0.009	-0.042
-587.909	800.000	0.055	-0.206
-586.894	-39.233	0.119	0.062
-585.879	-74.569	-0.074	-0.027
-584.865	-96.521	0.307	-0.081
-583.850	-39.988	0.096	0.050
-582.836	367.597	-0.229	-0.464
-581.821	130.393	-0.270	0.346
-580.806	-200.000	0.006	0.184
-579.792	-23.494	-0.161	0.097
-578.777	800.000	-0.063	0.204
-577.763	-7.781	-0.161	0.109
-576.748	37.809	-0.055	-0.049
-575.733	428.171	-0.071	-0.154
-574.719	-200.000	-0.018	0.151
-573.704	787.429	0.149	0.410
-572.690	202.534	0.118	0.182
-571.675	-200.000	0.020	-0.177
-570.661	45.535	0.242	-0.224
-569.646	-53.272	-0.044	0.020
-568.631	64.214	0.086	0.086
-567.617	13.553	-0.131	-0.101
-566.602	520.421	-0.111	0.262
-565.588	149.544	0.124	0.169
-564.573	125.699	0.273	-0.346
-563.558	101.370	-0.097	-0.113
-562.544	-200.000	0.012	0.249
-561.529	203.594	0.202	-0.313
-560.515	497.864	-0.187	-0.430
-559.500	-73.336	0.130	-0.048
-558.485	-20.998	-0.141	-0.087
-557.471	202.494	-0.192	-0.297
-556.456	-88.817	-0.186	0.055
-555.442	-155.857	-0.089	-0.006
-554.427	-200.000	0.007	0.058
-553.412	2.255	-0.292	0.211
-552.398	77.789	-0.130	0.139
-551.383	-121.905	0.323	-0.053
-550.369	-139.765	-0.359	0.038
-549.354	-200.000	0.041	0.263
-548.339	122.313	-0.113	-0.142
-547.325	383.166	-0.031	0.064
-546.310	116.697	-0.224	-0.276
-545.296	800.000	0.143	-0.461
-544.281	414.790	0.080	-0.171
-543.266	800.000	-0.080	0.286
-542.252	106.957	0.059	0.070
-541.237	800.000	-0.088	-0.293
-540.223	85.887	-0.192	-0.212
-539.208	800.000	-0.070	-0.228
-538.193	692.113	0.115	-0.301
-537.179	-200.000	-0.001	0.046
-536.164	-132.096	-0.382	0.050
-535.150	196.459	-0.037	0.057
-534.135	800.000	0.075	0.268
-533.121	278.342	-0.052	-0.092
-532.106	-93.580	0.249	0.069
-531.091	12.168	0.232	0.179
-530.077	-168.871	0.393	-0.015
-529.062	-200.000	0.023	0.270
-528.048	-118.490	0.255	0.045
-527.033	800.000	0.046	0.136
-526.018	523.364	-0.127	0.298
-525.004	-70.482	-0.096	-0.036
-523.989	370.242	-0.024	0.048
-522.975	-200.000	-0.044	-0.214
-521.960	-139.666	0.276	0.029
-520.945	-68.803	-0.405	0.157
-519.931	121.233	-0.117	0.146
-518.916	-200.000	0.053	-0.254
-517.902	-200.000	0.018	-0.107
-516.887	80.208	0.070	0.076
-515.872	79.818	-0.087	0.094
-514.858	-16.702	-0.183	-0.115
-513.843	-153.272	-0.327	0.023
-512.829	-54.929	-0.056	0.025
-511.814	-187.760	0.278	0.004
-510.799	-193.525	-0.231	-0.002
-509.785	74.040	0.286	0.300
-508.770	-130.870	0.247	0.033
-507.756	-200.000	-0.038	-0.253
-506.741	556.655	-0.130	-0.313
-505.726	-72.087	-0.176	-0.065
-504.712	485.510	-0.118	-0.268
-503.697	285.045	0.092	0.165
-502.683	4.818	0.245	0.180
-501.668	800.000	0.073	-0.303
-500.653	-28.175	-0.162	-0.093
-499.639	183.500	0.272	0.402
-498.624	-175.833	0.097	-0.003
-497.610	186.570	0.215	-0.320
-496.595	557.910	-0.105	-0.252
-495.581	-115.223	0.260	-0.049
-494.566	1.038	-0.226	-0.162
-493.551	-169.245	0.038	0.001
-492.537	-116.056	-0.465	-0.086
-491.522	800.000	-0.080	0.260
-490.508	40.079	0.299	-0.268
-489.493	-100.820	-0.210	-0.052
-488.478	-5.498	-0.177	-0.121
-487.464	-93.611	-0.336	-0.093
-486.449	-200.000	-0.060	-0.290
-485.435	42.818	0.092	0.084
-484.420	373.211	-0.031	-0.062
-483.405	-200.000	-0.030	0.194
-482.391	141.877	0.156	-0.206
-481.376	-39.346	0.282	-0.148
-480.362	800.000	0.060	-0.175
-479.347	-200.000	0.005	-0.170
-478.332	-161.227	-0.179	-0.009
-477.318	374.061	0.075	-0.153
-476.303	272.526	0.141	-0.248
-475.289	33.938	0.135	0.117
-474.274	800.000	-0.066	0.189
-473.259	800.000	-0.051	-0.208
-472.245	59.815	-0.243	0.240
-471.230	17.312	-0.130	0.103
-470.216	-200.000	0.026	-0.178
-469.201	-200.000	-0.018	-0.090
-468.186	462.136	0.127	0.284
-467.172	372.009	0.028	0.057
-466.157	-200.000	0.017	0.209
-465.143	231.376	-0.092	-0.150
-464.128	-80.160	-0.366	0.122
-463.113	332.458	0.177	0.341
-462.099	-29.914	-0.082	0.046
-461.084	-164.504	0.008	-0.000
-460.070	800.000	-0.060	0.232
-459.055	800.000	-0.031	-0.109
-458.040	124.518	0.153	0.192
-457.026	468.387	0.152	-0.340
-456.011	800.000	-0.078	0.237
-454.997	65.739	0.038	-0.039
-453.982	70.505	0.305	0.314
-452.968	176.204	-0.066	0.096
-451.953	-34.167	-0.010	-0.006
-450.938	217.489	-0.061	-0.097
-449.924	-200.000	0.041	-0.382
-448.909	88.605	0.213	0.236
-447.895	800.000	-0.115	0.398
-446.880	800.000	-0.082	0.316
-445.865	-101.372	0.071	-0.017
-444.851	800.000	-0.032	0.090
-443.836	800.000	-0.034	-0.095
-442.822	203.031	0.040	0.061
-441.807	160.474	-0.093	-0.130
-440.792	800.000	0.079	0.310
-439.778	210.317	-0.188	-0.294
-438.763	-117.361	0.231	-0.042
-437.749	-54.870	-0.104	-0.047
-436.734	85.228	-0.206	0.225
-435.719	24.147	-0.180	0.148
-434.705	-39.566	0.154	-0.081
-433.690	-200.000	0.011	0.145
-432.676	-200.000	0.021	-0.202
-431.661	97.938	0.108	-0.124
-430.646	-66.893	0.225	0.089
-429.632	-11.695	0.127	0.083
-428.617	-200.000	0.009	0.157
-427.603	800.000	0.012	-0.050
-426.588	165.429	0.099	-0.139
-425.573	-132.468	-0.041	-0.005
-424.559	-105.088	0.286	-0.065
-423.544	-102.095	-0.388	0.093
-422.530	30.202	0.132	-0.112
-421.515	-86.958	-0.283	-0.086
-420.500	800.000	-0.065	0.241
-419.486	8.884	-0.070	0.053
-418.471	134.772	0.043	-0.056
-417.457	800.000	0.083	0.227
-416.442	166.847	0.103	-0.145
-415.428	-200.000	-0.013	0.072
-414.413	-200.000	0.005	-0.073
-413.398	-20.969	0.308	0.188
-412.384	266.942	-0.129	-0.224
-411.369	44.368	-0.106	0.097
-410.355	-21.155	0.432	0.263
-409.340	-63.785	0.242	0.099
-408.325	800.000	0.042	-0.180
-407.311	800.000	-0.070	-0.194
-406.296	-99.962	-0.409	-0.102
-405.282	-200.000	-0.010	-0.054
-404.267	-200.000	0.001	0.069
-403.252	-200.000	-0.016	-0.084
-402.238	-200.000	-0.008	-0.108
-401.223	156.307	0.118	0.162
-400.209	41.323	-0.309	0.278
-399.194	168.415	0.259	-0.368
-398.179	-80.109	0.254	-0.085
-397.165	-54.441	0.102	0.046
-396.150	-200.000	0.007	-0.286
-395.136	-164.691	0.223	-0.010
-394.121	536.164	-0.189	0.447
-393.106	-200.000	-0.041	-0.224
-392.092	-177.670	0.206	-0.005
-391.077	41.782	-0.242	0.218
-390.063	-200.000	0.045	-0.462
-389.048	-200.000	-0.001	-0.257
-388.033	55.211	-0.176	-0.169
-387.019	800.000	-0.042	-0.156
-386.004	191.699	-0.070	-0.106
-384.990	-200.000	0.018	-0.191
-383.975	-39.660	-0.293	-0.152
-382.960	165.631	0.034	-0.048
-381.946	84.725	0.106	-0.116
-380.931	-75.201	0.097	0.035
-379.917	113.470	-0.151	0.182
-378.902	-200.000	0.020	-0.172
-377.888	177.730	0.109	-0.157
-376.873	298.987	0.083	0.152
-375.858	3.249	-0.142	-0.102
-374.844	-11.042	-0.268	0.176
-373.829	97.582	0.082	0.094
-372.815	-44.854	0.410	-0.203
-371.800	190.654	0.029	0.044
-370.785	185.686	0.088	-0.130
-369.771	-200.000	-0.037	-0.165
-368.756	-51.936	-0.207	0.096
-367.742	-10.028	-0.031	-0.021
-366.727	112.719	0.113	0.136
-365.712	800.000	-0.012	0.035
-364.698	-147.997	0.132	-0.011
-363.683	25.386	-0.164	-0.136
-362.669	800.000	0.020	0.081
-361.654	-183.895	0.155	0.003
-360.639	-46.307	-0.223	0.109
-359.625	-103.152	0.267	-0.063
-358.610	55.545	0.146	-0.140
-357.596	94.019	0.110	0.124
-356.581	156.350	-0.053	-0.072
-355.566	-1.166	0.136	0.095
-354.552	94.612	0.231	-0.261
-353.537	-200.000	0.020	-0.269
-352.523	800.000	-0.059	-0.200
-351.508	800.000	0.004	0.014
-350.493	-200.000	0.038	0.422
-349.479	-48.839	-0.235	-0.112
-348.464	800.000	0.080	-0.247
-347.450	800.000	0.094	0.367
-346.435	175.794	-0.179	-0.258
-345.420	-87.624	0.262	0.079
-344.406	346.377	0.123	0.240
-343.391	-30.569	-0.304	-0.171
-342.377	-7.284	0.073	0.049
-341.362	-200.000	0.034	0.244
-340.348	-200.000	-0.011	0.237
-339.333	30.141	-0.166	0.140
-338.318	800.000	0.130	-0.412
-337.304	-61.191	-0.174	0.073
-336.289	-200.000	-0.034	-0.301
-335.275	338.304	-0.143	-0.276
-334.260	-38.939	-0.101	-0.053
-333.245	-94.374	0.247	0.067
-332.231	-98.545	0.312	-0.079
-331.216	335.058	-0.111	0.214
-330.202	-24.429	-0.127	-0.075
-329.187	466.922	0.162	-0.360
-328.172	3.127	-0.114	0.083
-327.158	-122.418	-0.368	0.059
-326.143	800.000	-0.083	-0.278
-325.129	37.827	-0.172	-0.152
-324.114	30.571	-0.121	-0.103
-323.099	-66.966	0.118	-0.046
-322.085	800.000	0.040	-0.158
-321.070	-105.305	-0.322	0.073
-320.056	-200.000	-0.520	-0.002
-319.041	15.784	0.039	-0.030
-318.026	-87.559	0.237	0.071
-317.012	-200.000	0.007	0.194
-315.997	310.054	0.147	0.273
-314.983	800.000	-0.064	0.210
-313.968	-200.000	0.023	0.365
-312.953	207.787	-0.191	-0.296
-311.939	-93.836	0.379	-0.104
-310.924	800.000	-0.087	0.242
-309.910	-19.113	0.320	0.197
-308.895	-39.325	-0.219	-0.114
-307.880	169.213	0.040	0.056
-306.866	22.546	-0.021	0.017
-305.851	-15.704	0.174	0.110
-304.837	-56.228	0.131	-0.058
-303.822	-58.192	0.069	0.030
-302.807	16.914	-0.273	0.214
-301.793	-112.116	-0.393	0.078
-300.778	800.000	0.097	0.352
-299.764	385.624	0.132	-0.270
-298.749	460.282	0.010	-0.022
-297.735	800.000	-0.037	-0.137
-296.720	-54.029	0.098	-0.044
-295.705	-146.104	0.319	0.028
-294.691	800.000	0.070	0.222
-293.676	-63.675	0.063	-0.025
-292.662	-162.344	-0.390	-0.019
-291.647	-200.000	-0.010	-0.046
-290.632	223.427	-0.190	-0.303
-289.618	612.662	-0.035	-0.086
-288.603	122.135	-0.157	-0.194
-287.589	-160.688	-0.106	0.006
-286.574	589.972	0.045	0.111
-285.559	-200.000	0.034	0.184
-284.545	-23.687	0.119	-0.071
-283.530	-69.806	0.346	-0.131
-282.516	194.904	0.129	0.194
-281.501	663.628	-0.044	0.112
-280.486	109.797	0.044	-0.052
-279.472	392.894	0.012	0.025
-278.457	46.987	0.322	0.296
-277.443	-118.854	-0.243	-0.042
-276.428	-120.312	-0.220	-0.037
-275.413	-168.140	-0.207	0.008
-274.399	-36.515	-0.085	-0.046
-273.384	365.663	-0.084	-0.168
-272.370	516.028	0.074	0.171
-271.355	-200.000	-0.016	0.409
-270.340	-4.231	0.221	0.151
-269.326	566.307	0.027	0.064
-268.311	181.117	-0.170	-0.248
-267.297	-200.000	-0.031	-0.219
-266.282	-154.050	0.065	0.004
-265.267	630.400	-0.065	0.162
-264.253	419.135	0.110	0.232
-263.238	59.123	-0.027	-0.026
-262.224	22.019	0.116	-0.093
-261.209	-40.411	0.111	0.057
-260.195	-48.454	0.103	-0.049
-259.180	280.006	-0.205	-0.362
-258.165	-65.834	-0.314	0.124
-257.151	520.031	-0.128	-0.296
-256.136	-66.919	-0.191	0.075
-255.122	87.361	-0.098	0.107
-254.107	163.753	-0.064	-0.090
-253.092	-200.000	-0.009	-0.143
-252.078	20.251	-0.129	-0.103
-251.063	76.374	0.104	0.109
-250.049	67.226	0.148	-0.149
-249.034	4.877	0.205	-0.149
-248.019	-3.307	-0.257	0.177
-247.005	170.501	0.129	-0.183
-245.990	197.909	-0.234	0.354
-244.976	-200.000	-0.081	-0.373
-243.961	392.888	-0.149	-0.306
-242.946	-118.551	0.104	0.018
-241.932	-143.954	-0.159	-0.015
-240.917	-21.547	-0.131	0.079
-239.903	101.854	-0.186	0.215
-238.888	-91.899	0.272	0.076
-237.873	-77.052	0.200	0.069
-236.859	-200.000	0.000	-0.146
-235.844	195.203	0.077	-0.115
-234.830	800.000	0.054	0.188
-233.815	71.955	0.077	-0.079
-232.800	103.958	0.167	-0.194
-231.786	-168.917	-0.150	-0.006
-230.771	171.974	-0.170	0.242
-229.757	-104.036	-0.089	0.020
-228.742	159.714	-0.030	-0.041
-227.727	-7.366	-0.093	0.062
-226.713	161.083	0.267	0.369
-225.698	51.801	-0.188	-0.177
-224.684	-200.000	-0.080	0.421
-223.669	-51.001	0.242	-0.112
-222.655	-60.761	-0.126	-0.053
-221.640	-200.000	0.018	-0.126
-220.625	17.440	-0.266	-0.208
-219.611	-173.924	-0.237	-0.007
-218.596	-85.985	0.312	-0.095
-217.582	-125.567	0.251	-0.038
-216.567	246.444	0.121	0.202
-215.552	-200.000	0.082	0.546
-214.538	61.325	-0.272	0.267
-213.523	589.979	-0.064	-0.157
-212.509	-0.687	0.426	0.299
-211.494	-28.734	-0.049	-0.028
-210.479	-103.540	-0.305	-0.071
-209.465	800.000	-0.068	0.255
-208.450	-200.000	0.062	0.341
-207.436	800.000	0.040	-0.138
-206.421	-200.000	0.054	0.280
-205.406	111.087	-0.046	0.054
-204.392	-81.933	-0.076	-0.024
-203.377	153.958	-0.130	-0.176
-202.363	-105.026	-0.304	0.069
-201.348	352.031	-0.108	-0.210
-200.333	-78.496	-0.107	-0.036
-199.319	800.000	0.072	0.311
-198.304	50.466	0.313	0.292
-197.290	2.166	0.277	0.198
-196.275	-200.000	0.041	0.346
-195.260	30.039	-0.221	-0.186
-194.246	800.000	0.133	0.377
-193.231	351.942	-0.072	0.141
-192.217	280.534	0.076	0.134
-191.202	43.865	-0.305	0.276
-190.187	24.583	-0.133	-0.108
-189.173	384.407	0.094	0.191
-188.158	75.724	-0.088	-0.092
-187.144	24.438	-0.205	0.167
-186.129	426.706	0.165	0.351
-185.114	800.000	0.061	-0.246
-184.100	592.303	-0.117	0.286
-183.085	270.180	0.167	-0.290
-182.071	-200.000	0.009	0.319
-181.056	-114.247	0.634	0.121
-180.042	-72.655	0.271	0.099
-179.027	287.688	-0.081	-0.145
-178.012	17.745	-0.078	-0.061
-176.998	670.072	-0.043	0.110
-175.983	221.185	-0.106	0.168
-174.969	-99.521	-0.134	-0.033
-173.954	-77.733	0.147	0.050
-172.939	-126.872	0.461	-0.067
-171.925	800.000	0.158	0.508
-170.910	90.682	-0.114	-0.126
-169.896	-185.586	-0.183	-0.003
-168.881	-136.140	0.152	-0.018
-167.866	800.000	0.054	-0.224
-166.852	-200.000	-0.007	-0.070
-165.837	800.000	-0.032	0.121
-164.823	-200.000	0.008	0.186
-163.808	-44.310	-0.135	0.067
-162.793	-200.000	0.001	-0.037
-161.779	800.000	0.045	-0.140
-160.764	-200.000	-0.437	-0.001
-159.750	-10.839	-0.087	-0.057
-158.735	-82.232	0.178	0.057
-157.720	-200.000	-0.027	-0.175
-156.706	-31.969	0.484	0.267
-155.691	645.655	-0.099	0.249
-154.677	800.000	0.083	-0.304
-153.662	359.700	0.141	-0.278
-152.647	-111.613	-0.205	0.041
-151.633	35.495	-0.049	-0.043
-150.618	-200.000	0.037	-0.232
-149.604	-61.174	0.179	0.074
-148.589	-168.522	0.160	0.006
-147.574	340.028	-0.068	-0.131
-146.560	-94.554	0.129	-0.035
-145.545	-120.375	0.257	0.043
-144.531	165.684	-0.104	0.145
-143.516	-57.600	-0.299	0.129
-142.502	111.673	0.182	0.216
-141.487	269.438	-0.027	-0.047
-140.472	-141.494	0.172	-0.017
-139.458	-56.475	-0.172	0.075
-138.443	-68.480	-0.195	-0.074
-137.429	-200.000	0.008	-0.080
-136.414	559.814	-0.073	0.174
-135.399	-25.912	0.050	0.029
-134.385	800.000	0.055	0.200
-133.370	-28.323	-0.130	0.074
-132.356	268.916	-0.121	0.209
-131.341	172.105	-0.031	-0.044
-130.326	-85.483	0.162	-0.050
-129.312	-16.789	0.094	-0.058
-128.297	800.000	-0.098	-0.271
-127.283	-200.000	0.007	-0.074
-126.268	-113.824	0.260	-0.050
-125.253	-200.000	-0.007	-0.141
-124.239	49.688	-0.216	-0.200
-123.224	52.985	0.141	0.133
-122.210	196.831	-0.106	0.160
-121.195	6.451	-0.120	0.087
-120.180	-16.663	-0.156	-0.097
-119.166	181.006	-0.237	0.342
-118.151	-187.796	0.306	0.004
-117.137	315.221	0.116	0.215
-116.122	12.724	0.055	0.042
-115.107	248.995	-0.072	0.119
-114.093	-200.000	-0.031	0.195
-113.078	413.490	-0.130	-0.272
-112.064	-200.000	0.045	-0.217
-111.049	-200.000	0.017	-0.246
-110.034	-157.653	-0.343	-0.020
-109.020	79.313	0.244	-0.257
-108.005	-64.825	-0.219	0.087
-106.991	44.700	0.043	-0.039
-105.976	800.000	0.021	0.060
-104.962	800.000	-0.136	-0.501
-103.947	-58.795	0.245	0.104
-102.932	-71.043	0.166	-0.061
-101.918	-200.000	-0.029	-0.215
-100.903	800.000	0.065	0.195
-99.889	166.251	-0.082	-0.114
-98.874	-137.131	0.120	-0.013
-97.859	278.195	-0.084	-0.147
-96.845	-13.985	-0.159	-0.101
-95.830	-200.000	-0.011	-0.272
-94.816	-101.576	-0.210	0.050
-93.801	259.562	0.212	-0.360
-92.786	-200.000	-0.034	0.179
-91.772	38.743	0.322	0.282
-90.757	-97.565	0.113	-0.029
-89.743	303.272	0.164	-0.299
-88.728	800.000	-0.054	-0.157
-87.713	-200.000	0.047	-0.266
-86.699	-200.000	0.009	-0.184
-85.684	-15.387	0.161	0.101
-84.670	-138.143	0.251	0.027
-83.655	143.662	0.346	-0.452
-82.640	688.333	0.022	0.057
-81.626	366.485	0.059	-0.117
-80.611	22.908	0.147	-0.118
-79.597	-53.490	0.171	0.077
-78.582	530.966	-0.059	-0.136
-77.567	-42.013	-0.094	0.047
-76.553	164.245	0.148	-0.205
-75.538	-73.345	-0.022	0.008
-74.524	168.120	-0.109	0.152
-73.509	-200.000	-0.063	0.357
-72.494	-72.386	0.077	0.028
-71.480	32.486	-0.074	0.063
-70.465	4.184	0.095	-0.068
-69.451	800.000	-0.079	0.284
-68.436	-79.591	-0.209	-0.069
-67.422	-2.636	0.230	-0.158
-66.407	-82.100	0.489	0.157
-65.392	594.659	-0.062	-0.150
-64.378	-134.704	-0.091	0.011
-63.363	141.059	0.067	-0.086
-62.349	106.134	0.127	0.147
-61.334	49.103	-1.043	-0.962
-60.319	97.880	0.291	0.329
-59.305	524.823	-0.504	-1.165
-58.290	425.929	0.663	1.403
-57.276	352.161	0.758	1.474
-56.261	-200.000	109.123	589.227
-55.246	433.332	1507.859	3212.979
-54.232	144.557	2686.027	3521.725
-53.217	104.053	2163.977	2497.358
-52.203	39.822	1608.030	1416.618
-51.188	31.698	1350.352	1140.352
-50.173	28.727	1311.045	1089.520
-49.159	53.103	1366.344	1283.796
-48.144	53.155	1381.164	1297.988
-47.130	31.862	1336.825	1129.736
-46.115	28.460	1318.856	1094.241
-45.100	28.315	1313.956	1089.267
-44.086	28.212	1311.293	1086.405
-43.071	28.128	1309.005	1083.972
-42.057	28.205	1306.577	1082.371
-41.042	28.114	1305.442	1080.851
-40.027	28.250	1303.766	1080.223
-39.013	28.180	1301.799	1078.137
-37.998	28.226	1299.860	1076.759
-36.984	28.295	1298.232	1075.773
-35.969	28.195	1296.973	1074.101
-34.954	28.310	1294.538	1072.719
-33.940	28.406	1293.063	1072.015
-32.925	28.410	1291.744	1070.902
-31.911	28.383	1290.421	1069.603
-30.896	28.421	1288.837	1068.468
-29.881	28.396	1287.999	1067.588
-28.867	28.538	1286.392	1067.040
-27.852	28.495	1284.838	1065.459
-26.838	28.364	1283.841	1063.830
-25.823	28.410	1282.672	1063.084
-24.809	28.460	1281.278	1062.179
-23.794	28.359	1279.960	1060.457
-22.779	28.335	1278.293	1058.895
-21.765	28.446	1276.766	1058.226
-20.750	28.427	1276.041	1057.475
-19.736	28.396	1274.272	1055.789
-18.721	28.220	1273.361	1053.977
-17.706	28.294	1272.491	1053.641
-16.692	28.230	1270.990	1051.989
-15.677	28.281	1269.933	1051.370
-14.663	28.178	1269.165	1050.096
-13.648	28.237	1267.795	1049.259
-12.633	28.256	1267.249	1048.876
-11.619	28.291	1266.123	1048.102
-10.604	28.291	1265.198	1047.298
-9.590	28.222	1264.511	1046.290
-8.575	28.238	1263.402	1045.423
-7.560	28.196	1262.633	1044.507
-6.546	28.279	1261.616	1044.096
-5.531	28.178	1261.012	1042.982
-4.517	28.292	1260.005	1042.755
-3.502	28.269	1259.640	1042.282
-2.487	28.392	1257.809	1041.425
-1.473	28.395	1253.877	1038.144
-0.458	27.141	1239.668	1019.311
0.556	22.423	1223.492	985.232
1.571	19.157	1230.748	972.573
2.586	18.277	1245.684	979.257
3.600	17.557	1233.170	965.256
4.615	12.779	1159.777	882.197
5.629	4.414	1084.052	782.511
6.644	0.463	1064.255	748.577
7.659	0.027	1062.838	745.352
8.673	0.099	1061.163	744.468
9.688	-0.019	1059.888	742.925
10.702	0.224	1057.613	742.461
11.717	5.127	1064.649	771.620
12.731	13.187	1075.085	819.221
13.746	17.025	1079.490	841.576
14.761	17.015	1078.294	840.519
15.775	15.891	1076.580	833.546
16.790	14.997	1074.498	827.444
17.804	14.238	1073.052	822.505
18.819	14.049	1071.771	820.519
19.834	13.628	1071.140	817.886
20.848	13.425	1070.105	816.026
21.863	13.162	1069.455	814.160
22.877	13.049	1068.627	812.901
23.892	12.980	1067.928	811.957
24.907	12.952	1067.384	811.336
25.921	12.974	1066.537	810.727
26.936	13.159	1065.071	810.449
27.950	13.108	1064.530	809.713
28.965	13.230	1062.959	809.048
29.980	13.237	1061.775	808.105
30.994	13.213	1061.142	807.434
32.009	13.399	1059.945	807.361
33.023	13.168	1059.447	805.783
34.038	13.364	1057.876	805.473
35.053	13.277	1057.385	804.603
36.067	13.172	1056.316	803.211
37.082	13.224	1055.266	802.594
38.096	13.280	1054.803	802.442
39.111	13.278	1053.670	801.500
40.126	13.195	1052.308	799.987
41.140	13.094	1051.600	798.893
42.155	13.011	1050.567	797.633
43.169	13.149	1049.459	797.391
44.184	12.951	1048.752	795.826
45.199	13.170	1046.999	795.480
46.213	13.150	1046.449	794.897
47.228	13.039	1045.692	793.720
48.242	13.146	1044.564	793.307
49.257	13.156	1043.255	792.288
50.271	13.125	1042.224	791.289
51.286	13.261	1041.295	791.162
52.301	13.130	1040.793	790.085
53.315	13.156	1039.539	789.186
54.330	13.118	1038.411	788.081
55.344	13.012	1037.762	787.014
56.359	13.080	1037.027	786.707
57.374	13.209	1035.869	786.375
58.388	12.956	1035.062	784.491
59.403	13.046	1034.226	784.212
60.417	13.057	1033.449	783.605
61.432	12.876	1032.960	782.308
62.447	13.005	1032.030	782.148
63.461	12.921	1031.161	781.018
64.476	12.837	1030.201	779.827
65.490	12.930	1029.439	779.620
66.505	12.971	1028.704	779.190
67.520	13.075	1028.066	779.126
68.534	12.967	1027.735	778.301
69.549	13.145	1026.124	777.848
70.563	13.013	1025.633	776.784
71.578	13.013	1025.071	776.293
72.593	13.034	1024.192	775.656
73.607	12.967	1023.721	774.914
74.622	12.829	1023.344	773.913
75.636	13.028	1022.143	773.870
76.651	12.942	1021.405	772.839
77.666	12.902	1020.908	772.209
78.680	12.929	1020.403	771.883
79.695	12.847	1019.932	771.074
80.709	12.996	1019.151	771.116
81.724	13.076	1018.178	770.684
82.739	13.130	1017.874	770.636
83.753	13.124	1017.058	769.921
84.768	13.259	1015.687	769.445
85.782	13.183	1015.413	768.814
86.797	13.250	1013.916	767.927
87.812	13.179	1012.942	766.789
88.826	13.119	1012.283	765.947
89.841	13.065	1011.711	765.194
90.855	13.223	1010.575	765.000
91.870	13.187	1010.004	764.333
92.884	13.212	1008.989	763.611
93.899	13.239	1008.430	763.247
94.914	13.338	1007.417	762.870
95.928	13.296	1006.320	761.777
96.943	13.215	1005.515	760.727
97.957	13.292	1004.496	760.242
98.972	13.191	1003.370	758.862
99.987	13.209	1002.790	758.438
101.001	13.220	1001.816	757.681
102.016	13.291	1000.542	756.980
103.030	13.243	1000.187	756.423
104.045	13.320	999.061	755.859
105.060	13.296	998.188	755.021
106.074	13.248	997.471	754.193
107.089	13.201	996.126	752.891
108.103	12.995	995.678	751.552
109.118	13.117	994.539	751.181
110.133	13.198	993.526	750.717
111.147	13.140	992.726	749.783
112.162	13.112	992.166	749.167
113.176	13.178	991.180	748.653
114.191	13.213	990.403	748.156
115.206	13.188	990.065	747.725
116.220	13.213	988.901	746.892
117.235	13.286	987.563	746.143
118.249	13.147	987.093	745.094
119.264	13.058	986.847	744.443
120.279	13.128	985.515	743.688
121.293	13.146	984.767	743.139
122.308	13.135	984.136	742.547
123.322	13.039	983.204	741.349
124.337	13.105	981.384	740.207
125.352	13.050	980.829	739.475
126.366	13.130	979.583	738.829
127.381	13.018	978.829	737.691
128.395	13.084	977.850	737.187
129.410	13.140	976.737	736.528
130.424	13.126	975.966	735.822
131.439	13.218	975.649	735.926
132.454	13.277	974.406	735.185
133.468	13.219	973.616	734.269
134.483	13.293	972.675	733.820
135.497	13.163	971.865	732.569
136.512	13.140	970.943	731.705
137.527	13.228	970.057	731.363
138.541	13.260	969.462	730.994
139.556	13.273	968.708	730.415
140.570	13.339	967.766	729.931
141.585	13.265	967.521	729.359
142.600	13.279	966.731	728.761
143.614	13.319	965.761	728.139
144.629	13.343	965.215	727.769
145.643	13.286	963.650	726.274
146.658	13.411	962.413	725.826
147.673	13.302	961.894	724.893
148.687	13.294	961.238	724.301
149.702	13.239	960.377	723.347
150.716	13.313	959.532	722.971
151.731	13.355	959.090	722.754
152.746	13.428	957.981	722.176
153.760	13.343	957.904	721.680
154.775	13.400	957.161	721.304
155.789	13.388	956.737	720.870
156.804	13.478	955.103	719.969
157.819	13.340	955.072	719.281
158.833	13.514	954.456	719.510
159.848	13.474	953.595	718.623
160.862	13.476	952.486	717.730
161.877	13.438	951.685	716.900
162.892	13.326	950.861	715.731
163.906	13.346	949.859	714.998
164.921	13.336	949.185	714.385
165.935	13.472	948.449	714.356
166.950	13.443	947.501	713.455
167.964	13.448	946.793	712.877
168.979	13.490	945.457	711.991
169.994	13.563	944.670	711.648
171.008	13.392	944.704	710.876
172.023	13.678	943.435	711.086
173.037	13.611	942.709	710.189
174.052	13.501	942.427	709.443
175.067	13.535	941.941	709.160
176.081	13.478	940.887	708.059
177.096	13.541	940.620	708.062
178.110	13.673	939.614	707.809
179.125	13.627	939.019	707.103
180.140	13.552	938.539	706.355
181.154	13.658	938.460	706.686
182.169	13.661	938.071	706.344
183.183	13.837	936.762	706.043
184.198	13.623	936.552	704.916
185.213	13.643	936.210	704.680
186.227	13.695	934.608	703.633
187.242	13.697	934.609	703.580
188.256	13.860	933.502	703.376
189.271	13.799	932.631	702.398
190.286	13.588	932.283	701.179
191.300	13.635	931.455	700.696
192.315	13.536	931.020	699.889
193.329	13.695	930.137	699.832
194.344	13.612	929.568	698.994
195.359	13.760	929.100	699.202
196.373	13.863	928.155	698.861
197.388	13.797	927.854	698.297
198.402	13.755	927.654	697.908
199.417	13.862	926.822	697.668
200.432	13.958	926.326	697.635
201.446	14.029	925.712	697.409
202.461	13.978	925.585	697.040
203.475	13.947	924.941	696.365
204.490	14.063	924.000	696.081
205.504	14.084	922.477	694.957
206.519	14.079	922.083	694.577
207.534	14.078	921.465	694.046
208.548	14.020	920.917	693.333
209.563	14.016	920.314	692.797
210.577	13.875	919.999	691.911
211.592	14.050	918.978	691.812
212.607	14.102	918.543	691.639
213.621	14.109	917.308	690.676
214.636	14.066	916.602	689.906
215.650	14.142	915.979	689.694
216.665	14.104	915.433	689.061
217.680	14.109	914.724	688.490
218.694	14.218	913.882	688.244
219.709	14.246	913.461	687.982
220.723	14.234	912.372	687.053
221.738	14.265	911.929	686.785
222.753	14.359	911.060	686.459
223.767	14.227	910.816	685.671
224.782	14.437	910.514	686.244
225.796	14.490	909.218	685.425
226.811	14.311	909.321	684.709
227.826	14.313	908.171	683.787
228.840	14.346	907.523	683.376
229.855	14.331	906.674	682.616
230.869	14.181	906.206	681.588
231.884	14.367	904.954	681.347
232.899	14.329	904.355	680.682
233.913	14.198	904.105	679.898
234.928	14.256	903.191	679.386
235.942	14.243	902.707	678.910
236.957	14.364	902.086	678.875
237.972	14.368	901.564	678.439
238.986	14.232	900.966	677.373
240.001	14.369	900.254	677.336
241.015	14.327	899.688	676.680
242.030	14.463	898.917	676.594
243.045	14.472	898.155	675.996
244.059	14.521	897.568	675.692
245.074	14.552	896.901	675.257
246.088	14.428	896.857	674.662
247.103	14.584	895.641	674.315
248.117	14.559	895.245	673.856
249.132	14.665	894.752	673.854
250.147	14.702	893.667	673.128
251.161	14.586	893.825	672.719
252.176	14.768	892.868	672.673
253.190	14.678	892.539	672.004
254.205	14.827	891.802	671.988
255.220	14.789	890.867	671.069
256.234	14.804	890.252	670.608
257.249	14.828	889.681	670.216
258.263	14.791	888.658	669.239
259.278	14.871	887.983	668.990
260.293	15.001	887.331	668.961
261.307	14.990	887.117	668.694
262.322	15.017	886.199	668.050
263.336	15.023	885.663	667.613
264.351	14.929	885.254	666.870
265.366	14.989	884.534	666.506
266.380	14.914	884.047	665.785
267.395	14.967	882.976	665.128
268.409	15.109	882.202	665.052
269.424	14.938	881.346	663.670
270.439	15.040	880.781	663.587
271.453	14.996	880.188	662.909
272.468	15.098	879.806	662.965
273.482	15.065	879.366	662.444
274.497	15.064	878.722	661.896
275.512	14.976	877.896	660.869
276.526	15.124	877.584	661.160
277.541	15.029	877.120	660.378
278.555	15.171	876.553	660.450
279.570	15.276	875.699	660.161
280.585	15.127	875.219	659.157
281.599	15.269	873.849	658.623
282.614	15.205	873.193	657.821
283.628	15.276	873.230	658.070
284.643	15.330	872.234	657.470
285.657	15.289	871.639	656.804
286.672	15.376	871.162	656.728
287.687	15.290	870.411	655.767
288.701	15.316	870.092	655.571
289.716	15.345	869.714	655.339
290.730	15.249	869.212	654.528
291.745	15.304	868.501	654.149
292.760	15.464	867.479	653.947
293.774	15.424	866.542	653.025
294.789	15.635	866.018	653.394
295.803	15.445	865.434	652.157
296.818	15.255	865.225	651.207
297.833	15.288	864.539	650.758
298.847	15.467	863.344	650.494
299.862	15.429	863.375	650.313
300.876	15.558	862.314	649.955
301.891	15.392	862.330	649.269
302.906	15.597	861.450	649.342
303.920	15.625	861.009	649.060
304.935	15.699	860.606	648.985
305.949	15.690	860.071	648.487
306.964	15.543	859.313	647.293
307.979	15.616	858.905	647.210
308.993	15.671	858.093	646.753
310.008	15.776	857.392	646.570
311.022	15.602	857.344	645.807
312.037	15.701	856.156	645.234
313.052	15.619	855.760	644.564
314.066	15.619	855.152	644.049
315.081	15.584	854.942	643.701
316.095	15.689	854.057	643.379
317.110	15.677	853.733	643.034
318.125	15.753	852.600	642.415
319.139	15.520	852.738	641.570
320.154	15.760	851.949	641.836
321.168	15.831	851.285	641.548
322.183	15.738	850.905	640.851
323.197	15.756	850.493	640.553
324.212	15.921	849.811	640.609
325.227	15.804	849.151	639.613
326.241	15.823	848.555	639.178
327.256	15.860	848.026	638.863
328.270	15.805	847.625	638.296
329.285	15.798	846.923	637.686
330.300	15.830	846.408	637.363
331.314	15.720	846.017	636.594
332.329	15.779	845.653	636.488
333.343	15.900	845.011	636.404
334.358	15.901	845.053	636.384
335.373	15.886	844.297	635.703
336.387	16.000	843.930	635.800
337.402	16.148	843.321	635.841
338.416	15.870	843.929	635.194
339.431	16.062	842.943	635.120
340.446	16.045	842.479	634.653
341.460	16.142	842.056	634.642
342.475	16.179	841.748	634.494
343.489	16.155	841.019	633.797
344.504	16.241	840.969	634.028
345.519	16.283	840.113	633.483
346.533	16.245	839.517	632.835
347.548	16.270	839.020	632.496
348.562	16.145	838.764	631.781
349.577	16.094	838.044	630.992
350.592	16.250	837.281	630.943
351.606	16.098	836.472	629.711
352.621	16.146	836.143	629.588
353.635	16.235	835.249	629.188
354.650	16.372	834.509	629.088
355.665	16.150	834.309	628.055
356.679	16.382	833.418	628.190
357.694	16.292	832.501	627.109
358.708	16.214	832.368	626.663
359.723	16.142	831.987	626.055
360.738	16.305	831.292	626.079
361.752	16.455	830.435	625.934
362.767	16.327	829.948	625.041
363.781	16.360	829.552	624.807
364.796	16.440	829.212	624.790
365.810	16.674	828.425	625.007
366.825	16.573	828.450	624.599
367.840	16.545	827.851	623.990
368.854	16.491	827.521	623.484
369.869	16.521	826.800	622.996
370.883	16.691	826.143	623.074
371.898	16.688	826.080	622.957
372.913	16.560	825.737	622.174
373.927	16.730	825.035	622.216
374.942	16.690	824.849	621.871
375.956	16.605	824.447	621.202
376.971	16.737	823.543	620.950
377.986	16.715	823.459	620.752
379.000	16.740	822.729	620.239
380.015	16.888	822.248	620.361
381.029	16.893	821.721	619.926
382.044	16.720	821.022	618.713
383.059	16.839	820.575	618.757
384.073	16.930	820.035	618.627
385.088	16.850	819.166	617.626
386.102	16.879	818.804	617.403
387.117	16.861	818.340	616.934
388.132	16.789	817.915	616.297
389.146	16.861	817.235	615.990
390.161	16.864	816.693	615.539
391.175	16.976	816.247	615.556
392.190	17.054	815.410	615.151
393.205	16.923	814.911	614.246
394.219	16.899	814.791	614.015
395.234	16.899	814.451	613.704
396.248	16.802	814.083	613.022
397.263	16.894	813.424	612.805
398.278	16.961	813.224	612.840
399.292	16.881	812.987	612.318
400.307	16.861	812.382	611.736
401.321	16.868	811.665	611.168
402.336	16.917	811.519	611.179
403.350	16.935	811.261	610.998
404.365	16.918	810.675	610.440
405.380	17.028	810.005	610.278
406.394	17.165	809.372	610.238
407.409	17.157	809.556	610.295
408.423	17.260	808.992	610.186
409.438	17.298	808.508	609.904
410.453	17.189	808.176	609.207
411.467	17.343	807.490	609.187
412.482	17.356	806.858	608.704
413.496	17.419	806.370	608.507
414.511	17.266	806.551	608.042
415.526	17.359	806.055	607.946
416.540	17.488	805.317	607.796
417.555	17.441	804.504	606.961
418.569	17.363	804.589	606.696
419.584	17.292	804.208	606.102
420.599	17.495	803.488	606.227
421.613	110.191	1292.880	1473.913
422.628	94.973	1364.154	1474.006
