DTS Sentinel unit serial number:	SN413079Multiplexer serial number:	ORYXHardware model number:	OX4-SRSoftware version number:	ORYX F/W v4.00 Oryx Data Collector v3.7.2.0data status	okinstallation	princeton_trtdifferential loss correction	single-endedforward channel	channel 1reverse channel	N/Adate	2019/09/16time	13:06:35forward acquisition time	60.00reverse acquisition time	0.00gamma	496.2192k internal	0.2294k external	0.2294temperature offset calibration	0.9947default loss term (dB/km)	0.3790temperature slope calibration	1.0000multiplexer offset coefficient	1.0000multiplexer slope coefficient	1.0000fibre end	0.00T internal ref (°C)	40.81T ext. ref 1 (°C)	13.63T ext. ref 2 (°C)	38.75length (m)	temperature (°C)	Stokes	anti-Stokes-747.200	-200.000	-0.032	0.170
-746.185	509.912	0.038	0.090
-745.171	-164.112	0.243	0.012
-744.156	-48.227	-0.082	-0.041
-743.142	-200.000	-0.007	-0.091
-742.127	-8.818	-0.149	0.102
-741.112	-200.000	0.002	0.138
-740.098	800.000	-0.063	0.195
-739.083	21.422	0.260	0.216
-738.069	-26.718	-0.193	-0.116
-737.054	101.748	0.238	-0.283
-736.039	250.490	-0.117	-0.203
-735.025	573.780	0.046	0.116
-734.010	-6.597	-0.250	0.174
-732.996	328.457	-0.093	-0.182
-731.981	-114.533	-0.132	-0.026
-730.966	423.166	-0.192	0.422
-729.952	14.641	-0.144	-0.115
-728.937	-200.000	0.046	-0.297
-727.923	-116.781	-0.071	0.013
-726.908	800.000	0.029	-0.095
-725.894	-7.111	-0.205	-0.142
-724.879	-180.555	-0.336	0.007
-723.864	-86.607	0.175	0.055
-722.850	-143.852	-0.359	0.035
-721.835	316.502	-0.103	0.199
-720.821	-97.570	-0.332	0.088
-719.806	281.138	-0.181	0.331
-718.791	98.250	0.213	0.250
-717.777	26.929	0.286	-0.245
-716.762	-200.000	0.032	0.240
-715.748	-58.710	0.234	0.104
-714.733	-88.187	-0.349	0.107
-713.718	-200.000	0.022	-0.161
-712.704	78.515	0.127	0.139
-711.689	-62.834	0.157	-0.066
-710.675	800.000	0.047	0.137
-709.660	-79.740	0.207	-0.071
-708.645	-159.141	0.132	-0.008
-707.631	-57.729	0.268	-0.120
-706.616	-169.005	-0.137	-0.005
-705.602	-6.520	-0.236	-0.164
-704.587	354.813	0.166	-0.338
-703.572	-200.000	-0.016	-0.180
-702.558	-200.000	-0.036	0.303
-701.543	-95.608	-0.306	-0.084
-700.529	96.265	0.052	0.060
-699.514	77.261	-0.232	0.252
-698.499	-47.378	0.045	0.022
-697.485	-76.637	0.306	0.109
-696.470	-51.482	-0.075	0.036
-695.456	-147.892	-0.321	0.027
-694.441	-109.336	0.236	-0.051
-693.426	-200.000	-0.042	-0.190
-692.412	197.729	0.130	0.203
-691.397	157.687	0.118	-0.167
-690.383	431.737	0.063	0.140
-689.368	800.000	0.126	0.381
-688.354	-200.000	-0.004	-0.317
-687.339	-94.425	-0.158	0.044
-686.324	262.514	0.043	0.075
-685.310	-200.000	0.018	0.264
-684.295	-7.285	0.138	-0.096
-683.281	112.805	-0.108	-0.134
-682.266	-200.000	-0.011	0.350
-681.251	-46.262	-0.074	-0.037
-680.237	-200.000	-0.041	-0.339
-679.222	800.000	0.032	-0.133
-678.208	800.000	0.025	0.110
-677.193	-184.223	0.155	-0.003
-676.178	800.000	0.026	0.086
-675.164	-40.841	0.258	-0.136
-674.149	-127.853	-0.378	0.056
-673.135	-17.269	-0.309	-0.198
-672.120	-168.764	0.290	-0.011
-671.105	398.387	-0.069	0.147
-670.091	-126.332	0.269	-0.041
-669.076	-72.555	0.390	0.147
-668.062	-126.296	-0.223	0.034
-667.047	349.834	-0.077	-0.156
-666.032	17.375	-0.192	-0.155
-665.018	125.053	-0.269	0.346
-664.003	-40.205	0.022	0.012
-662.989	109.406	0.138	-0.168
-661.974	436.696	0.104	0.232
-660.959	-103.497	-0.349	-0.084
-659.945	-125.733	0.064	-0.010
-658.930	-64.937	-0.114	-0.047
-657.916	314.280	-0.291	-0.558
-656.901	121.459	0.047	0.060
-655.886	800.000	-0.014	0.054
-654.872	-200.000	0.064	-0.375
-653.857	101.609	-0.029	0.035
-652.843	800.000	0.085	-0.239
-651.828	800.000	-0.200	-0.597
-650.814	-91.996	-0.055	0.016
-649.799	-8.026	0.164	0.113
-648.784	161.455	-0.035	0.050
-647.770	92.655	-0.086	0.099
-646.755	230.022	-0.179	-0.298
-645.741	46.509	0.180	0.171
-644.726	-103.958	0.213	-0.051
-643.711	-160.075	-0.028	-0.002
-642.697	84.203	0.248	-0.276
-641.682	-200.000	-0.008	-0.055
-640.668	-200.000	0.017	-0.147
-639.653	224.195	-0.099	-0.162
-638.638	-32.166	-0.134	-0.076
-637.624	52.767	-0.274	0.267
-636.609	-9.676	-0.240	0.163
-635.595	108.638	0.091	-0.110
-634.580	169.910	-0.143	0.208
-633.565	363.104	-0.099	0.202
-632.551	434.529	0.069	-0.152
-631.536	42.993	0.145	0.134
-630.522	-80.394	-0.287	0.098
-629.507	15.122	-0.149	0.119
-628.492	234.335	-0.288	-0.483
-627.478	-200.000	-0.043	-0.210
-626.463	-136.572	0.323	0.038
-625.449	-28.202	0.072	0.043
-624.434	-24.057	-0.170	0.103
-623.419	223.402	-0.058	-0.096
-622.405	150.697	0.104	0.144
-621.390	66.604	-0.028	-0.029
-620.376	800.000	-0.034	0.116
-619.361	744.627	0.080	-0.220
-618.346	281.694	-0.094	-0.171
-617.332	-200.000	0.002	0.315
-616.317	-55.977	0.308	-0.140
-615.303	15.633	0.243	-0.194
-614.288	138.594	0.183	0.244
-613.273	18.914	-0.032	0.026
-612.259	-117.800	0.254	0.046
-611.244	800.000	-0.036	0.122
-610.230	228.212	0.100	-0.166
-609.215	167.617	-0.167	0.241
-608.201	31.087	0.079	0.069
-607.186	-200.000	0.010	-0.166
-606.171	71.407	-0.147	-0.155
-605.157	-81.907	-0.326	0.109
-604.142	-162.152	0.161	0.008
-603.128	362.923	0.084	0.171
-602.113	84.911	-0.020	-0.022
-601.098	-57.378	-0.294	0.131
-600.084	-200.000	0.001	0.235
-599.069	126.935	-0.079	-0.102
-598.055	-200.000	-0.003	-0.070
-597.040	-200.000	-0.004	0.038
-596.025	800.000	-0.097	0.354
-595.011	65.378	0.083	-0.086
-593.996	-1.645	0.306	-0.219
-592.982	299.449	0.064	0.120
-591.967	56.109	0.159	0.157
-590.952	645.069	-0.037	0.095
-589.938	174.928	-0.147	0.216
-588.923	-51.248	-0.236	0.112
-587.909	-200.000	-0.021	-0.126
-586.894	-15.611	-0.173	0.112
-585.879	255.182	-0.015	0.027
-584.865	-62.575	-0.353	0.149
-583.850	800.000	0.049	-0.185
-582.836	800.000	0.015	0.056
-581.821	-52.348	-0.091	-0.043
-580.806	800.000	-0.043	0.123
-579.792	-6.927	-0.058	0.040
-578.777	-149.984	-0.237	0.019
-577.763	-105.790	0.388	-0.089
-576.748	-200.000	0.011	0.464
-575.733	457.355	-0.111	-0.250
-574.719	-200.000	0.001	0.245
-573.704	97.848	-0.142	0.165
-572.690	-200.000	0.016	-0.173
-571.675	-200.000	-0.075	-0.363
-570.661	39.393	0.084	-0.076
-569.646	73.883	0.191	0.204
-568.631	-189.072	0.248	-0.003
-567.617	-200.000	0.024	0.464
-566.602	-115.739	0.494	-0.094
-565.588	233.599	0.042	-0.070
-564.573	112.936	-0.050	-0.061
-563.558	-17.970	0.177	-0.112
-562.544	308.673	-0.147	0.278
-561.529	-41.133	0.190	-0.100
-560.515	-64.078	-0.147	-0.061
-559.500	-76.538	0.350	0.125
-558.485	-200.000	-0.012	-0.244
-557.471	169.440	-0.055	0.079
-556.456	108.830	0.086	-0.105
-555.442	-19.196	-0.121	0.076
-554.427	-200.000	-0.003	-0.043
-553.412	-30.461	-0.178	-0.103
-552.398	705.030	0.139	-0.372
-551.383	609.244	-0.074	-0.188
-550.369	10.428	-0.409	0.316
-549.354	-11.996	-0.250	-0.166
-548.339	-73.982	-0.124	0.046
-547.325	-50.684	-0.110	0.053
-546.310	100.311	-0.156	-0.184
-545.296	-145.457	-0.196	0.018
-544.281	44.854	-0.074	0.069
-543.266	360.231	-0.077	0.157
-542.252	-117.430	0.134	-0.025
-541.237	-200.000	-0.023	-0.134
-540.223	800.000	0.137	-0.417
-539.208	800.000	0.066	0.265
-538.193	-200.000	-0.052	0.453
-537.179	287.719	0.150	0.274
-536.164	125.972	0.240	0.308
-535.150	-96.397	-0.221	0.059
-534.135	-101.348	-0.319	-0.079
-533.121	800.000	-0.038	-0.130
-532.106	-105.159	0.105	0.024
-531.091	-152.485	-0.191	-0.014
-530.077	42.793	0.066	0.061
-529.062	-80.991	-0.239	0.080
-528.048	85.566	-0.133	-0.149
-527.033	-66.432	0.433	0.174
-526.018	-52.880	0.165	-0.077
-525.004	-19.857	0.248	-0.155
-523.989	-200.000	-0.005	-0.033
-522.975	-122.533	0.185	-0.031
-521.960	-90.633	0.399	-0.117
-520.945	-200.000	0.018	-0.101
-519.931	-151.845	0.361	0.027
-518.916	-200.000	-0.038	0.187
-517.902	92.460	-0.083	-0.094
-516.887	800.000	-0.077	-0.224
-515.872	59.688	0.267	-0.267
-514.858	-200.000	0.001	-0.090
-513.843	-200.000	0.004	0.216
-512.829	-115.678	0.283	0.054
-511.814	86.991	-0.145	0.163
-510.799	-41.239	0.116	0.061
-509.785	-105.561	0.283	0.065
-508.770	-26.023	0.057	0.034
-507.756	147.230	0.145	-0.198
-506.741	-5.201	-0.112	0.078
-505.726	144.228	0.171	0.232
-504.712	71.494	-0.132	-0.138
-503.697	-200.000	0.006	-0.132
-502.683	-200.000	0.022	0.179
-501.668	12.355	0.162	0.126
-500.653	800.000	-0.056	-0.192
-499.639	-200.000	-0.339	0.000
-498.624	44.561	-0.093	0.086
-497.610	-107.368	-0.245	0.055
-496.595	-27.970	0.275	-0.161
-495.581	-177.563	-0.166	0.004
-494.566	-71.700	0.242	0.091
-493.551	270.790	0.197	0.352
-492.537	29.589	0.069	-0.060
-491.522	-0.818	0.172	0.123
-490.508	-200.000	0.391	0.002
-489.493	-138.125	0.178	0.020
-488.478	-140.198	0.149	0.016
-487.464	-200.000	0.005	-0.414
-486.449	-200.000	0.096	0.428
-485.435	-200.000	-0.019	0.112
-484.420	381.982	0.018	-0.038
-483.405	-109.275	-0.243	0.052
-482.391	-200.000	-0.037	-0.397
-481.376	172.620	-0.109	-0.159
-480.362	-10.096	0.122	-0.082
-479.347	-27.966	-0.153	-0.090
-478.332	-20.723	0.219	-0.136
-477.318	800.000	-0.130	-0.400
-476.303	60.901	0.124	-0.124
-475.289	295.683	-0.134	0.249
-474.274	-153.560	-0.156	0.011
-473.259	63.364	-0.080	0.081
-472.245	-80.427	0.222	0.075
-471.230	800.000	-0.110	-0.373
-470.216	-23.137	-0.133	0.081
-469.201	-130.811	0.172	-0.023
-468.186	267.600	0.078	-0.139
-467.172	-187.698	-0.274	0.004
-466.157	-200.000	0.034	-0.424
-465.143	121.181	-0.097	0.122
-464.128	-146.693	0.185	0.016
-463.113	-54.104	0.306	0.141
-462.099	490.542	0.105	0.243
-461.084	656.774	-0.160	-0.415
-460.070	10.901	0.076	0.059
-459.055	355.839	0.064	-0.129
-458.040	-29.695	0.220	0.127
-457.026	-107.662	0.264	0.058
-456.011	452.783	0.067	-0.150
-454.997	304.192	-0.116	0.217
-453.982	-200.000	-0.024	-0.236
-452.968	-35.828	-0.162	0.089
-451.953	-111.583	-0.265	0.054
-450.938	-200.000	0.025	-0.117
-449.924	574.712	0.058	-0.143
-448.909	58.412	0.441	0.437
-447.895	78.811	-0.026	-0.028
-446.880	-8.407	0.009	-0.006
-445.865	179.733	-0.101	-0.150
-444.851	800.000	-0.034	0.096
-443.836	-91.892	-0.144	0.041
-442.822	800.000	0.051	-0.150
-441.807	-47.779	0.281	0.138
-440.792	-188.696	0.139	0.002
-439.778	41.041	0.209	0.191
-438.763	107.259	-0.201	0.242
-437.749	800.000	0.055	0.225
-436.734	-200.000	-0.004	0.033
-435.719	-200.000	-0.010	0.079
-434.705	-43.647	0.243	0.124
-433.690	-19.982	-0.172	-0.107
-432.676	-15.641	-0.186	0.120
-431.661	226.988	-0.144	-0.236
-430.646	-200.000	0.002	0.191
-429.632	-28.916	0.284	0.165
-428.617	-188.552	0.252	-0.003
-427.603	389.444	0.050	0.105
-426.588	116.610	0.094	-0.117
-425.573	-100.062	-0.169	0.043
-424.559	-200.000	-0.051	-0.271
-423.544	-111.328	-0.256	0.053
-422.530	-200.000	-0.070	-0.494
-421.515	-200.000	-0.016	-0.225
-420.500	10.210	0.129	-0.099
-419.486	113.653	0.137	-0.168
-418.471	800.000	-0.087	-0.318
-417.457	545.910	0.124	0.300
-416.442	-17.670	0.250	0.158
-415.428	175.552	0.063	0.092
-414.413	140.181	0.063	-0.083
-413.398	-125.443	-0.246	-0.038
-412.384	-200.000	0.097	-0.530
-411.369	597.882	-0.086	-0.214
-410.355	5.410	0.255	-0.190
-409.340	317.112	0.053	-0.102
-408.325	-74.621	-0.424	0.154
-407.311	44.811	-0.194	0.180
-406.296	-77.999	-0.111	-0.038
-405.282	295.096	0.104	0.192
-404.267	-73.074	-0.209	0.078
-403.252	-53.313	-0.271	-0.125
-402.238	-68.925	-0.194	-0.075
-401.223	356.071	-0.135	-0.272
-400.209	-108.909	-0.132	-0.029
-399.194	-114.589	0.336	-0.065
-398.179	-111.940	-0.201	-0.041
-397.165	265.766	0.154	-0.271
-396.150	-200.000	-0.051	-0.244
-395.136	-46.821	0.183	-0.090
-394.121	-200.000	-0.051	0.259
-393.106	344.727	-0.099	-0.196
-392.092	-200.000	-0.033	0.149
-391.077	754.477	0.074	0.201
-390.063	72.640	0.241	-0.254
-389.048	20.354	0.241	-0.196
-388.033	800.000	-0.056	-0.169
-387.019	44.896	-0.129	0.120
-386.004	291.018	0.081	-0.149
-384.990	157.214	0.214	-0.299
-383.975	181.037	0.031	0.046
-382.960	138.190	-0.131	-0.174
-381.946	54.083	-0.132	0.128
-380.931	-200.000	-0.015	-0.330
-379.917	-121.757	0.170	0.028
-378.902	-141.331	-0.272	-0.028
-377.888	-94.764	-0.125	-0.034
-376.873	-95.903	-0.275	0.074
-375.858	-52.586	0.133	-0.062
-374.844	-94.073	-0.158	0.044
-373.829	22.657	0.271	0.224
-372.815	119.680	-0.045	0.056
-371.800	221.154	-0.145	-0.234
-370.785	111.982	0.029	0.036
-369.771	263.567	0.134	0.236
-368.756	103.564	-0.229	0.271
-367.742	-3.000	0.310	0.218
-366.727	-200.000	-0.031	-0.172
-365.712	510.215	0.058	0.137
-364.698	480.808	0.116	0.265
-363.683	276.629	0.139	0.248
-362.669	-34.715	-0.074	-0.041
-361.654	800.000	0.143	-0.514
-360.639	-77.253	0.401	0.141
-359.625	-111.482	-0.189	-0.039
-358.610	800.000	-0.036	0.115
-357.596	24.135	-0.035	0.029
-356.581	-157.435	-0.122	-0.007
-355.566	20.035	-0.117	0.095
-354.552	-63.114	-0.105	0.044
-353.537	-8.076	-0.199	-0.135
-352.523	-54.411	0.068	-0.031
-351.508	156.222	0.101	-0.140
-350.493	-200.000	-0.011	0.254
-349.479	-69.987	0.059	0.022
-348.464	-120.424	-0.246	-0.042
-347.450	800.000	-0.056	0.168
-346.435	-125.063	-0.191	-0.029
-345.420	222.371	-0.131	0.211
-344.406	48.926	-0.095	0.090
-343.391	0.073	-0.053	-0.038
-342.377	31.674	-0.125	0.109
-341.362	-45.034	0.185	-0.092
-340.348	99.793	0.057	0.067
-339.333	-36.770	0.125	-0.068
-338.318	-8.982	0.337	-0.227
-337.304	122.417	-0.131	-0.165
-336.289	-200.000	0.003	0.234
-335.275	-144.377	-0.204	0.019
-334.260	43.778	0.160	0.148
-333.245	-46.540	-0.174	-0.086
-332.231	-200.000	-0.000	-0.012
-331.216	338.184	-0.152	-0.298
-330.202	170.288	0.118	0.170
-329.187	-95.328	-0.194	0.052
-328.172	62.243	0.009	-0.009
-327.158	-109.384	0.106	-0.023
-326.143	-117.884	-0.062	0.011
-325.129	-64.926	-0.039	0.016
-324.114	-144.601	0.145	-0.013
-323.099	-127.498	0.133	0.019
-322.085	-200.000	-0.054	-0.592
-321.070	150.184	0.131	0.179
-320.056	-4.014	-0.114	0.080
-319.041	77.301	0.201	0.215
-318.026	-88.023	0.179	-0.054
-317.012	-65.865	0.358	0.144
-315.997	796.860	0.169	0.467
-314.983	-200.000	0.062	0.356
-313.968	-33.981	-0.424	0.235
-312.953	-46.145	0.191	-0.095
-311.939	-28.195	0.098	0.057
-310.924	-200.000	-0.015	-0.347
-309.910	508.293	-0.074	-0.172
-308.895	-200.000	-0.025	0.227
-307.880	190.583	-0.204	0.308
-306.866	-11.191	-0.336	0.222
-305.851	669.047	-0.047	0.121
-304.837	116.224	-0.148	-0.183
-303.822	176.167	0.124	0.181
-302.807	-200.000	0.014	-0.258
-301.793	-23.823	0.128	-0.077
-300.778	-158.230	0.280	0.016
-299.764	259.489	-0.118	0.204
-298.749	288.503	-0.070	-0.128
-297.735	61.726	0.248	0.249
-296.720	-97.926	0.211	-0.055
-295.705	144.897	-0.081	-0.109
-294.691	208.157	-0.040	-0.062
-293.676	-134.100	-0.474	-0.059
-292.662	0.095	-0.023	-0.016
-291.647	35.590	0.257	-0.227
-290.632	-186.632	-0.341	0.005
-289.618	-40.227	0.145	-0.076
-288.603	-87.463	-0.135	-0.041
-287.589	754.840	0.084	-0.229
-286.574	-200.000	0.056	-0.326
-285.559	-200.000	-0.016	0.082
-284.545	-22.048	0.209	0.128
-283.530	353.423	-0.124	-0.247
-282.516	-200.000	0.005	0.093
-281.501	-200.000	-0.013	-0.193
-280.486	-72.117	-0.648	-0.242
-279.472	123.777	-0.130	-0.164
-278.457	-39.486	-0.282	0.148
-277.443	415.905	-0.116	0.248
-276.428	-116.286	-0.312	-0.058
-275.413	-175.997	-0.108	0.003
-274.399	30.652	0.106	-0.091
-273.384	-39.085	0.129	-0.068
-272.370	177.364	0.087	-0.127
-271.355	-200.000	-0.002	0.141
-270.340	443.641	0.169	0.372
-269.326	-200.000	-0.004	-0.225
-268.311	261.554	-0.120	0.208
-267.297	-145.975	0.231	-0.021
-266.282	-200.000	0.001	0.057
-265.267	-200.000	0.055	-0.315
-264.253	-83.534	0.168	0.054
-263.238	-139.684	0.086	-0.009
-262.224	-200.000	-0.039	-0.391
-261.209	61.954	-0.078	-0.078
-260.195	9.126	0.187	-0.142
-259.180	295.106	-0.160	0.294
-258.165	-200.000	-0.086	0.516
-257.151	107.273	-0.126	-0.151
-256.136	725.514	-0.052	-0.140
-255.122	-152.704	0.300	-0.021
-254.107	-200.000	-0.030	0.183
-253.092	723.773	-0.012	0.032
-252.078	10.421	-0.076	-0.058
-251.063	-17.897	-0.242	-0.152
-250.049	-69.998	-0.113	0.043
-249.034	800.000	-0.127	0.448
-248.019	102.949	0.046	-0.054
-247.005	-200.000	-0.017	-0.260
-245.990	386.877	0.148	-0.306
-244.976	-157.523	-0.169	0.010
-243.961	121.983	-0.258	0.323
-242.946	351.165	0.069	-0.136
-241.932	-29.011	0.175	0.101
-240.917	-68.331	0.147	-0.057
-239.903	349.018	0.121	-0.240
-238.888	43.579	0.132	0.121
-237.873	-200.000	-0.033	0.250
-236.859	49.760	0.018	-0.017
-235.844	-61.589	0.162	0.068
-234.830	118.422	-0.087	0.107
-233.815	392.366	-0.131	-0.273
-232.800	17.990	-0.094	0.075
-231.786	-10.095	-0.094	0.063
-230.771	-96.511	-0.304	0.080
-229.757	657.413	0.099	-0.255
-228.742	-133.386	-0.233	-0.029
-227.727	-73.762	-0.208	-0.076
-226.713	-59.593	-0.099	0.043
-225.698	-30.456	0.263	-0.150
-224.684	31.320	-0.242	0.208
-223.669	616.215	-0.039	0.098
-222.655	400.392	-0.087	-0.183
-221.640	-25.556	0.238	0.141
-220.625	75.214	-0.194	0.205
-219.611	795.619	0.135	0.373
-218.596	-200.000	0.011	0.061
-217.582	-148.792	-0.195	0.016
-216.567	-84.048	-0.215	0.068
-215.552	456.003	0.140	0.311
-214.538	-36.100	0.125	0.068
-213.523	277.406	0.063	-0.112
-212.509	-17.994	-0.263	0.165
-211.494	496.549	-0.064	-0.146
-210.479	-200.000	0.019	0.196
-209.465	-17.431	-0.192	0.121
-208.450	-161.512	0.166	-0.009
-207.436	-200.000	0.004	-0.357
-206.421	-81.897	0.247	0.081
-205.406	-200.000	-0.020	-0.128
-204.392	-200.000	-0.068	0.298
-203.377	800.000	0.097	0.392
-202.363	-10.390	-0.071	-0.047
-201.348	-200.000	-0.020	0.272
-200.333	80.624	-0.132	-0.142
-199.319	20.302	0.112	-0.091
-198.304	198.437	-0.211	-0.323
-197.290	-200.000	-0.038	-0.187
-196.275	-22.271	-0.183	0.111
-195.260	-150.789	-0.337	0.026
-194.246	103.924	0.119	-0.140
-193.231	489.311	0.066	-0.151
-192.217	369.235	-0.124	0.250
-191.202	111.510	0.050	-0.061
-190.187	-74.742	0.126	0.045
-189.173	-25.314	0.136	-0.080
-188.158	-32.111	0.395	0.221
-187.144	-0.336	0.176	0.125
-186.129	-73.494	0.181	-0.066
-185.114	321.550	0.026	0.049
-184.100	-182.720	0.504	-0.009
-183.085	-15.225	0.046	0.029
-182.071	-68.480	-0.206	-0.080
-181.056	-59.792	-0.120	-0.051
-180.042	-64.678	-0.334	0.136
-179.027	186.015	-0.104	0.155
-178.012	-125.790	-0.153	0.023
-176.998	137.474	0.079	-0.104
-175.983	117.227	-0.157	-0.193
-174.969	-200.000	0.228	-0.000
-173.954	10.983	0.072	-0.055
-172.939	38.207	0.118	-0.105
-171.925	337.776	0.055	0.107
-170.910	-200.000	-0.044	0.196
-169.896	-91.717	-0.176	-0.050
-168.881	680.994	-0.035	0.090
-167.866	-200.000	0.009	0.229
-166.852	394.366	-0.024	0.049
-165.837	-200.000	-0.028	-0.345
-164.823	267.610	0.168	-0.294
-163.808	800.000	0.064	0.279
-162.793	-124.412	0.151	-0.023
-161.779	101.835	-0.110	-0.128
-160.764	-65.959	-0.115	-0.046
-159.750	-200.000	-0.032	0.254
-158.735	-100.577	-0.150	-0.037
-157.720	-200.000	-0.043	0.191
-156.706	52.699	0.129	-0.123
-155.691	444.421	0.039	-0.086
-154.677	-91.253	0.096	0.027
-153.662	-10.803	-0.178	-0.118
-152.647	800.000	0.075	-0.290
-151.633	800.000	-0.104	-0.298
-150.618	-35.987	-0.290	0.157
-149.604	-200.000	-0.029	0.144
-148.589	-80.264	-0.309	0.103
-147.574	-186.024	0.360	-0.005
-146.560	111.446	0.139	-0.168
-145.545	480.217	-0.090	0.203
-144.531	237.645	0.078	0.130
-143.516	260.281	-0.141	0.244
-142.502	-200.000	-0.044	0.394
-141.487	181.836	-0.067	-0.098
-140.472	106.532	0.032	0.037
-139.458	-24.243	-0.056	-0.033
-138.443	-200.000	0.004	-0.080
-137.429	-3.882	0.374	-0.259
-136.414	396.095	0.150	-0.313
-135.399	167.728	0.129	0.183
-134.385	-128.623	0.191	0.027
-133.370	-37.228	-0.251	0.134
-132.356	-27.446	-0.057	-0.033
-131.341	132.585	-0.101	-0.130
-130.326	146.822	-0.306	-0.410
-129.312	-88.194	-0.128	-0.038
-128.297	-76.689	-0.239	0.084
-127.283	-200.000	0.021	0.387
-126.268	195.954	-0.144	0.218
-125.253	-200.000	0.052	-0.352
-124.239	-104.490	-0.118	-0.027
-123.224	800.000	0.020	0.074
-122.210	-200.000	-0.012	-0.323
-121.195	16.779	-0.146	0.115
-120.180	429.972	0.146	0.316
-119.166	-113.431	-0.279	0.054
-118.151	-200.000	-0.049	0.251
-117.137	-169.539	0.299	0.011
-116.122	800.000	-0.056	0.182
-115.107	389.827	0.139	-0.287
-114.093	800.000	0.063	0.247
-113.078	111.008	0.109	-0.130
-112.064	141.092	0.040	0.053
-111.049	178.592	-0.077	-0.113
-110.034	-72.917	0.011	-0.004
-109.020	-126.374	-0.108	0.016
-108.005	-200.000	-0.045	0.279
-106.991	-112.700	-0.184	-0.036
-105.976	54.258	-0.102	-0.098
-104.962	-37.823	0.328	0.174
-103.947	-200.000	-0.017	-0.153
-102.932	-200.000	-0.025	0.154
-101.918	65.222	0.271	-0.273
-100.903	377.554	0.146	0.297
-99.889	-123.495	0.374	0.059
-98.874	-31.514	0.141	0.079
-97.859	233.565	0.126	-0.206
-96.845	-150.072	0.058	0.005
-95.830	-162.754	-0.284	-0.014
-94.816	800.000	0.176	0.570
-93.801	167.855	-0.142	0.201
-92.786	800.000	0.083	-0.287
-91.772	800.000	0.060	-0.223
-90.757	425.882	-0.082	0.175
-89.743	-200.000	-0.010	0.338
-88.728	800.000	0.095	0.279
-87.713	258.913	0.147	0.253
-86.699	192.053	-0.064	-0.097
-85.684	92.302	-0.213	0.239
-84.670	-65.292	0.184	-0.074
-83.655	-83.626	-0.241	-0.077
-82.640	-22.746	-0.495	0.298
-81.626	-79.583	-0.136	0.046
-80.611	66.912	0.220	0.224
-79.597	85.532	-0.112	-0.123
-78.582	2.220	0.188	0.135
-77.567	353.879	0.152	0.300
-76.553	345.567	-0.104	0.204
-75.538	90.902	0.202	0.226
-74.524	-177.686	0.379	-0.009
-73.509	-128.953	0.239	0.033
-72.494	-117.955	0.371	-0.066
-71.480	118.058	-0.099	-0.122
-70.465	-181.493	0.277	0.005
-69.451	-65.435	0.447	0.179
-68.436	-121.307	-0.342	0.057
-67.422	667.790	-0.147	-0.378
-66.407	-78.939	0.136	0.046
-65.392	150.070	0.112	0.151
-64.378	800.000	-0.066	0.199
-63.363	800.000	0.114	0.489
-62.349	-65.223	0.301	0.121
-61.334	121.888	-0.261	-0.324
-60.319	726.815	-0.101	0.267
-59.305	256.755	-0.529	-0.905
-58.290	391.594	0.342	0.708
-57.276	673.541	0.621	1.603
-56.261	-200.000	76.669	516.906
-55.246	511.284	1342.724	3111.117
-54.232	141.515	2594.043	3419.065
-53.217	116.626	2254.333	2752.609
-52.203	52.691	1690.915	1608.216
-51.188	44.529	1410.983	1290.434
-50.173	41.008	1364.472	1226.192
-49.159	59.294	1400.149	1372.402
-48.144	65.828	1418.497	1430.916
-47.130	45.014	1381.368	1266.160
-46.115	40.964	1364.872	1226.086
-45.100	40.747	1359.754	1220.104
-44.086	40.735	1357.262	1217.747
-43.071	40.666	1354.760	1215.032
-42.057	40.621	1353.047	1213.170
-41.042	40.575	1351.345	1211.317
-40.027	40.678	1349.651	1210.378
-39.013	40.715	1347.705	1208.811
-37.998	40.734	1345.478	1206.877
-36.984	40.800	1343.600	1205.549
-35.969	40.821	1342.243	1204.408
-34.954	40.938	1340.510	1203.517
-33.940	40.935	1339.092	1202.173
-32.925	40.954	1337.886	1201.162
-31.911	41.056	1336.217	1200.227
-30.896	40.977	1334.760	1198.400
-29.881	40.835	1334.019	1196.832
-28.867	40.940	1332.097	1195.691
-27.852	40.886	1330.683	1194.048
-26.838	40.798	1329.595	1192.495
-25.823	40.927	1327.671	1191.496
-24.809	40.806	1326.330	1189.522
-23.794	40.904	1324.830	1188.712
-22.779	40.771	1323.536	1186.710
-21.765	40.877	1322.317	1186.201
-20.750	40.921	1320.630	1184.905
-19.736	40.777	1319.648	1183.121
-18.721	40.746	1318.537	1181.894
-17.706	40.757	1317.066	1180.594
-16.692	40.827	1315.608	1179.655
-15.677	40.766	1314.935	1178.642
-14.663	40.773	1313.833	1177.648
-13.648	40.732	1312.764	1176.399
-12.633	40.777	1311.221	1175.238
-11.619	40.745	1310.724	1174.559
-10.604	40.743	1309.803	1173.672
-9.590	40.900	1308.397	1173.292
-8.575	40.641	1308.104	1171.457
-7.560	40.791	1307.034	1171.335
-6.546	40.705	1305.779	1169.661
-5.531	40.583	1305.294	1168.457
-4.517	40.650	1304.480	1168.077
-3.502	40.808	1303.091	1167.718
-2.487	40.828	1301.909	1166.730
-1.473	40.822	1298.914	1163.963
-0.458	40.095	1284.308	1146.614
0.556	34.855	1265.337	1107.177
1.571	30.805	1269.419	1087.062
2.586	29.210	1283.606	1089.688
3.600	27.639	1271.932	1070.465
4.615	23.471	1200.483	987.098
5.629	17.048	1124.393	890.847
6.644	13.938	1102.485	857.383
7.659	13.604	1099.957	853.622
8.673	13.499	1098.911	852.194
9.688	13.489	1096.974	850.562
10.702	13.874	1096.028	851.730
11.717	17.679	1101.699	875.645
12.731	21.784	1106.044	900.144
13.746	20.367	1102.649	890.046
14.761	17.778	1098.905	873.701
15.775	16.396	1096.447	864.602
16.790	15.454	1093.898	857.701
17.804	14.637	1092.384	852.268
18.819	14.269	1091.213	849.404
19.834	13.920	1089.976	846.588
20.848	13.574	1089.268	844.202
21.863	13.411	1088.166	842.440
22.877	13.145	1087.480	840.482
23.892	13.136	1086.570	839.659
24.907	13.183	1085.821	839.244
25.921	13.254	1084.919	838.834
26.936	13.321	1083.479	837.986
27.950	13.313	1082.345	836.991
28.965	13.385	1080.497	835.854
29.980	13.448	1078.832	834.810
30.994	13.439	1077.704	833.817
32.009	13.462	1076.810	833.169
33.023	13.475	1075.822	832.394
34.038	13.474	1074.410	831.225
35.053	13.400	1073.946	830.422
36.067	13.396	1072.319	829.069
37.082	13.472	1071.561	828.792
38.096	13.497	1071.079	828.467
39.111	13.372	1070.533	827.345
40.126	13.295	1069.282	825.926
41.140	13.184	1068.232	824.486
42.155	13.167	1066.619	823.081
43.169	13.113	1065.740	822.064
44.184	13.112	1064.729	821.207
45.199	13.192	1063.371	820.483
46.213	13.124	1062.860	819.678
47.228	13.150	1061.857	818.959
48.242	13.330	1060.260	818.547
49.257	13.392	1059.079	817.869
50.271	13.339	1058.477	817.071
51.286	13.262	1057.769	816.074
52.301	13.373	1056.055	815.225
53.315	13.326	1055.034	814.132
54.330	13.251	1054.197	813.044
55.344	13.171	1053.429	811.989
56.359	13.243	1052.651	811.671
57.374	13.192	1051.347	810.346
58.388	13.135	1050.881	809.633
59.403	13.267	1049.726	809.318
60.417	13.114	1049.204	808.097
61.432	13.023	1048.338	806.913
62.447	13.120	1047.234	806.466
63.461	13.081	1046.603	805.719
64.476	12.969	1045.808	804.486
65.490	13.126	1044.549	804.214
66.505	13.145	1043.933	803.760
67.520	13.276	1043.083	803.670
68.534	13.250	1042.369	802.923
69.549	13.164	1041.729	801.941
70.563	13.082	1040.952	800.875
71.578	13.064	1040.337	800.245
72.593	12.966	1039.489	799.048
73.607	13.009	1038.649	798.540
74.622	13.076	1037.833	798.163
75.636	13.155	1036.673	797.581
76.651	13.073	1036.383	796.893
77.666	13.074	1035.735	796.329
78.680	12.991	1035.484	795.663
79.695	13.151	1034.440	795.564
80.709	13.136	1033.965	795.056
81.724	13.179	1033.512	794.844
82.739	13.338	1032.297	794.605
83.753	13.244	1032.228	794.029
84.768	13.360	1030.809	793.422
85.782	13.485	1029.582	793.005
86.797	13.383	1029.094	792.071
87.812	13.308	1027.867	790.697
88.826	13.291	1027.005	789.885
89.841	13.286	1025.963	788.989
90.855	13.510	1025.218	789.416
91.870	13.434	1024.344	788.311
92.884	13.413	1023.454	787.455
93.899	13.454	1022.640	786.953
94.914	13.379	1022.208	786.197
95.928	13.446	1021.247	785.707
96.943	13.473	1019.778	784.632
97.957	13.307	1019.303	783.411
98.972	13.520	1018.145	783.461
99.987	13.438	1017.331	782.379
101.001	13.353	1016.667	781.398
102.016	13.405	1015.473	780.653
103.030	13.590	1014.511	780.719
104.045	13.417	1013.813	779.298
105.060	13.311	1013.226	778.277
106.074	13.238	1012.436	777.261
107.089	13.221	1010.880	775.917
108.103	13.289	1009.514	775.116
109.118	13.158	1009.046	774.079
110.133	13.156	1008.400	773.500
111.147	13.258	1007.451	773.182
112.162	13.306	1006.655	772.729
113.176	13.269	1006.130	772.085
114.191	13.174	1005.443	771.043
115.206	13.423	1003.698	770.799
116.220	13.410	1003.280	770.349
117.235	13.285	1002.632	769.202
118.249	13.357	1001.279	768.430
119.264	13.297	1000.608	767.570
120.279	13.350	999.609	766.982
121.293	13.144	999.285	765.708
122.308	13.202	998.162	765.049
123.322	13.333	996.912	764.628
124.337	13.162	996.279	763.285
125.352	13.273	994.485	762.358
126.366	13.220	994.002	761.675
127.381	13.387	992.508	761.229
128.395	13.346	991.916	760.519
129.410	13.313	990.994	759.593
130.424	13.335	990.306	759.102
131.439	13.320	989.699	758.499
132.454	13.482	988.407	758.186
133.468	13.374	988.090	757.380
134.483	13.540	986.664	756.977
135.497	13.514	985.827	756.153
136.512	13.513	984.972	755.425
137.527	13.497	984.242	754.724
138.541	13.494	983.561	754.122
139.556	13.378	982.882	753.006
140.570	13.481	982.218	752.897
141.585	13.568	981.361	752.569
142.600	13.611	980.556	752.080
143.614	13.503	979.930	751.047
144.629	13.593	978.921	750.612
145.643	13.649	977.643	749.822
146.658	13.511	976.936	748.590
147.673	13.457	975.804	747.412
148.687	13.468	975.051	746.818
149.702	13.467	974.023	745.958
150.716	13.530	972.678	745.148
151.731	13.411	972.744	744.594
152.746	13.372	971.757	743.598
153.760	13.408	971.223	743.288
154.775	13.511	970.475	743.109
155.789	13.593	969.656	742.784
156.804	13.543	969.383	742.287
157.819	13.469	968.900	741.521
158.833	13.668	967.745	741.458
159.848	13.652	967.136	740.857
160.862	13.593	965.712	739.436
161.877	13.606	965.014	738.894
162.892	13.547	963.733	737.586
163.906	13.459	963.239	736.749
164.921	13.463	962.934	736.472
165.935	13.617	961.308	735.847
166.950	13.515	960.938	735.043
167.964	13.604	959.745	734.463
168.979	13.532	958.777	733.338
169.994	13.579	958.080	732.945
171.008	13.563	957.295	732.211
172.023	13.551	956.835	731.741
173.037	13.810	955.490	731.790
174.052	13.681	955.257	730.978
175.067	13.644	954.510	730.180
176.081	13.710	953.908	729.944
177.096	13.693	953.232	729.289
178.110	13.692	952.689	728.803
179.125	13.772	951.903	728.487
180.140	13.678	951.371	727.604
181.154	13.646	951.208	727.274
182.169	13.742	950.512	727.101
183.183	13.813	950.132	727.056
184.198	13.814	948.888	726.044
185.213	13.838	948.105	725.486
186.227	13.847	947.616	725.086
187.242	13.922	946.823	724.743
188.256	13.879	946.250	724.053
189.271	13.882	945.546	723.461
190.286	13.844	944.355	722.324
191.300	13.613	944.041	721.011
192.315	13.733	943.134	720.777
193.329	13.779	942.674	720.565
194.344	13.724	942.085	719.808
195.359	13.834	941.371	719.678
196.373	13.879	940.930	719.474
197.388	13.947	940.561	719.423
198.402	14.132	939.984	719.717
199.417	14.095	939.342	718.999
200.432	14.156	938.392	718.472
201.446	14.148	938.447	718.419
202.461	14.129	937.949	717.892
203.475	14.096	937.257	717.157
204.490	14.092	936.514	716.506
205.504	14.127	935.437	715.768
206.519	14.036	934.864	714.876
207.534	13.991	934.417	714.277
208.548	14.256	933.076	714.327
209.563	14.079	932.916	713.382
210.577	14.273	931.737	713.249
211.592	14.356	931.210	713.138
212.607	14.271	930.633	712.267
213.621	14.364	929.621	711.829
214.636	14.302	929.144	711.133
215.650	14.280	928.740	710.669
216.665	14.205	928.451	710.065
217.680	14.433	927.189	710.010
218.694	14.438	926.565	709.489
219.709	14.310	925.904	708.377
220.723	14.470	924.935	708.253
221.738	14.303	924.343	707.025
222.753	14.436	923.821	707.129
223.767	14.607	923.318	707.408
224.782	14.433	923.017	706.375
225.796	14.530	922.162	706.068
226.811	14.496	921.392	705.274
227.826	14.381	920.619	704.135
228.840	14.551	919.651	704.049
229.855	14.496	918.932	703.206
230.869	14.543	918.352	702.896
231.884	14.481	917.572	701.976
232.899	14.520	916.693	701.406
233.913	14.378	916.123	700.312
234.928	14.418	915.811	700.179
235.942	14.479	914.966	699.725
236.957	14.584	914.381	699.659
237.972	14.343	914.149	698.408
238.986	14.323	913.681	697.905
240.001	14.490	912.717	697.805
241.015	14.549	911.740	697.244
242.030	14.521	911.164	696.624
243.045	14.605	910.722	696.575
244.059	14.653	909.977	696.145
245.074	14.586	909.629	695.538
246.088	14.659	908.982	695.283
247.103	14.668	908.317	694.750
248.117	14.667	907.905	694.371
249.132	14.826	907.150	694.392
250.147	14.970	906.463	694.402
251.161	15.082	905.824	694.317
252.176	15.016	904.926	693.291
253.190	14.944	904.184	692.366
254.205	15.062	903.783	692.486
255.220	14.861	903.537	691.406
256.234	14.960	902.671	691.090
257.249	14.982	902.017	690.620
258.263	14.979	901.170	689.898
259.278	14.986	900.604	689.433
260.293	15.057	899.953	689.164
261.307	15.098	899.596	688.998
262.322	15.245	899.096	689.158
263.336	15.213	898.068	688.178
264.351	15.245	897.115	687.517
265.366	15.266	896.574	687.128
266.380	15.271	896.144	686.762
267.395	15.209	895.148	685.681
268.409	15.115	894.681	684.878
269.424	15.103	893.865	684.145
270.439	15.163	892.931	683.612
271.453	15.250	892.260	683.395
272.468	15.213	891.813	682.841
273.482	15.150	891.454	682.249
274.497	15.143	890.872	681.716
275.512	15.295	890.282	681.821
276.526	15.161	889.935	680.951
277.541	15.330	889.111	680.945
278.555	15.363	888.628	680.648
279.570	15.344	887.996	680.027
280.585	15.471	886.861	679.614
281.599	15.421	886.064	678.741
282.614	15.384	885.282	677.932
283.628	15.381	884.968	677.619
284.643	15.334	884.590	677.078
285.657	15.282	884.076	676.416
286.672	15.507	883.289	676.662
287.687	15.533	882.303	675.949
288.701	15.389	882.061	675.125
289.716	15.387	881.537	674.659
290.730	15.490	881.230	674.776
291.745	15.525	880.475	674.279
292.760	15.441	879.916	673.456
293.774	15.589	879.283	673.504
294.789	15.715	878.062	673.012
295.803	15.602	877.548	672.108
296.818	15.453	877.157	671.154
297.833	15.592	876.287	670.985
298.847	15.620	875.587	670.502
299.862	15.517	875.112	669.668
300.876	15.563	874.434	669.270
301.891	15.679	874.128	669.438
302.906	15.620	873.647	668.777
303.920	15.620	872.895	668.141
304.935	15.650	872.401	667.824
305.949	15.873	871.491	667.954
306.964	15.689	871.226	666.960
307.979	15.908	870.684	667.357
308.993	15.806	869.794	666.211
310.008	15.938	869.163	666.190
311.022	15.950	868.255	665.481
312.037	15.868	867.907	664.834
313.052	15.783	867.123	663.838
314.066	15.746	866.852	663.425
315.081	15.806	866.450	663.296
316.095	15.856	865.646	662.821
317.110	15.732	865.006	661.785
318.125	15.880	864.448	661.879
319.139	15.847	864.134	661.451
320.154	15.921	863.379	661.105
321.168	15.771	863.260	660.365
322.183	15.858	862.631	660.167
323.197	15.940	861.912	659.882
324.212	15.924	861.578	659.504
325.227	15.823	860.472	658.204
326.241	15.858	860.342	658.182
327.256	15.843	859.845	657.688
328.270	15.897	859.338	657.452
329.285	15.812	858.472	656.399
330.300	15.862	857.819	656.036
331.314	15.887	857.512	655.840
332.329	15.885	857.324	655.633
333.343	16.055	855.966	655.194
334.358	16.111	855.672	655.130
335.373	16.094	855.689	655.021
336.387	16.059	855.476	654.661
337.402	16.156	854.820	654.480
338.416	16.215	854.526	654.423
339.431	16.202	854.396	654.217
340.446	16.251	853.587	653.727
341.460	16.292	853.376	653.667
342.475	16.292	852.918	653.260
343.489	16.412	852.360	653.237
344.504	16.367	851.845	652.611
345.519	16.467	851.209	652.455
346.533	16.455	850.837	652.064
347.548	16.285	850.670	651.224
348.562	16.203	850.367	650.618
349.577	16.286	849.191	649.979
350.592	16.223	848.670	649.280
351.606	16.149	848.148	648.537
352.621	16.210	847.045	647.871
353.635	16.471	846.602	648.476
354.650	16.318	846.165	647.500
355.665	16.432	845.483	647.357
356.679	16.541	844.554	647.004
357.694	16.541	844.114	646.611
358.708	16.536	843.540	646.093
359.723	16.469	842.837	645.244
360.738	16.513	842.482	645.081
361.752	16.478	841.702	644.297
362.767	16.644	841.117	644.421
363.781	16.543	840.769	643.715
364.796	16.646	840.225	643.632
365.810	16.664	839.944	643.428
366.825	16.801	839.435	643.500
367.840	16.805	838.901	643.050
368.854	16.739	838.375	642.340
369.869	16.657	838.060	641.731
370.883	16.774	837.360	641.581
371.898	16.760	837.061	641.241
372.913	16.696	836.714	640.677
373.927	16.738	836.263	640.434
374.942	16.780	835.786	640.170
375.956	16.896	835.038	639.981
376.971	16.935	834.583	639.721
377.986	16.961	834.181	639.456
379.000	16.919	834.013	639.112
380.015	17.010	833.373	638.906
381.029	17.124	832.562	638.657
382.044	16.944	832.265	637.695
383.059	17.063	831.359	637.394
384.073	17.066	830.886	636.985
385.088	16.873	830.853	636.178
386.102	17.041	829.740	635.900
387.117	16.988	829.149	635.193
388.132	16.895	828.972	634.651
389.146	16.836	828.275	633.842
390.161	17.050	827.641	634.100
391.175	17.163	826.989	633.967
392.190	17.046	826.780	633.315
393.205	16.970	826.306	632.612
394.219	17.099	825.930	632.749
395.234	17.055	825.676	632.335
396.248	16.848	825.254	631.185
397.263	17.052	824.352	631.195
398.278	17.131	824.028	631.187
399.292	17.016	823.828	630.551
400.307	16.940	823.431	629.909
401.321	16.972	823.075	629.699
402.336	17.084	822.489	629.610
403.350	17.183	821.544	629.198
404.365	17.177	821.423	629.027
405.380	17.353	820.529	628.938
406.394	17.312	820.155	628.444
407.409	17.293	820.194	628.350
408.423	17.270	819.605	627.758
409.438	17.519	819.005	628.162
410.453	17.375	818.850	627.455
411.467	17.292	818.567	626.877
412.482	17.394	818.044	626.794
413.496	17.588	817.449	626.999
414.511	17.541	816.939	626.380
415.526	17.531	816.918	626.271
416.540	17.525	816.329	625.740
417.555	17.477	815.640	624.983
418.569	17.465	815.269	624.597
419.584	17.665	814.424	624.629
420.599	17.598	814.091	624.074
421.613	91.275	1266.643	1370.981
422.628	78.223	1332.594	1371.103
