DTS Sentinel unit serial number:	SN413079Multiplexer serial number:	ORYXHardware model number:	OX4-SRSoftware version number:	ORYX F/W v4.00 Oryx Data Collector v3.7.2.0data status	okinstallation	princeton_trtdifferential loss correction	single-endedforward channel	channel 1reverse channel	N/Adate	2019/09/14time	20:50:35forward acquisition time	60.00reverse acquisition time	0.00gamma	496.2192k internal	0.2317k external	0.2317temperature offset calibration	1.0016default loss term (dB/km)	0.3790temperature slope calibration	1.0000multiplexer offset coefficient	1.0000multiplexer slope coefficient	1.0000fibre end	0.00T internal ref (°C)	33.25T ext. ref 1 (°C)	4.81T ext. ref 2 (°C)	27.93length (m)	temperature (°C)	Stokes	anti-Stokes-747.200	-77.514	-0.508	-0.179
-746.185	800.000	-0.111	0.423
-745.171	311.778	0.161	0.306
-744.156	224.152	0.192	0.314
-743.142	-134.707	0.339	-0.042
-742.127	-75.534	0.061	0.022
-741.112	575.564	-0.102	0.253
-740.098	494.567	-0.037	-0.085
-739.083	423.076	-0.067	0.145
-738.069	-200.000	0.022	0.164
-737.054	2.035	-0.131	0.095
-736.039	-200.000	-0.051	-0.342
-735.025	-200.000	0.034	0.204
-734.010	287.059	0.071	0.130
-732.996	-40.709	-0.135	0.071
-731.981	-200.000	0.027	-0.224
-730.966	-66.824	-0.255	-0.102
-729.952	189.072	-0.109	0.166
-728.937	-27.378	0.380	0.223
-727.923	107.068	-0.182	-0.219
-726.908	-1.883	0.078	0.056
-725.894	800.000	0.021	-0.072
-724.879	393.622	-0.090	0.190
-723.864	-200.000	0.005	-0.458
-722.850	-200.000	-0.046	-0.444
-721.835	52.999	0.256	0.248
-720.821	-82.306	-0.452	0.149
-719.806	800.000	0.033	0.132
-718.791	13.952	-0.141	-0.111
-717.777	-27.355	-0.096	-0.056
-716.762	-200.000	0.001	-0.020
-715.748	-72.370	-0.328	-0.123
-714.733	106.466	0.199	0.239
-713.718	-47.853	-0.301	-0.147
-712.704	366.908	-0.027	0.056
-711.689	-28.587	0.318	-0.185
-710.675	207.134	-0.182	0.287
-709.660	-13.629	-0.187	-0.122
-708.645	230.299	0.045	-0.075
-707.631	-200.000	-0.009	-0.136
-706.616	-200.000	-0.044	-0.365
-705.602	-200.000	-0.046	-0.246
-704.587	-200.000	-0.011	-0.098
-703.572	-200.000	0.028	-0.241
-702.558	232.348	-0.080	0.132
-701.543	-188.182	-0.289	0.004
-700.529	185.421	-0.243	-0.365
-699.514	122.473	0.244	0.308
-698.499	800.000	-0.109	-0.324
-697.485	-200.000	0.013	0.190
-696.470	426.291	0.063	-0.137
-695.456	-37.596	-0.093	-0.050
-694.441	-200.000	-0.005	-0.161
-693.426	60.328	-0.251	0.251
-692.412	156.286	0.129	-0.180
-691.397	39.594	0.152	0.138
-690.383	411.226	0.058	0.124
-689.368	-9.513	-0.195	-0.132
-688.354	693.406	-0.081	0.216
-687.339	-200.000	-0.023	-0.167
-686.324	-160.872	-0.466	0.025
-685.310	73.074	-0.146	0.154
-684.295	-6.576	0.166	0.114
-683.281	-15.824	-0.191	0.123
-682.266	102.996	0.101	-0.120
-681.251	114.565	-0.142	0.174
-680.237	640.661	0.069	-0.178
-679.222	-132.153	0.270	-0.035
-678.208	534.081	0.101	-0.242
-677.193	-200.000	0.062	-0.381
-676.178	61.928	0.112	-0.113
-675.164	-66.828	-0.361	-0.144
-674.149	-104.148	-0.242	0.057
-673.135	800.000	0.059	-0.257
-672.120	800.000	0.065	-0.260
-671.105	152.932	-0.286	0.395
-670.091	37.053	-0.197	0.176
-669.076	301.508	-0.057	-0.107
-668.062	800.000	0.023	-0.096
-667.047	4.723	0.261	-0.194
-666.032	800.000	-0.084	-0.258
-665.018	-200.000	-0.045	0.308
-664.003	-167.400	-0.197	-0.008
-662.989	-34.291	0.110	0.061
-661.974	-200.000	0.006	-0.081
-660.959	800.000	0.078	-0.298
-659.945	-144.552	0.253	-0.024
-658.930	-164.640	-0.188	-0.009
-657.916	-119.533	-0.268	-0.047
-656.901	-200.000	-0.012	-0.211
-655.886	-200.000	-0.015	0.167
-654.872	163.148	0.226	-0.321
-653.857	24.623	-0.214	-0.179
-652.843	72.197	0.154	-0.162
-651.828	-59.987	-0.317	-0.137
-650.814	564.376	-0.063	0.154
-649.799	-137.262	-0.368	0.042
-648.784	-188.834	0.267	0.003
-647.770	82.290	0.208	-0.228
-646.755	-75.474	-0.214	-0.077
-645.741	-200.000	-0.023	-0.218
-644.726	-91.543	-0.111	-0.032
-643.711	83.359	-0.044	-0.048
-642.697	374.054	0.156	0.321
-641.682	-181.002	-0.080	-0.002
-640.668	-39.353	0.079	0.042
-639.653	-200.000	-0.017	0.078
-638.638	800.000	0.069	0.204
-637.624	141.778	-0.097	0.130
-636.609	168.483	-0.085	0.123
-635.595	-38.401	0.204	0.109
-634.580	-80.610	-0.167	0.056
-633.565	-0.966	-0.148	-0.106
-632.551	-200.000	0.015	-0.277
-631.536	33.787	0.215	0.188
-630.522	800.000	-0.042	0.170
-629.507	800.000	-0.027	0.085
-628.492	-200.000	-0.005	-0.030
-627.478	92.345	0.063	-0.072
-626.463	-200.000	0.002	0.168
-625.449	-81.628	0.095	-0.031
-624.434	-200.000	-0.046	-0.311
-623.419	-200.000	-0.031	0.207
-622.405	-47.030	0.304	0.150
-621.390	-200.000	0.105	-0.470
-620.376	800.000	-0.080	0.231
-619.361	26.047	-0.082	-0.069
-618.346	-127.352	0.156	-0.023
-617.332	-42.173	-0.207	-0.107
-616.317	-24.798	-0.103	0.062
-615.303	389.886	0.022	0.045
-614.288	-200.000	0.017	-0.219
-613.273	761.746	-0.131	0.357
-612.259	-146.214	0.362	-0.032
-611.244	151.544	0.154	0.212
-610.230	-129.015	-0.326	0.046
-609.215	-200.000	0.019	-0.129
-608.201	-125.927	0.203	0.031
-607.186	-200.000	0.008	0.295
-606.171	-44.604	-0.148	-0.075
-605.157	-29.315	0.269	0.155
-604.142	-170.086	0.265	-0.009
-603.128	701.581	-0.007	-0.018
-602.113	389.090	0.217	0.451
-601.098	16.798	0.216	0.172
-600.084	298.026	0.069	-0.128
-599.069	-38.545	0.208	-0.111
-598.055	800.000	-0.082	-0.288
-597.040	-86.419	0.152	-0.047
-596.025	-0.869	-0.262	0.187
-595.011	-20.488	0.214	-0.132
-593.996	124.300	-0.213	-0.269
-592.982	-30.090	-0.270	-0.155
-591.967	-4.204	0.066	0.046
-590.952	-168.338	0.112	0.004
-589.938	-200.000	0.001	-0.413
-588.923	462.546	-0.103	-0.231
-587.909	-101.360	-0.120	-0.029
-586.894	-58.942	0.358	-0.156
-585.879	-144.047	0.268	0.025
-584.865	225.694	0.112	0.183
-583.850	-92.581	-0.036	-0.010
-582.836	-20.981	0.245	-0.151
-581.821	683.858	-0.130	-0.340
-580.806	186.990	-0.108	0.162
-579.792	335.658	-0.127	-0.248
-578.777	145.491	0.111	-0.150
-577.763	134.845	0.250	-0.327
-576.748	303.488	-0.102	-0.191
-575.733	-114.842	0.329	0.063
-574.719	-3.053	-0.112	0.079
-573.704	-142.245	0.304	-0.030
-572.690	243.436	-0.095	0.160
-571.675	178.770	0.133	-0.195
-570.661	800.000	-0.043	-0.121
-569.646	465.339	0.129	0.290
-568.631	403.093	-0.051	-0.107
-567.617	-53.543	-0.258	0.119
-566.602	15.138	-0.242	-0.190
-565.588	118.479	0.128	0.158
-564.573	15.140	0.254	-0.200
-563.558	-112.813	0.163	0.033
-562.544	326.284	0.147	-0.283
-561.529	-200.000	-0.032	-0.316
-560.515	68.815	-0.266	0.275
-559.500	576.382	-0.166	-0.407
-558.485	-200.000	-0.016	-0.146
-557.471	73.702	-0.194	0.205
-556.456	245.282	0.085	0.144
-555.442	151.870	0.204	-0.279
-554.427	33.034	-0.392	-0.341
-553.412	-123.089	0.064	-0.010
-552.398	287.088	-0.027	0.049
-551.383	601.884	0.036	-0.091
-550.369	528.019	-0.049	-0.115
-549.354	-24.078	-0.147	-0.089
-548.339	-152.861	0.190	-0.013
-547.325	800.000	-0.104	-0.325
-546.310	507.013	0.119	-0.278
-545.296	471.694	-0.016	-0.037
-544.281	-20.783	0.108	-0.067
-543.266	800.000	0.048	-0.150
-542.252	-31.526	0.127	-0.072
-541.237	-21.132	-0.137	-0.084
-540.223	-18.813	0.179	0.112
-539.208	-22.212	0.349	-0.213
-538.193	-97.743	0.256	0.066
-537.179	-169.511	-0.572	0.021
-536.164	267.967	-0.183	-0.321
-535.150	471.974	-0.126	-0.286
-534.135	-157.943	-0.584	0.035
-533.121	716.023	0.145	-0.387
-532.106	-70.591	-0.278	0.106
-531.091	49.994	0.266	0.252
-530.077	-165.572	-0.266	0.012
-529.062	-10.597	0.097	-0.064
-528.048	-56.034	0.094	-0.042
-527.033	800.000	-0.054	-0.170
-526.018	-116.426	-0.253	0.047
-525.004	-52.990	0.122	-0.056
-523.989	-200.000	0.020	-0.281
-522.975	-73.061	-0.386	0.142
-521.960	274.145	-0.054	0.096
-520.945	-55.593	-0.122	0.055
-519.931	-12.027	-0.179	0.117
-518.916	-200.000	-0.042	0.449
-517.902	179.220	0.093	-0.136
-516.887	-54.853	-0.207	0.094
-515.872	56.498	0.184	0.180
-514.858	-200.000	0.032	-0.169
-513.843	-50.836	0.185	-0.087
-512.829	-112.245	-0.576	-0.116
-511.814	800.000	-0.067	0.216
-510.799	800.000	-0.044	-0.126
-509.785	-200.000	-0.042	-0.487
-508.770	800.000	0.055	-0.181
-507.756	-200.000	-0.019	0.192
-506.741	16.718	0.235	0.187
-505.726	-169.662	0.058	0.002
-504.712	-88.788	0.043	-0.013
-503.697	800.000	-0.053	-0.225
-502.683	327.452	0.108	0.208
-501.668	557.728	0.067	-0.163
-500.653	-24.087	-0.077	-0.046
-499.639	-200.000	0.042	-0.222
-498.624	-200.000	0.012	-0.153
-497.610	36.199	-0.112	0.099
-496.595	800.000	-0.061	-0.169
-495.581	-200.000	-0.001	-0.058
-494.566	-93.630	0.090	-0.025
-493.551	-113.971	-0.323	0.063
-492.537	157.629	-0.056	-0.077
-491.522	315.544	0.044	-0.083
-490.508	-92.436	0.177	-0.050
-489.493	53.207	-0.114	0.110
-488.478	-116.732	0.454	-0.083
-487.464	295.133	0.085	-0.155
-486.449	-70.234	0.114	-0.044
-485.435	-200.000	0.004	0.206
-484.420	-200.000	0.044	0.245
-483.405	-181.979	0.022	-0.000
-482.391	-200.000	0.048	-0.331
-481.376	96.718	0.080	-0.092
-480.362	-49.890	-0.077	0.037
-479.347	17.236	0.215	-0.171
-478.332	32.217	-0.175	-0.151
-477.318	41.303	0.204	-0.185
-476.303	-200.000	-0.066	0.542
-475.289	72.034	-0.228	0.238
-474.274	-192.340	0.410	0.004
-473.259	197.589	-0.105	0.161
-472.245	30.463	-0.208	0.178
-471.230	191.588	0.083	0.125
-470.216	530.930	0.095	0.226
-469.201	-95.398	-0.242	-0.065
-468.186	97.087	-0.047	-0.054
-467.172	-125.566	-0.192	0.029
-466.157	65.921	0.407	-0.413
-465.143	32.333	0.215	-0.186
-464.128	238.964	-0.100	0.167
-463.113	-200.000	-0.036	0.273
-462.099	736.645	-0.080	0.215
-461.084	41.868	0.276	-0.251
-460.070	-174.778	0.310	-0.009
-459.055	-200.000	-0.013	0.088
-458.040	101.404	0.080	0.093
-457.026	413.672	-0.054	-0.115
-456.011	-41.151	-0.220	-0.114
-454.997	184.385	0.128	-0.190
-453.982	800.000	-0.150	0.424
-452.968	-200.000	-0.044	-0.211
-451.953	86.496	0.259	-0.286
-450.938	189.079	-0.183	-0.274
-449.924	11.490	-0.198	-0.152
-448.909	-171.027	-0.078	-0.003
-447.895	-140.171	-0.303	-0.032
-446.880	800.000	0.029	-0.122
-445.865	-26.303	0.077	-0.045
-444.851	-24.933	0.105	0.063
-443.836	-47.803	-0.233	-0.113
-442.822	800.000	-0.061	0.195
-441.807	-135.868	-0.230	-0.027
-440.792	368.387	0.064	0.130
-439.778	-200.000	-0.349	0.001
-438.763	-118.181	0.019	-0.003
-437.749	212.443	0.155	-0.244
-436.734	423.534	-0.056	0.120
-435.719	-31.282	0.144	0.081
-434.705	87.660	0.093	-0.103
-433.690	-43.205	0.097	-0.049
-432.676	-16.964	-0.144	-0.091
-431.661	-97.326	0.235	-0.061
-430.646	-107.806	0.370	-0.081
-429.632	55.214	0.167	0.162
-428.617	-28.854	-0.152	-0.087
-427.603	800.000	0.144	-0.463
-426.588	-200.000	-0.027	0.120
-425.573	430.395	-0.032	-0.070
-424.559	88.681	-0.048	-0.053
-423.544	493.523	-0.107	-0.246
-422.530	-200.000	0.018	0.261
-421.515	-151.693	-0.204	0.015
-420.500	800.000	0.106	0.347
-419.486	-8.949	-0.236	-0.158
-418.471	33.492	-0.267	-0.232
-417.457	69.184	-0.178	-0.183
-416.442	-200.000	-0.006	0.040
-415.428	188.534	0.066	-0.099
-414.413	-14.141	-0.214	0.138
-413.398	-19.220	-0.332	0.206
-412.384	-104.687	0.048	-0.011
-411.369	-11.026	0.029	-0.019
-410.355	-95.635	-0.533	0.142
-409.340	800.000	0.028	0.088
-408.325	133.445	-0.108	0.139
-407.311	-200.000	-0.011	0.069
-406.296	193.168	-0.213	0.321
-405.282	-200.000	-0.296	-0.001
-404.267	-99.335	-0.275	-0.069
-403.252	800.000	0.054	0.195
-402.238	800.000	-0.148	0.479
-401.223	-30.029	-0.224	-0.127
-400.209	216.614	0.130	-0.206
-399.194	114.903	0.035	0.043
-398.179	427.754	0.155	0.334
-397.165	339.471	0.078	0.151
-396.150	800.000	-0.078	0.331
-395.136	276.085	-0.150	0.267
-394.121	-147.836	0.142	-0.012
-393.106	-186.726	-0.179	-0.003
-392.092	-200.000	-0.013	-0.167
-391.077	-200.000	-0.015	-0.149
-390.063	-33.232	0.130	-0.072
-389.048	80.030	0.021	-0.023
-388.033	-200.000	-0.001	-0.212
-387.019	94.878	0.229	0.260
-386.004	-200.000	-0.007	0.045
-384.990	800.000	0.034	0.134
-383.975	-92.198	-0.370	-0.104
-382.960	-117.492	-0.377	0.068
-381.946	-88.299	-0.112	0.033
-380.931	96.615	0.162	0.185
-379.917	-189.519	-0.297	0.003
-378.902	800.000	0.051	0.176
-377.888	-200.000	0.009	0.103
-376.873	109.651	-0.104	-0.124
-375.858	-153.779	0.215	-0.015
-374.844	-105.738	0.146	-0.033
-373.829	145.430	0.141	-0.189
-372.815	-88.002	0.116	-0.035
-371.800	24.998	0.234	0.194
-370.785	-150.223	0.063	-0.005
-369.771	309.509	0.012	0.023
-368.756	-188.195	-0.176	0.002
-367.742	75.881	-0.090	0.095
-366.727	800.000	-0.035	0.108
-365.712	-57.504	-0.191	0.084
-364.698	46.835	0.237	0.219
-363.683	-200.000	0.020	0.190
-362.669	800.000	-0.079	0.290
-361.654	23.640	0.223	0.183
-360.639	800.000	0.046	-0.149
-359.625	-167.686	-0.071	-0.003
-358.610	172.699	0.089	0.128
-357.596	-71.083	-0.447	-0.167
-356.581	-200.000	-0.043	-0.324
-355.566	154.266	-0.254	-0.348
-354.552	-116.869	-0.162	0.030
-353.537	125.125	0.091	-0.115
-352.523	154.300	-0.097	0.132
-351.508	-52.818	-0.145	-0.067
-350.493	258.009	-0.044	-0.076
-349.479	-70.678	-0.073	-0.027
-348.464	-150.937	-0.138	0.010
-347.450	67.156	-0.175	-0.178
-346.435	-31.197	0.187	-0.105
-345.420	-200.000	-0.051	-0.349
-344.406	-200.000	0.002	-0.148
-343.391	800.000	-0.073	0.216
-342.377	-97.635	0.238	0.062
-341.362	-29.833	-0.201	-0.114
-340.348	533.065	-0.126	0.297
-339.333	-200.000	-0.032	-0.215
-338.318	299.669	0.212	-0.389
-337.304	142.932	0.081	-0.108
-336.289	-31.357	0.283	-0.159
-335.275	-97.434	0.326	0.084
-334.260	524.662	0.159	0.372
-333.245	-86.901	0.092	-0.028
-332.231	4.422	-0.122	0.089
-331.216	-137.498	0.349	0.039
-330.202	-40.577	0.311	-0.161
-329.187	305.167	0.166	-0.308
-328.172	-43.484	0.207	-0.104
-327.158	-200.000	-0.029	-0.286
-326.143	-141.744	0.169	-0.017
-325.129	800.000	-0.009	-0.032
-324.114	-84.421	-0.231	-0.073
-323.099	39.985	0.131	0.117
-322.085	399.691	0.053	-0.111
-321.070	800.000	-0.028	0.098
-320.056	210.180	-0.065	0.101
-319.041	541.315	0.050	-0.119
-318.026	-93.219	-0.249	0.069
-317.012	742.992	0.058	0.156
-315.997	-200.000	0.036	0.211
-314.983	-200.000	0.033	0.223
-313.968	155.199	-0.134	-0.183
-312.953	421.841	0.126	0.268
-311.939	87.258	-0.219	0.241
-310.924	-200.000	-0.015	-0.081
-309.910	-5.560	0.269	0.184
-308.895	311.287	0.190	0.355
-307.880	-49.772	0.248	0.117
-306.866	-53.637	-0.141	0.064
-305.851	-39.326	0.159	0.083
-304.837	800.000	0.021	0.064
-303.822	132.063	0.081	-0.104
-302.807	-53.480	-0.173	0.079
-301.793	-135.968	-0.165	-0.019
-300.778	-200.000	0.005	0.370
-299.764	56.903	-0.152	0.148
-298.749	800.000	-0.116	-0.333
-297.735	-169.082	0.181	0.007
-296.720	56.470	-0.282	-0.273
-295.705	800.000	0.058	-0.169
-294.691	-98.617	0.436	-0.111
-293.676	-11.471	0.159	0.104
-292.662	76.217	-0.040	0.042
-291.647	65.309	-0.210	-0.212
-290.632	-148.335	0.531	0.043
-289.618	-200.000	-0.001	-0.145
-288.603	312.038	-0.045	0.084
-287.589	-146.328	-0.193	0.017
-286.574	146.131	0.102	0.136
-285.559	800.000	0.053	-0.152
-284.545	-137.244	-0.073	-0.008
-283.530	-88.541	0.135	-0.040
-282.516	28.030	-0.144	-0.120
-281.501	800.000	0.106	-0.317
-280.486	557.865	-0.063	0.151
-279.472	382.008	0.071	0.144
-278.457	84.594	0.300	-0.326
-277.443	-10.067	0.155	-0.102
-276.428	-99.232	-0.183	-0.046
-275.413	-200.000	0.044	0.241
-274.399	54.083	0.027	0.026
-273.384	-151.452	-0.437	-0.032
-272.370	-97.395	0.062	0.016
-271.355	-43.542	-0.245	-0.123
-270.340	6.285	0.121	-0.089
-269.326	-32.001	0.186	0.103
-268.311	465.056	-0.072	0.159
-267.297	-200.000	-0.039	0.265
-266.282	293.531	-0.021	-0.039
-265.267	-66.418	-0.077	-0.031
-264.253	-141.912	0.211	-0.021
-263.238	767.744	-0.097	0.261
-262.224	10.561	-0.197	0.149
-261.209	-39.396	-0.249	-0.130
-260.195	38.957	0.246	-0.219
-259.180	-81.880	-0.155	-0.050
-258.165	451.710	0.042	0.092
-257.151	-200.000	0.019	0.409
-256.136	226.148	-0.011	0.018
-255.122	375.216	-0.103	-0.208
-254.107	800.000	-0.116	0.322
-253.092	-18.575	-0.497	0.308
-252.078	-200.000	-0.022	0.370
-251.063	-200.000	-0.009	-0.053
-250.049	-200.000	0.009	0.154
-249.034	73.697	-0.086	0.090
-248.019	159.063	-0.072	0.099
-247.005	-200.000	-0.002	0.206
-245.990	37.307	0.098	0.086
-244.976	30.579	-0.128	0.109
-243.961	215.865	0.197	0.311
-242.946	-96.186	0.230	-0.061
-241.932	800.000	0.047	-0.151
-240.917	88.141	-0.171	0.188
-239.903	183.319	-0.074	0.108
-238.888	-125.698	-0.226	0.034
-237.873	-26.207	0.195	-0.113
-236.859	-141.692	0.104	0.010
-235.844	488.120	0.030	-0.068
-234.830	20.725	0.207	0.167
-233.815	-200.000	-0.022	-0.517
-232.800	140.187	-0.195	-0.256
-231.786	-200.000	0.095	0.429
-230.771	-92.560	0.247	0.069
-229.757	-30.462	-0.356	0.200
-228.742	-200.000	-0.001	-0.151
-227.727	261.677	0.045	-0.078
-226.713	670.219	0.088	0.227
-225.698	151.418	0.070	0.095
-224.684	-37.151	0.122	0.065
-223.669	-87.962	0.264	0.079
-222.655	126.053	-0.151	-0.189
-221.640	-66.115	0.400	-0.158
-220.625	-103.853	-0.235	0.055
-219.611	63.982	0.184	-0.183
-218.596	-186.347	0.074	0.001
-217.582	106.112	0.083	-0.098
-216.567	5.720	-0.140	0.103
-215.552	-70.185	0.361	0.136
-214.538	-111.182	-0.290	-0.059
-213.523	132.653	0.123	0.158
-212.509	-200.000	-0.026	0.205
-211.494	111.198	0.238	0.284
-210.479	-200.000	-0.004	-0.073
-209.465	61.913	-0.119	0.117
-208.450	7.574	-0.200	-0.148
-207.436	-22.893	0.380	-0.227
-206.421	-200.000	0.003	0.141
-205.406	800.000	-0.062	-0.182
-204.392	-200.000	0.017	0.235
-203.377	59.458	-0.107	0.105
-202.363	-200.000	0.007	0.348
-201.348	200.340	0.097	0.148
-200.333	181.702	0.085	0.124
-199.319	-139.241	-0.103	-0.011
-198.304	0.649	0.280	0.199
-197.290	43.214	-0.058	-0.052
-196.275	-3.534	-0.277	0.191
-195.260	523.191	0.201	-0.468
-194.246	-149.598	-0.258	0.020
-193.231	-59.061	-0.221	-0.094
-192.217	-79.400	-0.111	-0.037
-191.202	486.864	0.113	0.254
-190.187	-97.845	-0.223	-0.057
-189.173	-16.411	-0.159	0.100
-188.158	63.476	0.276	0.275
-187.144	507.209	0.085	-0.195
-186.129	197.813	-0.076	0.115
-185.114	249.520	-0.164	0.276
-184.100	-200.000	-0.005	0.039
-183.085	-57.953	-0.105	-0.045
-182.071	519.676	0.220	-0.511
-181.056	12.596	-0.277	-0.211
-180.042	-200.000	0.010	0.053
-179.027	359.724	-0.169	-0.335
-178.012	-8.868	0.230	-0.153
-176.998	598.547	-0.052	-0.128
-175.983	40.337	0.165	0.147
-174.969	-200.000	-0.025	0.269
-173.954	-98.022	-0.190	-0.048
-172.939	-200.000	-0.002	0.194
-171.925	24.800	0.070	0.057
-170.910	-27.649	-0.136	0.078
-169.896	800.000	0.031	0.096
-168.881	800.000	0.098	-0.337
-167.866	15.456	0.180	0.140
-166.852	49.800	0.086	0.081
-165.837	800.000	-0.058	0.163
-164.823	228.330	0.163	0.263
-163.808	-80.046	-0.102	-0.034
-162.793	186.942	-0.153	0.226
-161.779	-83.642	0.316	-0.100
-160.764	-20.854	-0.076	-0.046
-159.750	-63.953	0.296	0.120
-158.735	8.799	-0.173	-0.129
-157.720	-118.848	0.099	-0.017
-156.706	-55.017	0.048	0.021
-155.691	-106.410	0.223	-0.049
-154.677	230.173	-0.253	0.408
-153.662	-74.501	0.231	-0.082
-152.647	-200.000	0.058	0.302
-151.633	800.000	-0.090	-0.259
-150.618	-200.000	0.015	-0.319
-149.604	-124.711	0.016	-0.003
-148.589	-106.300	0.327	-0.072
-147.574	121.672	-0.109	0.134
-146.560	-200.000	0.024	-0.120
-145.545	125.527	-0.295	-0.369
-144.531	-157.922	-0.221	-0.013
-143.516	800.000	0.105	0.336
-142.502	552.761	0.040	0.095
-141.487	78.389	-0.004	0.004
-140.472	167.405	-0.136	0.190
-139.458	800.000	-0.062	0.196
-138.443	-61.058	0.199	-0.083
-137.429	800.000	-0.047	0.130
-136.414	309.340	0.125	-0.230
-135.399	-47.227	0.266	-0.128
-134.385	68.953	-0.048	-0.049
-133.370	120.369	0.088	-0.108
-132.356	-87.486	0.340	0.102
-131.341	-4.169	0.094	-0.064
-130.326	789.067	-0.179	0.485
-129.312	191.124	0.284	0.422
-128.297	181.364	-0.085	0.123
-127.283	-104.031	-0.105	-0.024
-126.268	145.640	-0.131	-0.174
-125.253	-200.000	-0.040	-0.301
-124.239	12.874	0.204	-0.156
-123.224	71.377	-0.085	0.087
-122.210	-25.267	0.088	0.051
-121.195	2.017	-0.201	-0.143
-120.180	-35.366	-0.185	0.099
-119.166	800.000	-0.086	0.304
-118.151	186.896	-0.069	0.102
-117.137	-200.000	0.000	-0.069
-116.122	491.052	-0.021	0.047
-115.107	-66.281	-0.202	0.079
-114.093	-74.723	0.401	0.142
-113.078	185.432	-0.028	-0.042
-112.064	-1.543	-0.245	0.171
-111.049	-43.950	-0.145	-0.072
-110.034	62.980	0.136	-0.134
-109.020	280.043	0.047	-0.083
-108.005	-60.714	0.159	0.067
-106.991	-200.000	0.006	-0.112
-105.976	-200.000	-0.067	0.291
-104.962	12.984	-0.132	-0.101
-103.947	306.214	0.119	0.218
-102.932	-109.599	0.160	0.033
-101.918	225.845	-0.144	0.231
-100.903	800.000	0.025	0.077
-99.889	176.886	-0.181	0.260
-98.874	123.900	0.258	0.320
-97.859	32.549	0.326	0.278
-96.845	-17.311	0.224	-0.139
-95.830	-78.753	0.020	-0.007
-94.816	318.525	0.089	-0.166
-93.801	-200.000	-0.064	-0.326
-92.786	2.399	0.197	-0.141
-91.772	7.566	0.174	-0.128
-90.757	650.787	0.130	-0.329
-89.743	-121.277	-0.169	0.028
-88.728	-59.440	-0.241	-0.102
-87.713	286.813	-0.145	0.258
-86.699	305.478	-0.028	0.051
-85.684	-200.000	-0.000	0.161
-84.670	-105.616	0.156	0.035
-83.655	6.379	-0.199	-0.146
-82.640	-119.010	-0.353	-0.061
-81.626	258.931	0.226	-0.385
-80.611	-200.000	0.014	0.066
-79.597	98.984	0.270	0.308
-78.582	35.528	-0.207	-0.179
-77.567	800.000	-0.036	-0.131
-76.553	-125.007	-0.069	-0.011
-75.538	556.206	0.050	-0.118
-74.524	110.396	0.183	-0.216
-73.509	70.204	-0.105	-0.107
-72.494	8.283	-0.231	-0.171
-71.480	-1.405	0.316	0.220
-70.465	261.419	-0.070	-0.120
-69.451	764.066	-0.150	-0.402
-68.436	-82.463	-0.281	-0.090
-67.422	118.210	0.115	0.140
-66.407	-172.348	0.364	0.011
-65.392	-118.633	0.157	-0.027
-64.378	32.195	0.314	0.267
-63.363	-107.567	-0.092	0.020
-62.349	71.083	-0.147	0.150
-61.334	58.960	-0.819	-0.794
-60.319	41.215	0.583	0.520
-59.305	487.314	-0.279	-0.627
-58.290	711.544	0.423	1.104
-57.276	718.548	0.630	1.648
-56.261	-200.000	95.497	562.831
-55.246	627.287	1381.891	3438.809
-54.232	196.122	2560.156	3839.582
-53.217	118.617	2148.366	2613.706
-52.203	44.735	1609.915	1459.099
-51.188	36.720	1347.816	1173.169
-50.173	33.506	1305.453	1117.340
-49.159	56.196	1351.746	1293.350
-48.144	58.091	1369.352	1321.488
-47.130	36.874	1327.955	1156.618
-46.115	33.383	1310.408	1120.672
-45.100	33.232	1305.623	1115.647
-44.086	33.199	1303.471	1113.569
-43.071	33.060	1301.239	1110.799
-42.057	33.143	1299.211	1109.511
-41.042	33.068	1297.694	1107.731
-40.027	33.161	1296.399	1107.127
-39.013	33.091	1294.372	1104.946
-37.998	33.228	1292.421	1104.031
-36.984	33.178	1291.345	1102.779
-35.969	33.253	1288.726	1100.937
-34.954	33.391	1287.213	1100.402
-33.940	33.239	1286.084	1098.509
-32.925	33.294	1284.575	1097.498
-31.911	33.332	1283.004	1096.333
-30.896	33.296	1281.675	1094.941
-29.881	33.270	1280.417	1093.674
-28.867	33.311	1278.859	1092.540
-27.852	33.335	1277.460	1091.440
-26.838	33.426	1275.800	1090.500
-25.823	33.250	1275.219	1088.945
-24.809	33.281	1273.792	1087.865
-23.794	33.307	1272.398	1086.781
-22.779	33.313	1271.117	1085.679
-21.765	33.409	1269.453	1084.762
-20.750	33.369	1268.070	1083.310
-19.736	33.316	1266.652	1081.749
-18.721	33.147	1266.185	1080.343
-17.706	33.253	1264.870	1079.786
-16.692	33.355	1263.357	1079.028
-15.677	33.210	1262.946	1077.812
-14.663	33.274	1261.353	1076.774
-13.648	33.169	1260.517	1075.418
-12.633	33.187	1259.606	1074.702
-11.619	33.214	1258.883	1074.195
-10.604	33.144	1258.106	1073.091
-9.590	33.162	1257.459	1072.601
-8.575	33.099	1256.144	1071.081
-7.560	33.149	1255.352	1070.646
-6.546	33.254	1254.074	1070.103
-5.531	33.236	1253.511	1069.478
-4.517	33.238	1252.254	1068.378
-3.502	33.129	1252.049	1067.544
-2.487	33.248	1250.862	1067.160
-1.473	33.133	1246.839	1063.042
-0.458	31.752	1231.829	1042.524
0.556	27.302	1214.547	1003.346
1.571	23.484	1220.080	986.630
2.586	22.389	1235.445	992.791
3.600	21.791	1224.241	980.358
4.615	16.581	1153.048	895.755
5.629	8.488	1078.930	797.851
6.644	5.019	1058.960	766.000
7.659	4.742	1056.351	762.687
8.673	4.766	1055.633	762.215
9.688	4.723	1054.366	761.024
10.702	4.868	1052.732	760.486
11.717	9.296	1058.351	786.172
12.731	16.659	1068.735	830.047
13.746	19.216	1071.705	844.837
14.761	18.538	1070.008	840.106
15.775	17.546	1067.896	833.522
16.790	16.560	1065.853	827.031
17.804	15.852	1064.018	822.078
18.819	15.441	1062.842	819.095
19.834	15.161	1062.360	817.281
20.848	15.018	1061.312	815.708
21.863	14.881	1060.265	814.166
22.877	14.643	1060.126	812.825
23.892	14.532	1059.322	811.598
24.907	14.603	1058.418	811.179
25.921	14.625	1057.524	810.526
26.936	14.702	1055.938	809.614
27.950	14.619	1054.936	808.374
28.965	14.758	1053.178	807.624
29.980	14.835	1051.320	806.502
30.994	14.912	1050.642	806.283
32.009	15.034	1049.544	805.953
33.023	14.917	1048.595	804.592
34.038	14.813	1047.611	803.265
35.053	14.772	1046.914	802.463
36.067	14.773	1046.224	801.869
37.082	14.797	1045.271	801.182
38.096	14.938	1044.342	801.075
39.111	14.840	1044.071	800.324
40.126	14.741	1042.669	798.707
41.140	14.491	1041.356	796.437
42.155	14.387	1040.400	795.139
43.169	14.439	1039.181	794.383
44.184	14.367	1038.267	793.274
45.199	14.552	1037.052	793.156
46.213	14.651	1035.819	792.612
47.228	14.702	1035.097	792.231
48.242	14.783	1034.101	791.782
49.257	14.663	1033.048	790.336
50.271	14.818	1031.816	790.056
51.286	14.851	1030.989	789.513
52.301	14.778	1030.359	788.615
53.315	14.616	1029.498	787.122
54.330	14.649	1028.143	786.171
55.344	14.626	1027.421	785.440
56.359	14.609	1026.772	784.796
57.374	14.588	1025.703	783.809
58.388	14.478	1024.736	782.486
59.403	14.428	1024.195	781.768
60.417	14.601	1022.938	781.550
61.432	14.416	1022.283	780.115
62.447	14.417	1021.495	779.449
63.461	14.403	1020.872	778.839
64.476	14.466	1019.554	778.059
65.490	14.470	1018.985	777.578
66.505	14.410	1018.329	776.726
67.520	14.445	1017.836	776.442
68.534	14.492	1017.228	776.129
69.549	14.404	1016.678	775.235
70.563	14.452	1015.204	774.265
71.578	14.336	1014.921	773.441
72.593	14.445	1013.538	772.823
73.607	14.325	1013.041	771.820
74.622	14.396	1012.626	771.766
75.636	14.284	1012.157	770.822
76.651	14.403	1011.382	770.714
77.666	14.341	1010.566	769.737
78.680	14.432	1010.048	769.694
79.695	14.377	1009.657	769.073
80.709	14.706	1008.353	769.527
81.724	14.557	1008.118	768.594
82.739	14.611	1007.267	768.128
83.753	14.706	1007.006	768.297
84.768	14.993	1005.180	768.154
85.782	14.871	1005.025	767.405
86.797	14.890	1003.928	766.588
87.812	14.725	1003.298	765.282
88.826	14.814	1001.864	764.531
89.841	14.908	1001.111	764.317
90.855	14.812	1000.684	763.485
91.870	14.928	999.543	763.077
92.884	14.927	998.693	762.356
93.899	15.011	997.787	761.979
94.914	15.034	997.186	761.556
95.928	15.020	996.391	760.817
96.943	14.914	995.640	759.696
97.957	14.897	994.501	758.681
98.972	14.878	993.815	758.007
99.987	14.847	992.916	757.113
101.001	14.943	992.049	756.821
102.016	14.947	991.131	756.069
103.030	14.970	990.371	755.526
104.045	14.928	989.790	754.828
105.060	14.833	988.810	753.585
106.074	14.684	988.016	752.242
107.089	14.637	986.842	751.072
108.103	14.526	986.188	750.004
109.118	14.601	985.136	749.478
110.133	14.457	984.061	747.946
111.147	14.622	982.945	747.774
112.162	14.614	982.633	747.432
113.176	14.697	982.004	747.260
114.191	14.851	980.899	747.040
115.206	14.616	980.389	745.538
116.220	14.641	979.316	744.767
117.235	14.697	978.634	744.431
118.249	14.646	977.673	743.408
119.264	14.610	976.950	742.633
120.279	14.491	976.530	741.719
121.293	14.517	975.591	741.055
122.308	14.473	974.667	740.093
123.322	14.531	973.216	739.181
124.337	14.581	972.116	738.501
125.352	14.558	971.695	738.015
126.366	14.489	970.466	736.709
127.381	14.519	969.761	736.244
128.395	14.468	968.907	735.305
129.410	14.716	967.649	735.378
130.424	14.688	966.893	734.616
131.439	14.693	966.561	734.318
132.454	14.671	966.020	733.746
133.468	14.678	965.073	732.995
134.483	14.774	963.829	732.406
135.497	14.683	963.086	731.376
136.512	14.800	962.169	731.127
137.527	14.805	961.573	730.630
138.541	14.770	960.876	729.886
139.556	14.908	960.421	730.076
140.570	15.044	959.269	729.731
141.585	14.915	958.860	728.792
142.600	14.973	957.670	728.075
143.614	15.062	956.991	727.880
144.629	15.199	956.483	728.026
145.643	14.981	955.358	726.157
146.658	14.896	954.575	725.133
147.673	14.788	953.332	723.653
148.687	14.819	952.393	723.012
149.702	14.736	951.624	722.004
150.716	14.698	951.043	721.335
151.731	14.806	950.271	721.155
152.746	14.762	949.715	720.476
153.760	14.866	949.147	720.431
154.775	14.974	948.780	720.553
155.789	14.976	947.778	719.740
156.804	14.961	947.098	719.094
157.819	15.029	946.601	718.945
158.833	14.961	945.987	718.124
159.848	15.084	945.262	718.038
160.862	15.183	943.769	717.263
161.877	15.020	942.915	715.852
162.892	14.909	941.808	714.475
163.906	14.792	941.310	713.536
164.921	14.805	940.561	712.958
165.935	14.977	939.680	712.961
166.950	14.992	938.704	712.223
167.964	14.995	938.037	711.666
168.979	14.852	937.146	710.317
169.994	14.913	936.247	709.832
171.008	14.976	935.465	709.445
172.023	15.055	935.109	709.447
173.037	15.096	934.448	709.058
174.052	15.057	933.373	708.012
175.067	14.913	932.652	706.796
176.081	15.088	932.012	706.985
177.096	14.959	931.783	706.207
178.110	14.915	931.350	705.631
179.125	14.972	930.730	705.338
180.140	15.149	930.062	705.514
181.154	15.093	929.605	704.872
182.169	15.100	929.388	704.672
183.183	15.290	928.386	704.649
184.198	15.280	927.510	703.881
185.213	15.239	927.026	703.277
186.227	15.213	926.500	702.707
187.242	15.284	926.046	702.600
188.256	15.387	925.118	702.266
189.271	15.349	924.389	701.487
190.286	15.185	923.314	699.928
191.300	14.868	922.511	697.931
192.315	14.945	921.905	697.734
193.329	14.878	921.936	697.414
194.344	14.962	920.756	696.811
195.359	15.108	920.259	696.981
196.373	15.230	920.039	697.261
197.388	15.287	919.669	697.157
198.402	15.470	919.059	697.391
199.417	15.403	918.562	696.674
200.432	15.537	917.769	696.569
201.446	15.493	917.783	696.335
202.461	15.657	916.989	696.349
203.475	15.574	916.328	695.441
204.490	15.525	915.437	694.501
205.504	15.502	914.532	693.658
206.519	15.382	913.880	692.605
207.534	15.445	913.326	692.385
208.548	15.516	912.422	691.932
209.563	15.548	911.780	691.514
210.577	15.504	911.362	690.956
211.592	15.608	910.377	690.576
212.607	15.654	909.715	690.203
213.621	15.595	909.133	689.456
214.636	15.643	908.232	688.911
215.650	15.648	907.566	688.364
216.665	15.763	906.962	688.315
217.680	15.599	906.832	687.484
218.694	15.762	905.997	687.458
219.709	15.913	904.784	687.093
220.723	15.836	904.396	686.421
221.738	15.681	903.814	685.290
222.753	15.737	902.997	684.837
223.767	15.810	902.610	684.780
224.782	15.859	902.255	684.647
225.796	15.792	901.736	683.922
226.811	15.840	901.022	683.516
227.826	15.799	900.026	682.531
228.840	15.785	899.111	681.721
229.855	15.729	898.436	680.922
230.869	15.813	897.427	680.439
231.884	15.791	897.045	679.998
232.899	15.627	896.448	678.824
233.913	15.818	895.485	678.806
234.928	15.576	895.162	677.522
235.942	15.620	894.550	677.177
236.957	15.752	893.909	677.163
237.972	15.746	893.407	676.700
238.986	15.665	893.228	676.181
240.001	15.556	892.620	675.221
241.015	15.733	891.667	675.151
242.030	15.788	891.062	674.852
243.045	15.883	890.563	674.797
244.059	15.772	890.084	673.929
245.074	15.932	889.075	673.745
246.088	15.934	888.672	673.390
247.103	16.053	888.038	673.324
248.117	16.047	887.663	672.957
249.132	16.241	887.175	673.299
250.147	16.325	886.553	673.105
251.161	16.375	885.730	672.617
252.176	16.317	885.306	672.008
253.190	16.280	884.598	671.264
254.205	16.421	884.105	671.390
255.220	16.324	883.635	670.589
256.234	16.354	882.681	669.923
257.249	16.520	881.901	669.932
258.263	16.351	881.453	668.862
259.278	16.373	880.691	668.309
260.293	16.507	880.086	668.323
261.307	16.573	879.437	668.031
262.322	16.671	878.793	667.867
263.336	16.574	878.059	666.871
264.351	16.702	877.234	666.688
265.366	16.696	877.026	666.448
266.380	16.492	876.408	665.117
267.395	16.490	875.573	664.415
268.409	16.534	874.708	663.874
269.424	16.548	873.839	663.210
270.439	16.639	873.237	663.050
271.453	16.614	872.484	662.323
272.468	16.472	872.252	661.533
273.482	16.576	871.475	661.292
274.497	16.350	871.269	660.192
275.512	16.516	870.296	660.045
276.526	16.594	869.905	659.995
277.541	16.673	869.602	660.017
278.555	16.692	868.843	659.456
279.570	16.845	868.221	659.518
280.585	16.821	867.435	658.772
281.599	16.703	866.649	657.657
282.614	16.680	866.092	657.087
283.628	16.724	865.365	656.648
284.643	16.702	864.618	655.938
285.657	16.772	864.082	655.746
286.672	16.793	863.460	655.297
287.687	16.817	862.862	654.875
288.701	16.742	862.531	654.278
289.716	16.660	861.957	653.470
290.730	16.804	861.560	653.666
291.745	16.779	860.942	653.040
292.760	16.907	860.375	653.045
293.774	16.964	859.876	652.831
294.789	16.922	859.066	651.996
295.803	16.882	858.043	651.008
296.818	16.808	857.685	650.393
297.833	16.849	856.900	649.899
298.847	16.995	855.942	649.672
299.862	16.803	856.067	648.974
300.876	17.027	855.290	649.186
301.891	16.902	854.998	648.430
302.906	17.054	854.406	648.503
303.920	17.181	853.690	648.389
304.935	17.266	852.984	648.119
305.949	17.169	852.357	647.215
306.964	17.007	852.384	646.561
307.979	17.039	851.645	646.066
308.993	17.183	851.073	646.120
310.008	17.112	850.568	645.410
311.022	17.157	849.745	644.900
312.037	17.077	848.668	643.722
313.052	17.062	848.366	643.379
314.066	17.063	847.750	642.861
315.081	17.046	847.628	642.645
316.095	17.108	846.721	642.136
317.110	16.989	846.153	641.200
318.125	17.112	845.677	641.244
319.139	16.944	845.772	640.625
320.154	17.080	845.057	640.542
321.168	17.217	844.259	640.395
322.183	17.216	843.724	639.930
323.197	17.223	843.204	639.505
324.212	17.186	842.702	638.928
325.227	17.233	842.018	638.532
326.241	17.192	841.309	637.782
327.256	17.241	840.812	637.534
328.270	17.095	840.481	636.678
329.285	17.229	839.728	636.555
330.300	17.242	839.391	636.289
331.314	17.132	838.802	635.375
332.329	17.220	838.348	635.306
333.343	17.300	838.227	635.454
334.358	17.186	837.695	634.569
335.373	17.389	836.944	634.704
336.387	17.460	836.700	634.728
337.402	17.409	836.610	634.411
338.416	17.434	836.651	634.479
339.431	17.659	836.063	634.817
340.446	17.652	835.788	634.525
341.460	17.651	835.062	633.912
342.475	17.624	834.749	633.520
343.489	17.569	834.506	633.075
344.504	17.729	833.956	633.195
345.519	17.768	833.553	632.978
346.533	17.744	833.108	632.496
347.548	17.706	831.947	631.417
348.562	17.617	831.872	630.976
349.577	17.471	831.358	629.987
350.592	17.579	830.385	629.596
351.606	17.518	829.837	628.898
352.621	17.792	828.679	628.977
353.635	17.732	828.210	628.344
354.650	17.801	827.675	628.136
355.665	17.725	827.172	627.417
356.679	17.683	826.639	626.804
357.694	17.678	826.423	626.567
358.708	17.735	825.299	625.869
359.723	17.618	825.209	625.316
360.738	17.758	824.199	625.007
361.752	17.786	823.793	624.746
362.767	17.889	823.223	624.637
363.781	17.874	822.899	624.282
364.796	18.044	822.372	624.446
365.810	18.121	822.128	624.488
366.825	18.192	821.657	624.333
367.840	18.027	821.152	623.294
368.854	18.068	820.749	623.082
369.869	18.041	819.803	622.210
370.883	18.083	819.799	622.304
371.898	18.066	819.894	622.259
372.913	18.122	818.655	621.468
373.927	18.107	818.337	621.116
374.942	18.258	818.047	621.389
375.956	18.221	817.600	620.860
376.971	18.267	816.946	620.475
377.986	18.328	816.893	620.603
379.000	18.395	816.265	620.315
380.015	18.266	815.709	619.368
381.029	18.311	815.044	618.973
382.044	18.329	814.180	618.326
383.059	18.268	814.006	617.920
384.073	18.271	813.699	617.642
385.088	18.340	812.724	617.095
386.102	18.227	812.358	616.357
387.117	18.228	811.499	615.653
388.132	18.371	810.658	615.477
389.146	18.288	810.659	615.122
390.161	18.260	810.473	614.828
391.175	18.200	810.072	614.252
392.190	18.348	809.170	614.044
393.205	18.309	808.414	613.277
394.219	18.186	808.324	612.714
395.234	18.308	807.591	612.543
396.248	18.300	807.202	612.164
397.263	18.160	807.092	611.524
398.278	18.255	806.667	611.489
399.292	18.231	806.208	610.999
400.307	18.199	805.860	610.570
401.321	18.287	805.198	610.328
402.336	18.444	804.589	610.370
403.350	18.326	804.685	609.968
404.365	18.411	804.000	609.699
405.380	18.587	803.363	609.788
406.394	18.680	802.615	609.495
407.409	18.750	802.324	609.469
408.423	18.656	802.689	609.359
409.438	18.786	802.060	609.290
410.453	18.727	801.900	608.903
411.467	18.721	800.951	608.108
412.482	18.775	800.620	607.995
413.496	18.708	800.677	607.745
414.511	18.790	800.308	607.704
415.526	18.912	799.530	607.489
416.540	18.714	798.943	606.289
417.555	18.739	798.464	605.961
418.569	18.799	797.830	605.638
419.584	18.957	797.394	605.812
420.599	18.841	797.177	605.182
421.613	156.244	1371.182	1792.920
422.628	135.366	1454.829	1793.039
