DTS Sentinel unit serial number:	SN413079Multiplexer serial number:	ORYXHardware model number:	OX4-SRSoftware version number:	ORYX F/W v4.00 Oryx Data Collector v3.7.2.0data status	okinstallation	princeton_trtdifferential loss correction	single-endedforward channel	channel 1reverse channel	N/Adate	2019/09/17time	18:46:35forward acquisition time	60.00reverse acquisition time	0.00gamma	496.2192k internal	0.2290k external	0.2290temperature offset calibration	0.9966default loss term (dB/km)	0.3790temperature slope calibration	1.0000multiplexer offset coefficient	1.0000multiplexer slope coefficient	1.0000fibre end	0.00T internal ref (°C)	42.16T ext. ref 1 (°C)	0.30T ext. ref 2 (°C)	32.43length (m)	temperature (°C)	Stokes	anti-Stokes-747.200	0.774	0.072	0.053
-746.185	-37.689	-0.104	0.057
-745.171	800.000	0.096	0.294
-744.156	-130.715	-0.310	-0.043
-743.142	-102.166	-0.216	-0.053
-742.127	-200.000	-0.053	0.467
-741.112	-87.630	-0.175	0.054
-740.098	646.084	0.155	0.406
-739.083	800.000	-0.035	-0.143
-738.069	800.000	0.043	0.133
-737.054	-200.000	-0.018	0.168
-736.039	-62.294	-0.290	-0.124
-735.025	-11.932	-0.328	0.220
-734.010	160.926	-0.111	0.159
-732.996	-200.000	0.002	-0.057
-731.981	583.248	-0.135	-0.340
-730.966	116.270	-0.104	-0.131
-729.952	-152.134	-0.493	-0.037
-728.937	-51.463	-0.247	0.118
-727.923	152.118	-0.183	0.256
-726.908	12.950	-0.199	0.158
-725.894	61.800	-0.247	-0.252
-724.879	-22.015	-0.212	0.132
-723.864	-200.000	0.020	-0.166
-722.850	800.000	-0.025	-0.087
-721.835	-152.334	-0.331	0.024
-720.821	118.012	0.165	0.208
-719.806	33.812	-0.085	-0.076
-718.791	-94.003	-0.180	0.051
-717.777	-129.564	-0.216	-0.031
-716.762	-200.000	-0.049	0.246
-715.748	800.000	-0.076	-0.269
-714.733	-155.286	0.091	-0.006
-713.718	-123.120	-0.120	0.020
-712.704	535.456	-0.195	0.474
-711.689	-79.244	-0.110	-0.038
-710.675	-172.741	0.204	-0.007
-709.660	-45.301	-0.392	0.199
-708.645	-51.273	-0.194	0.093
-707.631	-147.351	-0.223	0.019
-706.616	579.553	0.038	-0.094
-705.602	-200.000	0.047	-0.242
-704.587	788.360	0.120	-0.336
-703.572	32.674	0.189	0.167
-702.558	-51.524	0.085	-0.041
-701.543	-81.926	0.396	-0.132
-700.529	-87.248	0.572	-0.178
-699.514	1.294	-0.061	-0.045
-698.499	296.960	-0.062	0.117
-697.485	-200.000	0.003	-0.032
-696.470	800.000	-0.062	0.245
-695.456	377.016	0.100	0.209
-694.441	35.294	0.153	-0.137
-693.426	-200.000	-0.066	0.304
-692.412	260.687	0.161	0.284
-691.397	38.342	-0.097	0.088
-690.383	-56.272	-0.022	0.010
-689.368	-96.123	-0.094	0.025
-688.354	-64.329	0.183	-0.076
-687.339	-200.000	0.001	0.166
-686.324	-84.744	-0.135	0.043
-685.310	750.926	0.033	0.090
-684.295	-71.125	-0.138	-0.053
-683.281	-200.000	0.025	0.173
-682.266	59.987	-0.088	0.089
-681.251	-15.226	0.240	-0.157
-680.237	15.943	0.096	0.077
-679.222	-58.957	-0.278	0.123
-678.208	-115.944	-0.199	-0.038
-677.193	-115.721	-0.168	-0.032
-676.178	220.473	-0.105	0.173
-675.164	454.336	-0.098	0.221
-674.149	433.952	-0.107	0.238
-673.135	-26.268	0.127	0.076
-672.120	423.170	0.012	0.027
-671.105	-73.772	-0.295	0.110
-670.091	244.929	-0.078	-0.134
-669.076	-200.000	0.090	-0.442
-668.062	800.000	0.058	-0.190
-667.047	-119.367	0.083	-0.015
-666.032	-79.062	-0.026	-0.009
-665.018	407.461	-0.174	-0.377
-664.003	-200.000	-0.029	-0.275
-662.989	254.566	0.077	0.134
-661.974	279.173	-0.088	0.161
-660.959	-200.000	-0.048	0.235
-659.945	481.464	0.114	0.265
-658.930	66.762	0.255	0.265
-657.916	543.041	0.071	-0.173
-656.901	377.936	-0.073	0.153
-655.886	-46.888	0.274	-0.137
-654.872	800.000	-0.120	0.394
-653.857	-6.295	0.208	0.145
-652.843	178.736	-0.218	0.326
-651.828	-200.000	0.000	0.352
-650.814	-34.037	-0.171	-0.096
-649.799	10.912	-0.126	-0.098
-648.784	800.000	-0.082	-0.328
-647.770	-200.000	0.001	-0.276
-646.755	-155.519	0.144	-0.009
-645.741	-52.128	0.170	-0.081
-644.726	113.587	0.198	-0.245
-643.711	-200.000	-0.005	0.038
-642.697	800.000	-0.077	0.237
-641.682	-53.262	-0.235	0.110
-640.668	800.000	-0.097	0.416
-639.653	25.553	-0.245	-0.208
-638.638	800.000	0.038	0.122
-637.624	55.332	0.161	0.159
-636.609	109.483	0.057	-0.069
-635.595	129.137	-0.124	0.162
-634.580	-128.297	-0.355	0.052
-633.565	-137.965	0.052	0.006
-632.551	159.731	-0.025	-0.036
-631.536	-200.000	-0.029	0.140
-630.522	-155.203	0.103	0.007
-629.507	-25.039	-0.377	0.228
-628.492	-73.980	0.377	-0.139
-627.478	-200.000	-0.081	-0.402
-626.463	198.299	-0.038	0.060
-625.449	-104.638	0.246	-0.058
-624.434	15.452	-0.222	-0.178
-623.419	-22.770	-0.296	-0.182
-622.405	-155.213	-0.131	-0.009
-621.390	-200.000	-0.015	0.074
-620.376	401.513	-0.054	-0.115
-619.361	163.347	0.182	-0.261
-618.346	231.710	0.080	0.134
-617.332	30.926	-0.430	-0.375
-616.317	-200.000	0.101	-0.483
-615.303	-70.337	0.154	-0.060
-614.288	207.587	0.109	-0.173
-613.273	140.277	0.025	-0.033
-612.259	461.377	0.072	-0.162
-611.244	25.007	-0.098	-0.082
-610.230	-200.000	-0.027	-0.139
-609.215	-20.606	0.109	-0.068
-608.201	7.852	0.331	0.253
-607.186	-200.000	-0.002	-0.197
-606.171	-12.565	0.406	0.270
-605.157	800.000	0.059	-0.199
-604.142	306.158	0.119	0.225
-603.128	1.377	0.119	-0.087
-602.113	-200.000	-0.015	-0.277
-601.098	596.942	0.057	0.143
-600.084	56.515	0.120	-0.119
-599.069	-43.830	0.098	0.050
-598.055	800.000	-0.078	-0.225
-597.040	800.000	-0.075	-0.234
-596.025	390.136	-0.073	-0.154
-595.011	133.162	-0.211	0.277
-593.996	-200.000	-0.029	-0.290
-592.982	-161.746	-0.141	0.007
-591.967	-13.451	0.237	0.156
-590.952	-197.968	0.125	0.001
-589.938	418.272	-0.067	-0.146
-588.923	67.716	-0.156	-0.163
-587.909	-70.259	0.037	-0.014
-586.894	21.083	-0.337	0.278
-585.879	-87.526	-0.200	0.062
-584.865	-129.747	0.481	0.067
-583.850	-200.000	-0.009	-0.095
-582.836	-55.790	-0.140	0.064
-581.821	-107.205	0.363	-0.081
-580.806	-200.000	-0.005	-0.043
-579.792	-200.000	-0.005	0.277
-578.777	-200.000	0.066	0.344
-577.763	-200.000	0.003	0.349
-576.748	-102.473	0.132	-0.032
-575.733	378.898	0.042	0.087
-574.719	253.680	0.054	0.095
-573.704	-200.000	-0.017	0.140
-572.690	-200.000	0.015	0.179
-571.675	-184.907	-0.140	0.002
-570.661	-38.792	-0.240	0.129
-569.646	-19.533	-0.343	-0.216
-568.631	83.551	0.047	-0.052
-567.617	68.400	-0.095	-0.099
-566.602	57.111	-0.136	0.135
-565.588	43.802	0.150	0.139
-564.573	157.305	0.045	-0.063
-563.558	-143.711	-0.035	-0.003
-562.544	800.000	-0.037	0.116
-561.529	-200.000	0.037	-0.299
-560.515	358.332	-0.102	0.208
-559.500	516.472	0.090	0.213
-558.485	-87.827	0.207	0.063
-557.471	421.611	-0.053	0.115
-556.456	166.148	0.151	0.217
-555.442	-200.000	-0.019	-0.107
-554.427	680.801	0.091	-0.242
-553.412	-56.027	-0.352	-0.160
-552.398	-66.954	-0.133	-0.053
-551.383	-55.078	-0.427	0.195
-550.369	75.825	0.294	0.316
-549.354	-22.099	-0.122	-0.076
-548.339	602.357	-0.040	-0.101
-547.325	800.000	0.066	-0.227
-546.310	-64.675	-0.206	-0.085
-545.296	318.226	0.019	0.036
-544.281	-66.690	-0.157	0.063
-543.266	55.165	-0.073	-0.072
-542.252	-148.905	0.080	0.007
-541.237	-102.664	-0.356	0.086
-540.223	-138.519	0.046	-0.005
-539.208	110.984	0.425	-0.519
-538.193	-109.556	0.268	-0.057
-537.179	202.125	-0.096	-0.151
-536.164	172.481	0.185	-0.270
-535.150	311.300	0.023	-0.045
-534.135	-8.903	-0.066	-0.045
-533.121	-39.141	-0.188	0.100
-532.106	476.112	-0.138	-0.318
-531.091	125.857	0.204	0.262
-530.077	12.986	0.122	0.096
-529.062	800.000	0.040	-0.148
-528.048	-128.614	-0.309	-0.044
-527.033	-44.448	0.216	0.110
-526.018	340.042	-0.022	0.044
-525.004	-200.000	-0.043	0.226
-523.989	-120.607	-0.245	-0.042
-522.975	-200.000	-0.008	0.057
-521.960	-99.815	0.044	0.011
-520.945	-91.255	0.279	-0.081
-519.931	112.331	0.101	0.125
-518.916	-124.087	-0.268	-0.043
-517.902	-65.341	-0.083	-0.034
-516.887	800.000	0.071	0.220
-515.872	90.856	-0.100	0.114
-514.858	202.908	-0.133	0.209
-513.843	-175.403	-0.375	0.010
-512.829	-9.597	-0.085	-0.057
-511.814	-95.224	0.196	0.054
-510.799	-108.772	-0.152	0.033
-509.785	-200.000	0.010	0.132
-508.770	-75.122	0.107	-0.039
-507.756	-194.350	0.238	0.002
-506.741	-14.910	-0.090	0.058
-505.726	-62.095	0.228	0.096
-504.712	-200.000	0.269	0.001
-503.697	-90.359	0.364	0.107
-502.683	548.367	-0.042	-0.101
-501.668	800.000	0.107	0.361
-500.653	-160.714	0.194	0.010
-499.639	-117.632	0.354	-0.065
-498.624	-65.910	-0.242	0.098
-497.610	800.000	0.113	-0.492
-496.595	395.486	-0.029	0.062
-495.581	-65.056	-0.027	-0.011
-494.566	-71.425	0.142	0.054
-493.551	-200.000	-0.168	-0.001
-492.537	41.526	-0.268	-0.246
-491.522	-100.070	-0.070	-0.018
-490.508	-71.829	-0.269	0.102
-489.493	-200.000	0.023	-0.114
-488.478	800.000	-0.069	-0.282
-487.464	-19.247	0.040	-0.025
-486.449	-89.966	0.115	0.034
-485.435	671.182	-0.072	-0.190
-484.420	-200.000	-0.042	0.263
-483.405	-81.190	-0.192	-0.064
-482.391	431.587	0.092	0.201
-481.376	-121.115	-0.318	0.054
-480.362	800.000	-0.044	0.176
-479.347	-28.178	-0.067	0.039
-478.332	-68.195	0.096	-0.038
-477.318	-120.600	-0.143	0.025
-476.303	-95.164	0.131	0.036
-475.289	-11.420	0.295	-0.197
-474.274	180.521	-0.055	0.082
-473.259	118.253	0.236	0.295
-472.245	151.349	-0.114	-0.157
-471.230	-98.538	-0.079	0.020
-470.216	81.809	-0.032	-0.036
-469.201	-118.283	-0.508	0.092
-468.186	-181.931	0.356	0.007
-467.172	39.603	-0.056	-0.051
-466.157	-200.000	0.012	-0.262
-465.143	-87.420	-0.036	0.011
-464.128	-99.284	-0.131	0.033
-463.113	744.338	0.090	-0.246
-462.099	-66.688	-0.044	-0.018
-461.084	139.051	0.179	0.239
-460.070	346.163	-0.096	-0.192
-459.055	800.000	0.003	0.015
-458.040	800.000	-0.069	-0.257
-457.026	219.442	-0.059	-0.095
-456.011	99.983	-0.104	-0.122
-454.997	0.272	-0.049	0.035
-453.982	1.121	0.238	-0.173
-452.968	227.738	0.023	-0.038
-451.953	-74.745	-0.352	0.128
-450.938	93.201	-0.098	0.112
-449.924	19.815	0.102	-0.083
-448.909	97.499	-0.053	0.061
-447.895	-23.549	0.230	0.140
-446.880	-200.000	0.078	0.453
-445.865	-139.866	-0.140	-0.015
-444.851	-81.741	-0.184	0.061
-443.836	134.927	0.179	0.235
-442.822	423.017	0.129	0.280
-441.807	13.068	0.126	0.099
-440.792	-151.048	-0.374	-0.029
-439.778	-137.016	0.275	-0.032
-438.763	-41.760	-0.166	-0.086
-437.749	-136.070	-0.087	0.010
-436.734	-200.000	0.018	-0.149
-435.719	-60.138	0.175	0.075
-434.705	-81.806	-0.168	0.056
-433.690	-200.000	0.009	0.100
-432.676	-33.380	-0.154	0.086
-431.661	-63.585	0.262	-0.109
-430.646	-200.000	0.006	0.032
-429.632	-149.931	0.273	0.022
-428.617	173.331	-0.099	-0.144
-427.603	800.000	-0.095	0.313
-426.588	159.732	-0.110	-0.155
-425.573	4.989	0.203	0.151
-424.559	-200.000	0.029	0.342
-423.544	-189.435	0.148	-0.002
-422.530	-200.000	-0.001	-0.324
-421.515	-17.873	-0.193	-0.122
-420.500	198.337	0.155	-0.241
-419.486	800.000	0.023	-0.090
-418.471	-23.297	-0.088	-0.054
-417.457	800.000	-0.031	0.097
-416.442	-121.987	0.247	0.041
-415.428	-39.210	0.271	0.144
-414.413	-110.268	0.248	-0.052
-413.398	800.000	-0.045	0.175
-412.384	-120.946	0.038	0.006
-411.369	485.079	-0.095	-0.219
-410.355	-200.000	0.042	-0.243
-409.340	-39.865	-0.149	-0.079
-408.325	-40.465	0.055	0.029
-407.311	-100.876	-0.272	0.068
-406.296	-103.507	-0.133	0.032
-405.282	36.061	-0.094	-0.084
-404.267	800.000	0.052	-0.214
-403.252	800.000	-0.092	0.401
-402.238	-91.947	0.119	0.034
-401.223	-200.000	-0.007	-0.096
-400.209	-121.710	0.300	0.050
-399.194	-128.324	-0.219	-0.031
-398.179	-200.000	0.034	-0.154
-397.165	-200.000	-0.017	0.119
-396.150	59.759	0.141	-0.140
-395.136	147.517	0.084	0.115
-394.121	-68.385	0.246	-0.097
-393.106	-83.475	0.307	0.099
-392.092	-107.382	-0.167	0.037
-391.077	800.000	-0.098	-0.316
-390.063	444.754	0.131	-0.291
-389.048	-200.000	0.039	-0.256
-388.033	93.809	-0.128	-0.146
-387.019	-200.000	-0.041	-0.244
-386.004	194.303	-0.018	-0.027
-384.990	714.858	0.096	0.258
-383.975	-128.930	-0.044	-0.006
-382.960	55.615	-0.111	0.109
-381.946	800.000	0.131	-0.399
-380.931	208.891	-0.248	-0.392
-379.917	800.000	-0.017	0.055
-378.902	-200.000	0.009	0.056
-377.888	-200.000	0.060	-0.339
-376.873	800.000	-0.079	-0.251
-375.858	-55.220	0.132	-0.060
-374.844	110.948	0.121	-0.147
-373.829	-5.615	-0.189	0.131
-372.815	800.000	-0.054	0.184
-371.800	-33.315	0.250	0.140
-370.785	48.100	0.192	-0.181
-369.771	152.830	-0.174	0.239
-368.756	-18.392	0.168	0.106
-367.742	156.722	0.057	0.080
-366.727	257.241	-0.098	0.169
-365.712	424.323	-0.078	-0.170
-364.698	-98.123	-0.230	-0.060
-363.683	800.000	-0.051	-0.221
-362.669	324.178	-0.152	-0.294
-361.654	546.832	0.071	-0.171
-360.639	800.000	0.011	-0.037
-359.625	344.542	0.058	0.116
-358.610	800.000	-0.060	-0.169
-357.596	-116.038	-0.291	-0.055
-356.581	17.219	0.109	0.087
-355.566	-78.475	0.199	0.069
-354.552	-200.000	0.045	0.218
-353.537	47.226	0.172	0.161
-352.523	312.968	-0.145	-0.276
-351.508	541.940	-0.034	0.082
-350.493	-55.976	0.080	0.036
-349.479	393.165	0.129	-0.272
-348.464	-94.158	-0.111	-0.031
-347.450	-135.206	-0.234	0.028
-346.435	-73.433	-0.103	0.038
-345.420	-55.321	0.122	0.055
-344.406	-76.315	0.163	-0.058
-343.391	515.795	-0.076	0.179
-342.377	800.000	-0.015	-0.063
-341.362	-30.217	-0.154	0.088
-340.348	800.000	0.032	-0.108
-339.333	173.260	-0.111	-0.162
-338.318	165.045	0.141	0.200
-337.304	151.144	0.178	0.244
-336.289	-66.255	-0.221	0.089
-335.275	-197.196	-0.141	0.001
-334.260	34.612	-0.086	-0.075
-333.245	-37.572	-0.245	-0.132
-332.231	297.189	0.124	0.229
-331.216	-100.639	0.421	-0.105
-330.202	-44.975	0.205	0.103
-329.187	-59.841	0.170	0.073
-328.172	-19.328	-0.140	-0.088
-327.158	-200.000	-0.006	0.263
-326.143	800.000	-0.173	-0.518
-325.129	278.156	-0.148	0.265
-324.114	31.873	0.126	-0.110
-323.099	118.744	0.201	-0.251
-322.085	13.980	0.087	0.068
-321.070	794.540	0.046	-0.127
-320.056	-165.965	0.272	-0.012
-319.041	-63.400	-0.194	0.080
-318.026	193.177	-0.109	0.166
-317.012	-133.442	-0.297	-0.038
-315.997	14.753	0.203	-0.160
-314.983	349.781	0.060	-0.120
-313.968	-100.755	-0.145	-0.036
-312.953	-38.499	0.265	0.141
-311.939	-28.326	0.275	0.160
-310.924	27.847	-0.118	-0.100
-309.910	32.661	0.088	0.076
-308.895	-99.949	-0.265	-0.067
-307.880	-147.626	-0.090	0.008
-306.866	223.716	0.226	-0.368
-305.851	55.133	0.318	-0.309
-304.837	82.032	-0.194	0.211
-303.822	22.288	-0.202	0.166
-302.807	-27.294	0.257	-0.151
-301.793	-147.314	0.085	0.007
-300.778	-74.408	0.105	-0.038
-299.764	-135.079	-0.292	0.035
-298.749	-70.258	0.200	-0.076
-297.735	21.918	-0.165	-0.135
-296.720	-8.292	-0.137	0.093
-295.705	-110.624	0.075	-0.016
-294.691	167.963	0.061	-0.087
-293.676	-114.489	-0.038	0.007
-292.662	386.930	-0.148	-0.308
-291.647	-38.925	0.191	-0.101
-290.632	24.512	0.298	0.248
-289.618	4.624	0.209	0.155
-288.603	93.058	-0.117	-0.134
-287.589	142.178	0.163	-0.218
-286.574	-170.647	-0.068	-0.002
-285.559	800.000	0.062	-0.244
-284.545	-149.865	0.239	-0.019
-283.530	597.039	-0.070	0.175
-282.516	-200.000	-0.057	0.506
-281.501	-97.996	-0.161	0.042
-280.486	78.321	0.043	0.047
-279.472	800.000	0.036	0.123
-278.457	30.435	0.063	-0.054
-277.443	200.900	0.066	0.103
-276.428	660.380	-0.025	0.064
-275.413	350.931	-0.033	-0.066
-274.399	800.000	-0.034	-0.126
-273.384	15.665	0.080	-0.063
-272.370	-200.000	0.010	0.267
-271.355	696.273	-0.068	0.181
-270.340	194.142	-0.082	0.125
-269.326	454.767	0.115	0.256
-268.311	-36.181	0.315	0.171
-267.297	800.000	-0.017	-0.073
-266.282	-52.943	0.194	0.090
-265.267	482.876	-0.109	-0.249
-264.253	78.174	0.181	-0.194
-263.238	-183.068	0.090	-0.002
-262.224	800.000	0.057	0.223
-261.209	800.000	-0.052	-0.185
-260.195	-37.764	-0.086	-0.046
-259.180	287.968	0.085	0.154
-258.165	44.346	-0.074	-0.068
-257.151	-57.721	-0.208	0.092
-256.136	-128.746	-0.315	-0.045
-255.122	-138.406	0.240	-0.027
-254.107	-177.874	0.191	-0.005
-253.092	-20.747	-0.142	0.087
-252.078	800.000	0.006	-0.026
-251.063	322.394	-0.045	0.085
-250.049	-200.000	-0.025	0.201
-249.034	-89.495	-0.241	0.071
-248.019	-75.210	-0.185	-0.066
-247.005	-18.211	0.201	0.126
-245.990	-200.000	-0.054	0.329
-244.976	45.909	-0.135	0.126
-243.961	-54.032	-0.156	0.071
-242.946	-74.748	-0.162	-0.058
-241.932	-33.466	0.289	0.161
-240.917	-173.087	0.278	-0.009
-239.903	-142.287	0.204	0.020
-238.888	800.000	0.072	0.212
-237.873	302.948	0.182	0.338
-236.859	103.265	0.092	-0.109
-235.844	44.824	0.324	-0.299
-234.830	611.477	-0.047	-0.119
-233.815	-106.614	-0.280	-0.063
-232.800	-170.312	-0.231	-0.008
-231.786	-102.591	-0.273	0.065
-230.771	-200.000	0.032	-0.248
-229.757	800.000	0.051	-0.160
-228.742	-200.000	0.001	0.006
-227.727	-200.000	0.031	0.136
-226.713	99.198	-0.033	0.038
-225.698	-200.000	0.009	0.278
-224.684	387.946	-0.164	0.341
-223.669	-200.000	-0.010	0.215
-222.655	800.000	-0.068	0.196
-221.640	165.630	-0.067	0.095
-220.625	435.451	0.039	0.086
-219.611	169.207	-0.089	-0.128
-218.596	-54.450	0.187	0.085
-217.582	-47.171	-0.100	-0.049
-216.567	-200.000	0.013	0.078
-215.552	-200.000	-0.235	-0.001
-214.538	-100.189	0.237	-0.059
-213.523	93.180	-0.055	0.062
-212.509	424.165	-0.017	0.037
-211.494	156.289	0.151	0.210
-210.479	-58.523	-0.168	-0.073
-209.465	-200.000	-0.006	0.157
-208.450	73.448	0.133	0.140
-207.436	-33.653	0.227	-0.126
-206.421	544.818	0.015	-0.035
-205.406	24.991	0.157	-0.131
-204.392	-200.000	-0.009	0.122
-203.377	371.544	0.187	0.380
-202.363	-151.057	-0.455	0.034
-201.348	-27.827	-0.268	0.156
-200.333	-19.788	0.066	0.041
-199.319	-200.000	0.045	0.276
-198.304	59.384	-0.274	0.271
-197.290	103.370	-0.171	-0.201
-196.275	-200.000	0.003	-0.060
-195.260	-200.000	-0.054	-0.252
-194.246	800.000	0.021	-0.074
-193.231	-136.512	0.146	-0.017
-192.217	-52.063	-0.203	0.094
-191.202	139.174	-0.166	0.218
-190.187	-200.000	-0.004	-0.261
-189.173	-45.029	0.019	0.010
-188.158	-106.210	-0.099	-0.022
-187.144	-116.382	-0.067	0.012
-186.129	-41.283	0.036	0.018
-185.114	-131.238	-0.308	0.041
-184.100	-65.945	0.010	0.004
-183.085	-9.547	0.201	-0.135
-182.071	-68.042	0.124	-0.048
-181.056	-131.484	0.127	0.017
-180.042	-200.000	-0.007	0.134
-179.027	235.231	-0.059	0.097
-178.012	-42.271	0.179	-0.092
-176.998	-89.854	-0.243	0.071
-175.983	800.000	-0.071	-0.306
-174.969	-200.000	0.015	0.186
-173.954	-200.000	0.007	0.089
-172.939	708.465	-0.049	-0.129
-171.925	-157.272	-0.274	-0.017
-170.910	98.820	0.091	-0.105
-169.896	455.479	0.045	0.099
-168.881	33.543	0.201	-0.175
-167.866	-200.000	-0.032	0.327
-166.852	73.589	-0.315	-0.330
-165.837	-105.778	-0.143	-0.032
-164.823	205.904	0.087	0.135
-163.808	153.661	0.058	-0.079
-162.793	-200.000	-0.038	-0.189
-161.779	-200.000	0.007	-0.235
-160.764	-106.053	0.432	0.097
-159.750	-112.516	-0.326	0.065
-158.735	19.063	-0.092	-0.074
-157.720	-200.000	0.001	0.186
-156.706	800.000	0.085	0.255
-155.691	718.989	0.091	0.242
-154.677	-20.615	-0.105	0.065
-153.662	800.000	0.029	0.122
-152.647	-200.000	-0.010	-0.390
-151.633	185.895	0.138	0.205
-150.618	443.327	0.156	-0.343
-149.604	-116.031	-0.271	0.051
-148.589	213.981	-0.085	-0.135
-147.574	-106.766	-0.265	-0.059
-146.560	-66.904	0.202	0.080
-145.545	-200.000	-0.036	0.312
-144.531	58.231	-0.110	0.108
-143.516	-139.325	-0.181	-0.019
-142.502	-200.000	0.007	0.084
-141.487	72.577	0.196	-0.205
-140.472	-10.334	0.389	-0.258
-139.458	52.579	0.054	0.052
-138.443	-137.593	0.303	0.034
-137.429	105.673	-0.139	-0.165
-136.414	66.911	0.165	0.168
-135.399	98.613	-0.256	-0.295
-134.385	-200.000	0.004	0.226
-133.370	-200.000	-0.000	0.045
-132.356	-179.592	0.108	-0.002
-131.341	-200.000	0.002	0.108
-130.326	-200.000	-0.034	-0.180
-129.312	-200.000	-0.008	0.222
-128.297	-200.000	-0.028	-0.140
-127.283	-5.513	0.319	0.219
-126.268	280.687	-0.045	0.080
-125.253	58.885	-0.206	-0.202
-124.239	-154.557	-0.144	-0.010
-123.224	-1.758	-0.174	0.123
-122.210	-92.216	0.195	0.055
-121.195	401.407	-0.065	0.136
-120.180	800.000	-0.050	-0.189
-119.166	16.370	-0.068	-0.054
-118.151	509.501	-0.065	-0.152
-117.137	800.000	-0.020	-0.076
-116.122	-89.708	-0.148	-0.043
-115.107	224.714	-0.164	0.265
-114.093	243.715	0.064	0.108
-113.078	-1.238	-0.083	0.058
-112.064	-7.880	-0.159	-0.107
-111.049	-73.174	-0.195	0.071
-110.034	74.248	0.118	-0.124
-109.020	-106.613	0.030	-0.007
-108.005	67.768	0.194	0.198
-106.991	29.608	0.104	0.089
-105.976	301.968	0.072	0.133
-104.962	-78.961	-0.053	0.018
-103.947	-182.256	0.152	0.003
-102.932	342.229	0.060	0.118
-101.918	-200.000	-0.014	0.167
-100.903	-24.453	0.195	-0.116
-99.889	-85.288	0.185	0.058
-98.874	-50.013	0.153	-0.073
-97.859	800.000	0.073	0.257
-96.845	-200.000	-0.027	-0.351
-95.830	-79.181	0.268	0.091
-94.816	-67.930	0.342	-0.133
-93.801	102.315	-0.169	0.197
-92.786	788.078	-0.105	0.287
-91.772	4.477	0.362	0.265
-90.757	-200.000	-0.003	-0.267
-89.743	43.971	-0.266	0.243
-88.728	-200.000	-0.013	-0.242
-87.713	-200.000	-0.016	-0.608
-86.699	137.941	0.373	0.488
-85.684	-142.366	0.426	0.042
-84.670	117.465	-0.183	-0.225
-83.655	182.356	0.055	0.081
-82.640	123.800	-0.143	0.179
-81.626	-137.863	0.326	-0.036
-80.611	545.216	0.047	-0.111
-79.597	513.644	-0.098	0.227
-78.582	-45.714	0.234	-0.115
-77.567	110.238	0.107	-0.128
-76.553	-90.440	-0.155	-0.045
-75.538	27.677	0.070	0.059
-74.524	100.521	-0.139	-0.161
-73.509	-72.140	0.341	0.126
-72.494	-134.782	-0.114	0.014
-71.480	291.587	0.055	-0.100
-70.465	332.135	0.078	-0.150
-69.451	-200.000	-0.022	-0.222
-68.436	41.928	-0.085	0.077
-67.422	402.485	0.181	0.380
-66.407	174.108	0.097	0.140
-65.392	172.668	-0.148	0.213
-64.378	385.695	-0.136	0.281
-63.363	525.470	-0.087	0.204
-62.349	-124.148	0.171	0.027
-61.334	18.257	-0.860	-0.685
-60.319	800.000	0.183	0.510
-59.305	-200.000	-0.127	-1.111
-58.290	18.799	0.610	0.487
-57.276	496.831	0.827	1.896
-56.261	-200.000	76.672	538.449
-55.246	553.322	1305.888	3129.580
-54.232	148.192	2529.231	3402.755
-53.217	119.953	2227.060	2753.057
-52.203	54.462	1676.079	1609.793
-51.188	46.153	1399.934	1292.549
-50.173	42.421	1354.312	1227.610
-49.159	61.068	1388.865	1374.314
-48.144	67.825	1407.786	1434.573
-47.130	46.548	1370.234	1267.361
-46.115	42.304	1354.328	1226.716
-45.100	42.096	1349.443	1220.970
-44.086	41.919	1347.230	1217.842
-43.071	42.014	1344.709	1216.092
-42.057	41.839	1342.997	1213.438
-41.042	41.972	1341.540	1212.878
-40.027	42.106	1339.842	1212.104
-39.013	42.162	1337.655	1210.419
-37.998	42.094	1335.665	1208.158
-36.984	42.197	1333.846	1207.084
-35.969	42.141	1332.069	1205.091
-34.954	42.212	1330.588	1204.132
-33.940	42.138	1329.335	1202.507
-32.925	42.259	1328.111	1202.074
-31.911	42.320	1326.092	1200.564
-30.896	42.357	1324.836	1199.605
-29.881	42.229	1323.609	1197.680
-28.867	42.185	1321.966	1195.881
-27.852	42.227	1320.458	1194.724
-26.838	42.221	1318.916	1193.245
-25.823	42.171	1317.767	1191.858
-24.809	42.218	1316.067	1190.551
-23.794	42.188	1314.745	1189.132
-22.779	42.184	1313.624	1188.044
-21.765	42.238	1311.751	1186.626
-20.750	42.140	1310.981	1185.302
-19.736	42.147	1309.502	1183.959
-18.721	42.222	1307.787	1182.806
-17.706	42.126	1307.218	1181.679
-16.692	42.181	1305.732	1180.609
-15.677	42.184	1304.457	1179.429
-14.663	42.083	1303.685	1178.092
-13.648	42.095	1302.125	1176.706
-12.633	42.111	1301.288	1175.993
-11.619	42.052	1300.668	1175.039
-10.604	42.138	1299.416	1174.366
-9.590	42.106	1298.416	1173.229
-8.575	42.012	1297.805	1172.083
-7.560	42.086	1296.575	1171.357
-6.546	41.985	1296.149	1170.336
-5.531	42.145	1294.857	1170.058
-4.517	42.070	1294.464	1169.214
-3.502	42.080	1293.464	1168.328
-2.487	42.167	1292.199	1167.643
-1.473	42.060	1288.088	1163.260
-0.458	39.746	1270.622	1134.161
0.556	31.913	1246.772	1073.681
1.571	25.405	1246.180	1035.693
2.586	22.864	1258.747	1031.225
3.600	21.393	1247.620	1013.502
4.615	15.563	1173.243	921.118
5.629	5.870	1092.403	807.871
6.644	0.678	1069.171	764.405
7.659	0.152	1066.482	759.758
8.673	0.237	1064.667	758.828
9.688	0.134	1063.870	757.675
10.702	0.331	1062.312	757.487
11.717	5.142	1068.819	786.341
12.731	13.607	1079.764	837.252
13.746	17.207	1084.317	858.943
14.761	17.003	1083.343	857.064
15.775	16.171	1081.089	851.011
16.790	15.147	1079.323	844.387
17.804	14.369	1077.606	839.051
18.819	14.066	1076.371	836.489
19.834	13.757	1075.144	833.910
20.848	13.623	1074.127	832.376
21.863	13.275	1073.143	829.793
22.877	13.066	1073.025	828.580
23.892	13.092	1071.962	827.817
24.907	12.920	1071.497	826.518
25.921	13.135	1070.340	826.631
26.936	13.035	1069.870	825.695
27.950	13.125	1068.880	825.308
28.965	13.343	1067.365	825.155
29.980	13.406	1065.944	824.296
30.994	13.411	1064.803	823.366
32.009	13.356	1063.900	822.322
33.023	13.245	1063.467	821.358
34.038	13.300	1061.969	820.402
35.053	13.293	1061.398	819.853
36.067	13.287	1060.413	818.992
37.082	13.249	1060.155	818.535
38.096	13.304	1058.807	817.689
39.111	13.346	1057.892	817.119
40.126	13.286	1056.830	815.929
41.140	13.099	1055.212	813.691
42.155	13.007	1054.867	812.897
43.169	13.136	1053.568	812.460
44.184	13.011	1052.267	810.771
45.199	13.034	1051.410	810.149
46.213	13.138	1050.346	809.768
47.228	13.118	1049.729	809.125
48.242	13.110	1048.606	808.148
49.257	13.231	1047.279	807.643
50.271	13.091	1047.064	806.723
51.286	13.187	1046.093	806.374
52.301	13.151	1045.169	805.413
53.315	13.099	1043.665	803.929
54.330	13.202	1042.131	803.178
55.344	13.121	1041.972	802.589
56.359	13.121	1041.328	802.024
57.374	13.195	1040.451	801.638
58.388	13.044	1039.603	800.181
59.403	13.038	1038.774	799.443
60.417	13.061	1037.611	798.585
61.432	12.999	1036.997	797.742
62.447	13.089	1036.261	797.543
63.461	12.976	1035.320	796.201
64.476	12.992	1034.615	795.665
65.490	12.963	1033.622	794.693
66.505	13.030	1032.954	794.429
67.520	13.040	1032.425	794.002
68.534	13.182	1031.285	793.737
69.549	13.030	1030.708	792.495
70.563	13.123	1029.858	792.216
71.578	12.911	1029.573	790.910
72.593	12.882	1028.842	790.140
73.607	12.877	1027.927	789.341
74.622	12.905	1027.523	789.097
75.636	12.977	1026.711	788.747
76.651	12.864	1026.525	787.993
77.666	12.960	1025.294	787.438
78.680	13.018	1024.017	786.666
79.695	13.006	1023.860	786.418
80.709	13.014	1023.323	785.973
81.724	13.199	1022.232	785.946
82.739	13.057	1021.679	784.778
83.753	13.212	1020.826	784.786
84.768	13.286	1019.945	784.393
85.782	13.384	1018.476	783.659
86.797	13.189	1018.252	782.494
87.812	13.270	1017.065	781.892
88.826	13.288	1016.202	781.246
89.841	13.208	1015.327	780.127
90.855	13.261	1014.620	779.765
91.870	13.290	1013.831	779.224
92.884	13.316	1012.814	778.497
93.899	13.345	1011.910	777.872
94.914	13.346	1011.179	777.244
95.928	13.469	1010.030	776.869
96.943	13.303	1009.386	775.526
97.957	13.213	1008.870	774.639
98.972	13.387	1007.439	774.287
99.987	13.243	1006.893	773.125
101.001	13.289	1005.913	772.521
102.016	13.216	1004.929	771.354
103.030	13.359	1004.774	771.834
104.045	13.292	1003.649	770.592
105.060	13.299	1002.626	769.768
106.074	13.190	1001.486	768.321
107.089	13.101	1000.975	767.443
108.103	13.268	999.724	767.192
109.118	13.074	998.914	765.606
110.133	13.195	997.811	765.254
111.147	13.123	997.367	764.509
112.162	13.278	996.317	764.356
113.176	13.147	995.846	763.322
114.191	13.238	994.868	762.924
115.206	13.275	994.063	762.409
116.220	13.236	993.179	761.484
117.235	13.210	992.194	760.543
118.249	13.178	991.281	759.628
119.264	13.200	990.852	759.333
120.279	13.146	990.013	758.376
121.293	13.170	988.645	757.368
122.308	13.215	987.699	756.784
123.322	13.155	987.130	756.004
124.337	13.231	985.895	755.342
125.352	13.201	984.891	754.368
126.366	13.139	983.580	753.014
127.381	13.282	982.754	752.966
128.395	13.103	982.013	751.518
129.410	13.182	981.251	751.226
130.424	13.256	980.331	750.793
131.439	13.209	979.465	749.851
132.454	13.355	978.507	749.713
133.468	13.250	978.174	748.915
134.483	13.393	976.819	748.459
135.497	13.442	975.970	747.962
136.512	13.290	975.240	746.651
137.527	13.468	974.735	747.001
138.541	13.274	974.160	745.618
139.556	13.382	973.436	745.487
140.570	13.440	972.265	744.783
141.585	13.566	971.672	744.832
142.600	13.561	970.782	744.058
143.614	13.496	969.816	742.964
144.629	13.483	968.821	742.074
145.643	13.518	968.409	741.853
146.658	13.508	967.089	740.729
147.673	13.400	966.247	739.537
148.687	13.509	964.638	738.726
149.702	13.529	963.989	738.254
150.716	13.465	962.923	737.086
151.731	13.356	962.588	736.281
152.746	13.336	962.424	736.000
153.760	13.449	961.440	735.686
154.775	13.615	960.922	735.960
155.789	13.490	960.191	734.781
156.804	13.528	959.228	734.146
157.819	13.508	958.809	733.675
158.833	13.527	958.341	733.334
159.848	13.650	956.942	732.745
160.862	13.565	955.753	731.392
161.877	13.488	954.949	730.371
162.892	13.399	954.537	729.602
163.906	13.521	953.657	729.400
164.921	13.345	953.045	728.094
165.935	13.451	951.548	727.350
166.950	13.524	950.917	727.126
167.964	13.522	949.948	726.311
168.979	13.544	948.816	725.479
169.994	13.413	948.594	724.672
171.008	13.572	947.519	724.480
172.023	13.598	946.795	723.977
173.037	13.564	946.378	723.443
174.052	13.588	945.437	722.768
175.067	13.697	944.736	722.642
176.081	13.491	944.300	721.348
177.096	13.554	943.202	720.719
178.110	13.722	942.595	720.922
179.125	13.555	942.382	719.970
180.140	13.585	942.155	719.859
181.154	13.698	941.319	719.651
182.169	13.735	940.851	719.390
183.183	13.755	940.079	718.823
184.198	13.767	939.262	718.183
185.213	13.796	938.002	717.285
186.227	13.880	937.715	717.363
187.242	13.796	937.078	716.452
188.256	13.790	936.719	716.086
189.271	13.854	935.897	715.670
190.286	13.758	935.173	714.639
191.300	13.664	934.466	713.633
192.315	13.624	933.907	712.970
193.329	13.564	933.600	712.413
194.344	13.721	932.480	712.169
195.359	13.840	931.585	711.936
196.373	13.801	931.115	711.347
197.388	13.867	930.716	711.258
198.402	13.960	930.308	711.284
199.417	13.963	929.830	710.867
200.432	14.047	929.265	710.732
201.446	14.075	928.492	710.199
202.461	14.153	927.893	710.010
203.475	14.066	927.386	709.187
204.490	14.029	926.748	708.481
205.504	13.990	925.767	707.500
206.519	13.961	925.247	706.916
207.534	14.095	924.482	706.839
208.548	14.095	923.989	706.401
209.563	13.985	923.420	705.435
210.577	14.121	922.580	705.310
211.592	14.206	921.613	704.868
212.607	14.121	921.199	704.130
213.621	14.100	920.489	703.435
214.636	14.133	919.837	703.014
215.650	14.100	919.301	702.404
216.665	14.215	918.240	702.016
217.680	14.318	917.328	701.690
218.694	14.303	916.924	701.257
219.709	14.289	915.965	700.398
220.723	14.199	916.035	700.014
221.738	14.266	914.731	699.236
222.753	14.300	914.150	698.874
223.767	14.464	913.391	698.920
224.782	14.320	913.206	698.113
225.796	14.349	912.628	697.730
226.811	14.388	911.570	697.024
227.826	14.408	911.210	696.770
228.840	14.369	910.546	696.036
229.855	14.272	910.201	695.305
230.869	14.323	909.201	694.691
231.884	14.470	908.001	694.328
232.899	14.384	907.634	693.629
233.913	14.304	906.686	692.509
234.928	14.382	905.917	692.185
235.942	14.428	905.668	692.122
236.957	14.341	905.195	691.340
237.972	14.349	904.535	690.808
238.986	14.461	903.768	690.625
240.001	14.450	903.272	690.141
241.015	14.455	902.731	689.687
242.030	14.491	902.161	689.337
243.045	14.579	901.376	689.042
244.059	14.608	900.621	688.520
245.074	14.632	900.200	688.239
246.088	14.598	899.375	687.407
247.103	14.542	898.811	686.683
248.117	14.670	898.422	686.852
249.132	14.644	898.144	686.473
250.147	14.748	896.892	685.881
251.161	14.850	896.197	685.709
252.176	14.772	895.721	684.964
253.190	14.817	895.312	684.775
254.205	14.816	894.621	684.182
255.220	14.983	893.554	683.986
256.234	14.806	893.430	683.107
257.249	14.775	892.401	682.136
258.263	14.995	891.357	682.174
259.278	14.815	890.864	681.001
260.293	14.921	890.562	681.143
261.307	15.118	889.710	681.234
262.322	14.996	889.146	680.245
263.336	15.011	888.355	679.639
264.351	14.956	887.911	679.017
265.366	15.135	887.188	679.129
266.380	15.151	886.359	678.500
267.395	15.048	885.873	677.651
268.409	15.085	884.963	677.043
269.424	15.050	884.262	676.306
270.439	15.101	883.540	675.901
271.453	14.874	883.089	674.580
272.468	15.083	882.323	674.778
273.482	15.144	882.030	674.742
274.497	15.145	881.402	674.204
275.512	15.136	880.727	673.591
276.526	15.173	880.031	673.147
277.541	15.101	879.661	672.518
278.555	15.250	878.817	672.411
279.570	15.246	878.264	671.913
280.585	15.270	877.749	671.555
281.599	15.318	876.616	670.822
282.614	15.302	876.180	670.363
283.628	15.423	875.409	670.195
284.643	15.358	874.705	669.338
285.657	15.360	874.392	669.049
286.672	15.292	873.746	668.225
287.687	15.433	872.898	668.077
288.701	15.326	872.822	667.535
289.716	15.389	872.078	667.156
290.730	15.413	871.679	666.888
291.745	15.504	870.731	666.463
292.760	15.468	869.767	665.527
293.774	15.545	869.769	665.774
294.789	15.460	869.236	664.970
295.803	15.483	868.122	664.148
296.818	15.577	867.413	663.920
297.833	15.453	867.016	663.067
298.847	15.466	866.180	662.419
299.862	15.513	865.818	662.270
300.876	15.645	864.690	661.868
301.891	15.646	864.650	661.784
302.906	15.586	864.176	661.124
303.920	15.629	863.556	660.761
304.935	15.687	863.017	660.518
305.949	15.747	862.063	659.967
306.964	15.643	861.547	659.105
307.979	15.698	860.911	658.775
308.993	15.742	860.305	658.424
310.008	15.733	859.838	657.976
311.022	15.823	859.239	657.809
312.037	15.618	858.635	656.490
313.052	15.677	858.179	656.310
314.066	15.627	857.581	655.603
315.081	15.622	856.709	654.857
316.095	15.814	856.255	655.201
317.110	15.775	855.668	654.543
318.125	15.669	855.215	653.723
319.139	15.957	854.453	654.204
320.154	15.927	853.931	653.631
321.168	15.861	853.790	653.209
322.183	15.723	853.459	652.360
323.197	15.838	852.631	652.115
324.212	15.777	852.259	651.538
325.227	15.925	851.180	651.230
326.241	15.908	851.046	651.002
327.256	15.781	850.063	649.700
328.270	15.902	849.724	649.852
329.285	15.954	849.105	649.524
330.300	15.900	848.642	648.901
331.314	15.940	848.038	648.536
332.329	15.881	847.425	647.784
333.343	15.888	847.101	647.504
334.358	15.896	846.910	647.333
335.373	16.005	846.619	647.473
336.387	16.015	846.421	647.303
337.402	16.089	845.776	647.035
338.416	16.176	845.913	647.416
339.431	16.152	844.893	646.487
340.446	16.165	844.741	646.365
341.460	16.247	843.968	646.029
342.475	16.147	843.595	645.303
343.489	16.064	843.536	644.884
344.504	16.211	842.926	644.920
345.519	16.163	842.649	644.471
346.533	16.312	841.706	644.260
347.548	16.239	841.330	643.638
348.562	16.203	840.654	642.926
349.577	16.101	840.211	642.141
350.592	16.234	839.502	642.048
351.606	16.217	838.483	641.146
352.621	16.348	838.102	641.296
353.635	16.232	837.540	640.371
354.650	16.347	836.777	640.167
355.665	16.303	836.424	639.672
356.679	16.325	836.018	639.387
357.694	16.272	835.095	638.426
358.708	16.423	834.345	638.367
359.723	16.345	833.761	637.570
360.738	16.330	833.593	637.328
361.752	16.527	832.509	637.184
362.767	16.482	832.034	636.598
363.781	16.593	831.628	636.645
364.796	16.651	830.843	636.208
365.810	16.660	830.565	635.974
366.825	16.566	830.461	635.482
367.840	16.615	830.018	635.271
368.854	16.683	828.987	634.683
369.869	16.530	828.995	634.058
370.883	16.651	828.514	634.086
371.898	16.676	827.880	633.640
372.913	16.752	827.647	633.689
373.927	16.771	827.183	633.349
374.942	16.741	826.617	632.746
375.956	16.719	826.514	632.531
376.971	16.707	826.168	632.165
377.986	16.681	825.861	631.778
379.000	16.885	824.808	631.673
380.015	16.909	824.355	631.361
381.029	16.926	823.835	630.971
382.044	16.983	823.376	630.775
383.059	17.072	822.453	630.342
384.073	17.049	821.952	629.819
385.088	16.882	821.590	628.864
386.102	16.840	820.927	628.146
387.117	16.858	820.435	627.780
388.132	16.781	820.231	627.285
389.146	16.970	819.460	627.338
390.161	17.025	818.609	626.833
391.175	17.109	818.456	626.974
392.190	17.059	817.836	626.256
393.205	16.976	817.452	625.601
394.219	16.882	817.228	625.030
395.234	16.842	816.738	624.452
396.248	16.963	816.362	624.554
397.263	16.964	815.734	624.021
398.278	16.933	815.649	623.786
399.292	16.934	815.001	623.241
400.307	16.982	814.482	622.966
401.321	17.021	813.930	622.630
402.336	16.995	813.686	622.292
403.350	17.047	812.864	621.801
404.365	17.096	812.383	621.558
405.380	17.041	812.268	621.214
406.394	17.198	811.393	621.061
407.409	17.141	811.712	621.043
408.423	17.335	810.734	620.949
409.438	17.351	810.396	620.694
410.453	17.162	810.324	619.893
411.467	17.381	809.460	619.975
412.482	17.332	809.264	619.593
413.496	17.460	808.982	619.787
414.511	17.422	808.417	619.162
415.526	17.491	807.852	618.923
416.540	17.315	807.638	618.068
417.555	17.364	807.211	617.862
418.569	17.468	806.494	617.636
419.584	17.379	806.006	616.887
420.599	17.601	805.503	617.252
421.613	89.509	1260.430	1354.688
422.628	76.452	1326.726	1354.784
