DTS Sentinel unit serial number:	SN413079Multiplexer serial number:	ORYXHardware model number:	OX4-SRSoftware version number:	ORYX F/W v4.00 Oryx Data Collector v3.7.2.0data status	okinstallation	princeton_trtdifferential loss correction	single-endedforward channel	channel 1reverse channel	N/Adate	2019/09/12time	13:36:11forward acquisition time	60.00reverse acquisition time	0.00gamma	496.2192k internal	0.2292k external	0.2292temperature offset calibration	1.0050default loss term (dB/km)	0.3790temperature slope calibration	1.0000multiplexer offset coefficient	1.0000multiplexer slope coefficient	1.0000fibre end	0.00T internal ref (°C)	41.06T ext. ref 1 (°C)	2.14T ext. ref 2 (°C)	36.25length (m)	temperature (°C)	Stokes	anti-Stokes-747.200	515.812	0.063	-0.151
-746.185	455.688	0.073	-0.167
-745.171	574.942	-0.128	0.319
-744.156	119.809	-0.188	0.238
-743.142	536.448	0.022	-0.054
-742.127	-18.282	-0.127	0.082
-741.112	-144.687	0.202	-0.019
-740.098	-35.259	0.218	-0.122
-739.083	-200.000	-0.020	-0.147
-738.069	-200.000	0.071	0.498
-737.054	421.043	-0.132	0.289
-736.039	115.602	-0.132	0.166
-735.025	597.660	-0.043	0.109
-734.010	-113.220	0.135	0.027
-732.996	609.504	-0.162	-0.414
-731.981	457.406	-0.014	0.032
-730.966	800.000	0.090	0.361
-729.952	800.000	-0.091	0.303
-728.937	597.440	0.149	0.378
-727.923	-200.000	-0.132	-0.001
-726.908	-130.002	-0.145	0.020
-725.894	800.000	0.024	0.087
-724.879	-51.573	-0.460	-0.220
-723.864	365.174	-0.020	0.041
-722.850	-200.000	0.036	-0.330
-721.835	-200.000	0.029	0.201
-720.821	-57.450	0.029	0.013
-719.806	-200.000	-0.010	-0.058
-718.791	410.804	-0.253	0.549
-717.777	518.810	0.061	-0.145
-716.762	125.710	-0.100	-0.129
-715.748	-0.523	-0.244	0.177
-714.733	-190.932	0.231	0.002
-713.718	-200.000	0.005	0.080
-712.704	80.969	0.230	-0.253
-711.689	-38.649	0.133	-0.072
-710.675	800.000	-0.043	0.140
-709.660	-142.894	-0.166	0.017
-708.645	705.215	0.032	0.085
-707.631	-55.549	0.216	0.099
-706.616	-101.168	-0.411	0.103
-705.602	58.090	-0.064	-0.064
-704.587	-49.058	-0.097	-0.047
-703.572	-200.000	-0.026	-0.258
-702.558	-49.826	-0.220	0.107
-701.543	-200.000	0.004	-0.057
-700.529	-151.491	-0.524	0.040
-699.514	800.000	0.012	-0.048
-698.499	57.936	0.174	0.174
-697.485	-132.224	0.129	0.017
-696.470	-39.218	-0.226	0.121
-695.456	11.328	-0.200	0.156
-694.441	-127.338	-0.461	0.069
-693.426	-144.748	-0.091	0.009
-692.412	-6.523	0.089	-0.062
-691.397	800.000	-0.065	-0.186
-690.383	-43.619	0.054	0.028
-689.368	757.944	0.015	0.043
-688.354	-64.770	-0.325	-0.135
-687.339	-145.215	0.118	0.011
-686.324	420.801	-0.130	-0.285
-685.310	-62.561	0.084	-0.035
-684.295	-200.000	-0.042	0.195
-683.281	121.539	0.120	0.153
-682.266	800.000	0.022	0.070
-681.251	3.034	-0.224	-0.166
-680.237	-45.204	0.132	0.067
-679.222	800.000	-0.027	-0.096
-678.208	389.001	-0.155	-0.328
-677.193	-114.041	0.209	0.041
-676.178	-143.849	0.231	-0.022
-675.164	31.301	0.038	0.033
-674.149	130.047	-0.268	0.350
-673.135	-149.630	-0.316	0.025
-672.120	-160.274	-0.209	0.012
-671.105	448.137	-0.085	-0.192
-670.091	169.351	0.044	-0.064
-669.076	13.205	0.038	0.030
-668.062	-200.000	-0.071	-0.399
-667.047	800.000	-0.032	-0.122
-666.032	26.789	-0.093	0.080
-665.018	800.000	0.051	-0.221
-664.003	-45.445	-0.403	-0.204
-662.989	800.000	-0.106	0.428
-661.974	-57.695	-0.174	0.078
-660.959	-141.752	-0.393	0.040
-659.945	800.000	-0.042	0.162
-658.930	311.176	0.124	-0.236
-657.916	-200.000	0.016	-0.152
-656.901	-106.482	-0.125	0.028
-655.886	-200.000	0.009	-0.063
-654.872	-146.787	-0.335	-0.029
-653.857	-8.674	-0.275	0.188
-652.843	239.931	-0.129	0.220
-651.828	-18.456	0.256	0.163
-650.814	-61.336	0.120	0.052
-649.799	-50.063	-0.423	0.204
-648.784	-51.193	-0.317	-0.151
-647.770	-164.619	0.036	-0.002
-646.755	-183.427	-0.148	-0.003
-645.741	-45.550	-0.115	0.058
-644.726	152.492	0.050	-0.069
-643.711	800.000	0.035	-0.110
-642.697	-80.486	0.096	0.033
-641.682	81.237	-0.146	0.161
-640.668	41.689	-0.317	0.293
-639.653	452.419	0.061	-0.138
-638.638	207.635	0.221	0.351
-637.624	-98.609	0.209	0.054
-636.609	340.530	0.021	0.042
-635.595	602.374	0.234	-0.594
-634.580	-57.031	0.042	-0.019
-633.565	-149.338	-0.217	0.018
-632.551	-144.904	-0.285	0.027
-631.536	287.996	-0.281	-0.518
-630.522	35.976	0.057	0.051
-629.507	-140.492	-0.094	-0.010
-628.492	-200.000	0.005	0.039
-627.478	-200.000	0.043	0.207
-626.463	568.456	0.142	-0.352
-625.449	252.208	-0.099	0.173
-624.434	66.791	0.203	-0.211
-623.419	-8.434	0.176	-0.121
-622.405	-200.000	0.008	0.153
-621.390	-200.000	-0.012	0.286
-620.376	-109.388	-0.190	-0.041
-619.361	-66.558	0.163	0.066
-618.346	36.033	0.027	0.024
-617.332	70.568	-0.068	-0.072
-616.317	800.000	0.069	0.238
-615.303	124.333	0.174	-0.223
-614.288	22.007	-0.265	-0.220
-613.273	-104.451	-0.182	-0.043
-612.259	-50.774	0.272	-0.130
-611.244	-96.758	-0.121	0.032
-610.230	-200.000	0.003	0.213
-609.215	103.793	-0.187	-0.223
-608.201	800.000	0.077	-0.260
-607.186	800.000	-0.034	-0.100
-606.171	-14.446	-0.203	0.133
-605.157	-200.000	0.030	-0.150
-604.142	-130.721	0.028	-0.004
-603.128	3.119	-0.103	0.077
-602.113	-200.000	0.018	0.115
-601.098	-0.071	0.174	0.126
-600.084	1.694	-0.085	0.062
-599.069	88.160	-0.214	0.242
-598.055	-76.818	0.238	0.085
-597.040	-63.559	-0.255	0.107
-596.025	-2.700	-0.117	0.084
-595.011	-68.740	-0.221	-0.087
-593.996	123.545	-0.042	-0.054
-592.982	63.798	0.240	0.245
-591.967	74.609	0.049	0.053
-590.952	-19.160	0.098	0.062
-589.938	552.971	-0.094	-0.230
-588.923	232.346	0.206	-0.344
-587.909	-200.000	-0.039	-0.482
-586.894	-151.733	-0.199	-0.015
-585.879	800.000	-0.021	-0.064
-584.865	-200.000	-0.002	-0.008
-583.850	-82.542	0.044	0.015
-582.836	256.610	0.127	0.222
-581.821	800.000	0.054	0.164
-580.806	-111.340	-0.097	-0.020
-579.792	129.582	-0.214	-0.278
-578.777	-105.253	-0.115	0.027
-577.763	-71.515	0.096	0.036
-576.748	-107.869	0.136	-0.030
-575.733	800.000	-0.041	0.151
-574.719	-28.984	0.187	0.109
-573.704	254.636	-0.114	0.198
-572.690	32.157	0.213	-0.186
-571.675	-93.828	0.195	0.055
-570.661	57.226	-0.207	0.206
-569.646	394.834	0.143	0.304
-568.631	181.096	0.123	0.183
-567.617	-200.000	-0.002	-0.204
-566.602	-200.000	0.038	0.443
-565.588	553.626	0.088	-0.214
-564.573	-51.059	0.038	-0.018
-563.558	2.145	-0.230	-0.169
-562.544	83.069	-0.104	-0.116
-561.529	800.000	-0.076	0.309
-560.515	-128.205	0.262	-0.038
-559.500	103.900	0.087	-0.104
-558.485	-93.146	-0.154	-0.044
-557.471	42.202	-0.225	-0.208
-556.456	135.759	-0.131	-0.173
-555.442	-200.000	-0.030	-0.167
-554.427	-190.359	-0.031	-0.000
-553.412	498.124	0.107	0.250
-552.398	475.203	0.128	-0.293
-551.383	132.652	0.134	-0.175
-550.369	-66.058	-0.056	0.023
-549.354	171.210	-0.127	-0.185
-548.339	-200.000	-0.019	0.102
-547.325	-107.011	-0.136	0.030
-546.310	-200.000	0.040	0.310
-545.296	188.221	0.105	-0.160
-544.281	-84.107	-0.225	0.073
-543.266	-200.000	-0.003	-0.217
-542.252	14.014	-0.089	0.070
-541.237	-62.279	0.321	0.136
-540.223	400.586	0.044	0.095
-539.208	-194.781	-0.220	-0.002
-538.193	35.675	-0.112	0.100
-537.179	-65.548	0.338	0.138
-536.164	-9.370	0.152	-0.103
-535.150	-59.876	-0.282	-0.123
-534.135	-108.644	-0.014	-0.003
-533.121	-200.000	-0.019	-0.142
-532.106	120.763	-0.156	0.197
-531.091	90.192	0.064	-0.072
-530.077	-61.578	-0.063	0.027
-529.062	67.219	-0.144	0.149
-528.048	-150.623	-0.248	0.019
-527.033	129.535	-0.193	0.251
-526.018	800.000	-0.067	0.236
-525.004	21.150	0.199	0.164
-523.989	-83.670	-0.482	0.156
-522.975	-54.526	-0.225	0.103
-521.960	-200.000	-0.029	0.279
-520.945	-127.994	-0.067	0.010
-519.931	280.871	0.163	0.295
-518.916	0.186	-0.214	-0.155
-517.902	-114.993	-0.186	-0.036
-516.887	-155.104	-0.161	0.011
-515.872	-134.639	0.068	-0.008
-514.858	124.436	-0.167	0.213
-513.843	43.162	-0.225	-0.209
-512.829	470.325	0.060	-0.136
-511.814	173.398	-0.279	0.408
-510.799	85.986	-0.044	-0.049
-509.785	800.000	-0.024	-0.075
-508.770	10.705	-0.171	0.132
-507.756	79.985	-0.273	0.298
-506.741	-200.000	0.047	0.311
-505.726	222.691	0.018	-0.029
-504.712	-200.000	-0.015	-0.474
-503.697	-42.231	-0.374	0.194
-502.683	82.351	0.353	-0.389
-501.668	567.415	-0.059	0.145
-500.653	800.000	0.114	-0.374
-499.639	79.390	-0.271	-0.295
-498.624	-103.776	-0.308	-0.073
-497.610	-159.422	0.324	0.018
-496.595	34.983	-0.101	-0.090
-495.581	25.007	0.135	-0.114
-494.566	-200.000	0.029	0.294
-493.551	35.559	0.228	-0.203
-492.537	-138.014	0.277	-0.031
-491.522	-135.878	0.443	0.053
-490.508	-83.037	-0.102	-0.033
-489.493	-200.000	-0.007	0.069
-488.478	-200.000	0.032	-0.203
-487.464	800.000	0.082	-0.309
-486.449	75.148	0.157	0.168
-485.435	-184.448	0.299	-0.005
-484.420	-200.000	-0.012	-0.268
-483.405	-200.000	-0.002	-0.020
-482.391	15.038	0.276	-0.219
-481.376	-200.000	0.029	-0.199
-480.362	-142.101	0.185	-0.019
-479.347	-148.315	0.033	-0.003
-478.332	310.175	0.128	0.242
-477.318	-200.000	0.009	0.437
-476.303	-200.000	0.031	-0.229
-475.289	-1.966	0.056	-0.040
-474.274	-174.219	-0.195	-0.006
-473.259	-119.100	-0.266	0.047
-472.245	-200.000	0.055	-0.346
-471.230	83.326	-0.314	-0.347
-470.216	-53.823	0.338	-0.156
-469.201	25.894	-0.020	0.017
-468.186	-200.000	-0.007	0.131
-467.172	-163.914	0.136	-0.006
-466.157	-107.145	0.222	-0.050
-465.143	800.000	0.052	0.193
-464.128	800.000	-0.042	0.159
-463.113	-200.000	0.026	0.139
-462.099	74.637	0.172	0.183
-461.084	23.347	-0.244	0.203
-460.070	800.000	0.038	-0.135
-459.055	477.628	0.079	0.180
-458.040	66.390	0.235	0.242
-457.026	-200.000	-0.008	-0.144
-456.011	39.030	0.269	0.244
-454.997	344.633	0.026	-0.051
-453.982	800.000	0.109	0.317
-452.968	-35.647	0.290	-0.159
-451.953	-134.646	-0.156	-0.019
-450.938	800.000	-0.100	0.293
-449.924	800.000	-0.099	-0.320
-448.909	34.111	0.218	0.192
-447.895	-79.919	-0.207	-0.070
-446.880	800.000	0.065	-0.240
-445.865	-200.000	-0.001	0.154
-444.851	325.611	0.106	0.205
-443.836	52.158	0.138	-0.133
-442.822	-103.474	0.239	-0.057
-441.807	362.074	-0.135	0.274
-440.792	-200.000	0.017	0.140
-439.778	-14.587	-0.108	0.070
-438.763	-200.000	0.026	-0.182
-437.749	-138.309	-0.395	-0.044
-436.734	-200.000	-0.035	0.342
-435.719	-110.497	-0.526	0.110
-434.705	-200.000	-0.001	-0.019
-433.690	123.501	-0.111	-0.141
-432.676	53.468	-0.081	-0.078
-431.661	-73.763	-0.216	0.079
-430.646	800.000	-0.113	-0.352
-429.632	-10.720	-0.043	-0.029
-428.617	-169.165	-0.167	-0.006
-427.603	-193.098	-0.160	-0.001
-426.588	-9.047	0.124	-0.084
-425.573	28.108	-0.053	0.046
-424.559	-200.000	-0.042	0.220
-423.544	-83.565	0.084	0.027
-422.530	275.010	-0.121	0.216
-421.515	-90.235	0.237	0.070
-420.500	83.162	0.246	0.271
-419.486	16.614	-0.100	0.080
-418.471	203.752	-0.107	0.168
-417.457	15.969	-0.029	-0.023
-416.442	383.891	-0.035	-0.072
-415.428	800.000	0.046	0.128
-414.413	-55.684	-0.090	-0.041
-413.398	129.087	-0.247	-0.318
-412.384	64.757	-0.137	0.139
-411.369	103.486	-0.107	-0.127
-410.355	69.664	0.218	0.227
-409.340	-27.617	-0.107	0.063
-408.325	-159.230	-0.331	0.019
-407.311	800.000	-0.090	0.313
-406.296	-200.000	0.045	0.277
-405.282	-77.363	-0.005	0.002
-404.267	-88.617	0.392	-0.118
-403.252	-74.767	-0.268	-0.097
-402.238	50.338	0.301	-0.287
-401.223	30.262	0.076	-0.065
-400.209	-80.200	-0.273	0.092
-399.194	-112.456	0.510	0.103
-398.179	31.517	0.100	-0.087
-397.165	174.755	-0.171	0.250
-396.150	-83.783	0.171	0.055
-395.136	121.980	-0.034	0.042
-394.121	800.000	-0.020	0.072
-393.106	800.000	-0.050	-0.152
-392.092	800.000	0.056	0.244
-391.077	-200.000	-0.094	-0.460
-390.063	-37.851	0.207	-0.111
-389.048	42.895	0.079	0.073
-388.033	412.530	-0.165	-0.355
-387.019	158.807	-0.132	0.185
-386.004	-20.307	0.044	-0.027
-384.990	129.098	0.185	0.238
-383.975	800.000	-0.075	-0.238
-382.960	-200.000	-0.087	-0.421
-381.946	-100.239	-0.067	-0.017
-380.931	7.382	-0.320	0.241
-379.917	-200.000	-0.033	-0.258
-378.902	-6.551	-0.244	-0.168
-377.888	-97.408	-0.383	-0.101
-376.873	131.923	-0.133	0.173
-375.858	-80.836	0.262	-0.088
-374.844	183.801	-0.020	-0.030
-373.829	14.498	0.096	-0.075
-372.815	800.000	-0.045	0.135
-371.800	74.097	0.139	0.148
-370.785	-100.694	0.115	0.029
-369.771	-162.989	0.193	0.009
-368.756	-122.954	-0.154	0.025
-367.742	115.779	0.075	-0.093
-366.727	-142.646	-0.267	0.026
-365.712	-147.900	0.134	0.011
-364.698	-200.000	-0.015	0.473
-363.683	-38.186	-0.132	0.070
-362.669	800.000	-0.060	-0.189
-361.654	-200.000	0.034	-0.422
-360.639	-61.748	0.157	0.067
-359.625	800.000	0.030	-0.093
-358.610	93.085	0.265	0.302
-357.596	-200.000	-0.040	-0.275
-356.581	115.801	0.287	0.355
-355.566	-49.546	0.082	0.039
-354.552	-27.093	0.264	-0.155
-353.537	-200.000	-0.035	-0.370
-352.523	-135.986	0.169	0.020
-351.508	-117.677	-0.380	-0.069
-350.493	41.703	0.144	-0.132
-349.479	800.000	-0.091	-0.341
-348.464	-19.937	0.170	-0.106
-347.450	343.117	0.103	0.203
-346.435	655.075	-0.008	0.022
-345.420	-4.919	-0.247	-0.171
-344.406	376.808	0.199	-0.410
-343.391	71.992	0.113	-0.118
-342.377	273.241	-0.184	0.328
-341.362	9.589	-0.111	-0.084
-340.348	-174.291	-0.342	0.010
-339.333	-200.000	-0.007	0.054
-338.318	-200.000	-0.027	0.209
-337.304	301.796	0.055	-0.103
-336.289	154.113	-0.240	0.332
-335.275	-148.766	-0.161	0.013
-334.260	249.758	0.140	-0.240
-333.245	133.377	0.162	-0.211
-332.231	251.093	0.052	0.089
-331.216	-8.317	0.090	-0.061
-330.202	332.378	-0.186	0.361
-329.187	-200.000	0.016	-0.129
-328.172	-25.641	0.169	-0.100
-327.158	-14.349	-0.131	-0.085
-326.143	-7.447	0.102	0.070
-325.129	-3.557	-0.199	-0.139
-324.114	800.000	-0.045	0.165
-323.099	567.240	-0.134	-0.328
-322.085	571.892	0.120	-0.295
-321.070	221.790	-0.105	-0.170
-320.056	-70.289	-0.293	0.112
-319.041	800.000	0.034	0.140
-318.026	11.348	0.117	-0.090
-317.012	-20.621	-0.181	0.112
-315.997	-91.278	0.116	-0.033
-314.983	520.372	-0.105	-0.248
-313.968	-50.511	-0.034	0.016
-312.953	800.000	0.040	0.123
-311.939	-36.201	-0.186	0.101
-310.924	125.194	0.118	0.149
-309.910	-52.021	0.377	-0.176
-308.895	-200.000	0.009	0.168
-307.880	-200.000	0.045	0.255
-306.866	800.000	0.030	0.116
-305.851	-200.000	-0.010	-0.085
-304.837	-29.703	0.242	-0.139
-303.822	674.809	0.023	0.059
-302.807	-163.154	0.250	0.012
-301.793	210.976	0.199	0.314
-300.778	-152.618	-0.164	-0.012
-299.764	800.000	-0.029	-0.122
-298.749	-48.652	-0.077	-0.037
-297.735	-118.120	0.169	0.030
-296.720	0.305	-0.304	-0.218
-295.705	147.431	0.200	-0.270
-294.691	-177.609	0.208	-0.005
-293.676	800.000	0.052	0.179
-292.662	800.000	0.066	0.212
-291.647	-30.780	0.353	0.201
-290.632	-66.473	-0.186	0.074
-289.618	-192.870	-0.070	0.001
-288.603	88.977	-0.163	0.182
-287.589	400.049	-0.158	-0.333
-286.574	-105.113	0.182	0.042
-285.559	-63.083	-0.270	0.112
-284.545	-64.546	0.259	0.106
-283.530	182.226	-0.113	0.167
-282.516	151.953	0.116	-0.160
-281.501	150.454	0.233	0.318
-280.486	-200.000	0.007	0.136
-279.472	5.994	0.044	0.033
-278.457	-146.453	0.236	-0.021
-277.443	-5.478	0.078	-0.054
-276.428	-52.425	0.193	-0.090
-275.413	701.046	0.056	0.148
-274.399	-125.477	-0.238	0.036
-273.384	-200.000	-0.020	0.263
-272.370	532.245	-0.038	-0.090
-271.355	-200.000	0.028	-0.137
-270.340	800.000	0.048	0.204
-269.326	-76.930	-0.119	-0.042
-268.311	150.891	-0.083	-0.113
-267.297	315.227	0.167	-0.317
-266.282	-75.657	0.321	0.115
-265.267	-142.023	-0.220	0.022
-264.253	-27.288	0.234	-0.137
-263.238	-163.158	0.176	0.009
-262.224	-11.945	0.131	0.086
-261.209	-200.000	0.042	0.294
-260.195	76.577	0.068	-0.073
-259.180	16.174	-0.156	-0.123
-258.165	800.000	0.069	0.228
-257.151	593.194	0.073	0.181
-256.136	307.622	0.225	0.421
-255.122	800.000	-0.055	0.162
-254.107	-82.018	-0.127	0.042
-253.092	-200.000	0.115	-0.544
-252.078	189.030	0.206	0.310
-251.063	561.137	-0.096	-0.234
-250.049	407.330	0.071	0.150
-249.034	160.930	0.207	0.291
-248.019	-96.654	0.119	0.032
-247.005	800.000	-0.016	0.065
-245.990	-58.720	0.122	-0.053
-244.976	-58.784	0.055	-0.024
-243.961	389.288	0.070	-0.146
-242.946	-21.882	0.125	0.076
-241.932	-87.451	-0.083	0.025
-240.917	99.173	0.118	-0.137
-239.903	-83.791	0.165	-0.053
-238.888	-165.921	0.141	-0.006
-237.873	-200.000	-0.041	-0.252
-236.859	47.649	0.122	-0.114
-235.844	-99.845	-0.165	-0.041
-234.830	-102.537	-0.593	-0.142
-233.815	-149.199	-0.062	-0.005
-232.800	150.755	0.101	0.138
-231.786	413.285	0.075	-0.160
-230.771	102.563	0.259	-0.304
-229.757	800.000	0.016	-0.056
-228.742	-48.885	0.204	-0.098
-227.727	-45.455	0.508	-0.252
-226.713	-125.115	-0.192	-0.029
-225.698	-200.000	0.051	-0.388
-224.684	-35.473	0.209	-0.114
-223.669	800.000	0.047	-0.141
-222.655	-71.845	0.271	0.101
-221.640	14.935	0.224	-0.176
-220.625	-109.912	-0.085	-0.018
-219.611	-19.912	-0.213	-0.132
-218.596	-200.000	0.021	0.150
-217.582	-158.764	-0.180	0.010
-216.567	-200.000	0.010	-0.063
-215.552	87.954	-0.147	0.164
-214.538	800.000	0.020	-0.072
-213.523	-20.157	-0.113	0.070
-212.509	-52.810	0.126	-0.058
-211.494	-152.818	0.298	0.021
-210.479	800.000	0.024	-0.092
-209.465	-85.644	-0.475	-0.148
-208.450	43.249	0.181	-0.166
-207.436	253.491	-0.167	0.286
-206.421	407.741	0.177	-0.375
-205.406	3.468	0.230	0.168
-204.392	-200.000	0.016	0.465
-203.377	431.280	0.047	-0.101
-202.363	110.145	-0.293	0.352
-201.348	-60.500	0.121	-0.051
-200.333	-82.748	0.176	-0.057
-199.319	-110.873	0.230	-0.048
-198.304	-7.851	-0.185	0.125
-197.290	-61.167	-0.266	0.112
-196.275	-69.963	-0.227	0.087
-195.260	45.842	0.150	-0.139
-194.246	153.320	-0.171	0.234
-193.231	-133.721	0.036	-0.004
-192.217	-7.180	0.171	-0.116
-191.202	-58.517	-0.323	0.140
-190.187	-28.228	0.143	0.083
-189.173	-153.246	-0.153	-0.011
-188.158	95.708	-0.110	-0.126
-187.144	-119.620	0.471	-0.082
-186.129	-81.388	0.045	0.015
-185.114	221.232	-0.112	-0.180
-184.100	-200.000	0.039	-0.236
-183.085	-0.768	0.227	0.161
-182.071	110.388	0.191	-0.230
-181.056	800.000	-0.028	0.103
-180.042	246.504	0.079	-0.133
-179.027	-106.183	-0.062	-0.014
-178.012	311.371	0.108	-0.202
-176.998	-153.938	0.072	-0.005
-175.983	755.868	-0.059	0.159
-174.969	800.000	0.038	-0.145
-173.954	-89.849	-0.205	0.060
-172.939	196.410	-0.258	-0.393
-171.925	179.339	0.068	0.099
-170.910	38.413	-0.073	-0.065
-169.896	47.093	0.140	0.130
-168.881	190.130	0.126	-0.190
-167.866	-99.700	-0.158	0.040
-166.852	271.259	0.187	0.329
-165.837	-91.080	0.123	-0.035
-164.823	77.208	-0.206	-0.219
-163.808	160.949	-0.113	-0.158
-162.793	-47.353	0.148	0.072
-161.779	248.447	-0.067	0.113
-160.764	-200.000	0.027	0.279
-159.750	59.281	0.144	-0.142
-158.735	725.277	-0.216	0.576
-157.720	-200.000	-0.045	-0.208
-156.706	261.307	0.118	0.204
-155.691	-200.000	-0.041	-0.202
-154.677	503.363	-0.145	-0.335
-153.662	225.392	-0.183	-0.296
-152.647	581.897	-0.076	0.187
-151.633	57.107	-0.308	0.300
-150.618	-86.764	-0.201	0.061
-149.604	800.000	0.076	-0.247
-148.589	-200.000	-0.052	-0.370
-147.574	800.000	0.057	-0.194
-146.560	-68.231	-0.005	0.002
-145.545	-85.025	-0.447	-0.140
-144.531	211.861	-0.188	-0.297
-143.516	-92.622	0.326	0.091
-142.502	-14.863	-0.213	0.137
-141.487	-200.000	0.103	0.468
-140.472	-200.000	0.048	0.235
-139.458	-38.191	0.145	0.077
-138.443	-96.344	-0.054	0.014
-137.429	272.769	0.116	-0.204
-136.414	-200.000	0.012	0.197
-135.399	800.000	-0.037	0.125
-134.385	-141.908	0.162	-0.016
-133.370	466.049	0.043	0.096
-132.356	-200.000	-0.019	-0.298
-131.341	614.999	-0.073	-0.184
-130.326	-103.108	-0.083	0.020
-129.312	2.062	0.161	-0.116
-128.297	262.453	-0.075	-0.130
-127.283	300.849	-0.052	-0.096
-126.268	31.365	0.115	0.099
-125.253	-50.882	0.006	-0.003
-124.239	-27.773	-0.059	-0.034
-123.224	-2.575	0.222	0.155
-122.210	131.840	-0.080	-0.103
-121.195	800.000	0.109	-0.311
-120.180	-174.517	-0.048	-0.001
-119.166	100.397	-0.134	-0.156
-118.151	-47.717	-0.186	-0.090
-117.137	643.202	-0.041	0.104
-116.122	-149.902	-0.113	0.009
-115.107	136.125	-0.240	0.313
-114.093	-200.000	0.016	0.200
-113.078	88.622	0.167	-0.185
-112.064	-30.391	0.024	-0.013
-111.049	-200.000	0.002	0.039
-110.034	-140.410	0.082	0.009
-109.020	57.408	0.380	0.371
-108.005	106.964	0.206	-0.244
-106.991	11.999	-0.103	-0.079
-105.976	-22.719	-0.125	-0.075
-104.962	638.996	-0.043	0.110
-103.947	9.902	-0.174	0.132
-102.932	285.767	-0.115	-0.207
-101.918	173.151	0.079	-0.114
-100.903	502.879	-0.053	0.121
-99.889	-71.446	-0.079	-0.029
-98.874	-135.667	-0.168	0.020
-97.859	7.950	-0.146	-0.109
-96.845	-73.674	-0.296	-0.107
-95.830	50.548	0.132	0.124
-94.816	-26.722	0.145	-0.085
-93.801	-200.000	0.015	-0.308
-92.786	90.082	0.265	0.296
-91.772	800.000	0.132	0.444
-90.757	185.235	0.095	-0.140
-89.743	53.793	-0.275	0.263
-88.728	555.988	-0.027	-0.065
-87.713	-122.192	0.406	-0.066
-86.699	85.645	0.134	0.147
-85.684	219.544	0.101	-0.161
-84.670	169.579	0.083	0.119
-83.655	-200.000	0.021	0.275
-82.640	-173.315	-0.168	0.005
-81.626	-200.000	0.053	0.348
-80.611	226.367	0.083	0.134
-79.597	-149.723	-0.367	0.029
-78.582	-12.424	0.120	-0.078
-77.567	-13.871	-0.224	-0.144
-76.553	-85.435	-0.237	-0.074
-75.538	71.311	0.154	-0.159
-74.524	-93.330	-0.149	0.041
-73.509	251.195	0.127	0.216
-72.494	-126.217	0.235	0.035
-71.480	-198.668	-0.311	0.002
-70.465	-127.591	0.495	-0.071
-69.451	-200.000	-0.003	0.073
-68.436	-139.523	0.161	0.017
-67.422	-99.208	-0.083	-0.021
-66.407	182.187	0.110	-0.162
-65.392	23.438	0.182	0.150
-64.378	-114.700	-0.113	-0.021
-63.363	50.743	0.193	-0.182
-62.349	119.133	0.196	0.242
-61.334	30.428	-0.921	-0.784
-60.319	30.276	0.203	0.173
-59.305	800.000	-0.229	-0.769
-58.290	81.789	0.676	0.729
-57.276	95.935	0.907	1.033
-56.261	-200.000	75.586	511.204
-55.246	526.726	1323.679	3107.965
-54.232	146.234	2556.440	3418.800
-53.217	118.078	2226.735	2734.685
-52.203	53.036	1670.331	1592.890
-51.188	44.849	1393.585	1277.881
-50.173	41.265	1347.604	1213.884
-49.159	59.732	1382.883	1359.588
-48.144	66.622	1401.371	1419.987
-47.130	45.265	1364.563	1253.619
-46.115	41.196	1348.110	1213.722
-45.100	40.954	1343.542	1208.091
-44.086	40.879	1341.058	1205.354
-43.071	40.887	1338.655	1203.197
-42.057	40.787	1336.192	1200.330
-41.042	40.897	1334.585	1199.507
-40.027	40.875	1333.041	1197.935
-39.013	40.987	1330.981	1196.713
-37.998	40.932	1329.164	1194.700
-36.984	41.067	1327.534	1193.999
-35.969	41.051	1325.796	1192.292
-34.954	41.118	1324.001	1191.031
-33.940	41.121	1322.706	1189.838
-32.925	41.173	1321.354	1188.881
-31.911	41.195	1319.673	1187.453
-30.896	41.246	1318.167	1186.357
-29.881	41.229	1316.897	1185.067
-28.867	41.109	1315.851	1183.364
-27.852	41.076	1314.378	1181.795
-26.838	41.177	1312.898	1181.018
-25.823	41.282	1311.181	1180.047
-24.809	41.152	1309.899	1178.078
-23.794	41.244	1308.334	1177.167
-22.779	41.169	1306.901	1175.391
-21.765	41.093	1305.959	1174.047
-20.750	41.108	1304.565	1172.833
-19.736	41.090	1303.187	1171.447
-18.721	41.042	1301.894	1169.956
-17.706	40.998	1300.976	1168.821
-16.692	41.039	1299.438	1167.635
-15.677	41.164	1298.132	1167.147
-14.663	41.075	1297.699	1166.191
-13.648	40.936	1296.636	1164.377
-12.633	40.911	1295.484	1163.147
-11.619	40.995	1294.291	1162.523
-10.604	41.001	1293.779	1162.050
-9.590	40.976	1292.570	1160.775
-8.575	40.857	1291.766	1159.310
-7.560	41.019	1290.851	1159.386
-6.546	40.910	1289.936	1157.886
-5.531	40.818	1289.475	1156.888
-4.517	41.064	1287.922	1156.881
-3.502	41.078	1286.930	1156.025
-2.487	41.024	1285.998	1154.829
-1.473	41.063	1282.510	1151.879
-0.458	39.747	1267.321	1130.654
0.556	35.807	1247.003	1086.511
1.571	31.496	1250.036	1064.586
2.586	30.028	1265.274	1069.005
3.600	28.759	1254.183	1052.273
4.615	20.951	1177.079	945.331
5.629	8.504	1092.684	814.425
6.644	2.713	1068.836	767.660
7.659	2.083	1065.790	762.257
8.673	1.888	1064.184	760.071
9.688	1.879	1063.279	759.312
10.702	2.185	1062.000	759.852
11.717	9.204	1072.406	802.384
12.731	20.416	1087.976	870.474
13.746	25.247	1093.975	899.476
14.761	25.459	1094.300	900.728
15.775	25.440	1093.514	899.906
16.790	25.349	1092.576	898.595
17.804	25.277	1092.145	897.804
18.819	25.383	1091.345	897.596
19.834	25.515	1091.037	897.924
20.848	25.393	1090.727	896.976
21.863	25.452	1089.958	896.560
22.877	25.337	1089.761	895.747
23.892	25.257	1088.609	894.319
24.907	25.364	1088.176	894.419
25.921	25.435	1086.795	893.556
26.936	25.376	1085.411	892.050
27.950	25.205	1084.531	890.397
28.965	25.086	1082.555	888.107
29.980	25.226	1080.839	887.314
30.994	25.384	1080.128	887.434
32.009	25.392	1078.878	886.365
33.023	25.260	1077.283	884.328
34.038	25.335	1076.590	884.049
35.053	25.396	1076.249	883.992
36.067	25.414	1075.392	883.298
37.082	25.379	1074.864	882.611
38.096	25.553	1074.361	882.976
39.111	25.597	1073.363	882.294
40.126	25.391	1071.923	880.024
41.140	25.173	1070.307	877.550
42.155	24.892	1069.033	875.054
43.169	24.971	1067.558	874.157
44.184	24.903	1066.922	873.228
45.199	24.840	1065.710	871.854
46.213	24.911	1064.902	871.461
47.228	25.036	1064.812	871.918
48.242	25.193	1063.348	871.403
49.257	25.255	1062.960	871.311
50.271	25.465	1061.606	871.140
51.286	25.390	1061.210	870.375
52.301	25.403	1060.400	869.698
53.315	25.465	1059.162	868.906
54.330	25.252	1058.306	867.094
55.344	25.394	1057.464	867.017
56.359	25.215	1056.943	865.648
57.374	25.036	1056.190	864.090
58.388	25.069	1055.521	863.625
59.403	24.957	1054.384	862.083
60.417	24.842	1053.547	860.767
61.432	24.979	1052.833	860.764
62.447	25.109	1052.496	861.040
63.461	25.158	1051.725	860.566
64.476	25.042	1050.758	859.142
65.490	24.908	1050.127	857.909
66.505	25.122	1049.004	857.938
67.520	25.049	1048.429	857.045
68.534	24.873	1046.637	854.662
69.549	24.502	1045.976	852.275
70.563	24.557	1045.342	851.946
71.578	24.647	1044.458	851.580
72.593	24.404	1043.481	849.551
73.607	24.537	1042.893	849.630
74.622	24.760	1042.484	850.282
75.636	24.959	1041.591	850.426
76.651	24.745	1040.958	848.818
77.666	24.734	1040.065	847.960
78.680	24.620	1039.703	847.049
79.695	24.918	1038.827	847.672
80.709	25.122	1037.853	847.767
81.724	24.910	1037.370	846.296
82.739	24.899	1036.560	845.511
83.753	25.305	1036.291	847.132
84.768	25.597	1035.542	847.821
85.782	25.755	1034.531	847.662
86.797	25.611	1033.679	846.213
87.812	25.413	1032.306	844.081
88.826	25.576	1031.179	843.851
89.841	25.499	1030.889	843.178
90.855	25.650	1029.817	842.933
91.870	25.601	1028.944	841.918
92.884	25.455	1027.801	840.223
93.899	25.310	1027.102	838.898
94.914	25.657	1026.442	839.906
95.928	25.406	1025.330	837.752
96.943	25.186	1023.918	835.499
97.957	24.938	1023.062	833.573
98.972	24.816	1021.513	831.673
99.987	24.917	1021.627	832.161
101.001	25.138	1020.611	832.285
102.016	25.272	1019.292	831.756
103.030	25.192	1018.371	830.558
104.045	25.096	1017.374	829.230
105.060	24.945	1016.656	827.872
106.074	25.054	1016.054	827.814
107.089	25.366	1015.433	828.676
108.103	25.279	1014.623	827.538
109.118	25.059	1013.756	825.745
110.133	25.015	1012.335	824.311
111.147	24.912	1011.057	822.726
112.162	24.742	1010.402	821.339
113.176	24.992	1010.002	822.088
114.191	24.763	1009.297	820.391
115.206	24.595	1007.773	818.311
116.220	24.591	1007.108	817.679
117.235	24.797	1006.282	817.878
118.249	24.760	1005.208	816.764
119.264	24.615	1004.466	815.429
120.279	24.678	1003.800	815.100
121.293	24.814	1003.164	815.133
122.308	24.798	1001.947	814.001
123.322	24.753	1000.694	812.703
124.337	24.524	999.706	810.790
125.352	24.021	998.207	807.222
126.366	24.094	997.251	806.708
127.381	24.655	997.455	809.344
128.395	25.259	996.617	811.323
129.410	25.346	996.070	811.201
130.424	25.283	995.115	810.065
131.439	25.353	993.902	809.322
132.454	25.273	993.726	808.748
133.468	25.108	992.876	807.242
134.483	25.408	992.034	807.832
135.497	25.526	991.307	807.702
136.512	25.460	990.639	806.788
137.527	25.595	989.313	806.241
138.541	25.666	988.676	805.971
139.556	25.715	987.734	805.351
140.570	25.603	987.430	804.532
141.585	25.695	985.781	803.526
142.600	25.546	985.453	802.522
143.614	25.767	984.752	802.868
144.629	25.931	983.768	802.723
145.643	25.682	982.385	800.418
146.658	25.527	981.052	798.573
147.673	25.400	979.978	797.061
148.687	25.232	979.258	795.660
149.702	25.357	977.918	795.058
150.716	25.323	977.099	794.170
151.731	25.371	976.797	794.067
152.746	25.610	976.206	794.572
153.760	25.685	975.605	794.343
154.775	25.609	975.325	793.710
155.789	25.664	974.433	793.156
156.804	25.497	973.450	791.548
157.819	25.807	971.841	791.535
158.833	25.738	971.689	791.038
159.848	25.800	971.060	790.726
160.862	25.707	969.622	789.079
161.877	25.663	968.452	787.865
162.892	25.645	967.945	787.305
163.906	25.566	966.782	785.943
164.921	25.621	965.643	785.188
165.935	25.562	965.072	784.397
166.950	25.725	963.635	783.866
167.964	25.772	962.491	783.072
168.979	25.486	961.568	781.009
169.994	25.529	960.698	780.422
171.008	25.739	960.120	780.794
172.023	25.748	959.617	780.355
173.037	25.559	958.681	778.704
174.052	25.270	957.776	776.651
175.067	25.476	957.004	776.845
176.081	25.497	956.428	776.403
177.096	25.460	955.492	775.412
178.110	25.196	954.698	773.562
179.125	25.059	953.922	772.277
180.140	24.906	954.008	771.618
181.154	25.207	953.447	772.389
182.169	25.452	953.233	773.201
183.183	25.764	952.768	774.101
184.198	25.663	951.750	772.770
185.213	25.453	951.305	771.439
186.227	25.634	950.709	771.661
187.242	25.672	949.448	770.735
188.256	25.649	949.071	770.263
189.271	25.690	948.974	770.291
190.286	25.419	947.657	767.996
191.300	24.833	945.748	763.881
192.315	23.954	944.473	759.033
193.329	24.017	943.739	758.643
194.344	24.854	944.291	762.591
195.359	25.541	944.105	765.298
196.373	25.663	943.757	765.467
197.388	25.402	943.296	763.917
198.402	25.480	942.535	763.565
199.417	25.545	942.009	763.345
200.432	25.353	941.026	761.668
201.446	25.050	940.283	759.713
202.461	25.206	939.587	759.746
203.475	24.449	937.826	755.051
204.490	23.608	936.177	750.104
205.504	24.363	936.746	753.686
206.519	25.201	936.672	757.096
207.534	25.083	936.180	756.136
208.548	25.616	936.311	758.423
209.563	25.441	934.641	756.265
210.577	25.383	934.242	755.634
211.592	25.874	934.227	757.617
212.607	25.726	933.256	756.142
213.621	25.625	933.109	755.533
214.636	25.825	932.260	755.617
215.650	25.637	931.360	754.030
216.665	25.767	930.707	753.981
217.680	25.723	929.995	753.155
218.694	25.310	928.624	750.253
219.709	25.104	927.952	748.782
220.723	25.351	928.016	749.801
221.738	25.592	927.028	749.938
222.753	25.428	926.264	748.571
223.767	25.642	925.913	749.111
224.782	25.960	925.608	750.121
225.796	25.764	925.439	749.103
226.811	25.293	923.467	745.486
227.826	24.462	922.325	741.049
228.840	24.629	921.971	741.394
229.855	24.683	921.652	741.295
230.869	24.402	919.957	738.704
231.884	24.817	920.308	740.635
232.899	25.621	920.369	743.946
233.913	25.529	919.316	742.652
234.928	25.344	919.231	741.751
235.942	25.379	918.664	741.374
236.957	25.072	917.669	739.237
237.972	25.093	917.345	738.998
238.986	25.207	916.496	738.720
240.001	25.229	915.763	738.155
241.015	25.366	915.335	738.307
242.030	25.385	914.985	738.037
243.045	25.564	914.309	738.159
244.059	25.644	913.758	737.980
245.074	25.499	912.858	736.590
246.088	25.077	912.115	734.201
247.103	25.458	911.776	735.421
248.117	26.002	911.894	737.678
249.132	26.261	911.337	738.221
250.147	26.306	910.996	738.061
251.161	26.481	910.332	738.174
252.176	26.325	910.145	737.319
253.190	26.454	909.519	737.271
254.205	26.728	908.938	737.851
255.220	26.538	908.172	736.395
256.234	26.458	907.701	735.621
257.249	26.409	906.617	734.476
258.263	26.482	905.928	734.151
259.278	26.472	905.395	733.612
260.293	26.495	904.737	733.110
261.307	26.349	904.411	732.188
262.322	26.095	903.672	730.496
263.336	25.479	901.390	726.098
264.351	24.433	899.627	720.397
265.366	24.567	899.551	720.812
266.380	25.595	900.334	725.526
267.395	26.146	899.716	727.182
268.409	26.001	898.706	725.718
269.424	26.298	898.655	726.809
270.439	26.197	898.129	725.912
271.453	26.312	897.321	725.657
272.468	26.456	897.195	726.067
273.482	26.515	896.645	725.794
274.497	26.259	895.035	723.405
275.512	25.670	894.335	720.418
276.526	26.055	894.967	722.402
277.541	26.389	893.873	722.790
278.555	26.135	893.049	721.047
279.570	26.195	892.062	720.427
280.585	26.330	891.458	720.412
281.599	26.174	890.685	719.103
282.614	25.517	889.798	715.709
283.628	25.368	889.606	714.898
284.643	25.855	888.936	716.232
285.657	25.556	887.805	714.069
286.672	25.301	886.842	712.221
287.687	25.848	887.061	714.504
288.701	25.903	886.450	714.166
289.716	25.584	885.640	712.189
290.730	25.605	884.985	711.683
291.745	25.270	884.201	709.664
292.760	25.339	884.176	709.856
293.774	26.512	884.406	714.611
294.789	26.835	884.103	715.578
295.803	26.790	883.680	714.993
296.818	26.767	882.970	714.265
297.833	26.385	881.646	711.630
298.847	26.206	880.983	710.325
299.862	26.622	880.996	711.909
300.876	26.818	880.870	712.515
301.891	26.604	879.818	710.763
302.906	26.316	878.850	708.786
303.920	26.489	878.399	709.040
304.935	26.840	878.287	710.262
305.949	26.715	877.643	709.187
306.964	26.525	876.898	707.779
307.979	26.639	876.070	707.493
308.993	26.944	876.048	708.603
310.008	26.968	875.536	708.220
311.022	26.769	874.560	706.595
312.037	26.563	873.996	705.272
313.052	26.222	873.081	703.147
314.066	25.474	871.656	699.029
315.081	24.990	870.843	696.431
316.095	25.900	871.206	700.199
317.110	26.510	870.702	702.100
318.125	25.675	868.984	697.414
319.139	24.554	867.665	691.956
320.154	24.488	867.518	691.521
321.168	25.321	868.199	695.233
322.183	26.188	868.074	698.425
323.197	26.268	867.784	698.439
324.212	26.564	867.535	699.322
325.227	26.590	867.010	698.935
326.241	26.475	866.375	697.918
327.256	26.284	865.586	696.486
328.270	26.202	865.112	695.727
329.285	26.068	864.214	694.424
330.300	25.954	863.003	692.954
331.314	26.173	863.297	693.968
332.329	26.516	862.807	694.832
333.343	26.569	862.754	694.931
334.358	26.651	862.028	694.598
335.373	26.722	861.628	694.489
336.387	26.971	862.202	695.842
337.402	26.963	862.030	695.611
338.416	26.930	861.349	694.877
339.431	27.040	861.055	694.999
340.446	27.326	860.488	695.571
341.460	27.186	859.931	694.524
342.475	26.817	859.908	693.035
343.489	27.212	858.734	693.533
344.504	27.256	859.206	694.024
345.519	27.475	858.737	694.417
346.533	27.494	858.263	694.046
347.548	27.497	857.448	693.335
348.562	27.516	856.970	692.961
349.577	27.367	856.378	691.853
350.592	27.400	855.752	691.411
351.606	27.449	854.419	690.460
352.621	27.367	853.878	689.652
353.635	27.231	853.060	688.413
354.650	26.587	851.433	684.606
355.665	25.549	850.141	679.586
356.679	26.124	849.456	681.147
357.694	26.424	849.595	682.331
358.708	26.317	849.258	681.598
359.723	26.710	849.207	682.979
360.738	27.058	848.780	683.886
361.752	27.105	848.240	683.567
362.767	27.653	847.645	685.086
363.781	27.756	847.381	685.198
364.796	27.861	847.213	685.397
365.810	27.849	846.659	684.841
366.825	27.838	846.169	684.343
367.840	27.433	845.561	682.273
368.854	27.213	844.141	680.247
369.869	27.133	843.913	679.704
370.883	27.367	843.513	680.194
371.898	27.169	843.131	679.088
372.913	27.119	843.050	678.775
373.927	27.193	842.891	678.861
374.942	27.453	842.025	679.075
375.956	27.533	841.897	679.209
376.971	27.636	841.327	679.074
377.986	27.897	840.918	679.654
379.000	27.654	840.057	677.994
380.015	27.721	839.490	677.725
381.029	27.611	839.185	677.011
382.044	27.881	838.384	677.308
383.059	27.826	838.321	676.994
384.073	27.715	837.558	675.905
385.088	27.665	836.984	675.196
386.102	27.551	835.919	673.858
387.117	27.463	835.350	673.013
388.132	27.038	834.443	670.652
389.146	26.745	833.470	668.730
390.161	27.074	833.595	669.986
391.175	27.501	832.823	670.878
392.190	27.272	831.811	669.165
393.205	25.876	830.176	662.658
394.219	24.210	828.392	655.059
395.234	24.186	827.720	654.381
396.248	25.867	829.231	661.696
397.263	27.347	830.405	668.013
398.278	27.226	829.916	667.114
399.292	26.927	829.418	665.560
400.307	27.015	828.827	665.347
401.321	27.081	828.540	665.302
402.336	27.503	828.179	666.498
403.350	27.969	828.332	668.267
404.365	28.138	828.269	668.773
405.380	28.444	827.747	669.412
406.394	28.652	827.062	669.557
407.409	28.633	826.518	668.987
408.423	28.299	826.886	668.008
409.438	28.583	826.091	668.343
410.453	28.489	825.898	667.784
411.467	28.379	825.195	666.757
412.482	28.436	824.751	666.546
413.496	28.541	824.063	666.311
414.511	28.593	823.848	666.267
415.526	28.395	823.404	665.129
416.540	28.437	822.770	664.713
417.555	28.121	821.729	662.668
418.569	28.252	821.400	662.817
419.584	28.132	821.159	662.130
420.599	28.071	820.244	661.113
421.613	94.305	1263.863	1370.733
422.628	81.251	1328.549	1370.847
