DTS Sentinel unit serial number:	SN413079Multiplexer serial number:	ORYXHardware model number:	OX4-SRSoftware version number:	ORYX F/W v4.00 Oryx Data Collector v3.7.2.0data status	okinstallation	princeton_trtdifferential loss correction	single-endedforward channel	channel 1reverse channel	N/Adate	2019/09/12time	19:38:34forward acquisition time	15.00reverse acquisition time	0.00gamma	496.2192k internal	0.2323k external	0.2323temperature offset calibration	1.0131default loss term (dB/km)	0.3790temperature slope calibration	1.0000multiplexer offset coefficient	1.0000multiplexer slope coefficient	1.0000fibre end	0.00T internal ref (°C)	32.12T ext. ref 1 (°C)	3.40T ext. ref 2 (°C)	26.68length (m)	temperature (°C)	Stokes	anti-Stokes-747.200	123.331	0.246	0.311
-746.185	205.878	-0.470	-0.738
-745.171	-55.220	1.291	0.586
-744.156	6.820	0.378	0.285
-743.142	-98.537	1.172	0.302
-742.127	-200.000	-0.031	0.194
-741.112	82.277	-0.653	-0.716
-740.098	800.000	0.191	-0.622
-739.083	-200.000	-0.046	-0.243
-738.069	574.904	0.333	0.820
-737.054	91.614	-0.274	-0.311
-736.039	-200.000	0.015	0.631
-735.025	-200.000	0.074	-0.433
-734.010	-160.566	-0.943	0.051
-732.996	-200.000	-0.047	-0.357
-731.981	-135.748	-0.332	-0.040
-730.966	82.181	0.363	0.397
-729.952	-6.226	-0.359	-0.248
-728.937	614.233	0.033	-0.085
-727.923	8.386	-0.599	-0.455
-726.908	-200.000	-0.024	-0.607
-725.894	7.858	-0.523	-0.396
-724.879	-140.018	0.439	0.047
-723.864	-64.826	-1.404	-0.574
-722.850	-70.171	0.634	0.243
-721.835	-101.512	-1.094	0.269
-720.821	-200.000	-0.024	-0.616
-719.806	-200.000	0.090	0.422
-718.791	112.151	-0.493	0.602
-717.777	-78.127	-0.361	-0.125
-716.762	50.501	0.683	0.651
-715.748	405.872	0.171	-0.364
-714.733	-47.806	0.732	0.358
-713.718	139.774	0.333	-0.442
-712.704	-13.530	0.472	0.309
-711.689	71.940	-0.497	-0.522
-710.675	-200.000	-0.077	-0.520
-709.660	576.002	0.205	-0.504
-708.645	-24.960	-0.672	-0.402
-707.631	-76.525	0.641	-0.227
-706.616	-58.101	0.443	0.195
-705.602	40.837	-0.319	0.290
-704.587	10.865	0.477	-0.367
-703.572	35.009	-0.107	0.094
-702.558	395.357	-0.027	0.056
-701.543	800.000	-0.176	0.745
-700.529	800.000	0.022	-0.074
-699.514	-71.549	0.381	-0.144
-698.499	110.923	0.404	0.490
-697.485	800.000	-0.171	0.652
-696.470	2.786	-0.688	0.503
-695.456	19.780	0.282	0.229
-694.441	263.621	0.209	-0.367
-693.426	2.606	-0.420	-0.307
-692.412	264.142	-0.300	0.527
-691.397	23.815	0.374	-0.310
-690.383	408.483	-0.181	0.386
-689.368	251.797	-0.227	-0.390
-688.354	-24.764	-0.651	-0.390
-687.339	102.472	-0.540	0.636
-686.324	740.945	-0.065	0.177
-685.310	800.000	-0.201	0.562
-684.295	-39.314	-0.432	-0.228
-683.281	66.098	-0.908	-0.928
-682.266	-200.000	0.006	-0.114
-681.251	564.719	-0.288	0.703
-680.237	800.000	0.334	-1.055
-679.222	249.389	-0.213	0.363
-678.208	39.358	-0.336	-0.303
-677.193	465.601	0.224	-0.505
-676.178	444.690	0.328	-0.726
-675.164	-200.000	-0.120	0.765
-674.149	-68.902	0.287	0.112
-673.135	800.000	-0.355	1.048
-672.120	723.470	0.080	-0.215
-671.105	-95.326	-0.370	0.100
-670.091	198.186	-0.268	0.413
-669.076	-117.875	-0.513	-0.093
-668.062	134.792	-0.221	0.289
-667.047	-140.832	-0.955	0.099
-666.032	-176.577	-0.908	0.024
-665.018	800.000	-0.189	0.710
-664.003	30.630	0.409	0.352
-662.989	-200.000	-0.078	0.559
-661.974	-22.853	-0.227	-0.138
-660.959	-200.000	0.072	0.472
-659.945	49.005	-0.414	0.391
-658.930	-57.854	0.589	-0.259
-657.916	271.474	0.331	-0.588
-656.901	74.759	-0.177	0.188
-655.886	800.000	0.161	0.626
-654.872	-200.000	0.215	0.984
-653.857	-107.279	-0.764	0.169
-652.843	196.135	0.267	0.409
-651.828	140.369	0.307	0.408
-650.814	37.771	0.201	0.179
-649.799	86.809	-0.523	-0.581
-648.784	-86.826	-0.378	-0.116
-647.770	-200.000	-0.035	0.617
-646.755	183.966	0.213	-0.317
-645.741	527.446	-0.362	0.858
-644.726	-120.937	-1.014	0.172
-643.711	554.383	0.058	0.141
-642.697	29.379	-0.148	0.127
-641.682	-200.000	-0.102	-0.560
-640.668	-18.164	0.380	0.240
-639.653	114.923	-0.333	0.408
-638.638	-174.409	0.287	-0.008
-637.624	791.330	0.127	-0.350
-636.609	-68.696	0.693	0.270
-635.595	-116.830	-0.857	0.158
-634.580	209.878	0.303	0.479
-633.565	800.000	0.095	0.368
-632.551	-78.819	0.283	-0.097
-631.536	-183.673	-0.745	0.013
-630.522	28.538	-0.445	0.379
-629.507	-104.412	0.557	0.130
-628.492	259.529	-0.229	-0.397
-627.478	-41.643	-0.308	0.159
-626.463	800.000	0.225	0.646
-625.449	-93.404	-0.594	0.166
-624.434	-64.033	-0.712	-0.292
-623.419	-200.000	-0.082	-0.585
-622.405	-200.000	0.200	-1.275
-621.390	1.821	0.633	-0.458
-620.376	1.296	-0.479	0.346
-619.361	-54.031	-0.217	-0.099
-618.346	-87.270	0.236	0.072
-617.332	-97.433	-1.259	-0.329
-616.317	-200.000	-0.063	-0.679
-615.303	-18.975	-0.427	0.267
-614.288	-21.479	0.341	-0.209
-613.273	12.764	0.072	-0.056
-612.259	379.200	-0.090	0.185
-611.244	-108.622	-1.013	-0.218
-610.230	53.100	-0.383	-0.369
-609.215	16.562	-0.517	0.411
-608.201	-174.226	0.381	-0.011
-607.186	-28.398	-0.387	0.224
-606.171	-4.624	-0.040	0.028
-605.157	117.691	0.551	0.682
-604.142	83.000	0.515	0.563
-603.128	187.964	0.079	0.119
-602.113	-109.231	-0.879	0.187
-601.098	-200.000	0.168	0.897
-600.084	343.289	0.207	0.408
-599.069	166.848	-0.462	-0.658
-598.055	-200.000	0.066	-0.506
-597.040	-82.960	-0.623	0.202
-596.025	-19.986	0.305	-0.189
-595.011	-28.566	-0.357	-0.207
-593.996	135.414	0.050	-0.065
-592.982	85.798	0.336	-0.371
-591.967	-119.952	0.286	-0.049
-590.952	193.553	-0.192	0.291
-589.938	-200.000	0.113	0.545
-588.923	-53.791	-0.709	-0.325
-587.909	-123.458	0.352	0.056
-586.894	-134.912	-0.768	-0.093
-585.879	-59.058	-0.125	-0.054
-584.865	-81.517	0.772	0.255
-583.850	-200.000	0.022	0.406
-582.836	800.000	0.138	0.569
-581.821	-200.000	0.016	0.497
-580.806	-46.097	-0.352	0.174
-579.792	-111.624	0.822	0.167
-578.777	-118.800	-0.774	0.137
-577.763	141.101	0.300	-0.398
-576.748	-200.000	-0.172	0.994
-575.733	800.000	0.139	0.531
-574.719	-133.845	0.535	-0.067
-573.704	55.853	0.409	-0.398
-572.690	-200.000	0.133	-0.703
-571.675	-26.485	-0.259	-0.153
-570.661	127.296	0.214	0.273
-569.646	-97.668	-0.584	0.152
-568.631	-14.121	-0.283	0.183
-567.617	-200.000	0.030	0.276
-566.602	340.839	-0.339	0.663
-565.588	-30.838	-0.771	-0.437
-564.573	800.000	0.064	0.248
-563.558	-200.000	-0.121	0.874
-562.544	-200.000	0.022	0.442
-561.529	355.118	0.204	0.407
-560.515	411.945	0.170	0.363
-559.500	124.046	-0.394	0.496
-558.485	-200.000	0.214	1.156
-557.471	269.921	0.207	0.364
-556.456	49.334	0.333	-0.314
-555.442	800.000	0.037	-0.143
-554.427	-57.309	0.339	0.150
-553.412	-130.264	0.713	-0.097
-552.398	32.529	-0.510	-0.442
-551.383	234.092	-0.069	-0.114
-550.369	247.186	0.182	-0.307
-549.354	-152.671	0.787	-0.056
-548.339	-78.907	0.212	0.072
-547.325	800.000	-0.429	1.209
-546.310	52.968	0.646	0.619
-545.296	-119.124	0.257	-0.045
-544.281	-31.018	-0.925	0.523
-543.266	-200.000	-0.004	0.719
-542.252	-54.329	-0.854	-0.388
-541.237	-30.085	0.550	-0.313
-540.223	-71.686	0.222	-0.083
-539.208	800.000	-0.110	-0.423
-538.193	-200.000	0.060	0.338
-537.179	-171.686	-0.614	0.020
-536.164	65.399	0.595	0.603
-535.150	800.000	0.248	-0.816
-534.135	800.000	0.214	-0.908
-533.121	-81.266	0.383	-0.127
-532.106	800.000	-0.093	0.281
-531.091	6.365	0.721	-0.536
-530.077	4.044	0.209	0.153
-529.062	284.681	-0.467	0.842
-528.048	22.267	0.407	0.333
-527.033	400.841	0.394	0.829
-526.018	-128.079	-0.360	-0.052
-525.004	235.107	-0.193	0.320
-523.989	-200.000	-0.032	0.428
-522.975	114.735	0.055	0.068
-521.960	-31.119	-0.370	0.209
-520.945	47.807	-0.312	-0.292
-519.931	579.986	-0.247	-0.606
-518.916	-200.000	-0.006	0.081
-517.902	-47.092	0.276	-0.135
-516.887	-35.324	-0.660	0.359
-515.872	28.723	0.661	0.560
-514.858	57.384	0.440	0.430
-513.843	-62.804	0.738	0.306
-512.829	-200.000	-0.167	0.806
-511.814	-200.000	-0.047	-0.977
-510.799	659.617	0.125	0.321
-509.785	800.000	0.261	-0.748
-508.770	800.000	-0.264	-1.094
-507.756	800.000	0.163	-0.530
-506.741	98.371	-0.175	0.202
-505.726	-200.000	0.204	-0.925
-504.712	-88.435	-0.340	0.101
-503.697	542.839	-0.045	-0.107
-502.683	-118.738	0.170	-0.030
-501.668	800.000	-0.142	0.463
-500.653	161.570	0.426	0.597
-499.639	-84.983	0.187	0.059
-498.624	800.000	-0.316	-0.963
-497.610	-71.769	0.257	-0.096
-496.595	677.074	-0.166	0.432
-495.581	246.128	0.260	-0.438
-494.566	358.500	0.194	0.389
-493.551	-200.000	-0.057	-1.091
-492.537	-91.986	0.319	-0.090
-491.522	2.285	-1.039	0.751
-490.508	-17.800	0.358	-0.225
-489.493	140.620	0.587	-0.775
-488.478	-10.244	-0.129	0.086
-487.464	-37.247	0.708	0.378
-486.449	26.958	-0.136	0.114
-485.435	268.460	0.286	0.502
-484.420	-200.000	0.019	-0.405
-483.405	23.530	-0.224	0.184
-482.391	-166.360	-0.222	-0.009
-481.376	-113.010	0.345	-0.068
-480.362	133.756	-0.198	-0.256
-479.347	-200.000	0.060	-0.808
-478.332	-120.868	-1.222	0.206
-477.318	-170.205	0.443	0.016
-476.303	-200.000	0.004	-0.325
-475.289	-139.158	0.865	0.093
-474.274	356.032	0.297	-0.591
-473.259	193.231	-0.392	0.592
-472.245	9.496	0.286	-0.217
-471.230	233.230	-0.454	-0.746
-470.216	-90.661	0.301	0.087
-469.201	-117.780	0.093	0.017
-468.186	122.588	0.241	0.301
-467.172	-49.466	0.426	-0.203
-466.157	100.466	0.464	0.539
-465.143	-200.000	0.072	-0.544
-464.128	170.958	-0.317	0.454
-463.113	-93.253	1.118	-0.310
-462.099	781.587	0.059	0.160
-461.084	-57.105	-0.235	0.104
-460.070	-138.748	0.240	-0.026
-459.055	236.807	-0.636	1.053
-458.040	538.056	-0.325	0.773
-457.026	-151.103	-0.214	-0.016
-456.011	-11.267	-0.255	0.168
-454.997	-53.801	-0.417	0.190
-453.982	21.023	-0.596	-0.483
-452.968	-62.329	0.337	0.140
-451.953	187.871	0.366	-0.546
-450.938	68.697	0.689	-0.706
-449.924	-200.000	-0.039	0.278
-448.909	-200.000	0.044	-0.730
-447.895	30.770	-0.135	0.115
-446.880	-200.000	-0.007	0.821
-445.865	-152.840	-0.817	-0.058
-444.851	305.719	0.288	-0.535
-443.836	116.941	-0.071	-0.087
-442.822	800.000	-0.080	-0.309
-441.807	231.462	0.230	0.377
-440.792	-119.195	-0.759	0.132
-439.778	-200.000	-0.083	-0.747
-438.763	-200.000	0.017	0.749
-437.749	-200.000	-0.064	-0.843
-436.734	85.200	-0.093	-0.102
-435.719	744.074	0.260	-0.699
-434.705	35.266	0.807	0.706
-433.690	-79.837	0.694	0.233
-432.676	800.000	-0.374	1.415
-431.661	-14.580	-0.335	-0.215
-430.646	652.429	0.125	-0.320
-429.632	6.852	-0.704	0.523
-428.617	-137.331	-0.218	-0.025
-427.603	-200.000	0.083	-0.983
-426.588	-29.621	0.246	-0.140
-425.573	800.000	-0.093	-0.293
-424.559	800.000	-0.200	-0.679
-423.544	-120.559	-0.839	-0.142
-422.530	-175.438	0.500	0.014
-421.515	32.382	-0.291	0.251
-420.500	602.976	-0.185	0.460
-419.486	303.837	0.271	0.501
-418.471	-55.414	-1.357	-0.607
-417.457	-165.099	-0.750	0.033
-416.442	-43.790	-0.604	0.303
-415.428	38.967	-0.093	0.083
-414.413	387.159	0.118	0.242
-413.398	-176.652	0.402	0.010
-412.384	-138.399	0.658	-0.072
-411.369	-118.506	-0.875	-0.154
-410.355	138.064	0.675	-0.882
-409.340	-79.349	0.771	0.260
-408.325	-141.052	-0.986	0.101
-407.311	382.165	0.097	-0.200
-406.296	-200.000	-0.012	-0.242
-405.282	-39.876	0.805	-0.419
-404.267	-200.000	0.012	0.711
-403.252	-153.730	-0.399	-0.027
-402.238	-158.961	0.485	-0.027
-401.223	-62.549	0.193	-0.080
-400.209	-82.428	-0.414	0.134
-399.194	-56.738	-0.657	0.290
-398.179	-200.000	0.007	0.604
-397.165	-108.848	-0.206	-0.044
-396.150	-200.000	0.008	0.503
-395.136	-130.089	-0.388	-0.053
-394.121	87.622	-0.294	-0.324
-393.106	1.992	0.236	0.170
-392.092	-34.604	0.445	0.243
-391.077	800.000	0.264	0.743
-390.063	-81.668	-1.019	0.333
-389.048	-76.487	0.052	0.018
-388.033	78.364	0.408	0.434
-387.019	800.000	0.117	-0.374
-386.004	-152.443	-0.338	-0.024
-384.990	800.000	0.028	0.105
-383.975	800.000	0.177	-0.491
-382.960	3.784	-0.332	-0.242
-381.946	-145.612	0.380	0.034
-380.931	412.243	0.097	0.205
-379.917	-65.446	-0.370	-0.148
-378.902	41.383	0.660	-0.595
-377.888	-200.000	-0.069	0.618
-376.873	133.844	-0.826	1.065
-375.858	800.000	0.240	0.723
-374.844	-200.000	0.123	-0.855
-373.829	49.126	0.323	0.302
-372.815	-81.141	0.273	-0.090
-371.800	-79.849	-0.483	0.162
-370.785	-134.808	0.462	0.056
-369.771	800.000	-0.089	-0.371
-368.756	-9.986	-0.530	0.351
-367.742	96.246	0.096	-0.110
-366.727	-173.423	0.388	-0.012
-365.712	13.308	-0.123	-0.095
-364.698	-200.000	-0.150	-0.991
-363.683	800.000	-0.173	-0.526
-362.669	64.365	0.183	0.184
-361.654	110.521	-0.492	-0.588
-360.639	5.641	0.463	-0.340
-359.625	229.352	-0.419	-0.680
-358.610	0.290	-0.329	0.233
-357.596	-72.988	0.403	0.147
-356.581	-200.000	-0.067	0.426
-355.566	-200.000	0.023	0.586
-354.552	-200.000	0.037	0.324
-353.537	-32.172	0.377	0.210
-352.523	178.411	-0.189	0.275
-351.508	520.329	-0.036	0.083
-350.493	11.140	-0.542	0.412
-349.479	-200.000	0.058	0.257
-348.464	-124.240	0.533	-0.083
-347.450	38.780	0.443	-0.393
-346.435	-63.114	-0.477	0.196
-345.420	-200.000	0.052	0.276
-344.406	-91.251	0.656	-0.187
-343.391	6.743	-0.512	-0.379
-342.377	-200.000	-0.030	-0.534
-341.362	800.000	0.111	-0.434
-340.348	-119.734	-0.994	-0.171
-339.333	434.118	0.400	-0.864
-338.318	800.000	-0.047	0.174
-337.304	62.995	-0.459	0.457
-336.289	-144.494	0.672	0.062
-335.275	-200.000	0.015	0.261
-334.260	-37.107	-0.243	-0.130
-333.245	-200.000	-0.109	-0.610
-332.231	-110.544	0.452	0.093
-331.216	-200.000	0.010	-0.267
-330.202	-82.611	0.830	-0.267
-329.187	100.872	-0.439	0.507
-328.172	486.844	0.275	-0.624
-327.158	54.117	0.356	-0.340
-326.143	46.634	-0.488	0.450
-325.129	-142.646	-0.414	-0.040
-324.114	800.000	-0.083	-0.271
-323.099	-48.392	-0.726	0.348
-322.085	-19.421	-0.207	-0.127
-321.070	-200.000	0.119	-0.562
-320.056	391.869	-0.662	-1.366
-319.041	30.751	-0.410	0.348
-318.026	-158.233	-0.347	0.020
-317.012	-200.000	-0.075	-0.362
-315.997	195.938	0.371	-0.561
-314.983	55.187	0.324	0.311
-313.968	98.669	-0.167	-0.191
-312.953	-93.850	-0.597	0.163
-311.939	46.032	-0.481	0.442
-310.924	-200.000	0.056	-0.557
-309.910	-54.001	-0.674	-0.304
-308.895	-97.605	0.589	-0.152
-307.880	-200.000	-0.189	1.031
-306.866	800.000	0.073	-0.296
-305.851	800.000	0.074	0.212
-304.837	-200.000	-0.033	0.550
-303.822	243.608	0.348	0.579
-302.807	800.000	0.117	-0.379
-301.793	-81.946	-0.744	-0.242
-300.778	294.568	-0.444	-0.805
-299.764	115.721	0.529	0.643
-298.749	369.148	0.202	-0.406
-297.735	-27.780	-0.478	-0.275
-296.720	122.456	0.161	-0.200
-295.705	-78.521	-0.583	-0.198
-294.691	800.000	-0.085	-0.284
-293.676	162.085	0.153	0.212
-292.662	-71.667	0.177	-0.066
-291.647	46.228	0.093	-0.086
-290.632	-127.746	-0.416	-0.060
-289.618	68.170	0.743	-0.755
-288.603	-119.310	-0.135	0.023
-287.589	-69.707	0.433	-0.164
-286.574	333.556	-0.443	0.850
-285.559	-48.894	0.872	0.415
-284.545	66.984	0.596	-0.603
-283.530	-63.941	-0.425	0.172
-282.516	-46.319	-0.273	0.133
-281.501	582.277	0.249	-0.606
-280.486	50.698	-0.238	0.223
-279.472	270.645	0.148	0.258
-278.457	-113.433	0.553	-0.108
-277.443	33.798	0.534	-0.460
-276.428	-122.298	-0.444	-0.072
-275.413	31.910	0.547	-0.468
-274.399	-200.000	-0.036	-0.279
-273.384	-14.695	0.585	0.372
-272.370	-176.111	0.581	-0.015
-271.355	1.057	0.492	0.350
-270.340	-116.665	-0.517	0.094
-269.326	-84.079	-0.565	0.178
-268.311	-186.108	-0.163	0.002
-267.297	-152.379	0.215	0.015
-266.282	-200.000	0.158	-0.705
-265.267	361.635	-0.258	-0.512
-264.253	-65.011	-0.110	0.044
-263.238	800.000	0.078	-0.273
-262.224	114.310	0.420	0.506
-261.209	-49.420	0.185	0.088
-260.195	41.432	0.314	0.281
-259.180	-30.634	-0.073	0.041
-258.165	-120.647	-0.778	0.131
-257.151	-83.670	0.714	-0.226
-256.136	-115.281	0.665	-0.125
-255.122	-108.212	0.406	0.087
-254.107	76.145	0.084	0.088
-253.092	-124.868	-0.537	-0.082
-252.078	-200.000	-0.001	0.036
-251.063	-40.971	-0.688	0.352
-250.049	-200.000	0.075	0.409
-249.034	-200.000	0.077	-0.613
-248.019	56.911	0.397	0.383
-247.005	-118.117	-0.506	0.090
-245.990	216.957	0.142	0.224
-244.976	-103.415	0.299	-0.070
-243.961	650.318	0.401	-1.016
-242.946	-55.618	-0.592	0.262
-241.932	285.534	-0.405	-0.722
-240.917	-19.677	0.204	-0.125
-239.903	15.002	0.640	0.496
-238.888	800.000	0.224	-0.955
-237.873	105.127	-0.257	0.301
-236.859	379.595	0.196	-0.397
-235.844	-0.918	0.759	-0.532
-234.830	587.440	-0.332	-0.808
-233.815	-128.388	0.609	-0.086
-232.800	-200.000	-0.357	-0.001
-231.786	670.422	-0.466	1.194
-230.771	234.667	0.123	0.201
-229.757	-200.000	0.235	-1.466
-228.742	18.158	0.595	-0.470
-227.727	-102.636	-0.200	0.047
-226.713	-1.924	0.199	-0.138
-225.698	412.268	0.346	-0.727
-224.684	-131.051	0.307	-0.041
-223.669	800.000	0.172	0.653
-222.655	25.272	-0.589	-0.484
-221.640	36.831	-0.718	-0.628
-220.625	-168.293	0.038	-0.001
-219.611	6.060	0.600	0.440
-218.596	674.685	-0.066	0.170
-217.582	-200.000	-0.045	0.417
-216.567	800.000	0.205	0.561
-215.552	-142.386	0.866	0.084
-214.538	-200.000	0.082	0.505
-213.523	42.391	0.241	-0.217
-212.509	800.000	0.153	-0.519
-211.494	800.000	0.098	0.343
-210.479	-62.304	0.761	-0.313
-209.465	-45.495	0.893	0.438
-208.450	-75.470	0.834	0.294
-207.436	190.739	0.389	-0.579
-206.421	53.531	0.464	0.440
-205.406	119.154	-0.499	0.610
-204.392	-124.287	-0.244	0.038
-203.377	-166.250	-0.576	-0.024
-202.363	-17.735	0.109	0.068
-201.348	141.575	-0.107	0.140
-200.333	-85.040	0.537	0.166
-199.319	-122.950	-0.292	-0.046
-198.304	-200.000	0.110	-0.585
-197.290	182.571	-0.388	-0.565
-196.275	308.933	-0.183	-0.338
-195.260	482.510	-0.503	-1.129
-194.246	-43.350	0.392	0.196
-193.231	49.129	-0.075	-0.069
-192.217	83.838	-0.598	0.645
-191.202	-100.599	0.743	-0.181
-190.187	107.292	-0.177	-0.208
-189.173	-121.071	0.159	0.026
-188.158	-134.832	-0.125	-0.015
-187.144	-120.233	0.844	0.142
-186.129	-135.348	-0.492	0.058
-185.114	-170.038	-0.121	0.004
-184.100	240.494	0.539	0.888
-183.085	800.000	-0.201	-0.594
-182.071	490.790	0.178	0.402
-181.056	16.058	0.678	-0.528
-180.042	-97.009	-0.648	0.168
-179.027	800.000	-0.234	-0.705
-178.012	141.613	0.224	-0.293
-176.998	59.614	-0.027	0.026
-175.983	-31.417	-0.385	-0.214
-174.969	-152.152	0.643	-0.046
-173.954	665.752	-0.062	0.159
-172.939	-200.000	-0.003	0.187
-171.925	267.676	0.172	-0.298
-170.910	241.419	0.284	0.469
-169.896	-150.864	-0.400	-0.030
-168.881	-70.760	0.578	0.215
-167.866	-99.769	-0.362	0.090
-166.852	-54.255	-0.099	0.045
-165.837	-200.000	0.090	-0.849
-164.823	100.537	-0.108	0.124
-163.808	-51.102	0.941	0.436
-162.793	-17.244	-0.363	0.226
-161.779	-5.475	0.595	0.403
-160.764	-53.336	0.354	-0.160
-159.750	85.852	-0.280	-0.303
-158.735	-103.245	0.685	0.160
-157.720	-200.000	-0.059	-0.594
-156.706	-200.000	-0.021	-0.475
-155.691	-12.816	-0.661	0.425
-154.677	-200.000	-0.086	0.405
-153.662	-110.405	-1.275	0.261
-152.647	209.693	0.205	0.317
-151.633	-66.996	-0.619	0.241
-150.618	252.574	-0.267	-0.448
-149.604	-200.000	0.038	-0.594
-148.589	400.946	-0.489	-1.014
-147.574	-200.000	-0.051	-0.479
-146.560	145.255	0.440	0.581
-145.545	78.745	-0.796	0.840
-144.531	27.201	-0.100	0.083
-143.516	4.682	-0.120	-0.087
-142.502	-200.000	-0.777	-0.001
-141.487	409.123	0.104	0.218
-140.472	-17.171	0.306	-0.191
-139.458	-91.012	-0.205	0.058
-138.443	-200.000	0.006	-0.441
-137.429	464.246	-0.099	0.219
-136.414	-200.000	0.031	0.156
-135.399	-200.000	0.058	-0.576
-134.385	-27.411	0.418	-0.240
-133.370	-116.387	-0.710	0.129
-132.356	141.003	0.151	0.197
-131.341	470.597	-0.164	0.363
-130.326	-200.000	-0.004	-0.571
-129.312	20.673	-0.170	0.136
-128.297	13.299	0.812	0.621
-127.283	218.205	-0.470	-0.739
-126.268	-69.671	0.440	-0.166
-125.253	-194.211	0.766	-0.006
-124.239	50.604	-0.146	-0.136
-123.224	727.792	0.137	-0.360
-122.210	-140.122	-0.423	0.044
-121.195	107.495	-0.400	-0.469
-120.180	-93.101	0.596	0.164
-119.166	-118.705	0.304	-0.053
-118.151	75.754	-0.446	0.465
-117.137	-34.163	-1.242	0.672
-116.122	782.713	0.128	-0.346
-115.107	-105.540	0.847	-0.189
-114.093	188.762	-0.382	0.563
-113.078	50.146	-0.759	-0.706
-112.064	800.000	-0.246	0.670
-111.049	772.603	-0.269	0.723
-110.034	-151.052	-0.761	0.056
-109.020	800.000	-0.172	0.548
-108.005	-76.852	-0.216	0.074
-106.991	-180.093	0.422	0.009
-105.976	27.141	-0.249	0.206
-104.962	-200.000	-0.027	0.736
-103.947	39.053	-0.182	0.160
-102.932	130.402	0.568	0.717
-101.918	800.000	-0.099	-0.284
-100.903	594.708	-0.191	0.465
-99.889	50.880	0.331	-0.309
-98.874	427.300	-0.249	-0.529
-97.859	-22.951	0.915	0.543
-96.845	-91.913	0.284	0.079
-95.830	-200.000	-0.062	0.419
-94.816	-200.000	0.180	0.790
-93.801	-174.330	-0.949	0.027
-92.786	57.907	-0.371	-0.357
-91.772	39.859	-0.376	-0.332
-90.757	248.361	-0.282	0.470
-89.743	64.038	-0.462	-0.458
-88.728	-23.848	-0.353	-0.208
-87.713	91.576	-0.328	-0.363
-86.699	-1.486	0.581	0.403
-85.684	-200.000	-0.116	-0.568
-84.670	-121.903	-0.226	0.037
-83.655	-54.961	-0.393	0.175
-82.640	115.304	0.243	-0.292
-81.626	-98.733	0.174	0.044
-80.611	800.000	0.156	-0.581
-79.597	44.177	-0.582	-0.525
-78.582	277.306	0.138	0.241
-77.567	-200.000	0.046	0.237
-76.553	-152.722	0.323	-0.023
-75.538	-68.345	0.725	0.277
-74.524	-84.668	-0.448	-0.139
-73.509	469.043	0.186	-0.410
-72.494	-47.993	-0.642	0.305
-71.480	-47.815	0.233	0.111
-70.465	-200.000	0.041	0.262
-69.451	28.542	-0.436	-0.362
-68.436	253.411	0.029	0.049
-67.422	-200.000	-0.071	0.567
-66.407	360.520	0.128	0.253
-65.392	-61.918	-0.770	-0.317
-64.378	800.000	0.210	0.656
-63.363	-200.000	0.010	-0.330
-62.349	-114.653	0.433	-0.082
-61.334	-200.000	-0.181	-0.816
-60.319	-200.000	0.276	1.431
-59.305	113.383	0.315	-0.376
-58.290	-200.000	0.171	1.484
-57.276	800.000	0.593	1.872
-56.261	-200.000	96.206	601.127
-55.246	670.173	1354.269	3447.620
-54.232	204.299	2520.265	3839.978
-53.217	120.647	2119.766	2589.831
-52.203	44.214	1588.915	1433.078
-51.188	35.637	1328.742	1147.439
-50.173	32.494	1287.936	1093.931
-49.159	56.665	1339.321	1281.259
-48.144	57.438	1355.855	1301.594
-47.130	35.698	1313.660	1134.596
-46.115	32.305	1295.769	1099.306
-45.100	32.356	1289.618	1094.340
-44.086	31.983	1288.512	1091.190
-43.071	32.291	1284.356	1089.409
-42.057	31.776	1283.785	1085.901
-41.042	31.936	1281.528	1084.871
-40.027	32.046	1279.661	1083.887
-39.013	31.970	1278.671	1082.567
-37.998	31.872	1277.177	1080.690
-36.984	31.879	1275.192	1079.011
-35.969	32.107	1273.323	1078.694
-34.954	32.063	1272.024	1077.300
-33.940	32.180	1270.556	1076.686
-32.925	32.050	1269.485	1074.987
-31.911	32.473	1266.213	1074.592
-30.896	32.138	1265.841	1072.323
-29.881	32.299	1263.208	1070.966
-28.867	32.421	1262.916	1071.372
-27.852	32.221	1262.339	1069.702
-26.838	32.223	1259.920	1067.618
-25.823	32.362	1258.295	1066.985
-24.809	32.298	1257.495	1065.902
-23.794	32.220	1256.253	1064.369
-22.779	32.354	1255.121	1064.123
-21.765	32.312	1254.048	1062.936
-20.750	32.164	1252.644	1060.870
-19.736	32.220	1252.173	1060.741
-18.721	32.137	1250.041	1058.424
-17.706	31.993	1249.548	1057.155
-16.692	32.124	1248.731	1057.159
-15.677	32.120	1246.280	1055.020
-14.663	32.004	1244.564	1052.877
-13.648	32.086	1244.520	1053.259
-12.633	31.884	1243.937	1051.587
-11.619	32.180	1243.034	1052.444
-10.604	32.038	1241.788	1050.551
-9.590	31.939	1241.223	1049.478
-8.575	31.962	1240.078	1048.594
-7.560	32.103	1239.305	1048.688
-6.546	32.166	1237.388	1047.376
-5.531	31.931	1237.536	1046.147
-4.517	32.036	1236.004	1045.395
-3.502	32.140	1234.918	1045.018
-2.487	31.959	1234.753	1043.830
-1.473	31.981	1229.906	1039.812
-0.458	30.374	1215.790	1019.025
0.556	27.927	1199.012	980.367
1.571	24.322	1203.011	964.101
2.586	23.243	1217.279	969.543
3.600	22.595	1206.232	957.141
4.615	17.301	1133.502	872.265
5.629	8.183	1059.961	771.669
6.644	3.679	1040.376	735.916
7.659	3.220	1037.516	731.647
8.673	3.464	1035.009	730.970
9.688	3.239	1034.944	729.796
10.702	3.775	1033.017	730.908
11.717	9.542	1039.920	763.120
12.731	19.058	1053.533	818.515
13.746	23.841	1059.902	846.222
14.761	24.764	1059.917	850.550
15.775	24.414	1058.913	848.006
16.790	23.840	1058.545	844.908
17.804	23.301	1058.435	842.186
18.819	23.167	1057.393	840.646
19.834	23.652	1056.679	842.304
20.848	23.638	1056.763	842.232
21.863	23.518	1055.541	840.614
22.877	23.358	1055.203	839.513
23.892	23.342	1053.556	838.052
24.907	23.100	1053.876	837.087
25.921	23.250	1051.607	835.917
26.936	22.821	1052.006	834.136
27.950	23.145	1049.621	833.699
28.965	23.390	1047.347	832.970
29.980	23.324	1046.776	832.133
30.994	23.432	1045.346	831.428
32.009	23.556	1044.195	831.019
33.023	23.311	1043.519	829.259
34.038	23.321	1043.175	828.961
35.053	23.295	1041.551	827.475
36.067	22.922	1041.140	825.332
37.082	22.880	1040.312	824.409
38.096	23.127	1039.617	824.938
39.111	23.383	1039.616	826.055
40.126	23.155	1037.895	823.554
41.140	23.029	1034.901	820.520
42.155	22.640	1035.160	818.848
43.169	22.541	1033.964	817.368
44.184	22.511	1032.828	816.262
45.199	22.594	1031.328	815.389
46.213	22.883	1031.274	816.611
47.228	23.429	1030.505	818.450
48.242	23.414	1030.285	818.133
49.257	23.233	1030.130	817.102
50.271	23.381	1029.853	817.491
51.286	23.572	1028.579	817.289
52.301	23.434	1027.142	815.440
53.315	23.582	1025.184	814.496
54.330	23.039	1025.679	812.318
55.344	23.078	1024.969	811.866
56.359	23.112	1023.375	810.687
57.374	23.087	1022.702	809.965
58.388	22.825	1021.731	807.928
59.403	22.994	1020.067	807.312
60.417	22.623	1020.789	806.119
61.432	23.051	1018.656	806.315
62.447	22.841	1018.084	804.829
63.461	22.758	1017.624	804.019
64.476	22.515	1016.560	802.000
65.490	22.732	1015.781	802.301
66.505	22.798	1015.572	802.364
67.520	22.597	1015.489	801.315
68.534	22.708	1013.924	800.513
69.549	22.282	1013.366	798.071
70.563	22.063	1013.066	796.771
71.578	22.131	1010.644	795.101
72.593	21.946	1009.250	793.100
73.607	21.979	1009.207	793.143
74.622	22.374	1009.715	795.257
75.636	22.212	1008.019	793.121
76.651	22.094	1008.179	792.647
77.666	22.298	1007.507	792.965
78.680	21.892	1006.997	790.663
79.695	22.493	1004.635	791.442
80.709	22.542	1005.319	792.130
81.724	22.448	1005.034	791.413
82.739	22.734	1004.108	791.898
83.753	23.172	1003.356	793.200
84.768	23.501	1004.540	795.540
85.782	24.000	1002.639	796.197
86.797	23.911	1001.379	794.728
87.812	23.707	1000.001	792.654
88.826	23.788	1000.032	792.972
89.841	23.676	999.127	791.686
90.855	23.832	998.236	791.604
91.870	23.787	996.791	790.188
92.884	23.246	996.314	787.332
93.899	23.906	994.875	789.058
94.914	23.762	994.129	787.759
95.928	23.595	992.852	785.938
96.943	23.160	992.642	783.771
97.957	23.207	991.914	783.338
98.972	23.277	990.920	782.794
99.987	23.388	990.304	782.726
101.001	23.574	988.307	781.900
102.016	23.331	987.785	780.347
103.030	23.350	987.609	780.224
104.045	23.670	987.357	781.365
105.060	23.461	984.748	778.310
106.074	23.102	984.585	776.537
107.089	22.848	983.756	774.701
108.103	23.145	982.496	774.941
109.118	22.824	980.952	772.250
110.133	22.381	980.215	769.665
111.147	22.269	979.549	768.584
112.162	22.099	978.745	767.142
113.176	22.389	977.512	767.373
114.191	22.562	977.558	768.098
115.206	22.750	976.505	768.019
116.220	22.354	975.571	765.494
117.235	22.113	974.471	763.515
118.249	22.377	973.183	763.587
119.264	22.272	972.825	762.782
120.279	22.117	972.327	761.651
121.293	22.192	969.916	760.022
122.308	22.082	969.241	758.950
123.322	21.822	969.044	757.603
124.337	21.955	967.683	757.048
125.352	22.257	966.876	757.650
126.366	22.067	965.807	755.927
127.381	22.650	964.795	757.576
128.395	22.459	964.726	756.634
129.410	22.781	963.450	756.945
130.424	22.651	963.033	755.993
131.439	22.825	962.629	756.355
132.454	22.937	961.567	755.932
133.468	22.975	960.962	755.552
134.483	22.867	959.835	754.142
135.497	22.916	958.987	753.615
136.512	22.883	958.707	753.188
137.527	23.080	958.097	753.483
138.541	23.194	956.366	752.537
139.556	22.799	956.902	751.212
140.570	23.092	957.136	752.576
141.585	23.079	955.850	751.446
142.600	23.495	954.658	752.207
143.614	23.778	953.452	752.386
144.629	23.615	953.838	751.936
145.643	23.933	951.025	750.994
146.658	23.265	951.182	748.231
147.673	23.312	948.401	746.175
148.687	23.195	947.888	745.210
149.702	22.824	947.759	743.481
150.716	22.837	947.192	743.026
151.731	23.108	945.897	743.083
152.746	23.281	944.603	742.728
153.760	23.647	944.237	743.907
154.775	23.192	945.684	743.072
155.789	23.167	944.198	741.732
156.804	23.072	943.588	740.790
157.819	23.723	941.778	742.024
158.833	23.418	942.698	741.407
159.848	23.637	941.094	740.996
160.862	23.264	940.008	738.521
161.877	22.775	939.450	735.979
162.892	22.946	937.650	735.215
163.906	22.976	936.355	734.256
164.921	22.591	935.776	732.142
165.935	22.732	935.425	732.387
166.950	23.291	934.054	733.563
167.964	22.915	933.414	731.441
168.979	23.089	932.289	731.214
169.994	22.913	932.020	730.211
171.008	23.007	931.149	729.850
172.023	23.276	930.168	730.128
173.037	23.680	929.276	731.026
174.052	23.438	929.086	729.815
175.067	23.345	927.188	727.878
176.081	23.001	926.195	725.621
177.096	22.666	925.737	723.825
178.110	22.797	925.061	723.770
179.125	22.689	925.379	723.512
180.140	22.457	925.895	722.898
181.154	23.099	924.003	723.983
182.169	23.249	924.562	724.974
183.183	23.592	923.605	725.563
184.198	23.325	923.229	724.110
185.213	23.314	921.501	722.646
186.227	22.920	922.562	721.804
187.242	23.340	921.074	722.290
188.256	23.827	920.056	723.411
189.271	23.526	919.809	721.928
190.286	23.291	918.752	720.079
191.300	22.631	918.149	716.858
192.315	21.795	917.763	713.095
193.329	22.314	915.778	713.598
194.344	22.679	916.211	715.352
195.359	22.769	915.071	714.764
196.373	23.144	915.298	716.394
197.388	23.251	915.786	717.149
198.402	23.652	914.357	717.588
199.417	24.154	913.823	719.132
200.432	24.410	913.420	719.782
201.446	24.088	913.119	718.184
202.461	23.952	912.330	716.951
203.475	23.730	911.791	715.569
204.490	23.264	910.716	712.788
205.504	23.411	909.395	712.281
206.519	23.453	909.274	712.294
207.534	23.376	908.878	711.612
208.548	23.560	908.158	711.720
209.563	23.339	906.965	709.839
210.577	23.715	906.176	710.663
211.592	24.010	906.237	711.826
212.607	24.164	905.881	712.100
213.621	23.586	905.539	709.459
214.636	23.751	904.336	709.111
215.650	23.600	903.628	707.894
216.665	23.793	902.885	708.017
217.680	23.355	904.119	707.172
218.694	23.784	901.798	707.002
219.709	23.626	900.362	705.189
220.723	23.472	900.071	704.285
221.738	23.232	900.350	703.489
222.753	23.396	899.698	703.568
223.767	23.683	898.712	703.870
224.782	23.874	897.579	703.679
225.796	23.953	898.319	704.509
226.811	23.786	896.374	702.262
227.826	23.154	896.159	699.534
228.840	23.541	895.062	700.143
229.855	23.129	894.991	698.398
230.869	22.963	894.206	697.071
231.884	23.240	893.218	697.330
232.899	23.114	893.197	696.754
233.913	22.929	891.784	694.861
234.928	22.829	891.707	694.349
235.942	22.837	890.557	693.421
236.957	23.043	889.257	693.155
237.972	22.800	890.136	692.827
238.986	22.933	888.729	692.193
240.001	22.987	887.964	691.745
241.015	22.827	887.437	690.647
242.030	23.156	887.266	691.741
243.045	22.981	887.838	691.440
244.059	23.549	885.826	692.029
245.074	23.528	885.985	692.009
246.088	23.376	885.115	690.677
247.103	24.226	884.434	693.392
248.117	24.259	884.831	693.770
249.132	24.258	885.318	694.089
250.147	24.890	884.185	695.596
251.161	24.886	883.339	694.850
252.176	24.556	883.947	693.986
253.190	24.623	883.193	693.596
254.205	24.647	882.786	693.307
255.220	24.810	881.231	692.654
256.234	24.540	880.534	690.999
257.249	24.560	879.703	690.364
258.263	24.409	878.539	688.808
259.278	24.551	878.726	689.443
260.293	24.247	878.792	688.259
261.307	24.187	878.308	687.584
262.322	24.541	877.398	688.178
263.336	24.424	876.940	687.307
264.351	24.396	875.279	685.836
265.366	24.132	875.679	685.074
266.380	24.245	874.506	684.532
267.395	24.452	874.045	684.901
268.409	24.309	873.752	684.064
269.424	24.658	870.910	683.113
270.439	24.661	870.892	683.050
271.453	24.269	870.970	681.550
272.468	24.435	870.239	681.555
273.482	24.463	870.580	681.866
274.497	24.410	869.398	680.678
275.512	24.692	868.252	680.794
276.526	24.672	867.383	679.979
277.541	24.369	867.844	679.125
278.555	24.812	867.416	680.416
279.570	24.886	867.095	680.384
280.585	24.616	866.968	679.198
281.599	24.394	865.369	677.043
282.614	24.266	864.237	675.614
283.628	23.956	864.062	674.241
284.643	24.254	862.604	674.174
285.657	24.430	862.151	674.424
286.672	24.271	861.893	673.560
287.687	24.535	861.572	674.246
288.701	24.587	860.697	673.699
289.716	24.012	861.055	671.749
290.730	24.543	859.460	672.446
291.745	24.235	859.302	671.104
292.760	24.597	858.417	671.714
293.774	24.698	859.212	672.655
294.789	24.809	858.417	672.391
295.803	24.760	856.379	670.554
296.818	24.613	855.608	669.341
297.833	24.396	855.117	668.084
298.847	24.190	855.402	667.476
299.862	24.466	855.150	668.255
300.876	24.813	855.052	669.417
301.891	24.794	854.658	668.978
302.906	24.903	853.604	668.500
303.920	25.204	852.965	669.062
304.935	25.377	852.852	669.561
305.949	25.054	852.772	668.234
306.964	24.880	851.622	666.627
307.979	24.770	849.770	664.707
308.993	25.006	849.609	665.400
310.008	24.941	849.275	664.840
311.022	24.462	849.534	663.203
312.037	24.516	848.882	662.836
313.052	24.202	847.552	660.577
314.066	24.180	846.158	659.351
315.081	24.108	846.186	659.047
316.095	24.331	846.461	660.027
317.110	24.339	845.000	658.858
318.125	23.877	844.630	656.807
319.139	23.753	843.750	655.608
320.154	23.687	842.861	654.613
321.168	24.287	842.602	656.564
322.183	24.220	842.079	655.853
323.197	24.630	842.224	657.415
324.212	24.292	841.352	655.434
325.227	24.035	841.056	654.203
326.241	23.868	840.698	653.252
327.256	24.048	840.113	653.400
328.270	23.909	839.524	652.374
329.285	23.970	838.273	651.569
330.300	23.837	837.492	650.419
331.314	23.799	837.098	649.914
332.329	24.349	837.475	652.160
333.343	24.366	837.160	651.920
334.358	24.394	836.723	651.624
335.373	24.386	836.741	651.553
336.387	24.579	836.122	651.716
337.402	24.885	835.710	652.452
338.416	24.764	836.922	652.899
339.431	25.280	835.709	653.775
340.446	25.735	835.339	655.085
341.460	25.030	835.020	652.214
342.475	25.703	834.138	653.911
343.489	25.527	835.045	653.925
344.504	25.383	833.990	652.518
345.519	25.559	833.546	652.749
346.533	25.715	832.402	652.363
347.548	25.301	832.072	650.548
348.562	25.090	830.739	648.683
349.577	25.082	830.505	648.414
350.592	24.711	830.447	646.971
351.606	24.479	829.633	645.440
352.621	24.504	828.144	644.312
353.635	24.699	827.993	644.843
354.650	24.446	827.476	643.473
355.665	24.806	826.189	643.708
356.679	24.818	826.018	643.563
357.694	25.135	824.911	643.782
358.708	24.789	824.655	642.281
359.723	24.992	823.186	641.809
360.738	24.040	824.284	639.192
361.752	24.780	822.769	640.609
362.767	25.492	822.614	642.981
363.781	25.861	821.537	643.402
364.796	25.530	822.031	642.547
365.810	25.662	821.737	642.732
366.825	25.549	821.386	641.998
367.840	25.383	821.307	641.287
368.854	25.254	820.475	640.119
369.869	24.854	819.953	638.229
370.883	25.017	819.679	638.543
371.898	25.134	819.799	638.994
372.913	25.095	818.350	637.670
373.927	24.954	817.694	636.601
374.942	25.018	817.565	636.671
375.956	24.961	817.479	636.346
376.971	25.939	815.428	638.159
377.986	25.799	816.400	638.367
379.000	25.648	815.839	637.335
380.015	25.434	815.536	636.286
381.029	26.201	812.823	636.818
382.044	25.580	813.582	635.162
383.059	25.947	813.203	636.107
384.073	25.815	812.078	634.704
385.088	25.160	812.135	632.385
386.102	25.312	810.763	631.796
387.117	25.174	809.157	630.003
388.132	25.145	808.743	629.524
389.146	25.054	809.282	629.569
390.161	25.383	809.037	630.477
391.175	25.931	809.351	632.589
392.190	25.644	807.901	630.395
393.205	24.744	808.012	627.272
394.219	24.323	807.068	625.008
395.234	24.633	805.961	625.179
396.248	24.768	805.624	625.334
397.263	25.096	804.700	625.708
398.278	25.150	804.589	625.753
399.292	24.922	803.446	624.013
400.307	24.642	803.291	622.865
401.321	24.737	803.568	623.354
402.336	24.561	803.856	622.908
403.350	25.309	803.383	625.094
404.365	25.543	803.921	626.273
405.380	25.686	803.072	626.051
406.394	26.068	802.016	626.502
407.409	26.010	802.208	626.393
408.423	26.376	801.385	626.963
409.438	25.817	801.932	625.396
410.453	26.271	799.902	625.329
411.467	25.507	800.356	622.983
412.482	25.745	800.049	623.512
413.496	26.330	798.685	624.416
414.511	25.902	799.722	623.690
415.526	26.008	798.366	622.945
416.540	25.869	798.800	622.749
417.555	25.918	797.318	621.705
418.569	25.899	797.166	621.468
419.584	25.854	797.089	621.196
420.599	25.711	796.362	620.082
421.613	161.737	1370.225	1793.237
422.628	140.339	1453.761	1793.316
