DTS Sentinel unit serial number:	SN413079Multiplexer serial number:	ORYXHardware model number:	OX4-SRSoftware version number:	ORYX F/W v4.00 Oryx Data Collector v3.7.2.0data status	okinstallation	princeton_trtdifferential loss correction	single-endedforward channel	channel 1reverse channel	N/Adate	2019/09/15time	03:02:35forward acquisition time	60.00reverse acquisition time	0.00gamma	496.2192k internal	0.2324k external	0.2324temperature offset calibration	0.9987default loss term (dB/km)	0.3790temperature slope calibration	1.0000multiplexer offset coefficient	1.0000multiplexer slope coefficient	1.0000fibre end	0.00T internal ref (°C)	31.19T ext. ref 1 (°C)	4.58T ext. ref 2 (°C)	25.72length (m)	temperature (°C)	Stokes	anti-Stokes-747.200	800.000	0.074	0.223
-746.185	-163.069	-0.126	0.006
-745.171	800.000	-0.070	0.286
-744.156	-69.110	-0.278	0.108
-743.142	-200.000	-0.031	0.248
-742.127	-200.000	-0.076	0.630
-741.112	800.000	0.045	-0.168
-740.098	-160.659	0.187	0.010
-739.083	-98.494	-0.180	0.046
-738.069	-36.073	-0.537	0.293
-737.054	-74.360	-0.375	0.137
-736.039	347.550	-0.197	-0.392
-735.025	-132.017	-0.067	0.009
-734.010	-200.000	0.033	0.381
-732.996	-200.000	0.012	-0.066
-731.981	94.060	-0.381	-0.436
-730.966	-200.000	0.014	-0.254
-729.952	-27.486	-0.227	0.133
-728.937	-23.466	-0.148	-0.090
-727.923	-185.875	-0.213	0.003
-726.908	-200.000	-0.049	-0.299
-725.894	-86.879	0.128	0.039
-724.879	-100.013	0.373	0.094
-723.864	-47.726	-0.268	-0.131
-722.850	-117.197	-0.461	-0.085
-721.835	-73.163	-0.028	0.010
-720.821	-9.652	0.315	-0.212
-719.806	-200.000	0.006	0.157
-718.791	800.000	0.054	0.236
-717.777	57.946	-0.147	0.145
-716.762	-195.019	-0.226	0.002
-715.748	45.188	-0.170	0.158
-714.733	88.370	-0.133	0.149
-713.718	99.273	0.182	0.212
-712.704	-154.687	-0.422	-0.028
-711.689	-109.656	-0.219	-0.047
-710.675	7.515	0.160	0.121
-709.660	-200.000	0.014	-0.213
-708.645	-200.000	-0.004	0.198
-707.631	444.098	0.092	-0.204
-706.616	29.721	-0.274	0.235
-705.602	398.730	0.088	-0.186
-704.587	-42.388	-0.207	0.106
-703.572	-97.988	0.191	-0.050
-702.558	149.281	0.261	-0.356
-701.543	347.410	-0.035	0.070
-700.529	-200.000	-0.055	-0.404
-699.514	-200.000	-0.020	-0.192
-698.499	-125.490	0.093	0.014
-697.485	654.033	-0.104	-0.268
-696.470	-34.694	0.157	-0.086
-695.456	190.130	-0.080	0.122
-694.441	20.642	0.118	0.096
-693.426	-200.000	0.065	0.289
-692.412	24.113	-0.095	0.079
-691.397	586.564	0.028	-0.070
-690.383	436.058	0.028	0.060
-689.368	196.797	0.073	0.112
-688.354	-58.515	0.142	0.062
-687.339	36.950	0.164	-0.146
-686.324	337.788	0.190	0.373
-685.310	-115.097	-0.474	0.091
-684.295	40.020	-0.065	-0.058
-683.281	-11.713	-0.278	-0.184
-682.266	-200.000	-0.009	0.092
-681.251	800.000	-0.016	-0.051
-680.237	-100.787	-0.138	-0.034
-679.222	-165.591	-0.104	0.005
-678.208	-23.488	-0.164	-0.099
-677.193	-153.631	-0.170	0.012
-676.178	123.719	-0.158	0.199
-675.164	101.209	0.005	0.006
-674.149	-47.746	0.138	0.067
-673.135	-127.754	0.149	-0.022
-672.120	-157.458	0.160	-0.010
-671.105	365.131	-0.014	0.027
-670.091	-105.448	-0.141	0.032
-669.076	800.000	0.018	0.073
-668.062	-48.351	-0.340	-0.165
-667.047	-31.764	-0.290	0.164
-666.032	800.000	0.059	-0.223
-665.018	-165.788	0.146	0.006
-664.003	-65.885	-0.393	-0.158
-662.989	-22.881	-0.282	0.171
-661.974	272.049	0.122	-0.217
-660.959	-200.000	0.015	0.147
-659.945	-96.289	0.383	-0.102
-658.930	-114.288	-0.206	0.040
-657.916	168.124	0.018	-0.026
-656.901	14.106	-0.328	-0.257
-655.886	800.000	-0.039	-0.128
-654.872	-41.543	-0.043	-0.022
-653.857	800.000	0.079	-0.232
-652.843	143.453	-0.169	-0.227
-651.828	-200.000	0.024	0.131
-650.814	-45.239	0.213	-0.106
-649.799	-111.578	0.321	0.066
-648.784	32.756	-0.258	-0.225
-647.770	310.836	0.068	-0.127
-646.755	-200.000	0.014	0.261
-645.741	628.532	0.061	-0.154
-644.726	196.439	0.198	0.304
-643.711	800.000	0.098	-0.296
-642.697	35.866	-0.281	0.249
-641.682	-69.495	-0.026	-0.010
-640.668	126.409	0.202	0.257
-639.653	39.434	-0.132	-0.119
-638.638	147.064	-0.101	0.137
-637.624	611.605	-0.092	0.231
-636.609	-76.070	-0.144	0.051
-635.595	800.000	-0.015	-0.067
-634.580	800.000	0.038	-0.155
-633.565	109.707	0.045	0.054
-632.551	65.845	0.121	0.123
-631.536	281.026	-0.073	-0.131
-630.522	39.920	-0.133	0.121
-629.507	289.687	-0.032	-0.058
-628.492	-3.787	0.036	-0.025
-627.478	-180.503	0.252	-0.005
-626.463	142.795	0.261	-0.349
-625.449	195.370	-0.080	0.121
-624.434	800.000	0.094	-0.405
-623.419	-93.896	0.264	0.073
-622.405	-57.571	-0.176	-0.078
-621.390	-51.247	0.252	-0.118
-620.376	-138.500	-0.116	-0.013
-619.361	206.059	-0.101	0.158
-618.346	-104.115	-0.219	-0.051
-617.332	153.789	0.275	-0.379
-616.317	67.128	-0.028	0.028
-615.303	-21.670	0.057	-0.035
-614.288	143.750	-0.271	-0.362
-613.273	59.657	-0.144	0.143
-612.259	-200.000	0.044	0.244
-611.244	538.503	-0.162	-0.387
-610.230	-57.536	-0.153	0.067
-609.215	-96.933	0.021	-0.006
-608.201	-200.000	-0.014	0.113
-607.186	114.921	-0.108	0.133
-606.171	-159.216	-0.167	-0.009
-605.157	246.570	0.091	-0.154
-604.142	-6.230	-0.524	-0.360
-603.128	-84.867	0.188	0.059
-602.113	-200.000	-0.007	0.253
-601.098	200.054	-0.171	0.264
-600.084	48.918	0.081	-0.077
-599.069	369.588	-0.046	-0.094
-598.055	-132.022	-0.130	0.017
-597.040	-57.530	-0.113	-0.050
-596.025	-73.001	0.064	0.024
-595.011	-65.935	-0.244	-0.098
-593.996	119.203	-0.076	-0.094
-592.982	4.653	-0.168	0.124
-591.967	43.767	0.178	-0.164
-590.952	-97.525	0.331	0.086
-589.938	212.780	0.050	-0.080
-588.923	-80.700	0.167	-0.056
-587.909	-119.190	-0.175	0.031
-586.894	800.000	0.103	-0.331
-585.879	-71.244	0.185	0.070
-584.865	-200.000	-0.038	0.277
-583.850	367.135	-0.055	-0.112
-582.836	76.399	0.064	0.068
-581.821	-95.413	0.103	-0.028
-580.806	800.000	-0.051	-0.156
-579.792	-92.027	-0.266	0.076
-578.777	-200.000	-0.029	0.135
-577.763	192.995	-0.061	0.092
-576.748	-136.932	-0.164	0.019
-575.733	800.000	-0.053	-0.163
-574.719	420.199	0.069	0.148
-573.704	5.200	-0.296	-0.219
-572.690	-38.558	-0.131	-0.070
-571.675	-200.000	0.017	-0.196
-570.661	-68.944	0.262	0.102
-569.646	-91.132	-0.256	-0.074
-568.631	224.108	0.124	-0.201
-567.617	800.000	-0.019	-0.053
-566.602	67.380	0.085	0.087
-565.588	-89.959	-0.324	0.095
-564.573	95.954	-0.058	-0.066
-563.558	261.701	0.112	0.195
-562.544	122.527	-0.147	-0.184
-561.529	-45.194	-0.434	0.216
-560.515	213.977	-0.158	0.250
-559.500	-83.764	0.071	0.023
-558.485	800.000	-0.123	-0.395
-557.471	-137.796	0.157	0.018
-556.456	-200.000	-0.048	-0.420
-555.442	-149.284	-0.501	-0.040
-554.427	-18.099	-0.148	0.093
-553.412	103.087	0.217	0.255
-552.398	747.651	0.025	-0.067
-551.383	-200.000	-0.054	-0.373
-550.369	-79.744	-0.294	0.099
-549.354	-200.000	0.010	0.113
-548.339	85.065	-0.178	0.195
-547.325	47.302	-0.103	0.096
-546.310	800.000	-0.027	0.088
-545.296	-109.410	0.083	-0.018
-544.281	68.680	-0.113	0.116
-543.266	524.574	0.059	-0.139
-542.252	800.000	0.104	-0.300
-541.237	112.082	-0.098	-0.118
-540.223	800.000	0.041	0.117
-539.208	-200.000	-0.031	-0.215
-538.193	-88.470	0.286	-0.086
-537.179	-116.419	0.236	-0.044
-536.164	-120.825	0.171	-0.029
-535.150	12.645	0.040	-0.031
-534.135	-200.000	0.027	-0.132
-533.121	-152.725	0.383	0.027
-532.106	800.000	-0.052	-0.179
-531.091	-75.833	0.188	0.067
-530.077	-64.054	-0.422	-0.172
-529.062	-54.546	0.025	0.012
-528.048	-200.000	0.041	-0.245
-527.033	-200.000	-0.080	0.421
-526.018	800.000	-0.111	-0.311
-525.004	-20.735	-0.308	0.189
-523.989	32.454	0.184	-0.159
-522.975	-102.489	-0.148	-0.036
-521.960	-101.737	-0.172	0.042
-520.945	344.401	-0.218	0.429
-519.931	-200.000	-0.039	-0.221
-518.916	800.000	-0.100	-0.280
-517.902	-200.000	-0.001	-0.187
-516.887	8.868	0.344	0.260
-515.872	-68.679	-0.261	0.101
-514.858	-200.000	0.011	-0.205
-513.843	-28.393	0.116	0.067
-512.829	97.841	0.132	0.152
-511.814	150.321	0.152	0.206
-510.799	-142.229	-0.124	-0.012
-509.785	493.312	0.064	-0.147
-508.770	227.337	-0.197	-0.321
-507.756	-18.580	0.195	0.122
-506.741	218.777	0.066	0.106
-505.726	80.021	-0.082	-0.088
-504.712	-155.546	0.052	-0.003
-503.697	186.454	0.013	0.019
-502.683	-93.797	0.109	0.030
-501.668	-134.775	0.076	0.009
-500.653	-30.702	0.298	0.169
-499.639	-80.036	0.052	-0.018
-498.624	800.000	0.052	-0.155
-497.610	-84.614	-0.108	-0.034
-496.595	-200.000	-0.003	-0.163
-495.581	-64.460	-0.096	0.039
-494.566	-200.000	-0.030	0.238
-493.551	23.184	-0.118	0.097
-492.537	-171.012	0.426	0.014
-491.522	64.266	-0.096	0.096
-490.508	-200.000	0.031	-0.185
-489.493	-200.000	-0.039	0.198
-488.478	48.878	0.164	0.154
-487.464	48.628	-0.309	-0.290
-486.449	419.954	-0.121	0.259
-485.435	75.982	-0.093	-0.098
-484.420	-145.518	0.302	0.027
-483.405	64.979	-0.186	-0.188
-482.391	203.935	-0.016	0.024
-481.376	-39.297	-0.501	0.263
-480.362	800.000	-0.071	0.291
-479.347	131.959	-0.119	0.153
-478.332	763.946	0.078	-0.212
-477.318	-200.000	-0.034	0.160
-476.303	-200.000	0.013	-0.095
-475.289	-69.115	0.075	-0.029
-474.274	800.000	-0.020	-0.068
-473.259	-20.179	-0.475	-0.292
-472.245	800.000	0.048	0.183
-471.230	800.000	0.109	0.304
-470.216	-115.654	-0.129	0.024
-469.201	5.895	-0.236	0.174
-468.186	291.254	-0.275	-0.500
-467.172	800.000	0.121	-0.437
-466.157	66.504	0.121	-0.123
-465.143	-18.205	0.158	-0.098
-464.128	-60.838	-0.179	-0.076
-463.113	55.318	0.040	-0.039
-462.099	800.000	0.026	0.106
-461.084	800.000	-0.140	0.394
-460.070	-96.735	-0.267	-0.070
-459.055	608.497	-0.075	-0.187
-458.040	2.347	-0.115	0.083
-457.026	-200.000	-0.009	0.290
-456.011	255.841	0.180	0.309
-454.997	717.224	0.078	0.206
-453.982	800.000	0.081	0.277
-452.968	-200.000	-0.006	0.131
-451.953	-12.689	0.120	0.078
-450.938	251.201	-0.122	0.208
-449.924	755.002	-0.098	-0.266
-448.909	76.429	-0.348	0.369
-447.895	-200.000	-0.010	0.277
-446.880	29.311	0.155	0.131
-445.865	151.247	-0.051	0.069
-444.851	-24.184	0.222	-0.132
-443.836	-199.572	0.274	-0.001
-442.822	-200.000	0.024	-0.255
-441.807	18.479	0.228	-0.182
-440.792	-161.317	0.183	0.009
-439.778	-19.020	0.139	0.086
-438.763	221.202	0.069	0.111
-437.749	154.253	-0.163	-0.223
-436.734	-33.545	-0.125	-0.069
-435.719	-106.446	-0.262	0.058
-434.705	420.423	0.095	-0.202
-433.690	-47.261	0.079	0.038
-432.676	184.673	-0.166	-0.245
-431.661	10.910	-0.113	0.086
-430.646	120.312	-0.199	-0.247
-429.632	-89.844	-0.120	0.035
-428.617	116.995	-0.216	-0.265
-427.603	652.616	0.060	0.155
-426.588	-140.302	0.368	-0.038
-425.573	357.917	-0.115	-0.228
-424.559	-200.000	-0.021	-0.135
-423.544	-22.811	0.133	-0.080
-422.530	-200.000	-0.035	-0.242
-421.515	692.285	-0.070	0.184
-420.500	4.334	-0.227	0.166
-419.486	-158.334	0.234	0.014
-418.471	-200.000	-0.021	-0.369
-417.457	62.509	0.164	-0.164
-416.442	59.294	0.238	-0.233
-415.428	-6.160	-0.409	-0.279
-414.413	130.477	0.089	-0.114
-413.398	0.928	-0.169	-0.121
-412.384	31.440	0.261	0.224
-411.369	28.037	-0.138	-0.116
-410.355	-2.077	0.068	-0.048
-409.340	77.473	0.281	0.298
-408.325	262.108	-0.080	0.138
-407.311	-200.000	-0.015	0.092
-406.296	252.456	0.204	0.346
-405.282	-98.414	0.131	0.033
-404.267	114.207	0.148	-0.179
-403.252	-200.000	-0.006	0.028
-402.238	83.612	-0.100	0.109
-401.223	-148.515	0.105	0.009
-400.209	-200.000	0.018	-0.299
-399.194	-97.064	-0.177	0.046
-398.179	435.543	0.110	0.239
-397.165	274.766	0.234	-0.413
-396.150	635.771	0.048	-0.121
-395.136	-77.093	-0.200	-0.070
-394.121	31.549	-0.126	-0.108
-393.106	-107.404	-0.184	-0.040
-392.092	-130.186	0.287	0.039
-391.077	-123.249	-0.285	0.045
-390.063	-15.511	-0.191	0.121
-389.048	-81.939	-0.241	0.078
-388.033	-119.563	-0.214	0.037
-387.019	-32.532	-0.096	-0.053
-386.004	-96.466	0.406	-0.107
-384.990	-85.256	0.112	-0.035
-383.975	-191.342	-0.136	-0.001
-382.960	-200.000	-0.023	0.570
-381.946	800.000	-0.087	0.339
-380.931	800.000	-0.086	0.272
-379.917	-152.164	0.069	0.005
-378.902	-200.000	0.040	-0.216
-377.888	-79.059	0.053	-0.018
-376.873	-200.000	0.020	0.160
-375.858	-200.000	0.010	0.232
-374.844	729.747	-0.133	-0.353
-373.829	-102.326	-0.190	-0.045
-372.815	-113.982	0.189	-0.036
-371.800	800.000	0.050	0.218
-370.785	-128.059	0.219	-0.031
-369.771	26.447	-0.021	-0.017
-368.756	-177.704	-0.237	-0.006
-367.742	13.185	-0.355	0.274
-366.727	358.816	-0.080	0.159
-365.712	9.861	0.147	-0.111
-364.698	163.805	-0.094	-0.132
-363.683	573.151	0.084	-0.204
-362.669	-129.732	-0.237	0.032
-361.654	-173.820	0.127	-0.004
-360.639	78.151	0.207	-0.220
-359.625	-39.006	0.076	-0.040
-358.610	-59.657	-0.114	-0.049
-357.596	-200.000	-0.059	-0.341
-356.581	90.609	0.240	-0.267
-355.566	749.693	-0.060	0.160
-354.552	402.680	-0.127	0.265
-353.537	-117.807	0.365	0.065
-352.523	-85.299	0.375	-0.116
-351.508	87.301	0.266	-0.293
-350.493	-50.838	-0.292	-0.137
-349.479	800.000	0.065	0.186
-348.464	653.674	-0.027	-0.068
-347.450	-52.838	0.265	-0.122
-346.435	800.000	-0.098	-0.368
-345.420	800.000	0.040	0.120
-344.406	800.000	0.056	0.161
-343.391	-64.754	0.117	-0.047
-342.377	-200.000	0.026	0.171
-341.362	132.461	-0.216	0.277
-340.348	64.367	0.072	0.072
-339.333	-6.512	-0.085	0.058
-338.318	212.877	-0.125	-0.197
-337.304	20.640	-0.131	0.105
-336.289	436.329	-0.076	0.164
-335.275	50.247	-0.110	-0.103
-334.260	-98.294	0.234	-0.060
-333.245	99.732	0.194	-0.223
-332.231	-95.152	-0.178	0.048
-331.216	-65.652	-0.164	0.065
-330.202	-15.640	-0.202	0.128
-329.187	-200.000	-0.002	0.147
-328.172	-57.125	0.311	-0.136
-327.158	352.030	-0.071	0.140
-326.143	328.214	-0.089	-0.169
-325.129	-200.000	0.021	0.176
-324.114	-200.000	-0.017	-0.153
-323.099	-61.198	0.175	-0.073
-322.085	-200.000	0.003	-0.177
-321.070	-200.000	-0.024	-0.122
-320.056	-112.526	-0.325	-0.064
-319.041	-108.700	0.126	-0.027
-318.026	-200.000	-0.042	0.448
-317.012	800.000	-0.014	0.054
-315.997	614.884	-0.038	-0.093
-314.983	-56.833	-0.072	0.031
-313.968	342.587	-0.014	-0.028
-312.953	800.000	0.013	-0.042
-311.939	-200.000	-0.023	-0.417
-310.924	413.942	0.142	-0.299
-309.910	-90.512	0.094	-0.027
-308.895	700.463	0.121	0.317
-307.880	62.371	0.274	0.272
-306.866	297.750	-0.227	-0.414
-305.851	-81.675	0.316	-0.103
-304.837	16.770	-0.330	0.259
-303.822	800.000	0.094	0.291
-302.807	-126.054	0.177	-0.026
-301.793	800.000	-0.018	-0.073
-300.778	-109.400	0.148	-0.031
-299.764	-39.621	0.300	-0.156
-298.749	-200.000	-0.001	0.173
-297.735	800.000	0.023	-0.064
-296.720	368.922	-0.004	-0.009
-295.705	233.585	0.039	0.063
-294.691	-200.000	0.046	-0.221
-293.676	-181.616	0.066	-0.001
-292.662	-200.000	-0.046	-0.292
-291.647	-98.590	-0.251	0.063
-290.632	416.874	0.105	0.222
-289.618	483.584	-0.025	0.057
-288.603	47.719	-0.103	0.096
-287.589	-57.759	0.351	-0.152
-286.574	-74.772	0.125	0.045
-285.559	-200.000	-0.012	-0.188
-284.545	369.293	-0.067	-0.135
-283.530	-200.000	-0.011	0.141
-282.516	57.110	0.156	0.151
-281.501	-10.249	-0.163	0.107
-280.486	-200.000	-0.067	-0.458
-279.472	-120.856	-0.189	-0.032
-278.457	611.036	0.006	0.016
-277.443	-108.948	0.184	-0.039
-276.428	-200.000	-0.013	-0.100
-275.413	-103.490	0.209	0.049
-274.399	-34.167	0.263	0.143
-273.384	87.285	-0.155	0.170
-272.370	-112.353	-0.266	-0.053
-271.355	19.646	0.115	0.092
-270.340	292.235	-0.172	0.311
-269.326	18.666	-0.124	0.099
-268.311	31.501	-0.032	0.027
-267.297	-200.000	-0.066	0.290
-266.282	115.549	-0.028	0.033
-265.267	-200.000	0.004	0.068
-264.253	-57.578	0.167	-0.072
-263.238	-200.000	0.029	-0.198
-262.224	-200.000	-0.010	0.045
-261.209	-56.411	-0.257	-0.113
-260.195	-78.466	0.278	0.094
-259.180	-23.467	-0.149	-0.089
-258.165	-59.732	0.134	0.057
-257.151	-95.323	0.180	0.048
-256.136	107.834	0.175	0.207
-255.122	-200.000	0.084	0.475
-254.107	-52.455	0.115	0.053
-253.092	267.071	0.116	0.200
-252.078	-83.950	-0.279	-0.088
-251.063	772.820	0.063	-0.169
-250.049	122.959	-0.145	-0.179
-249.034	-200.000	0.063	-0.277
-248.019	800.000	0.027	-0.081
-247.005	-120.204	-0.158	-0.027
-245.990	800.000	0.071	0.216
-244.976	-119.190	-0.322	-0.056
-243.961	333.907	0.146	0.281
-242.946	41.713	0.389	-0.349
-241.932	-76.860	-0.116	-0.040
-240.917	-25.877	0.256	0.149
-239.903	800.000	0.056	0.241
-238.888	-123.020	-0.204	-0.032
-237.873	800.000	-0.073	-0.273
-236.859	-200.000	0.002	-0.179
-235.844	800.000	-0.059	0.169
-234.830	800.000	0.061	-0.222
-233.815	-170.429	0.162	0.006
-232.800	-157.134	0.048	0.003
-231.786	-86.376	-0.173	-0.053
-230.771	-90.823	-0.101	-0.029
-229.757	96.693	-0.171	0.193
-228.742	-111.025	0.581	0.118
-227.727	-149.440	-0.369	-0.029
-226.713	268.463	0.137	0.238
-225.698	-200.000	-0.003	0.294
-224.684	106.271	-0.165	0.194
-223.669	-73.325	-0.233	-0.084
-222.655	-4.163	0.106	0.073
-221.640	800.000	0.116	0.319
-220.625	-20.545	0.116	0.070
-219.611	-150.163	0.368	-0.028
-218.596	-200.000	-0.014	0.167
-217.582	380.987	-0.026	-0.053
-216.567	428.735	-0.137	0.293
-215.552	115.690	-0.039	0.047
-214.538	800.000	-0.092	0.331
-213.523	226.021	0.075	0.121
-212.509	744.346	-0.054	-0.143
-211.494	798.874	-0.057	0.156
-210.479	-139.318	0.156	-0.017
-209.465	-30.397	0.134	0.075
-208.450	158.683	0.110	-0.152
-207.436	629.572	0.074	-0.184
-206.421	151.579	0.223	-0.301
-205.406	-22.899	-0.100	-0.060
-204.392	-200.000	-0.171	-0.001
-203.377	163.797	0.159	0.221
-202.363	-114.624	-0.332	-0.063
-201.348	29.527	0.191	0.160
-200.333	-85.941	0.190	-0.058
-199.319	155.391	0.088	0.120
-198.304	-200.000	0.022	-0.363
-197.290	-136.600	0.212	-0.024
-196.275	800.000	-0.091	0.308
-195.260	-18.554	-0.074	-0.046
-194.246	800.000	0.087	0.358
-193.231	800.000	0.055	0.236
-192.217	24.126	0.253	-0.207
-191.202	-41.068	0.036	0.018
-190.187	800.000	-0.057	-0.164
-189.173	-35.895	0.107	-0.057
-188.158	-101.474	0.320	-0.077
-187.144	61.051	-0.060	0.059
-186.129	117.249	0.122	-0.148
-185.114	800.000	0.032	0.095
-184.100	68.142	0.046	-0.047
-183.085	-98.177	0.224	0.057
-182.071	112.374	0.155	-0.185
-181.056	-45.927	-0.182	0.089
-180.042	214.476	0.168	0.262
-179.027	-80.381	0.299	0.099
-178.012	108.794	-0.115	-0.136
-176.998	-200.000	-0.038	0.295
-175.983	457.833	0.166	0.364
-174.969	597.576	-0.038	0.093
-173.954	800.000	0.013	-0.046
-172.939	141.866	-0.211	0.276
-171.925	-100.566	0.087	-0.021
-170.910	233.805	0.111	0.180
-169.896	800.000	-0.015	0.045
-168.881	242.358	-0.060	-0.099
-167.866	721.948	0.113	-0.296
-166.852	-37.033	0.214	0.113
-165.837	-38.251	-0.306	0.160
-164.823	322.994	-0.146	-0.275
-163.808	-1.166	0.273	-0.190
-162.793	800.000	0.103	-0.301
-161.779	442.397	-0.124	-0.267
-160.764	43.318	-0.141	0.127
-159.750	597.558	0.155	0.380
-158.735	102.142	-0.156	-0.179
-157.720	71.102	0.087	-0.089
-156.706	127.518	-0.199	-0.250
-155.691	176.349	0.224	0.321
-154.677	-111.949	0.036	-0.007
-153.662	762.575	0.039	-0.105
-152.647	-50.920	-0.138	0.064
-151.633	-200.000	0.011	0.127
-150.618	6.606	-0.262	0.192
-149.604	343.465	-0.063	0.122
-148.589	15.529	-0.359	-0.278
-147.574	316.102	-0.078	-0.145
-146.560	-93.252	0.219	-0.060
-145.545	560.668	-0.078	0.185
-144.531	-131.849	0.142	0.018
-143.516	-57.364	-0.116	0.050
-142.502	1.639	-0.110	0.078
-141.487	-55.227	0.359	-0.159
-140.472	-59.585	-0.044	0.019
-139.458	800.000	0.037	0.157
-138.443	-200.000	-0.003	-0.247
-137.429	-57.208	-0.169	0.073
-136.414	-59.346	-0.163	-0.069
-135.399	-200.000	-0.039	0.294
-134.385	800.000	-0.030	-0.130
-133.370	366.572	0.124	0.247
-132.356	800.000	-0.046	0.148
-131.341	82.152	0.129	0.137
-130.326	95.365	0.196	0.220
-129.312	-63.651	-0.287	0.116
-128.297	800.000	0.035	-0.113
-127.283	179.617	-0.037	0.053
-126.268	170.061	0.193	-0.272
-125.253	-118.576	0.278	-0.048
-124.239	146.177	0.249	-0.329
-123.224	-200.000	-0.058	-0.338
-122.210	225.499	-0.058	0.092
-121.195	535.873	0.153	0.357
-120.180	-162.087	-0.215	0.011
-119.166	-200.000	-0.041	-0.270
-118.151	-52.386	-0.340	0.155
-117.137	103.615	-0.216	0.250
-116.122	-171.527	0.083	-0.003
-115.107	-11.237	0.331	-0.215
-114.093	84.385	0.048	-0.051
-113.078	-139.922	-0.303	0.032
-112.064	-200.000	-0.019	-0.361
-111.049	800.000	-0.088	0.265
-110.034	-129.751	0.260	0.035
-109.020	-200.000	-0.074	0.348
-108.005	-158.225	-0.168	-0.010
-106.991	121.473	0.258	-0.317
-105.976	-25.034	0.280	-0.164
-104.962	-51.081	0.230	-0.106
-103.947	216.200	-0.130	0.203
-102.932	127.652	0.120	0.151
-101.918	-200.000	0.011	0.090
-100.903	-200.000	-0.064	0.419
-99.889	-52.414	0.150	-0.068
-98.874	-200.000	-0.041	0.266
-97.859	-200.000	0.024	0.338
-96.845	151.597	-0.215	-0.288
-95.830	-130.667	0.307	-0.041
-94.816	56.272	0.260	0.249
-93.801	-200.000	0.031	-0.315
-92.786	62.448	-0.171	-0.168
-91.772	32.666	0.172	-0.146
-90.757	800.000	0.088	-0.280
-89.743	800.000	0.045	-0.155
-88.728	-200.000	-0.044	0.273
-87.713	-200.000	0.012	-0.085
-86.699	-187.623	0.268	0.003
-85.684	-131.886	-0.101	0.013
-84.670	800.000	0.010	0.028
-83.655	273.234	-0.031	0.055
-82.640	-65.567	-0.239	-0.094
-81.626	-200.000	0.034	0.284
-80.611	-122.304	-0.058	-0.009
-79.597	-122.626	0.291	0.046
-78.582	800.000	0.102	0.402
-77.567	-2.025	-0.206	0.142
-76.553	800.000	0.082	0.253
-75.538	-64.197	0.117	0.047
-74.524	-162.249	-0.234	0.012
-73.509	-158.185	0.068	-0.004
-72.494	352.747	-0.115	-0.224
-71.480	-123.646	0.200	-0.031
-70.465	158.104	-0.226	0.308
-69.451	-77.094	0.180	0.062
-68.436	-55.925	0.138	0.061
-67.422	15.323	-0.098	0.076
-66.407	178.313	-0.086	-0.124
-65.392	-200.000	0.013	-0.138
-64.378	30.540	-0.087	-0.073
-63.363	-86.524	-0.133	0.040
-62.349	304.006	0.037	0.067
-61.334	48.566	-1.159	-1.068
-60.319	194.792	0.221	0.330
-59.305	800.000	-0.260	-1.069
-58.290	478.213	0.451	1.003
-57.276	800.000	0.532	1.623
-56.261	-200.000	100.427	606.343
-55.246	591.746	1407.121	3414.068
-54.232	193.071	2587.978	3844.273
-53.217	118.964	2140.681	2600.331
-52.203	43.303	1594.224	1430.885
-51.188	34.778	1329.468	1142.516
-50.173	31.586	1287.954	1088.272
-49.159	54.834	1337.458	1268.309
-48.144	56.706	1354.061	1295.077
-47.130	34.822	1311.701	1127.329
-46.115	31.369	1293.746	1091.724
-45.100	31.224	1288.968	1086.805
-44.086	31.129	1286.498	1084.125
-43.071	31.060	1284.560	1082.048
-42.057	31.023	1282.420	1079.989
-41.042	31.123	1280.433	1078.855
-40.027	31.221	1278.619	1077.848
-39.013	31.153	1277.419	1076.402
-37.998	31.234	1275.487	1075.194
-36.984	31.140	1273.806	1073.196
-35.969	31.232	1271.997	1072.157
-34.954	31.291	1270.186	1070.927
-33.940	31.155	1269.032	1069.135
-32.925	31.196	1268.116	1068.550
-31.911	31.377	1266.039	1067.793
-30.896	31.255	1265.096	1066.259
-29.881	31.209	1264.141	1065.149
-28.867	31.327	1262.002	1063.977
-27.852	31.344	1260.603	1062.851
-26.838	31.372	1259.316	1061.886
-25.823	31.340	1257.877	1060.447
-24.809	31.202	1256.759	1058.679
-23.794	31.293	1255.500	1058.094
-22.779	31.154	1254.476	1056.399
-21.765	31.286	1252.395	1055.352
-20.750	31.254	1251.564	1054.432
-19.736	31.298	1249.854	1053.196
-18.721	31.182	1248.986	1051.771
-17.706	31.277	1247.648	1051.137
-16.692	31.131	1246.861	1049.611
-15.677	31.150	1245.341	1048.394
-14.663	31.101	1244.722	1047.556
-13.648	31.058	1243.285	1046.066
-12.633	31.106	1242.888	1045.958
-11.619	31.066	1241.969	1044.919
-10.604	31.059	1241.112	1044.117
-9.590	31.008	1240.040	1042.892
-8.575	31.082	1239.548	1042.849
-7.560	30.971	1238.783	1041.543
-6.546	31.171	1237.158	1041.249
-5.531	31.121	1236.318	1040.225
-4.517	31.079	1235.917	1039.610
-3.502	31.120	1234.593	1038.686
-2.487	31.016	1233.785	1037.387
-1.473	31.129	1229.694	1034.531
-0.458	29.522	1215.137	1013.432
0.556	24.777	1197.886	975.980
1.571	21.239	1202.464	960.213
2.586	20.121	1217.635	966.010
3.600	19.705	1206.552	954.836
4.615	15.165	1136.386	875.555
5.629	7.758	1064.511	783.716
6.644	4.780	1045.267	755.053
7.659	4.494	1043.070	752.013
8.673	4.518	1041.681	751.063
9.688	4.519	1040.728	750.316
10.702	4.636	1038.329	749.081
11.717	8.681	1044.370	772.940
12.731	15.517	1053.826	813.071
13.746	18.492	1056.830	829.740
14.761	17.882	1055.844	825.945
15.775	16.770	1053.301	818.511
16.790	15.929	1050.733	812.385
17.804	15.055	1050.039	807.563
18.819	14.615	1049.250	804.763
19.834	14.543	1047.684	803.146
20.848	14.184	1047.350	801.089
21.863	14.152	1046.082	799.896
22.877	13.840	1045.476	797.861
23.892	13.926	1044.612	797.544
24.907	13.899	1044.219	797.046
25.921	14.052	1042.500	796.394
26.936	14.057	1041.454	795.550
27.950	14.049	1040.141	794.436
28.965	14.204	1038.372	793.756
29.980	14.170	1037.520	792.874
30.994	14.372	1035.972	792.579
32.009	14.188	1035.259	791.090
33.023	14.136	1034.134	789.914
34.038	14.023	1033.165	788.565
35.053	14.011	1032.518	787.945
36.067	13.976	1031.568	786.985
37.082	14.104	1030.591	786.779
38.096	14.111	1030.348	786.556
39.111	14.199	1029.206	786.031
40.126	14.166	1027.472	784.481
41.140	13.853	1026.641	782.302
42.155	13.828	1025.876	781.533
43.169	13.794	1024.605	780.334
44.184	13.790	1023.408	779.333
45.199	13.864	1022.132	778.641
46.213	14.028	1021.454	778.825
47.228	14.039	1020.452	778.042
48.242	14.097	1019.521	777.534
49.257	13.942	1018.853	776.235
50.271	14.050	1017.718	775.802
51.286	14.111	1016.790	775.314
52.301	13.963	1015.894	773.870
53.315	13.896	1014.783	772.643
54.330	13.902	1013.932	771.957
55.344	13.978	1012.657	771.270
56.359	13.866	1012.192	770.329
57.374	13.872	1010.953	769.344
58.388	13.777	1010.591	768.559
59.403	13.661	1009.895	767.427
60.417	13.732	1009.291	767.228
61.432	13.651	1008.413	766.117
62.447	13.799	1007.140	765.766
63.461	13.787	1006.426	765.100
64.476	13.764	1005.502	764.223
65.490	13.678	1005.174	763.511
66.505	13.795	1003.842	762.970
67.520	13.672	1003.799	762.305
68.534	13.706	1002.715	761.569
69.549	13.717	1002.201	761.164
70.563	13.616	1001.284	759.936
71.578	13.717	1000.030	759.378
72.593	13.574	999.917	758.574
73.607	13.683	999.272	758.515
74.622	13.642	998.759	757.868
75.636	13.637	998.021	757.220
76.651	13.704	996.966	756.657
77.666	13.687	996.142	755.888
78.680	13.650	995.931	755.494
79.695	13.727	995.644	755.557
80.709	13.793	994.838	755.181
81.724	13.781	994.252	754.613
82.739	13.991	993.233	754.729
83.753	14.203	992.383	754.978
84.768	14.197	991.719	754.377
85.782	14.282	990.872	754.055
86.797	14.088	990.266	752.646
87.812	13.986	989.025	751.177
88.826	13.999	988.392	750.686
89.841	14.038	987.155	749.855
90.855	14.033	986.608	749.353
91.870	14.114	985.631	748.909
92.884	14.225	984.967	748.838
93.899	14.146	984.222	747.849
94.914	14.226	983.490	747.588
95.928	14.295	982.583	747.140
96.943	14.182	981.956	746.090
97.957	14.200	980.693	745.148
98.972	14.135	980.159	744.384
99.987	14.218	979.116	743.898
101.001	14.109	978.348	742.761
102.016	14.238	977.480	742.614
103.030	14.181	977.074	741.985
104.045	14.109	976.187	740.926
105.060	14.135	975.620	740.545
106.074	13.947	974.302	738.641
107.089	13.908	973.097	737.490
108.103	13.854	972.153	736.469
109.118	13.884	971.418	735.980
110.133	13.932	970.193	735.200
111.147	13.858	969.560	734.330
112.162	13.805	969.204	733.759
113.176	14.097	967.845	733.954
114.191	13.946	967.537	732.990
115.206	14.013	966.675	732.568
116.220	13.923	965.586	731.280
117.235	13.984	964.833	730.914
118.249	13.962	964.036	730.150
119.264	13.857	963.760	729.412
120.279	13.766	962.913	728.310
121.293	13.892	961.902	728.033
122.308	13.890	961.007	727.283
123.322	13.852	959.687	726.052
124.337	13.779	959.556	725.570
125.352	13.868	958.050	724.753
126.366	13.861	957.004	723.868
127.381	13.787	956.241	722.905
128.395	13.826	955.466	722.423
129.410	13.819	954.491	721.593
130.424	13.851	953.458	720.886
131.439	13.984	952.847	720.939
132.454	14.035	951.979	720.440
133.468	13.960	951.702	719.843
134.483	14.143	950.390	719.580
135.497	14.256	949.488	719.317
136.512	14.145	948.581	718.092
137.527	13.984	948.354	717.157
138.541	14.151	947.339	717.050
139.556	14.230	946.451	716.651
140.570	14.232	946.032	716.280
141.585	14.178	945.220	715.370
142.600	14.417	944.107	715.493
143.614	14.446	943.322	714.956
144.629	14.432	942.623	714.305
145.643	14.207	941.996	712.800
146.658	14.088	940.908	711.406
147.673	14.123	939.984	710.794
148.687	14.099	939.087	709.952
149.702	14.042	938.071	708.875
150.716	14.003	937.566	708.265
151.731	14.141	936.443	707.943
152.746	14.169	935.772	707.492
153.760	14.111	935.527	706.996
154.775	14.270	934.988	707.203
155.789	14.386	934.367	707.166
156.804	14.186	933.811	705.832
157.819	14.370	932.895	705.855
158.833	14.263	932.596	705.114
159.848	14.300	931.646	704.489
160.862	14.251	930.634	703.457
161.877	14.176	929.732	702.394
162.892	14.185	928.550	701.478
163.906	14.217	927.494	700.754
164.921	14.186	927.012	700.196
165.935	14.297	925.907	699.767
166.950	14.199	925.545	699.021
167.964	14.197	924.647	698.270
168.979	14.260	923.847	697.870
169.994	14.210	922.645	696.690
171.008	14.261	922.738	696.913
172.023	14.392	921.479	696.446
173.037	14.503	920.969	696.462
174.052	14.376	920.168	695.267
175.067	14.376	919.269	694.525
176.081	14.221	918.957	693.581
177.096	14.333	918.402	693.568
178.110	14.220	917.714	692.517
179.125	14.298	917.344	692.502
180.140	14.409	916.271	692.091
181.154	14.400	916.181	691.925
182.169	14.475	915.958	692.005
183.183	14.532	915.574	691.889
184.198	14.662	914.197	691.326
185.213	14.667	913.717	690.925
186.227	14.521	913.111	689.800
187.242	14.643	912.378	689.690
188.256	14.603	912.188	689.321
189.271	14.725	910.966	688.840
190.286	14.444	910.413	687.202
191.300	14.229	909.783	685.778
192.315	14.337	908.400	685.120
193.329	14.263	908.405	684.759
194.344	14.357	907.587	684.469
195.359	14.626	906.879	684.979
196.373	14.560	906.874	684.645
197.388	14.789	905.987	684.853
198.402	14.655	905.669	684.001
199.417	14.852	904.966	684.216
200.432	14.856	904.818	684.062
201.446	14.934	904.108	683.783
202.461	14.958	903.541	683.392
203.475	14.877	903.143	682.700
204.490	14.744	901.911	681.164
205.504	14.595	901.478	680.169
206.519	14.638	900.905	679.853
207.534	14.859	900.143	680.116
208.548	14.818	899.104	679.105
209.563	14.773	898.952	678.746
210.577	14.816	898.039	678.172
211.592	14.927	897.143	677.884
212.607	14.912	896.817	677.519
213.621	14.913	895.930	676.791
214.636	14.816	895.134	675.740
215.650	14.875	894.404	675.365
216.665	15.036	893.872	675.556
217.680	15.043	893.141	674.970
218.694	15.106	892.548	674.717
219.709	15.038	892.182	674.106
220.723	15.089	891.418	673.676
221.738	15.111	890.440	672.964
222.753	15.161	889.899	672.697
223.767	15.063	889.599	672.018
224.782	15.089	889.548	672.023
225.796	15.205	888.690	671.780
226.811	15.200	887.975	671.163
227.826	15.000	886.982	669.552
228.840	15.088	886.530	669.502
229.855	15.096	885.356	668.589
230.869	15.014	885.066	667.984
231.884	15.167	884.028	667.749
232.899	15.005	883.596	666.719
233.913	14.999	882.658	665.931
234.928	15.039	882.073	665.588
235.942	15.042	881.773	665.313
236.957	15.065	880.979	664.748
237.972	15.018	880.526	664.162
238.986	15.080	879.852	663.841
240.001	15.082	878.939	663.102
241.015	15.029	878.580	662.561
242.030	15.151	878.106	662.629
243.045	15.294	877.214	662.459
244.059	15.252	876.823	661.942
245.074	15.324	876.110	661.629
246.088	15.255	875.698	660.986
247.103	15.307	875.235	660.784
248.117	15.371	874.846	660.684
249.132	15.488	874.030	660.469
250.147	15.615	873.480	660.495
251.161	15.609	872.831	659.923
252.176	15.669	872.019	659.486
253.190	15.626	871.720	659.032
254.205	15.734	870.949	658.813
255.220	15.689	870.184	657.999
256.234	15.787	869.526	657.828
257.249	15.717	869.122	657.192
258.263	15.654	868.305	656.268
259.278	15.827	867.324	656.144
260.293	15.761	866.935	655.534
261.307	15.873	866.632	655.684
262.322	15.665	866.036	654.366
263.336	15.966	865.147	654.803
264.351	15.943	864.228	653.961
265.366	15.955	863.837	653.655
266.380	15.894	863.511	653.112
267.395	15.803	862.366	651.837
268.409	15.905	861.616	651.607
269.424	15.811	861.138	650.823
270.439	15.817	860.715	650.471
271.453	15.640	859.956	649.155
272.468	15.858	859.250	649.409
273.482	15.915	858.877	649.285
274.497	15.830	858.130	648.338
275.512	15.802	857.703	647.850
276.526	15.918	857.120	647.799
277.541	15.892	856.466	647.145
278.555	15.875	856.422	646.993
279.570	16.130	855.604	647.295
280.585	16.066	854.661	646.278
281.599	15.977	853.991	645.374
282.614	15.953	853.023	644.494
283.628	16.138	852.476	644.729
284.643	16.145	852.031	644.365
285.657	15.989	851.630	643.408
286.672	15.932	851.168	642.785
287.687	15.946	850.462	642.246
288.701	15.903	850.296	641.903
289.716	16.124	848.933	641.656
290.730	16.182	848.556	641.536
291.745	16.053	848.380	640.854
292.760	16.068	847.584	640.255
293.774	16.290	847.132	640.698
294.789	16.237	846.445	639.921
295.803	16.163	845.647	638.982
296.818	16.155	844.822	638.269
297.833	16.132	844.200	637.658
298.847	16.224	843.245	637.226
299.862	16.169	843.371	637.059
300.876	16.385	842.495	637.155
301.891	16.282	842.289	636.553
302.906	16.328	841.644	636.185
303.920	16.326	840.933	635.583
304.935	16.473	840.460	635.721
305.949	16.455	840.004	635.254
306.964	16.487	839.182	634.696
307.979	16.488	838.588	634.195
308.993	16.509	837.993	633.767
310.008	16.510	837.768	633.545
311.022	16.506	836.971	632.871
312.037	16.466	836.473	632.290
313.052	16.363	835.904	631.418
314.066	16.359	835.088	630.729
315.081	16.380	834.523	630.327
316.095	16.274	834.185	629.619
317.110	16.337	833.674	629.411
318.125	16.325	833.366	629.081
319.139	16.334	832.948	628.741
320.154	16.381	832.462	628.493
321.168	16.452	831.791	628.196
322.183	16.519	831.305	628.022
323.197	16.447	830.872	627.372
324.212	16.587	830.072	627.231
325.227	16.531	829.606	626.615
326.241	16.512	829.150	626.148
327.256	16.450	828.611	625.455
328.270	16.505	827.844	625.025
329.285	16.535	827.352	624.708
330.300	16.591	826.709	624.375
331.314	16.571	826.295	623.934
332.329	16.753	825.946	624.284
333.343	16.712	825.715	623.904
334.358	16.535	825.529	623.057
335.373	16.686	824.825	623.024
336.387	16.776	824.453	623.021
337.402	16.744	824.382	622.792
338.416	16.892	823.789	622.832
339.431	16.840	823.515	622.378
340.446	16.893	823.089	622.197
341.460	16.965	822.395	621.883
342.475	17.067	822.100	621.977
343.489	16.937	821.911	621.304
344.504	16.917	821.793	621.088
345.519	17.065	820.863	620.870
346.533	17.013	820.612	620.433
347.548	16.961	819.831	619.600
348.562	16.925	819.035	618.813
349.577	16.860	818.546	618.151
350.592	16.952	817.762	617.839
351.606	16.934	817.445	617.479
352.621	16.986	816.479	616.883
353.635	16.832	816.181	616.044
354.650	17.015	815.392	616.061
355.665	17.012	814.978	615.683
356.679	16.963	814.237	614.889
357.694	17.040	813.562	614.604
358.708	17.049	813.075	614.215
359.723	17.017	812.576	613.668
360.738	17.038	811.849	613.140
361.752	17.035	811.261	612.629
362.767	17.145	810.669	612.525
363.781	17.349	810.026	612.720
364.796	17.324	809.740	612.361
365.810	17.323	809.590	612.190
366.825	17.437	809.022	612.117
367.840	17.299	808.615	611.257
368.854	17.194	808.249	610.548
369.869	17.406	807.870	610.969
370.883	17.300	807.507	610.261
371.898	17.351	807.185	610.148
372.913	17.447	806.888	610.212
373.927	17.400	806.087	609.385
374.942	17.440	805.553	609.072
375.956	17.424	805.215	608.703
376.971	17.422	804.837	608.358
377.986	17.554	804.320	608.383
379.000	17.646	803.777	608.247
380.015	17.681	803.088	607.798
381.029	17.593	802.893	607.281
382.044	17.680	802.107	606.944
383.059	17.773	801.527	606.782
384.073	17.557	800.927	605.507
385.088	17.492	800.510	604.908
386.102	17.529	799.659	604.341
387.117	17.546	799.262	604.049
388.132	17.547	799.008	603.805
389.146	17.537	798.245	603.141
390.161	17.720	797.913	603.485
391.175	17.755	797.518	603.255
392.190	17.700	796.722	602.407
393.205	17.465	796.343	601.236
394.219	17.592	796.094	601.442
395.234	17.626	795.487	601.052
396.248	17.582	795.252	600.663
397.263	17.485	794.860	599.975
398.278	17.485	794.295	599.494
399.292	17.452	794.038	599.130
400.307	17.545	793.729	599.173
401.321	17.530	793.063	598.564
402.336	17.581	792.072	597.942
403.350	17.642	792.161	598.169
404.365	17.666	792.066	598.129
405.380	17.832	791.204	598.008
406.394	17.928	790.896	598.060
407.409	17.826	790.774	597.556
408.423	17.974	790.179	597.572
409.438	17.931	789.828	597.102
410.453	18.122	789.064	597.139
411.467	18.004	789.203	596.781
412.482	18.161	788.402	596.667
413.496	18.133	788.629	596.692
414.511	18.178	787.835	596.195
415.526	18.071	787.237	595.314
416.540	18.118	786.985	595.238
417.555	18.097	786.559	594.789
418.569	18.212	785.770	594.540
419.584	18.124	785.499	593.975
420.599	18.112	785.000	593.503
421.613	157.188	1370.636	1797.039
422.628	135.828	1455.940	1797.156
