DTS Sentinel unit serial number:	SN413079Multiplexer serial number:	ORYXHardware model number:	OX4-SRSoftware version number:	ORYX F/W v4.00 Oryx Data Collector v3.7.2.0data status	okinstallation	princeton_trtdifferential loss correction	single-endedforward channel	channel 1reverse channel	N/Adate	2019/09/15time	11:54:35forward acquisition time	60.00reverse acquisition time	0.00gamma	496.2192k internal	0.2308k external	0.2308temperature offset calibration	0.9989default loss term (dB/km)	0.3790temperature slope calibration	1.0000multiplexer offset coefficient	1.0000multiplexer slope coefficient	1.0000fibre end	0.00T internal ref (°C)	34.39T ext. ref 1 (°C)	5.06T ext. ref 2 (°C)	30.04length (m)	temperature (°C)	Stokes	anti-Stokes-747.200	-167.953	-0.436	0.017
-746.185	187.406	0.215	0.326
-745.171	-96.394	0.123	0.033
-744.156	-200.000	-0.004	0.247
-743.142	19.875	-0.165	-0.135
-742.127	98.348	-0.017	-0.019
-741.112	800.000	0.027	-0.091
-740.098	-75.078	0.295	0.107
-739.083	800.000	0.077	0.240
-738.069	-200.000	0.026	0.277
-737.054	325.674	-0.154	-0.300
-736.039	-12.786	-0.248	-0.165
-735.025	-200.000	0.017	0.195
-734.010	800.000	-0.118	-0.415
-732.996	-83.498	-0.331	-0.108
-731.981	-200.000	-0.002	-0.103
-730.966	-73.571	0.310	-0.115
-729.952	-35.007	-0.129	-0.072
-728.937	-146.732	-0.251	-0.022
-727.923	-20.253	-0.483	-0.302
-726.908	327.463	-0.203	0.395
-725.894	59.910	-0.140	-0.141
-724.879	590.909	-0.097	-0.243
-723.864	-1.786	-0.027	-0.019
-722.850	-200.000	-0.023	0.374
-721.835	-28.187	0.052	0.030
-720.821	-82.078	-0.211	-0.070
-719.806	800.000	0.047	0.173
-718.791	106.575	0.121	-0.146
-717.777	-56.479	0.311	0.140
-716.762	800.000	0.033	-0.132
-715.748	758.886	-0.182	-0.501
-714.733	435.953	0.139	-0.308
-713.718	49.751	0.156	0.149
-712.704	249.853	-0.183	0.315
-711.689	-110.707	0.164	0.034
-710.675	287.326	-0.095	0.174
-709.660	179.086	-0.081	-0.120
-708.645	272.381	-0.129	-0.231
-707.631	-200.000	0.020	-0.113
-706.616	36.156	-0.167	-0.150
-705.602	-200.000	0.058	-0.319
-704.587	33.423	0.115	0.101
-703.572	-172.647	0.079	-0.003
-702.558	39.491	0.199	0.181
-701.543	-200.000	-0.033	0.167
-700.529	327.049	-0.099	0.192
-699.514	113.128	-0.074	0.091
-698.499	54.005	-0.295	-0.288
-697.485	82.175	-0.086	-0.095
-696.470	699.200	-0.094	-0.251
-695.456	-200.000	-0.022	-0.111
-694.441	800.000	0.040	-0.159
-693.426	288.347	0.110	-0.201
-692.412	-143.442	-0.041	-0.004
-691.397	314.792	-0.097	0.185
-690.383	800.000	-0.048	-0.202
-689.368	-50.692	0.126	-0.060
-688.354	-159.732	-0.234	0.013
-687.339	-98.199	0.159	0.042
-686.324	258.587	0.144	0.251
-685.310	800.000	-0.012	-0.035
-684.295	800.000	-0.065	0.188
-683.281	-190.552	0.081	0.001
-682.266	-43.416	-0.214	0.110
-681.251	-200.000	-0.019	0.280
-680.237	478.425	0.102	0.234
-679.222	207.756	0.034	-0.053
-678.208	113.393	-0.186	0.229
-677.193	170.081	-0.046	0.066
-676.178	74.669	-0.246	-0.262
-675.164	800.000	0.041	-0.169
-674.149	64.674	-0.155	-0.159
-673.135	-36.834	-0.263	0.143
-672.120	32.667	0.204	0.179
-671.105	94.271	-0.126	0.145
-670.091	-173.852	0.182	-0.005
-669.076	-23.164	-0.133	-0.081
-668.062	-194.088	-0.340	0.003
-667.047	-22.673	0.404	0.247
-666.032	800.000	-0.031	-0.127
-665.018	-41.959	-0.225	0.117
-664.003	569.692	-0.075	-0.184
-662.989	773.260	-0.110	-0.305
-661.974	239.974	-0.109	-0.184
-660.959	72.975	0.179	-0.190
-659.945	673.135	0.145	-0.382
-658.930	-41.106	0.147	-0.077
-657.916	102.064	-0.126	0.149
-656.901	-28.981	-0.035	0.021
-655.886	18.090	-0.089	0.072
-654.872	-59.468	0.221	-0.096
-653.857	171.089	0.069	0.100
-652.843	5.675	-0.469	-0.351
-651.828	265.074	-0.086	0.152
-650.814	5.250	0.114	-0.085
-649.799	-200.000	-0.069	-0.365
-648.784	452.113	-0.120	-0.269
-647.770	395.729	0.121	0.256
-646.755	18.944	0.160	-0.130
-645.741	146.517	-0.177	0.241
-644.726	-200.000	-0.041	0.265
-643.711	-99.384	-0.401	0.102
-642.697	210.900	-0.223	0.356
-641.682	-32.036	-0.149	-0.084
-640.668	-61.209	0.350	-0.149
-639.653	-77.620	-0.020	0.007
-638.638	-200.000	-0.014	0.166
-637.624	-154.323	-0.335	-0.023
-636.609	-64.341	-0.196	-0.081
-635.595	322.006	-0.096	0.185
-634.580	77.306	-0.130	-0.140
-633.565	-154.415	0.218	-0.015
-632.551	-200.000	0.001	-0.142
-631.536	218.124	-0.120	-0.193
-630.522	281.135	-0.112	0.202
-629.507	143.703	0.030	0.041
-628.492	-122.658	-0.108	-0.018
-627.478	-126.375	-0.232	0.035
-626.463	-157.568	-0.203	-0.012
-625.449	-200.000	0.022	-0.111
-624.434	770.186	0.150	-0.414
-623.419	-18.263	-0.137	0.087
-622.405	-114.292	-0.226	-0.044
-621.390	-135.075	0.314	-0.038
-620.376	68.005	0.008	0.008
-619.361	-200.000	0.021	-0.344
-618.346	800.000	-0.080	0.235
-617.332	293.816	0.138	0.256
-616.317	-143.797	0.206	-0.020
-615.303	454.974	0.034	-0.076
-614.288	-126.084	0.553	-0.084
-613.273	-183.776	-0.284	-0.005
-612.259	-132.813	-0.183	-0.024
-611.244	-96.595	0.583	0.155
-610.230	-178.176	0.205	0.005
-609.215	31.163	0.102	0.088
-608.201	-107.438	-0.225	-0.050
-607.186	-200.000	-0.005	0.126
-606.171	173.189	0.161	-0.235
-605.157	463.913	-0.047	0.105
-604.142	-5.964	-0.216	0.150
-603.128	-115.800	-0.242	0.046
-602.113	-53.141	0.092	-0.043
-601.098	-33.615	0.255	-0.143
-600.084	-7.164	0.197	-0.135
-599.069	800.000	0.101	-0.353
-598.055	-200.000	-0.034	-0.264
-597.040	110.608	-0.090	-0.109
-596.025	-40.626	0.165	0.086
-595.011	-7.808	0.150	-0.103
-593.996	-84.251	0.309	0.099
-592.982	138.714	0.203	-0.269
-591.967	-73.528	-0.270	0.100
-590.952	285.443	-0.208	-0.379
-589.938	-179.476	-0.361	0.008
-588.923	-44.857	-0.120	0.060
-587.909	-25.391	-0.034	0.020
-586.894	-163.850	-0.167	0.008
-585.879	-197.217	-0.139	-0.001
-584.865	-60.733	-0.216	-0.093
-583.850	444.212	-0.078	-0.174
-582.836	-45.106	-0.494	0.248
-581.821	286.727	-0.015	-0.027
-580.806	201.105	0.223	-0.347
-579.792	-38.970	-0.315	-0.168
-578.777	-3.302	-0.131	0.092
-577.763	123.372	-0.080	-0.101
-576.748	800.000	0.084	-0.298
-575.733	800.000	-0.068	0.202
-574.719	-72.150	-0.140	0.052
-573.704	800.000	-0.056	-0.187
-572.690	-69.680	0.094	-0.036
-571.675	19.833	0.127	0.103
-570.661	166.863	-0.166	-0.238
-569.646	-69.254	0.132	-0.051
-568.631	-51.392	0.162	-0.077
-567.617	-200.000	0.017	0.090
-566.602	186.746	0.214	0.321
-565.588	-200.000	-0.059	0.463
-564.573	-200.000	-0.004	-0.161
-563.558	-30.800	-0.079	-0.045
-562.544	24.495	0.215	-0.179
-561.529	800.000	0.031	0.087
-560.515	800.000	-0.032	-0.095
-559.500	359.424	-0.091	0.183
-558.485	667.665	-0.090	0.235
-557.471	-154.154	-0.141	-0.010
-556.456	-125.582	-0.260	0.040
-555.442	9.352	0.154	-0.118
-554.427	800.000	-0.034	0.121
-553.412	211.127	0.028	0.044
-552.398	-19.723	-0.320	-0.200
-551.383	800.000	-0.044	0.147
-550.369	113.843	-0.204	-0.250
-549.354	-78.552	-0.034	-0.012
-548.339	-195.306	-0.214	-0.002
-547.325	-200.000	-0.000	-0.198
-546.310	486.800	0.039	0.090
-545.296	399.328	0.052	-0.110
-544.281	-51.979	0.375	0.176
-543.266	84.358	0.093	0.103
-542.252	-200.000	0.014	0.138
-541.237	800.000	0.033	0.108
-540.223	28.305	-0.056	-0.047
-539.208	-200.000	0.003	-0.014
-538.193	-146.666	0.170	-0.015
-537.179	-112.751	-0.084	0.017
-536.164	141.660	0.147	0.196
-535.150	800.000	-0.061	0.235
-534.135	-32.414	-0.478	-0.269
-533.121	-200.000	-0.011	-0.151
-532.106	-115.596	-0.167	0.032
-531.091	20.875	0.278	-0.227
-530.077	-193.534	-0.122	0.001
-529.062	800.000	-0.025	-0.102
-528.048	241.450	0.210	-0.354
-527.033	-45.654	0.125	0.062
-526.018	-200.000	-0.040	-0.189
-525.004	-200.000	0.069	0.402
-523.989	104.311	-0.032	0.038
-522.975	127.935	-0.192	-0.247
-521.960	800.000	0.014	0.048
-520.945	800.000	0.037	-0.143
-519.931	800.000	-0.126	0.430
-518.916	66.774	-0.145	0.149
-517.902	-68.818	0.131	-0.051
-516.887	4.526	0.124	0.091
-515.872	-72.158	-0.094	-0.035
-514.858	-127.569	0.483	0.071
-513.843	-154.767	-0.426	-0.028
-512.829	-106.927	0.309	0.069
-511.814	-46.573	-0.117	-0.058
-510.799	55.137	-0.106	-0.103
-509.785	-49.546	-0.349	0.167
-508.770	-200.000	0.013	-0.348
-507.756	160.082	-0.112	0.157
-506.741	92.088	-0.089	-0.100
-505.726	75.121	0.061	0.065
-504.712	-200.000	0.012	0.159
-503.697	-200.000	-0.006	-0.053
-502.683	62.428	-0.107	-0.107
-501.668	-139.087	0.210	0.023
-500.653	800.000	-0.038	-0.136
-499.639	119.574	0.197	0.245
-498.624	37.501	0.092	0.082
-497.610	-111.903	-0.091	-0.019
-496.595	287.094	0.183	0.332
-495.581	-200.000	0.059	0.370
-494.566	-124.306	0.209	0.033
-493.551	336.173	0.137	-0.267
-492.537	-83.587	-0.219	-0.070
-491.522	-67.507	-0.148	-0.058
-490.508	800.000	0.061	0.202
-489.493	372.409	-0.161	0.329
-488.478	155.690	-0.028	-0.039
-487.464	-200.000	-0.038	-0.191
-486.449	800.000	-0.100	-0.283
-485.435	159.005	-0.149	-0.209
-484.420	285.510	-0.123	0.223
-483.405	48.487	-0.137	0.130
-482.391	45.318	-0.093	-0.086
-481.376	-28.975	0.184	-0.106
-480.362	3.934	0.162	0.119
-479.347	-37.574	0.212	-0.114
-478.332	-200.000	-0.011	0.178
-477.318	134.271	0.197	-0.257
-476.303	16.394	0.270	-0.215
-475.289	28.338	-0.085	0.072
-474.274	160.654	0.086	-0.121
-473.259	-200.000	0.003	-0.134
-472.245	65.987	-0.023	-0.024
-471.230	154.287	-0.198	-0.274
-470.216	800.000	-0.032	-0.101
-469.201	427.964	-0.151	0.328
-468.186	-37.626	0.047	0.025
-467.172	524.494	-0.023	-0.054
-466.157	-200.000	0.017	0.428
-465.143	-137.106	-0.352	0.040
-464.128	-78.551	0.092	-0.032
-463.113	112.677	0.051	-0.062
-462.099	-35.964	-0.248	-0.135
-461.084	447.383	0.045	-0.099
-460.070	-24.109	-0.096	0.058
-459.055	6.806	-0.323	0.242
-458.040	-187.376	-0.285	-0.004
-457.026	-46.028	0.274	0.136
-456.011	800.000	0.092	0.329
-454.997	344.292	0.109	-0.214
-453.982	-131.297	0.100	0.013
-452.968	800.000	-0.149	0.435
-451.953	-110.993	0.214	0.044
-450.938	24.454	-0.252	-0.209
-449.924	-166.640	0.178	0.007
-448.909	28.488	0.208	0.177
-447.895	800.000	-0.103	0.356
-446.880	9.247	-0.126	-0.095
-445.865	-85.042	-0.198	0.062
-444.851	17.815	-0.238	0.191
-443.836	12.460	0.166	-0.129
-442.822	800.000	0.048	0.149
-441.807	294.981	-0.099	-0.181
-440.792	293.616	-0.068	0.125
-439.778	88.529	0.143	-0.159
-438.763	-200.000	-0.012	0.154
-437.749	-94.426	-0.184	-0.050
-436.734	-83.699	-0.312	0.100
-435.719	16.574	0.110	0.087
-434.705	-51.647	0.452	0.212
-433.690	31.740	0.143	0.124
-432.676	48.277	0.090	0.085
-431.661	406.752	-0.116	0.245
-430.646	-200.000	-0.008	0.057
-429.632	329.901	-0.085	-0.164
-428.617	-120.345	0.121	-0.021
-427.603	58.191	0.095	0.093
-426.588	-63.716	-0.118	-0.048
-425.573	78.270	0.080	0.086
-424.559	-129.076	-0.108	-0.015
-423.544	-98.682	-0.125	0.032
-422.530	157.312	0.169	0.235
-421.515	-200.000	-0.023	-0.112
-420.500	-74.285	-0.041	0.015
-419.486	36.089	0.087	0.077
-418.471	-89.944	0.082	-0.024
-417.457	800.000	0.096	-0.340
-416.442	18.769	-0.266	0.214
-415.428	800.000	0.042	-0.138
-414.413	336.435	0.105	-0.205
-413.398	405.024	-0.041	0.088
-412.384	-1.750	-0.248	-0.175
-411.369	164.773	-0.108	-0.153
-410.355	-119.432	0.419	-0.073
-409.340	-68.206	-0.238	-0.093
-408.325	-200.000	-0.042	-0.267
-407.311	57.624	0.170	-0.167
-406.296	-200.000	-0.003	-0.316
-405.282	794.998	0.064	0.177
-404.267	80.368	0.199	-0.215
-403.252	-200.000	-0.002	-0.086
-402.238	453.580	-0.066	0.147
-401.223	-200.000	-0.021	0.157
-400.209	791.149	0.032	0.088
-399.194	800.000	0.068	0.287
-398.179	-60.526	0.245	-0.105
-397.165	-200.000	0.011	0.093
-396.150	-200.000	0.088	0.442
-395.136	-142.470	0.224	0.022
-394.121	-49.506	-0.267	0.128
-393.106	-200.000	-0.011	-0.280
-392.092	317.535	0.133	0.251
-391.077	142.834	-0.302	0.403
-390.063	76.330	-0.025	-0.027
-389.048	69.261	0.127	-0.131
-388.033	-28.187	-0.042	0.024
-387.019	-141.278	0.033	0.003
-386.004	-145.464	0.108	-0.010
-384.990	-200.000	0.014	0.070
-383.975	71.797	0.039	-0.041
-382.960	61.414	-0.125	-0.124
-381.946	-114.549	0.193	-0.037
-380.931	55.606	0.178	0.173
-379.917	-200.000	0.009	0.143
-378.902	49.624	0.209	-0.197
-377.888	-117.818	0.147	0.026
-376.873	800.000	-0.057	0.157
-375.858	-193.382	0.070	0.001
-374.844	77.617	-0.224	-0.239
-373.829	-100.119	-0.341	-0.085
-372.815	-58.196	-0.156	0.068
-371.800	-200.000	0.005	-0.167
-370.785	-58.767	-0.078	0.034
-369.771	-189.206	0.388	0.005
-368.756	-41.546	0.303	-0.156
-367.742	50.063	0.100	0.094
-366.727	-101.625	-0.173	-0.042
-365.712	-94.660	-0.099	0.027
-364.698	273.886	-0.114	-0.202
-363.683	192.350	0.159	-0.240
-362.669	-200.000	-0.011	0.180
-361.654	-94.375	-0.380	-0.104
-360.639	172.305	-0.199	-0.286
-359.625	800.000	0.092	-0.316
-358.610	-55.575	-0.085	-0.038
-357.596	-200.000	0.010	0.057
-356.581	-77.876	-0.162	-0.056
-355.566	31.499	0.253	-0.218
-354.552	23.516	0.273	-0.225
-353.537	-114.070	-0.434	-0.084
-352.523	188.084	-0.138	-0.206
-351.508	23.316	0.436	0.358
-350.493	-44.318	0.176	0.088
-349.479	62.128	-0.036	-0.036
-348.464	490.362	0.068	0.157
-347.450	-130.658	-0.206	0.028
-346.435	346.758	0.138	-0.272
-345.420	-108.308	-0.426	-0.092
-344.406	535.383	-0.017	0.040
-343.391	800.000	-0.009	0.029
-342.377	-83.795	-0.152	0.049
-341.362	-200.000	0.000	0.069
-340.348	-191.310	0.101	0.001
-339.333	27.885	-0.251	0.212
-338.318	-54.558	-0.116	-0.053
-337.304	-30.870	0.220	-0.124
-336.289	-83.243	0.079	-0.025
-335.275	-68.222	0.296	-0.115
-334.260	-68.136	0.331	0.129
-333.245	94.293	-0.066	-0.075
-332.231	-200.000	-0.059	0.419
-331.216	-67.934	0.181	0.071
-330.202	-68.247	0.217	-0.085
-329.187	-156.603	0.196	0.012
-328.172	-131.312	-0.102	-0.014
-327.158	-88.050	-0.288	0.087
-326.143	-119.654	-0.318	0.055
-325.129	-93.728	0.371	0.102
-324.114	347.517	-0.102	-0.201
-323.099	-90.261	0.019	0.006
-322.085	800.000	-0.041	-0.177
-321.070	800.000	-0.046	-0.190
-320.056	-61.063	0.265	-0.112
-319.041	-200.000	0.005	0.126
-318.026	-200.000	0.162	-0.000
-317.012	-95.787	-0.271	0.072
-315.997	81.357	0.180	-0.195
-314.983	-200.000	0.008	0.211
-313.968	55.107	0.131	-0.127
-312.953	30.188	-0.087	-0.074
-311.939	-109.183	-0.225	0.048
-310.924	-137.180	-0.491	0.056
-309.910	190.949	0.055	0.083
-308.895	35.445	0.215	-0.188
-307.880	-45.181	0.338	0.168
-306.866	-9.442	-0.111	0.074
-305.851	-81.077	-0.313	0.103
-304.837	800.000	-0.031	0.090
-303.822	13.159	0.316	-0.245
-302.807	117.918	0.086	-0.106
-301.793	-69.351	0.253	-0.097
-300.778	545.843	0.093	-0.221
-299.764	-2.336	0.036	-0.025
-298.749	-87.741	-0.162	0.049
-297.735	482.901	0.082	-0.186
-296.720	-41.787	0.162	0.083
-295.705	-200.000	0.000	-0.115
-294.691	299.420	0.108	0.198
-293.676	153.333	-0.069	0.094
-292.662	-115.191	0.245	-0.046
-291.647	43.659	-0.124	0.113
-290.632	73.380	-0.041	-0.043
-289.618	775.459	0.096	0.262
-288.603	493.230	-0.081	0.185
-287.589	800.000	0.031	-0.101
-286.574	800.000	-0.045	0.137
-285.559	56.294	-0.129	0.125
-284.545	-77.072	0.231	0.080
-283.530	145.511	0.092	0.123
-282.516	21.758	-0.165	0.134
-281.501	666.925	-0.142	-0.366
-280.486	-24.396	0.278	-0.165
-279.472	800.000	0.051	0.157
-278.457	-200.000	-0.003	0.083
-277.443	-200.000	-0.018	0.224
-276.428	800.000	0.027	-0.075
-275.413	-167.762	0.278	0.011
-274.399	800.000	0.081	-0.337
-273.384	-200.000	0.019	0.167
-272.370	188.732	0.092	0.137
-271.355	188.704	0.093	-0.138
-270.340	-200.000	0.007	0.076
-269.326	800.000	-0.130	0.369
-268.311	-200.000	-0.049	0.220
-267.297	51.670	0.227	0.216
-266.282	800.000	0.063	-0.209
-265.267	-77.972	-0.107	0.037
-264.253	-177.497	0.309	-0.008
-263.238	51.715	0.105	0.100
-262.224	639.487	-0.040	-0.102
-261.209	800.000	0.018	-0.072
-260.195	-200.000	-0.029	-0.278
-259.180	-28.943	0.046	0.026
-258.165	-55.099	-0.389	-0.175
-257.151	127.780	0.038	0.048
-256.136	-47.426	-0.184	0.089
-255.122	438.833	0.116	-0.254
-254.107	17.337	-0.239	0.190
-253.092	800.000	-0.073	0.241
-252.078	-28.914	-0.401	0.230
-251.063	-62.681	-0.314	0.130
-250.049	-111.034	0.162	-0.033
-249.034	-200.000	0.018	0.113
-248.019	255.073	0.156	0.267
-247.005	800.000	-0.115	0.379
-245.990	800.000	0.033	-0.124
-244.976	-168.731	-0.106	0.004
-243.961	174.261	-0.118	-0.170
-242.946	-147.850	-0.201	-0.017
-241.932	88.896	0.172	0.190
-240.917	-39.774	-0.142	0.074
-239.903	327.959	-0.059	0.112
-238.888	164.448	-0.089	0.125
-237.873	-38.525	0.156	0.082
-236.859	-142.501	0.229	-0.022
-235.844	800.000	0.049	0.187
-234.830	593.127	-0.064	0.158
-233.815	800.000	0.103	0.391
-232.800	-92.508	-0.268	-0.075
-231.786	-58.034	0.214	-0.093
-230.771	607.717	-0.022	-0.055
-229.757	106.582	0.150	-0.178
-228.742	800.000	0.034	-0.113
-227.727	-112.507	0.414	0.082
-226.713	-200.000	0.007	-0.156
-225.698	23.077	0.169	0.138
-224.684	-200.000	0.012	-0.311
-223.669	800.000	-0.087	0.264
-222.655	-88.379	-0.069	-0.020
-221.640	429.034	0.111	0.239
-220.625	800.000	-0.085	-0.240
-219.611	-144.744	0.105	-0.010
-218.596	97.975	0.162	-0.186
-217.582	-47.821	0.186	-0.090
-216.567	-145.682	-0.182	0.016
-215.552	-102.226	0.171	0.041
-214.538	297.525	-0.057	-0.104
-213.523	-200.000	0.019	-0.274
-212.509	-132.403	-0.091	0.012
-211.494	-121.731	-0.122	-0.020
-210.479	-79.126	-0.294	-0.099
-209.465	515.655	-0.015	0.035
-208.450	-72.989	-0.284	-0.104
-207.436	-58.231	0.233	-0.101
-206.421	729.002	0.071	-0.190
-205.406	-88.809	0.174	-0.051
-204.392	-20.929	-0.303	0.185
-203.377	200.909	-0.112	-0.171
-202.363	-200.000	0.042	0.215
-201.348	28.113	-0.088	0.074
-200.333	-53.576	0.147	0.067
-199.319	-151.458	-0.060	-0.004
-198.304	-200.000	-0.005	-0.044
-197.290	-152.647	0.188	0.013
-196.275	-94.913	-0.126	0.034
-195.260	-103.005	0.493	-0.116
-194.246	486.945	0.066	0.150
-193.231	545.951	0.118	-0.281
-192.217	-191.820	-0.334	0.003
-191.202	-9.386	0.212	0.141
-190.187	248.216	0.108	0.181
-189.173	-200.000	-0.012	0.058
-188.158	131.243	0.058	-0.074
-187.144	127.971	-0.243	-0.308
-186.129	-95.107	0.349	0.094
-185.114	104.177	0.116	0.136
-184.100	-143.620	-0.375	-0.035
-183.085	224.017	0.151	0.242
-182.071	-22.503	-0.167	0.100
-181.056	159.375	0.128	-0.177
-180.042	74.217	-0.221	0.231
-179.027	-102.512	-0.307	0.073
-178.012	-117.995	0.331	0.059
-176.998	53.767	0.183	0.175
-175.983	-126.039	0.343	-0.051
-174.969	68.483	0.269	-0.274
-173.954	-2.121	-0.327	-0.228
-172.939	-56.443	0.132	0.058
-171.925	67.919	0.141	-0.143
-170.910	172.416	-0.021	-0.030
-169.896	75.707	-0.178	-0.186
-168.881	15.519	-0.085	-0.067
-167.866	194.848	-0.118	-0.178
-166.852	-200.000	-0.008	-0.209
-165.837	-31.495	0.119	-0.066
-164.823	-16.495	-0.243	-0.153
-163.808	-60.799	0.319	0.134
-162.793	800.000	-0.103	-0.293
-161.779	-116.130	-0.069	-0.013
-160.764	0.667	0.101	0.072
-159.750	-188.418	0.154	0.002
-158.735	800.000	0.008	0.030
-157.720	-78.568	0.159	-0.054
-156.706	-98.586	0.189	0.048
-155.691	189.297	-0.077	0.114
-154.677	-145.769	-0.218	0.019
-153.662	-19.760	-0.294	0.180
-152.647	-200.000	0.001	0.126
-151.633	-17.895	0.349	-0.217
-150.618	4.784	-0.164	0.120
-149.604	800.000	-0.051	-0.155
-148.589	419.909	-0.058	0.123
-147.574	76.429	0.192	-0.202
-146.560	-42.783	-0.268	-0.135
-145.545	16.263	-0.149	-0.117
-144.531	-27.063	-0.156	0.091
-143.516	-136.191	-0.083	-0.010
-142.502	39.831	0.021	0.019
-141.487	-200.000	0.004	-0.097
-140.472	-200.000	-0.067	0.405
-139.458	-200.000	0.055	-0.286
-138.443	-100.099	-0.460	-0.114
-137.429	194.329	0.041	-0.062
-136.414	-200.000	0.072	0.452
-135.399	13.850	0.052	-0.040
-134.385	84.989	0.177	0.193
-133.370	-200.000	0.037	-0.405
-132.356	-68.612	-0.210	-0.081
-131.341	-128.734	0.110	-0.015
-130.326	-101.172	0.151	0.037
-129.312	-111.903	0.083	-0.017
-128.297	56.773	-0.280	-0.270
-127.283	163.141	0.177	-0.247
-126.268	-200.000	-0.031	0.327
-125.253	800.000	-0.088	0.292
-124.239	642.483	-0.079	-0.199
-123.224	-64.700	-0.170	-0.069
-122.210	-200.000	-0.012	-0.170
-121.195	-200.000	-0.011	-0.160
-120.180	-31.510	0.129	0.072
-119.166	-200.000	0.005	0.028
-118.151	-97.657	0.445	0.115
-117.137	31.190	-0.079	-0.067
-116.122	800.000	0.077	-0.250
-115.107	800.000	-0.011	0.035
-114.093	-200.000	-0.011	0.084
-113.078	-135.689	-0.261	-0.031
-112.064	-126.446	-0.174	-0.026
-111.049	-188.886	-0.209	0.003
-110.034	-164.663	-0.238	-0.011
-109.020	7.461	0.104	-0.077
-108.005	-50.836	0.153	0.071
-106.991	14.828	-0.026	0.020
-105.976	-128.275	-0.147	-0.021
-104.962	-0.418	0.147	0.103
-103.947	-200.000	-0.010	-0.068
-102.932	-95.610	0.160	-0.043
-101.918	-78.350	-0.096	0.033
-100.903	23.034	0.363	0.296
-99.889	25.165	0.147	0.121
-98.874	373.583	-0.109	0.220
-97.859	-200.000	-0.018	-0.149
-96.845	-200.000	-0.044	0.232
-95.830	48.311	0.314	-0.291
-94.816	800.000	0.023	0.075
-93.801	18.104	0.212	-0.167
-92.786	-154.420	0.551	0.037
-91.772	-38.185	0.291	-0.153
-90.757	91.066	0.114	0.127
-89.743	241.525	-0.120	0.199
-88.728	208.196	0.103	0.159
-87.713	-17.889	-0.267	-0.166
-86.699	417.032	-0.030	-0.063
-85.684	-200.000	0.025	-0.134
-84.670	800.000	-0.111	-0.372
-83.655	-200.000	-0.026	-0.270
-82.640	-99.714	-0.375	0.093
-81.626	108.712	0.137	-0.163
-80.611	-97.607	-0.154	0.040
-79.597	-200.000	0.025	0.193
-78.582	81.137	0.106	0.114
-77.567	-110.806	0.297	0.061
-76.553	-55.683	-0.074	-0.033
-75.538	340.908	-0.093	0.180
-74.524	227.197	0.213	0.343
-73.509	246.327	-0.134	-0.224
-72.494	-104.404	0.410	0.094
-71.480	-200.000	-0.018	0.080
-70.465	-200.000	-0.017	0.108
-69.451	-2.683	0.340	0.235
-68.436	308.791	0.192	-0.355
-67.422	508.655	0.116	0.266
-66.407	800.000	-0.057	0.181
-65.392	8.700	0.186	-0.139
-64.378	-109.691	0.478	-0.100
-63.363	800.000	-0.047	-0.159
-62.349	800.000	0.062	-0.239
-61.334	57.123	-0.936	-0.903
-60.319	169.100	0.338	0.478
-59.305	800.000	-0.185	-0.763
-58.290	262.660	0.605	1.039
-57.276	800.000	0.583	1.636
-56.261	-200.000	96.752	566.074
-55.246	627.746	1390.996	3477.057
-54.232	187.109	2601.523	3837.797
-53.217	120.705	2182.709	2684.669
-52.203	46.206	1632.343	1496.393
-51.188	37.838	1367.326	1202.071
-50.173	34.585	1324.782	1145.148
-49.159	55.859	1372.781	1316.992
-48.144	59.777	1391.574	1358.872
-47.130	38.157	1345.891	1184.980
-46.115	34.612	1327.325	1147.322
-45.100	34.366	1323.222	1142.261
-44.086	34.238	1321.154	1139.663
-43.071	34.287	1318.516	1137.632
-42.057	34.184	1316.491	1135.230
-41.042	34.285	1315.067	1134.555
-40.027	34.351	1313.437	1133.496
-39.013	34.294	1311.184	1131.170
-37.998	34.319	1309.866	1130.135
-36.984	34.297	1308.060	1128.402
-35.969	34.369	1306.103	1127.094
-34.954	34.455	1304.154	1125.879
-33.940	34.429	1303.346	1124.983
-32.925	34.503	1301.518	1123.798
-31.911	34.535	1300.322	1122.905
-30.896	34.442	1299.017	1121.186
-29.881	34.461	1297.771	1120.182
-28.867	34.469	1296.081	1118.724
-27.852	34.509	1294.157	1117.253
-26.838	34.474	1293.596	1116.517
-25.823	34.541	1291.626	1115.167
-24.809	34.498	1290.649	1114.026
-23.794	34.368	1289.649	1112.360
-22.779	34.433	1287.727	1111.036
-21.765	34.421	1286.807	1110.129
-20.750	34.412	1285.424	1108.842
-19.736	34.310	1284.027	1107.000
-18.721	34.316	1282.934	1106.049
-17.706	34.334	1281.849	1105.175
-16.692	34.358	1280.379	1104.001
-15.677	34.424	1279.271	1103.381
-14.663	34.386	1278.147	1102.152
-13.648	34.325	1277.008	1100.772
-12.633	34.417	1275.526	1099.984
-11.619	34.282	1275.323	1098.983
-10.604	34.265	1274.561	1098.186
-9.590	34.455	1273.177	1098.047
-8.575	34.293	1272.316	1096.327
-7.560	34.376	1271.189	1095.788
-6.546	34.368	1270.699	1095.275
-5.531	34.385	1269.201	1094.040
-4.517	34.293	1268.974	1093.271
-3.502	34.292	1268.468	1092.784
-2.487	34.409	1266.787	1091.966
-1.473	34.330	1263.156	1088.342
-0.458	33.090	1248.348	1068.536
0.556	28.471	1230.266	1029.887
1.571	24.737	1235.387	1012.976
2.586	23.826	1250.766	1020.267
3.600	23.212	1240.279	1008.129
4.615	18.211	1167.607	922.092
5.629	9.530	1091.285	817.830
6.644	5.327	1070.185	780.975
7.659	5.075	1067.651	777.802
8.673	4.960	1066.557	776.360
9.688	4.870	1064.885	774.627
10.702	5.253	1063.696	775.597
11.717	10.589	1071.444	807.809
12.731	17.957	1081.462	852.188
13.746	19.590	1082.503	861.080
14.761	18.231	1079.796	852.086
15.775	17.043	1077.396	844.214
16.790	15.958	1075.284	837.093
17.804	15.175	1074.198	832.285
18.819	14.840	1072.949	829.580
19.834	14.692	1072.044	828.073
20.848	14.278	1071.156	825.263
21.863	14.101	1070.014	823.435
22.877	14.016	1069.607	822.629
23.892	13.978	1068.576	821.572
24.907	13.960	1068.356	821.243
25.921	13.928	1067.045	820.004
26.936	14.080	1065.656	819.612
27.950	14.130	1064.305	818.748
28.965	14.225	1062.919	818.078
29.980	14.258	1061.124	816.784
30.994	14.270	1059.500	815.522
32.009	14.267	1058.980	815.035
33.023	14.307	1057.860	814.298
34.038	14.281	1056.781	813.269
35.053	14.196	1056.271	812.387
36.067	14.211	1055.081	811.473
37.082	14.161	1054.812	810.953
38.096	14.254	1053.536	810.352
39.111	14.238	1052.885	809.700
40.126	14.121	1051.342	807.872
41.140	14.073	1049.718	806.323
42.155	14.015	1048.971	805.398
43.169	13.952	1047.915	804.207
44.184	13.921	1047.235	803.464
45.199	13.962	1045.843	802.526
46.213	13.982	1045.053	801.945
47.228	14.066	1043.785	801.305
48.242	14.080	1042.893	800.614
49.257	14.201	1041.461	800.028
50.271	14.150	1040.880	799.266
51.286	14.097	1040.028	798.289
52.301	14.043	1039.447	797.511
53.315	14.052	1037.957	796.343
54.330	14.042	1036.586	795.171
55.344	13.944	1036.288	794.404
56.359	14.084	1035.109	794.100
57.374	14.001	1034.433	793.110
58.388	14.005	1033.587	792.412
59.403	13.980	1032.542	791.424
60.417	13.938	1031.581	790.416
61.432	13.994	1030.977	790.152
62.447	13.900	1030.037	788.911
63.461	13.774	1028.952	787.415
64.476	13.900	1027.875	787.117
65.490	13.816	1027.183	786.122
66.505	13.818	1026.761	785.739
67.520	13.822	1026.125	785.202
68.534	13.838	1025.292	784.568
69.549	13.962	1024.167	784.226
70.563	13.931	1023.690	783.641
71.578	13.833	1022.976	782.564
72.593	13.844	1022.028	781.825
73.607	13.830	1021.035	780.929
74.622	13.750	1020.856	780.347
75.636	13.847	1019.684	779.836
76.651	13.743	1019.240	778.940
77.666	13.941	1018.510	779.243
78.680	13.754	1018.031	777.931
79.695	13.825	1017.265	777.608
80.709	13.995	1016.286	777.585
81.724	13.936	1016.115	777.109
82.739	14.018	1015.270	776.779
83.753	14.133	1014.422	776.597
84.768	14.265	1013.602	776.518
85.782	14.257	1012.577	775.625
86.797	14.177	1011.836	774.619
87.812	14.051	1011.419	773.643
88.826	14.124	1010.010	772.837
89.841	14.148	1008.982	772.093
90.855	14.275	1008.262	772.061
91.870	14.184	1007.601	771.065
92.884	14.283	1006.752	770.808
93.899	14.264	1005.531	769.714
94.914	14.301	1004.815	769.271
95.928	14.296	1003.939	768.507
96.943	14.284	1002.868	767.567
97.957	14.340	1002.185	767.231
98.972	14.387	1000.784	766.310
99.987	14.264	1000.510	765.464
101.001	14.284	999.724	764.888
102.016	14.191	999.131	763.941
103.030	14.370	997.868	763.730
104.045	14.144	997.573	762.400
105.060	14.193	996.378	761.640
106.074	14.123	995.109	760.287
107.089	13.975	994.084	758.760
108.103	13.916	993.576	758.032
109.118	14.041	992.457	757.683
110.133	13.903	991.616	756.345
111.147	14.007	990.777	756.112
112.162	13.978	990.000	755.320
113.176	14.018	989.518	755.069
114.191	14.006	988.834	754.425
115.206	14.047	987.858	753.800
116.220	13.994	987.103	752.917
117.235	14.048	985.781	752.087
118.249	14.070	984.931	751.471
119.264	13.917	984.815	750.625
120.279	13.934	983.766	749.834
121.293	13.914	982.933	749.043
122.308	13.931	981.944	748.301
123.322	13.936	980.922	747.478
124.337	13.845	980.131	746.397
125.352	14.026	978.649	746.017
126.366	13.922	977.981	744.973
127.381	14.004	976.992	744.522
128.395	13.915	976.181	743.442
129.410	14.036	975.220	743.185
130.424	14.142	974.170	742.792
131.439	14.179	973.605	742.462
132.454	14.192	972.589	741.677
133.468	14.094	971.780	740.560
134.483	14.215	970.917	740.373
135.497	14.193	969.896	739.432
136.512	14.264	969.155	739.115
137.527	14.103	968.877	738.125
138.541	14.328	967.633	738.110
139.556	14.249	966.810	737.067
140.570	14.217	966.493	736.616
141.585	14.293	965.468	736.109
142.600	14.326	964.751	735.641
143.614	14.351	964.044	735.147
144.629	14.496	962.795	734.768
145.643	14.371	961.780	733.379
146.658	14.304	961.298	732.654
147.673	14.215	960.341	731.469
148.687	14.120	959.355	730.232
149.702	14.129	958.522	729.574
150.716	14.134	957.587	728.821
151.731	14.236	956.762	728.574
152.746	14.254	955.990	728.001
153.760	14.160	955.854	727.422
154.775	14.337	955.160	727.605
155.789	14.483	954.372	727.576
156.804	14.365	954.052	726.750
157.819	14.398	953.150	726.145
158.833	14.420	952.719	725.846
159.848	14.342	952.098	724.971
160.862	14.497	950.310	724.219
161.877	14.323	949.584	722.847
162.892	14.263	948.790	721.918
163.906	14.172	948.073	720.913
164.921	14.243	947.116	720.430
165.935	14.304	946.188	719.924
166.950	14.294	945.445	719.253
167.964	14.393	944.314	718.756
168.979	14.345	943.661	717.987
169.994	14.380	942.812	717.428
171.008	14.374	942.415	717.035
172.023	14.537	941.019	716.610
173.037	14.644	940.586	716.680
174.052	14.553	939.756	715.593
175.067	14.494	939.465	715.052
176.081	14.539	938.516	714.462
177.096	14.247	938.491	713.126
178.110	14.397	937.742	713.139
179.125	14.562	937.010	713.222
180.140	14.478	936.483	712.399
181.154	14.459	935.833	711.763
182.169	14.474	935.810	711.745
183.183	14.779	935.082	712.428
184.198	14.537	934.150	710.627
185.213	14.615	933.169	710.147
186.227	14.595	933.038	709.899
187.242	14.686	932.049	709.474
188.256	14.859	931.489	709.718
189.271	14.821	931.081	709.181
190.286	14.481	929.944	706.815
191.300	14.420	929.139	705.879
192.315	14.379	928.649	705.272
193.329	14.397	927.935	704.742
194.344	14.451	927.526	704.597
195.359	14.587	926.897	704.633
196.373	14.574	926.459	704.183
197.388	14.723	925.966	704.372
198.402	14.821	925.525	704.388
199.417	14.792	925.039	703.836
200.432	14.943	924.185	703.758
201.446	14.949	923.774	703.409
202.461	15.083	923.260	703.515
203.475	14.920	922.718	702.359
204.490	14.843	921.795	701.271
205.504	14.850	920.986	700.622
206.519	14.777	920.441	699.839
207.534	14.910	919.272	699.446
208.548	14.953	918.805	699.209
209.563	14.774	918.435	698.118
210.577	14.843	917.514	697.641
211.592	15.127	916.832	698.246
212.607	14.950	916.308	697.048
213.621	15.062	915.535	696.865
214.636	15.058	914.478	695.981
215.650	15.166	913.562	695.670
216.665	15.082	913.491	695.209
217.680	15.131	912.764	694.796
218.694	15.199	912.023	694.451
219.709	15.198	911.296	693.832
220.723	15.142	910.870	693.217
221.738	15.142	909.592	692.183
222.753	15.101	909.362	691.774
223.767	15.199	908.577	691.520
224.782	15.305	908.066	691.509
225.796	15.337	907.810	691.386
226.811	15.085	907.739	690.230
227.826	15.243	906.480	689.864
228.840	15.258	905.546	689.152
229.855	15.180	905.426	688.682
230.869	15.235	904.250	687.949
231.884	15.168	903.657	687.165
232.899	15.123	903.011	686.425
233.913	15.079	902.243	685.604
234.928	15.162	901.406	685.245
235.942	15.165	900.873	684.791
236.957	15.091	900.497	684.144
237.972	15.091	899.984	683.693
238.986	15.207	898.830	683.230
240.001	15.102	898.526	682.507
241.015	15.248	897.583	682.328
242.030	15.289	897.403	682.294
243.045	15.333	896.685	681.869
244.059	15.292	895.915	681.057
245.074	15.409	895.119	680.865
246.088	15.310	894.753	680.127
247.103	15.457	894.005	680.092
248.117	15.525	893.878	680.210
249.132	15.561	893.118	679.717
250.147	15.731	892.492	679.871
251.161	15.767	891.816	679.439
252.176	15.634	891.352	678.488
253.190	15.693	890.695	678.165
254.205	15.742	890.097	677.851
255.220	16.012	889.158	678.161
256.234	15.773	888.755	676.832
257.249	15.888	888.349	676.924
258.263	15.699	887.514	675.470
259.278	15.846	886.785	675.446
260.293	15.911	886.092	675.120
261.307	15.795	886.023	674.541
262.322	16.004	885.239	674.722
263.336	16.071	884.236	674.164
264.351	16.118	883.343	673.611
265.366	16.028	883.084	672.996
266.380	15.977	882.490	672.279
267.395	16.013	881.703	671.763
268.409	15.964	881.109	671.056
269.424	16.032	880.007	670.429
270.439	15.963	879.525	669.728
271.453	15.712	879.177	668.405
272.468	15.860	878.571	668.475
273.482	15.951	877.805	668.192
274.497	15.951	876.902	667.448
275.512	15.955	876.478	667.081
276.526	15.977	876.227	666.917
277.541	16.063	875.757	666.843
278.555	16.043	875.585	666.572
279.570	16.059	874.564	665.801
280.585	16.069	874.254	665.543
281.599	15.983	873.109	664.276
282.614	16.134	872.360	664.239
283.628	16.193	871.470	663.736
284.643	16.275	870.730	663.436
285.657	16.222	870.240	662.797
286.672	16.172	869.839	662.237
287.687	16.219	869.372	662.007
288.701	16.188	868.727	661.333
289.716	16.228	867.890	660.797
290.730	16.179	867.574	660.305
291.745	16.281	867.005	660.212
292.760	16.090	866.750	659.214
293.774	16.279	865.725	659.112
294.789	16.381	864.974	658.882
295.803	16.252	864.175	657.709
296.818	16.260	863.775	657.379
297.833	16.287	862.926	656.780
298.847	16.297	862.385	656.349
299.862	16.448	861.871	656.487
300.876	16.367	861.549	655.870
301.891	16.343	861.163	655.423
302.906	16.519	860.422	655.484
303.920	16.474	860.140	655.036
304.935	16.567	859.842	655.112
305.949	16.486	858.763	653.919
306.964	16.484	857.901	653.197
307.979	16.505	857.306	652.769
308.993	16.548	857.180	652.781
310.008	16.634	856.149	652.268
311.022	16.541	855.888	651.651
312.037	16.545	854.888	650.849
313.052	16.594	854.241	650.489
314.066	16.445	854.049	649.711
315.081	16.468	853.114	649.031
316.095	16.551	853.007	649.210
317.110	16.470	851.922	648.018
318.125	16.492	851.886	648.018
319.139	16.652	850.884	647.811
320.154	16.603	850.539	647.303
321.168	16.624	850.128	647.010
322.183	16.660	849.511	646.622
323.197	16.634	849.135	646.181
324.212	16.557	848.691	645.491
325.227	16.592	848.017	645.053
326.241	16.491	847.162	643.964
327.256	16.511	846.718	643.645
328.270	16.657	846.141	643.703
329.285	16.714	845.416	643.314
330.300	16.514	845.096	642.253
331.314	16.563	844.600	642.005
332.329	16.647	844.229	641.985
333.343	16.726	843.834	641.927
334.358	16.949	842.840	641.959
335.373	16.781	842.703	641.160
336.387	16.830	842.563	641.184
337.402	16.826	842.358	640.955
338.416	16.975	841.616	640.898
339.431	16.971	841.419	640.677
340.446	17.037	840.899	640.471
341.460	17.040	840.750	640.314
342.475	17.090	840.550	640.294
343.489	17.196	840.115	640.305
344.504	17.254	839.037	639.644
345.519	17.156	838.853	639.080
346.533	17.142	838.063	638.366
347.548	17.025	837.965	637.798
348.562	17.008	837.396	637.244
349.577	16.968	836.446	636.312
350.592	16.911	836.104	635.784
351.606	17.113	835.015	635.655
352.621	17.071	834.521	635.066
353.635	16.913	834.243	634.207
354.650	17.041	833.505	634.070
355.665	17.080	832.707	633.551
356.679	17.060	832.199	633.034
357.694	17.290	831.278	633.135
358.708	17.127	830.589	631.947
359.723	17.266	830.402	632.267
360.738	17.321	829.478	631.711
361.752	17.292	828.988	631.172
362.767	17.307	828.494	630.796
363.781	17.401	827.699	630.486
364.796	17.436	827.595	630.481
365.810	17.337	826.990	629.597
366.825	17.367	827.070	629.711
367.840	17.395	826.728	629.500
368.854	17.484	825.850	629.103
369.869	17.500	825.415	628.778
370.883	17.471	824.983	628.287
371.898	17.460	824.708	627.980
372.913	17.560	824.018	627.765
373.927	17.550	823.733	627.456
374.942	17.575	823.215	627.100
375.956	17.561	823.036	626.854
376.971	17.658	822.568	626.800
377.986	17.717	821.679	626.283
379.000	17.526	821.996	625.768
380.015	17.709	820.847	625.510
381.029	17.721	820.505	625.238
382.044	17.654	819.746	624.359
383.059	17.762	819.124	624.224
384.073	17.812	818.514	623.889
385.088	17.828	817.515	623.131
386.102	17.568	817.916	622.430
387.117	17.637	816.746	621.737
388.132	17.511	816.332	620.909
389.146	17.614	816.183	621.113
390.161	17.668	815.604	620.816
391.175	17.739	815.224	620.730
392.190	17.783	814.495	620.280
393.205	17.743	813.828	619.572
394.219	17.741	813.407	619.189
395.234	17.627	813.445	618.751
396.248	17.652	812.776	618.277
397.263	17.685	812.172	617.882
398.278	17.598	812.306	617.612
399.292	17.534	812.043	617.127
400.307	17.662	810.929	616.690
401.321	17.747	810.288	616.452
402.336	17.845	809.950	616.494
403.350	17.780	809.534	615.892
404.365	17.919	809.003	615.932
405.380	17.991	808.392	615.673
406.394	18.076	808.080	615.688
407.409	17.966	807.734	614.973
408.423	18.223	807.170	615.412
409.438	18.119	806.896	614.779
410.453	17.932	806.755	613.943
411.467	18.105	806.524	614.334
412.482	18.153	806.137	614.157
413.496	18.172	805.651	613.802
414.511	18.180	805.155	613.396
415.526	18.326	804.741	613.550
416.540	18.203	804.186	612.634
417.555	18.357	803.346	612.490
418.569	18.157	803.341	611.717
419.584	18.281	802.864	611.743
420.599	18.050	802.537	610.614
421.613	153.424	1370.296	1790.346
422.628	133.010	1453.026	1790.461
