DTS Sentinel unit serial number:	SN413079Multiplexer serial number:	ORYXHardware model number:	OX4-SRSoftware version number:	ORYX F/W v4.00 Oryx Data Collector v3.7.2.0data status	okinstallation	princeton_trtdifferential loss correction	single-endedforward channel	channel 1reverse channel	N/Adate	2019/09/11time	06:16:11forward acquisition time	60.00reverse acquisition time	0.00gamma	496.2192k internal	0.2331k external	0.2331temperature offset calibration	0.9922default loss term (dB/km)	0.3790temperature slope calibration	1.0000multiplexer offset coefficient	1.0000multiplexer slope coefficient	1.0000fibre end	0.00T internal ref (°C)	29.50T ext. ref 1 (°C)	-0.19T ext. ref 2 (°C)	23.85length (m)	temperature (°C)	Stokes	anti-Stokes-747.200	-55.488	0.109	-0.049
-746.185	40.711	-0.136	0.123
-745.171	532.880	0.031	0.075
-744.156	800.000	0.038	0.149
-743.142	-98.859	0.074	0.019
-742.127	-71.640	-0.301	0.113
-741.112	680.316	0.077	0.201
-740.098	-55.781	-0.146	-0.065
-739.083	800.000	0.087	0.273
-738.069	269.168	-0.050	0.087
-737.054	-173.435	0.319	0.010
-736.039	68.493	-0.115	-0.118
-735.025	-110.393	0.352	0.074
-734.010	-185.146	0.407	0.006
-732.996	607.355	0.065	-0.164
-731.981	318.549	0.109	-0.207
-730.966	800.000	0.043	-0.155
-729.952	182.166	0.136	-0.201
-728.937	404.680	-0.132	-0.279
-727.923	-200.000	-0.085	0.380
-726.908	218.846	-0.116	-0.187
-725.894	-200.000	0.032	0.156
-724.879	12.416	-0.079	0.061
-723.864	-200.000	-0.030	-0.139
-722.850	-104.158	-0.160	0.037
-721.835	-200.000	-0.031	0.300
-720.821	800.000	0.011	0.041
-719.806	37.111	-0.140	-0.125
-718.791	-81.625	-0.134	-0.044
-717.777	-124.104	-0.141	-0.022
-716.762	400.479	0.018	-0.037
-715.748	127.203	0.237	-0.303
-714.733	110.367	-0.152	-0.184
-713.718	-200.000	-0.016	0.209
-712.704	-22.088	-0.329	0.201
-711.689	144.236	0.145	0.194
-710.675	35.590	-0.027	-0.024
-709.660	-200.000	0.000	-0.242
-708.645	-58.509	-0.388	-0.169
-707.631	445.655	-0.174	-0.384
-706.616	-98.523	-0.099	0.025
-705.602	479.862	-0.114	0.260
-704.587	197.984	-0.293	0.451
-703.572	-200.000	0.008	0.087
-702.558	511.175	-0.080	0.186
-701.543	215.998	0.274	0.438
-700.529	55.911	-0.231	-0.225
-699.514	26.024	0.183	0.153
-698.499	-117.869	0.240	-0.043
-697.485	508.081	-0.039	0.092
-696.470	-200.000	0.013	0.231
-695.456	200.150	-0.103	0.159
-694.441	576.715	-0.096	0.235
-693.426	-50.304	-0.069	-0.033
-692.412	36.858	-0.335	-0.297
-691.397	-97.789	0.274	-0.071
-690.383	458.724	0.011	0.025
-689.368	460.414	0.022	-0.049
-688.354	-137.480	-0.454	0.052
-687.339	45.756	0.022	-0.020
-686.324	-200.000	0.038	0.218
-685.310	232.415	0.144	-0.237
-684.295	-67.101	0.077	0.030
-683.281	-200.000	0.064	-0.374
-682.266	135.107	0.081	-0.105
-681.251	-135.550	0.216	0.026
-680.237	238.990	0.190	0.317
-679.222	326.871	-0.168	-0.323
-678.208	-76.671	0.120	0.042
-677.193	-86.542	0.176	0.054
-676.178	-197.598	0.298	0.002
-675.164	-56.207	0.198	0.088
-674.149	800.000	0.002	-0.007
-673.135	43.121	0.216	0.198
-672.120	-200.000	-0.014	-0.116
-671.105	-200.000	0.014	-0.164
-670.091	-200.000	-0.002	-0.203
-669.076	-200.000	-0.024	-0.207
-668.062	-154.656	0.123	0.008
-667.047	-200.000	-0.019	-0.344
-666.032	548.890	0.132	-0.317
-665.018	686.500	-0.021	0.055
-664.003	-57.014	-0.111	-0.049
-662.989	-200.000	0.008	0.127
-661.974	29.256	0.251	-0.214
-660.959	800.000	0.066	-0.275
-659.945	-101.587	-0.318	0.077
-658.930	800.000	0.055	-0.166
-657.916	-84.502	0.220	-0.070
-656.901	42.484	0.211	0.193
-655.886	-143.287	-0.303	-0.029
-654.872	-55.879	0.231	-0.103
-653.857	489.342	-0.078	0.178
-652.843	-200.000	0.012	0.120
-651.828	247.705	0.120	-0.204
-650.814	505.531	0.147	0.342
-649.799	58.297	-0.067	-0.066
-648.784	65.336	-0.243	0.247
-647.770	-200.000	0.084	-0.387
-646.755	28.557	-0.227	-0.193
-645.741	41.913	0.273	0.248
-644.726	800.000	0.124	0.392
-643.711	-101.963	-0.133	0.032
-642.697	-58.726	-0.279	-0.121
-641.682	-71.613	-0.263	0.099
-640.668	-200.000	-0.006	0.100
-639.653	-9.557	-0.127	0.085
-638.638	-51.796	0.423	-0.198
-637.624	-121.307	-0.308	-0.051
-636.609	-96.955	0.066	-0.017
-635.595	301.670	-0.051	0.095
-634.580	-200.000	-0.017	0.203
-633.565	-76.744	0.194	0.068
-632.551	-40.805	-0.309	0.160
-631.536	32.762	-0.157	-0.136
-630.522	800.000	-0.010	-0.034
-629.507	45.955	-0.054	-0.050
-628.492	75.940	-0.148	0.157
-627.478	-72.841	0.247	0.091
-626.463	713.847	-0.005	-0.013
-625.449	149.529	-0.163	-0.221
-624.434	800.000	-0.029	-0.087
-623.419	-72.701	-0.163	-0.060
-622.405	-66.987	0.124	-0.049
-621.390	-25.844	0.110	0.065
-620.376	800.000	-0.078	-0.301
-619.361	-9.227	0.263	0.176
-618.346	-14.960	-0.216	0.139
-617.332	279.777	-0.129	-0.231
-616.317	-200.000	-0.010	0.058
-615.303	9.825	-0.091	0.069
-614.288	800.000	-0.104	-0.322
-613.273	800.000	-0.083	-0.349
-612.259	-128.844	-0.349	0.049
-611.244	-80.882	-0.213	0.071
-610.230	196.570	0.019	0.029
-609.215	249.490	0.101	0.171
-608.201	-132.404	-0.466	0.060
-607.186	800.000	0.115	-0.324
-606.171	339.973	0.119	-0.233
-605.157	-200.000	0.021	0.166
-604.142	682.937	0.008	0.020
-603.128	197.758	0.032	-0.050
-602.113	-200.000	0.320	0.001
-601.098	-169.767	0.072	0.003
-600.084	-68.605	0.156	-0.061
-599.069	800.000	-0.166	0.544
-598.055	249.739	0.167	-0.283
-597.040	-51.837	-0.261	0.122
-596.025	-119.439	0.330	-0.057
-595.011	-23.823	0.173	0.104
-593.996	35.800	-0.071	0.062
-592.982	167.192	-0.213	0.303
-591.967	-200.000	-0.059	-0.341
-590.952	151.505	-0.169	-0.230
-589.938	800.000	0.063	-0.272
-588.923	69.710	-0.222	-0.229
-587.909	-115.049	-0.162	0.031
-586.894	-200.000	0.007	0.079
-585.879	188.212	0.114	-0.170
-584.865	104.896	-0.171	-0.202
-583.850	800.000	0.053	-0.157
-582.836	61.632	-0.058	0.058
-581.821	67.009	-0.207	-0.211
-580.806	106.637	0.110	-0.130
-579.792	24.047	-0.093	0.077
-578.777	447.847	-0.034	0.075
-577.763	-200.000	0.052	-0.407
-576.748	-77.682	-0.261	0.090
-575.733	800.000	-0.066	-0.202
-574.719	-200.000	0.039	-0.234
-573.704	-50.401	-0.065	0.031
-572.690	242.603	-0.171	-0.287
-571.675	-134.643	-0.246	0.030
-570.661	166.282	0.201	0.284
-569.646	153.992	0.180	0.246
-568.631	-200.000	0.012	0.279
-567.617	192.701	0.127	-0.192
-566.602	800.000	-0.051	-0.170
-565.588	259.456	-0.193	-0.334
-564.573	-200.000	0.015	-0.098
-563.558	770.664	0.164	-0.448
-562.544	123.619	-0.053	-0.067
-561.529	800.000	0.031	-0.104
-560.515	-160.042	-0.190	-0.010
-559.500	44.229	-0.222	0.204
-558.485	436.532	0.087	0.189
-557.471	-55.270	0.238	0.107
-556.456	800.000	0.006	0.024
-555.442	-200.000	0.030	0.163
-554.427	167.045	-0.283	-0.401
-553.412	-66.756	0.443	-0.175
-552.398	-200.000	-0.017	-0.105
-551.383	514.577	0.062	-0.145
-550.369	-117.665	0.589	0.106
-549.354	-200.000	-0.004	0.296
-548.339	-103.487	-0.132	-0.031
-547.325	-69.216	0.233	-0.089
-546.310	-3.824	-0.313	0.217
-545.296	-119.555	-0.217	0.038
-544.281	626.215	-0.076	0.192
-543.266	366.578	0.142	-0.287
-542.252	-35.344	0.226	0.123
-541.237	-200.000	0.004	0.055
-540.223	85.500	-0.126	0.138
-539.208	-200.000	0.015	0.251
-538.193	800.000	-0.037	0.125
-537.179	-88.527	-0.192	-0.057
-536.164	-200.000	-0.063	0.279
-535.150	-129.281	-0.173	-0.024
-534.135	-111.160	0.148	0.030
-533.121	800.000	-0.037	-0.157
-532.106	263.348	-0.100	0.174
-531.091	-200.000	0.003	-0.013
-530.077	-96.686	-0.216	-0.057
-529.062	102.804	0.319	0.372
-528.048	254.534	-0.141	-0.241
-527.033	-53.309	0.265	-0.121
-526.018	5.834	-0.193	-0.142
-525.004	-200.000	-0.004	-0.028
-523.989	-200.000	-0.023	-0.111
-522.975	-84.108	0.178	0.056
-521.960	197.241	-0.090	0.137
-520.945	800.000	0.102	0.321
-519.931	87.562	-0.054	0.060
-518.916	-77.663	0.220	0.076
-517.902	13.004	0.311	0.240
-516.887	-87.579	-0.191	0.057
-515.872	241.526	-0.126	0.209
-514.858	-200.000	0.001	0.188
-513.843	25.313	0.133	0.110
-512.829	106.356	0.168	0.199
-511.814	-1.958	-0.116	0.081
-510.799	126.737	-0.050	-0.064
-509.785	20.632	-0.126	0.102
-508.770	-56.577	0.187	0.083
-507.756	398.541	0.108	0.226
-506.741	-200.000	-0.014	-0.130
-505.726	69.320	-0.054	-0.055
-504.712	800.000	-0.044	-0.151
-503.697	800.000	0.005	-0.015
-502.683	-166.722	-0.518	-0.021
-501.668	-181.950	-0.154	-0.003
-500.653	-200.000	-0.005	-0.087
-499.639	684.173	-0.139	0.361
-498.624	-114.681	0.181	0.034
-497.610	-65.218	-0.367	0.147
-496.595	-43.507	0.191	-0.096
-495.581	40.692	0.081	0.073
-494.566	-39.896	0.238	-0.124
-493.551	227.734	0.117	-0.190
-492.537	-200.000	-0.002	-0.273
-491.522	-127.512	0.363	-0.052
-490.508	-145.228	-0.178	0.016
-489.493	353.169	-0.044	-0.087
-488.478	-200.000	0.028	-0.213
-487.464	-171.781	-0.135	-0.004
-486.449	30.879	-0.121	0.103
-485.435	-62.617	0.089	-0.037
-484.420	-16.241	0.311	0.197
-483.405	800.000	-0.126	-0.430
-482.391	436.778	0.086	-0.186
-481.376	-71.597	0.237	-0.088
-480.362	96.371	-0.196	-0.223
-479.347	665.577	0.092	0.238
-478.332	800.000	-0.033	0.106
-477.318	-200.000	0.016	0.071
-476.303	231.792	0.051	0.084
-475.289	19.661	0.071	0.057
-474.274	219.810	-0.296	0.472
-473.259	-131.281	0.148	0.020
-472.245	176.189	-0.191	0.277
-471.230	-200.000	-0.066	-0.361
-470.216	-69.142	0.276	-0.106
-469.201	371.743	0.042	-0.084
-468.186	225.971	-0.010	-0.016
-467.172	-131.863	-0.500	0.065
-466.157	426.995	0.070	0.151
-465.143	776.095	-0.061	0.165
-464.128	104.641	-0.088	-0.103
-463.113	-200.000	-0.078	0.411
-462.099	405.701	-0.052	-0.109
-461.084	-183.642	0.212	0.004
-460.070	-56.006	-0.054	-0.024
-459.055	800.000	-0.033	-0.102
-458.040	-98.338	-0.133	0.034
-457.026	-71.820	-0.336	0.125
-456.011	800.000	-0.042	-0.131
-454.997	-200.000	-0.021	0.386
-453.982	-200.000	-0.013	0.060
-452.968	-200.000	-0.015	-0.146
-451.953	800.000	0.153	-0.426
-450.938	800.000	-0.053	0.177
-449.924	-200.000	0.020	0.277
-448.909	-25.927	0.392	-0.230
-447.895	800.000	-0.060	0.187
-446.880	191.346	-0.081	-0.121
-445.865	-100.033	0.181	-0.045
-444.851	-117.464	0.268	-0.048
-443.836	-192.166	0.187	0.002
-442.822	-200.000	0.008	0.170
-441.807	272.531	0.044	0.078
-440.792	800.000	0.045	-0.161
-439.778	-172.727	0.105	0.003
-438.763	-200.000	-0.259	0.001
-437.749	128.088	0.284	0.359
-436.734	33.453	0.059	-0.051
-435.719	23.321	-0.217	0.178
-434.705	-160.899	-0.058	0.003
-433.690	766.029	-0.094	0.255
-432.676	-60.704	0.125	0.053
-431.661	107.430	-0.045	-0.053
-430.646	313.904	-0.140	-0.262
-429.632	-96.124	-0.286	-0.075
-428.617	800.000	-0.108	0.338
-427.603	-200.000	-0.022	0.163
-426.588	-200.000	-0.005	-0.059
-425.573	-184.028	0.036	-0.001
-424.559	175.565	-0.112	-0.161
-423.544	-200.000	-0.022	-0.094
-422.530	-162.989	0.174	0.008
-421.515	62.904	-0.212	0.211
-420.500	195.512	0.117	-0.177
-419.486	-43.349	0.337	0.169
-418.471	30.499	-0.135	-0.115
-417.457	-177.369	0.206	0.005
-416.442	165.176	0.313	-0.439
-415.428	800.000	0.105	-0.300
-414.413	145.141	-0.075	-0.100
-413.398	-200.000	0.272	-0.001
-412.384	-200.000	-0.042	0.205
-411.369	112.968	0.150	0.181
-410.355	89.723	0.214	-0.237
-409.340	-200.000	0.040	0.210
-408.325	177.508	0.136	-0.196
-407.311	-113.782	0.223	0.043
-406.296	5.466	-0.104	-0.077
-405.282	191.692	-0.121	0.182
-404.267	128.769	-0.141	-0.178
-403.252	356.553	0.042	-0.084
-402.238	-152.457	-0.390	0.028
-401.223	-36.576	-0.374	0.200
-400.209	-200.000	-0.035	-0.157
-399.194	-182.817	0.257	-0.005
-398.179	800.000	-0.024	0.079
-397.165	37.892	-0.109	0.096
-396.150	48.600	-0.177	-0.164
-395.136	800.000	0.048	-0.135
-394.121	392.245	0.102	-0.211
-393.106	-18.937	-0.340	0.210
-392.092	691.960	-0.124	0.324
-391.077	483.232	-0.085	0.191
-390.063	-61.288	0.005	0.002
-389.048	241.318	-0.150	-0.248
-388.033	-67.453	-0.367	-0.143
-387.019	-200.000	-0.029	0.266
-386.004	20.528	0.279	-0.224
-384.990	-200.000	-0.007	0.120
-383.975	59.265	-0.076	-0.074
-382.960	-200.000	0.009	-0.052
-381.946	493.962	0.112	0.256
-380.931	-24.887	-0.183	-0.108
-379.917	800.000	-0.032	0.129
-378.902	800.000	0.008	-0.028
-377.888	-38.462	0.081	0.042
-376.873	-200.000	0.000	-0.133
-375.858	261.392	0.104	0.178
-374.844	-127.308	-0.244	-0.035
-373.829	-110.879	0.030	-0.006
-372.815	-12.833	0.243	0.157
-371.800	-85.853	-0.052	-0.016
-370.785	-200.000	0.037	-0.223
-369.771	-3.085	0.102	0.071
-368.756	-29.736	-0.196	-0.111
-367.742	269.121	0.068	-0.117
-366.727	800.000	-0.135	0.386
-365.712	-147.510	0.160	0.013
-364.698	25.849	-0.071	0.059
-363.683	-7.723	0.082	0.055
-362.669	-43.845	-0.123	0.061
-361.654	-38.120	0.057	0.030
-360.639	318.279	0.028	-0.052
-359.625	-65.586	0.322	0.128
-358.610	-11.526	-0.181	-0.118
-357.596	-15.751	0.286	-0.181
-356.581	-46.362	0.153	-0.074
-355.566	-200.000	0.006	0.124
-354.552	73.905	0.181	-0.189
-353.537	-180.037	-0.082	-0.002
-352.523	143.192	0.106	-0.140
-351.508	-87.942	-0.167	-0.050
-350.493	315.215	0.044	0.082
-349.479	-200.000	-0.022	-0.211
-348.464	-200.000	0.070	0.343
-347.450	527.143	0.125	0.291
-346.435	-200.000	-0.006	-0.047
-345.420	-85.732	0.647	0.199
-344.406	-200.000	-0.003	0.126
-343.391	305.567	0.070	-0.130
-342.377	49.199	-0.193	0.180
-341.362	135.837	0.155	-0.200
-340.348	338.168	-0.097	-0.187
-339.333	-131.653	0.247	-0.032
-338.318	57.096	0.260	0.252
-337.304	-200.000	0.039	0.218
-336.289	448.933	-0.054	0.118
-335.275	-73.141	-0.141	0.051
-334.260	-200.000	-0.074	0.342
-333.245	-76.673	0.131	-0.046
-332.231	26.410	-0.017	-0.014
-331.216	800.000	0.096	-0.285
-330.202	-57.781	0.110	-0.047
-329.187	-38.087	-0.222	0.117
-328.172	3.366	-0.133	-0.096
-327.158	-93.645	0.229	0.063
-326.143	-200.000	0.016	-0.251
-325.129	-200.000	0.029	-0.226
-324.114	-15.647	0.125	0.079
-323.099	-200.000	0.030	0.151
-322.085	-68.367	0.374	-0.144
-321.070	-52.800	-0.208	0.095
-320.056	-34.517	0.226	-0.122
-319.041	30.895	-0.174	-0.147
-318.026	-137.935	0.293	0.032
-317.012	-78.262	-0.336	0.114
-315.997	164.548	-0.205	-0.286
-314.983	-117.195	0.138	0.025
-313.968	-86.068	-0.292	-0.089
-312.953	-200.000	-0.030	0.169
-311.939	304.997	0.158	0.290
-310.924	-0.647	-0.146	0.102
-309.910	-200.000	-0.018	0.173
-308.895	-3.273	0.194	0.134
-307.880	166.257	-0.120	-0.169
-306.866	422.149	-0.076	-0.161
-305.851	-200.000	-0.001	-0.216
-304.837	86.185	-0.016	-0.017
-303.822	-200.000	-0.044	-0.316
-302.807	47.845	0.192	0.177
-301.793	192.575	0.167	0.250
-300.778	-55.196	-0.212	-0.094
-299.764	280.244	-0.048	-0.085
-298.749	800.000	0.027	-0.105
-297.735	800.000	0.066	0.205
-296.720	-32.758	0.292	0.161
-295.705	85.972	-0.154	0.167
-294.691	310.123	0.025	-0.046
-293.676	800.000	0.030	0.129
-292.662	-71.401	0.221	0.082
-291.647	-169.305	-0.334	-0.012
-290.632	-23.503	0.287	-0.170
-289.618	800.000	-0.024	0.073
-288.603	800.000	0.092	-0.267
-287.589	-37.778	0.200	-0.105
-286.574	188.056	0.108	-0.160
-285.559	321.318	0.047	-0.088
-284.545	-200.000	0.045	-0.412
-283.530	-200.000	-0.008	-0.332
-282.516	-200.000	-0.009	0.146
-281.501	-78.295	0.037	0.013
-280.486	-94.581	-0.221	0.060
-279.472	298.805	0.234	-0.426
-278.457	-103.351	0.134	-0.031
-277.443	15.306	0.303	0.235
-276.428	144.500	0.250	0.330
-275.413	-200.000	-0.015	-0.101
-274.399	-144.379	0.156	0.014
-273.384	63.846	-0.140	-0.139
-272.370	-200.000	-0.003	-0.099
-271.355	208.647	-0.176	-0.272
-270.340	731.059	-0.112	0.295
-269.326	202.630	0.071	0.108
-268.311	-76.746	-0.209	-0.072
-267.297	240.635	-0.186	-0.306
-266.282	-200.000	-0.011	-0.377
-265.267	43.220	-0.081	-0.073
-264.253	800.000	0.117	0.336
-263.238	-89.767	-0.234	-0.068
-262.224	-31.144	-0.224	-0.125
-261.209	19.382	-0.438	-0.348
-260.195	6.532	0.100	-0.073
-259.180	-200.000	0.037	-0.242
-258.165	-161.091	-0.332	-0.017
-257.151	174.995	-0.044	-0.063
-256.136	-89.028	-0.263	-0.077
-255.122	-10.657	0.153	0.100
-254.107	104.354	-0.086	-0.100
-253.092	238.149	-0.097	0.159
-252.078	30.184	-0.036	-0.031
-251.063	-74.366	0.230	0.082
-250.049	15.806	-0.044	-0.034
-249.034	-24.599	-0.268	-0.157
-248.019	-48.929	0.287	0.136
-247.005	-7.973	-0.116	0.077
-245.990	-125.549	0.372	-0.056
-244.976	-13.504	-0.290	-0.186
-243.961	800.000	0.093	0.265
-242.946	46.198	0.349	0.319
-241.932	-186.896	0.288	-0.004
-240.917	-200.000	0.018	-0.080
-239.903	-4.271	-0.292	-0.200
-238.888	-0.647	-0.339	-0.237
-237.873	800.000	-0.021	0.086
-236.859	-175.516	0.210	-0.006
-235.844	-200.000	-0.012	-0.165
-234.830	36.985	-0.144	-0.126
-233.815	3.331	-0.381	-0.274
-232.800	-88.460	-0.261	0.077
-231.786	-135.681	0.182	0.021
-230.771	-85.280	0.271	-0.084
-229.757	-36.361	0.138	0.074
-228.742	-200.000	-0.003	0.017
-227.727	-52.846	-0.031	-0.014
-226.713	-102.561	0.253	-0.060
-225.698	-42.581	-0.191	-0.096
-224.684	-40.799	-0.045	0.023
-223.669	249.595	-0.121	0.202
-222.655	-200.000	-0.038	0.000
-221.640	-175.479	0.451	-0.012
-220.625	493.355	0.056	0.127
-219.611	-185.556	0.224	-0.003
-218.596	800.000	-0.105	0.302
-217.582	-6.844	-0.065	0.044
-216.567	-11.944	0.214	0.138
-215.552	-200.000	-0.017	-0.085
-214.538	55.796	0.096	-0.091
-213.523	40.461	0.088	-0.078
-212.509	-148.497	-0.191	0.015
-211.494	-27.140	-0.317	-0.182
-210.479	-66.647	0.095	0.037
-209.465	-20.654	0.198	-0.120
-208.450	103.048	-0.175	0.202
-207.436	254.421	0.137	-0.231
-206.421	-55.082	-0.289	-0.128
-205.406	-200.000	0.049	-0.224
-204.392	-17.691	0.066	0.041
-203.377	-200.000	-0.054	0.424
-202.363	-38.865	0.313	-0.163
-201.348	-64.947	0.148	-0.059
-200.333	180.063	0.124	-0.179
-199.319	34.173	0.061	-0.053
-198.304	273.263	0.026	0.046
-197.290	800.000	0.025	-0.078
-196.275	-179.939	-0.226	0.005
-195.260	30.977	-0.258	0.218
-194.246	2.580	0.017	-0.012
-193.231	154.198	0.072	-0.097
-192.217	415.590	-0.125	0.262
-191.202	800.000	0.014	-0.047
-190.187	-200.000	0.007	0.399
-189.173	10.294	-0.129	0.097
-188.158	176.612	0.034	0.049
-187.144	265.177	0.088	0.151
-186.129	800.000	0.078	0.276
-185.114	-200.000	-0.014	0.204
-184.100	3.622	-0.118	0.085
-183.085	-24.843	0.257	-0.151
-182.071	-53.279	0.090	0.041
-181.056	52.450	0.117	0.110
-180.042	183.207	0.105	0.152
-179.027	800.000	-0.043	0.158
-178.012	-75.971	-0.306	-0.107
-176.998	-200.000	-0.030	0.433
-175.983	19.420	-0.170	0.135
-174.969	182.697	0.080	-0.116
-173.954	-25.730	-0.115	0.067
-172.939	-61.098	0.232	0.096
-171.925	67.001	0.243	-0.244
-170.910	27.527	-0.162	-0.134
-169.896	-200.000	0.011	0.154
-168.881	669.418	-0.082	-0.210
-167.866	-20.067	-0.083	-0.050
-166.852	34.456	-0.217	0.186
-165.837	441.770	0.197	0.424
-164.823	-60.414	0.163	-0.068
-163.808	-8.582	-0.227	0.150
-162.793	800.000	-0.056	-0.162
-161.779	58.196	0.255	-0.246
-160.764	-57.233	0.273	-0.118
-159.750	-200.000	-0.005	0.105
-158.735	-151.791	0.127	-0.009
-157.720	479.078	0.108	-0.240
-156.706	-15.207	-0.079	0.050
-155.691	136.315	0.127	0.163
-154.677	-200.000	0.014	0.091
-153.662	258.725	0.084	-0.142
-152.647	-136.743	-0.220	0.025
-151.633	136.477	0.080	0.103
-150.618	251.731	0.018	-0.030
-149.604	-16.144	0.186	0.116
-148.589	219.563	0.167	-0.262
-147.574	-49.956	-0.151	0.071
-146.560	243.518	0.226	0.373
-145.545	-50.277	-0.183	0.085
-144.531	-200.000	0.051	-0.286
-143.516	128.194	-0.110	0.138
-142.502	-20.336	0.137	-0.083
-141.487	-64.363	-0.184	0.074
-140.472	800.000	-0.028	0.105
-139.458	-54.560	0.133	-0.059
-138.443	-146.484	0.114	-0.010
-137.429	800.000	0.081	0.306
-136.414	107.828	-0.222	0.260
-135.399	-91.860	-0.071	-0.020
-134.385	-65.609	-0.392	0.155
-133.370	800.000	0.078	-0.214
-132.356	800.000	0.066	-0.278
-131.341	-200.000	-0.003	0.077
-130.326	-200.000	0.002	0.056
-129.312	-177.659	0.212	-0.005
-128.297	800.000	0.037	0.118
-127.283	-164.515	-0.332	0.015
-126.268	252.656	-0.141	-0.237
-125.253	428.270	-0.075	-0.160
-124.239	-164.642	0.075	0.003
-123.224	-103.725	0.270	-0.062
-122.210	143.225	-0.047	-0.062
-121.195	-126.171	-0.032	0.005
-120.180	2.538	-0.073	-0.052
-119.166	-129.361	0.301	0.041
-118.151	-18.171	0.088	0.054
-117.137	800.000	0.087	-0.269
-116.122	-88.071	-0.142	0.042
-115.107	-200.000	0.032	-0.346
-114.093	254.498	0.076	-0.128
-113.078	-41.883	0.274	0.138
-112.064	-113.699	-0.137	-0.026
-111.049	800.000	0.067	-0.261
-110.034	261.638	0.191	0.325
-109.020	7.752	-0.267	0.197
-108.005	800.000	0.124	-0.437
-106.991	-200.000	0.048	0.305
-105.976	-129.581	-0.154	-0.021
-104.962	24.495	-0.237	0.192
-103.947	73.977	-0.156	-0.161
-102.932	-22.583	-0.379	0.225
-101.918	800.000	0.036	0.100
-100.903	-161.987	0.533	0.026
-99.889	-200.000	-0.031	0.465
-98.874	-200.000	0.002	-0.123
-97.859	-36.621	0.081	-0.043
-96.845	800.000	0.075	-0.317
-95.830	102.661	-0.120	0.138
-94.816	179.737	0.218	-0.313
-93.801	-200.000	0.016	-0.068
-92.786	800.000	0.058	0.212
-91.772	-29.846	0.090	0.050
-90.757	121.803	0.191	0.233
-89.743	-200.000	0.023	-0.209
-88.728	-69.257	-0.177	0.067
-87.713	-117.480	0.068	0.012
-86.699	359.798	-0.226	-0.444
-85.684	306.165	0.127	-0.232
-84.670	-194.089	-0.110	0.001
-83.655	-29.323	0.610	0.342
-82.640	-200.000	-0.027	0.338
-81.626	113.775	0.106	0.127
-80.611	-71.487	0.074	0.027
-79.597	568.485	0.133	-0.316
-78.582	800.000	-0.067	-0.255
-77.567	-56.441	-0.365	0.159
-76.553	31.366	-0.168	0.141
-75.538	-194.810	-0.066	0.001
-74.524	-200.000	0.021	0.155
-73.509	-147.911	-0.264	0.022
-72.494	-55.482	-0.125	-0.055
-71.480	-33.693	0.053	-0.029
-70.465	40.745	-0.089	-0.079
-69.451	-86.487	0.134	-0.040
-68.436	-108.282	0.284	0.060
-67.422	15.835	0.108	0.083
-66.407	286.349	0.179	0.316
-65.392	-200.000	0.029	0.373
-64.378	-89.340	-0.197	0.057
-63.363	800.000	-0.027	0.110
-62.349	-64.535	0.249	-0.099
-61.334	-9.897	-1.132	-0.738
-60.319	231.837	0.350	0.562
-59.305	-200.000	0.007	-0.869
-58.290	344.132	0.696	1.338
-57.276	118.098	0.855	1.032
-56.261	-200.000	106.127	609.861
-55.246	500.125	1509.165	3410.461
-54.232	176.113	2702.048	3843.769
-53.217	111.617	2165.795	2560.105
-52.203	41.477	1598.675	1417.495
-51.188	32.986	1332.286	1130.690
-50.173	29.838	1290.749	1077.101
-49.159	53.898	1345.300	1266.318
-48.144	54.624	1360.077	1284.487
-47.130	33.056	1315.401	1116.597
-46.115	29.705	1297.297	1081.615
-45.100	29.450	1292.817	1076.352
-44.086	29.431	1290.088	1073.925
-43.071	29.412	1287.237	1071.399
-42.057	29.490	1284.935	1069.892
-41.042	29.391	1283.766	1068.307
-40.027	29.498	1282.320	1067.676
-39.013	29.370	1280.873	1065.692
-37.998	29.386	1278.795	1064.010
-36.984	29.481	1276.906	1062.943
-35.969	29.548	1274.820	1061.554
-34.954	29.554	1273.375	1060.340
-33.940	29.563	1271.961	1059.173
-32.925	29.635	1270.410	1058.252
-31.911	29.523	1269.456	1056.775
-30.896	29.585	1268.196	1056.039
-29.881	29.575	1266.995	1054.936
-28.867	29.603	1265.309	1053.654
-27.852	29.617	1263.659	1052.316
-26.838	29.558	1262.391	1050.882
-25.823	29.624	1261.161	1050.194
-24.809	29.635	1259.913	1049.174
-23.794	29.478	1258.539	1047.099
-22.779	29.621	1257.222	1046.769
-21.765	29.589	1255.954	1045.491
-20.750	29.597	1254.504	1044.289
-19.736	29.479	1253.240	1042.527
-18.721	29.555	1251.898	1041.801
-17.706	29.515	1250.702	1040.538
-16.692	29.557	1249.493	1039.728
-15.677	29.531	1248.800	1038.961
-14.663	29.463	1247.691	1037.616
-13.648	29.449	1246.719	1036.691
-12.633	29.444	1245.689	1035.761
-11.619	29.370	1245.050	1034.778
-10.604	29.406	1244.028	1034.084
-9.590	29.347	1243.133	1032.971
-8.575	29.462	1241.863	1032.519
-7.560	29.402	1241.243	1031.625
-6.546	29.411	1240.601	1031.100
-5.531	29.303	1239.686	1029.699
-4.517	29.426	1238.819	1029.625
-3.502	29.486	1237.482	1028.803
-2.487	29.443	1236.786	1027.949
-1.473	29.427	1232.764	1024.476
-0.458	28.157	1218.087	1005.265
0.556	22.352	1201.434	968.956
1.571	18.910	1206.846	954.159
2.586	18.277	1220.875	961.609
3.600	18.172	1210.430	952.713
4.615	13.588	1139.842	872.977
5.629	4.700	1065.543	772.060
6.644	0.176	1045.422	735.352
7.659	-0.219	1042.651	731.413
8.673	-0.374	1041.956	730.105
9.688	-0.322	1039.851	728.815
10.702	0.227	1038.492	730.464
11.717	6.144	1047.351	765.510
12.731	15.106	1060.179	818.819
13.746	19.604	1065.542	844.942
14.761	20.791	1066.943	851.792
15.775	20.805	1066.217	851.206
16.790	20.616	1065.804	849.877
17.804	20.636	1064.584	848.925
18.819	20.714	1064.509	849.172
19.834	20.776	1063.667	848.726
20.848	20.797	1063.474	848.597
21.863	20.807	1063.290	848.424
22.877	20.731	1062.485	847.339
23.892	20.607	1061.727	846.057
24.907	20.620	1061.082	845.533
25.921	20.684	1060.017	844.918
26.936	20.652	1058.536	843.508
27.950	20.696	1056.633	842.131
28.965	20.592	1054.936	840.199
29.980	20.567	1053.877	839.160
30.994	20.840	1052.495	839.301
32.009	20.850	1051.362	838.375
33.023	20.515	1050.055	835.646
34.038	20.725	1049.222	835.920
35.053	20.818	1048.548	835.754
36.067	20.872	1047.805	835.346
37.082	20.816	1047.046	834.401
38.096	21.060	1046.343	834.930
39.111	21.065	1045.496	834.207
40.126	20.839	1044.440	832.213
41.140	20.493	1042.878	829.242
42.155	20.334	1041.266	827.127
43.169	20.407	1040.078	826.458
44.184	20.490	1039.109	826.011
45.199	20.380	1038.437	824.880
46.213	20.383	1037.722	824.253
47.228	20.589	1036.561	824.237
48.242	20.708	1035.616	823.974
49.257	20.735	1034.810	823.391
50.271	20.704	1034.219	822.699
51.286	20.848	1033.508	822.741
52.301	20.955	1032.033	821.997
53.315	20.821	1031.049	820.511
54.330	20.805	1030.685	820.072
55.344	20.843	1029.750	819.436
56.359	20.723	1029.090	818.272
57.374	20.577	1027.728	816.434
58.388	20.550	1027.263	815.865
59.403	20.606	1026.161	815.181
60.417	20.461	1025.459	813.872
61.432	20.497	1025.381	813.905
62.447	20.527	1024.554	813.317
63.461	20.562	1023.748	812.769
64.476	20.504	1022.481	811.418
65.490	20.495	1021.787	810.755
66.505	20.573	1020.742	810.219
67.520	20.399	1020.177	808.887
68.534	20.383	1018.892	807.725
69.549	20.008	1017.722	804.983
70.563	20.104	1017.279	805.004
71.578	20.113	1016.265	804.176
72.593	20.038	1014.931	802.700
73.607	20.145	1014.437	802.731
74.622	20.414	1014.563	804.006
75.636	20.449	1013.391	803.169
76.651	20.154	1013.521	801.839
77.666	20.174	1012.471	801.030
78.680	20.336	1010.817	800.398
79.695	20.262	1010.400	799.655
80.709	20.431	1009.972	800.021
81.724	20.492	1008.607	799.152
82.739	20.347	1008.550	798.368
83.753	20.678	1007.863	799.276
84.768	21.080	1006.758	800.172
85.782	21.145	1006.215	799.968
86.797	21.129	1004.873	798.758
87.812	20.787	1004.395	796.743
88.826	20.986	1003.351	796.751
89.841	20.983	1002.296	795.829
90.855	20.828	1001.455	794.384
91.870	20.857	1000.675	793.827
92.884	20.873	999.397	792.819
93.899	20.912	998.012	791.826
94.914	20.983	997.976	792.049
95.928	20.842	996.471	790.146
96.943	20.576	995.349	787.980
97.957	20.406	993.859	785.964
98.972	20.355	992.718	784.761
99.987	20.499	992.720	785.341
101.001	20.662	991.965	785.412
102.016	20.777	990.801	784.938
103.030	20.656	989.988	783.681
104.045	20.513	988.881	782.092
105.060	20.213	988.121	780.070
106.074	20.652	987.047	781.129
107.089	20.849	986.980	781.888
108.103	20.624	985.824	779.896
109.118	20.465	984.175	777.812
110.133	20.609	982.985	777.445
111.147	20.401	981.445	775.232
112.162	20.350	980.161	773.917
113.176	20.525	980.072	774.562
114.191	20.314	979.209	772.870
115.206	20.101	978.214	771.071
116.220	20.148	977.165	770.383
117.235	20.253	976.766	770.465
118.249	20.321	975.722	769.878
119.264	20.206	974.781	768.558
120.279	20.254	974.189	768.234
121.293	20.193	973.890	767.661
122.308	20.379	972.660	767.447
123.322	20.223	971.580	765.835
124.337	20.141	969.995	764.156
125.352	19.695	967.633	760.267
126.366	19.586	967.165	759.352
127.381	20.294	967.804	762.903
128.395	20.780	966.816	764.188
129.410	20.846	965.689	763.519
130.424	20.847	964.868	762.809
131.439	20.808	964.198	762.039
132.454	20.656	963.346	760.635
133.468	20.574	962.420	759.479
134.483	20.804	961.497	759.686
135.497	20.958	960.781	759.727
136.512	20.884	960.104	758.802
137.527	21.043	958.943	758.506
138.541	20.940	958.199	757.404
139.556	20.966	957.499	756.895
140.570	20.902	957.337	756.425
141.585	21.070	955.376	755.536
142.600	20.917	954.844	754.384
143.614	21.105	954.667	754.993
144.629	21.139	953.539	754.179
145.643	21.054	952.024	752.550
146.658	20.906	951.022	751.050
147.673	20.962	949.169	749.762
148.687	20.879	948.770	749.025
149.702	20.826	947.538	747.760
150.716	20.683	947.194	746.805
151.731	20.786	946.149	746.359
152.746	21.111	945.487	747.164
153.760	21.279	944.876	747.331
154.775	21.273	943.925	746.488
155.789	21.076	943.400	745.164
156.804	21.098	942.267	744.300
157.819	21.151	941.330	743.718
158.833	21.392	940.883	744.324
159.848	21.383	939.978	743.505
160.862	21.163	938.355	741.222
161.877	21.133	937.633	740.458
162.892	21.202	936.959	740.154
163.906	21.080	935.570	738.476
164.921	21.040	935.275	738.008
165.935	21.195	934.021	737.604
166.950	21.298	932.498	736.775
167.964	21.127	932.381	735.894
168.979	20.969	931.213	734.244
169.994	20.827	930.621	733.111
171.008	21.258	929.744	734.170
172.023	21.139	928.960	732.987
173.037	21.008	927.780	731.440
174.052	20.700	927.025	729.488
175.067	20.861	926.679	729.826
176.081	21.099	925.636	729.935
177.096	20.981	925.273	729.090
178.110	20.703	924.269	727.074
179.125	20.498	923.716	725.719
180.140	20.649	923.101	725.804
181.154	20.704	922.985	725.877
182.169	20.898	922.499	726.238
183.183	21.166	921.768	726.716
184.198	21.112	920.897	725.741
185.213	21.054	920.331	724.990
186.227	21.065	919.774	724.533
187.242	21.115	918.817	723.919
188.256	21.153	918.234	723.556
189.271	21.183	917.452	722.998
190.286	20.920	916.242	720.892
191.300	20.490	914.513	717.694
192.315	19.581	913.428	713.025
193.329	19.640	913.084	712.937
194.344	20.495	913.594	716.800
195.359	20.983	913.563	718.728
196.373	21.066	912.633	718.271
197.388	20.867	912.066	716.944
198.402	20.994	911.495	716.953
199.417	20.993	910.967	716.472
200.432	20.750	909.738	714.443
201.446	20.491	909.415	713.066
202.461	20.641	908.415	712.834
203.475	19.718	906.564	707.540
204.490	19.138	905.194	704.037
205.504	20.078	905.502	708.060
206.519	20.681	905.691	710.608
207.534	20.710	905.575	710.571
208.548	21.065	905.182	711.650
209.563	20.665	904.096	709.104
210.577	20.900	903.324	709.392
211.592	21.322	902.683	710.541
212.607	20.978	902.239	708.731
213.621	21.050	901.760	708.584
214.636	21.280	900.633	708.568
215.650	21.209	899.756	707.528
216.665	21.303	899.114	707.339
217.680	21.167	898.682	706.388
218.694	20.812	897.160	703.694
219.709	20.546	896.767	702.248
220.723	20.851	896.247	703.011
221.738	21.083	895.214	703.076
222.753	21.092	894.987	702.870
223.767	21.019	895.017	702.537
224.782	21.394	894.329	703.446
225.796	21.238	893.664	702.231
226.811	20.812	891.744	698.951
227.826	19.968	891.000	694.921
228.840	20.245	890.466	695.555
229.855	20.401	889.801	695.597
230.869	19.976	888.647	692.934
231.884	20.336	888.800	694.433
232.899	21.129	888.748	697.501
233.913	20.914	888.242	696.182
234.928	21.019	887.618	696.053
235.942	20.877	886.841	694.814
236.957	20.630	886.049	693.147
237.972	20.617	885.565	692.656
238.986	20.791	885.179	692.984
240.001	20.754	884.438	692.196
241.015	20.922	883.503	692.072
242.030	21.074	883.435	692.559
243.045	21.141	883.032	692.448
244.059	21.135	882.586	692.015
245.074	20.958	881.504	690.405
246.088	20.599	880.472	688.115
247.103	20.975	880.141	689.283
248.117	21.470	880.212	691.234
249.132	21.663	879.915	691.700
250.147	21.766	878.937	691.276
251.161	21.923	878.489	691.481
252.176	21.639	878.236	690.101
253.190	21.929	877.858	690.887
254.205	22.044	876.749	690.406
255.220	22.018	875.935	689.601
256.234	21.882	875.509	688.670
257.249	21.689	875.096	687.529
258.263	21.732	873.936	686.722
259.278	22.022	873.156	687.184
260.293	21.973	872.971	686.788
261.307	21.805	872.038	685.337
262.322	21.548	871.004	683.459
263.336	20.840	869.232	679.249
264.351	19.880	867.209	673.871
265.366	20.047	867.212	674.463
266.380	21.031	868.140	678.960
267.395	21.628	867.295	680.559
268.409	21.481	866.679	679.445
269.424	21.564	866.755	679.767
270.439	21.717	865.575	679.372
271.453	21.730	865.353	679.190
272.468	21.847	865.132	679.411
273.482	21.947	864.332	679.107
274.497	21.487	862.943	676.178
275.512	21.200	861.904	674.198
276.526	21.598	862.513	676.151
277.541	21.813	862.066	676.569
278.555	21.611	860.747	674.697
279.570	21.360	859.926	673.029
280.585	21.636	859.450	673.659
281.599	21.578	858.442	672.583
282.614	20.929	857.207	669.067
283.628	20.971	856.954	668.971
284.643	21.234	856.941	669.912
285.657	20.930	855.415	667.495
286.672	20.673	854.821	665.990
287.687	21.177	854.914	667.931
288.701	21.247	854.102	667.505
289.716	20.993	853.400	665.928
290.730	20.766	853.001	664.690
291.745	20.722	851.667	663.425
292.760	21.015	851.721	664.526
293.774	21.959	852.073	668.337
294.789	22.200	851.991	669.131
295.803	22.224	851.011	668.394
296.818	22.316	850.175	668.025
297.833	21.897	849.478	665.830
298.847	21.570	848.987	664.147
299.862	21.998	848.997	665.720
300.876	22.249	848.395	666.138
301.891	22.092	847.636	664.887
302.906	21.601	846.717	662.254
303.920	21.869	846.244	662.836
304.935	22.063	845.623	663.026
305.949	22.068	844.842	662.373
306.964	21.730	844.495	660.769
307.979	22.024	844.164	661.557
308.993	22.345	843.769	662.399
310.008	22.329	842.946	661.632
311.022	22.069	842.589	660.316
312.037	22.043	841.485	659.297
313.052	21.549	841.007	657.008
314.066	20.903	839.396	653.270
315.081	20.679	838.630	651.780
316.095	21.411	839.641	655.251
317.110	21.961	838.864	656.645
318.125	20.996	837.491	651.907
319.139	20.015	836.060	647.073
320.154	20.148	835.444	647.034
321.168	21.120	835.889	650.951
322.183	21.690	835.748	652.906
323.197	21.826	835.740	653.349
324.212	21.942	835.642	653.647
325.227	22.108	834.732	653.496
326.241	22.002	833.817	652.326
327.256	21.726	833.238	650.791
328.270	21.677	832.789	650.200
329.285	21.531	832.158	649.108
330.300	21.369	830.990	647.540
331.314	21.505	830.951	647.956
332.329	22.112	830.660	649.919
333.343	22.206	830.129	649.793
334.358	22.132	830.250	649.556
335.373	22.159	830.207	649.567
336.387	22.371	829.678	649.879
337.402	22.532	829.701	650.432
338.416	22.342	829.131	649.227
339.431	22.500	828.624	649.354
340.446	22.653	828.253	649.570
341.460	22.520	827.658	648.557
342.475	22.331	827.129	647.389
343.489	22.402	827.245	647.685
344.504	22.751	826.437	648.275
345.519	22.998	825.873	648.682
346.533	22.963	825.744	648.398
347.548	22.744	825.413	647.277
348.562	22.796	824.548	646.731
349.577	22.843	824.028	646.437
350.592	22.892	823.571	646.201
351.606	22.833	822.822	645.340
352.621	22.693	821.913	644.059
353.635	22.650	821.307	643.369
354.650	21.978	819.582	639.514
355.665	20.906	818.004	634.328
356.679	21.523	817.926	636.457
357.694	21.805	817.828	637.348
358.708	21.757	817.326	636.727
359.723	22.146	817.086	637.896
360.738	22.382	816.617	638.330
361.752	22.713	815.863	638.883
362.767	22.912	815.789	639.488
363.781	23.208	815.227	640.062
364.796	23.228	815.214	640.065
365.810	23.160	814.635	639.311
366.825	23.246	813.932	639.012
367.840	22.818	813.403	636.996
368.854	22.605	812.470	635.441
369.869	22.580	812.218	635.098
370.883	22.671	811.696	634.960
371.898	22.512	811.030	633.812
372.913	22.669	810.672	634.042
373.927	22.787	810.364	634.169
374.942	22.659	810.369	633.656
375.956	23.074	809.544	634.444
376.971	23.030	809.342	634.072
377.986	23.253	809.090	634.617
379.000	23.138	808.374	633.587
380.015	22.945	807.911	632.478
381.029	23.057	807.095	632.184
382.044	23.178	806.734	632.279
383.059	23.174	806.341	631.899
384.073	23.223	805.601	631.437
385.088	23.264	805.057	631.103
386.102	23.010	804.223	629.487
387.117	22.913	803.729	628.701
388.132	22.462	802.964	626.444
389.146	22.086	801.916	624.232
390.161	22.309	802.192	625.186
391.175	22.880	802.050	627.049
392.190	22.584	800.736	624.917
393.205	21.171	798.830	618.370
394.219	19.780	797.025	611.999
395.234	19.906	796.836	612.247
396.248	21.411	798.263	618.618
397.263	22.745	798.976	623.833
398.278	22.541	798.549	622.726
399.292	22.461	798.054	622.002
400.307	22.608	797.135	621.750
401.321	22.544	797.195	621.514
402.336	23.070	796.872	623.063
403.350	23.418	796.637	624.048
404.365	23.642	796.422	624.615
405.380	23.842	796.196	625.084
406.394	24.008	795.435	625.016
407.409	23.822	795.116	624.055
408.423	23.690	795.120	623.541
409.438	23.893	794.440	623.665
410.453	23.957	794.168	623.620
411.467	23.667	793.736	622.208
412.482	23.865	792.637	621.985
413.496	23.919	792.342	621.887
414.511	23.774	792.339	621.325
415.526	23.868	791.767	621.147
416.540	23.653	791.257	619.941
417.555	23.513	790.502	618.806
418.569	23.542	789.931	618.407
419.584	23.396	789.618	617.598
420.599	23.411	788.631	616.826
421.613	157.432	1365.369	1797.554
422.628	136.262	1449.395	1797.632
