DTS Sentinel unit serial number:	SN413079Multiplexer serial number:	ORYXHardware model number:	OX4-SRSoftware version number:	ORYX F/W v4.00 Oryx Data Collector v3.7.2.0data status	okinstallation	princeton_trtdifferential loss correction	single-endedforward channel	channel 1reverse channel	N/Adate	2019/09/11time	11:44:11forward acquisition time	60.00reverse acquisition time	0.00gamma	496.2192k internal	0.2293k external	0.2293temperature offset calibration	0.9947default loss term (dB/km)	0.3790temperature slope calibration	1.0000multiplexer offset coefficient	1.0000multiplexer slope coefficient	1.0000fibre end	0.00T internal ref (°C)	38.58T ext. ref 1 (°C)	0.17T ext. ref 2 (°C)	36.30length (m)	temperature (°C)	Stokes	anti-Stokes-747.200	-182.476	0.256	0.005
-746.185	146.954	-0.115	0.159
-745.171	6.727	-0.326	0.248
-744.156	96.776	0.190	0.223
-743.142	-67.713	-0.195	-0.078
-742.127	-200.000	0.066	0.353
-741.112	-200.000	0.017	0.260
-740.098	26.275	0.137	-0.117
-739.083	87.587	-0.042	0.048
-738.069	398.263	0.111	0.238
-737.054	694.062	0.010	0.027
-736.039	800.000	0.068	-0.238
-735.025	99.824	0.191	0.227
-734.010	-141.658	0.236	0.024
-732.996	217.509	-0.151	0.246
-731.981	-98.645	-0.468	-0.122
-730.966	114.185	-0.307	-0.382
-729.952	331.407	-0.112	-0.221
-728.937	-55.433	-0.246	-0.113
-727.923	435.109	0.065	-0.145
-726.908	-162.734	-0.079	0.004
-725.894	-96.835	-0.261	-0.070
-724.879	-95.148	0.261	0.072
-723.864	40.747	0.092	0.084
-722.850	-22.797	0.287	-0.177
-721.835	-0.449	-0.143	-0.104
-720.821	-55.549	0.243	0.111
-719.806	800.000	-0.070	0.244
-718.791	-200.000	0.059	0.337
-717.777	-82.883	-0.180	-0.059
-716.762	-162.330	0.121	-0.006
-715.748	506.510	0.119	-0.282
-714.733	-165.289	0.200	-0.009
-713.718	-58.052	0.296	-0.132
-712.704	222.673	-0.066	-0.109
-711.689	412.178	-0.122	-0.264
-710.675	-106.874	0.322	-0.073
-709.660	-107.869	-0.185	0.041
-708.645	-100.667	-0.096	0.024
-707.631	23.834	0.336	-0.283
-706.616	-64.118	0.348	-0.145
-705.602	10.269	0.255	0.198
-704.587	-67.073	0.337	0.136
-703.572	71.696	-0.116	0.124
-702.558	256.538	0.067	0.117
-701.543	-20.249	-0.347	-0.219
-700.529	-200.000	-0.009	-0.196
-699.514	520.058	-0.114	-0.273
-698.499	81.552	-0.306	-0.338
-697.485	-104.847	-0.342	-0.080
-696.470	-200.000	-0.024	-0.129
-695.456	243.105	0.148	-0.253
-694.441	29.958	0.244	-0.213
-693.426	276.963	0.029	-0.053
-692.412	10.887	0.212	-0.166
-691.397	-200.000	0.020	-0.399
-690.383	800.000	0.101	-0.286
-689.368	800.000	0.063	0.266
-688.354	338.775	-0.137	-0.272
-687.339	-200.000	0.012	0.235
-686.324	-41.233	0.431	0.227
-685.310	-129.886	-0.403	0.057
-684.295	-167.689	0.196	0.008
-683.281	800.000	0.042	-0.187
-682.266	-200.000	-0.014	0.212
-681.251	-114.065	-0.242	0.048
-680.237	-200.000	0.046	0.271
-679.222	116.566	0.245	0.307
-678.208	24.089	0.237	-0.200
-677.193	351.869	0.151	-0.305
-676.178	165.784	0.236	0.341
-675.164	-176.375	0.069	-0.002
-674.149	-90.913	-0.204	0.060
-673.135	-81.732	-0.300	-0.100
-672.120	-19.961	-0.346	0.218
-671.105	29.884	-0.135	0.117
-670.091	-10.028	0.197	0.134
-669.076	113.426	0.062	0.076
-668.062	33.774	-0.066	-0.059
-667.047	76.136	0.100	-0.108
-666.032	-200.000	0.004	0.325
-665.018	181.491	0.133	0.200
-664.003	-200.000	-0.041	-0.231
-662.989	-21.830	-0.149	-0.093
-661.974	-111.674	-0.295	0.061
-660.959	-35.030	0.194	-0.108
-659.945	8.317	-0.274	-0.210
-658.930	-200.000	0.031	0.230
-657.916	-92.606	-0.235	-0.067
-656.901	-58.729	-0.186	-0.082
-655.886	585.598	0.127	-0.318
-654.872	-74.023	-0.150	-0.055
-653.857	59.778	0.235	0.236
-652.843	-200.000	0.024	-0.158
-651.828	-182.720	-0.237	-0.004
-650.814	-103.928	0.319	0.076
-649.799	200.010	0.131	-0.205
-648.784	-90.910	0.282	-0.083
-647.770	800.000	0.054	0.204
-646.755	-173.776	0.105	-0.003
-645.741	233.120	0.067	0.112
-644.726	-87.070	0.100	-0.031
-643.711	-200.000	-0.054	-0.466
-642.697	170.326	0.063	0.092
-641.682	-22.153	-0.228	-0.141
-640.668	303.792	-0.172	0.324
-639.653	-130.490	0.167	0.023
-638.638	49.451	-0.173	-0.166
-637.624	-200.000	0.040	-0.390
-636.609	-200.000	-0.021	-0.162
-635.595	129.564	0.149	-0.194
-634.580	-22.003	0.134	0.083
-633.565	247.526	0.254	0.437
-632.551	-35.808	-0.370	-0.204
-631.536	-200.000	0.158	0.000
-630.522	-27.864	0.397	-0.234
-629.507	13.576	0.194	-0.153
-628.492	-200.000	-0.006	0.178
-627.478	1.009	-0.256	-0.187
-626.463	0.938	0.063	0.046
-625.449	-109.899	-0.131	-0.028
-624.434	-200.000	-0.002	0.091
-623.419	102.847	-0.078	0.093
-622.405	-190.425	0.089	0.001
-621.390	-33.142	0.051	0.029
-620.376	-54.352	-0.078	0.036
-619.361	-200.000	-0.008	-0.220
-618.346	800.000	0.066	-0.269
-617.332	-43.653	0.115	0.059
-616.317	202.971	-0.221	0.348
-615.303	589.083	-0.091	-0.229
-614.288	-200.000	0.012	-0.082
-613.273	800.000	-0.026	-0.097
-612.259	-50.533	0.037	-0.018
-611.244	546.511	-0.126	-0.307
-610.230	377.585	0.208	-0.433
-609.215	-101.257	-0.126	0.031
-608.201	-134.940	0.216	0.027
-607.186	-200.000	0.066	-0.389
-606.171	-200.000	0.017	-0.096
-605.157	-75.273	0.250	0.091
-604.142	-107.401	0.073	0.016
-603.128	455.107	0.055	0.124
-602.113	241.773	0.184	-0.313
-601.098	-200.000	0.019	-0.131
-600.084	-200.000	-0.018	-0.126
-599.069	44.964	0.073	0.068
-598.055	800.000	0.069	0.294
-597.040	72.890	-0.225	-0.239
-596.025	-26.713	-0.260	0.155
-595.011	-200.000	-0.009	-0.346
-593.996	140.833	-0.153	0.205
-592.982	465.814	0.027	0.061
-591.967	62.771	0.116	-0.118
-590.952	-200.000	-0.022	0.115
-589.938	580.883	-0.111	0.276
-588.923	-200.000	0.050	0.378
-587.909	-200.000	-0.004	-0.040
-586.894	-200.000	-0.019	-0.175
-585.879	800.000	0.057	0.160
-584.865	-200.000	-0.003	-0.078
-583.850	165.011	0.036	0.051
-582.836	-103.674	0.218	0.052
-581.821	233.698	-0.091	-0.152
-580.806	242.840	-0.113	0.192
-579.792	63.486	-0.053	-0.054
-578.777	476.253	0.050	0.114
-577.763	-102.150	0.272	0.066
-576.748	244.868	-0.104	-0.179
-575.733	-92.414	-0.155	-0.044
-574.719	367.243	-0.049	0.101
-573.704	800.000	-0.124	0.396
-572.690	-61.555	0.066	0.028
-571.675	-90.188	-0.468	0.138
-570.661	-200.000	-0.004	0.434
-569.646	188.048	0.057	0.086
-568.631	513.675	-0.025	-0.058
-567.617	-200.000	0.004	0.037
-566.602	18.906	0.063	0.051
-565.588	-42.198	-0.207	0.108
-564.573	394.638	0.155	-0.328
-563.558	174.867	-0.086	-0.127
-562.544	800.000	-0.066	-0.238
-561.529	-114.496	-0.091	0.018
-560.515	23.661	0.242	0.203
-559.500	800.000	-0.153	-0.449
-558.485	85.502	0.101	0.113
-557.471	800.000	0.075	-0.217
-556.456	76.698	-0.080	0.086
-555.442	128.778	-0.162	0.210
-554.427	302.615	0.047	-0.089
-553.412	398.966	-0.047	0.100
-552.398	129.149	-0.268	0.347
-551.383	401.991	0.103	-0.220
-550.369	205.314	0.121	0.191
-549.354	-200.000	0.039	0.182
-548.339	-38.491	0.148	0.080
-547.325	-106.784	-0.336	0.076
-546.310	-38.800	0.356	0.191
-545.296	-62.516	0.219	0.092
-544.281	48.167	-0.139	0.132
-543.266	45.512	-0.218	-0.204
-542.252	-12.675	-0.280	0.185
-541.237	12.335	-0.199	0.156
-540.223	-12.528	0.161	0.107
-539.208	-57.558	-0.121	-0.054
-538.193	800.000	-0.019	-0.084
-537.179	-24.908	0.282	0.170
-536.164	-165.673	-0.309	-0.014
-535.150	-156.749	-0.222	0.014
-534.135	313.317	-0.224	0.427
-533.121	-40.671	0.131	-0.069
-532.106	-82.402	-0.043	0.014
-531.091	141.912	-0.134	-0.181
-530.077	655.038	0.105	-0.273
-529.062	-97.176	0.320	0.085
-528.048	800.000	-0.059	-0.243
-527.033	496.559	-0.156	-0.365
-526.018	137.480	0.202	-0.268
-525.004	-47.452	0.016	0.008
-523.989	-79.252	0.132	0.045
-522.975	800.000	0.015	0.056
-521.960	130.257	-0.027	0.035
-520.945	-25.366	-0.293	-0.176
-519.931	3.084	0.176	0.130
-518.916	31.294	0.067	-0.058
-517.902	19.804	-0.143	-0.117
-516.887	65.266	0.091	-0.093
-515.872	-200.000	0.043	0.283
-514.858	749.400	-0.048	-0.131
-513.843	-67.377	-0.152	-0.061
-512.829	-15.848	0.155	-0.100
-511.814	-85.656	0.296	-0.093
-510.799	-8.336	-0.252	-0.172
-509.785	800.000	-0.094	-0.266
-508.770	98.366	-0.085	-0.099
-507.756	115.240	-0.170	0.211
-506.741	437.829	0.054	-0.118
-505.726	122.944	0.117	0.149
-504.712	-163.266	-0.372	0.018
-503.697	-76.108	0.332	0.119
-502.683	-178.601	-0.231	-0.005
-501.668	-200.000	0.004	0.280
-500.653	-200.000	-0.049	-0.224
-499.639	-127.997	-0.112	-0.016
-498.624	55.453	-0.147	-0.144
-497.610	-57.154	-0.411	-0.183
-496.595	-125.705	-0.343	-0.053
-495.581	-20.518	-0.202	0.126
-494.566	-200.000	-0.014	0.194
-493.551	526.007	0.033	-0.078
-492.537	107.045	-0.238	-0.286
-491.522	800.000	-0.101	-0.448
-490.508	65.924	-0.186	0.191
-489.493	-17.172	-0.127	0.081
-488.478	-63.269	-0.118	0.049
-487.464	38.438	0.186	0.168
-486.449	122.180	-0.107	0.135
-485.435	-83.289	-0.256	-0.083
-484.420	-46.300	-0.165	-0.082
-483.405	-185.879	-0.183	0.003
-482.391	-200.000	-0.040	0.269
-481.376	171.617	0.156	0.226
-480.362	373.921	0.066	0.136
-479.347	-200.000	-0.009	-0.171
-478.332	640.939	-0.154	0.396
-477.318	379.721	0.051	-0.106
-476.303	-23.840	-0.201	0.122
-475.289	-98.203	-0.111	-0.029
-474.274	137.576	-0.185	-0.246
-473.259	-167.589	-0.212	0.009
-472.245	125.709	0.094	-0.120
-471.230	132.577	-0.069	0.091
-470.216	195.214	0.088	-0.135
-469.201	25.735	0.280	0.236
-468.186	-119.934	0.133	0.023
-467.172	-200.000	0.020	0.130
-466.157	-148.897	-0.435	-0.036
-465.143	800.000	-0.023	0.072
-464.128	-200.000	-0.018	0.266
-463.113	-200.000	0.021	0.111
-462.099	-200.000	-0.016	-0.081
-461.084	-200.000	0.001	-0.168
-460.070	800.000	-0.069	0.209
-459.055	-44.296	0.341	-0.173
-458.040	-14.996	-0.155	0.100
-457.026	-3.510	0.174	0.122
-456.011	-134.662	0.285	0.035
-454.997	-6.617	0.198	-0.136
-453.982	429.667	0.072	0.157
-452.968	-22.889	-0.317	0.193
-451.953	288.214	0.089	0.163
-450.938	33.620	0.178	-0.157
-449.924	458.620	0.021	0.047
-448.909	-77.019	-0.057	-0.020
-447.895	800.000	-0.038	0.126
-446.880	-20.181	0.327	-0.204
-445.865	800.000	0.073	-0.226
-444.851	-40.008	-0.220	0.116
-443.836	-200.000	-0.064	0.324
-442.822	222.103	-0.122	0.199
-441.807	-140.264	0.139	-0.015
-440.792	800.000	-0.071	0.225
-439.778	682.899	-0.046	0.122
-438.763	-17.623	-0.050	0.032
-437.749	-73.819	0.357	-0.131
-436.734	-168.809	0.158	-0.006
-435.719	-200.000	-0.168	0.001
-434.705	3.076	-0.383	0.281
-433.690	-119.804	-0.255	0.044
-432.676	-200.000	0.010	-0.063
-431.661	-151.534	0.287	0.021
-430.646	-69.254	-0.115	0.045
-429.632	-87.491	0.118	-0.036
-428.617	207.994	-0.048	0.076
-427.603	219.077	0.122	0.197
-426.588	-155.445	-0.378	0.025
-425.573	38.699	0.057	-0.051
-424.559	317.649	-0.087	-0.166
-423.544	800.000	0.049	-0.166
-422.530	465.936	0.107	0.242
-421.515	17.051	0.335	-0.268
-420.500	-119.656	0.213	-0.037
-419.486	-194.750	0.421	-0.003
-418.471	136.743	-0.168	0.221
-417.457	-200.000	-0.006	0.077
-416.442	-200.000	0.003	-0.208
-415.428	28.263	-0.117	-0.100
-414.413	-72.488	-0.108	-0.040
-413.398	-71.195	-0.049	-0.019
-412.384	-113.326	0.071	0.014
-411.369	800.000	0.053	-0.231
-410.355	374.709	0.082	-0.169
-409.340	86.662	0.200	-0.222
-408.325	638.513	-0.003	-0.008
-407.311	-200.000	-0.036	0.198
-406.296	800.000	0.049	0.203
-405.282	385.435	0.118	-0.246
-404.267	-62.240	0.054	-0.023
-403.252	-63.308	-0.131	-0.054
-402.238	-60.407	-0.183	0.079
-401.223	2.597	-0.029	-0.021
-400.209	800.000	-0.109	-0.398
-399.194	86.080	0.157	-0.174
-398.179	-103.936	0.019	-0.005
-397.165	-38.610	-0.045	0.024
-396.150	-15.476	0.129	-0.083
-395.136	271.085	-0.061	-0.109
-394.121	106.651	0.273	0.327
-393.106	207.528	-0.101	0.160
-392.092	-162.123	0.060	-0.003
-391.077	-200.000	0.015	0.328
-390.063	-200.000	-0.027	-0.284
-389.048	-23.873	-0.355	-0.214
-388.033	139.669	0.093	-0.123
-387.019	800.000	0.055	0.162
-386.004	-200.000	0.011	-0.102
-384.990	318.513	0.092	0.175
-383.975	174.534	-0.176	-0.257
-382.960	-130.493	-0.161	0.022
-381.946	-111.634	0.195	-0.040
-380.931	-152.508	-0.184	-0.013
-379.917	297.209	0.207	-0.383
-378.902	-126.632	0.417	-0.062
-377.888	-200.000	-0.019	-0.111
-376.873	-41.093	-0.123	-0.064
-375.858	-17.509	-0.188	0.119
-374.844	19.707	-0.100	-0.081
-373.829	82.480	0.115	0.125
-372.815	-174.553	-0.229	-0.007
-371.800	-116.151	0.199	-0.037
-370.785	-16.203	0.158	-0.101
-369.771	90.116	0.115	0.129
-368.756	-200.000	-0.047	0.240
-367.742	-200.000	-0.009	0.074
-366.727	-200.000	0.082	-0.403
-365.712	73.035	0.125	0.132
-364.698	-71.129	-0.231	-0.087
-363.683	531.166	-0.055	-0.132
-362.669	176.772	-0.171	-0.250
-361.654	800.000	-0.040	-0.147
-360.639	-26.269	0.203	0.120
-359.625	800.000	-0.115	-0.343
-358.610	-29.037	-0.338	-0.196
-357.596	-176.675	-0.210	0.005
-356.581	-151.316	-0.041	0.003
-355.566	14.851	-0.140	-0.111
-354.552	-45.575	-0.171	-0.085
-353.537	-137.343	-0.077	0.009
-352.523	245.767	-0.242	-0.411
-351.508	-47.619	0.364	-0.178
-350.493	800.000	0.034	0.123
-349.479	-145.785	0.148	-0.013
-348.464	-0.483	-0.199	0.142
-347.450	153.043	-0.125	0.172
-346.435	-81.925	0.138	-0.045
-345.420	-46.841	0.247	0.122
-344.406	15.331	-0.129	-0.102
-343.391	-115.802	-0.201	0.038
-342.377	-35.946	-0.209	0.114
-341.362	-113.500	-0.256	-0.051
-340.348	77.390	0.161	-0.173
-339.333	69.301	-0.082	-0.085
-338.318	152.673	-0.076	0.105
-337.304	-49.189	-0.038	0.018
-336.289	645.098	-0.138	0.355
-335.275	108.411	0.177	0.213
-334.260	26.195	0.054	-0.046
-333.245	-200.000	-0.016	-0.230
-332.231	800.000	0.089	-0.288
-331.216	111.416	-0.053	-0.064
-330.202	93.459	-0.127	0.145
-329.187	-200.000	-0.018	0.096
-328.172	-70.580	0.086	-0.033
-327.158	-10.582	-0.389	-0.259
-326.143	800.000	0.059	-0.238
-325.129	-31.115	-0.300	-0.170
-324.114	-158.131	0.243	0.014
-323.099	196.093	-0.321	-0.491
-322.085	-24.091	0.163	-0.098
-321.070	96.484	0.070	0.080
-320.056	345.476	-0.201	0.397
-319.041	44.594	0.047	0.044
-318.026	266.217	-0.128	0.224
-317.012	251.543	0.013	0.021
-315.997	679.587	0.163	0.427
-314.983	-132.789	-0.133	-0.017
-313.968	-109.579	0.442	-0.094
-312.953	800.000	-0.063	-0.199
-311.939	104.314	0.210	0.248
-310.924	11.718	-0.207	-0.160
-309.910	135.099	0.237	0.310
-308.895	290.483	-0.343	0.627
-307.880	-31.738	-0.189	0.107
-306.866	800.000	-0.089	0.364
-305.851	49.219	0.238	-0.225
-304.837	61.730	0.118	0.119
-303.822	-65.718	-0.106	-0.043
-302.807	-200.000	0.034	-0.363
-301.793	-72.063	0.437	0.163
-300.778	-200.000	0.075	-0.398
-299.764	115.655	0.090	0.110
-298.749	283.480	0.155	-0.281
-297.735	-200.000	0.339	0.002
-296.720	-102.288	0.092	0.022
-295.705	-64.199	0.291	-0.119
-294.691	-200.000	0.032	-0.294
-293.676	320.688	0.153	0.293
-292.662	67.401	0.447	0.459
-291.647	-132.778	-0.074	-0.010
-290.632	-26.804	0.306	-0.180
-289.618	119.955	-0.102	-0.127
-288.603	800.000	-0.079	0.344
-287.589	171.367	0.084	0.121
-286.574	800.000	-0.008	0.024
-285.559	-114.231	0.093	-0.018
-284.545	140.799	0.065	0.086
-283.530	270.270	-0.151	-0.267
-282.516	-46.020	-0.381	-0.189
-281.501	-43.932	-0.195	0.099
-280.486	-200.000	0.016	0.108
-279.472	-200.000	0.089	0.460
-278.457	45.708	-0.110	0.103
-277.443	119.027	-0.108	0.134
-276.428	800.000	-0.097	0.394
-275.413	-186.709	-0.056	-0.001
-274.399	516.540	-0.038	0.088
-273.384	800.000	-0.003	-0.009
-272.370	243.571	-0.081	0.136
-271.355	-96.375	0.188	-0.050
-270.340	-200.000	0.009	0.290
-269.326	-117.940	0.201	-0.036
-268.311	-83.337	-0.192	-0.062
-267.297	-44.433	-0.126	-0.063
-266.282	138.203	0.173	-0.228
-265.267	414.715	-0.069	-0.148
-264.253	-94.551	-0.248	-0.068
-263.238	-117.337	0.388	0.071
-262.224	-123.635	0.168	-0.027
-261.209	66.545	0.113	0.115
-260.195	-51.718	0.073	0.034
-259.180	98.198	0.063	0.072
-258.165	-123.014	-0.074	-0.012
-257.151	127.675	-0.104	0.132
-256.136	-73.537	-0.187	0.068
-255.122	-39.413	0.046	0.024
-254.107	-1.736	0.185	-0.131
-253.092	590.814	0.126	-0.312
-252.078	69.942	0.143	-0.148
-251.063	-15.800	0.245	0.157
-250.049	-200.000	-0.063	0.307
-249.034	59.351	-0.156	-0.154
-248.019	-200.000	-0.039	-0.310
-247.005	-200.000	-0.038	-0.195
-245.990	227.273	0.036	-0.058
-244.976	440.112	0.046	-0.101
-243.961	49.853	0.203	0.192
-242.946	11.838	-0.155	-0.120
-241.932	-159.182	0.085	0.005
-240.917	329.244	0.169	-0.327
-239.903	457.430	0.130	-0.290
-238.888	381.281	0.080	-0.164
-237.873	800.000	0.143	-0.401
-236.859	-23.338	-0.150	-0.090
-235.844	-200.000	-0.060	0.412
-234.830	-33.501	0.228	0.126
-233.815	-188.825	0.055	0.001
-232.800	-200.000	0.264	0.000
-231.786	24.609	0.037	0.031
-230.771	434.385	-0.115	0.251
-229.757	-184.498	-0.287	0.005
-228.742	71.237	0.247	-0.256
-227.727	-34.216	0.268	0.147
-226.713	52.246	0.143	0.136
-225.698	116.558	0.141	-0.173
-224.684	-200.000	0.048	-0.302
-223.669	800.000	-0.099	0.309
-222.655	800.000	-0.066	-0.196
-221.640	-200.000	-0.013	0.235
-220.625	-200.000	-0.019	-0.109
-219.611	-200.000	0.009	0.297
-218.596	-149.043	-0.174	0.014
-217.582	112.899	0.183	-0.223
-216.567	37.316	0.104	0.092
-215.552	195.211	0.153	0.232
-214.538	-25.191	-0.151	0.090
-213.523	48.848	-0.045	0.042
-212.509	88.488	0.144	0.160
-211.494	78.319	-0.114	0.122
-210.479	800.000	0.056	0.196
-209.465	215.489	-0.238	0.378
-208.450	-200.000	-0.003	-0.167
-207.436	-52.768	0.130	-0.060
-206.421	223.549	-0.111	-0.179
-205.406	-43.659	0.096	0.049
-204.392	-50.378	0.308	-0.146
-203.377	150.243	0.152	0.207
-202.363	594.338	0.054	0.133
-201.348	460.571	-0.042	0.093
-200.333	-200.000	-0.045	-0.261
-199.319	-98.165	0.181	-0.047
-198.304	171.560	0.041	0.058
-197.290	-26.241	-0.455	0.268
-196.275	-87.595	-0.239	-0.072
-195.260	-200.000	-0.001	-0.036
-194.246	-110.934	0.062	0.013
-193.231	-200.000	0.020	-0.155
-192.217	-178.378	0.182	0.004
-191.202	432.843	-0.093	-0.202
-190.187	97.942	-0.068	-0.079
-189.173	-35.102	0.182	-0.099
-188.158	284.764	0.132	0.238
-187.144	-108.531	0.296	0.064
-186.129	800.000	-0.112	0.315
-185.114	229.485	-0.091	0.149
-184.100	38.681	-0.073	0.065
-183.085	800.000	0.062	-0.183
-182.071	-200.000	-0.008	-0.108
-181.056	742.141	-0.064	-0.173
-180.042	-45.267	-0.246	0.122
-179.027	39.948	0.125	0.112
-178.012	427.926	0.045	0.098
-176.998	112.946	0.158	0.191
-175.983	-124.393	0.175	0.027
-174.969	-200.000	0.026	-0.287
-173.954	800.000	-0.029	0.123
-172.939	-42.901	-0.114	0.058
-171.925	-96.891	-0.234	-0.062
-170.910	-66.092	-0.053	0.021
-169.896	283.742	-0.093	0.167
-168.881	-0.486	-0.325	0.231
-167.866	0.769	0.136	0.097
-166.852	-65.282	-0.326	0.131
-165.837	-192.410	-0.069	-0.001
-164.823	800.000	0.041	0.120
-163.808	45.641	0.118	-0.109
-162.793	227.245	-0.119	-0.194
-161.779	-200.000	-0.038	0.179
-160.764	345.248	0.043	0.084
-159.750	404.290	-0.070	-0.146
-158.735	-102.319	0.075	0.018
-157.720	-200.000	-0.006	-0.248
-156.706	61.607	-0.184	0.183
-155.691	200.285	0.053	-0.081
-154.677	-45.272	0.156	-0.077
-153.662	165.880	0.130	0.184
-152.647	41.174	0.368	-0.332
-151.633	206.692	0.225	0.350
-150.618	106.319	-0.097	0.115
-149.604	291.474	-0.047	0.085
-148.589	316.177	0.190	0.358
-147.574	-200.000	-0.023	0.259
-146.560	128.290	-0.157	0.200
-145.545	570.133	-0.081	-0.197
-144.531	-200.000	-0.003	-0.084
-143.516	-200.000	0.106	0.478
-142.502	-16.566	0.179	0.113
-141.487	-33.891	-0.368	-0.202
-140.472	-200.000	-0.020	0.229
-139.458	-200.000	0.013	0.294
-138.443	-67.336	-0.177	0.070
-137.429	223.440	-0.140	0.226
-136.414	-121.512	0.239	-0.040
-135.399	-148.911	-0.332	-0.027
-134.385	-200.000	-0.020	0.216
-133.370	116.905	0.061	0.075
-132.356	-24.353	0.129	-0.077
-131.341	-57.512	0.263	0.115
-130.326	-42.695	-0.202	-0.103
-129.312	-152.064	-0.310	0.023
-128.297	800.000	-0.074	0.251
-127.283	438.660	-0.107	-0.234
-126.268	132.852	0.160	0.207
-125.253	29.951	-0.058	-0.049
-124.239	130.366	-0.289	-0.370
-123.224	-200.000	-0.063	-0.371
-122.210	691.601	0.061	-0.161
-121.195	-148.627	-0.298	-0.024
-120.180	-16.900	-0.155	-0.098
-119.166	-131.200	-0.352	0.047
-118.151	-57.183	-0.351	-0.154
-117.137	356.321	0.131	0.260
-116.122	79.436	0.189	0.202
-115.107	445.678	-0.117	-0.256
-114.093	-159.226	0.340	0.019
-113.078	-106.665	-0.179	0.040
-112.064	-92.335	-0.347	-0.097
-111.049	-10.520	0.342	-0.226
-110.034	800.000	0.051	0.200
-109.020	299.683	0.208	0.383
-108.005	-76.719	0.258	0.090
-106.991	-126.847	0.250	0.037
-105.976	-200.000	-0.054	0.491
-104.962	425.198	0.008	0.017
-103.947	-39.505	-0.164	-0.086
-102.932	-20.178	0.193	0.119
-101.918	1.038	0.300	0.214
-100.903	-69.264	-0.071	-0.027
-99.889	-105.972	0.218	-0.049
-98.874	-200.000	0.024	-0.215
-97.859	-10.977	0.081	0.054
-96.845	172.634	-0.019	0.028
-95.830	261.760	-0.075	-0.130
-94.816	70.989	0.225	0.232
-93.801	-200.000	-0.007	0.195
-92.786	16.149	-0.115	0.091
-91.772	43.816	0.181	0.166
-90.757	110.435	0.333	0.399
-89.743	-200.000	-0.006	-0.319
-88.728	85.037	0.109	0.120
-87.713	-124.107	0.395	0.062
-86.699	559.401	0.105	-0.253
-85.684	-3.369	-0.136	-0.095
-84.670	-107.163	0.323	0.071
-83.655	-183.050	0.381	-0.007
-82.640	639.958	-0.077	-0.195
-81.626	-70.319	0.541	0.205
-80.611	-23.923	-0.375	0.223
-79.597	-18.164	0.226	0.141
-78.582	-123.726	-0.205	0.032
-77.567	-59.511	0.483	-0.207
-76.553	206.424	0.098	-0.152
-75.538	204.125	-0.096	0.148
-74.524	37.444	-0.132	0.117
-73.509	-200.000	-0.002	-0.093
-72.494	60.350	0.220	-0.217
-71.480	420.510	0.217	0.463
-70.465	19.108	0.200	0.160
-69.451	-200.000	-0.008	-0.219
-68.436	-129.844	-0.087	-0.012
-67.422	152.586	-0.118	0.160
-66.407	-200.000	0.012	-0.311
-65.392	-85.153	0.085	-0.026
-64.378	-67.012	0.050	0.020
-63.363	800.000	-0.095	-0.313
-62.349	-68.141	-0.253	0.098
-61.334	167.425	-0.756	-1.070
-60.319	105.499	0.340	0.400
-59.305	-200.000	0.097	-0.718
-58.290	-200.000	0.132	0.961
-57.276	558.365	0.661	1.588
-56.261	-200.000	80.747	500.259
-55.246	557.950	1373.812	3300.095
-54.232	179.970	2615.053	3817.338
-53.217	122.893	2257.504	2814.153
-52.203	49.993	1704.566	1601.615
-51.188	42.019	1434.008	1296.006
-50.173	38.526	1389.769	1234.006
-49.159	57.347	1426.648	1386.913
-48.144	62.642	1445.181	1438.535
-47.130	42.547	1407.741	1275.416
-46.115	38.687	1391.481	1236.347
-45.100	38.446	1386.967	1230.771
-44.086	38.402	1384.451	1228.214
-43.071	38.406	1381.644	1225.700
-42.057	38.337	1379.724	1223.513
-41.042	38.353	1378.322	1222.324
-40.027	38.388	1376.775	1221.119
-39.013	38.444	1374.417	1219.328
-37.998	38.489	1372.674	1218.015
-36.984	38.495	1371.246	1216.736
-35.969	38.689	1368.502	1215.459
-34.954	38.539	1367.491	1213.579
-33.940	38.545	1366.574	1212.754
-32.925	38.654	1364.970	1211.960
-31.911	38.747	1362.937	1210.681
-30.896	38.624	1361.866	1208.920
-29.881	38.607	1360.703	1207.737
-28.867	38.699	1359.185	1206.911
-27.852	38.722	1357.346	1205.367
-26.838	38.657	1355.930	1203.663
-25.823	38.662	1354.381	1202.271
-24.809	38.645	1352.967	1200.866
-23.794	38.665	1351.982	1200.068
-22.779	38.646	1349.995	1198.137
-21.765	38.757	1348.782	1197.689
-20.750	38.639	1347.690	1195.957
-19.736	38.575	1346.155	1194.153
-18.721	38.592	1344.579	1192.814
-17.706	38.559	1343.459	1191.574
-16.692	38.480	1342.903	1190.553
-15.677	38.539	1341.263	1189.409
-14.663	38.554	1340.251	1188.554
-13.648	38.553	1339.185	1187.554
-12.633	38.474	1338.164	1186.125
-11.619	38.447	1337.329	1185.174
-10.604	38.512	1336.399	1184.698
-9.590	38.474	1335.319	1183.461
-8.575	38.655	1333.827	1183.187
-7.560	38.496	1333.515	1181.902
-6.546	38.541	1332.369	1181.111
-5.531	38.518	1331.247	1179.929
-4.517	38.407	1330.581	1178.624
-3.502	38.452	1329.969	1178.304
-2.487	38.552	1328.668	1177.710
-1.473	38.658	1325.006	1175.050
-0.458	37.832	1309.890	1156.699
0.556	32.860	1290.403	1117.929
1.571	29.308	1295.395	1100.988
2.586	28.384	1310.859	1108.449
3.600	26.974	1299.776	1090.513
4.615	18.823	1219.257	976.731
5.629	6.169	1132.734	840.098
6.644	0.586	1108.226	792.604
7.659	0.161	1104.844	787.891
8.673	-0.036	1104.024	786.206
9.688	-0.049	1102.618	785.066
10.702	0.460	1101.503	786.861
11.717	8.241	1113.987	836.629
12.731	19.194	1130.450	906.900
13.746	22.619	1133.702	927.481
14.761	22.278	1132.640	924.736
15.775	22.133	1132.008	923.378
16.790	21.873	1130.957	921.072
17.804	21.879	1130.583	920.716
18.819	21.875	1130.167	920.278
19.834	22.030	1129.403	920.383
20.848	22.060	1129.088	920.206
21.863	22.079	1128.067	919.389
22.877	21.922	1127.796	918.268
23.892	21.828	1127.464	917.424
24.907	22.004	1126.333	917.342
25.921	21.996	1124.838	916.000
26.936	21.960	1123.523	914.662
27.950	21.805	1122.028	912.559
28.965	21.840	1119.803	910.850
29.980	21.885	1118.250	909.739
30.994	22.011	1117.579	909.768
32.009	21.891	1116.560	908.233
33.023	21.891	1114.856	906.766
34.038	21.891	1114.482	906.382
35.053	22.027	1113.517	906.222
36.067	21.973	1112.703	905.201
37.082	22.116	1111.929	905.228
38.096	22.240	1111.052	905.070
39.111	22.332	1110.240	904.802
40.126	22.039	1109.082	902.272
41.140	21.708	1107.093	898.880
42.155	21.625	1105.592	897.154
43.169	21.689	1104.582	896.583
44.184	21.737	1103.315	895.720
45.199	21.567	1102.734	894.302
46.213	21.572	1101.200	893.002
47.228	21.768	1101.086	893.830
48.242	21.785	1099.723	892.732
49.257	21.948	1098.931	892.837
50.271	22.115	1097.980	892.838
51.286	22.063	1097.260	891.909
52.301	22.108	1096.450	891.399
53.315	21.948	1095.522	889.757
54.330	21.841	1095.005	888.715
55.344	21.828	1094.491	888.153
56.359	21.837	1093.177	887.054
57.374	21.900	1091.272	885.748
58.388	21.854	1091.130	885.320
59.403	21.734	1090.063	883.771
60.417	21.557	1089.281	882.165
61.432	21.583	1088.488	881.579
62.447	21.858	1087.693	882.240
63.461	21.884	1087.165	881.863
64.476	21.750	1085.979	880.151
65.490	21.630	1084.835	878.545
66.505	21.763	1083.957	878.425
67.520	21.856	1083.397	878.358
68.534	21.606	1082.039	875.928
69.549	21.203	1081.148	873.113
70.563	21.293	1080.171	872.698
71.578	21.268	1079.432	871.897
72.593	21.214	1078.454	870.761
73.607	21.345	1077.935	870.918
74.622	21.496	1077.501	871.242
75.636	21.533	1077.026	870.966
76.651	21.518	1075.888	869.896
77.666	21.495	1074.787	868.815
78.680	21.477	1073.970	867.985
79.695	21.627	1073.381	868.175
80.709	21.633	1073.328	868.086
81.724	21.687	1072.090	867.277
82.739	21.669	1071.063	866.277
83.753	21.954	1070.906	867.485
84.768	22.301	1069.964	868.358
85.782	22.307	1068.992	867.523
86.797	22.272	1067.996	866.465
87.812	22.000	1067.192	864.396
88.826	22.235	1066.102	864.595
89.841	22.280	1065.240	864.036
90.855	22.233	1064.633	863.238
91.870	22.124	1063.052	861.347
92.884	22.080	1061.899	860.122
93.899	22.119	1060.799	859.342
94.914	22.129	1060.219	858.847
95.928	22.114	1059.029	857.735
96.943	21.889	1057.671	855.459
97.957	21.637	1056.399	853.129
98.972	21.534	1055.124	851.522
99.987	21.622	1054.776	851.594
101.001	22.011	1053.535	852.406
102.016	21.979	1052.914	851.674
103.030	21.864	1051.997	850.300
104.045	21.556	1051.395	848.243
105.060	21.630	1049.916	847.335
106.074	21.682	1049.222	846.953
107.089	22.083	1048.596	848.309
108.103	21.904	1047.760	846.690
109.118	21.668	1046.361	844.348
110.133	21.689	1045.160	843.407
111.147	21.495	1044.009	841.468
112.162	21.404	1043.022	840.164
113.176	21.643	1042.215	840.586
114.191	21.612	1041.494	839.780
115.206	21.279	1039.840	836.780
116.220	21.217	1039.629	836.236
117.235	21.341	1038.422	835.789
118.249	21.351	1037.875	835.319
119.264	21.389	1036.820	834.578
120.279	21.406	1036.074	833.983
121.293	21.312	1035.489	832.994
122.308	21.488	1034.234	832.745
123.322	21.435	1032.948	831.384
124.337	21.334	1031.660	829.796
125.352	20.844	1029.330	825.529
126.366	20.737	1028.888	824.592
127.381	21.377	1028.723	827.418
128.395	21.911	1028.496	829.687
129.410	21.923	1027.509	828.875
130.424	22.013	1026.177	828.154
131.439	22.031	1025.040	827.247
132.454	21.922	1024.114	825.915
133.468	21.909	1023.372	825.178
134.483	22.074	1022.890	825.493
135.497	22.210	1021.939	825.292
136.512	22.172	1021.152	824.406
137.527	22.230	1020.216	823.845
138.541	22.190	1019.301	822.849
139.556	22.059	1019.019	821.935
140.570	22.303	1017.651	821.900
141.585	22.417	1016.486	821.416
142.600	22.292	1015.407	819.888
143.614	22.405	1015.024	820.037
144.629	22.492	1014.279	819.763
145.643	22.279	1013.087	817.738
146.658	22.133	1011.488	815.701
147.673	22.078	1010.058	814.220
148.687	21.911	1009.081	812.584
149.702	21.896	1008.159	811.700
150.716	21.930	1007.121	810.949
151.731	22.093	1006.461	811.099
152.746	22.184	1005.987	811.068
153.760	22.334	1005.461	811.265
154.775	22.415	1004.557	810.835
155.789	22.189	1003.750	809.071
156.804	22.245	1002.606	808.337
157.819	22.401	1001.555	808.132
158.833	22.364	1001.138	807.555
159.848	22.363	1000.148	806.678
160.862	22.386	998.474	805.365
161.877	22.206	997.885	803.994
162.892	22.390	996.698	803.808
163.906	22.305	995.512	802.394
164.921	22.188	994.836	801.243
165.935	22.409	993.260	800.911
166.950	22.280	992.905	799.964
167.964	22.360	991.493	799.120
168.979	22.248	990.482	797.725
169.994	22.222	989.297	796.585
171.008	22.460	989.216	797.525
172.023	22.375	988.539	796.524
173.037	22.159	987.480	794.626
174.052	21.969	986.559	792.954
175.067	22.010	985.716	792.392
176.081	22.094	985.471	792.503
177.096	22.128	984.335	791.675
178.110	21.833	983.261	789.412
179.125	21.709	982.494	788.166
180.140	21.775	982.804	788.644
181.154	21.797	982.228	788.209
182.169	22.197	981.496	789.350
183.183	22.413	980.808	789.694
184.198	22.312	979.945	788.481
185.213	22.331	979.286	787.963
186.227	22.324	978.551	787.271
187.242	22.283	977.885	786.483
188.256	22.298	977.409	786.098
189.271	22.426	976.656	785.994
190.286	22.189	975.328	783.799
191.300	21.556	973.706	779.607
192.315	20.797	972.498	775.192
193.329	20.762	971.853	774.456
194.344	21.687	971.905	778.540
195.359	22.108	972.023	780.437
196.373	22.260	971.640	780.734
197.388	22.123	970.908	779.472
198.402	22.076	970.513	778.874
199.417	22.176	969.536	778.467
200.432	21.990	968.451	776.704
201.446	21.777	967.917	775.265
202.461	21.752	967.323	774.611
203.475	20.965	965.296	769.444
204.490	20.319	963.473	765.079
205.504	21.143	964.117	769.154
206.519	21.670	964.134	771.421
207.534	21.880	963.745	771.967
208.548	22.149	963.430	772.830
209.563	22.009	962.387	771.308
210.577	22.081	961.686	770.996
211.592	22.439	961.087	772.016
212.607	22.353	960.389	771.009
213.621	22.369	959.886	770.609
214.636	22.374	959.116	769.942
215.650	22.370	957.965	768.934
216.665	22.544	957.619	769.350
217.680	22.321	956.956	767.775
218.694	22.074	955.333	765.326
219.709	21.766	954.831	763.515
220.723	22.059	954.463	764.429
221.738	22.165	953.833	764.319
222.753	22.074	952.869	763.084
223.767	22.330	952.573	763.889
224.782	22.558	952.137	764.462
225.796	22.506	951.753	763.863
226.811	21.872	950.036	759.672
227.826	21.311	948.680	756.094
228.840	21.364	948.179	755.857
229.855	21.491	947.210	755.565
230.869	21.189	946.167	753.364
231.884	21.593	946.298	755.144
232.899	22.221	946.728	758.129
233.913	22.190	945.548	756.984
234.928	22.205	944.957	756.507
235.942	22.117	944.397	755.613
236.957	21.773	943.857	753.637
237.972	21.896	943.056	753.461
238.986	21.985	942.314	753.183
240.001	21.940	941.664	752.403
241.015	22.123	941.156	752.712
242.030	22.168	940.895	752.632
243.045	22.266	940.144	752.381
244.059	22.391	939.518	752.350
245.074	22.304	938.447	751.053
246.088	21.872	937.608	748.475
247.103	22.208	937.140	749.465
248.117	22.798	937.041	751.834
249.132	23.012	936.418	752.180
250.147	23.026	936.126	751.937
251.161	23.045	935.870	751.745
252.176	22.997	935.128	750.880
253.190	23.164	934.506	751.023
254.205	23.346	934.314	751.573
255.220	23.142	933.631	750.092
256.234	23.103	932.497	748.952
257.249	23.004	931.457	747.632
258.263	23.059	930.787	747.258
259.278	23.086	930.352	746.958
260.293	23.136	929.368	746.311
261.307	23.081	928.927	745.662
262.322	22.831	927.881	743.703
263.336	21.983	926.053	738.605
264.351	20.960	924.056	732.648
265.366	21.236	923.355	733.189
266.380	22.323	924.699	738.754
267.395	22.681	924.144	739.749
268.409	22.683	923.169	738.913
269.424	22.799	923.101	739.280
270.439	22.928	922.148	738.988
271.453	22.976	921.568	738.659
272.468	23.155	921.176	739.028
273.482	23.265	920.733	739.065
274.497	22.730	919.630	735.884
275.512	22.529	918.268	733.891
276.526	22.832	918.378	735.177
277.541	22.894	918.021	735.085
278.555	22.640	917.565	733.596
279.570	22.627	916.267	732.440
280.585	22.873	915.733	732.969
281.599	22.896	914.450	731.975
282.614	22.259	913.239	728.305
283.628	22.108	913.326	727.683
284.643	22.560	912.713	728.999
285.657	22.136	911.338	726.084
286.672	21.849	910.638	724.278
287.687	22.499	910.270	726.606
288.701	22.635	909.837	726.755
289.716	22.220	909.097	724.391
290.730	22.090	908.422	723.252
291.745	21.794	907.495	721.235
292.760	22.141	907.420	722.537
293.774	23.114	907.732	726.723
294.789	23.509	907.254	727.897
295.803	23.439	906.924	727.279
296.818	23.565	906.368	727.287
297.833	23.041	904.969	723.955
298.847	22.911	904.196	722.740
299.862	23.269	904.280	724.206
300.876	23.468	903.721	724.509
301.891	23.408	902.942	723.574
302.906	22.876	902.188	720.734
303.920	23.021	901.725	720.895
304.935	23.501	901.275	722.424
305.949	23.315	900.492	720.977
306.964	23.105	899.855	719.548
307.979	23.204	899.561	719.654
308.993	23.587	899.105	720.781
310.008	23.471	898.838	720.032
311.022	23.171	898.243	718.274
312.037	23.211	897.170	717.515
313.052	22.983	895.998	715.590
314.066	22.110	894.715	710.970
315.081	21.738	893.778	708.658
316.095	22.558	894.275	712.307
317.110	23.136	893.911	714.287
318.125	22.159	892.342	709.035
319.139	21.039	891.099	703.469
320.154	21.206	890.667	703.738
321.168	22.233	890.895	707.993
322.183	22.890	890.990	710.651
323.197	22.855	890.812	710.305
324.212	23.208	890.337	711.280
325.227	23.113	889.761	710.377
326.241	23.131	888.923	709.715
327.256	23.038	887.916	708.478
328.270	22.876	887.620	707.529
329.285	22.602	886.671	705.613
330.300	22.593	885.934	704.928
331.314	22.707	886.145	705.491
332.329	23.148	885.403	706.600
333.343	23.370	884.953	707.063
334.358	23.322	884.445	706.405
335.373	23.348	884.405	706.413
336.387	23.740	884.081	707.654
337.402	23.807	883.802	707.633
338.416	23.816	883.294	707.202
339.431	23.666	883.582	706.773
340.446	23.768	883.483	707.034
341.460	23.727	882.373	705.921
342.475	23.526	881.638	704.472
343.489	23.634	881.165	704.461
344.504	23.897	881.316	705.564
345.519	24.077	881.031	705.987
346.533	24.227	880.042	705.726
347.548	24.102	879.570	704.790
348.562	24.074	879.002	704.163
349.577	23.970	878.571	703.344
350.592	23.969	877.800	702.660
351.606	23.936	877.041	701.859
352.621	23.900	875.830	700.687
353.635	23.733	875.123	699.404
354.650	23.267	873.426	696.153
355.665	22.319	871.626	690.936
356.679	22.719	871.605	692.426
357.694	23.119	871.487	693.840
358.708	23.066	870.711	692.955
359.723	23.324	870.951	694.097
360.738	23.707	870.774	695.395
361.752	23.853	869.979	695.269
362.767	24.123	869.140	695.592
363.781	24.272	869.047	696.038
364.796	24.371	868.641	696.035
365.810	24.461	868.363	696.104
366.825	24.400	867.997	695.510
367.840	24.186	866.751	693.619
368.854	23.734	866.137	691.306
369.869	23.813	865.723	691.222
370.883	23.757	865.022	690.383
371.898	23.697	864.798	689.910
372.913	23.832	864.538	690.165
373.927	23.922	864.202	690.186
374.942	23.911	863.697	689.680
375.956	24.025	863.112	689.592
376.971	24.286	862.725	690.235
377.986	24.442	862.714	690.767
379.000	24.308	861.752	689.417
380.015	24.349	860.720	688.691
381.029	24.315	860.611	688.411
382.044	24.415	860.054	688.286
383.059	24.304	859.739	687.548
384.073	24.366	859.216	687.307
385.088	24.256	858.557	686.295
386.102	24.190	857.294	684.973
387.117	24.088	856.853	684.168
388.132	23.630	855.651	681.390
389.146	23.383	854.803	679.706
390.161	23.662	854.735	680.660
391.175	24.153	854.605	682.379
392.190	23.825	853.387	680.093
393.205	22.456	851.204	673.061
394.219	21.072	849.384	666.283
395.234	20.968	849.349	665.798
396.248	22.463	850.784	672.578
397.263	23.815	851.604	678.334
398.278	23.987	851.186	678.596
399.292	23.664	850.242	676.554
400.307	23.650	850.073	676.304
401.321	23.836	849.249	676.297
402.336	24.185	849.181	677.509
403.350	24.605	849.256	679.108
404.365	24.859	849.202	679.969
405.380	25.072	848.656	680.281
406.394	25.221	848.137	680.367
407.409	25.074	847.536	679.271
408.423	24.858	847.637	678.471
409.438	25.083	846.895	678.670
410.453	25.240	846.278	678.711
411.467	25.091	845.613	677.551
412.482	25.046	845.245	677.029
413.496	25.306	844.583	677.421
414.511	25.038	844.754	676.486
415.526	25.145	844.399	676.543
416.540	25.051	843.024	675.026
417.555	24.727	842.372	673.225
418.569	24.860	842.278	673.593
419.584	24.789	841.621	672.740
420.599	24.639	840.990	671.615
421.613	146.985	1364.047	1769.544
422.628	128.548	1440.268	1769.674
