DTS Sentinel unit serial number:	SN413079Multiplexer serial number:	ORYXHardware model number:	OX4-SRSoftware version number:	ORYX F/W v4.00 Oryx Data Collector v3.7.2.0data status	okinstallation	princeton_trtdifferential loss correction	single-endedforward channel	channel 1reverse channel	N/Adate	2019/09/11time	14:16:11forward acquisition time	60.00reverse acquisition time	0.00gamma	496.2192k internal	0.2293k external	0.2293temperature offset calibration	0.9986default loss term (dB/km)	0.3790temperature slope calibration	1.0000multiplexer offset coefficient	1.0000multiplexer slope coefficient	1.0000fibre end	0.00T internal ref (°C)	41.94T ext. ref 1 (°C)	0.87T ext. ref 2 (°C)	38.09length (m)	temperature (°C)	Stokes	anti-Stokes-747.200	-102.184	0.154	0.038
-746.185	119.294	0.122	0.155
-745.171	8.850	0.216	0.166
-744.156	-200.000	0.013	0.243
-743.142	-135.243	0.283	0.035
-742.127	73.718	0.314	0.337
-741.112	297.911	-0.070	0.132
-740.098	111.685	0.266	0.328
-739.083	-38.091	0.207	0.112
-738.069	-200.000	0.016	0.270
-737.054	-200.000	0.101	0.000
-736.039	167.413	-0.101	-0.147
-735.025	-57.791	0.430	0.192
-734.010	-65.596	-0.305	-0.125
-732.996	800.000	-0.092	0.337
-731.981	545.098	-0.107	0.261
-730.966	59.304	-0.038	-0.038
-729.952	-113.694	-0.089	0.018
-728.937	-109.411	-0.320	-0.069
-727.923	-16.593	-0.325	-0.211
-726.908	2.476	0.118	-0.088
-725.894	-200.000	0.007	-0.037
-724.879	800.000	0.051	0.174
-723.864	88.523	-0.105	0.119
-722.850	-200.000	0.018	-0.318
-721.835	370.223	-0.051	0.105
-720.821	800.000	-0.013	-0.056
-719.806	716.030	0.050	0.135
-718.791	-200.000	0.006	0.129
-717.777	381.300	-0.138	0.289
-716.762	-153.369	-0.199	-0.014
-715.748	-122.954	0.193	-0.032
-714.733	170.367	0.092	0.135
-713.718	-30.644	-0.099	0.057
-712.704	800.000	-0.067	0.197
-711.689	-11.152	-0.198	0.133
-710.675	-42.878	0.376	-0.195
-709.660	-54.375	-0.231	-0.107
-708.645	33.082	0.134	-0.119
-707.631	122.947	-0.134	0.171
-706.616	-200.000	-0.001	0.140
-705.602	800.000	0.019	-0.061
-704.587	-200.000	-0.017	0.178
-703.572	800.000	-0.086	-0.272
-702.558	-12.279	0.190	-0.127
-701.543	704.833	-0.039	-0.104
-700.529	-24.901	-0.191	-0.116
-699.514	59.381	0.205	0.207
-698.499	-106.023	-0.469	-0.108
-697.485	-127.822	-0.217	0.032
-696.470	-124.865	-0.406	0.064
-695.456	76.805	-0.126	0.137
-694.441	-121.650	-0.336	-0.057
-693.426	-159.674	0.147	-0.008
-692.412	-200.000	-0.371	0.001
-691.397	800.000	-0.091	-0.273
-690.383	240.642	0.137	-0.233
-689.368	16.463	0.210	0.170
-688.354	-82.116	0.356	0.119
-687.339	-157.269	-0.154	-0.009
-686.324	-74.597	0.390	0.143
-685.310	-64.088	-0.128	-0.053
-684.295	-154.386	-0.075	0.005
-683.281	-200.000	-0.023	0.118
-682.266	173.916	0.032	0.047
-681.251	-199.711	0.401	0.002
-680.237	-156.026	0.194	0.013
-679.222	-19.106	0.234	-0.148
-678.208	-149.659	-0.339	-0.027
-677.193	-200.000	-0.008	0.206
-676.178	-36.854	0.214	-0.117
-675.164	-200.000	-0.002	0.257
-674.149	800.000	-0.052	-0.171
-673.135	91.938	0.107	-0.123
-672.120	64.871	0.139	0.143
-671.105	-40.316	-0.059	0.031
-670.091	42.380	-0.199	0.184
-669.076	-50.047	-0.265	-0.128
-668.062	-200.000	0.006	0.075
-667.047	-101.993	0.038	0.009
-666.032	-200.000	0.052	0.370
-665.018	183.566	0.172	0.259
-664.003	800.000	-0.082	0.250
-662.989	800.000	0.139	0.438
-661.974	-151.345	0.116	-0.009
-660.959	800.000	-0.006	-0.024
-659.945	-65.450	-0.226	0.093
-658.930	800.000	0.069	0.306
-657.916	-121.064	-0.337	-0.058
-656.901	-34.103	-0.126	-0.071
-655.886	-200.000	0.051	0.247
-654.872	-186.111	0.089	-0.001
-653.857	432.059	-0.042	0.093
-652.843	78.401	-0.129	0.140
-651.828	663.627	-0.057	0.149
-650.814	299.363	-0.083	-0.157
-649.799	-200.000	-0.024	0.158
-648.784	800.000	0.016	-0.061
-647.770	32.774	-0.183	-0.161
-646.755	-200.000	0.065	-0.407
-645.741	133.442	0.076	-0.100
-644.726	800.000	-0.060	-0.217
-643.711	-133.627	-0.305	0.039
-642.697	-200.000	-0.014	0.367
-641.682	-200.000	0.017	0.157
-640.668	179.099	0.177	-0.264
-639.653	626.673	0.142	-0.365
-638.638	-123.465	0.071	0.012
-637.624	-200.000	-0.061	0.335
-636.609	46.071	0.116	0.109
-635.595	83.924	0.290	0.322
-634.580	-82.194	0.269	0.089
-633.565	9.663	-0.253	0.196
-632.551	204.194	0.185	-0.292
-631.536	-200.000	-0.010	-0.455
-630.522	800.000	0.013	-0.042
-629.507	-84.679	0.165	0.053
-628.492	4.132	-0.184	0.137
-627.478	-23.052	-0.228	0.140
-626.463	-36.207	0.213	-0.117
-625.449	146.704	-0.295	-0.404
-624.434	161.553	-0.061	0.087
-623.419	-200.000	0.012	-0.124
-622.405	304.596	0.044	0.083
-621.390	800.000	-0.044	-0.148
-620.376	160.947	0.190	-0.271
-619.361	370.017	-0.072	-0.148
-618.346	-200.000	0.061	0.360
-617.332	41.696	0.215	-0.198
-616.317	126.830	-0.046	0.060
-615.303	-36.196	0.087	0.048
-614.288	-61.371	-0.017	0.007
-613.273	103.030	0.072	0.086
-612.259	42.914	-0.076	0.070
-611.244	7.780	0.087	-0.066
-610.230	24.889	-0.248	-0.209
-609.215	-22.110	0.329	-0.203
-608.201	-200.000	0.019	0.104
-607.186	-200.000	-0.001	-0.111
-606.171	-85.357	-0.093	0.029
-605.157	-200.000	-0.001	0.125
-604.142	-126.601	-0.217	0.033
-603.128	-200.000	0.155	0.001
-602.113	555.082	-0.102	0.250
-601.098	-162.124	-0.127	0.006
-600.084	800.000	-0.064	0.214
-599.069	-40.830	0.143	-0.075
-598.055	-200.000	0.013	-0.077
-597.040	-109.910	0.285	0.061
-596.025	302.006	-0.118	-0.222
-595.011	-94.424	0.214	0.059
-593.996	800.000	0.075	0.316
-592.982	-200.000	-0.092	0.458
-591.967	-200.000	0.014	-0.324
-590.952	-162.199	0.048	-0.002
-589.938	-200.000	-0.004	0.233
-588.923	412.484	0.107	-0.232
-587.909	-200.000	-0.101	0.481
-586.894	-47.799	0.116	0.057
-585.879	658.904	0.054	-0.140
-584.865	31.376	-0.235	-0.205
-583.850	390.224	-0.054	-0.113
-582.836	416.396	0.167	-0.362
-581.821	-1.896	0.072	-0.051
-580.806	45.029	-0.293	-0.274
-579.792	800.000	0.008	-0.028
-578.777	-10.891	-0.138	0.093
-577.763	3.976	0.103	-0.077
-576.748	223.412	0.125	-0.205
-575.733	-51.787	0.196	-0.093
-574.719	800.000	-0.066	-0.211
-573.704	-200.000	0.003	-0.302
-572.690	195.777	-0.053	0.082
-571.675	-108.982	-0.239	-0.052
-570.661	95.044	0.185	-0.214
-569.646	-16.016	0.187	-0.121
-568.631	-200.000	-0.037	-0.180
-567.617	230.542	0.127	0.211
-566.602	492.554	-0.080	0.185
-565.588	-57.534	-0.379	-0.169
-564.573	-8.932	-0.236	0.160
-563.558	-162.923	-0.457	-0.023
-562.544	-200.000	0.002	-0.036
-561.529	800.000	0.085	-0.280
-560.515	-200.000	-0.015	-0.074
-559.500	-200.000	0.056	0.369
-558.485	-169.609	0.191	0.007
-557.471	-133.874	-0.209	-0.026
-556.456	47.303	-0.223	0.211
-555.442	82.175	0.145	0.160
-554.427	578.030	0.090	0.224
-553.412	-58.229	-0.119	0.053
-552.398	-64.696	-0.153	-0.063
-551.383	-200.000	0.007	-0.143
-550.369	-200.000	0.016	-0.089
-549.354	800.000	0.027	0.089
-548.339	-84.041	0.165	0.053
-547.325	-111.806	0.298	0.061
-546.310	-128.168	-0.504	0.073
-545.296	800.000	0.042	-0.134
-544.281	162.487	-0.068	0.097
-543.266	-200.000	0.019	0.191
-542.252	-39.955	-0.086	0.046
-541.237	-56.401	0.139	-0.063
-540.223	-134.301	-0.326	-0.041
-539.208	2.494	0.209	0.154
-538.193	-167.957	0.166	0.007
-537.179	800.000	-0.079	0.288
-536.164	243.262	-0.102	-0.174
-535.150	-32.686	-0.207	0.117
-534.135	-53.774	0.279	-0.129
-533.121	-114.410	-0.259	-0.051
-532.106	39.234	-0.278	-0.253
-531.091	231.596	0.143	-0.237
-530.077	-200.000	0.019	-0.276
-529.062	-135.256	0.220	-0.027
-528.048	-40.530	-0.133	0.070
-527.033	699.217	0.161	-0.429
-526.018	-200.000	-0.036	0.159
-525.004	42.259	-0.184	0.169
-523.989	-116.431	-0.103	-0.019
-522.975	376.770	-0.161	0.333
-521.960	-164.683	0.365	0.017
-520.945	-128.489	0.210	-0.030
-519.931	-7.976	0.336	-0.230
-518.916	-151.539	0.255	0.019
-517.902	-87.282	0.123	-0.038
-516.887	214.086	-0.099	0.160
-515.872	800.000	-0.096	0.351
-514.858	-72.828	0.234	-0.087
-513.843	-32.265	0.220	-0.124
-512.829	36.045	-0.368	0.328
-511.814	-200.000	-0.034	0.298
-510.799	-64.632	-0.142	-0.058
-509.785	-47.624	-0.088	0.043
-508.770	-7.427	-0.133	-0.091
-507.756	-111.797	-0.304	0.062
-506.741	800.000	0.044	-0.171
-505.726	80.202	-0.205	0.223
-504.712	199.363	0.107	0.166
-503.697	-200.000	0.015	-0.118
-502.683	26.361	0.270	0.229
-501.668	-49.478	-0.221	0.107
-500.653	-63.323	0.257	-0.107
-499.639	86.515	0.068	0.076
-498.624	3.814	-0.035	0.026
-497.610	800.000	0.086	-0.269
-496.595	244.084	0.203	-0.346
-495.581	110.905	0.097	0.118
-494.566	-185.012	-0.019	0.000
-493.551	712.166	0.034	0.090
-492.537	-200.000	-0.018	0.287
-491.522	800.000	0.129	-0.457
-490.508	355.334	-0.089	0.179
-489.493	342.992	0.106	-0.210
-488.478	-137.813	0.330	0.037
-487.464	-200.000	-0.014	-0.120
-486.449	-107.177	0.099	-0.022
-485.435	19.538	0.147	-0.120
-484.420	-185.092	-0.375	0.006
-483.405	-78.881	-0.225	0.078
-482.391	-151.457	-0.217	-0.016
-481.376	63.825	-0.083	-0.084
-480.362	236.443	-0.181	-0.303
-479.347	-200.000	0.064	0.453
-478.332	-200.000	-0.398	-0.000
-477.318	-54.357	0.094	-0.043
-476.303	-45.670	0.240	-0.120
-475.289	800.000	0.080	-0.349
-474.274	7.694	-0.267	0.202
-473.259	40.660	0.170	0.155
-472.245	-134.456	-0.265	-0.033
-471.230	26.155	0.124	0.104
-470.216	-58.399	0.123	-0.054
-469.201	-200.000	0.008	-0.062
-468.186	-13.504	0.021	-0.014
-467.172	12.326	-0.210	0.164
-466.157	19.723	0.136	-0.111
-465.143	48.344	0.079	-0.075
-464.128	-76.171	0.381	0.136
-463.113	-88.153	0.434	-0.132
-462.099	-108.851	0.384	-0.083
-461.084	-140.327	-0.333	0.035
-460.070	-200.000	0.012	0.196
-459.055	297.342	-0.076	-0.141
-458.040	-47.557	-0.379	0.186
-457.026	-53.400	-0.147	0.068
-456.011	800.000	-0.118	-0.363
-454.997	-61.605	-0.443	-0.188
-453.982	800.000	0.052	0.152
-452.968	89.271	0.190	0.214
-451.953	-50.187	-0.495	0.237
-450.938	330.502	-0.088	-0.171
-449.924	-104.484	-0.075	0.018
-448.909	-87.179	-0.176	0.054
-447.895	-60.192	-0.229	0.099
-446.880	800.000	0.043	0.120
-445.865	-200.000	-0.023	-0.114
-444.851	-52.391	-0.085	-0.040
-443.836	102.736	0.065	-0.077
-442.822	800.000	-0.057	-0.164
-441.807	64.053	-0.106	0.107
-440.792	-39.907	-0.268	0.142
-439.778	205.553	-0.158	0.248
-438.763	356.193	0.103	-0.207
-437.749	800.000	0.028	-0.116
-436.734	40.836	0.238	-0.217
-435.719	-148.039	-0.117	-0.010
-434.705	-200.000	-0.063	0.319
-433.690	-61.935	0.217	0.092
-432.676	76.172	0.176	-0.188
-431.661	-93.137	-0.235	-0.066
-430.646	28.203	0.146	0.124
-429.632	534.286	0.123	-0.294
-428.617	-200.000	-0.020	0.176
-427.603	-55.345	-0.110	0.050
-426.588	-200.000	-0.023	-0.306
-425.573	-14.994	0.067	-0.043
-424.559	-111.471	-0.262	-0.054
-423.544	70.439	0.069	-0.072
-422.530	-98.720	0.124	0.032
-421.515	-119.711	-0.084	0.015
-420.500	383.994	-0.110	0.228
-419.486	-70.594	-0.157	0.060
-418.471	-200.000	-0.037	-0.204
-417.457	-200.000	-0.009	-0.154
-416.442	-64.063	0.024	-0.010
-415.428	-137.487	-0.150	0.017
-414.413	800.000	0.044	0.135
-413.398	-102.906	-0.243	0.058
-412.384	-97.111	0.147	0.039
-411.369	-89.787	-0.178	0.053
-410.355	160.680	0.098	-0.139
-409.340	-120.012	-0.112	-0.019
-408.325	-85.809	-0.352	-0.110
-407.311	430.128	0.078	0.171
-406.296	250.851	-0.115	-0.197
-405.282	272.192	0.060	0.107
-404.267	-167.325	-0.363	-0.015
-403.252	-38.219	0.242	0.130
-402.238	-50.775	0.030	0.014
-401.223	-121.990	0.315	-0.052
-400.209	-23.399	-0.142	-0.086
-399.194	800.000	0.031	-0.123
-398.179	-200.000	0.026	0.303
-397.165	10.603	-0.241	-0.186
-396.150	214.363	-0.095	0.151
-395.136	267.399	-0.037	-0.065
-394.121	-200.000	-0.015	-0.338
-393.106	-200.000	-0.031	0.202
-392.092	-200.000	-0.020	0.112
-391.077	-200.000	0.017	0.159
-390.063	-200.000	-0.003	0.091
-389.048	60.535	0.311	-0.311
-388.033	338.234	0.104	0.203
-387.019	3.586	-0.064	0.047
-386.004	-38.104	0.229	-0.123
-384.990	-3.783	0.183	0.129
-383.975	-52.008	-0.153	0.072
-382.960	-50.020	-0.242	-0.116
-381.946	-75.680	0.185	-0.066
-380.931	-46.729	-0.009	0.004
-379.917	800.000	0.075	-0.294
-378.902	-127.334	-0.196	-0.029
-377.888	-200.000	0.029	0.254
-376.873	-53.827	0.186	-0.086
-375.858	733.170	-0.077	0.208
-374.844	85.283	0.105	-0.117
-373.829	-119.391	0.290	0.051
-372.815	800.000	-0.065	-0.183
-371.800	163.832	0.073	0.104
-370.785	-41.414	0.096	-0.050
-369.771	66.018	0.221	0.226
-368.756	674.426	-0.073	-0.190
-367.742	23.902	0.128	0.107
-366.727	800.000	0.043	-0.137
-365.712	572.398	-0.080	-0.197
-364.698	269.830	-0.167	0.295
-363.683	-39.572	-0.209	0.111
-362.669	62.158	-0.241	-0.242
-361.654	800.000	-0.095	0.312
-360.639	-37.807	0.067	-0.036
-359.625	103.668	-0.082	0.097
-358.610	57.893	0.200	-0.197
-357.596	216.514	-0.201	0.323
-356.581	-200.000	0.039	0.191
-355.566	800.000	0.045	0.155
-354.552	800.000	0.068	0.252
-353.537	79.862	0.149	0.162
-352.523	-52.406	-0.170	-0.079
-351.508	484.434	-0.081	0.185
-350.493	-200.000	-0.071	0.438
-349.479	718.407	-0.147	0.394
-348.464	800.000	0.079	-0.317
-347.450	-105.292	0.200	-0.046
-346.435	-52.094	0.255	0.119
-345.420	375.088	0.094	0.194
-344.406	-73.356	-0.293	0.108
-343.391	-89.041	0.358	-0.107
-342.377	164.585	-0.066	-0.094
-341.362	-58.295	-0.116	-0.051
-340.348	-62.147	0.116	0.049
-339.333	-44.222	0.171	0.086
-338.318	-200.000	0.024	0.250
-337.304	800.000	0.072	0.267
-336.289	-200.000	0.026	0.200
-335.275	-129.323	-0.141	-0.020
-334.260	-44.220	-0.197	0.099
-333.245	-58.890	-0.152	0.066
-332.231	62.734	0.252	-0.253
-331.216	-200.000	0.032	-0.165
-330.202	-114.528	-0.085	0.016
-329.187	-200.000	-0.017	-0.514
-328.172	-85.010	0.213	-0.067
-327.158	336.719	0.143	0.280
-326.143	-103.950	-0.363	-0.085
-325.129	-86.022	0.056	-0.017
-324.114	173.599	0.063	0.091
-323.099	-139.056	-0.141	0.015
-322.085	-101.181	0.214	0.053
-321.070	301.075	0.105	-0.196
-320.056	159.175	0.063	-0.088
-319.041	-49.721	0.142	0.068
-318.026	228.627	0.207	-0.340
-317.012	-200.000	-0.015	-0.192
-315.997	186.550	0.062	-0.093
-314.983	-16.819	-0.113	-0.072
-313.968	141.486	0.191	0.254
-312.953	39.979	0.129	0.117
-311.939	1.691	0.136	-0.099
-310.924	-156.698	0.176	0.011
-309.910	589.184	-0.066	-0.163
-308.895	-200.000	-0.016	0.085
-307.880	-59.165	-0.417	-0.181
-306.866	-200.000	0.005	0.082
-305.851	-93.928	0.174	-0.048
-304.837	40.713	-0.198	-0.179
-303.822	-147.576	0.261	-0.022
-302.807	207.130	0.072	0.112
-301.793	-53.312	-0.145	0.067
-300.778	-1.992	0.206	0.145
-299.764	-200.000	0.051	-0.352
-298.749	113.515	0.206	0.251
-297.735	114.664	0.250	0.306
-296.720	528.305	0.080	0.190
-295.705	800.000	-0.106	0.321
-294.691	-81.460	0.169	-0.056
-293.676	-55.945	0.092	0.041
-292.662	225.607	0.024	0.039
-291.647	-200.000	0.014	-0.216
-290.632	-88.651	0.296	0.089
-289.618	52.225	-0.075	-0.072
-288.603	38.785	0.100	0.089
-287.589	-60.434	0.132	-0.056
-286.574	-177.489	0.046	0.001
-285.559	-200.000	0.032	-0.298
-284.545	-134.429	0.194	0.024
-283.530	800.000	0.036	0.144
-282.516	-39.594	0.215	0.113
-281.501	-115.012	-0.162	-0.031
-280.486	45.157	0.159	0.147
-279.472	-200.000	-0.052	0.000
-278.457	-200.000	-0.020	0.000
-277.443	-161.375	0.280	0.015
-276.428	157.412	-0.052	0.073
-275.413	-84.974	-0.122	-0.038
-274.399	-200.000	-0.001	-0.206
-273.384	-200.000	0.016	0.113
-272.370	90.294	0.067	-0.075
-271.355	-200.000	-0.034	0.293
-270.340	459.330	0.098	0.219
-269.326	-200.000	0.006	0.139
-268.311	-83.425	0.057	-0.018
-267.297	-107.636	-0.093	-0.020
-266.282	-0.201	0.103	-0.074
-265.267	-129.757	-0.317	-0.044
-264.253	-19.845	-0.191	0.118
-263.238	145.260	-0.021	-0.028
-262.224	92.316	0.198	-0.224
-261.209	199.945	0.085	-0.131
-260.195	-116.843	0.208	0.038
-259.180	-54.528	0.146	-0.066
-258.165	397.294	-0.171	-0.358
-257.151	-200.000	0.008	-0.067
-256.136	385.570	-0.114	-0.235
-255.122	371.918	0.135	-0.275
-254.107	-100.639	0.152	0.038
-253.092	136.923	0.202	0.265
-252.078	141.791	-0.154	-0.204
-251.063	-200.000	-0.034	-0.154
-250.049	-52.966	-0.384	0.177
-249.034	800.000	-0.106	-0.325
-248.019	-147.729	-0.209	-0.018
-247.005	-11.795	0.117	0.077
-245.990	-100.641	0.082	0.020
-244.976	-110.632	-0.260	-0.054
-243.961	297.418	0.029	0.053
-242.946	-124.003	-0.286	-0.045
-241.932	-200.000	-0.012	0.088
-240.917	-178.714	-0.226	-0.005
-239.903	-46.290	-0.240	-0.119
-238.888	-5.992	0.180	-0.123
-237.873	301.111	0.161	-0.299
-236.859	153.863	-0.120	-0.165
-235.844	-53.793	-0.155	0.071
-234.830	59.709	0.264	-0.261
-233.815	-200.000	0.007	0.274
-232.800	79.840	0.111	0.119
-231.786	12.341	-0.081	0.063
-230.771	81.885	0.234	0.254
-229.757	-200.000	-0.041	0.196
-228.742	293.460	-0.057	0.103
-227.727	45.560	0.144	0.134
-226.713	-200.000	0.063	-0.350
-225.698	-124.282	-0.155	-0.024
-224.684	-200.000	-0.005	0.075
-223.669	-200.000	0.039	-0.272
-222.655	-74.204	-0.350	0.127
-221.640	-200.000	0.020	-0.128
-220.625	111.831	-0.036	-0.044
-219.611	303.228	0.091	0.168
-218.596	236.593	-0.183	-0.303
-217.582	-124.340	-0.438	-0.068
-216.567	421.250	0.197	-0.424
-215.552	-100.558	0.227	-0.056
-214.538	-200.000	0.012	-0.084
-213.523	142.856	-0.172	-0.229
-212.509	-200.000	-0.003	0.167
-211.494	628.778	0.125	-0.317
-210.479	-200.000	0.041	-0.213
-209.465	394.701	-0.064	-0.134
-208.450	-23.516	0.185	-0.111
-207.436	-78.617	-0.303	0.104
-206.421	800.000	-0.091	0.252
-205.406	160.442	-0.093	0.129
-204.392	-200.000	0.026	-0.215
-203.377	-170.541	-0.159	-0.006
-202.363	-200.000	0.024	0.104
-201.348	30.191	-0.090	0.077
-200.333	-170.490	0.281	0.010
-199.319	-41.010	0.162	-0.084
-198.304	55.392	0.491	0.476
-197.290	229.464	0.094	-0.154
-196.275	800.000	-0.041	0.119
-195.260	-85.629	0.272	0.085
-194.246	-45.442	0.126	0.062
-193.231	800.000	-0.062	0.225
-192.217	800.000	0.092	-0.268
-191.202	-140.183	-0.077	0.008
-190.187	56.362	-0.232	-0.226
-189.173	-200.000	0.007	-0.117
-188.158	-200.000	-0.051	0.319
-187.144	32.989	0.210	0.182
-186.129	-200.000	0.005	0.047
-185.114	-200.000	0.043	0.243
-184.100	800.000	-0.082	0.228
-183.085	-162.043	0.143	-0.007
-182.071	105.084	-0.204	0.241
-181.056	-100.212	-0.378	-0.094
-180.042	190.014	-0.111	-0.167
-179.027	800.000	0.109	0.309
-178.012	0.610	-0.086	0.062
-176.998	-200.000	0.008	-0.096
-175.983	475.957	-0.091	0.205
-174.969	-83.132	0.123	-0.040
-173.954	704.825	0.079	0.209
-172.939	-200.000	-0.000	0.059
-171.925	-200.000	-0.002	0.159
-170.910	-114.338	0.221	-0.043
-169.896	-109.993	-0.348	0.073
-168.881	-76.544	0.269	-0.094
-167.866	-200.000	-0.041	0.228
-166.852	-29.636	-0.010	0.006
-165.837	239.087	0.094	0.156
-164.823	33.890	-0.057	0.050
-163.808	64.548	-0.234	-0.236
-162.793	-16.412	-0.145	0.092
-161.779	146.260	0.050	-0.067
-160.764	-126.333	-0.341	-0.051
-159.750	-88.889	0.212	-0.063
-158.735	8.539	-0.161	0.121
-157.720	318.217	0.099	-0.188
-156.706	800.000	-0.076	-0.241
-155.691	396.684	0.175	0.366
-154.677	-80.615	-0.367	-0.122
-153.662	-89.188	-0.176	-0.052
-152.647	-127.179	0.058	-0.009
-151.633	-151.443	0.218	0.016
-150.618	-48.721	-0.228	0.110
-149.604	-192.198	-0.312	0.003
-148.589	-111.474	0.132	0.027
-147.574	39.039	-0.134	-0.120
-146.560	127.917	0.197	0.250
-145.545	373.019	0.133	0.271
-144.531	305.879	-0.149	0.277
-143.516	314.224	-0.099	0.185
-142.502	122.714	0.161	0.201
-141.487	63.046	0.159	0.159
-140.472	-183.179	-0.290	-0.005
-139.458	-200.000	-0.061	-0.276
-138.443	-136.261	-0.237	-0.028
-137.429	-83.877	-0.232	-0.074
-136.414	-200.000	0.032	-0.274
-135.399	116.276	0.095	0.116
-134.385	195.516	0.154	-0.234
-133.370	-151.896	0.282	0.021
-132.356	-141.360	0.207	0.021
-131.341	20.124	-0.224	0.181
-130.326	-200.000	0.055	0.295
-129.312	517.723	-0.056	0.130
-128.297	709.622	-0.112	0.295
-127.283	247.565	-0.122	-0.206
-126.268	-4.389	-0.309	0.213
-125.253	71.387	0.060	0.063
-124.239	22.560	-0.339	0.277
-123.224	87.674	-0.056	0.062
-122.210	-15.629	-0.104	0.066
-121.195	-25.180	-0.106	0.062
-120.180	108.921	-0.249	-0.298
-119.166	-64.621	0.263	0.106
-118.151	150.602	0.165	0.223
-117.137	800.000	0.035	0.145
-116.122	-57.196	-0.201	-0.088
-115.107	182.564	0.057	0.085
-114.093	46.806	0.281	0.260
-113.078	120.754	-0.203	0.252
-112.064	52.692	-0.200	-0.191
-111.049	-123.881	-0.165	0.026
-110.034	-172.723	0.254	0.008
-109.020	389.151	-0.038	-0.079
-108.005	534.664	-0.056	0.132
-106.991	-200.000	0.090	-0.518
-105.976	17.274	0.237	-0.188
-104.962	246.724	-0.035	0.059
-103.947	53.083	-0.160	-0.153
-102.932	-147.924	0.237	-0.020
-101.918	800.000	-0.109	-0.415
-100.903	787.215	-0.050	0.137
-99.889	299.661	0.144	-0.264
-98.874	74.306	0.246	0.258
-97.859	330.459	-0.120	0.230
-96.845	-11.118	0.278	0.183
-95.830	-59.071	-0.061	0.026
-94.816	-200.000	-0.010	0.224
-93.801	429.814	0.026	-0.056
-92.786	-200.000	-0.007	0.103
-91.772	313.427	0.018	-0.035
-90.757	112.772	0.264	-0.319
-89.743	145.592	-0.124	-0.166
-88.728	43.761	0.423	-0.387
-87.713	378.050	0.085	0.174
-86.699	32.696	-0.361	0.311
-85.684	-200.000	-0.005	0.053
-84.670	620.908	0.010	-0.025
-83.655	-35.121	0.205	0.112
-82.640	800.000	0.053	0.185
-81.626	51.744	-0.184	0.175
-80.611	246.290	-0.063	-0.105
-79.597	-129.531	-0.354	-0.049
-78.582	14.989	-0.130	0.101
-77.567	-121.704	-0.172	0.028
-76.553	38.000	-0.056	-0.050
-75.538	-15.717	0.152	-0.097
-74.524	-76.693	0.059	0.020
-73.509	61.402	0.280	-0.277
-72.494	117.203	0.053	0.065
-71.480	-23.540	-0.235	-0.141
-70.465	152.994	-0.073	0.100
-69.451	-12.615	0.232	-0.151
-68.436	-26.675	0.259	-0.151
-67.422	-200.000	-0.043	0.277
-66.407	-16.122	0.146	0.092
-65.392	-37.145	-0.231	0.123
-64.378	800.000	0.086	0.284
-63.363	-127.168	0.075	-0.011
-62.349	770.400	0.063	0.172
-61.334	11.094	-0.921	-0.702
-60.319	-117.448	-0.079	0.014
-59.305	205.129	-0.215	-0.333
-58.290	364.553	0.447	0.895
-57.276	800.000	0.539	1.671
-56.261	-200.000	75.956	534.331
-55.246	560.772	1305.803	3143.135
-54.232	147.180	2540.252	3404.580
-53.217	121.063	2225.832	2758.641
-52.203	54.628	1667.067	1600.801
-51.188	46.012	1386.783	1278.284
-50.173	42.240	1340.028	1212.381
-49.159	60.701	1374.973	1357.022
-48.144	68.088	1393.742	1420.470
-47.130	46.234	1355.849	1250.920
-46.115	42.047	1339.623	1210.653
-45.100	41.843	1335.066	1205.258
-44.086	41.796	1332.661	1202.760
-43.071	41.583	1330.133	1199.147
-42.057	41.772	1327.506	1197.863
-41.042	41.724	1326.051	1196.217
-40.027	41.761	1324.465	1194.963
-39.013	41.842	1322.601	1193.718
-37.998	41.760	1320.806	1191.560
-36.984	41.816	1318.569	1189.830
-35.969	41.835	1317.140	1188.605
-34.954	41.926	1315.467	1187.588
-33.940	42.056	1313.501	1186.537
-32.925	42.004	1312.373	1185.160
-31.911	42.069	1311.162	1184.405
-30.896	42.009	1309.243	1182.271
-29.881	42.014	1307.755	1180.907
-28.867	42.066	1306.398	1179.943
-27.852	41.997	1305.074	1178.292
-26.838	42.132	1303.297	1177.435
-25.823	42.091	1301.948	1175.930
-24.809	42.065	1300.493	1174.416
-23.794	41.976	1299.322	1172.792
-22.779	42.020	1297.997	1171.809
-21.765	42.134	1296.260	1170.857
-20.750	42.138	1294.702	1169.427
-19.736	41.993	1293.771	1167.697
-18.721	41.891	1292.568	1165.967
-17.706	41.875	1291.727	1165.070
-16.692	41.875	1290.404	1163.830
-15.677	41.872	1289.074	1162.565
-14.663	41.885	1287.618	1161.285
-13.648	41.826	1287.111	1160.441
-12.633	41.896	1285.184	1159.062
-11.619	41.835	1284.676	1158.202
-10.604	41.946	1283.751	1157.967
-9.590	41.845	1282.567	1156.269
-8.575	41.902	1281.649	1155.724
-7.560	41.809	1281.048	1154.600
-6.546	41.810	1280.200	1153.794
-5.531	41.907	1278.680	1152.937
-4.517	41.867	1278.065	1152.108
-3.502	41.918	1277.320	1151.682
-2.487	41.807	1276.852	1150.579
-1.473	41.913	1272.681	1147.378
-0.458	41.171	1258.329	1130.189
0.556	36.836	1239.683	1092.284
1.571	33.201	1242.714	1074.259
2.586	32.072	1257.314	1080.291
3.600	30.089	1245.853	1059.030
4.615	21.109	1167.635	944.108
5.629	7.467	1082.044	805.968
6.644	1.278	1057.804	757.043
7.659	0.875	1054.272	752.444
8.673	0.647	1053.241	750.507
9.688	0.682	1052.010	749.740
10.702	1.136	1050.889	751.124
11.717	9.007	1062.825	798.906
12.731	20.117	1078.888	866.773
13.746	23.616	1082.262	886.927
14.761	23.233	1081.440	884.263
15.775	23.187	1080.597	883.263
16.790	22.846	1079.682	880.741
17.804	22.840	1079.047	880.112
18.819	22.914	1078.782	880.189
19.834	22.997	1077.932	879.831
20.848	22.962	1078.125	879.737
21.863	23.076	1077.235	879.500
22.877	23.047	1076.339	878.542
23.892	22.845	1076.000	877.186
24.907	22.923	1075.468	877.064
25.921	22.932	1074.019	875.848
26.936	23.006	1072.703	875.061
27.950	22.950	1071.462	873.695
28.965	22.789	1069.586	871.297
29.980	22.932	1067.462	870.191
30.994	23.186	1066.684	870.731
32.009	23.121	1065.832	869.637
33.023	22.747	1064.820	866.901
34.038	22.839	1064.261	866.821
35.053	22.891	1063.722	866.559
36.067	23.022	1062.582	866.196
37.082	23.064	1061.630	865.546
38.096	23.163	1061.116	865.539
39.111	23.276	1060.300	865.346
40.126	23.073	1058.828	863.078
41.140	22.790	1057.071	860.192
42.155	22.602	1055.896	858.242
43.169	22.575	1055.131	857.414
44.184	22.657	1054.171	856.955
45.199	22.551	1052.891	855.327
46.213	22.678	1052.183	855.292
47.228	22.792	1051.449	855.170
48.242	22.787	1050.546	854.336
49.257	22.909	1049.874	854.306
50.271	22.946	1048.948	853.653
51.286	23.152	1047.990	853.793
52.301	23.044	1047.062	852.441
53.315	23.044	1046.049	851.540
54.330	23.029	1044.979	850.521
55.344	23.023	1044.557	850.075
56.359	22.891	1043.801	848.752
57.374	22.690	1042.550	846.694
58.388	22.797	1041.388	846.189
59.403	22.683	1040.752	845.049
60.417	22.616	1040.135	844.154
61.432	22.713	1039.638	844.137
62.447	22.779	1039.173	844.001
63.461	22.791	1038.366	843.330
64.476	22.729	1037.439	842.208
65.490	22.580	1036.333	840.523
66.505	22.740	1035.577	840.597
67.520	22.711	1035.227	840.102
68.534	22.476	1033.883	837.821
69.549	22.324	1032.366	835.793
70.563	22.270	1031.697	834.922
71.578	22.193	1031.111	834.008
72.593	22.103	1030.167	832.744
73.607	22.229	1029.659	832.857
74.622	22.547	1029.075	833.814
75.636	22.797	1028.034	834.080
76.651	22.528	1027.381	832.205
77.666	22.434	1026.680	831.122
78.680	22.478	1026.121	830.800
79.695	22.543	1025.838	830.805
80.709	22.641	1024.921	830.451
81.724	22.531	1024.033	829.142
82.739	22.753	1023.044	829.309
83.753	22.975	1022.663	829.973
84.768	23.257	1021.837	830.550
85.782	23.340	1021.009	830.193
86.797	23.237	1019.706	828.578
87.812	23.126	1018.847	827.289
88.826	23.315	1017.604	827.086
89.841	23.307	1017.254	826.691
90.855	23.370	1015.871	825.789
91.870	23.160	1015.148	824.153
92.884	23.161	1014.125	823.251
93.899	23.105	1013.390	822.321
94.914	23.275	1012.475	822.298
95.928	23.160	1011.290	820.729
96.943	22.782	1010.397	818.176
97.957	22.663	1008.899	816.344
98.972	22.500	1007.776	814.607
99.987	22.806	1007.197	815.481
101.001	23.010	1006.249	815.582
102.016	23.098	1005.384	815.214
103.030	22.901	1004.467	813.493
104.045	22.807	1003.652	812.327
105.060	22.571	1002.922	810.582
106.074	22.781	1001.847	810.605
107.089	23.172	1001.232	811.830
108.103	22.950	1000.478	810.129
109.118	22.642	998.942	807.403
110.133	22.707	998.196	807.026
111.147	22.648	996.347	805.188
112.162	22.403	995.824	803.575
113.176	22.651	995.497	804.376
114.191	22.608	994.675	803.442
115.206	22.377	993.485	801.360
116.220	22.236	992.945	800.209
117.235	22.523	991.350	800.159
118.249	22.481	990.641	799.323
119.264	22.399	989.848	798.241
120.279	22.331	989.805	797.828
121.293	22.468	988.978	797.711
122.308	22.578	987.642	797.060
123.322	22.479	986.636	795.733
124.337	22.427	985.309	794.355
125.352	21.878	983.826	790.616
126.366	21.857	982.787	789.619
127.381	22.467	983.003	792.466
128.395	22.925	982.574	794.111
129.410	23.020	981.641	793.714
130.424	23.002	980.881	792.948
131.439	22.961	979.805	791.825
132.454	22.925	979.131	791.048
133.468	22.842	978.023	789.711
134.483	23.134	976.958	790.085
135.497	23.364	976.039	790.299
136.512	23.257	975.558	789.364
137.527	23.275	974.974	788.902
138.541	23.344	974.041	788.384
139.556	23.268	972.854	787.015
140.570	23.347	972.157	786.732
141.585	23.348	971.274	785.951
142.600	23.334	970.432	785.139
143.614	23.538	969.470	785.192
144.629	23.629	968.820	784.999
145.643	23.372	967.945	783.087
146.658	23.292	966.454	781.457
147.673	23.039	965.223	779.277
148.687	23.060	964.383	778.623
149.702	22.969	963.408	777.369
150.716	23.030	962.573	776.894
151.731	23.137	961.819	776.686
152.746	23.253	961.047	776.502
153.760	23.314	960.914	776.594
154.775	23.488	960.239	776.743
155.789	23.364	959.177	775.270
156.804	23.352	958.050	774.238
157.819	23.401	957.303	773.779
158.833	23.524	956.609	773.689
159.848	23.424	955.927	772.634
160.862	23.364	954.573	771.209
161.877	23.424	953.542	770.568
162.892	23.347	953.159	769.856
163.906	23.414	951.449	768.698
164.921	23.317	950.638	767.554
165.935	23.428	949.866	767.345
166.950	23.335	949.076	766.237
167.964	23.435	948.228	765.915
168.979	23.257	946.939	764.039
169.994	23.110	946.349	762.858
171.008	23.221	945.985	762.977
172.023	23.400	945.002	762.888
173.037	23.308	943.398	761.131
174.052	23.230	942.411	759.933
175.067	23.162	941.986	759.229
176.081	23.331	941.341	759.367
177.096	23.148	941.386	758.552
178.110	22.933	939.827	756.311
179.125	22.784	938.729	754.723
180.140	22.832	938.853	754.960
181.154	22.920	938.562	755.036
182.169	23.234	938.608	756.348
183.183	23.438	937.983	756.646
184.198	23.319	936.925	755.220
185.213	23.261	936.166	754.295
186.227	23.346	935.586	754.119
187.242	23.367	935.016	753.686
188.256	23.381	934.248	753.059
189.271	23.490	933.391	752.763
190.286	23.266	932.256	750.830
191.300	22.637	930.725	746.869
192.315	21.864	929.633	742.656
193.329	21.833	928.902	741.872
194.344	22.581	929.832	745.714
195.359	23.245	929.423	748.129
196.373	23.210	929.023	747.595
197.388	23.219	928.196	746.899
198.402	23.154	927.987	746.393
199.417	23.277	926.944	746.003
200.432	22.954	926.169	743.957
201.446	22.696	925.632	742.374
202.461	22.845	924.723	742.204
203.475	21.981	923.138	737.238
204.490	21.247	921.483	732.773
205.504	22.148	921.716	736.672
206.519	22.873	921.421	739.411
207.534	22.904	921.285	739.366
208.548	23.429	920.935	741.214
209.563	23.056	920.006	738.842
210.577	23.021	919.568	738.280
211.592	23.467	919.205	739.785
212.607	23.357	918.296	738.528
213.621	23.446	917.564	738.246
214.636	23.454	916.880	737.664
215.650	23.415	915.998	736.726
216.665	23.655	915.205	737.019
217.680	23.383	914.826	735.519
218.694	22.986	913.772	732.960
219.709	22.988	912.731	732.068
220.723	23.204	912.323	732.571
221.738	23.281	911.793	732.401
222.753	23.222	910.883	731.360
223.767	23.315	910.288	731.201
224.782	23.509	910.528	732.131
225.796	23.583	909.815	731.797
226.811	22.895	908.467	727.816
227.826	22.219	907.280	724.017
228.840	22.372	906.562	724.011
229.855	22.555	905.891	724.162
230.869	22.171	904.718	721.583
231.884	22.533	905.056	723.276
232.899	23.264	904.954	726.128
233.913	23.191	903.995	724.996
234.928	23.315	903.343	724.917
235.942	23.198	902.972	724.076
236.957	23.011	901.713	722.239
237.972	22.879	901.664	721.595
238.986	22.958	900.986	721.313
240.001	22.919	900.634	720.806
241.015	22.983	900.050	720.539
242.030	23.206	899.653	721.066
243.045	23.330	898.978	720.966
244.059	23.484	898.445	721.099
245.074	23.121	898.107	719.289
246.088	22.969	896.202	717.082
247.103	23.083	896.413	717.652
248.117	23.618	896.469	719.802
249.132	23.981	895.946	720.789
250.147	24.090	895.292	720.639
251.161	24.163	894.635	720.345
252.176	23.999	894.516	719.521
253.190	24.220	893.268	719.344
254.205	24.436	893.107	720.024
255.220	24.278	892.224	718.611
256.234	24.144	891.658	717.551
257.249	24.113	890.686	716.582
258.263	24.094	890.097	715.966
259.278	24.181	889.252	715.574
260.293	24.230	888.596	715.178
261.307	24.091	888.306	714.326
262.322	23.958	887.271	712.897
263.336	23.202	885.292	708.219
264.351	22.085	883.603	702.342
265.366	22.259	883.277	702.717
266.380	23.253	884.150	707.324
267.395	23.770	884.026	709.226
268.409	23.563	883.418	707.851
269.424	23.887	882.760	708.550
270.439	23.951	881.582	707.798
271.453	23.956	881.774	707.908
272.468	24.195	881.092	708.248
273.482	24.321	880.391	708.123
274.497	23.925	879.295	705.605
275.512	23.406	878.642	702.965
276.526	23.854	878.493	704.559
277.541	24.010	878.098	704.797
278.555	23.809	877.148	703.176
279.570	23.526	876.525	701.495
280.585	23.609	876.319	701.595
281.599	23.763	875.106	701.169
282.614	23.285	873.733	698.125
283.628	23.193	872.983	697.103
284.643	23.506	873.114	698.377
285.657	23.201	871.689	695.975
286.672	22.939	870.891	694.248
287.687	23.487	871.287	696.654
288.701	23.527	870.863	696.412
289.716	23.232	869.727	694.286
290.730	23.154	868.951	693.298
291.745	22.897	868.204	691.635
292.760	23.181	868.036	692.551
293.774	24.340	867.931	696.939
294.789	24.567	868.024	697.840
295.803	24.503	867.165	696.837
296.818	24.513	866.619	696.377
297.833	24.093	865.731	693.962
298.847	24.000	864.648	692.672
299.862	24.196	864.784	693.484
300.876	24.311	864.937	693.992
301.891	24.303	863.941	693.099
302.906	23.987	862.696	690.813
303.920	24.251	862.264	691.430
304.935	24.476	862.482	692.419
305.949	24.394	861.630	691.356
306.964	24.236	860.787	690.005
307.979	24.184	860.607	689.599
308.993	24.485	860.328	690.477
310.008	24.685	859.470	690.503
311.022	24.491	858.766	689.126
312.037	24.238	858.301	687.716
313.052	24.015	857.667	686.285
314.066	23.094	855.582	681.014
315.081	22.800	854.666	679.091
316.095	23.716	854.957	682.787
317.110	24.165	855.071	684.542
318.125	23.310	853.742	680.138
319.139	22.295	852.323	675.054
320.154	22.228	851.541	674.118
321.168	22.996	852.201	677.526
322.183	23.714	852.468	680.430
323.197	23.930	852.100	680.904
324.212	24.200	851.795	681.633
325.227	24.384	850.622	681.336
326.241	24.300	849.958	680.423
327.256	24.021	849.564	678.983
328.270	24.056	848.929	678.549
329.285	23.757	848.023	676.625
330.300	23.709	847.297	675.804
331.314	23.794	846.980	675.817
332.329	24.268	846.884	677.481
333.343	24.418	846.362	677.572
334.358	24.444	846.116	677.415
335.373	24.392	845.926	677.005
336.387	24.649	845.688	677.729
337.402	24.758	845.692	678.088
338.416	24.848	844.883	677.719
339.431	24.877	844.691	677.615
340.446	24.931	844.589	677.678
341.460	24.746	844.165	676.577
342.475	24.502	843.733	675.247
343.489	24.675	842.983	675.241
344.504	25.106	842.761	676.633
345.519	25.112	842.460	676.354
346.533	25.089	841.946	675.793
347.548	25.154	841.611	675.708
348.562	25.131	840.969	675.048
349.577	25.124	840.080	674.248
350.592	25.114	839.663	673.815
351.606	25.068	838.919	672.988
352.621	25.052	837.613	671.818
353.635	24.845	836.989	670.484
354.650	24.230	835.573	666.990
355.665	23.351	834.071	662.447
356.679	23.773	833.934	663.856
357.694	24.163	833.442	664.863
358.708	23.874	833.379	663.676
359.723	24.453	832.800	665.315
360.738	24.842	832.441	666.414
361.752	24.836	832.194	666.139
362.767	25.195	831.845	667.135
363.781	25.346	831.746	667.558
364.796	25.493	831.006	667.451
365.810	25.538	830.781	667.376
366.825	25.504	830.281	666.791
367.840	25.333	829.532	665.496
368.854	24.886	828.650	663.076
369.869	25.006	827.878	662.844
370.883	24.967	827.632	662.444
371.898	24.806	827.243	661.477
372.913	25.023	827.003	662.029
373.927	25.009	826.682	661.664
374.942	25.085	826.184	661.487
375.956	25.206	825.817	661.577
376.971	25.402	825.340	661.861
377.986	25.610	824.842	662.170
379.000	25.399	824.631	661.163
380.015	25.316	823.866	660.186
381.029	25.312	823.489	659.810
382.044	25.507	822.715	659.849
383.059	25.572	821.937	659.404
384.073	25.493	821.507	658.714
385.088	25.471	821.038	658.197
386.102	25.233	820.314	656.688
387.117	25.145	819.872	655.953
388.132	24.978	818.653	654.310
389.146	24.506	817.592	651.683
390.161	24.820	817.793	652.930
391.175	25.177	817.695	654.096
392.190	24.967	816.127	652.020
393.205	23.637	814.390	645.740
394.219	22.227	812.642	639.174
395.234	22.130	812.006	638.267
396.248	23.516	813.891	644.734
397.263	24.980	814.766	650.693
398.278	25.001	814.279	650.323
399.292	24.626	813.795	648.517
400.307	24.704	813.190	648.261
401.321	24.917	812.572	648.481
402.336	25.251	812.685	649.723
403.350	25.773	812.426	651.347
404.365	25.897	812.136	651.505
405.380	26.149	812.050	652.292
406.394	26.193	811.382	651.854
407.409	26.081	810.847	650.965
408.423	26.154	810.587	650.961
409.438	26.324	810.252	651.248
410.453	26.323	809.600	650.661
411.467	26.142	809.641	649.984
412.482	26.114	808.703	649.072
413.496	26.154	808.359	648.883
414.511	26.216	808.100	648.841
415.526	26.138	807.765	648.235
416.540	26.045	807.034	647.257
417.555	25.941	805.827	645.859
418.569	26.018	805.655	645.939
419.584	25.835	805.124	644.803
420.599	25.693	804.610	643.825
421.613	91.687	1255.521	1356.474
422.628	78.544	1321.245	1356.619
