DTS Sentinel unit serial number:	SN413079Multiplexer serial number:	ORYXHardware model number:	OX4-SRSoftware version number:	ORYX F/W v4.00 Oryx Data Collector v3.7.2.0data status	okinstallation	princeton_trtdifferential loss correction	single-endedforward channel	channel 1reverse channel	N/Adate	2019/09/19time	13:42:35forward acquisition time	60.00reverse acquisition time	0.00gamma	496.2192k internal	0.2326k external	0.2326temperature offset calibration	1.0019default loss term (dB/km)	0.3790temperature slope calibration	1.0000multiplexer offset coefficient	1.0000multiplexer slope coefficient	1.0000fibre end	0.00T internal ref (°C)	30.47T ext. ref 1 (°C)	1.00T ext. ref 2 (°C)	27.63length (m)	temperature (°C)	Stokes	anti-Stokes-747.200	63.255	-0.113	-0.114
-746.185	169.313	-0.113	0.162
-745.171	-121.165	-0.049	-0.008
-744.156	-30.237	-0.291	0.167
-743.142	-153.367	0.133	0.009
-742.127	-98.259	-0.326	-0.084
-741.112	171.657	-0.152	0.221
-740.098	131.435	0.155	0.201
-739.083	-167.536	0.498	-0.020
-738.069	-25.396	0.263	0.157
-737.054	-40.346	-0.297	0.156
-736.039	184.522	0.020	-0.030
-735.025	-200.000	0.018	0.202
-734.010	567.806	0.072	0.176
-732.996	-200.000	0.068	-0.321
-731.981	13.768	0.335	-0.262
-730.966	141.607	-0.070	0.094
-729.952	748.681	0.053	0.144
-728.937	800.000	-0.060	-0.255
-727.923	-157.525	0.196	-0.012
-726.908	81.338	0.110	-0.119
-725.894	-200.000	-0.013	-0.324
-724.879	-110.975	0.107	-0.022
-723.864	-200.000	0.014	-0.134
-722.850	-200.000	-0.051	-0.348
-721.835	378.838	-0.086	0.178
-720.821	800.000	0.025	-0.086
-719.806	20.769	-0.063	0.051
-718.791	67.630	0.304	-0.312
-717.777	31.601	-0.107	-0.092
-716.762	-200.000	0.262	0.001
-715.748	249.031	0.093	0.158
-714.733	8.843	0.241	-0.183
-713.718	-24.738	-0.270	-0.161
-712.704	-87.705	0.297	-0.090
-711.689	176.971	0.027	-0.040
-710.675	-37.354	0.137	-0.074
-709.660	-130.228	-0.191	-0.026
-708.645	-75.900	-0.465	-0.166
-707.631	-200.000	0.029	-0.256
-706.616	127.597	0.137	0.175
-705.602	-16.106	0.099	0.064
-704.587	800.000	-0.110	-0.403
-703.572	-32.261	0.378	-0.213
-702.558	158.063	-0.073	0.102
-701.543	53.163	0.038	0.037
-700.529	62.615	-0.126	-0.127
-699.514	-137.633	0.263	-0.030
-698.499	-200.000	-0.025	-0.117
-697.485	95.472	-0.303	-0.348
-696.470	-128.928	-0.111	0.016
-695.456	265.872	0.191	0.335
-694.441	248.930	0.260	0.442
-693.426	189.036	-0.148	0.223
-692.412	622.251	0.166	-0.421
-691.397	-200.000	0.017	-0.233
-690.383	194.841	0.238	0.363
-689.368	200.536	0.076	-0.118
-688.354	-200.000	-0.015	0.474
-687.339	-159.707	-0.339	0.019
-686.324	-200.000	-0.005	-0.058
-685.310	-100.278	0.110	-0.027
-684.295	254.273	0.034	0.058
-683.281	-28.398	0.302	0.175
-682.266	-200.000	-0.018	-0.153
-681.251	-136.768	-0.266	0.031
-680.237	800.000	-0.005	-0.022
-679.222	-160.637	0.277	-0.015
-678.208	-24.537	-0.095	-0.057
-677.193	-99.573	-0.381	-0.096
-676.178	88.676	-0.261	-0.292
-675.164	253.541	-0.139	-0.238
-674.149	-71.151	0.226	-0.085
-673.135	45.777	-0.163	0.151
-672.120	164.290	-0.158	0.223
-671.105	-142.764	0.215	0.021
-670.091	-56.073	-0.194	0.087
-669.076	800.000	0.112	-0.414
-668.062	-165.269	0.138	-0.006
-667.047	-67.270	-0.098	0.039
-666.032	800.000	-0.059	0.256
-665.018	-61.892	-0.217	0.091
-664.003	51.379	-0.157	0.150
-662.989	-37.610	0.186	0.100
-661.974	122.303	0.123	0.154
-660.959	-119.483	0.194	-0.034
-659.945	800.000	0.062	-0.186
-658.930	-18.641	0.024	0.015
-657.916	113.084	-0.112	0.137
-656.901	800.000	-0.058	-0.200
-655.886	758.071	0.021	0.057
-654.872	-200.000	-0.048	0.214
-653.857	-140.623	-0.295	0.031
-652.843	58.111	-0.133	-0.131
-651.828	-6.708	-0.184	0.126
-650.814	-112.294	0.150	0.030
-649.799	148.792	-0.078	-0.107
-648.784	800.000	-0.075	-0.296
-647.770	-45.961	-0.204	0.101
-646.755	112.187	-0.057	-0.069
-645.741	-200.000	0.043	0.553
-644.726	131.744	-0.159	-0.205
-643.711	245.105	0.090	0.153
-642.697	-200.000	-0.017	0.247
-641.682	-101.830	-0.150	-0.036
-640.668	-200.000	0.008	-0.078
-639.653	493.735	0.088	-0.203
-638.638	118.366	0.069	-0.085
-637.624	-200.000	-0.085	0.387
-636.609	-41.622	-0.093	0.048
-635.595	16.675	0.215	0.171
-634.580	-115.130	0.108	0.021
-633.565	108.977	0.080	0.096
-632.551	-200.000	0.022	-0.234
-631.536	800.000	0.101	0.331
-630.522	-133.941	0.187	-0.023
-629.507	-200.000	0.082	0.432
-628.492	218.792	-0.110	-0.176
-627.478	-176.741	-0.297	-0.008
-626.463	-33.760	-0.269	-0.149
-625.449	58.865	-0.221	-0.218
-624.434	800.000	0.090	0.328
-623.419	-125.891	0.595	-0.090
-622.405	800.000	0.062	0.196
-621.390	3.348	0.055	0.040
-620.376	-123.210	0.184	-0.030
-619.361	-76.326	-0.066	0.023
-618.346	120.533	0.278	0.347
-617.332	800.000	0.016	0.064
-616.317	344.007	-0.118	-0.233
-615.303	-101.300	-0.225	0.055
-614.288	-102.073	0.092	-0.022
-613.273	292.361	0.030	0.055
-612.259	724.111	0.064	-0.172
-611.244	-60.786	0.259	-0.110
-610.230	-55.709	0.300	-0.135
-609.215	-200.000	-0.045	-0.323
-608.201	195.409	0.053	0.081
-607.186	-18.319	0.283	0.177
-606.171	-132.514	-0.330	0.043
-605.157	130.068	0.171	0.219
-604.142	728.324	0.016	0.043
-603.128	-130.316	0.517	0.070
-602.113	-200.000	-0.014	0.186
-601.098	138.062	-0.185	0.243
-600.084	165.899	-0.219	-0.311
-599.069	145.494	0.123	0.165
-598.055	-200.000	-0.011	0.058
-597.040	800.000	-0.041	0.114
-596.025	-40.998	-0.216	-0.112
-595.011	800.000	-0.110	0.308
-593.996	159.223	0.017	0.023
-592.982	2.340	-0.100	0.073
-591.967	-79.185	-0.053	0.018
-590.952	-34.995	0.142	0.077
-589.938	134.310	-0.094	0.122
-588.923	800.000	0.054	-0.159
-587.909	-200.000	-0.059	-0.518
-586.894	26.241	0.135	0.113
-585.879	-200.000	-0.017	0.508
-584.865	-149.965	-0.171	0.013
-583.850	124.954	0.175	-0.221
-582.836	-20.453	-0.113	0.070
-581.821	282.980	0.150	-0.269
-580.806	-4.550	0.102	0.071
-579.792	-120.807	-0.214	0.036
-578.777	19.588	-0.226	0.183
-577.763	242.343	-0.020	0.034
-576.748	-46.399	-0.209	0.103
-575.733	-200.000	-0.026	-0.311
-574.719	-67.139	0.071	0.028
-573.704	-110.129	-0.014	0.003
-572.690	-44.958	-0.303	-0.151
-571.675	-166.855	0.151	-0.006
-570.661	-90.208	0.423	0.123
-569.646	-172.614	-0.396	0.012
-568.631	800.000	-0.025	-0.102
-567.617	-200.000	0.049	-0.283
-566.602	-77.111	-0.102	0.036
-565.588	-40.433	-0.173	0.090
-564.573	-156.367	0.417	0.026
-563.558	50.965	-0.061	-0.058
-562.544	800.000	-0.065	-0.212
-561.529	17.970	-0.103	0.082
-560.515	-200.000	0.002	0.028
-559.500	-200.000	0.050	-0.267
-558.485	-126.474	0.591	-0.088
-557.471	-103.284	0.107	-0.025
-556.456	-200.000	0.004	0.311
-555.442	-200.000	0.014	0.311
-554.427	800.000	0.021	0.073
-553.412	-116.550	-0.268	-0.049
-552.398	374.556	-0.110	-0.224
-551.383	-51.573	-0.092	-0.043
-550.369	-154.212	0.155	0.011
-549.354	174.786	-0.145	-0.210
-548.339	701.195	0.031	-0.082
-547.325	1.553	-0.216	0.156
-546.310	-58.877	-0.173	-0.075
-545.296	-25.021	0.273	0.162
-544.281	800.000	-0.027	0.113
-543.266	11.368	-0.164	0.126
-542.252	-104.677	-0.371	0.085
-541.237	-200.000	-0.036	-0.174
-540.223	-148.151	-0.253	-0.021
-539.208	-33.449	-0.005	0.003
-538.193	121.026	-0.046	0.057
-537.179	738.260	0.022	0.059
-536.164	800.000	-0.118	-0.372
-535.150	-56.965	0.239	0.105
-534.135	-57.725	0.123	-0.054
-533.121	-12.780	0.269	0.176
-532.106	-104.676	-0.180	-0.042
-531.091	3.051	-0.035	-0.025
-530.077	205.592	-0.066	0.103
-529.062	-16.820	0.225	0.143
-528.048	-74.414	-0.081	0.029
-527.033	-95.049	0.185	-0.050
-526.018	-95.680	-0.316	-0.084
-525.004	12.465	0.127	-0.098
-523.989	-124.102	-0.134	0.021
-522.975	149.142	-0.098	-0.132
-521.960	33.037	-0.129	0.112
-520.945	464.847	-0.061	-0.137
-519.931	800.000	-0.042	-0.117
-518.916	-200.000	0.010	0.132
-517.902	-200.000	0.030	-0.314
-516.887	-182.868	-0.422	0.008
-515.872	146.673	0.067	-0.090
-514.858	-200.000	-0.047	0.237
-513.843	20.053	-0.203	0.164
-512.829	-8.582	0.049	-0.033
-511.814	-136.289	0.063	0.007
-510.799	-200.000	0.012	-0.254
-509.785	35.126	0.075	-0.066
-508.770	62.153	0.243	0.243
-507.756	290.294	0.218	-0.395
-506.741	-170.137	0.402	0.014
-505.726	-110.190	-0.172	0.036
-504.712	57.279	0.019	-0.019
-503.697	-179.308	-0.196	-0.004
-502.683	-96.095	-0.391	0.104
-501.668	-200.000	-0.000	-0.171
-500.653	-55.461	-0.254	0.114
-499.639	-200.000	0.025	-0.284
-498.624	-120.354	-0.157	-0.027
-497.610	-200.000	0.054	-0.345
-496.595	-6.238	0.303	-0.207
-495.581	181.174	-0.231	-0.339
-494.566	666.624	-0.111	-0.286
-493.551	-41.936	0.121	-0.062
-492.537	-128.084	0.163	-0.023
-491.522	-184.968	-0.159	0.002
-490.508	14.954	-0.135	-0.106
-489.493	11.545	-0.093	-0.072
-488.478	-176.772	0.257	-0.007
-487.464	-200.000	-0.040	-0.243
-486.449	-128.064	-0.538	-0.077
-485.435	-2.706	-0.178	-0.124
-484.420	232.684	-0.112	0.184
-483.405	389.974	0.037	0.076
-482.391	-200.000	-0.026	-0.223
-481.376	128.574	-0.141	-0.179
-480.362	-20.396	-0.133	-0.082
-479.347	43.375	0.043	0.039
-478.332	-123.301	-0.318	0.051
-477.318	-200.000	-0.010	0.364
-476.303	-97.746	-0.247	0.064
-475.289	800.000	0.031	0.125
-474.274	136.739	-0.084	0.109
-473.259	-81.764	-0.201	-0.066
-472.245	441.611	-0.041	-0.089
-471.230	-108.166	-0.407	0.088
-470.216	-1.613	-0.131	0.092
-469.201	-73.964	-0.150	0.054
-468.186	-184.307	0.280	-0.005
-467.172	76.964	0.124	0.131
-466.157	401.643	-0.166	0.347
-465.143	-113.901	0.039	0.008
-464.128	-200.000	0.215	0.000
-463.113	255.603	0.185	-0.316
-462.099	-174.632	-0.100	0.003
-461.084	54.498	-0.170	-0.164
-460.070	62.452	0.086	0.085
-459.055	-29.799	0.257	0.146
-458.040	164.277	0.032	0.045
-457.026	69.056	0.243	-0.249
-456.011	800.000	-0.203	-0.642
-454.997	40.946	0.366	-0.329
-453.982	-113.832	0.236	0.046
-452.968	273.680	-0.102	0.180
-451.953	-200.000	0.037	-0.248
-450.938	46.189	0.160	0.148
-449.924	-200.000	-0.026	0.121
-448.909	-48.797	-0.065	0.031
-447.895	-200.000	0.027	-0.167
-446.880	-200.000	-0.005	-0.241
-445.865	-114.855	-0.167	-0.032
-444.851	-200.000	0.005	-0.175
-443.836	-114.788	-0.314	0.060
-442.822	-127.659	0.202	-0.029
-441.807	-20.009	-0.154	0.095
-440.792	15.093	0.237	0.185
-439.778	-200.000	0.010	0.091
-438.763	-100.963	0.076	0.019
-437.749	27.808	0.046	-0.039
-436.734	99.400	-0.277	0.320
-435.719	430.484	-0.051	0.111
-434.705	-200.000	-0.002	-0.214
-433.690	-117.083	0.454	-0.082
-432.676	-109.424	-0.367	-0.077
-431.661	-143.482	0.267	-0.025
-430.646	63.712	-0.025	0.025
-429.632	-107.729	0.215	0.047
-428.617	800.000	0.097	0.298
-427.603	25.742	-0.092	-0.077
-426.588	268.006	0.103	0.179
-425.573	-136.722	0.172	-0.020
-424.559	-121.407	-0.112	-0.019
-423.544	-109.404	0.193	0.041
-422.530	-200.000	-0.036	-0.237
-421.515	-200.000	-0.028	0.361
-420.500	800.000	0.147	-0.437
-419.486	97.710	-0.175	-0.201
-418.471	676.886	0.024	-0.063
-417.457	-0.607	-0.133	-0.094
-416.442	-37.885	-0.181	-0.096
-415.428	111.213	-0.072	0.086
-414.413	-44.819	0.338	-0.168
-413.398	-155.048	0.123	-0.008
-412.384	21.491	0.203	0.164
-411.369	387.386	0.091	0.188
-410.355	-72.328	-0.280	0.103
-409.340	550.627	0.048	0.114
-408.325	388.337	-0.029	-0.060
-407.311	229.677	0.129	0.210
-406.296	-121.114	-0.278	-0.046
-405.282	-85.371	-0.148	0.046
-404.267	460.081	-0.097	-0.215
-403.252	-81.478	-0.271	-0.089
-402.238	-25.275	0.324	-0.191
-401.223	800.000	-0.086	-0.288
-400.209	38.991	0.042	-0.037
-399.194	-153.860	-0.190	0.013
-398.179	189.060	-0.194	-0.289
-397.165	-67.909	-0.298	-0.116
-396.150	187.519	0.075	-0.111
-395.136	-71.005	0.130	0.049
-394.121	82.169	-0.418	-0.451
-393.106	800.000	-0.050	-0.187
-392.092	-4.181	0.109	0.075
-391.077	169.077	-0.083	0.118
-390.063	264.037	0.037	0.065
-389.048	59.747	-0.208	0.205
-388.033	-47.612	0.090	-0.044
-387.019	-200.000	0.004	-0.064
-386.004	-84.968	0.233	0.073
-384.990	-115.911	0.106	-0.020
-383.975	116.427	-0.029	-0.035
-382.960	338.514	0.031	0.060
-381.946	-200.000	0.022	0.227
-380.931	36.409	0.477	0.418
-379.917	297.435	0.080	0.146
-378.902	186.154	-0.055	-0.081
-377.888	471.854	0.114	-0.255
-376.873	-37.527	0.303	-0.161
-375.858	133.515	0.135	0.173
-374.844	-105.423	0.095	0.021
-373.829	92.446	0.070	-0.078
-372.815	202.712	-0.041	-0.063
-371.800	-200.000	0.067	0.349
-370.785	800.000	0.085	-0.305
-369.771	-99.226	-0.325	-0.082
-368.756	150.715	0.126	-0.170
-367.742	-191.979	0.182	0.002
-366.727	-200.000	-0.051	0.502
-365.712	-149.031	-0.154	-0.012
-364.698	52.632	-0.090	0.086
-363.683	163.968	-0.114	-0.159
-362.669	-45.614	-0.251	-0.123
-361.654	-97.574	0.190	-0.049
-360.639	270.020	0.146	0.255
-359.625	-18.742	-0.194	-0.120
-358.610	-75.964	0.381	-0.134
-357.596	-41.824	0.071	-0.036
-356.581	-7.865	0.138	0.092
-355.566	111.336	0.193	-0.231
-354.552	-79.322	0.091	-0.031
-353.537	367.301	0.088	0.177
-352.523	75.090	-0.299	-0.313
-351.508	206.855	0.112	0.173
-350.493	493.371	-0.073	-0.166
-349.479	96.440	-0.214	-0.243
-348.464	-34.796	-0.338	0.184
-347.450	-200.000	0.009	0.142
-346.435	-80.976	0.468	0.154
-345.420	-200.000	0.032	-0.141
-344.406	-200.000	-0.026	-0.345
-343.391	-46.402	0.120	-0.059
-342.377	-97.340	-0.237	0.061
-341.362	-33.355	0.016	0.009
-340.348	-51.763	-0.312	-0.144
-339.333	-131.901	-0.354	-0.046
-338.318	-66.649	0.343	0.135
-337.304	800.000	-0.100	0.374
-336.289	63.713	-0.139	-0.139
-335.275	26.292	-0.292	0.242
-334.260	-27.270	0.264	0.152
-333.245	-106.532	0.301	-0.067
-332.231	158.355	-0.158	-0.218
-331.216	-170.827	-0.249	-0.008
-330.202	-116.695	-0.101	-0.018
-329.187	324.295	0.125	0.237
-328.172	-169.904	-0.138	-0.005
-327.158	-187.412	0.158	-0.002
-326.143	-108.346	-0.110	-0.023
-325.129	-126.200	-0.171	-0.025
-324.114	-7.990	-0.108	-0.072
-323.099	250.195	0.180	-0.304
-322.085	224.563	-0.070	-0.113
-321.070	-44.770	0.043	-0.021
-320.056	52.287	0.020	-0.019
-319.041	-61.778	-0.091	-0.038
-318.026	64.483	0.086	-0.086
-317.012	29.524	0.172	-0.145
-315.997	290.451	0.051	-0.092
-314.983	-200.000	0.000	-0.184
-313.968	-139.327	0.258	0.027
-312.953	-89.723	-0.216	-0.063
-311.939	745.889	0.095	0.254
-310.924	14.307	-0.193	-0.149
-309.910	-135.830	0.262	-0.031
-308.895	342.460	0.176	0.342
-307.880	66.735	-0.318	0.321
-306.866	-63.099	-0.069	-0.028
-305.851	157.887	0.149	-0.205
-304.837	27.693	-0.220	-0.183
-303.822	-68.218	0.263	-0.102
-302.807	8.561	-0.057	0.043
-301.793	186.560	0.134	0.197
-300.778	-200.000	-0.015	0.354
-299.764	-200.000	0.046	0.201
-298.749	-47.158	-0.222	0.107
-297.735	657.788	0.023	0.059
-296.720	-10.490	-0.352	-0.231
-295.705	-2.022	-0.247	0.172
-294.691	-200.000	-0.023	-0.171
-293.676	43.538	0.098	0.089
-292.662	-182.839	-0.373	0.007
-291.647	82.671	0.207	0.223
-290.632	140.624	-0.117	0.153
-289.618	182.166	-0.219	-0.320
-288.603	94.342	-0.033	0.038
-287.589	6.861	0.166	0.122
-286.574	-85.647	0.230	0.071
-285.559	-94.363	0.213	-0.058
-284.545	-78.569	0.217	-0.074
-283.530	78.039	0.215	0.227
-282.516	-101.552	-0.147	0.035
-281.501	96.799	0.134	0.152
-280.486	-75.635	-0.176	-0.062
-279.472	-200.000	0.000	-0.131
-278.457	-87.041	-0.050	-0.015
-277.443	800.000	-0.071	-0.205
-276.428	672.945	-0.059	0.151
-275.413	800.000	0.020	-0.059
-274.399	390.904	0.028	0.057
-273.384	-88.711	0.177	-0.052
-272.370	-200.000	0.013	-0.249
-271.355	10.927	-0.361	-0.273
-270.340	-200.000	0.026	0.328
-269.326	72.779	-0.134	0.138
-268.311	-200.000	0.015	0.148
-267.297	800.000	-0.017	0.065
-266.282	-145.114	-0.269	-0.024
-265.267	-200.000	0.016	0.210
-264.253	528.228	0.108	0.253
-263.238	-131.502	0.145	-0.019
-262.224	-23.170	0.285	0.170
-261.209	-37.754	-0.092	0.049
-260.195	-44.790	-0.320	-0.158
-259.180	514.500	0.131	0.302
-258.165	246.717	0.094	-0.156
-257.151	800.000	-0.074	-0.263
-256.136	-150.793	0.130	0.010
-255.122	-51.507	-0.219	0.101
-254.107	-139.193	-0.050	0.005
-253.092	800.000	-0.132	-0.420
-252.078	55.829	0.158	0.152
-251.063	12.051	0.245	-0.187
-250.049	-200.000	-0.004	0.146
-249.034	-1.774	0.141	0.098
-248.019	94.525	-0.160	-0.179
-247.005	-200.000	-0.016	0.116
-245.990	439.364	0.039	-0.083
-244.976	-149.921	-0.313	0.024
-243.961	-125.436	0.324	-0.049
-242.946	-23.762	-0.124	0.073
-241.932	-172.352	0.246	-0.008
-240.917	-167.090	-0.118	-0.005
-239.903	800.000	-0.014	0.041
-238.888	-4.520	0.091	-0.062
-237.873	33.652	0.377	-0.324
-236.859	72.366	-0.093	-0.096
-235.844	576.187	-0.045	-0.109
-234.830	576.415	-0.083	0.200
-233.815	-200.000	-0.323	-0.001
-232.800	-200.000	-0.080	0.545
-231.786	93.127	0.285	-0.319
-230.771	-119.496	0.439	-0.075
-229.757	33.563	-0.184	-0.158
-228.742	171.505	0.183	-0.260
-227.727	800.000	0.039	0.111
-226.713	-200.000	0.015	0.264
-225.698	58.615	-0.173	-0.168
-224.684	-200.000	-0.071	-0.373
-223.669	-200.000	0.026	0.115
-222.655	-75.365	0.086	0.030
-221.640	800.000	-0.086	-0.263
-220.625	-81.260	0.172	0.056
-219.611	33.003	-0.254	0.217
-218.596	-200.000	-0.027	-0.194
-217.582	89.439	-0.141	-0.155
-216.567	-35.158	0.188	-0.101
-215.552	-93.569	0.256	-0.070
-214.538	800.000	-0.013	0.040
-213.523	37.766	0.182	0.160
-212.509	15.332	-0.272	0.210
-211.494	367.085	-0.087	0.174
-210.479	-119.652	-0.015	0.003
-209.465	22.546	-0.136	-0.110
-208.450	174.590	0.092	0.132
-207.436	732.130	0.094	0.248
-206.421	-19.902	-0.183	0.111
-205.406	143.525	-0.189	0.249
-204.392	33.180	0.096	-0.083
-203.377	156.597	0.043	0.059
-202.363	-200.000	0.009	0.051
-201.348	-200.000	-0.028	0.130
-200.333	50.179	0.137	-0.127
-199.319	-149.198	-0.056	0.004
-198.304	-143.406	0.201	-0.019
-197.290	-200.000	-0.046	-0.415
-196.275	326.307	0.116	0.218
-195.260	-200.000	-0.049	0.258
-194.246	96.380	0.034	-0.039
-193.231	320.484	0.088	-0.165
-192.217	47.427	-0.168	0.155
-191.202	77.603	-0.065	0.068
-190.187	295.491	-0.064	0.115
-189.173	-31.362	0.103	-0.057
-188.158	39.312	0.052	0.046
-187.144	-200.000	0.037	-0.236
-186.129	95.338	0.140	0.158
-185.114	-200.000	0.041	0.463
-184.100	155.887	0.127	0.173
-183.085	-200.000	-0.060	0.283
-182.071	356.048	0.119	0.234
-181.056	800.000	-0.033	-0.102
-180.042	-200.000	0.001	-0.240
-179.027	-105.373	0.422	-0.095
-178.012	45.877	-0.022	-0.020
-176.998	26.522	0.129	0.107
-175.983	-147.627	-0.238	-0.020
-174.969	-149.293	0.178	-0.014
-173.954	28.936	0.167	-0.140
-172.939	144.213	0.163	0.214
-171.925	800.000	0.083	0.338
-170.910	800.000	0.083	0.284
-169.896	614.716	0.097	-0.240
-168.881	-151.224	0.282	-0.021
-167.866	-200.000	0.014	-0.250
-166.852	179.162	-0.152	-0.219
-165.837	29.575	-0.215	0.181
-164.823	-9.018	0.302	0.199
-163.808	-118.542	0.319	0.056
-162.793	-85.305	0.102	0.031
-161.779	-23.304	-0.087	0.052
-160.764	102.715	-0.061	0.070
-159.750	800.000	0.033	0.121
-158.735	-124.774	0.302	-0.046
-157.720	6.090	-0.254	-0.186
-156.706	-62.543	-0.094	0.039
-155.691	800.000	0.075	0.205
-154.677	329.972	-0.057	0.108
-153.662	-69.105	-0.125	0.047
-152.647	-32.628	0.026	-0.014
-151.633	406.906	-0.019	0.039
-150.618	-169.454	-0.231	-0.008
-149.604	-127.356	-0.219	0.031
-148.589	-19.448	-0.331	-0.202
-147.574	347.462	0.051	0.099
-146.560	216.570	0.229	0.359
-145.545	696.738	-0.082	-0.211
-144.531	-50.538	0.266	-0.124
-143.516	-95.543	0.174	0.046
-142.502	-160.455	0.161	-0.008
-141.487	419.655	-0.159	-0.335
-140.472	-200.000	-0.007	-0.213
-139.458	-62.396	-0.150	-0.061
-138.443	-77.706	-0.273	-0.093
-137.429	432.561	-0.128	-0.273
-136.414	800.000	0.103	-0.433
-135.399	800.000	-0.093	0.293
-134.385	800.000	-0.073	-0.231
-133.370	10.139	-0.059	0.045
-132.356	53.150	0.268	-0.253
-131.341	-55.930	0.170	0.075
-130.326	-38.253	-0.081	-0.042
-129.312	577.386	-0.141	0.339
-128.297	-200.000	0.055	0.266
-127.283	-200.000	0.053	-0.406
-126.268	111.200	0.193	-0.229
-125.253	-200.000	-0.044	0.232
-124.239	-177.512	0.184	0.004
-123.224	-107.255	-0.112	-0.024
-122.210	800.000	-0.060	-0.193
-121.195	349.614	0.022	0.043
-120.180	800.000	-0.058	-0.208
-119.166	-177.729	-0.412	0.010
-118.151	-43.475	-0.102	0.051
-117.137	-200.000	0.309	-0.000
-116.122	-160.554	0.243	-0.013
-115.107	507.712	-0.043	0.097
-114.093	-60.670	-0.280	0.117
-113.078	-26.816	-0.180	-0.103
-112.064	25.529	-0.199	-0.163
-111.049	-176.947	0.048	0.001
-110.034	160.589	-0.164	0.225
-109.020	800.000	0.068	0.283
-108.005	424.057	-0.069	0.145
-106.991	162.807	-0.057	0.079
-105.976	27.687	0.215	-0.178
-104.962	546.647	-0.132	-0.310
-103.947	-200.000	0.022	-0.457
-102.932	-118.870	0.165	0.029
-101.918	-27.968	-0.088	0.050
-100.903	800.000	0.030	0.120
-99.889	-55.894	-0.249	0.110
-98.874	443.921	-0.137	-0.296
-97.859	130.700	-0.039	0.050
-96.845	-104.812	0.195	0.044
-95.830	-109.834	0.346	0.071
-94.816	-44.708	-0.088	-0.043
-93.801	800.000	-0.084	-0.257
-92.786	-119.765	-0.163	-0.028
-91.772	-62.804	-0.106	-0.043
-90.757	121.849	0.018	-0.022
-89.743	-141.789	0.262	-0.026
-88.728	202.163	-0.047	-0.072
-87.713	-185.358	0.234	0.004
-86.699	-34.327	-0.304	-0.164
-85.684	-200.000	-0.033	-0.171
-84.670	19.899	-0.075	0.059
-83.655	-6.366	-0.292	0.196
-82.640	-69.249	-0.290	0.110
-81.626	-35.484	-0.309	-0.165
-80.611	168.414	-0.076	-0.106
-79.597	129.886	0.142	0.178
-78.582	293.344	-0.067	-0.121
-77.567	7.543	0.259	-0.191
-76.553	-200.000	0.002	0.028
-75.538	-200.000	0.017	-0.222
-74.524	800.000	0.100	-0.327
-73.509	-83.759	0.257	-0.081
-72.494	2.733	-0.343	0.244
-71.480	-109.026	-0.538	-0.113
-70.465	-129.710	-0.098	0.013
-69.451	483.276	-0.157	-0.350
-68.436	-200.000	0.026	-0.350
-67.422	800.000	0.086	0.244
-66.407	-84.312	-0.176	0.055
-65.392	92.864	-0.156	-0.173
-64.378	168.550	0.101	-0.142
-63.363	-12.121	0.230	0.148
-62.349	73.814	0.230	-0.237
-61.334	132.357	-0.561	-0.710
-60.319	35.868	0.447	0.386
-59.305	800.000	-0.344	-1.025
-58.290	87.188	0.765	0.831
-57.276	572.336	0.545	1.303
-56.261	-200.000	100.107	585.668
-55.246	473.995	1441.604	3191.900
-54.232	147.652	2656.583	3514.130
-53.217	109.459	2196.606	2582.894
-52.203	42.798	1631.765	1459.338
-51.188	34.015	1361.070	1163.745
-50.173	30.858	1319.110	1109.064
-49.159	54.308	1368.319	1293.031
-48.144	55.450	1385.100	1315.750
-47.130	34.232	1343.225	1149.618
-46.115	30.702	1324.641	1112.605
-45.100	30.486	1320.420	1107.725
-44.086	30.375	1317.980	1104.973
-43.071	30.364	1315.486	1102.774
-42.057	30.397	1312.991	1100.834
-41.042	30.353	1311.763	1099.503
-40.027	30.461	1310.018	1098.636
-39.013	30.408	1308.219	1096.768
-37.998	30.401	1306.359	1095.127
-36.984	30.490	1304.721	1094.231
-35.969	30.579	1302.703	1093.017
-34.954	30.556	1301.206	1091.585
-33.940	30.394	1300.391	1089.906
-32.925	30.524	1298.772	1089.269
-31.911	30.548	1297.237	1088.079
-30.896	30.621	1295.503	1087.008
-29.881	30.617	1294.623	1086.206
-28.867	30.643	1292.719	1084.717
-27.852	30.556	1291.841	1083.430
-26.838	30.604	1289.986	1082.109
-25.823	30.583	1288.913	1081.044
-24.809	30.556	1287.181	1079.393
-23.794	30.563	1286.146	1078.522
-22.779	30.606	1284.736	1077.546
-21.765	30.567	1283.420	1076.175
-20.750	30.573	1282.214	1075.151
-19.736	30.371	1281.217	1073.105
-18.721	30.364	1279.929	1071.946
-17.706	30.473	1278.576	1071.396
-16.692	30.415	1277.441	1070.073
-15.677	30.437	1276.161	1069.080
-14.663	30.437	1274.799	1067.897
-13.648	30.404	1274.018	1067.012
-12.633	30.379	1273.164	1066.109
-11.619	30.400	1272.175	1065.363
-10.604	30.415	1271.375	1064.736
-9.590	30.329	1270.252	1063.262
-8.575	30.349	1269.389	1062.612
-7.560	30.338	1268.950	1062.136
-6.546	30.303	1267.878	1061.000
-5.531	30.356	1266.798	1060.353
-4.517	30.265	1266.481	1059.525
-3.502	30.376	1265.272	1059.109
-2.487	30.416	1263.795	1058.055
-1.473	30.526	1259.957	1055.428
-0.458	29.536	1246.111	1038.220
0.556	25.579	1228.909	1001.457
1.571	21.513	1234.621	983.227
2.586	19.954	1248.818	985.576
3.600	18.918	1236.246	969.726
4.615	13.879	1161.830	884.494
5.629	5.335	1085.517	783.639
6.644	1.191	1065.904	748.982
7.659	0.856	1063.647	745.675
8.673	0.920	1062.305	744.983
9.688	1.023	1060.919	744.454
10.702	1.169	1058.994	743.751
11.717	5.721	1065.528	770.698
12.731	13.414	1074.993	815.517
13.746	16.989	1079.188	836.278
14.761	17.581	1079.545	839.403
15.775	16.832	1077.683	834.195
16.790	15.802	1075.124	827.079
17.804	15.010	1074.286	822.470
18.819	14.621	1072.879	819.408
19.834	14.436	1071.707	817.535
20.848	14.151	1071.116	815.617
21.863	13.884	1070.211	813.543
22.877	13.757	1069.302	812.160
23.892	13.612	1068.915	811.087
24.907	13.810	1067.710	811.067
25.921	13.806	1066.902	810.361
26.936	13.873	1065.878	809.841
27.950	13.864	1064.954	809.021
28.965	13.961	1063.483	808.305
29.980	13.949	1062.194	807.193
30.994	13.883	1062.352	806.921
32.009	13.971	1060.996	806.251
33.023	13.923	1059.708	804.967
34.038	13.980	1058.713	804.414
35.053	13.917	1057.895	803.417
36.067	13.857	1057.212	802.537
37.082	13.821	1056.511	801.761
38.096	13.864	1055.568	801.181
39.111	13.967	1054.500	800.797
40.126	13.821	1053.903	799.569
41.140	13.927	1052.238	798.745
42.155	13.826	1051.462	797.600
43.169	13.740	1050.314	796.245
44.184	13.720	1049.267	795.287
45.199	13.798	1048.240	794.811
46.213	13.760	1047.165	793.743
47.228	13.834	1046.060	793.191
48.242	13.784	1044.820	791.940
49.257	13.861	1043.970	791.591
50.271	13.921	1043.186	791.216
51.286	13.906	1042.180	790.312
52.301	13.800	1041.426	789.163
53.315	13.847	1040.305	788.470
54.330	13.795	1039.570	787.594
55.344	13.840	1038.511	786.938
56.359	13.768	1037.660	785.881
57.374	13.809	1036.624	785.218
58.388	13.780	1035.836	784.416
59.403	13.776	1034.871	783.600
60.417	13.810	1033.961	783.001
61.432	13.715	1033.446	782.093
62.447	13.748	1032.459	781.430
63.461	13.704	1032.005	780.811
64.476	13.668	1031.114	779.900
65.490	13.694	1029.835	778.985
66.505	13.690	1029.200	778.416
67.520	13.764	1028.813	778.405
68.534	13.753	1027.920	777.609
69.549	13.788	1027.149	777.117
70.563	13.727	1026.225	776.066
71.578	13.651	1025.751	775.285
72.593	13.754	1024.678	774.886
73.607	13.771	1024.339	774.640
74.622	13.698	1023.627	773.692
75.636	13.652	1022.620	772.647
76.651	13.559	1022.009	771.685
77.666	13.565	1021.653	771.377
78.680	13.671	1021.100	771.382
79.695	13.747	1020.620	771.305
80.709	13.746	1019.536	770.411
81.724	13.818	1018.314	769.755
82.739	13.710	1018.229	769.121
83.753	13.837	1017.440	769.045
84.768	13.817	1016.465	768.149
85.782	13.933	1015.283	767.724
86.797	13.821	1014.533	766.573
87.812	13.841	1013.556	765.856
88.826	13.968	1012.010	765.206
89.841	13.889	1011.703	764.542
90.855	14.007	1010.473	764.087
91.870	13.863	1010.036	763.030
92.884	13.973	1009.275	762.894
93.899	13.997	1008.320	762.211
94.914	13.989	1007.596	761.559
95.928	13.946	1006.826	760.716
96.943	14.075	1005.746	760.419
97.957	13.904	1005.594	759.457
98.972	13.939	1004.542	758.757
99.987	13.913	1003.359	757.678
101.001	13.954	1002.476	757.127
102.016	13.962	1001.485	756.351
103.030	14.052	1000.917	756.262
104.045	14.067	999.891	755.490
105.060	13.843	999.722	754.280
106.074	13.861	998.342	753.253
107.089	13.936	997.465	752.862
108.103	13.890	996.378	751.769
109.118	13.926	995.502	751.202
110.133	13.848	994.859	750.300
111.147	13.947	993.846	749.916
112.162	13.920	993.134	749.189
113.176	13.914	992.320	748.481
114.191	13.886	991.976	748.032
115.206	13.827	991.106	747.041
116.220	13.876	989.994	746.359
117.235	13.826	988.953	745.285
118.249	13.951	988.126	745.156
119.264	13.982	987.384	744.671
120.279	13.869	986.664	743.556
121.293	13.794	985.774	742.480
122.308	13.856	985.123	742.204
123.322	13.857	984.179	741.431
124.337	13.830	983.258	740.548
125.352	13.954	981.485	739.704
126.366	13.992	980.568	739.113
127.381	13.978	979.414	738.117
128.395	13.894	978.843	737.249
129.410	13.882	978.245	736.682
130.424	13.999	977.101	736.272
131.439	13.978	976.345	735.543
132.454	13.961	975.874	735.047
133.468	13.938	974.595	733.917
134.483	13.835	973.988	732.941
135.497	13.894	972.664	732.143
136.512	14.041	971.909	732.154
137.527	13.969	971.277	731.298
138.541	13.908	970.692	730.522
139.556	13.895	969.437	729.459
140.570	14.008	968.871	729.462
141.585	13.987	967.977	728.634
142.600	14.068	966.694	727.956
143.614	14.100	966.292	727.732
144.629	14.057	965.732	727.056
145.643	14.188	964.305	726.491
146.658	14.118	963.221	725.304
147.673	13.991	963.147	724.629
148.687	13.999	961.931	723.686
149.702	14.039	961.212	723.257
150.716	14.019	960.506	722.571
151.731	14.012	959.116	721.434
152.746	14.120	958.957	721.717
153.760	14.001	958.491	720.788
154.775	14.175	957.635	720.835
155.789	14.115	957.179	720.168
156.804	14.083	956.293	719.300
157.819	14.159	955.587	719.035
158.833	14.233	954.707	718.624
159.848	14.182	953.868	717.710
160.862	14.274	953.034	717.417
161.877	14.199	952.075	716.308
162.892	14.156	951.172	715.379
163.906	14.049	950.581	714.414
164.921	14.282	949.428	714.483
165.935	14.111	948.898	713.286
166.950	14.146	947.957	712.666
167.964	14.222	947.140	712.314
168.979	14.250	946.155	711.630
169.994	14.126	945.465	710.520
171.008	14.325	944.604	710.661
172.023	14.383	943.582	710.073
173.037	14.407	943.331	709.923
174.052	14.223	942.542	708.483
175.067	14.299	942.107	708.420
176.081	14.352	941.182	707.885
177.096	14.251	940.812	707.114
178.110	14.214	940.401	706.585
179.125	14.222	939.769	706.084
180.140	14.265	938.988	705.618
181.154	14.290	938.859	705.563
182.169	14.413	938.206	705.530
183.183	14.609	937.187	705.532
184.198	14.402	936.921	704.395
185.213	14.529	935.988	704.166
186.227	14.502	935.230	703.418
187.242	14.547	934.949	703.335
188.256	14.438	934.294	702.322
189.271	14.506	933.571	702.002
190.286	14.541	932.333	701.154
191.300	14.582	931.616	700.727
192.315	14.428	931.056	699.597
193.329	14.455	930.560	699.276
194.344	14.556	929.935	699.167
195.359	14.578	929.427	698.815
196.373	14.495	928.954	698.053
197.388	14.411	928.805	697.524
198.402	14.723	927.637	697.892
199.417	14.659	927.363	697.356
200.432	14.695	926.797	697.019
201.446	14.577	926.644	696.350
202.461	14.676	925.987	696.208
203.475	14.799	924.884	695.827
204.490	14.771	923.877	694.894
205.504	14.720	923.538	694.363
206.519	14.606	923.108	693.507
207.534	14.768	921.858	693.178
208.548	14.724	921.348	692.550
209.563	14.810	920.339	692.089
210.577	14.868	919.985	691.999
211.592	14.915	919.034	691.419
212.607	14.914	918.509	690.959
213.621	14.869	917.621	690.044
214.636	14.870	917.060	689.564
215.650	15.013	915.995	689.290
216.665	14.947	915.769	688.790
217.680	14.891	915.338	688.173
218.694	14.870	914.496	687.390
219.709	14.897	914.127	687.165
220.723	14.905	913.043	686.320
221.738	14.987	912.225	685.981
222.753	14.973	911.735	685.495
223.767	15.055	911.061	685.265
224.782	14.961	910.548	684.431
225.796	15.051	910.364	684.601
226.811	14.943	909.344	683.333
227.826	14.913	908.740	682.695
228.840	15.148	907.275	682.493
229.855	15.040	907.076	681.845
230.869	15.215	905.974	681.665
231.884	15.090	905.645	680.848
232.899	15.103	904.569	680.036
233.913	15.070	904.234	679.587
234.928	15.069	903.787	679.188
235.942	15.116	903.361	678.997
236.957	15.291	902.297	678.846
237.972	15.268	901.694	678.239
238.986	15.082	901.402	677.207
240.001	15.115	900.682	676.740
241.015	15.218	899.802	676.434
242.030	15.212	899.592	676.195
243.045	15.300	898.401	675.595
244.059	15.302	898.040	675.270
245.074	15.298	897.456	674.756
246.088	15.140	897.077	673.775
247.103	15.237	896.237	673.473
248.117	15.219	895.861	673.058
249.132	15.403	895.342	673.349
250.147	15.381	894.377	672.474
251.161	15.413	894.046	672.294
252.176	15.416	893.034	671.487
253.190	15.614	892.143	671.548
254.205	15.618	891.688	671.162
255.220	15.606	891.086	670.601
256.234	15.584	890.822	670.257
257.249	15.569	890.098	669.595
258.263	15.448	889.184	668.362
259.278	15.585	888.607	668.418
260.293	15.557	888.143	667.897
261.307	15.703	887.220	667.724
262.322	15.650	886.617	666.999
263.336	15.592	886.298	666.470
264.351	15.667	885.022	665.751
265.366	15.815	884.505	665.890
266.380	15.973	883.933	666.022
267.395	15.887	883.254	665.112
268.409	15.730	882.641	663.970
269.424	15.808	881.909	663.669
270.439	15.904	880.839	663.184
271.453	15.801	880.370	662.369
272.468	15.767	880.108	661.978
273.482	15.892	879.369	661.855
274.497	15.862	879.144	661.510
275.512	16.030	877.938	661.204
276.526	15.945	877.681	660.617
277.541	15.931	877.556	660.411
278.555	15.923	876.691	659.670
279.570	15.984	875.981	659.316
280.585	15.905	875.181	658.347
281.599	15.986	874.436	658.045
282.614	16.082	873.804	657.886
283.628	15.911	873.525	656.948
284.643	15.958	872.598	656.378
285.657	15.959	872.310	656.107
286.672	16.095	871.704	656.121
287.687	16.060	870.727	655.194
288.701	16.063	870.221	654.763
289.716	15.985	869.743	654.046
290.730	16.041	869.275	653.853
291.745	16.049	868.537	653.268
292.760	16.143	867.705	652.949
293.774	16.069	867.341	652.334
294.789	16.128	866.965	652.218
295.803	16.126	866.049	651.466
296.818	16.106	865.290	650.760
297.833	16.216	864.583	650.595
298.847	16.252	864.152	650.352
299.862	16.331	863.189	649.873
300.876	16.308	862.767	649.411
301.891	16.300	862.015	648.754
302.906	16.289	861.593	648.337
303.920	16.392	861.228	648.403
304.935	16.375	860.485	647.718
305.949	16.427	859.988	647.487
306.964	16.453	859.137	646.887
307.979	16.343	858.926	646.251
308.993	16.528	858.068	646.256
310.008	16.408	857.772	645.517
311.022	16.423	857.344	645.197
312.037	16.465	856.563	644.712
313.052	16.523	855.736	644.254
314.066	16.443	855.343	643.594
315.081	16.388	855.266	643.269
316.095	16.469	853.968	642.547
317.110	16.394	853.960	642.197
318.125	16.392	853.483	641.773
319.139	16.410	853.183	641.562
320.154	16.431	852.456	641.035
321.168	16.529	852.026	641.028
322.183	16.506	851.185	640.253
323.197	16.536	850.790	640.010
324.212	16.558	850.548	639.858
325.227	16.629	849.415	639.216
326.241	16.565	848.956	638.571
327.256	16.659	848.075	638.208
328.270	16.514	848.013	637.556
329.285	16.482	847.554	637.034
330.300	16.567	846.527	636.524
331.314	16.622	846.247	636.465
332.329	16.693	845.926	636.435
333.343	16.709	845.259	635.938
334.358	16.703	844.914	635.599
335.373	16.769	844.425	635.424
336.387	16.795	843.847	635.029
337.402	16.770	843.853	634.884
338.416	16.873	843.639	635.052
339.431	17.030	842.819	634.965
340.446	16.902	842.465	634.164
341.460	16.856	842.574	634.020
342.475	16.920	841.782	633.605
343.489	16.840	841.614	633.126
344.504	16.937	841.042	633.000
345.519	17.064	840.413	632.944
346.533	16.930	840.146	632.187
347.548	16.924	839.176	631.378
348.562	17.040	838.579	631.307
349.577	16.944	838.337	630.709
350.592	17.090	837.443	630.524
351.606	16.903	837.005	629.445
352.621	16.976	836.304	629.135
353.635	17.028	835.580	628.725
354.650	16.965	835.280	628.210
355.665	16.962	834.269	627.383
356.679	17.005	833.917	627.224
357.694	17.020	833.666	627.034
358.708	17.000	832.779	626.236
359.723	17.126	832.086	626.127
360.738	17.072	831.502	625.432
361.752	17.157	830.730	625.108
362.767	17.158	830.419	624.824
363.781	17.222	830.199	624.836
364.796	17.214	829.311	624.083
365.810	17.294	828.829	623.959
366.825	17.279	828.631	623.701
367.840	17.257	828.166	623.213
368.854	17.412	827.360	623.120
369.869	17.232	827.449	622.473
370.883	17.214	826.960	621.984
371.898	17.353	826.299	621.939
372.913	17.316	825.887	621.438
373.927	17.641	825.205	622.057
374.942	17.463	824.555	620.864
375.956	17.422	824.381	620.528
376.971	17.482	824.023	620.421
377.986	17.457	823.612	619.967
379.000	17.509	823.310	619.874
380.015	17.529	822.498	619.280
381.029	17.543	822.041	618.932
382.044	17.633	821.369	618.699
383.059	17.651	820.991	618.424
384.073	17.790	820.284	618.341
385.088	17.498	819.859	616.908
386.102	17.612	819.141	616.727
387.117	17.642	818.843	616.556
388.132	17.651	817.980	615.885
389.146	17.639	817.481	615.411
390.161	17.778	817.259	615.692
391.175	17.748	816.827	615.203
392.190	17.642	816.296	614.364
393.205	17.682	815.959	614.200
394.219	17.639	815.377	613.554
395.234	17.633	815.208	613.351
396.248	17.688	814.582	613.026
397.263	17.772	814.019	612.849
398.278	17.664	814.111	612.474
399.292	17.661	813.285	611.789
400.307	17.661	812.893	611.439
401.321	17.687	812.436	611.135
402.336	17.688	811.816	610.621
403.350	17.781	811.385	610.572
404.365	17.839	811.018	610.452
405.380	17.941	810.587	610.438
406.394	17.887	809.816	609.609
407.409	17.881	809.623	609.387
408.423	18.027	809.074	609.444
409.438	17.999	808.887	609.149
410.453	18.016	808.555	608.903
411.467	18.058	807.660	608.326
412.482	17.989	807.817	608.147
413.496	17.979	807.257	607.632
414.511	18.281	806.630	608.181
415.526	18.075	806.432	607.246
416.540	18.113	805.840	606.880
417.555	18.362	804.958	607.047
418.569	18.382	804.567	606.768
419.584	18.267	804.144	605.988
420.599	18.162	803.935	605.406
421.613	110.633	1291.629	1466.124
422.628	95.417	1362.674	1466.240
