DTS Sentinel unit serial number:	SN413079Multiplexer serial number:	ORYXHardware model number:	OX4-SRSoftware version number:	ORYX F/W v4.00 Oryx Data Collector v3.7.2.0data status	okinstallation	princeton_trtdifferential loss correction	single-endedforward channel	channel 1reverse channel	N/Adate	2019/09/16time	08:10:35forward acquisition time	60.00reverse acquisition time	0.00gamma	496.2192k internal	0.2326k external	0.2326temperature offset calibration	0.9975default loss term (dB/km)	0.3790temperature slope calibration	1.0000multiplexer offset coefficient	1.0000multiplexer slope coefficient	1.0000fibre end	0.00T internal ref (°C)	28.73T ext. ref 1 (°C)	11.80T ext. ref 2 (°C)	24.97length (m)	temperature (°C)	Stokes	anti-Stokes-747.200	-19.664	0.151	0.094
-746.185	87.688	-0.122	0.137
-745.171	-80.485	-0.144	0.049
-744.156	220.405	-0.042	0.068
-743.142	228.466	-0.119	0.195
-742.127	109.668	0.309	0.374
-741.112	-98.252	-0.042	0.011
-740.098	759.365	-0.128	0.350
-739.083	3.765	-0.101	0.074
-738.069	-104.272	-0.250	-0.059
-737.054	478.718	0.259	-0.592
-736.039	-92.646	-0.423	-0.120
-735.025	-200.000	-0.020	-0.257
-734.010	-47.930	0.437	0.213
-732.996	-140.692	-0.265	-0.028
-731.981	-21.034	0.269	-0.166
-730.966	-127.223	0.119	0.018
-729.952	757.566	0.056	-0.153
-728.937	-17.980	0.153	0.097
-727.923	519.081	0.080	-0.189
-726.908	70.748	0.099	0.104
-725.894	-49.921	-0.303	0.145
-724.879	-81.050	-0.402	0.134
-723.864	194.220	0.102	-0.155
-722.850	-200.000	0.045	-0.236
-721.835	108.015	0.080	0.096
-720.821	84.880	-0.138	-0.153
-719.806	558.811	0.171	-0.415
-718.791	-35.263	-0.484	-0.265
-717.777	-4.510	0.432	-0.301
-716.762	278.400	-0.101	0.181
-715.748	-78.911	-0.079	-0.027
-714.733	717.146	0.075	0.199
-713.718	800.000	0.059	-0.222
-712.704	-58.950	-0.118	0.052
-711.689	-105.743	-0.262	-0.060
-710.675	800.000	0.048	0.157
-709.660	-97.465	-0.112	0.029
-708.645	-200.000	0.042	-0.293
-707.631	-162.314	-0.248	0.012
-706.616	368.096	0.144	-0.294
-705.602	-200.000	0.004	0.060
-704.587	47.728	-0.076	-0.072
-703.572	-200.000	-0.009	0.122
-702.558	-27.233	-0.120	0.070
-701.543	70.040	0.279	-0.290
-700.529	360.464	-0.058	-0.118
-699.514	-47.155	-0.153	-0.075
-698.499	287.291	0.167	-0.304
-697.485	226.735	-0.073	-0.120
-696.470	50.416	-0.155	0.148
-695.456	-173.037	0.111	-0.003
-694.441	-7.252	-0.051	0.035
-693.426	-200.000	-0.044	0.400
-692.412	-200.000	0.103	0.555
-691.397	416.425	-0.044	-0.095
-690.383	74.987	-0.171	0.181
-689.368	-200.000	0.012	0.095
-688.354	800.000	-0.101	-0.343
-687.339	-96.883	-0.547	-0.145
-686.324	419.212	0.024	0.052
-685.310	52.524	0.259	-0.249
-684.295	-69.140	-0.239	0.092
-683.281	-200.000	0.026	-0.129
-682.266	320.536	0.151	0.288
-681.251	-102.485	-0.045	-0.011
-680.237	-41.370	-0.175	-0.091
-679.222	-71.161	0.083	-0.032
-678.208	299.367	-0.102	-0.188
-677.193	236.886	-0.218	0.363
-676.178	800.000	-0.188	0.558
-675.164	-45.886	0.365	-0.181
-674.149	463.505	0.017	0.039
-673.135	-69.862	-0.283	0.108
-672.120	800.000	-0.102	0.349
-671.105	33.248	-0.208	-0.182
-670.091	-200.000	-0.077	-0.000
-669.076	-200.000	-0.010	-0.298
-668.062	-77.104	-0.200	0.070
-667.047	148.331	-0.099	0.134
-666.032	51.886	-0.175	0.168
-665.018	5.518	0.198	0.147
-664.003	594.103	-0.102	0.254
-662.989	-148.242	-0.313	0.026
-661.974	533.006	0.262	0.622
-660.959	-65.870	-0.146	-0.059
-659.945	-175.614	-0.141	-0.004
-658.930	-200.000	-0.006	-0.214
-657.916	-146.744	-0.318	0.028
-656.901	23.766	0.096	0.079
-655.886	-23.095	-0.536	0.324
-654.872	-30.351	-0.089	-0.051
-653.857	31.116	-0.233	0.201
-652.843	587.209	-0.097	0.240
-651.828	268.091	0.226	0.397
-650.814	-200.000	-0.028	0.265
-649.799	-200.000	0.043	-0.278
-648.784	-57.822	0.167	-0.073
-647.770	185.033	-0.125	0.187
-646.755	458.293	0.032	0.073
-645.741	619.837	0.044	0.112
-644.726	-20.277	0.181	0.112
-643.711	800.000	-0.116	-0.348
-642.697	-113.169	-0.200	-0.040
-641.682	-79.924	0.475	-0.160
-640.668	-200.000	-0.006	-0.189
-639.653	132.669	0.117	-0.151
-638.638	-200.000	0.015	-0.214
-637.624	-200.000	0.005	-0.054
-636.609	325.416	-0.110	0.211
-635.595	-200.000	-0.120	-0.553
-634.580	-200.000	0.058	-0.271
-633.565	128.665	0.267	-0.341
-632.551	-54.455	-0.054	-0.025
-631.536	-58.899	-0.132	-0.057
-630.522	-102.499	0.124	-0.030
-629.507	445.421	0.156	-0.343
-628.492	48.123	-0.146	-0.137
-627.478	800.000	-0.060	-0.205
-626.463	-137.795	0.033	0.004
-625.449	290.520	-0.024	0.044
-624.434	24.360	-0.376	-0.312
-623.419	800.000	-0.017	0.074
-622.405	-200.000	0.000	-0.202
-621.390	-78.742	-0.316	0.108
-620.376	37.338	-0.149	-0.133
-619.361	180.618	0.059	-0.087
-618.346	-139.013	0.088	-0.010
-617.332	8.721	0.260	-0.197
-616.317	800.000	0.093	-0.342
-615.303	-127.588	-0.286	0.042
-614.288	129.927	0.132	-0.170
-613.273	-38.031	-0.158	0.084
-612.259	534.261	-0.145	0.345
-611.244	-35.230	0.235	0.128
-610.230	-0.752	-0.246	0.175
-609.215	-48.345	0.157	0.076
-608.201	-75.060	-0.198	0.071
-607.186	702.559	0.117	0.310
-606.171	800.000	-0.085	-0.275
-605.157	800.000	0.078	-0.268
-604.142	36.690	-0.292	-0.258
-603.128	-200.000	0.057	-0.283
-602.113	221.397	0.025	0.040
-601.098	18.945	0.261	-0.210
-600.084	-120.749	0.155	-0.026
-599.069	-78.118	-0.050	0.017
-598.055	-200.000	0.021	-0.113
-597.040	-200.000	-0.017	-0.119
-596.025	120.765	0.099	0.124
-595.011	423.770	-0.103	0.221
-593.996	-72.462	0.210	-0.078
-592.982	-139.603	0.130	-0.014
-591.967	-119.597	0.350	0.061
-590.952	-66.444	-0.111	0.044
-589.938	800.000	-0.092	0.267
-588.923	134.243	0.071	-0.092
-587.909	-75.776	0.037	0.013
-586.894	-200.000	0.003	-0.104
-585.879	800.000	-0.080	0.306
-584.865	-164.728	-0.381	-0.017
-583.850	800.000	-0.032	-0.136
-582.836	-200.000	-0.003	0.082
-581.821	-99.091	-0.185	-0.047
-580.806	91.874	-0.185	-0.209
-579.792	800.000	-0.063	-0.260
-578.777	-19.261	0.101	-0.063
-577.763	-200.000	0.033	0.171
-576.748	-6.594	0.230	0.157
-575.733	95.935	-0.150	-0.172
-574.719	-103.370	-0.099	0.023
-573.704	-23.733	0.500	-0.300
-572.690	-69.705	0.114	0.044
-571.675	-75.777	-0.309	0.110
-570.661	268.177	-0.063	0.110
-569.646	36.416	0.196	0.174
-568.631	-8.656	0.122	-0.082
-567.617	-200.000	0.015	-0.234
-566.602	-88.021	0.406	-0.122
-565.588	-200.000	0.020	0.118
-564.573	800.000	0.055	-0.171
-563.558	-200.000	-0.010	-0.166
-562.544	556.689	0.121	0.292
-561.529	-59.607	-0.151	-0.065
-560.515	-40.681	0.044	0.023
-559.500	187.522	-0.230	-0.344
-558.485	-200.000	0.013	0.211
-557.471	-129.503	-0.278	0.039
-556.456	781.383	0.064	0.176
-555.442	-143.141	0.083	0.008
-554.427	-200.000	-0.042	0.000
-553.412	366.733	-0.130	0.262
-552.398	194.754	0.134	-0.203
-551.383	560.494	0.037	-0.089
-550.369	-111.506	-0.125	0.025
-549.354	-128.242	-0.138	0.020
-548.339	-179.089	-0.319	0.007
-547.325	-39.365	0.156	-0.082
-546.310	5.000	-0.196	-0.144
-545.296	50.689	-0.259	-0.245
-544.281	677.311	-0.067	0.174
-543.266	-150.371	-0.332	-0.026
-542.252	491.304	-0.068	-0.155
-541.237	-39.392	0.110	-0.058
-540.223	-103.689	0.174	0.041
-539.208	69.871	-0.126	-0.130
-538.193	-74.000	-0.140	-0.051
-537.179	65.255	-0.225	0.227
-536.164	286.983	-0.080	0.145
-535.150	-60.998	-0.193	-0.081
-534.135	169.079	0.116	0.166
-533.121	526.929	-0.115	0.272
-532.106	-21.049	-0.070	0.043
-531.091	800.000	0.101	0.307
-530.077	265.928	-0.160	-0.280
-529.062	-112.923	-0.266	-0.053
-528.048	74.590	-0.278	-0.292
-527.033	800.000	0.079	0.234
-526.018	-124.397	0.259	-0.040
-525.004	-92.800	0.369	-0.103
-523.989	-200.000	0.004	-0.172
-522.975	-139.383	-0.150	-0.016
-521.960	68.738	-0.116	0.119
-520.945	-200.000	-0.010	-0.099
-519.931	-108.819	0.047	0.010
-518.916	12.659	0.088	-0.068
-517.902	-130.663	0.411	0.055
-516.887	800.000	-0.055	-0.161
-515.872	-200.000	-0.001	0.169
-514.858	-137.436	-0.168	0.019
-513.843	39.484	-0.104	-0.093
-512.829	-21.616	0.237	0.145
-511.814	490.542	-0.011	-0.024
-510.799	481.609	0.072	-0.164
-509.785	186.793	-0.223	0.332
-508.770	-200.000	-0.006	-0.052
-507.756	-10.502	0.333	0.221
-506.741	233.080	-0.156	0.256
-505.726	-160.168	0.186	-0.010
-504.712	-120.192	0.076	0.013
-503.697	-200.000	0.015	-0.171
-502.683	800.000	-0.076	0.290
-501.668	-2.854	-0.263	-0.183
-500.653	120.611	0.047	0.059
-499.639	-22.680	0.157	0.095
-498.624	-36.011	0.185	0.100
-497.610	-200.000	0.009	-0.069
-496.595	-200.000	-0.010	-0.060
-495.581	116.331	-0.088	-0.108
-494.566	14.943	-0.050	-0.039
-493.551	-104.400	0.067	-0.016
-492.537	-151.313	0.187	0.014
-491.522	-11.203	-0.285	0.188
-490.508	16.447	0.135	-0.107
-489.493	-15.197	-0.273	-0.175
-488.478	45.744	-0.032	0.029
-487.464	53.979	-0.089	-0.085
-486.449	-11.515	-0.150	-0.098
-485.435	-50.561	-0.158	-0.074
-484.420	-115.366	-0.245	0.046
-483.405	-84.482	-0.261	0.082
-482.391	296.584	0.087	-0.160
-481.376	-200.000	-0.021	0.304
-480.362	-44.129	-0.088	0.044
-479.347	175.056	0.270	0.391
-478.332	-0.329	0.092	-0.065
-477.318	-72.864	0.175	0.064
-476.303	34.198	-0.237	-0.206
-475.289	-0.932	-0.276	0.195
-474.274	69.720	0.086	-0.088
-473.259	-22.528	-0.283	0.171
-472.245	176.510	-0.078	0.113
-471.230	-52.439	0.156	0.072
-470.216	95.072	-0.043	0.049
-469.201	-63.513	-0.355	0.146
-468.186	-182.874	0.346	0.006
-467.172	-9.009	0.109	-0.073
-466.157	-13.791	-0.467	-0.302
-465.143	46.634	0.053	-0.049
-464.128	274.296	0.119	-0.211
-463.113	-200.000	0.008	-0.210
-462.099	-116.403	0.103	0.019
-461.084	-105.680	0.262	-0.059
-460.070	-100.754	-0.331	-0.081
-459.055	-200.000	-0.006	-0.316
-458.040	-9.073	0.169	0.113
-457.026	-98.641	-0.525	-0.134
-456.011	449.285	0.124	0.273
-454.997	-84.809	-0.477	-0.149
-453.982	-126.094	0.167	-0.025
-452.968	92.409	-0.107	0.120
-451.953	241.591	-0.118	-0.197
-450.938	35.432	-0.282	0.247
-449.924	800.000	0.005	-0.019
-448.909	255.115	0.159	-0.271
-447.895	-152.202	0.194	-0.014
-446.880	205.187	-0.045	0.070
-445.865	-52.077	0.084	-0.039
-444.851	211.999	-0.118	0.185
-443.836	-43.565	0.165	0.083
-442.822	-200.000	0.018	0.186
-441.807	218.939	-0.158	-0.252
-440.792	-25.882	-0.156	-0.092
-439.778	40.972	0.379	0.341
-438.763	-200.000	-0.050	0.314
-437.749	800.000	-0.064	0.227
-436.734	-42.389	-0.192	-0.098
-435.719	-200.000	-0.010	-0.228
-434.705	800.000	-0.027	-0.094
-433.690	-100.745	0.444	-0.109
-432.676	-200.000	0.019	-0.171
-431.661	-101.171	0.070	0.017
-430.646	-198.365	0.331	-0.002
-429.632	26.491	-0.277	0.231
-428.617	800.000	-0.147	0.485
-427.603	109.671	0.091	-0.109
-426.588	107.739	-0.018	-0.022
-425.573	148.062	-0.083	0.111
-424.559	-26.533	-0.318	0.185
-423.544	324.081	0.164	0.311
-422.530	-200.000	0.001	0.328
-421.515	-119.758	-0.269	-0.046
-420.500	151.519	0.201	0.273
-419.486	283.545	-0.194	0.348
-418.471	-115.198	0.216	0.041
-417.457	180.320	0.151	0.220
-416.442	224.159	-0.066	-0.106
-415.428	800.000	0.050	-0.149
-414.413	-58.944	0.087	0.037
-413.398	73.874	0.170	-0.178
-412.384	-76.325	-0.033	-0.012
-411.369	-200.000	0.298	0.001
-410.355	-37.716	-0.296	0.157
-409.340	800.000	-0.085	0.296
-408.325	-64.361	-0.080	0.032
-407.311	455.962	0.058	0.128
-406.296	-92.872	0.211	-0.059
-405.282	-73.811	0.127	-0.046
-404.267	-107.529	0.142	0.031
-403.252	-78.681	-0.233	0.079
-402.238	-200.000	0.065	0.330
-401.223	-200.000	0.007	0.045
-400.209	158.998	0.123	0.170
-399.194	-89.745	0.106	-0.031
-398.179	-35.139	0.150	0.082
-397.165	800.000	-0.032	-0.107
-396.150	-168.305	-0.123	-0.005
-395.136	-146.261	-0.173	0.015
-394.121	335.005	0.116	0.223
-393.106	-151.092	-0.163	-0.012
-392.092	-200.000	-0.008	0.105
-391.077	16.411	-0.145	0.114
-390.063	233.486	-0.117	0.192
-389.048	-200.000	0.017	0.099
-388.033	800.000	-0.054	0.153
-387.019	-58.594	0.164	-0.071
-386.004	294.154	-0.174	0.316
-384.990	168.190	-0.012	0.016
-383.975	-136.110	0.090	-0.011
-382.960	77.572	0.062	-0.066
-381.946	-11.114	-0.232	-0.152
-380.931	346.320	-0.054	-0.106
-379.917	118.500	0.194	0.238
-378.902	-13.446	-0.327	0.211
-377.888	42.866	0.136	0.123
-376.873	-50.422	0.246	0.115
-375.858	36.227	-0.224	-0.196
-374.844	-200.000	-0.008	-0.137
-373.829	604.442	-0.065	-0.160
-372.815	626.602	-0.118	-0.296
-371.800	-47.989	-0.351	-0.169
-370.785	-26.717	-0.119	-0.069
-369.771	-72.176	0.095	-0.035
-368.756	-32.894	0.115	-0.064
-367.742	-94.920	0.184	0.050
-366.727	-71.214	-0.364	0.136
-365.712	8.590	-0.144	-0.108
-364.698	-177.148	-0.157	-0.004
-363.683	-84.932	0.284	0.089
-362.669	357.187	0.007	0.013
-361.654	-33.649	0.242	-0.133
-360.639	-29.223	0.110	0.063
-359.625	101.214	0.222	-0.256
-358.610	-1.907	-0.144	-0.101
-357.596	-49.483	-0.093	0.044
-356.581	157.562	0.254	-0.350
-355.566	374.302	-0.061	-0.124
-354.552	-200.000	-0.002	-0.258
-353.537	800.000	0.075	-0.253
-352.523	71.721	-0.262	-0.271
-351.508	14.092	-0.183	0.142
-350.493	2.608	-0.062	-0.045
-349.479	-75.867	-0.195	-0.069
-348.464	203.988	0.198	-0.304
-347.450	-149.258	0.340	-0.027
-346.435	206.851	0.107	-0.165
-345.420	-1.294	0.225	0.158
-344.406	88.246	0.144	0.159
-343.391	-140.826	-0.207	-0.021
-342.377	800.000	0.077	0.333
-341.362	-116.354	-0.063	0.012
-340.348	550.869	0.092	0.220
-339.333	311.766	-0.012	-0.021
-338.318	-128.805	0.329	0.046
-337.304	85.524	0.072	0.079
-336.289	-7.439	-0.128	0.086
-335.275	-200.000	0.011	-0.078
-334.260	-41.584	0.209	0.107
-333.245	124.099	0.087	-0.108
-332.231	-171.777	0.330	-0.011
-331.216	-142.179	0.359	-0.035
-330.202	-39.985	0.087	-0.045
-329.187	-200.000	0.009	0.112
-328.172	-200.000	-0.003	0.224
-327.158	-65.192	-0.172	-0.069
-326.143	20.494	0.162	0.130
-325.129	-47.592	0.385	0.185
-324.114	156.636	0.095	0.131
-323.099	-87.362	-0.189	0.057
-322.085	192.030	-0.128	-0.192
-321.070	-200.000	0.021	-0.419
-320.056	-147.244	-0.321	0.027
-319.041	239.504	0.217	0.358
-318.026	-163.319	-0.068	0.003
-317.012	-147.541	-0.360	-0.030
-315.997	31.453	0.294	0.250
-314.983	38.999	0.290	-0.257
-313.968	108.113	-0.147	-0.174
-312.953	-123.139	0.305	-0.049
-311.939	-27.060	0.160	0.092
-310.924	290.248	-0.117	0.210
-309.910	800.000	0.078	-0.274
-308.895	2.804	0.100	0.072
-307.880	32.159	-0.081	-0.069
-306.866	-200.000	-0.066	-0.569
-305.851	15.713	-0.121	0.094
-304.837	109.046	0.191	-0.227
-303.822	800.000	-0.107	-0.360
-302.807	-200.000	-0.020	-0.418
-301.793	-25.769	0.070	-0.041
-300.778	-104.305	0.139	0.032
-299.764	98.610	0.138	0.158
-298.749	-200.000	0.007	-0.095
-297.735	28.127	-0.099	-0.083
-296.720	-48.304	-0.228	-0.109
-295.705	-162.073	0.196	0.010
-294.691	-200.000	-0.009	0.067
-293.676	261.408	-0.121	-0.207
-292.662	81.798	0.211	-0.227
-291.647	800.000	-0.154	0.460
-290.632	-200.000	0.022	-0.173
-289.618	476.326	0.171	0.383
-288.603	-200.000	-0.040	0.193
-287.589	21.595	-0.253	-0.204
-286.574	-7.630	-0.094	-0.063
-285.559	-135.229	0.411	0.049
-284.545	382.118	-0.114	-0.233
-283.530	-146.854	0.375	0.032
-282.516	-67.560	0.188	-0.073
-281.501	-200.000	-0.039	-0.215
-280.486	118.706	-0.131	-0.160
-279.472	121.181	-0.148	0.183
-278.457	-200.000	0.059	0.361
-277.443	-32.403	0.117	0.065
-276.428	62.248	0.051	0.050
-275.413	-91.296	-0.185	-0.052
-274.399	337.133	-0.091	-0.176
-273.384	-200.000	-0.024	-0.126
-272.370	75.940	0.098	0.102
-271.355	-200.000	0.006	0.258
-270.340	-200.000	-0.097	-0.427
-269.326	-102.363	-0.397	-0.094
-268.311	34.669	0.185	0.160
-267.297	-200.000	0.018	-0.194
-266.282	-200.000	0.006	0.146
-265.267	190.352	-0.074	0.110
-264.253	0.218	0.069	0.049
-263.238	-200.000	-0.002	0.118
-262.224	-200.000	0.038	-0.270
-261.209	-109.065	-0.260	-0.055
-260.195	-105.693	0.428	0.096
-259.180	-60.584	0.031	-0.013
-258.165	-28.300	-0.241	-0.138
-257.151	-9.251	0.209	0.138
-256.136	-200.000	0.051	0.347
-255.122	52.609	-0.066	0.063
-254.107	-200.000	0.002	-0.054
-253.092	43.530	-0.095	-0.086
-252.078	-200.000	-0.037	0.191
-251.063	-200.000	0.000	-0.265
-250.049	800.000	-0.077	0.279
-249.034	138.872	0.239	0.311
-248.019	-168.555	-0.103	0.004
-247.005	380.395	-0.041	-0.083
-245.990	87.649	0.238	0.261
-244.976	-111.281	-0.236	0.048
-243.961	14.500	0.056	-0.043
-242.946	-4.950	-0.225	-0.154
-241.932	-200.000	-0.016	-0.106
-240.917	-145.841	0.287	0.025
-239.903	-200.000	-0.004	0.067
-238.888	-200.000	-0.010	0.129
-237.873	-14.500	0.141	0.090
-236.859	534.093	0.117	0.275
-235.844	778.258	-0.113	-0.305
-234.830	-73.535	0.195	0.070
-233.815	12.053	-0.241	0.183
-232.800	-69.647	-0.579	-0.219
-231.786	800.000	-0.085	0.266
-230.771	-143.684	-0.297	-0.028
-229.757	364.997	0.101	-0.202
-228.742	114.466	-0.143	-0.173
-227.727	113.301	-0.141	0.169
-226.713	-200.000	-0.043	-0.215
-225.698	299.107	0.062	-0.113
-224.684	215.500	0.158	-0.248
-223.669	-200.000	-0.042	0.252
-222.655	-133.498	0.119	-0.015
-221.640	-120.247	0.160	0.027
-220.625	696.765	0.142	0.368
-219.611	-144.732	0.093	-0.008
-218.596	-19.565	0.222	-0.136
-217.582	-28.843	0.028	0.016
-216.567	-103.129	-0.154	-0.036
-215.552	-139.481	0.376	-0.040
-214.538	31.529	-0.194	-0.165
-213.523	-200.000	0.002	0.031
-212.509	-11.361	0.427	0.278
-211.494	800.000	0.067	0.207
-210.479	645.520	-0.183	0.461
-209.465	73.956	0.076	-0.079
-208.450	-55.420	0.376	-0.166
-207.436	283.094	-0.133	-0.237
-206.421	-148.696	0.142	0.011
-205.406	-200.000	-0.004	0.192
-204.392	800.000	-0.057	0.241
-203.377	0.711	-0.143	-0.101
-202.363	14.728	-0.337	0.260
-201.348	-166.908	0.169	0.007
-200.333	-200.000	-0.007	-0.535
-199.319	193.406	0.103	-0.153
-198.304	85.679	-0.058	-0.063
-197.290	-94.603	0.172	-0.046
-196.275	-44.169	0.164	0.081
-195.260	-126.743	-0.165	0.024
-194.246	-50.361	0.190	0.089
-193.231	296.631	-0.050	0.090
-192.217	184.091	0.110	0.161
-191.202	800.000	0.090	0.251
-190.187	-200.000	0.043	0.243
-189.173	800.000	-0.018	0.050
-188.158	27.499	0.084	-0.070
-187.144	87.572	0.141	0.154
-186.129	467.307	-0.162	0.358
-185.114	15.948	-0.245	-0.190
-184.100	-105.236	0.137	0.031
-183.085	800.000	0.048	0.181
-182.071	198.103	-0.160	-0.241
-181.056	80.826	-0.084	-0.089
-180.042	-124.628	0.168	0.026
-179.027	26.066	0.261	0.215
-178.012	-200.000	-0.050	0.233
-176.998	2.025	-0.294	-0.209
-175.983	-1.710	0.096	-0.067
-174.969	496.856	-0.081	0.184
-173.954	73.344	0.194	0.201
-172.939	168.477	-0.040	-0.057
-171.925	105.611	-0.118	-0.138
-170.910	-17.518	-0.161	0.100
-169.896	358.460	-0.072	0.142
-168.881	317.698	-0.154	0.287
-167.866	-200.000	-0.025	-0.342
-166.852	-59.167	-0.154	-0.065
-165.837	71.608	0.275	0.281
-164.823	19.021	0.140	0.111
-163.808	25.575	0.053	0.043
-162.793	-107.344	0.191	0.041
-161.779	-200.000	-0.023	0.106
-160.764	-150.086	-0.159	-0.012
-159.750	-122.348	-0.118	0.019
-158.735	-165.975	-0.098	-0.004
-157.720	341.157	0.181	0.349
-156.706	-59.099	-0.216	-0.092
-155.691	-111.741	-0.142	-0.028
-154.677	-200.000	-0.044	-0.203
-153.662	-83.564	0.273	-0.086
-152.647	800.000	0.039	-0.162
-151.633	-90.720	-0.058	-0.017
-150.618	-200.000	-0.007	-0.034
-149.604	363.373	0.014	0.027
-148.589	44.536	0.095	-0.086
-147.574	-200.000	0.003	0.183
-146.560	-200.000	-0.000	0.160
-145.545	-200.000	-0.020	0.141
-144.531	373.424	0.068	0.135
-143.516	-200.000	0.071	0.433
-142.502	-90.835	-0.078	-0.022
-141.487	-54.254	0.292	-0.131
-140.472	-200.000	0.003	0.078
-139.458	-80.589	-0.243	0.080
-138.443	-89.450	0.294	0.085
-137.429	-135.792	-0.143	-0.017
-136.414	-58.919	0.163	0.069
-135.399	-200.000	-0.001	0.269
-134.385	575.052	-0.030	-0.073
-133.370	191.984	-0.190	-0.282
-132.356	42.303	0.129	-0.116
-131.341	108.374	-0.108	0.127
-130.326	45.092	0.098	0.089
-129.312	-81.746	0.089	-0.029
-128.297	302.827	0.055	0.100
-127.283	16.895	0.075	0.058
-126.268	-200.000	0.021	-0.099
-125.253	-200.000	0.467	-0.001
-124.239	-147.787	-0.222	0.018
-123.224	-200.000	-0.025	-0.137
-122.210	-92.900	0.289	0.079
-121.195	99.734	0.132	-0.151
-120.180	-200.000	0.006	-0.135
-119.166	239.474	-0.170	-0.278
-118.151	-83.259	0.062	0.020
-117.137	203.339	0.163	-0.248
-116.122	-93.092	0.114	-0.031
-115.107	800.000	0.058	-0.228
-114.093	800.000	-0.071	-0.289
-113.078	43.804	0.059	-0.053
-112.064	336.537	0.062	0.118
-111.049	-200.000	0.024	0.166
-110.034	800.000	0.024	0.079
-109.020	4.954	0.005	0.004
-108.005	800.000	0.032	0.114
-106.991	230.086	-0.108	0.173
-105.976	-112.437	-0.137	-0.027
-104.962	-200.000	-0.029	-0.161
-103.947	-52.627	0.087	-0.039
-102.932	-67.546	-0.229	-0.088
-101.918	160.763	0.048	-0.065
-100.903	-200.000	-0.027	0.457
-99.889	84.547	-0.168	0.181
-98.874	-62.094	-0.253	0.104
-97.859	800.000	-0.026	-0.095
-96.845	-150.532	-0.153	0.012
-95.830	-52.057	0.265	-0.121
-94.816	-126.700	0.311	0.045
-93.801	446.716	-0.077	0.168
-92.786	714.785	0.075	0.195
-91.772	-95.749	-0.152	0.040
-90.757	-200.000	-0.011	-0.373
-89.743	-137.012	-0.223	0.025
-88.728	-200.000	0.023	0.198
-87.713	34.813	-0.127	-0.109
-86.699	800.000	0.031	-0.094
-85.684	76.073	-0.182	-0.189
-84.670	86.543	0.055	0.059
-83.655	175.110	-0.168	0.239
-82.640	51.876	-0.220	0.206
-81.626	-200.000	0.061	0.410
-80.611	-96.518	-0.153	0.040
-79.597	-200.000	-0.009	0.210
-78.582	-200.000	-0.040	0.180
-77.567	55.341	-0.080	0.076
-76.553	-40.048	0.047	-0.024
-75.538	-170.006	-0.056	0.002
-74.524	271.734	0.112	0.194
-73.509	255.572	0.109	-0.183
-72.494	800.000	0.167	-0.475
-71.480	-35.255	-0.008	0.004
-70.465	-95.237	0.394	0.104
-69.451	418.559	-0.064	-0.134
-68.436	-148.487	0.082	-0.007
-67.422	-140.156	0.060	-0.006
-66.407	-200.000	-0.010	0.102
-65.392	206.100	0.126	0.193
-64.378	-83.843	-0.225	0.070
-63.363	-73.758	0.069	0.025
-62.349	39.483	-0.145	0.128
-61.334	73.510	-1.127	-1.159
-60.319	54.135	0.662	0.626
-59.305	127.147	-0.564	-0.702
-58.290	192.427	0.515	0.763
-57.276	371.512	0.728	1.451
-56.261	-200.000	108.742	579.685
-55.246	425.766	1502.539	3177.724
-54.232	143.580	2691.153	3519.009
-53.217	103.013	2172.869	2498.782
-52.203	39.931	1615.117	1423.799
-51.188	32.107	1355.074	1146.958
-50.173	29.030	1314.496	1094.303
-49.159	52.261	1369.031	1281.407
-48.144	52.362	1384.969	1296.887
-47.130	32.196	1339.418	1134.065
-46.115	28.955	1321.499	1099.511
-45.100	28.728	1316.632	1094.064
-44.086	28.656	1314.313	1091.667
-43.071	28.471	1312.384	1088.921
-42.057	28.526	1310.279	1087.457
-41.042	28.612	1308.205	1086.205
-40.027	28.632	1306.507	1084.866
-39.013	28.744	1304.209	1083.579
-37.998	28.568	1303.055	1081.539
-36.984	28.598	1300.818	1079.813
-35.969	28.763	1299.154	1079.363
-34.954	28.786	1297.533	1078.103
-33.940	28.799	1296.050	1076.907
-32.925	28.807	1295.138	1076.156
-31.911	28.846	1293.103	1074.649
-30.896	28.882	1291.949	1073.857
-29.881	28.827	1290.945	1072.658
-28.867	28.865	1288.997	1071.216
-27.852	28.882	1287.275	1069.842
-26.838	28.892	1285.979	1068.780
-25.823	28.855	1284.706	1067.467
-24.809	28.842	1283.256	1066.143
-23.794	28.782	1281.834	1064.576
-22.779	28.823	1280.986	1064.065
-21.765	28.942	1279.196	1063.222
-20.750	28.842	1277.809	1061.449
-19.736	28.656	1276.849	1059.537
-18.721	28.638	1275.925	1058.624
-17.706	28.584	1274.762	1057.309
-16.692	28.732	1273.487	1057.062
-15.677	28.740	1272.103	1055.916
-14.663	28.640	1271.212	1054.560
-13.648	28.659	1270.283	1053.856
-12.633	28.654	1269.184	1052.876
-11.619	28.642	1268.292	1052.020
-10.604	28.694	1267.830	1051.895
-9.590	28.655	1266.843	1050.809
-8.575	28.603	1265.870	1049.668
-7.560	28.656	1264.728	1048.979
-6.546	28.635	1264.340	1048.495
-5.531	28.665	1263.021	1047.530
-4.517	28.581	1262.421	1046.512
-3.502	28.690	1261.138	1046.030
-2.487	28.671	1260.202	1045.103
-1.473	28.675	1256.267	1041.821
-0.458	27.577	1242.007	1023.793
0.556	23.241	1225.542	990.118
1.571	19.879	1232.604	976.791
2.586	19.185	1247.585	984.614
3.600	19.071	1237.621	976.014
4.615	17.196	1170.299	912.777
5.629	13.723	1102.964	842.571
6.644	11.936	1085.598	820.287
7.659	11.778	1083.453	817.805
8.673	11.701	1082.276	816.460
9.688	11.765	1080.280	815.197
10.702	11.831	1079.163	814.612
11.717	14.141	1080.913	827.362
12.731	17.092	1085.020	845.144
13.746	18.118	1085.347	850.431
14.761	17.651	1084.246	847.172
15.775	16.604	1082.203	840.304
16.790	15.579	1080.240	833.621
17.804	14.785	1078.714	828.439
18.819	14.414	1077.150	825.325
19.834	14.160	1076.128	823.214
20.848	13.836	1075.276	820.887
21.863	13.725	1074.335	819.549
22.877	13.490	1073.666	817.802
23.892	13.519	1072.929	817.313
24.907	13.281	1072.719	815.907
25.921	13.504	1070.967	815.598
26.936	13.502	1069.976	814.761
27.950	13.513	1069.032	814.026
28.965	13.541	1067.578	812.986
29.980	13.628	1065.373	811.657
30.994	13.694	1064.703	811.399
32.009	13.735	1063.887	810.909
33.023	13.675	1062.688	809.630
34.038	13.724	1061.312	808.748
35.053	13.572	1060.248	807.122
36.067	13.616	1059.445	806.655
37.082	13.696	1058.898	806.557
38.096	13.669	1057.688	805.432
39.111	13.591	1057.403	804.765
40.126	13.459	1056.379	803.275
41.140	13.461	1054.750	801.977
42.155	13.393	1053.785	800.838
43.169	13.481	1052.365	800.116
44.184	13.352	1051.992	799.137
45.199	13.423	1050.502	798.276
46.213	13.451	1049.449	797.543
47.228	13.418	1048.563	796.643
48.242	13.502	1047.075	795.841
49.257	13.468	1046.438	795.124
50.271	13.596	1045.411	794.890
51.286	13.526	1044.715	793.955
52.301	13.524	1043.770	793.153
53.315	13.535	1042.523	792.190
54.330	13.591	1041.063	791.278
55.344	13.557	1040.547	790.653
56.359	13.501	1039.503	789.522
57.374	13.407	1038.967	788.601
58.388	13.421	1037.741	787.662
59.403	13.289	1037.185	786.544
60.417	13.446	1036.078	786.384
61.432	13.346	1035.456	785.365
62.447	13.403	1034.876	785.128
63.461	13.274	1034.122	783.874
64.476	13.206	1033.399	782.935
65.490	13.438	1032.143	783.011
66.505	13.375	1031.635	782.258
67.520	13.406	1031.292	782.076
68.534	13.340	1030.507	781.098
69.549	13.285	1029.561	780.055
70.563	13.471	1028.745	780.243
71.578	13.259	1028.099	778.687
72.593	13.294	1027.305	778.178
73.607	13.265	1026.177	777.120
74.622	13.199	1026.278	776.817
75.636	13.317	1025.410	776.648
76.651	13.185	1024.528	775.290
77.666	13.245	1024.218	775.271
78.680	13.318	1022.802	774.469
79.695	13.304	1022.773	774.315
80.709	13.341	1022.159	773.952
81.724	13.392	1021.659	773.744
82.739	13.532	1020.470	773.429
83.753	13.581	1019.596	772.928
84.768	13.669	1018.715	772.603
85.782	13.679	1017.770	771.865
86.797	13.635	1016.759	770.823
87.812	13.645	1015.874	770.133
88.826	13.512	1015.092	768.854
89.841	13.584	1013.984	768.281
90.855	13.726	1012.513	767.753
91.870	13.587	1012.536	767.060
92.884	13.693	1011.313	766.557
93.899	13.813	1010.309	766.283
94.914	13.843	1009.518	765.751
95.928	13.813	1008.390	764.689
96.943	13.690	1007.966	763.733
97.957	13.721	1006.829	762.950
98.972	13.616	1006.354	762.037
99.987	13.606	1005.564	761.325
101.001	13.719	1004.318	760.834
102.016	13.731	1003.699	760.354
103.030	13.647	1003.288	759.589
104.045	13.635	1002.566	758.920
105.060	13.606	1001.102	757.612
106.074	13.573	1000.447	756.901
107.089	13.544	999.360	755.876
108.103	13.402	998.527	754.532
109.118	13.435	997.428	753.786
110.133	13.421	996.582	753.016
111.147	13.435	996.134	752.674
112.162	13.472	995.562	752.344
113.176	13.612	994.170	751.863
114.191	13.589	993.489	751.173
115.206	13.557	992.999	750.591
116.220	13.531	992.119	749.746
117.235	13.555	990.920	748.878
118.249	13.588	989.963	748.241
119.264	13.523	989.439	747.484
120.279	13.573	988.940	747.268
121.293	13.465	987.743	745.811
122.308	13.375	986.970	744.753
123.322	13.450	985.689	744.058
124.337	13.569	984.693	743.775
125.352	13.533	983.629	742.745
126.366	13.509	982.384	741.634
127.381	13.519	981.336	740.821
128.395	13.574	980.646	740.481
129.410	13.646	979.321	739.735
130.424	13.524	979.291	739.100
131.439	13.499	978.223	738.118
132.454	13.570	977.426	737.769
133.468	13.588	976.331	736.957
134.483	13.692	975.657	736.844
135.497	13.635	974.624	735.746
136.512	13.569	974.247	735.105
137.527	13.640	972.908	734.344
138.541	13.655	972.399	733.963
139.556	13.590	971.937	733.258
140.570	13.737	971.116	733.226
141.585	13.705	970.473	732.535
142.600	13.662	969.419	731.484
143.614	13.720	968.713	731.139
144.629	13.813	967.707	730.727
145.643	13.823	966.737	729.972
146.658	13.803	965.140	728.614
147.673	13.685	965.054	727.968
148.687	13.588	964.765	727.259
149.702	13.692	963.101	726.397
150.716	13.688	962.458	725.830
151.731	13.716	961.828	725.411
152.746	13.671	961.159	724.648
153.760	13.675	960.865	724.382
154.775	13.743	960.275	724.166
155.789	13.986	959.052	724.241
156.804	13.725	958.814	722.861
157.819	13.800	957.899	722.434
158.833	13.818	957.372	722.047
159.848	13.860	956.378	721.420
160.862	13.838	955.590	720.663
161.877	13.854	954.348	719.734
162.892	13.846	953.027	718.637
163.906	13.664	952.617	717.477
164.921	13.729	951.796	717.077
165.935	13.842	950.763	716.725
166.950	13.841	949.746	715.890
167.964	13.826	949.102	715.278
168.979	13.876	948.185	714.739
169.994	13.864	947.287	713.946
171.008	13.962	946.560	713.753
172.023	14.100	945.879	713.771
173.037	14.049	945.328	713.074
174.052	13.923	944.714	712.009
175.067	13.925	944.024	711.434
176.081	13.936	943.127	710.740
177.096	13.739	942.996	709.734
178.110	13.789	942.356	709.404
179.125	13.992	941.485	709.556
180.140	13.970	940.773	708.860
181.154	13.944	940.659	708.603
182.169	14.032	939.857	708.311
183.183	13.967	939.699	707.849
184.198	14.049	938.845	707.493
185.213	14.118	937.855	706.979
186.227	14.305	936.982	707.051
187.242	14.227	936.598	706.369
188.256	14.186	935.761	705.501
189.271	14.311	934.767	705.218
190.286	14.139	933.967	703.823
191.300	13.928	933.802	702.745
192.315	13.842	933.046	701.750
193.329	13.846	932.431	701.242
194.344	14.044	931.543	701.348
195.359	14.071	931.347	701.252
196.373	14.106	930.326	700.567
197.388	14.202	930.195	700.812
198.402	14.263	929.756	700.678
199.417	14.400	928.821	700.488
200.432	14.421	928.622	700.363
201.446	14.507	927.873	700.098
202.461	14.470	927.300	699.446
203.475	14.382	926.629	698.513
204.490	14.367	926.117	698.000
205.504	14.409	925.029	697.292
206.519	14.379	924.460	696.679
207.534	14.428	923.813	696.334
208.548	14.418	922.971	695.594
209.563	14.277	922.771	694.796
210.577	14.406	921.309	694.170
211.592	14.449	921.477	694.414
212.607	14.511	920.540	693.906
213.621	14.516	919.664	693.205
214.636	14.544	918.595	692.454
215.650	14.514	917.833	691.693
216.665	14.542	917.729	691.668
217.680	14.603	916.776	691.142
218.694	14.517	916.704	690.672
219.709	14.543	915.769	690.014
220.723	14.490	915.218	689.316
221.738	14.579	913.981	688.692
222.753	14.622	913.371	688.351
223.767	14.713	912.962	688.354
224.782	14.710	912.323	687.801
225.796	14.770	912.063	687.792
226.811	14.694	911.063	686.661
227.826	14.660	910.668	686.166
228.840	14.644	909.715	685.319
229.855	14.803	908.181	684.757
230.869	14.655	908.357	684.219
231.884	14.686	907.240	683.445
232.899	14.716	906.788	683.166
233.913	14.594	906.236	682.194
234.928	14.656	905.739	682.012
235.942	14.605	905.170	681.313
236.957	14.791	903.827	681.002
237.972	14.651	903.832	680.375
238.986	14.604	903.303	679.726
240.001	14.605	903.087	679.507
241.015	14.742	901.835	679.059
242.030	14.805	901.264	678.828
243.045	14.748	900.787	678.176
244.059	14.947	899.896	678.253
245.074	14.862	899.207	677.327
246.088	14.853	898.619	676.789
247.103	14.834	898.367	676.461
248.117	14.872	897.989	676.271
249.132	14.973	897.688	676.392
250.147	15.183	896.781	676.499
251.161	15.102	896.047	675.558
252.176	15.104	895.616	675.181
253.190	15.299	894.310	674.924
254.205	15.203	894.065	674.291
255.220	15.172	893.547	673.715
256.234	15.214	892.473	673.016
257.249	15.378	891.655	672.997
258.263	15.383	890.744	672.272
259.278	15.396	889.892	671.621
260.293	15.321	890.051	671.382
261.307	15.291	889.370	670.687
262.322	15.312	889.365	670.709
263.336	15.381	887.875	669.802
264.351	15.527	887.016	669.674
265.366	15.559	886.502	669.356
266.380	15.454	886.318	668.739
267.395	15.426	885.312	667.811
268.409	15.404	884.602	667.126
269.424	15.549	883.563	666.860
270.439	15.494	883.108	666.240
271.453	15.525	882.112	665.554
272.468	15.503	881.900	665.245
273.482	15.395	881.415	664.394
274.497	15.477	880.432	663.920
275.512	15.453	880.409	663.749
276.526	15.402	879.891	663.095
277.541	15.500	879.147	662.863
278.555	15.525	878.944	662.750
279.570	15.637	877.690	662.187
280.585	15.771	876.922	662.075
281.599	15.642	876.112	660.902
282.614	15.646	875.678	660.531
283.628	15.582	875.199	659.860
284.643	15.622	874.560	659.477
285.657	15.603	874.302	659.147
286.672	15.730	873.236	658.785
287.687	15.635	872.640	657.905
288.701	15.699	872.236	657.792
289.716	15.590	871.903	657.056
290.730	15.699	870.963	656.715
291.745	15.691	870.529	656.297
292.760	15.855	869.515	656.114
293.774	15.836	868.971	655.573
294.789	15.783	868.180	654.712
295.803	15.779	867.740	654.305
296.818	15.665	867.077	653.306
297.833	15.675	866.680	652.989
298.847	15.787	865.479	652.461
299.862	15.933	865.288	652.825
300.876	15.889	864.921	652.319
301.891	15.737	864.408	651.285
302.906	15.870	863.712	651.217
303.920	16.031	863.174	651.378
304.935	16.141	862.321	651.101
305.949	15.993	861.701	650.004
306.964	15.903	861.588	649.513
307.979	15.936	860.636	648.865
308.993	16.045	860.303	648.978
310.008	16.154	859.200	648.506
311.022	16.118	858.572	647.839
312.037	16.071	858.436	647.497
313.052	16.022	857.636	646.650
314.066	16.016	857.131	646.185
315.081	15.891	856.705	645.328
316.095	15.962	855.609	644.718
317.110	15.989	855.461	644.652
318.125	15.957	854.848	644.012
319.139	15.842	854.987	643.619
320.154	16.054	854.205	643.782
321.168	15.960	853.573	642.893
322.183	16.183	852.619	642.966
323.197	16.138	852.539	642.678
324.212	16.158	851.752	642.103
325.227	16.158	850.977	641.464
326.241	16.090	850.618	640.878
327.256	16.100	849.873	640.297
328.270	16.159	849.916	640.498
329.285	16.202	849.144	640.022
330.300	16.130	848.570	639.259
331.314	16.004	848.220	638.462
332.329	16.265	847.533	638.875
333.343	16.296	846.953	638.497
334.358	16.338	846.521	638.275
335.373	16.403	846.017	638.087
336.387	16.276	845.907	637.465
337.402	16.337	845.856	637.601
338.416	16.447	845.136	637.417
339.431	16.421	844.792	637.004
340.446	16.371	844.572	636.592
341.460	16.601	843.929	636.917
342.475	16.601	843.640	636.643
343.489	16.636	843.269	636.438
344.504	16.608	842.641	635.803
345.519	16.657	842.344	635.708
346.533	16.461	842.229	634.827
347.548	16.586	841.280	634.523
348.562	16.556	840.911	634.077
349.577	16.645	839.559	633.334
350.592	16.594	839.056	632.708
351.606	16.580	838.886	632.471
352.621	16.563	837.960	631.656
353.635	16.538	837.073	630.838
354.650	16.564	836.768	630.650
355.665	16.773	835.819	630.656
356.679	16.550	835.604	629.609
357.694	16.611	834.992	629.316
358.708	16.524	834.426	628.511
359.723	16.750	833.765	628.799
360.738	16.780	833.181	628.412
361.752	16.890	832.388	628.168
362.767	16.815	831.746	627.350
363.781	16.843	831.459	627.182
364.796	16.954	830.876	627.095
365.810	16.955	830.486	626.750
366.825	17.001	829.759	626.317
367.840	17.088	829.474	626.367
368.854	16.978	829.119	625.636
369.869	16.946	828.886	625.289
370.883	16.837	828.490	624.531
371.898	16.905	828.242	624.542
372.913	17.073	827.545	624.579
373.927	17.079	827.012	624.143
374.942	17.105	826.636	623.899
375.956	17.017	826.499	623.417
376.971	17.146	825.669	623.208
377.986	17.059	825.466	622.683
379.000	17.262	824.530	622.666
380.015	17.023	824.761	621.908
381.029	17.180	823.664	621.601
382.044	17.212	823.271	621.367
383.059	17.340	822.299	621.042
384.073	17.149	821.803	619.919
385.088	17.175	821.337	619.607
386.102	17.207	820.869	619.316
387.117	17.237	820.140	618.820
388.132	17.151	819.633	618.070
389.146	17.253	818.878	617.816
390.161	17.206	818.824	617.549
391.175	17.214	818.069	616.953
392.190	17.344	817.728	617.114
393.205	17.304	817.036	616.392
394.219	17.176	816.978	615.832
395.234	17.258	816.732	615.886
396.248	17.268	815.920	615.256
397.263	17.177	815.841	614.815
398.278	17.140	815.311	614.225
399.292	17.269	815.115	614.490
400.307	17.213	814.609	613.851
401.321	17.270	813.776	613.377
402.336	17.234	813.659	613.102
403.350	17.284	812.965	612.707
404.365	17.625	812.320	613.394
405.380	17.524	811.590	612.424
406.394	17.468	811.743	612.284
407.409	17.523	811.248	612.055
408.423	17.630	810.687	611.961
409.438	17.683	810.266	611.782
410.453	17.642	809.980	611.365
411.467	17.555	809.385	610.547
412.482	17.708	809.065	610.802
413.496	17.703	808.810	610.537
414.511	17.676	808.861	610.425
415.526	17.780	807.885	610.004
416.540	17.748	807.309	609.403
417.555	17.757	806.819	609.010
418.569	17.889	806.138	608.912
419.584	17.689	806.303	608.271
420.599	17.825	805.480	608.083
421.613	110.062	1292.887	1471.279
422.628	94.907	1363.909	1471.380
