DTS Sentinel unit serial number:	SN413079Multiplexer serial number:	ORYXHardware model number:	OX4-SRSoftware version number:	ORYX F/W v4.00 Oryx Data Collector v3.7.2.0data status	okinstallation	princeton_trtdifferential loss correction	single-endedforward channel	channel 1reverse channel	N/Adate	2019/09/12time	06:08:11forward acquisition time	60.00reverse acquisition time	0.00gamma	496.2192k internal	0.2320k external	0.2320temperature offset calibration	1.0048default loss term (dB/km)	0.3790temperature slope calibration	1.0000multiplexer offset coefficient	1.0000multiplexer slope coefficient	1.0000fibre end	0.00T internal ref (°C)	32.12T ext. ref 1 (°C)	1.55T ext. ref 2 (°C)	27.36length (m)	temperature (°C)	Stokes	anti-Stokes-747.200	-69.940	-0.334	-0.129
-746.185	400.004	0.110	0.234
-745.171	800.000	0.067	0.215
-744.156	-2.682	-0.344	-0.243
-743.142	-140.245	0.284	0.030
-742.127	-14.024	-0.389	0.254
-741.112	18.676	-0.191	0.155
-740.098	16.009	-0.304	0.242
-739.083	88.618	0.081	0.091
-738.069	87.033	-0.168	0.188
-737.054	263.469	-0.141	0.247
-736.039	51.724	-0.303	0.291
-735.025	800.000	-0.038	0.137
-734.010	-15.262	-0.287	0.185
-732.996	800.000	-0.042	0.148
-731.981	-44.055	-0.065	-0.033
-730.966	90.670	0.189	0.213
-729.952	32.803	-0.383	-0.335
-728.937	416.530	0.151	-0.325
-727.923	123.030	0.210	-0.266
-726.908	800.000	-0.089	-0.321
-725.894	-200.000	-0.000	-0.040
-724.879	476.348	0.046	-0.105
-723.864	-95.302	0.126	0.034
-722.850	29.215	0.125	-0.108
-721.835	40.645	0.456	0.415
-720.821	-13.624	-0.345	-0.226
-719.806	-79.653	-0.293	-0.100
-718.791	131.884	0.168	0.218
-717.777	59.783	0.298	0.297
-716.762	122.373	0.123	0.156
-715.748	-10.992	-0.150	-0.100
-714.733	208.670	-0.096	-0.152
-713.718	-32.466	-0.172	0.097
-712.704	-200.000	0.052	0.290
-711.689	311.009	-0.065	-0.122
-710.675	-22.259	0.232	0.142
-709.660	112.135	0.218	0.266
-708.645	218.165	-0.174	-0.280
-707.631	133.330	0.128	0.167
-706.616	-22.880	0.342	-0.208
-705.602	-200.000	-0.035	-0.276
-704.587	-200.000	0.006	-0.251
-703.572	227.708	0.087	-0.144
-702.558	-47.287	-0.246	0.121
-701.543	466.169	0.099	0.223
-700.529	800.000	0.039	0.148
-699.514	-200.000	-0.002	0.076
-698.499	-4.042	-0.056	-0.039
-697.485	247.216	-0.106	0.181
-696.470	-200.000	0.010	0.135
-695.456	-89.058	-0.179	-0.053
-694.441	620.152	-0.078	-0.199
-693.426	65.949	0.068	-0.070
-692.412	110.245	0.086	-0.104
-691.397	800.000	-0.030	0.091
-690.383	800.000	0.091	-0.258
-689.368	134.621	0.296	0.388
-688.354	800.000	-0.117	-0.386
-687.339	138.166	0.044	0.058
-686.324	100.233	0.153	-0.179
-685.310	310.726	0.059	0.111
-684.295	-95.604	0.168	0.045
-683.281	-89.960	-0.423	-0.125
-682.266	445.730	-0.255	-0.565
-681.251	-33.851	0.220	-0.122
-680.237	-14.202	0.214	0.139
-679.222	-94.072	0.086	0.024
-678.208	51.905	0.150	-0.144
-677.193	14.580	0.252	-0.198
-676.178	800.000	0.062	-0.259
-675.164	635.843	0.037	-0.094
-674.149	23.484	0.145	-0.120
-673.135	-200.000	-0.010	0.285
-672.120	-57.957	-0.046	-0.020
-671.105	-31.253	-0.260	0.148
-670.091	-200.000	0.001	-0.137
-669.076	116.974	0.042	0.052
-668.062	-153.985	0.327	-0.022
-667.047	-8.329	-0.246	0.167
-666.032	-200.000	-0.007	-0.107
-665.018	390.564	-0.076	-0.160
-664.003	-200.000	-0.025	-0.198
-662.989	800.000	-0.014	0.047
-661.974	800.000	-0.059	0.196
-660.959	36.583	0.223	0.199
-659.945	159.035	0.104	-0.145
-658.930	329.976	-0.198	0.384
-657.916	-108.356	0.445	-0.097
-656.901	322.228	-0.144	0.276
-655.886	163.461	0.067	-0.096
-654.872	192.985	0.164	-0.250
-653.857	87.786	-0.128	0.143
-652.843	-200.000	0.011	0.251
-651.828	-200.000	-0.014	0.092
-650.814	800.000	-0.014	0.059
-649.799	-30.435	0.095	-0.054
-648.784	140.860	-0.362	0.482
-647.770	-39.812	-0.198	0.104
-646.755	-69.546	-0.249	0.096
-645.741	-134.920	-0.120	0.015
-644.726	-139.853	-0.250	0.027
-643.711	800.000	0.088	0.268
-642.697	156.112	0.055	-0.076
-641.682	1.398	0.175	-0.127
-640.668	160.413	-0.059	-0.083
-639.653	41.712	0.156	-0.143
-638.638	-111.315	0.170	0.035
-637.624	-137.853	0.077	0.009
-636.609	232.861	0.143	0.237
-635.595	-155.532	0.058	-0.004
-634.580	-46.712	0.133	0.066
-633.565	-150.354	-0.169	0.013
-632.551	-40.244	0.122	-0.064
-631.536	16.720	-0.077	0.061
-630.522	67.516	0.106	-0.109
-629.507	-200.000	-0.008	0.058
-628.492	-105.321	0.268	-0.061
-627.478	-200.000	0.067	-0.326
-626.463	-112.834	0.174	-0.035
-625.449	-62.851	-0.080	0.033
-624.434	11.187	-0.236	-0.182
-623.419	800.000	-0.081	0.344
-622.405	-78.836	0.193	-0.066
-621.390	-200.000	-0.018	-0.139
-620.376	98.707	-0.045	0.053
-619.361	800.000	0.096	-0.296
-618.346	-161.644	0.125	0.006
-617.332	-200.000	-0.080	0.397
-616.317	-200.000	0.006	-0.328
-615.303	717.406	0.058	0.155
-614.288	800.000	-0.007	0.020
-613.273	-55.034	-0.144	-0.065
-612.259	303.367	0.046	-0.085
-611.244	800.000	-0.044	0.187
-610.230	-49.062	-0.128	-0.062
-609.215	-86.487	-0.150	0.046
-608.201	8.926	0.322	0.245
-607.186	284.703	-0.183	-0.331
-606.171	-147.222	0.240	-0.021
-605.157	-109.469	-0.189	-0.040
-604.142	-111.487	0.203	-0.041
-603.128	-122.245	-0.181	-0.030
-602.113	-200.000	-0.030	-0.210
-601.098	-113.944	-0.122	-0.024
-600.084	32.651	-0.037	-0.032
-599.069	800.000	-0.111	0.362
-598.055	-52.870	0.184	-0.085
-597.040	-200.000	0.015	-0.149
-596.025	584.043	-0.051	0.125
-595.011	140.179	0.195	0.258
-593.996	183.374	0.122	-0.181
-592.982	-1.818	-0.301	0.213
-591.967	800.000	0.024	-0.070
-590.952	129.913	-0.148	-0.190
-589.938	-55.079	-0.186	-0.084
-588.923	129.896	-0.132	-0.169
-587.909	164.017	0.164	0.233
-586.894	800.000	-0.086	-0.266
-585.879	-40.326	-0.124	0.065
-584.865	23.186	-0.384	-0.317
-583.850	-33.490	0.312	-0.173
-582.836	-14.823	-0.194	-0.125
-581.821	-184.136	0.102	0.002
-580.806	800.000	0.009	-0.038
-579.792	135.572	0.076	0.100
-578.777	-159.126	-0.274	0.016
-577.763	63.076	-0.325	0.327
-576.748	-49.450	-0.204	-0.098
-575.733	200.318	-0.255	0.394
-574.719	-200.000	-0.046	-0.237
-573.704	-105.904	0.185	0.042
-572.690	79.192	0.062	0.067
-571.675	96.626	-0.108	-0.124
-570.661	-200.000	0.037	-0.190
-569.646	-200.000	-0.009	-0.342
-568.631	627.244	-0.070	0.176
-567.617	109.575	-0.047	0.056
-566.602	7.326	-0.128	0.096
-565.588	-41.566	0.217	0.112
-564.573	-200.000	-0.008	-0.111
-563.558	37.125	0.100	0.089
-562.544	-117.509	0.234	-0.042
-561.529	483.211	-0.126	-0.287
-560.515	70.649	-0.224	-0.233
-559.500	-141.351	0.240	0.024
-558.485	577.413	-0.035	-0.087
-557.471	143.278	0.176	-0.235
-556.456	-33.154	-0.153	0.085
-555.442	-126.826	-0.255	0.038
-554.427	-200.000	0.006	0.357
-553.412	31.718	0.194	0.167
-552.398	377.115	0.065	-0.133
-551.383	-60.292	0.239	-0.102
-550.369	93.388	-0.240	0.273
-549.354	46.533	0.168	-0.157
-548.339	-28.915	-0.027	0.016
-547.325	-200.000	-0.010	0.213
-546.310	-200.000	0.008	0.370
-545.296	-30.259	-0.228	-0.130
-544.281	-200.000	-0.008	0.074
-543.266	61.491	-0.048	0.048
-542.252	-95.705	-0.069	0.019
-541.237	460.905	-0.019	0.042
-540.223	-100.951	0.181	-0.045
-539.208	195.861	-0.157	-0.239
-538.193	28.940	-0.363	0.309
-537.179	-200.000	0.035	-0.381
-536.164	-200.000	0.032	-0.213
-535.150	220.432	0.140	0.226
-534.135	81.661	-0.200	0.217
-533.121	29.599	0.336	0.287
-532.106	13.302	-0.171	-0.133
-531.091	497.054	0.112	-0.259
-530.077	-74.548	0.162	0.058
-529.062	283.651	0.070	0.125
-528.048	261.188	-0.132	0.229
-527.033	-200.000	-0.013	-0.081
-526.018	385.727	-0.059	-0.122
-525.004	-140.484	-0.343	-0.036
-523.989	-200.000	-0.027	0.145
-522.975	-89.385	0.078	0.023
-521.960	-113.161	-0.220	0.043
-520.945	-70.287	0.302	-0.115
-519.931	-124.538	-0.180	-0.028
-518.916	-117.918	0.251	-0.045
-517.902	-26.026	0.129	0.076
-516.887	-94.557	-0.564	-0.154
-515.872	785.405	-0.177	-0.486
-514.858	-200.000	-0.046	-0.338
-513.843	800.000	0.024	-0.106
-512.829	-63.400	0.166	-0.068
-511.814	-54.715	0.229	-0.104
-510.799	-200.000	-0.018	-0.157
-509.785	125.090	-0.282	-0.356
-508.770	9.206	0.317	-0.240
-507.756	36.935	-0.123	0.109
-506.741	183.394	-0.100	0.149
-505.726	800.000	0.068	0.285
-504.712	147.361	-0.103	0.138
-503.697	-179.396	0.427	0.009
-502.683	-30.927	0.424	0.240
-501.668	-182.739	0.192	-0.003
-500.653	-62.771	-0.319	-0.132
-499.639	115.233	-0.060	-0.073
-498.624	-136.533	0.103	0.012
-497.610	542.140	-0.007	0.017
-496.595	105.266	0.250	0.295
-495.581	800.000	0.082	-0.252
-494.566	20.156	-0.328	0.265
-493.551	629.694	-0.140	-0.354
-492.537	96.885	-0.180	-0.207
-491.522	253.187	0.118	-0.201
-490.508	800.000	-0.054	-0.163
-489.493	25.093	-0.118	-0.098
-488.478	800.000	0.057	0.225
-487.464	-75.660	-0.297	-0.106
-486.449	33.340	-0.228	-0.198
-485.435	-115.391	0.307	0.058
-484.420	-56.969	-0.316	-0.140
-483.405	-82.384	-0.104	-0.034
-482.391	-200.000	-0.008	0.061
-481.376	-56.226	-0.428	0.191
-480.362	800.000	0.086	0.341
-479.347	-58.774	0.234	0.101
-478.332	-200.000	0.001	0.308
-477.318	800.000	0.020	-0.080
-476.303	-107.088	-0.359	0.079
-475.289	274.259	-0.216	-0.382
-474.274	293.032	0.059	0.108
-473.259	-200.000	0.012	0.214
-472.245	285.284	0.026	0.047
-471.230	800.000	0.097	0.331
-470.216	-79.118	0.450	0.153
-469.201	7.487	-0.409	-0.306
-468.186	-26.135	-0.110	0.065
-467.172	26.026	0.334	0.279
-466.157	-200.000	-0.028	-0.163
-465.143	-128.805	-0.064	-0.009
-464.128	-86.933	-0.091	-0.028
-463.113	180.385	0.303	-0.445
-462.099	-80.820	-0.069	-0.023
-461.084	17.218	-0.346	0.275
-460.070	-126.729	0.077	0.011
-459.055	121.090	0.016	-0.020
-458.040	113.535	-0.089	0.108
-457.026	3.707	0.053	0.039
-456.011	14.311	-0.103	0.081
-454.997	-19.117	-0.124	0.077
-453.982	-87.037	-0.333	0.102
-452.968	-55.001	-0.126	-0.057
-451.953	-200.000	0.027	-0.186
-450.938	-60.195	0.054	-0.023
-449.924	-200.000	-0.027	-0.188
-448.909	-200.000	0.045	-0.440
-447.895	-50.347	-0.227	0.107
-446.880	362.993	0.057	-0.114
-445.865	-64.594	-0.302	0.122
-444.851	126.381	-0.184	-0.233
-443.836	4.482	0.250	0.183
-442.822	-200.000	-0.009	0.127
-441.807	-200.000	0.036	-0.509
-440.792	-130.072	0.381	-0.052
-439.778	91.198	0.055	-0.061
-438.763	-200.000	0.003	-0.094
-437.749	83.047	0.158	-0.172
-436.734	-40.096	0.397	-0.207
-435.719	-102.665	0.123	-0.029
-434.705	-92.351	0.201	0.056
-433.690	151.312	0.233	-0.316
-432.676	-62.696	-0.046	-0.019
-431.661	-40.579	0.115	-0.060
-430.646	278.286	0.266	0.473
-429.632	221.398	0.157	0.252
-428.617	-144.464	-0.485	0.045
-427.603	-65.453	-0.191	0.077
-426.588	-34.331	0.113	-0.062
-425.573	-200.000	-0.013	0.131
-424.559	-53.215	0.305	0.140
-423.544	800.000	-0.012	-0.036
-422.530	800.000	-0.016	-0.048
-421.515	217.636	0.049	0.079
-420.500	-73.492	0.371	0.135
-419.486	210.490	0.162	-0.253
-418.471	-65.601	0.101	-0.041
-417.457	529.572	0.089	0.209
-416.442	322.016	0.091	0.172
-415.428	-39.961	-0.267	0.139
-414.413	193.453	0.147	0.223
-413.398	-200.000	0.079	0.372
-412.384	399.536	-0.168	0.351
-411.369	74.686	0.332	0.348
-410.355	-200.000	-0.007	0.237
-409.340	108.385	0.065	-0.077
-408.325	-31.834	-0.269	-0.150
-407.311	-200.000	0.020	0.094
-406.296	-200.000	-0.069	-0.410
-405.282	37.652	0.253	0.224
-404.267	-88.009	0.178	-0.053
-403.252	-91.384	0.092	0.026
-402.238	253.351	0.135	0.229
-401.223	-64.199	0.080	-0.033
-400.209	255.935	0.134	-0.229
-399.194	-108.276	-0.251	-0.054
-398.179	29.364	-0.059	-0.050
-397.165	7.100	-0.342	-0.254
-396.150	149.295	-0.094	-0.127
-395.136	800.000	0.037	-0.125
-394.121	800.000	-0.061	-0.215
-393.106	135.778	-0.120	0.156
-392.092	800.000	0.061	0.230
-391.077	-200.000	0.017	0.178
-390.063	66.964	0.149	0.151
-389.048	22.172	0.141	0.115
-388.033	-68.487	0.260	-0.100
-387.019	-108.554	0.205	-0.044
-386.004	411.455	-0.050	-0.106
-384.990	8.823	0.173	-0.130
-383.975	640.531	0.106	0.270
-382.960	-19.928	0.151	0.093
-381.946	-94.622	0.295	-0.080
-380.931	-200.000	-0.050	-0.268
-379.917	28.473	-0.357	-0.301
-378.902	466.041	-0.136	-0.303
-377.888	10.040	0.154	0.117
-376.873	-137.777	-0.301	0.034
-375.858	744.271	0.077	-0.206
-374.844	-200.000	0.037	0.194
-373.829	-200.000	-0.018	-0.135
-372.815	19.373	0.363	-0.291
-371.800	135.693	-0.214	0.277
-370.785	-75.261	-0.406	-0.144
-369.771	800.000	0.052	0.221
-368.756	66.486	0.114	0.116
-367.742	-200.000	-0.055	-0.265
-366.727	-200.000	0.037	0.210
-365.712	95.464	0.230	-0.261
-364.698	-200.000	-0.047	-0.259
-363.683	24.308	-0.148	0.122
-362.669	-200.000	0.062	-0.325
-361.654	-118.894	-0.022	0.004
-360.639	-18.087	-0.300	0.187
-359.625	47.889	0.179	-0.167
-358.610	-15.727	0.011	0.007
-357.596	572.846	0.049	-0.119
-356.581	-119.631	-0.168	-0.029
-355.566	-12.675	0.091	0.059
-354.552	226.155	-0.084	0.136
-353.537	-139.877	0.209	0.022
-352.523	56.025	-0.135	-0.131
-351.508	295.910	0.177	0.323
-350.493	-80.336	0.099	-0.033
-349.479	141.433	-0.232	-0.305
-348.464	128.804	0.122	-0.155
-347.450	800.000	-0.077	-0.218
-346.435	-200.000	0.036	0.323
-345.420	-82.451	0.150	-0.048
-344.406	-86.045	0.096	-0.030
-343.391	-95.075	-0.477	-0.128
-342.377	-200.000	-0.005	-0.159
-341.362	800.000	0.063	0.239
-340.348	-38.668	-0.163	0.086
-339.333	-58.924	-0.217	0.094
-338.318	-9.159	0.080	0.053
-337.304	-57.173	-0.078	-0.034
-336.289	123.869	-0.271	0.339
-335.275	-114.918	-0.136	0.026
-334.260	771.189	-0.100	-0.272
-333.245	-200.000	-0.062	-0.291
-332.231	571.160	0.054	-0.130
-331.216	-200.000	0.030	0.165
-330.202	76.132	-0.113	-0.119
-329.187	800.000	0.047	-0.162
-328.172	72.340	-0.082	-0.085
-327.158	-200.000	-0.004	-0.313
-326.143	-168.033	0.205	0.008
-325.129	-141.012	0.316	-0.032
-324.114	-200.000	-0.028	0.187
-323.099	36.259	0.196	-0.172
-322.085	773.389	-0.083	0.225
-321.070	197.130	0.121	0.184
-320.056	-161.228	-0.182	0.009
-319.041	-200.000	-0.037	0.277
-318.026	-200.000	-0.016	-0.216
-317.012	5.512	-0.143	0.105
-315.997	-200.000	0.035	0.238
-314.983	140.284	-0.101	0.132
-313.968	-94.030	0.187	-0.051
-312.953	21.951	0.111	0.090
-311.939	61.688	-0.210	0.207
-310.924	-71.843	0.160	0.059
-309.910	-102.558	-0.046	-0.011
-308.895	309.544	-0.080	-0.148
-307.880	421.632	0.048	-0.103
-306.866	160.346	0.341	0.472
-305.851	15.943	-0.098	-0.077
-304.837	-74.682	0.352	0.126
-303.822	-90.257	0.088	-0.025
-302.807	-57.172	-0.156	-0.068
-301.793	-92.532	0.114	0.032
-300.778	-17.270	0.104	-0.065
-299.764	234.320	-0.140	0.230
-298.749	-133.341	0.218	0.027
-297.735	604.257	-0.121	0.299
-296.720	-35.557	-0.100	-0.054
-295.705	0.849	-0.169	-0.120
-294.691	-82.523	0.216	0.070
-293.676	268.840	0.290	-0.505
-292.662	25.263	0.282	0.233
-291.647	-0.928	0.031	-0.022
-290.632	331.727	0.180	0.346
-289.618	478.926	-0.051	0.115
-288.603	36.311	0.055	-0.048
-287.589	-121.784	0.145	0.024
-286.574	286.047	0.076	-0.135
-285.559	-137.652	0.121	-0.014
-284.545	292.465	-0.160	-0.290
-283.530	800.000	-0.138	-0.435
-282.516	-15.525	0.362	-0.229
-281.501	18.356	-0.142	-0.113
-280.486	106.668	-0.119	-0.141
-279.472	-179.386	0.173	0.004
-278.457	-152.334	0.229	0.016
-277.443	-200.000	-0.038	0.232
-276.428	800.000	0.127	-0.416
-275.413	-200.000	-0.013	-0.116
-274.399	-43.607	0.325	-0.163
-273.384	-83.979	-0.296	-0.093
-272.370	76.948	0.222	0.234
-271.355	120.982	-0.128	-0.158
-270.340	32.913	0.119	-0.102
-269.326	269.221	-0.076	0.132
-268.311	537.776	-0.065	0.154
-267.297	-62.050	-0.492	-0.204
-266.282	-27.303	-0.164	-0.095
-265.267	64.241	-0.235	0.234
-264.253	7.401	0.206	0.152
-263.238	244.118	-0.201	0.334
-262.224	-64.590	0.287	-0.116
-261.209	-0.818	-0.070	0.049
-260.195	30.718	-0.285	-0.242
-259.180	-200.000	0.035	-0.375
-258.165	-105.852	0.082	-0.018
-257.151	-93.746	-0.129	0.035
-256.136	-39.676	0.255	-0.133
-255.122	-32.191	0.056	-0.031
-254.107	-154.112	-0.312	-0.021
-253.092	-15.538	-0.352	0.223
-252.078	-200.000	-0.048	-0.306
-251.063	-156.671	-0.168	0.010
-250.049	-200.000	0.023	0.146
-249.034	-112.397	0.415	-0.082
-248.019	-75.394	0.222	0.078
-247.005	66.097	-0.171	-0.172
-245.990	303.350	-0.192	0.352
-244.976	159.791	0.309	0.426
-243.961	-48.621	-0.174	0.083
-242.946	-155.652	-0.358	-0.023
-241.932	-200.000	-0.003	0.141
-240.917	159.375	-0.116	-0.160
-239.903	-66.574	-0.176	0.069
-238.888	425.101	0.171	0.364
-237.873	-200.000	0.009	0.068
-236.859	-152.315	0.271	-0.019
-235.844	19.994	0.242	-0.193
-234.830	-200.000	-0.076	-0.456
-233.815	451.562	0.141	0.308
-232.800	31.598	-0.150	0.128
-231.786	-200.000	0.025	0.164
-230.771	-16.664	-0.294	0.184
-229.757	-13.936	-0.150	0.096
-228.742	-200.000	-0.017	0.178
-227.727	-57.540	-0.219	-0.095
-226.713	-2.144	-0.134	-0.094
-225.698	-200.000	0.003	0.157
-224.684	800.000	0.031	-0.108
-223.669	-68.280	0.316	0.122
-222.655	344.714	0.138	-0.269
-221.640	-33.529	-0.205	-0.112
-220.625	-142.690	0.237	-0.023
-219.611	-115.414	-0.164	0.031
-218.596	227.141	0.049	0.079
-217.582	56.367	0.057	0.055
-216.567	-200.000	-0.038	0.626
-215.552	-200.000	0.018	-0.310
-214.538	282.515	0.068	-0.121
-213.523	123.074	0.166	0.206
-212.509	-50.177	0.283	0.133
-211.494	-85.606	0.384	-0.118
-210.479	-106.865	0.073	-0.016
-209.465	-200.000	0.039	0.211
-208.450	-46.963	0.107	0.052
-207.436	-77.670	0.222	0.076
-206.421	-80.415	-0.270	0.089
-205.406	-43.088	-0.290	0.146
-204.392	113.149	-0.061	0.073
-203.377	27.967	-0.089	-0.074
-202.363	154.382	0.026	-0.036
-201.348	-145.573	0.126	0.011
-200.333	-200.000	-0.043	-0.189
-199.319	-130.482	-0.080	0.011
-198.304	-57.731	0.116	0.050
-197.290	-200.000	-0.115	0.502
-196.275	-90.224	-0.218	-0.063
-195.260	167.205	-0.135	0.189
-194.246	-200.000	-0.036	0.261
-193.231	-143.417	-0.046	-0.004
-192.217	-200.000	-0.014	-0.190
-191.202	111.349	0.183	0.218
-190.187	117.856	0.134	0.163
-189.173	442.529	-0.125	0.270
-188.158	-102.262	-0.354	-0.084
-187.144	800.000	0.027	-0.114
-186.129	-5.827	-0.279	-0.189
-185.114	-136.393	0.278	0.032
-184.100	288.594	0.206	-0.369
-183.085	159.540	0.061	0.084
-182.071	-68.989	-0.129	-0.049
-181.056	719.920	-0.112	-0.295
-180.042	-153.923	0.122	0.008
-179.027	-200.000	0.011	0.386
-178.012	-62.404	0.063	-0.026
-176.998	584.969	0.079	-0.192
-175.983	-200.000	0.022	0.321
-174.969	-72.309	-0.530	0.194
-173.954	120.853	0.238	0.293
-172.939	-200.000	0.028	0.148
-171.925	-128.609	0.081	-0.011
-170.910	-17.339	0.355	0.221
-169.896	800.000	0.044	-0.156
-168.881	-200.000	-0.014	0.072
-167.866	-200.000	0.025	-0.312
-166.852	-153.119	0.163	-0.011
-165.837	-200.000	0.015	0.072
-164.823	-200.000	-0.013	0.137
-163.808	-95.837	-0.121	0.032
-162.793	259.985	-0.345	-0.590
-161.779	9.994	0.264	0.198
-160.764	124.790	0.127	-0.158
-159.750	20.563	0.194	0.155
-158.735	-91.773	-0.235	-0.066
-157.720	734.547	0.146	-0.386
-156.706	-30.059	-0.139	-0.078
-155.691	-52.678	-0.071	0.032
-154.677	-127.365	0.121	0.017
-153.662	-37.801	0.149	0.078
-152.647	-39.669	-0.250	-0.129
-151.633	328.037	-0.044	-0.084
-150.618	-149.316	-0.131	-0.010
-149.604	288.845	0.176	0.315
-148.589	-43.792	0.020	0.010
-147.574	286.539	0.101	-0.181
-146.560	-135.041	-0.159	-0.019
-145.545	-77.875	0.070	-0.024
-144.531	-107.878	0.581	0.125
-143.516	-175.543	0.186	0.005
-142.502	-188.611	-0.200	-0.002
-141.487	-88.242	0.258	0.076
-140.472	138.925	0.157	-0.203
-139.458	-200.000	0.043	-0.206
-138.443	119.500	-0.123	-0.150
-137.429	-200.000	0.048	-0.303
-136.414	61.286	-0.239	0.235
-135.399	147.520	0.130	-0.173
-134.385	800.000	0.107	-0.349
-133.370	-73.687	-0.239	-0.086
-132.356	0.058	-0.251	0.176
-131.341	-36.833	0.320	0.170
-130.326	437.492	-0.009	0.020
-129.312	-3.090	-0.293	0.202
-128.297	43.635	0.168	0.152
-127.283	208.896	0.094	-0.145
-126.268	-200.000	-0.005	0.164
-125.253	-66.684	-0.386	0.151
-124.239	800.000	0.154	-0.517
-123.224	308.080	-0.157	0.289
-122.210	33.456	-0.106	0.091
-121.195	-79.813	0.161	-0.053
-120.180	-44.945	-0.149	-0.073
-119.166	-96.238	0.128	-0.034
-118.151	10.156	0.254	-0.190
-117.137	-200.000	0.081	-0.494
-116.122	100.807	0.123	0.141
-115.107	82.585	0.168	-0.180
-114.093	-135.277	0.298	0.035
-113.078	-167.457	-0.092	-0.004
-112.064	302.294	0.140	-0.255
-111.049	-2.149	-0.210	-0.146
-110.034	-21.988	0.065	0.039
-109.020	-171.987	-0.230	0.007
-108.005	-111.408	-0.120	-0.024
-106.991	51.907	0.275	0.258
-105.976	104.465	-0.121	-0.140
-104.962	800.000	0.039	0.127
-103.947	-200.000	-0.002	0.381
-102.932	-200.000	0.021	0.187
-101.918	564.660	-0.108	0.257
-100.903	-200.000	-0.035	0.164
-99.889	77.179	-0.138	0.144
-98.874	-200.000	-0.053	0.297
-97.859	800.000	0.079	-0.215
-96.845	-158.505	-0.053	-0.003
-95.830	-200.000	0.027	-0.243
-94.816	800.000	-0.046	-0.135
-93.801	6.022	0.123	-0.090
-92.786	369.476	0.120	0.239
-91.772	531.996	0.091	0.213
-90.757	103.894	-0.097	0.112
-89.743	800.000	-0.043	-0.174
-88.728	800.000	-0.082	-0.270
-87.713	204.565	0.158	0.241
-86.699	-158.635	-0.017	0.001
-85.684	-70.974	0.359	0.133
-84.670	-20.427	0.151	0.092
-83.655	83.861	0.202	0.218
-82.640	-130.954	0.325	0.043
-81.626	-130.763	0.392	-0.052
-80.611	-67.875	-0.184	-0.071
-79.597	-200.000	0.029	0.253
-78.582	-5.650	-0.225	0.152
-77.567	-12.762	-0.143	0.092
-76.553	-42.508	0.314	0.157
-75.538	-164.208	0.299	-0.014
-74.524	-200.000	0.017	0.231
-73.509	-9.312	-0.198	-0.131
-72.494	-31.547	-0.229	0.127
-71.480	-183.614	0.364	-0.006
-70.465	-200.000	-0.028	0.454
-69.451	-65.589	0.269	0.106
-68.436	-32.834	0.418	0.229
-67.422	403.693	0.110	0.228
-66.407	-92.082	0.387	-0.108
-65.392	-6.258	0.239	0.161
-64.378	-200.000	0.016	-0.232
-63.363	123.708	0.193	0.238
-62.349	800.000	0.077	0.229
-61.334	477.587	-0.519	-1.155
-60.319	-53.738	0.474	0.213
-59.305	559.058	-0.304	-0.723
-58.290	390.382	0.586	1.196
-57.276	112.023	0.892	1.060
-56.261	-200.000	96.345	595.251
-55.246	564.617	1372.554	3273.272
-54.232	161.076	2550.131	3507.018
-53.217	113.342	2141.905	2557.780
-52.203	44.048	1604.044	1446.945
-51.188	35.553	1342.104	1159.599
-50.173	32.440	1300.269	1105.166
-49.159	54.455	1347.168	1276.994
-48.144	56.618	1364.140	1305.939
-47.130	35.791	1322.690	1144.059
-46.115	32.302	1305.273	1108.426
-45.100	32.079	1300.435	1102.967
-44.086	32.102	1297.698	1100.736
-43.071	32.002	1295.895	1098.575
-42.057	32.024	1293.287	1096.451
-41.042	31.986	1291.484	1094.655
-40.027	32.089	1290.226	1094.145
-39.013	32.009	1288.542	1092.210
-37.998	32.123	1286.743	1091.306
-36.984	32.086	1284.683	1089.299
-35.969	32.161	1282.651	1087.970
-34.954	32.205	1281.124	1086.885
-33.940	32.158	1280.512	1086.050
-32.925	32.055	1279.027	1084.152
-31.911	32.156	1277.216	1083.158
-30.896	32.268	1275.389	1082.207
-29.881	32.283	1274.418	1081.426
-28.867	32.253	1272.829	1079.866
-27.852	32.299	1271.436	1078.901
-26.838	32.376	1269.884	1077.986
-25.823	32.226	1268.845	1076.204
-24.809	32.271	1267.321	1075.124
-23.794	32.161	1266.429	1073.698
-22.779	32.296	1264.747	1072.998
-21.765	32.213	1263.434	1071.366
-20.750	32.203	1262.607	1070.568
-19.736	32.165	1261.165	1069.087
-18.721	32.043	1259.910	1067.284
-17.706	32.103	1258.302	1066.224
-16.692	32.047	1257.699	1065.349
-15.677	32.002	1256.317	1063.884
-14.663	31.989	1255.819	1063.345
-13.648	32.153	1254.150	1062.818
-12.633	32.061	1252.819	1061.126
-11.619	32.033	1252.923	1061.016
-10.604	32.016	1251.705	1059.844
-9.590	32.041	1250.322	1058.774
-8.575	32.055	1249.911	1058.461
-7.560	31.989	1249.050	1057.323
-6.546	31.985	1248.117	1056.469
-5.531	32.004	1247.241	1055.788
-4.517	32.094	1246.198	1055.372
-3.502	32.015	1245.312	1054.137
-2.487	32.008	1244.472	1053.344
-1.473	32.190	1239.960	1050.499
-0.458	30.601	1225.737	1029.618
0.556	27.167	1207.993	992.711
1.571	23.559	1214.982	978.504
2.586	22.863	1229.983	986.614
3.600	22.368	1218.116	974.267
4.615	15.924	1144.986	882.054
5.629	5.915	1068.516	773.926
6.644	1.886	1048.620	739.921
7.659	1.524	1046.491	736.601
8.673	1.421	1045.303	735.200
9.688	1.389	1043.701	733.856
10.702	1.760	1042.219	734.534
11.717	7.666	1050.897	769.242
12.731	17.949	1065.539	830.121
13.746	23.675	1072.304	863.247
14.761	24.980	1073.054	870.115
15.775	24.871	1072.940	869.415
16.790	24.735	1071.932	867.863
17.804	24.654	1071.662	867.177
18.819	24.657	1071.601	867.063
19.834	24.894	1071.133	867.760
20.848	24.855	1070.836	867.251
21.863	24.937	1069.862	866.783
22.877	24.846	1069.246	865.765
23.892	24.792	1068.860	865.114
24.907	24.912	1067.736	864.707
25.921	24.729	1067.033	863.178
26.936	24.811	1066.062	862.712
27.950	24.795	1063.801	860.732
28.965	24.641	1061.917	858.390
29.980	24.774	1060.760	858.018
30.994	24.972	1059.745	858.069
32.009	25.010	1058.842	857.443
33.023	24.748	1057.515	855.039
34.038	24.955	1056.799	855.377
35.053	25.002	1056.119	854.977
36.067	24.919	1055.477	853.983
37.082	25.025	1054.634	853.731
38.096	25.131	1054.249	853.848
39.111	25.328	1053.082	853.766
40.126	25.040	1051.773	851.257
41.140	24.814	1050.031	848.702
42.155	24.560	1048.395	846.101
43.169	24.635	1047.884	845.971
44.184	24.542	1047.081	844.804
45.199	24.438	1046.372	843.666
46.213	24.538	1045.426	843.304
47.228	24.669	1044.765	843.314
48.242	24.626	1044.112	842.507
49.257	24.912	1042.814	842.733
50.271	24.981	1042.050	842.364
51.286	24.975	1041.113	841.505
52.301	25.044	1040.728	841.443
53.315	24.961	1039.679	840.134
54.330	24.868	1038.752	838.870
55.344	24.905	1037.989	838.356
56.359	24.912	1037.145	837.633
57.374	24.613	1036.219	835.412
58.388	24.731	1035.622	835.408
59.403	24.610	1034.274	833.684
60.417	24.431	1033.543	832.188
61.432	24.537	1033.106	832.253
62.447	24.785	1032.622	832.946
63.461	24.664	1031.895	831.722
64.476	24.639	1030.532	830.435
65.490	24.557	1029.990	829.544
66.505	24.599	1029.372	829.169
67.520	24.631	1028.530	828.562
68.534	24.506	1027.351	826.963
69.549	24.110	1026.513	824.381
70.563	24.128	1025.881	823.885
71.578	24.145	1024.562	822.828
72.593	23.869	1024.146	821.150
73.607	24.151	1023.160	821.585
74.622	24.518	1023.022	823.098
75.636	24.606	1022.203	822.771
76.651	24.415	1021.540	821.282
77.666	24.222	1020.387	819.397
78.680	24.236	1020.275	819.299
79.695	24.410	1019.635	819.510
80.709	24.493	1019.346	819.587
81.724	24.509	1018.142	818.621
82.739	24.485	1017.522	817.937
83.753	25.020	1016.587	819.563
84.768	25.122	1016.382	819.791
85.782	25.193	1015.752	819.536
86.797	25.221	1014.023	818.195
87.812	25.114	1013.415	817.145
88.826	25.209	1012.341	816.640
89.841	25.237	1011.558	816.061
90.855	25.269	1010.678	815.427
91.870	25.192	1009.818	814.308
92.884	24.912	1009.212	812.481
93.899	25.071	1007.515	811.761
94.914	25.118	1007.002	811.489
95.928	25.128	1005.791	810.486
96.943	24.626	1004.807	807.355
97.957	24.525	1003.806	806.024
98.972	24.355	1002.719	804.311
99.987	24.661	1001.961	805.011
101.001	25.003	1001.447	806.068
102.016	24.906	1000.543	804.831
103.030	24.671	999.790	803.100
104.045	24.780	998.682	802.628
105.060	24.520	997.744	800.635
106.074	24.606	997.344	800.630
107.089	25.039	996.567	801.874
108.103	24.915	995.547	800.427
109.118	24.577	994.430	797.949
110.133	24.785	992.982	797.644
111.147	24.442	991.737	795.044
112.162	24.444	991.047	794.431
113.176	24.462	990.887	794.313
114.191	24.473	989.529	793.201
115.206	24.177	988.786	791.223
116.220	24.178	988.348	790.805
117.235	24.396	987.152	790.745
118.249	24.473	986.289	790.324
119.264	24.344	986.089	789.524
120.279	24.257	985.357	788.485
121.293	24.335	984.094	787.748
122.308	24.379	983.069	787.052
123.322	24.339	982.107	786.037
124.337	24.097	981.183	784.161
125.352	23.635	979.425	780.655
126.366	23.680	978.429	779.990
127.381	24.380	978.456	783.014
128.395	24.830	978.155	784.680
129.410	24.735	977.667	783.801
130.424	24.861	976.130	783.053
131.439	24.852	975.761	782.648
132.454	24.772	974.740	781.409
133.468	24.718	973.774	780.333
134.483	24.937	972.453	780.157
135.497	25.196	971.963	780.823
136.512	25.152	971.224	779.971
137.527	25.123	969.930	778.734
138.541	25.199	969.509	778.657
139.556	25.239	968.466	777.927
140.570	25.154	968.321	777.372
141.585	25.142	967.355	776.474
142.600	25.035	966.218	775.029
143.614	25.304	965.733	775.738
144.629	25.365	964.910	775.269
145.643	25.162	963.971	773.571
146.658	25.136	962.030	771.832
147.673	24.895	961.221	770.081
148.687	24.939	960.168	769.357
149.702	24.881	959.015	768.115
150.716	24.924	958.152	767.540
151.731	25.013	957.810	767.580
152.746	25.268	957.158	768.080
153.760	25.254	956.561	767.475
154.775	25.351	955.894	767.285
155.789	25.420	954.641	766.508
156.804	25.280	953.789	765.156
157.819	25.234	953.210	764.428
158.833	25.398	952.665	764.622
159.848	25.524	951.214	763.925
160.862	25.270	950.340	762.078
161.877	25.227	949.642	761.271
162.892	25.239	948.540	760.368
163.906	25.145	947.533	759.097
164.921	25.181	946.698	758.512
165.935	25.220	945.974	758.030
166.950	25.287	944.839	757.338
167.964	25.296	944.043	756.670
168.979	25.132	942.776	754.895
169.994	25.108	942.113	754.199
171.008	25.259	941.663	754.408
172.023	25.259	940.675	753.548
173.037	24.965	939.590	751.381
174.052	25.044	938.658	750.899
175.067	24.939	938.412	750.196
176.081	25.108	937.871	750.404
177.096	24.969	937.277	749.282
178.110	24.561	936.568	746.943
179.125	24.675	935.111	746.191
180.140	24.776	934.664	746.187
181.154	24.804	934.542	746.141
182.169	25.121	934.605	747.448
183.183	25.301	934.227	747.830
184.198	25.221	933.057	746.494
185.213	25.268	932.326	746.037
186.227	25.248	932.018	745.644
187.242	25.160	931.345	744.673
188.256	25.330	930.583	744.702
189.271	25.421	929.876	744.447
190.286	25.045	928.768	741.938
191.300	24.486	927.117	738.242
192.315	23.677	925.920	733.885
193.329	23.680	925.193	733.252
194.344	24.555	925.876	737.343
195.359	25.133	925.586	739.431
196.373	25.162	925.484	739.405
197.388	25.107	924.672	738.463
198.402	25.069	924.049	737.746
199.417	25.192	923.066	737.400
200.432	24.795	922.391	735.164
201.446	24.758	921.129	733.941
202.461	24.909	920.706	734.160
203.475	23.960	919.188	728.996
204.490	23.286	917.552	724.879
205.504	24.045	918.084	728.342
206.519	24.804	917.884	731.222
207.534	24.787	918.060	731.228
208.548	25.174	917.572	732.356
209.563	25.018	916.164	730.532
210.577	25.100	915.511	730.281
211.592	25.311	915.664	731.196
212.607	25.354	914.571	730.431
213.621	25.358	914.244	730.124
214.636	25.452	913.092	729.522
215.650	25.280	912.546	728.321
216.665	25.399	912.043	728.339
217.680	25.265	911.279	727.119
218.694	24.853	910.231	724.553
219.709	24.815	909.294	723.591
220.723	25.112	909.285	724.719
221.738	25.173	908.608	724.360
222.753	25.264	907.794	724.017
223.767	25.245	907.609	723.729
224.782	25.544	907.211	724.552
225.796	25.552	906.576	724.014
226.811	24.631	905.234	719.172
227.826	24.131	903.802	715.962
228.840	24.343	903.542	716.545
229.855	24.359	902.884	716.024
230.869	23.949	901.826	713.476
231.884	24.375	901.897	715.178
232.899	25.207	901.493	718.126
233.913	25.057	900.928	717.011
234.928	25.001	900.512	716.395
235.942	25.043	899.549	715.732
236.957	24.614	899.157	713.643
237.972	24.715	898.549	713.502
238.986	24.797	897.917	713.261
240.001	24.776	897.547	712.823
241.015	24.945	896.783	712.824
242.030	25.166	896.226	713.198
243.045	25.149	896.025	712.908
244.059	25.156	895.688	712.605
245.074	24.936	894.681	710.865
246.088	24.795	893.240	709.100
247.103	24.966	893.569	709.975
248.117	25.664	893.394	712.541
249.132	25.868	892.932	712.917
250.147	25.922	892.505	712.724
251.161	26.064	891.973	712.799
252.176	25.974	891.425	711.943
253.190	26.029	891.079	711.820
254.205	26.200	890.597	712.045
255.220	26.110	889.741	710.945
256.234	26.039	889.200	710.168
257.249	25.953	888.055	708.852
258.263	26.040	887.573	708.746
259.278	26.123	886.579	708.216
260.293	26.038	886.190	707.512
261.307	25.861	885.740	706.394
262.322	25.877	884.911	705.734
263.336	25.001	882.895	700.639
264.351	23.851	881.298	694.817
265.366	24.046	881.206	695.444
266.380	25.228	881.801	700.473
267.395	25.698	881.205	701.769
268.409	25.666	880.418	700.957
269.424	25.757	880.267	701.128
270.439	25.798	878.947	700.175
271.453	25.906	878.801	700.416
272.468	26.027	878.695	700.739
273.482	26.143	878.287	700.804
274.497	25.720	876.999	698.074
275.512	25.224	876.327	695.554
276.526	25.836	875.969	697.580
277.541	25.927	875.562	697.544
278.555	25.706	874.892	696.095
279.570	25.474	874.230	694.611
280.585	25.664	873.955	695.063
281.599	25.691	872.675	694.090
282.614	24.961	871.886	690.586
283.628	25.083	870.894	690.207
284.643	25.506	870.710	691.631
285.657	25.081	869.703	689.135
286.672	24.824	868.516	687.147
287.687	25.446	868.662	689.588
288.701	25.381	868.280	688.976
289.716	25.112	867.433	687.213
290.730	25.059	866.854	686.490
291.745	24.663	866.125	684.335
292.760	25.081	865.753	685.581
293.774	26.100	865.953	689.575
294.789	26.349	865.938	690.453
295.803	26.456	864.989	690.043
296.818	26.404	864.828	689.656
297.833	26.035	863.482	687.114
298.847	25.735	862.829	685.391
299.862	26.216	862.812	687.149
300.876	26.415	862.537	687.625
301.891	26.258	862.012	686.550
302.906	25.892	860.613	683.987
303.920	26.157	860.196	684.598
304.935	26.448	860.208	685.653
305.949	26.252	859.557	684.329
306.964	26.099	858.544	682.884
307.979	26.055	858.651	682.740
308.993	26.441	858.314	683.873
310.008	26.497	857.423	683.314
311.022	26.269	856.696	681.812
312.037	26.073	855.911	680.388
313.052	25.780	855.075	678.563
314.066	24.986	853.556	674.308
315.081	24.674	852.943	672.592
316.095	25.523	853.451	676.127
317.110	25.966	853.445	677.728
318.125	25.158	851.612	673.181
319.139	24.064	850.205	667.905
320.154	24.078	850.060	667.785
321.168	25.109	850.214	671.714
322.183	25.713	850.383	674.050
323.197	25.974	849.763	674.477
324.212	26.133	849.762	675.010
325.227	26.167	849.072	674.528
326.241	25.975	848.466	673.271
327.256	25.915	847.588	672.291
328.270	25.865	846.796	671.415
329.285	25.694	846.062	670.137
330.300	25.450	845.378	668.629
331.314	25.834	844.991	669.691
332.329	26.243	845.273	671.375
333.343	26.251	844.789	670.962
334.358	26.076	844.515	670.034
335.373	26.178	844.474	670.322
336.387	26.519	844.071	671.209
337.402	26.696	843.739	671.541
338.416	26.512	843.438	670.559
339.431	26.794	843.139	671.308
340.446	26.876	842.952	671.404
341.460	26.689	842.284	670.121
342.475	26.561	841.650	669.083
343.489	26.673	841.386	669.228
344.504	27.060	840.856	670.174
345.519	27.051	841.133	670.305
346.533	27.039	840.476	669.677
347.548	26.940	839.855	668.756
348.562	26.963	839.231	668.285
349.577	26.874	838.895	667.634
350.592	26.776	838.190	666.652
351.606	26.819	837.347	666.080
352.621	26.858	836.260	665.301
353.635	26.807	835.210	664.219
354.650	26.001	834.101	660.329
355.665	25.151	832.506	655.900
356.679	25.566	832.429	657.299
357.694	26.065	832.081	658.786
358.708	25.974	831.615	658.029
359.723	26.372	831.788	659.560
360.738	26.630	831.106	659.902
361.752	26.647	831.002	659.823
362.767	26.915	830.538	660.371
363.781	27.239	830.163	661.189
364.796	27.342	829.641	661.090
365.810	27.421	829.383	661.115
366.825	27.362	828.863	660.426
367.840	27.153	828.039	658.955
368.854	26.578	826.886	655.895
369.869	26.607	826.781	655.860
370.883	26.704	826.172	655.670
371.898	26.656	825.991	655.295
372.913	26.886	825.440	655.631
373.927	26.795	825.125	654.996
374.942	26.921	824.651	655.013
375.956	27.202	824.200	655.612
376.971	27.284	823.590	655.364
377.986	27.437	823.313	655.638
379.000	27.245	822.903	654.559
380.015	27.183	822.385	653.869
381.029	27.161	821.905	653.348
382.044	27.265	821.451	653.304
383.059	27.405	821.052	653.432
384.073	27.348	820.473	652.708
385.088	27.256	819.681	651.693
386.102	27.110	818.934	650.517
387.117	27.192	818.119	650.106
388.132	26.667	816.907	647.210
389.146	26.360	815.954	645.303
390.161	26.852	816.150	647.157
391.175	27.137	816.105	648.080
392.190	26.800	814.604	645.631
393.205	25.493	812.432	639.207
394.219	23.843	811.019	632.174
395.234	23.746	810.890	631.675
396.248	25.432	812.476	638.856
397.263	26.940	813.247	644.766
398.278	26.805	812.931	643.982
399.292	26.584	811.784	642.232
400.307	26.683	811.395	642.217
401.321	26.676	811.386	642.127
402.336	27.162	811.080	643.549
403.350	27.623	811.090	645.132
404.365	27.887	811.010	645.945
405.380	28.025	810.853	646.251
406.394	28.091	809.699	645.507
407.409	28.034	809.361	644.979
408.423	27.883	809.441	644.453
409.438	28.014	808.935	644.456
410.453	28.028	808.613	644.192
411.467	28.115	807.586	643.623
412.482	28.017	807.535	643.181
413.496	28.265	806.915	643.501
414.511	28.172	806.826	643.045
415.526	27.980	806.641	642.168
416.540	27.873	805.731	641.009
417.555	27.604	804.992	639.424
418.569	27.728	804.396	639.326
419.584	27.874	803.641	639.182
420.599	27.592	803.340	637.898
421.613	110.462	1286.617	1459.023
422.628	95.338	1357.014	1459.159
