DTS Sentinel unit serial number:	SN413079Multiplexer serial number:	ORYXHardware model number:	OX4-SRSoftware version number:	ORYX F/W v4.00 Oryx Data Collector v3.7.2.0data status	okinstallation	princeton_trtdifferential loss correction	single-endedforward channel	channel 1reverse channel	N/Adate	2019/09/11time	09:24:11forward acquisition time	60.00reverse acquisition time	0.00gamma	496.2192k internal	0.2306k external	0.2306temperature offset calibration	0.9951default loss term (dB/km)	0.3790temperature slope calibration	1.0000multiplexer offset coefficient	1.0000multiplexer slope coefficient	1.0000fibre end	0.00T internal ref (°C)	34.56T ext. ref 1 (°C)	0.10T ext. ref 2 (°C)	31.53length (m)	temperature (°C)	Stokes	anti-Stokes-747.200	270.890	0.129	-0.232
-746.185	800.000	0.143	0.476
-745.171	104.561	-0.187	0.224
-744.156	-22.223	0.348	0.214
-743.142	73.066	0.034	-0.036
-742.127	54.901	-0.247	0.243
-741.112	-75.083	0.127	0.046
-740.098	-200.000	-0.006	-0.241
-739.083	527.732	0.102	-0.245
-738.069	-77.539	-0.292	0.103
-737.054	73.948	0.151	0.161
-736.039	-200.000	0.012	-0.251
-735.025	117.367	-0.125	0.156
-734.010	-200.000	-0.066	-0.329
-732.996	-200.000	0.005	0.042
-731.981	-200.000	-0.013	-0.303
-730.966	-139.603	-0.261	-0.028
-729.952	45.106	-0.119	-0.111
-728.937	-116.592	0.080	-0.015
-727.923	12.461	0.055	-0.043
-726.908	-200.000	-0.009	0.302
-725.894	-200.000	0.056	-0.391
-724.879	-96.680	0.126	0.034
-723.864	209.736	-0.042	-0.067
-722.850	-200.000	-0.001	-0.254
-721.835	-48.144	-0.236	-0.116
-720.821	162.889	-0.058	0.083
-719.806	-131.138	-0.119	0.016
-718.791	-91.829	-0.147	-0.042
-717.777	800.000	0.034	-0.121
-716.762	-53.560	0.125	0.058
-715.748	-49.914	-0.131	0.063
-714.733	391.110	-0.016	0.034
-713.718	230.442	-0.045	0.074
-712.704	6.305	-0.077	-0.058
-711.689	-77.457	-0.175	-0.062
-710.675	84.207	-0.110	0.122
-709.660	-200.000	0.012	-0.353
-708.645	-56.355	-0.109	-0.049
-707.631	-200.000	0.006	-0.208
-706.616	-14.115	0.157	-0.103
-705.602	800.000	0.050	-0.155
-704.587	-200.000	-0.001	0.396
-703.572	-1.382	-0.021	0.015
-702.558	-200.000	-0.061	-0.470
-701.543	-36.959	-0.115	-0.063
-700.529	800.000	-0.027	-0.110
-699.514	29.797	0.082	-0.071
-698.499	-183.680	0.143	0.002
-697.485	-133.384	0.133	0.017
-696.470	-91.439	0.121	-0.035
-695.456	-120.510	-0.301	-0.052
-694.441	-200.000	-0.021	-0.332
-693.426	-8.375	-0.191	-0.131
-692.412	-122.550	0.327	0.054
-691.397	115.709	-0.184	-0.228
-690.383	800.000	-0.071	-0.202
-689.368	41.425	-0.176	-0.161
-688.354	320.654	0.195	0.376
-687.339	348.164	-0.167	0.334
-686.324	-200.000	-0.036	0.178
-685.310	-200.000	-0.017	0.128
-684.295	70.512	-0.251	-0.263
-683.281	161.968	-0.113	-0.160
-682.266	-156.349	-0.207	0.013
-681.251	-127.854	-0.357	-0.052
-680.237	284.435	-0.216	0.394
-679.222	-18.779	-0.165	0.104
-678.208	-33.990	0.363	0.202
-677.193	-0.875	-0.330	-0.237
-676.178	762.247	-0.049	-0.135
-675.164	-200.000	0.009	-0.045
-674.149	-93.697	-0.250	-0.070
-673.135	-200.000	-0.007	0.092
-672.120	221.946	-0.052	-0.085
-671.105	-200.000	0.368	-0.001
-670.091	187.379	0.060	-0.091
-669.076	297.656	-0.121	-0.225
-668.062	-200.000	0.073	-0.356
-667.047	52.750	-0.172	-0.167
-666.032	-160.676	-0.141	-0.008
-665.018	-96.007	0.048	0.013
-664.003	-200.000	0.003	0.096
-662.989	-183.684	0.417	0.007
-661.974	180.277	-0.054	0.081
-660.959	-86.119	-0.048	0.015
-659.945	158.178	-0.140	0.197
-658.930	-21.848	-0.278	0.172
-657.916	800.000	0.108	0.408
-656.901	-100.440	-0.283	0.071
-655.886	-134.480	-0.146	-0.018
-654.872	-94.834	0.352	-0.097
-653.857	465.207	-0.031	0.071
-652.843	-200.000	0.068	-0.307
-651.828	-82.203	-0.211	-0.070
-650.814	662.174	-0.100	0.262
-649.799	28.262	-0.116	0.099
-648.784	-23.892	0.327	-0.198
-647.770	-200.000	-0.007	0.293
-646.755	44.711	-0.187	-0.174
-645.741	-136.741	0.184	0.021
-644.726	344.221	0.209	-0.414
-643.711	62.621	0.230	0.233
-642.697	-5.352	0.242	0.168
-641.682	-200.000	-0.007	0.057
-640.668	496.036	-0.089	-0.208
-639.653	40.119	0.161	-0.146
-638.638	10.971	0.113	-0.087
-637.624	-100.076	-0.064	-0.016
-636.609	82.566	0.103	0.114
-635.595	800.000	0.025	0.107
-634.580	77.459	0.142	-0.153
-633.565	-99.421	-0.330	-0.084
-632.551	800.000	-0.111	0.312
-631.536	-101.303	-0.133	0.033
-630.522	-148.046	0.409	-0.034
-629.507	-200.000	-0.003	-0.046
-628.492	-120.805	-0.065	-0.011
-627.478	39.468	-0.166	-0.150
-626.463	-80.761	-0.305	-0.102
-625.449	21.350	-0.054	-0.045
-624.434	226.509	0.041	-0.068
-623.419	-147.480	-0.153	-0.013
-622.405	102.825	-0.082	0.097
-621.390	-62.791	0.195	0.082
-620.376	350.759	-0.098	-0.196
-619.361	-147.882	-0.144	0.012
-618.346	-48.498	0.129	-0.063
-617.332	-200.000	-0.023	0.102
-616.317	-5.754	-0.229	-0.159
-615.303	-96.789	-0.176	-0.047
-614.288	-91.805	0.177	-0.051
-613.273	301.940	-0.117	-0.219
-612.259	-139.158	0.182	-0.020
-611.244	-65.191	-0.174	0.071
-610.230	-122.058	0.289	-0.048
-609.215	800.000	-0.062	0.244
-608.201	-179.825	0.005	0.000
-607.186	-40.032	0.128	-0.068
-606.171	-13.578	0.222	0.145
-605.157	-15.737	-0.104	0.067
-604.142	2.509	-0.157	-0.115
-603.128	800.000	0.057	0.175
-602.113	-90.169	-0.045	-0.013
-601.098	-47.976	0.156	0.076
-600.084	640.449	-0.059	-0.151
-599.069	-200.000	0.085	-0.381
-598.055	97.143	0.142	-0.165
-597.040	-54.764	-0.241	-0.110
-596.025	325.752	0.043	-0.083
-595.011	194.978	-0.088	-0.135
-593.996	800.000	-0.077	-0.241
-592.982	135.927	-0.156	-0.206
-591.967	93.482	0.380	-0.435
-590.952	40.485	-0.181	0.165
-589.938	-200.000	0.012	0.078
-588.923	-127.208	-0.281	-0.042
-587.909	-103.456	-0.248	-0.059
-586.894	-29.156	-0.153	-0.089
-585.879	-130.120	-0.180	-0.025
-584.865	-28.922	-0.266	-0.155
-583.850	-23.273	0.181	-0.110
-582.836	-200.000	-0.041	-0.231
-581.821	-19.982	0.190	0.119
-580.806	-59.113	0.144	-0.063
-579.792	800.000	0.047	-0.146
-578.777	800.000	-0.012	-0.035
-577.763	69.896	-0.126	0.131
-576.748	16.417	-0.256	0.204
-575.733	661.205	-0.022	-0.058
-574.719	-159.631	0.616	-0.034
-573.704	393.048	-0.323	0.679
-572.690	232.290	0.109	0.181
-571.675	-121.585	-0.102	-0.017
-570.661	-37.713	0.034	0.018
-569.646	163.135	-0.026	-0.037
-568.631	66.658	0.289	0.297
-567.617	-137.241	-0.337	0.039
-566.602	-140.043	-0.356	-0.038
-565.588	62.920	-0.018	-0.019
-564.573	-106.811	-0.129	-0.029
-563.558	-200.000	-0.056	0.271
-562.544	119.388	-0.122	-0.152
-561.529	-163.431	-0.387	-0.019
-560.515	86.040	0.125	-0.139
-559.500	16.223	-0.167	0.133
-558.485	262.358	0.230	0.402
-557.471	800.000	-0.010	-0.031
-556.456	-38.393	-0.107	-0.057
-555.442	-132.737	0.477	-0.062
-554.427	-200.000	0.008	-0.174
-553.412	119.084	0.098	-0.122
-552.398	29.689	-0.141	0.121
-551.383	721.571	-0.136	0.364
-550.369	244.572	0.181	-0.306
-549.354	-200.000	-0.040	-0.218
-548.339	112.151	0.042	0.052
-547.325	56.418	-0.270	0.265
-546.310	381.943	0.150	-0.311
-545.296	-102.242	-0.266	-0.064
-544.281	-200.000	-0.080	0.366
-543.266	699.964	0.052	-0.138
-542.252	-110.298	0.295	0.062
-541.237	-100.828	0.026	0.006
-540.223	800.000	-0.045	0.136
-539.208	125.665	-0.044	-0.056
-538.193	-56.088	0.061	0.027
-537.179	271.700	-0.076	0.135
-536.164	-47.069	-0.208	0.103
-535.150	-161.688	-0.362	0.019
-534.135	-200.000	0.011	-0.219
-533.121	-47.280	0.192	0.095
-532.106	800.000	-0.007	0.030
-531.091	-53.371	0.151	0.070
-530.077	-143.101	0.180	-0.018
-529.062	-102.371	0.235	-0.057
-528.048	-30.431	0.121	-0.069
-527.033	-69.146	0.154	0.060
-526.018	-65.778	-0.324	0.131
-525.004	-29.391	0.181	0.104
-523.989	165.470	0.213	-0.303
-522.975	19.458	0.040	-0.032
-521.960	-200.000	0.026	0.244
-520.945	-31.872	0.070	0.040
-519.931	-11.185	0.306	0.204
-518.916	-37.948	-0.074	-0.040
-517.902	-74.796	-0.031	0.011
-516.887	-18.017	-0.288	0.182
-515.872	613.844	0.086	-0.217
-514.858	-123.451	-0.095	0.015
-513.843	800.000	-0.117	-0.419
-512.829	-200.000	-0.031	0.261
-511.814	-12.869	0.326	-0.214
-510.799	800.000	-0.157	-0.665
-509.785	-55.868	-0.234	0.105
-508.770	40.800	0.200	-0.182
-507.756	39.785	0.226	-0.205
-506.741	-200.000	0.029	-0.319
-505.726	206.932	-0.254	0.399
-504.712	-200.000	-0.018	0.213
-503.697	61.137	-0.071	-0.071
-502.683	-200.000	-0.140	-0.000
-501.668	-141.864	0.182	-0.018
-500.653	49.724	0.057	0.054
-499.639	-7.616	0.265	-0.180
-498.624	800.000	-0.146	-0.434
-497.610	-190.097	-0.162	-0.002
-496.595	222.538	0.107	0.173
-495.581	98.750	0.203	0.236
-494.566	-113.047	0.188	-0.037
-493.551	252.685	-0.071	-0.122
-492.537	36.022	0.177	0.157
-491.522	-71.133	0.146	0.055
-490.508	374.581	-0.023	0.047
-489.493	-41.371	0.228	-0.118
-488.478	-200.000	0.043	-0.292
-487.464	244.538	-0.054	0.091
-486.449	171.919	0.092	-0.133
-485.435	15.664	0.072	-0.057
-484.420	-12.708	0.222	-0.146
-483.405	123.252	0.054	0.068
-482.391	-27.476	0.108	0.063
-481.376	800.000	0.037	0.149
-480.362	297.657	-0.024	-0.045
-479.347	479.145	0.117	0.267
-478.332	800.000	0.059	0.168
-477.318	-122.987	0.536	-0.087
-476.303	-200.000	-0.034	-0.273
-475.289	-32.333	-0.171	-0.096
-474.274	-67.915	0.278	0.109
-473.259	-50.341	0.238	-0.113
-472.245	2.596	0.148	-0.108
-471.230	42.426	-0.338	0.309
-470.216	-200.000	-0.035	0.157
-469.201	-105.751	0.249	0.057
-468.186	-199.941	0.110	0.001
-467.172	-148.137	-0.201	0.017
-466.157	262.720	-0.057	0.099
-465.143	-200.000	-0.025	-0.336
-464.128	52.132	0.237	-0.227
-463.113	-108.652	0.328	-0.071
-462.099	-60.263	-0.172	-0.074
-461.084	-30.100	-0.251	-0.144
-460.070	-24.765	0.133	-0.080
-459.055	-12.105	-0.240	-0.158
-458.040	20.246	-0.275	-0.224
-457.026	51.270	-0.079	0.076
-456.011	-98.433	0.060	-0.015
-454.997	150.149	0.084	0.115
-453.982	-24.452	0.245	-0.147
-452.968	-60.165	0.081	-0.035
-451.953	18.558	-0.043	0.035
-450.938	-62.792	-0.119	0.049
-449.924	140.922	0.134	-0.179
-448.909	-200.000	-0.029	0.214
-447.895	-58.946	-0.120	-0.052
-446.880	258.267	-0.102	0.177
-445.865	-200.000	-0.016	0.227
-444.851	68.859	0.267	-0.276
-443.836	-200.000	-0.018	0.082
-442.822	-21.378	0.085	-0.052
-441.807	-38.351	0.140	-0.074
-440.792	-48.878	0.383	-0.185
-439.778	800.000	0.064	-0.196
-438.763	-48.887	0.243	0.117
-437.749	-74.279	-0.149	-0.054
-436.734	77.909	-0.098	-0.105
-435.719	800.000	0.024	-0.078
-434.705	800.000	-0.060	0.263
-433.690	771.273	-0.052	-0.142
-432.676	800.000	-0.104	0.298
-431.661	115.508	0.126	0.155
-430.646	5.367	-0.101	0.075
-429.632	800.000	-0.022	0.074
-428.617	-200.000	0.027	-0.317
-427.603	-200.000	0.062	0.406
-426.588	68.805	-0.108	0.111
-425.573	-18.319	-0.275	-0.173
-424.559	-200.000	-0.011	-0.262
-423.544	-117.045	-0.350	-0.064
-422.530	-200.000	-0.056	-0.394
-421.515	108.465	0.090	-0.108
-420.500	-155.965	0.068	-0.004
-419.486	-200.000	-0.013	0.282
-418.471	800.000	0.066	-0.237
-417.457	-142.107	0.197	-0.020
-416.442	-12.111	-0.079	0.052
-415.428	-99.554	-0.173	0.044
-414.413	-3.777	0.181	-0.126
-413.398	-32.874	0.169	0.094
-412.384	-96.312	0.131	-0.035
-411.369	171.440	0.207	-0.298
-410.355	800.000	-0.050	0.179
-409.340	-200.000	-0.043	-0.200
-408.325	149.222	-0.186	-0.253
-407.311	157.040	0.093	-0.129
-406.296	37.903	0.178	0.159
-405.282	-123.535	-0.290	0.046
-404.267	53.415	0.198	0.191
-403.252	-69.428	-0.318	0.122
-402.238	376.039	0.116	-0.238
-401.223	513.185	0.018	-0.043
-400.209	-200.000	0.048	0.246
-399.194	10.140	0.204	0.156
-398.179	-78.331	0.265	-0.091
-397.165	-200.000	-0.077	0.354
-396.150	-24.749	0.176	0.105
-395.136	-54.575	-0.280	0.127
-394.121	-161.369	-0.330	-0.017
-393.106	-47.258	-0.127	-0.062
-392.092	800.000	-0.061	0.241
-391.077	800.000	0.108	0.344
-390.063	-48.027	-0.210	-0.102
-389.048	395.434	0.117	0.244
-388.033	-121.083	0.137	0.023
-387.019	342.949	0.175	0.344
-386.004	41.274	-0.180	-0.163
-384.990	-121.578	-0.370	-0.062
-383.975	-58.338	-0.134	0.059
-382.960	-200.000	-0.011	0.060
-381.946	-151.248	0.193	-0.014
-380.931	-94.949	-0.336	-0.091
-379.917	-109.314	0.096	0.020
-378.902	312.138	-0.069	0.130
-377.888	-32.594	-0.045	0.025
-376.873	800.000	0.174	-0.629
-375.858	-200.000	0.006	-0.076
-374.844	-200.000	-0.036	0.165
-373.829	-99.255	0.234	-0.059
-372.815	475.896	-0.035	-0.079
-371.800	504.377	0.007	0.017
-370.785	-21.800	-0.029	0.018
-369.771	-200.000	-0.026	0.297
-368.756	800.000	-0.063	-0.231
-367.742	27.365	0.322	-0.271
-366.727	-154.319	-0.371	0.025
-365.712	-118.152	-0.145	-0.026
-364.698	-91.929	0.369	0.105
-363.683	99.515	-0.256	-0.297
-362.669	-47.703	0.226	0.110
-361.654	125.988	-0.167	0.211
-360.639	101.646	0.112	0.131
-359.625	169.951	-0.202	0.289
-358.610	175.952	-0.195	0.283
-357.596	-200.000	-0.024	-0.209
-356.581	83.630	0.438	0.478
-355.566	-9.108	-0.169	0.114
-354.552	-53.874	0.170	-0.078
-353.537	43.695	-0.052	0.048
-352.523	-11.870	-0.199	-0.131
-351.508	4.304	0.124	-0.091
-350.493	293.939	-0.099	0.182
-349.479	-200.000	0.018	0.349
-348.464	-62.360	-0.266	-0.111
-347.450	307.534	0.094	0.176
-346.435	51.101	0.183	-0.174
-345.420	29.944	0.282	0.241
-344.406	48.809	0.040	0.038
-343.391	800.000	0.068	0.244
-342.377	595.825	0.031	0.077
-341.362	-4.868	-0.195	0.135
-340.348	-196.517	0.116	-0.001
-339.333	418.212	0.084	0.181
-338.318	-200.000	-0.008	-0.206
-337.304	-34.136	0.124	-0.068
-336.289	800.000	-0.050	0.175
-335.275	800.000	-0.066	0.199
-334.260	-73.356	-0.546	-0.200
-333.245	-76.966	0.113	0.040
-332.231	800.000	-0.091	0.310
-331.216	-129.489	0.196	0.027
-330.202	53.379	-0.185	-0.178
-329.187	800.000	-0.079	0.292
-328.172	282.637	0.075	-0.135
-327.158	138.293	-0.098	-0.129
-326.143	323.235	0.043	0.081
-325.129	-197.612	-0.452	0.003
-324.114	-200.000	0.032	-0.225
-323.099	-200.000	0.023	0.115
-322.085	677.940	-0.060	-0.156
-321.070	248.420	-0.091	0.154
-320.056	-200.000	0.054	-0.311
-319.041	354.345	-0.081	-0.161
-318.026	-13.392	-0.219	-0.142
-317.012	-152.296	0.345	0.025
-315.997	91.114	-0.268	0.301
-314.983	-200.000	0.042	0.239
-313.968	-200.000	0.008	-0.169
-312.953	27.596	-0.223	-0.188
-311.939	-200.000	0.012	0.054
-310.924	150.852	-0.174	-0.236
-309.910	-156.751	0.030	-0.002
-308.895	-200.000	0.001	0.242
-307.880	-67.182	-0.141	-0.056
-306.866	31.600	-0.119	0.102
-305.851	-161.716	0.225	-0.011
-304.837	-200.000	-0.029	0.261
-303.822	-44.757	-0.286	0.143
-302.807	187.862	-0.037	0.055
-301.793	-182.846	0.163	0.003
-300.778	30.459	-0.177	0.151
-299.764	800.000	-0.040	-0.121
-298.749	155.365	-0.261	-0.359
-297.735	-36.456	0.275	0.148
-296.720	-200.000	0.011	0.089
-295.705	-49.328	-0.114	-0.055
-294.691	-200.000	0.068	0.328
-293.676	-141.727	-0.240	-0.024
-292.662	-5.464	0.209	0.143
-291.647	69.434	-0.033	-0.034
-290.632	800.000	0.026	0.078
-289.618	-43.346	0.132	0.067
-288.603	-200.000	-0.016	-0.080
-287.589	56.944	0.210	0.205
-286.574	-66.547	-0.499	0.198
-285.559	-92.414	-0.095	0.027
-284.545	-118.629	-0.067	0.012
-283.530	-42.355	-0.095	-0.049
-282.516	105.306	-0.164	-0.193
-281.501	-15.992	-0.231	0.147
-280.486	21.083	0.240	-0.195
-279.472	571.251	-0.064	0.156
-278.457	50.059	-0.272	0.257
-277.443	35.535	-0.180	0.158
-276.428	-51.995	-0.239	-0.111
-275.413	-200.000	0.026	0.115
-274.399	48.988	0.191	0.179
-273.384	-167.972	-0.312	-0.012
-272.370	-200.000	-0.059	0.319
-271.355	-151.377	0.454	-0.034
-270.340	800.000	0.020	0.066
-269.326	-200.000	0.044	-0.292
-268.311	88.101	-0.049	-0.054
-267.297	-27.167	0.068	-0.040
-266.282	-200.000	0.020	-0.107
-265.267	77.002	-0.100	0.107
-264.253	-1.793	0.333	-0.234
-263.238	184.275	0.111	0.165
-262.224	-49.079	-0.489	0.233
-261.209	-200.000	0.038	0.187
-260.195	13.809	0.274	0.212
-259.180	-144.769	-0.145	0.013
-258.165	19.358	-0.101	0.081
-257.151	-69.735	0.173	-0.066
-256.136	-102.523	0.235	0.056
-255.122	-200.000	-0.000	-0.006
-254.107	800.000	0.128	-0.376
-253.092	-113.172	-0.081	0.016
-252.078	800.000	-0.083	0.253
-251.063	-200.000	0.222	0.001
-250.049	189.899	0.136	-0.203
-249.034	800.000	-0.032	-0.103
-248.019	-34.594	-0.148	0.081
-247.005	-200.000	-0.024	-0.136
-245.990	32.986	0.223	-0.192
-244.976	365.073	-0.078	-0.156
-243.961	75.734	-0.211	0.223
-242.946	-114.273	0.328	-0.063
-241.932	-96.132	0.357	-0.094
-240.917	-61.800	-0.099	-0.041
-239.903	-200.000	-0.090	-0.404
-238.888	11.174	0.118	-0.090
-237.873	-65.751	0.191	0.076
-236.859	800.000	0.018	0.072
-235.844	-68.158	0.067	-0.026
-234.830	158.622	-0.121	-0.168
-233.815	98.272	0.089	-0.102
-232.800	-141.544	-0.362	-0.036
-231.786	306.821	-0.080	-0.149
-230.771	-72.296	0.246	-0.091
-229.757	48.158	0.081	-0.075
-228.742	800.000	-0.039	-0.113
-227.727	787.237	0.026	-0.070
-226.713	-100.526	0.150	0.037
-225.698	165.462	0.283	0.399
-224.684	112.797	-0.102	0.123
-223.669	-200.000	-0.006	0.061
-222.655	20.058	-0.231	-0.185
-221.640	-200.000	0.016	-0.289
-220.625	-124.318	-0.352	0.055
-219.611	-200.000	0.039	-0.243
-218.596	-145.834	-0.093	0.008
-217.582	222.674	-0.077	-0.123
-216.567	-36.437	-0.115	-0.062
-215.552	-200.000	-0.071	0.477
-214.538	164.132	-0.271	0.380
-213.523	89.519	-0.187	-0.208
-212.509	610.453	0.097	0.242
-211.494	-56.522	-0.179	-0.079
-210.479	-200.000	-0.004	-0.133
-209.465	95.503	0.215	-0.245
-208.450	185.587	0.079	-0.116
-207.436	-156.577	-0.100	0.006
-206.421	800.000	0.092	0.286
-205.406	229.381	0.085	-0.138
-204.392	-134.307	0.172	0.021
-203.377	800.000	0.044	-0.131
-202.363	-200.000	-0.002	0.258
-201.348	-200.000	0.439	-0.000
-200.333	-20.484	-0.408	0.250
-199.319	-42.867	0.303	0.153
-198.304	-114.074	0.113	-0.022
-197.290	-83.756	-0.075	0.024
-196.275	-2.376	-0.264	-0.184
-195.260	-24.629	-0.249	-0.147
-194.246	78.941	-0.065	0.069
-193.231	-198.082	-0.285	-0.002
-192.217	-200.000	0.024	0.174
-191.202	-46.048	-0.231	-0.113
-190.187	-200.000	0.345	0.001
-189.173	-157.202	0.159	0.010
-188.158	83.491	0.095	-0.103
-187.144	204.357	0.011	-0.017
-186.129	-22.392	0.288	0.173
-185.114	107.779	-0.122	0.145
-184.100	800.000	0.067	-0.228
-183.085	-85.330	-0.120	-0.037
-182.071	147.640	0.152	-0.204
-181.056	-9.397	0.110	-0.073
-180.042	-48.007	0.152	0.073
-179.027	8.009	-0.161	0.120
-178.012	-200.000	0.004	0.197
-176.998	800.000	0.076	-0.268
-175.983	75.891	-0.217	0.228
-174.969	22.918	-0.087	-0.071
-173.954	90.214	0.103	0.114
-172.939	-200.000	-0.004	-0.125
-171.925	60.646	0.008	-0.008
-170.910	22.362	0.091	0.074
-169.896	330.533	0.134	0.257
-168.881	-100.826	0.203	-0.050
-167.866	-66.029	-0.121	-0.048
-166.852	71.135	-0.138	0.142
-165.837	-55.475	-0.287	-0.128
-164.823	800.000	-0.091	0.338
-163.808	267.049	0.215	0.374
-162.793	481.406	-0.145	-0.326
-161.779	-71.591	0.208	0.077
-160.764	313.655	-0.193	-0.360
-159.750	33.584	0.231	-0.200
-158.735	-200.000	-0.014	-0.082
-157.720	-33.605	0.451	0.247
-156.706	800.000	-0.053	-0.199
-155.691	-159.124	0.132	0.007
-154.677	361.041	0.040	0.080
-153.662	-136.633	-0.171	0.020
-152.647	358.798	-0.133	-0.264
-151.633	-45.844	-0.197	0.096
-150.618	-77.146	-0.410	0.142
-149.604	-200.000	-0.031	0.334
-148.589	-87.870	0.501	0.150
-147.574	-92.985	-0.168	0.047
-146.560	-82.434	0.097	0.031
-145.545	170.422	0.166	-0.236
-144.531	-200.000	-0.023	0.161
-143.516	-44.412	0.382	0.190
-142.502	9.184	0.144	0.108
-141.487	153.301	0.163	-0.221
-140.472	42.351	-0.147	-0.132
-139.458	-200.000	-0.065	0.430
-138.443	800.000	0.030	0.100
-137.429	219.909	0.150	-0.238
-136.414	-200.000	0.004	-0.181
-135.399	566.723	-0.016	0.038
-134.385	524.706	-0.119	0.277
-133.370	260.062	-0.178	-0.306
-132.356	563.918	-0.076	-0.184
-131.341	-8.356	-0.283	0.189
-130.326	-44.356	0.268	0.133
-129.312	55.612	0.157	0.151
-128.297	-8.425	0.099	-0.066
-127.283	-138.278	0.123	0.013
-126.268	-77.347	0.292	0.101
-125.253	44.657	-0.125	0.114
-124.239	-200.000	-0.036	0.265
-123.224	56.182	0.187	0.180
-122.210	69.217	-0.144	-0.147
-121.195	75.825	-0.100	-0.105
-120.180	-200.000	0.012	0.125
-119.166	-110.060	-0.054	0.011
-118.151	-200.000	-0.020	-0.334
-117.137	-200.000	0.042	-0.374
-116.122	-52.902	-0.168	-0.077
-115.107	-69.248	-0.125	-0.048
-114.093	85.938	-0.190	-0.207
-113.078	188.129	-0.126	-0.188
-112.064	331.857	0.014	-0.026
-111.049	-95.429	0.259	-0.069
-110.034	-125.321	-0.130	-0.020
-109.020	147.169	0.081	0.109
-108.005	-25.690	0.095	0.056
-106.991	-61.411	-0.127	0.053
-105.976	-70.132	-0.122	0.046
-104.962	-200.000	-0.015	0.224
-103.947	381.361	0.227	0.462
-102.932	-64.303	-0.159	0.064
-101.918	-200.000	-0.038	0.419
-100.903	716.520	0.021	0.055
-99.889	-200.000	-0.024	0.345
-98.874	-200.000	-0.065	0.428
-97.859	-200.000	-0.057	-0.257
-96.845	-200.000	-0.021	-0.222
-95.830	72.351	-0.135	-0.139
-94.816	-200.000	0.023	-0.434
-93.801	800.000	0.089	-0.272
-92.786	-200.000	-0.008	-0.193
-91.772	69.803	-0.139	0.142
-90.757	-1.832	0.348	-0.243
-89.743	-33.512	0.081	0.045
-88.728	618.475	-0.088	-0.220
-87.713	-35.502	0.131	-0.070
-86.699	-83.234	0.208	-0.066
-85.684	-177.414	0.273	0.007
-84.670	-105.035	0.127	-0.029
-83.655	-108.357	-0.258	-0.055
-82.640	16.577	0.169	0.132
-81.626	290.310	0.064	-0.115
-80.611	48.668	0.238	0.221
-79.597	-200.000	-0.017	-0.176
-78.582	35.706	-0.169	0.147
-77.567	-200.000	0.086	-0.409
-76.553	800.000	0.050	0.163
-75.538	54.389	0.113	-0.108
-74.524	-161.340	-0.412	-0.021
-73.509	-57.452	-0.328	-0.143
-72.494	-200.000	0.019	0.107
-71.480	-200.000	-0.051	0.245
-70.465	-55.890	-0.454	-0.201
-69.451	800.000	-0.170	0.474
-68.436	45.570	-0.067	0.061
-67.422	-154.485	-0.129	0.009
-66.407	-200.000	-0.007	-0.074
-65.392	-124.066	0.543	-0.085
-64.378	-132.266	-0.180	0.023
-63.363	-129.044	-0.269	-0.037
-62.349	-92.881	0.286	0.079
-61.334	52.044	-0.996	-0.940
-60.319	562.471	0.273	0.653
-59.305	-200.000	0.067	-0.607
-58.290	-7.717	0.935	0.625
-57.276	596.683	0.612	1.501
-56.261	-200.000	94.868	522.396
-55.246	561.662	1377.470	3297.928
-54.232	184.428	2617.262	3838.551
-53.217	116.786	2204.621	2678.790
-52.203	46.070	1651.899	1514.047
-51.188	38.124	1384.114	1219.207
-50.173	34.772	1341.461	1161.256
-49.159	54.404	1390.665	1325.879
-48.144	58.369	1408.325	1367.209
-47.130	38.352	1362.244	1201.150
-46.115	34.704	1344.891	1163.629
-45.100	34.569	1340.054	1158.581
-44.086	34.385	1337.868	1155.527
-43.071	34.430	1335.098	1153.363
-42.057	34.417	1332.819	1151.269
-41.042	34.459	1331.210	1150.084
-40.027	34.480	1329.554	1148.734
-39.013	34.499	1327.840	1147.324
-37.998	34.460	1325.743	1145.230
-36.984	34.665	1323.593	1144.558
-35.969	34.669	1321.741	1142.936
-34.954	34.580	1320.364	1141.167
-33.940	34.662	1319.090	1140.511
-32.925	34.729	1317.688	1139.654
-31.911	34.536	1316.255	1137.219
-30.896	34.562	1315.271	1136.476
-29.881	34.654	1313.458	1135.412
-28.867	34.724	1312.019	1134.538
-27.852	34.652	1310.464	1132.722
-26.838	34.787	1309.008	1132.222
-25.823	34.765	1307.372	1130.628
-24.809	34.645	1305.914	1128.612
-23.794	34.667	1304.578	1127.542
-22.779	34.659	1303.467	1126.493
-21.765	34.509	1302.716	1124.912
-20.750	34.647	1300.611	1123.867
-19.736	34.613	1298.999	1122.231
-18.721	34.427	1298.426	1120.594
-17.706	34.484	1297.202	1119.831
-16.692	34.579	1295.472	1118.849
-15.677	34.520	1294.821	1117.898
-14.663	34.419	1293.742	1116.327
-13.648	34.531	1292.392	1115.772
-12.633	34.472	1291.213	1114.370
-11.619	34.479	1290.367	1113.633
-10.604	34.520	1289.899	1113.425
-9.590	34.424	1288.880	1111.942
-8.575	34.430	1287.680	1110.896
-7.560	34.410	1286.943	1110.102
-6.546	34.475	1285.994	1109.614
-5.531	34.494	1284.970	1108.802
-4.517	34.549	1283.780	1108.046
-3.502	34.548	1282.850	1107.193
-2.487	34.405	1282.121	1105.690
-1.473	34.630	1278.097	1103.477
-0.458	33.533	1263.413	1084.487
0.556	28.412	1246.340	1047.485
1.571	25.150	1250.899	1032.479
2.586	24.422	1266.238	1040.800
3.600	23.272	1254.710	1024.585
4.615	16.199	1177.409	922.832
5.629	4.977	1097.278	802.458
6.644	0.476	1075.169	763.482
7.659	0.044	1072.573	759.388
8.673	-0.141	1071.550	757.666
9.688	0.012	1069.659	757.028
10.702	0.429	1068.847	758.488
11.717	7.215	1078.769	799.813
12.731	17.321	1093.693	862.301
13.746	21.629	1097.894	887.418
14.761	22.019	1098.861	890.099
15.775	21.987	1098.042	889.192
16.790	21.755	1097.140	887.211
17.804	21.673	1096.594	886.275
18.819	21.800	1096.276	886.583
19.834	21.897	1095.665	886.501
20.848	21.797	1095.392	885.696
21.863	21.856	1094.654	885.318
22.877	21.746	1094.451	884.523
23.892	21.773	1093.521	883.828
24.907	21.898	1092.479	883.537
25.921	21.782	1091.863	882.380
26.936	21.856	1090.194	881.324
27.950	21.766	1088.657	879.551
28.965	21.560	1086.957	877.067
29.980	21.709	1085.293	876.393
30.994	21.858	1084.458	876.385
32.009	21.856	1083.161	875.247
33.023	21.747	1081.367	873.180
34.038	21.679	1081.345	872.746
35.053	21.884	1080.482	872.990
36.067	21.945	1079.720	872.602
37.082	21.926	1079.087	871.918
38.096	22.168	1077.996	872.161
39.111	22.103	1077.298	871.198
40.126	22.031	1075.757	869.516
41.140	21.664	1073.942	866.160
42.155	21.419	1072.806	863.958
43.169	21.437	1071.916	863.251
44.184	21.454	1070.738	862.308
45.199	21.450	1069.707	861.383
46.213	21.427	1068.483	860.211
47.228	21.484	1068.185	860.171
48.242	21.744	1066.709	860.186
49.257	21.803	1066.005	859.831
50.271	21.816	1065.570	859.467
51.286	21.840	1064.749	858.846
52.301	21.931	1063.255	858.010
53.315	21.871	1062.418	856.966
54.330	21.902	1060.950	855.857
55.344	21.869	1060.485	855.247
56.359	21.802	1059.849	854.333
57.374	21.461	1059.104	851.994
58.388	21.590	1057.960	851.627
59.403	21.593	1057.036	850.822
60.417	21.437	1056.244	849.351
61.432	21.478	1055.888	849.189
62.447	21.731	1054.694	849.379
63.461	21.737	1053.654	848.494
64.476	21.480	1053.021	846.669
65.490	21.408	1052.003	845.427
66.505	21.744	1050.822	846.024
67.520	21.628	1050.558	845.178
68.534	21.416	1049.442	843.184
69.549	21.097	1048.324	840.675
70.563	21.259	1047.371	840.615
71.578	21.140	1046.438	839.219
72.593	21.084	1045.502	838.124
73.607	21.101	1045.204	837.891
74.622	21.383	1045.143	839.124
75.636	21.456	1044.018	838.494
76.651	21.344	1042.860	836.954
77.666	21.171	1042.219	835.539
78.680	21.288	1041.736	835.638
79.695	21.365	1041.230	835.527
80.709	21.438	1040.375	835.115
81.724	21.313	1039.631	833.847
82.739	21.497	1038.889	834.057
83.753	21.759	1038.254	834.720
84.768	22.085	1037.370	835.488
85.782	22.234	1036.308	835.263
86.797	22.006	1035.366	833.352
87.812	21.969	1034.582	832.469
88.826	22.026	1033.431	831.737
89.841	22.104	1032.376	831.187
90.855	22.007	1031.190	829.699
91.870	22.010	1030.389	828.997
92.884	21.952	1029.088	827.604
93.899	21.950	1028.102	826.727
94.914	22.085	1027.768	827.021
95.928	21.866	1026.573	824.954
96.943	21.639	1025.214	822.723
97.957	21.418	1024.002	820.641
98.972	21.268	1022.967	819.038
99.987	21.526	1022.557	819.844
101.001	21.762	1021.229	819.812
102.016	21.715	1020.724	819.115
103.030	21.674	1019.668	818.004
104.045	21.567	1018.681	816.640
105.060	21.349	1017.675	814.743
106.074	21.605	1017.328	815.589
107.089	21.914	1016.661	816.417
108.103	21.850	1015.375	815.016
109.118	21.621	1014.086	812.847
110.133	21.585	1013.432	812.083
111.147	21.505	1011.656	810.218
112.162	21.348	1010.529	808.517
113.176	21.513	1010.274	809.005
114.191	21.441	1009.070	807.639
115.206	21.151	1008.317	805.622
116.220	20.981	1007.613	804.207
117.235	21.241	1006.428	804.385
118.249	21.152	1005.658	803.289
119.264	21.172	1004.614	802.477
120.279	21.248	1004.088	802.338
121.293	21.350	1002.839	801.735
122.308	21.355	1002.131	801.119
123.322	21.287	1001.064	799.885
124.337	21.156	999.416	797.900
125.352	20.700	997.736	794.407
126.366	20.553	996.977	793.062
127.381	21.410	996.876	796.818
128.395	21.618	996.566	797.449
129.410	21.808	995.760	797.598
130.424	21.830	993.993	796.211
131.439	21.735	993.486	795.305
132.454	21.605	992.777	794.076
133.468	21.763	991.123	793.399
134.483	21.854	990.508	793.248
135.497	21.919	990.431	793.407
136.512	22.096	989.016	793.003
137.527	21.990	988.282	791.868
138.541	22.019	987.771	791.516
139.556	22.064	986.625	790.733
140.570	22.012	986.235	790.117
141.585	22.168	984.744	789.552
142.600	22.016	983.633	787.908
143.614	22.281	983.135	788.630
144.629	22.284	982.706	788.230
145.643	21.946	981.418	785.612
146.658	22.021	979.666	784.476
147.673	21.972	978.405	783.176
148.687	21.846	977.993	782.215
149.702	21.771	976.193	780.377
150.716	21.859	975.080	779.807
151.731	21.849	975.112	779.721
152.746	22.197	974.261	780.513
153.760	22.186	973.501	779.787
154.775	22.216	973.038	779.480
155.789	22.239	972.337	778.954
156.804	22.180	970.938	777.500
157.819	22.230	970.330	777.169
158.833	22.352	969.503	776.978
159.848	22.319	968.655	776.080
160.862	22.199	967.599	774.640
161.877	22.082	966.633	773.280
162.892	22.246	965.798	773.268
163.906	22.313	963.741	771.844
164.921	22.103	963.889	770.972
165.935	22.244	962.757	770.617
166.950	22.168	961.963	769.581
167.964	22.131	960.918	768.517
168.979	22.079	959.909	767.413
169.994	22.009	959.152	766.436
171.008	22.190	958.608	766.723
172.023	22.210	957.414	765.787
173.037	22.053	956.548	764.341
174.052	21.959	955.498	763.029
175.067	22.088	954.275	762.544
176.081	21.959	954.332	761.959
177.096	22.044	953.153	761.321
178.110	21.708	952.271	759.092
179.125	21.452	952.352	757.981
180.140	21.585	951.539	757.842
181.154	21.715	951.191	758.061
182.169	22.073	951.149	759.509
183.183	22.189	950.519	759.438
184.198	22.151	949.847	758.673
185.213	22.037	948.970	757.411
186.227	22.245	948.291	757.702
187.242	22.165	947.228	756.440
188.256	22.224	946.881	756.349
189.271	22.272	946.125	755.884
190.286	22.096	944.866	754.057
191.300	21.382	943.727	750.019
192.315	20.603	942.121	745.340
193.329	20.670	941.815	745.317
194.344	21.662	941.738	749.438
195.359	21.944	942.008	750.791
196.373	22.071	941.340	750.738
197.388	21.957	940.674	749.652
198.402	22.105	939.771	749.497
199.417	22.035	939.420	748.851
200.432	21.782	938.459	746.945
201.446	21.460	937.800	744.983
202.461	21.606	937.315	745.150
203.475	20.867	934.931	740.054
204.490	20.203	933.678	736.177
205.504	20.982	934.357	739.957
206.519	21.636	934.281	742.602
207.534	21.657	933.451	741.967
208.548	22.172	933.443	744.078
209.563	21.949	932.666	742.449
210.577	21.976	931.569	741.623
211.592	22.227	931.500	742.560
212.607	22.343	930.598	742.268
213.621	22.374	929.644	741.572
214.636	22.215	928.880	740.227
215.650	22.233	927.967	739.509
216.665	22.289	927.964	739.676
217.680	22.269	926.736	738.548
218.694	21.922	925.268	735.860
219.709	21.596	925.208	734.380
220.723	22.042	924.441	735.573
221.738	22.063	924.068	735.298
222.753	22.077	923.401	734.763
223.767	22.054	922.890	734.196
224.782	22.258	923.082	735.134
225.796	22.350	922.016	734.604
226.811	21.793	920.569	731.064
227.826	21.149	919.238	727.259
228.840	21.227	918.610	727.026
229.855	21.388	918.261	727.354
230.869	20.900	917.358	724.545
231.884	21.407	917.368	726.598
232.899	22.056	917.087	729.005
233.913	22.034	916.292	728.218
234.928	22.148	915.517	728.009
235.942	21.968	914.891	726.703
236.957	21.670	914.149	724.817
237.972	21.723	913.743	724.649
238.986	21.741	913.195	724.223
240.001	21.807	912.006	723.490
241.015	21.954	911.702	723.789
242.030	22.088	911.414	724.049
243.045	22.141	910.848	723.754
244.059	22.253	910.124	723.578
245.074	22.066	909.299	722.086
246.088	21.694	908.551	719.899
247.103	21.991	908.298	720.856
248.117	22.431	908.116	722.456
249.132	22.677	907.705	723.071
250.147	22.734	907.127	722.783
251.161	22.908	906.956	723.293
252.176	22.778	906.553	722.375
253.190	22.971	905.717	722.434
254.205	23.114	905.096	722.461
255.220	23.123	904.432	721.904
256.234	22.823	903.607	719.957
257.249	22.841	902.528	719.107
258.263	22.771	902.282	718.563
259.278	22.997	901.326	718.656
260.293	23.033	900.527	718.102
261.307	22.763	900.435	716.869
262.322	22.723	898.919	715.437
263.336	21.825	897.213	710.378
264.351	20.822	894.762	704.320
265.366	21.107	894.669	705.340
266.380	22.042	895.744	709.903
267.395	22.557	895.440	711.680
268.409	22.541	894.462	710.778
269.424	22.693	893.991	710.952
270.439	22.870	893.279	711.034
271.453	22.976	892.550	710.820
272.468	23.016	892.369	710.772
273.482	23.100	891.716	710.528
274.497	22.611	890.673	707.672
275.512	22.257	889.713	705.426
276.526	22.641	889.572	706.792
277.541	22.940	889.275	707.690
278.555	22.531	888.527	705.394
279.570	22.432	887.243	703.919
280.585	22.652	886.758	704.349
281.599	22.639	885.797	703.473
282.614	21.980	884.666	699.887
283.628	22.206	884.188	700.347
284.643	22.339	884.096	700.742
285.657	21.982	883.095	698.466
286.672	21.734	882.071	696.606
287.687	22.373	881.960	698.997
288.701	22.387	881.521	698.644
289.716	21.947	880.596	696.102
290.730	22.097	879.509	695.777
291.745	21.734	878.941	693.829
292.760	22.056	878.693	694.844
293.774	22.912	879.443	698.763
294.789	23.338	879.033	700.062
295.803	23.332	878.568	699.606
296.818	23.406	877.626	699.084
297.833	22.992	876.265	696.308
298.847	22.875	875.669	695.311
299.862	23.111	875.702	696.208
300.876	23.261	875.517	696.589
301.891	23.210	874.526	695.538
302.906	22.821	873.312	692.984
303.920	22.933	873.300	693.351
304.935	23.275	872.884	694.300
305.949	23.203	872.385	693.562
306.964	22.956	871.523	691.848
307.979	23.144	871.319	692.359
308.993	23.345	870.800	692.672
310.008	23.327	870.365	692.194
311.022	23.119	869.644	690.749
312.037	22.953	869.119	689.622
313.052	22.685	868.154	687.750
314.066	21.964	866.320	683.431
315.081	21.668	865.755	681.773
316.095	22.602	865.964	685.512
317.110	22.965	865.971	686.867
318.125	22.141	864.311	682.293
319.139	21.060	863.208	677.166
320.154	21.130	862.468	676.798
321.168	22.045	862.632	680.413
322.183	22.608	862.732	682.612
323.197	22.779	862.525	683.049
324.212	22.939	862.277	683.411
325.227	23.030	861.883	683.391
326.241	22.892	861.050	682.136
327.256	22.999	859.844	681.534
328.270	22.825	859.580	680.596
329.285	22.663	858.488	679.044
330.300	22.506	857.723	677.775
331.314	22.749	857.409	678.403
332.329	22.989	857.472	679.314
333.343	23.109	857.177	679.484
334.358	23.161	856.352	678.968
335.373	23.192	856.087	678.817
336.387	23.497	856.268	680.071
337.402	23.536	856.128	680.047
338.416	23.420	855.523	679.062
339.431	23.492	855.367	679.156
340.446	23.628	855.284	679.548
341.460	23.533	854.509	678.510
342.475	23.322	853.849	677.119
343.489	23.570	853.239	677.521
344.504	23.771	853.249	678.239
345.519	23.919	852.488	678.138
346.533	24.095	851.995	678.356
347.548	23.921	851.638	677.347
348.562	23.926	851.116	676.892
349.577	23.942	850.627	676.505
350.592	23.933	849.585	675.582
351.606	23.877	849.174	674.983
352.621	23.655	848.459	673.513
353.635	23.652	847.463	672.651
354.650	23.077	845.992	669.249
355.665	22.037	844.486	664.069
356.679	22.428	844.387	665.410
357.694	22.954	843.748	666.834
358.708	22.933	843.166	666.233
359.723	23.282	843.116	667.451
360.738	23.592	842.684	668.216
361.752	23.778	842.204	668.478
362.767	23.882	842.224	668.825
363.781	24.353	841.582	670.027
364.796	24.266	841.402	669.497
365.810	24.205	841.093	668.964
366.825	24.152	840.736	668.420
367.840	23.917	839.629	666.600
368.854	23.564	838.678	664.465
369.869	23.508	838.588	664.125
370.883	23.666	837.863	664.085
371.898	23.671	837.284	663.584
372.913	23.617	837.210	663.267
373.927	23.885	836.732	663.829
374.942	23.854	836.477	663.453
375.956	23.830	836.088	662.994
376.971	24.044	835.427	663.209
377.986	24.273	835.207	663.831
379.000	24.320	834.343	663.258
380.015	24.113	833.869	662.055
381.029	24.193	833.117	661.694
382.044	24.268	832.885	661.733
383.059	24.249	832.297	661.133
384.073	24.297	831.528	660.645
385.088	24.207	831.220	660.008
386.102	24.095	830.314	658.816
387.117	24.064	829.691	658.147
388.132	23.696	827.934	655.339
389.146	23.200	827.597	653.183
390.161	23.601	827.589	654.599
391.175	23.943	827.494	655.726
392.190	23.721	826.146	653.783
393.205	22.392	824.246	647.338
394.219	20.820	822.695	640.287
395.234	20.972	822.040	640.282
396.248	22.415	823.861	646.948
397.263	23.879	824.771	652.986
398.278	23.990	823.631	652.432
399.292	23.647	823.248	650.816
400.307	23.590	822.988	650.343
401.321	23.719	822.426	650.312
402.336	24.129	822.268	651.632
403.350	24.410	822.218	652.562
404.365	24.550	822.413	653.170
405.380	24.808	822.083	653.793
406.394	24.950	821.380	653.696
407.409	24.951	820.205	652.707
408.423	24.960	819.872	652.416
409.438	24.794	819.863	651.746
410.453	24.898	819.442	651.732
411.467	24.977	818.679	651.357
412.482	24.952	818.592	651.139
413.496	24.874	818.264	650.537
414.511	24.862	818.005	650.227
415.526	24.902	817.603	649.995
416.540	24.873	816.295	648.794
417.555	24.639	815.319	647.114
418.569	24.584	815.289	646.833
419.584	24.496	814.730	646.014
420.599	24.459	814.111	645.333
421.613	153.429	1365.466	1791.724
422.628	133.493	1445.791	1791.802
