DTS Sentinel unit serial number:	SN413079Multiplexer serial number:	ORYXHardware model number:	OX4-SRSoftware version number:	ORYX F/W v4.00 Oryx Data Collector v3.7.2.0data status	okinstallation	princeton_trtdifferential loss correction	single-endedforward channel	channel 1reverse channel	N/Adate	2019/09/13time	10:50:35forward acquisition time	60.00reverse acquisition time	0.00gamma	496.2192k internal	0.2320k external	0.2320temperature offset calibration	1.0156default loss term (dB/km)	0.3790temperature slope calibration	1.0000multiplexer offset coefficient	1.0000multiplexer slope coefficient	1.0000fibre end	0.00T internal ref (°C)	31.67T ext. ref 1 (°C)	4.59T ext. ref 2 (°C)	28.28length (m)	temperature (°C)	Stokes	anti-Stokes-747.200	-13.278	0.027	-0.018
-746.185	34.926	-0.236	0.209
-745.171	-12.963	0.066	-0.043
-744.156	800.000	0.067	-0.282
-743.142	29.781	0.205	-0.177
-742.127	30.209	0.143	0.123
-741.112	-41.008	-0.202	0.105
-740.098	184.208	0.154	0.231
-739.083	-200.000	-0.001	0.062
-738.069	-140.364	-0.366	0.039
-737.054	221.967	0.102	0.166
-736.039	800.000	-0.025	-0.091
-735.025	-53.247	0.204	0.095
-734.010	114.238	-0.170	0.209
-732.996	21.711	-0.083	-0.069
-731.981	-102.338	0.214	-0.052
-730.966	-136.449	-0.414	0.049
-729.952	160.539	0.115	-0.163
-728.937	773.675	-0.169	-0.465
-727.923	800.000	-0.067	-0.216
-726.908	-200.000	0.029	-0.134
-725.894	317.921	-0.074	0.141
-724.879	34.280	-0.411	0.362
-723.864	-200.000	-0.008	0.241
-722.850	396.223	-0.180	0.380
-721.835	-115.330	-0.194	-0.037
-720.821	800.000	-0.057	-0.180
-719.806	330.637	-0.021	0.040
-718.791	-40.008	0.126	-0.067
-717.777	6.824	-0.131	0.099
-716.762	-18.759	-0.148	0.093
-715.748	-89.142	0.174	-0.052
-714.733	-200.000	-0.000	0.018
-713.718	65.277	-0.118	0.121
-712.704	-79.537	0.073	0.025
-711.689	199.479	0.135	0.209
-710.675	-40.238	-0.309	-0.162
-709.660	-119.359	0.316	0.056
-708.645	148.573	-0.045	0.062
-707.631	-37.451	-0.235	-0.127
-706.616	-200.000	-0.023	-0.141
-705.602	-200.000	0.000	-0.259
-704.587	-90.104	0.174	-0.051
-703.572	-112.918	0.268	0.053
-702.558	4.872	-0.154	-0.114
-701.543	166.037	-0.057	0.082
-700.529	-200.000	-0.001	0.316
-699.514	-112.621	0.172	-0.034
-698.499	-200.000	-0.019	0.142
-697.485	89.111	0.086	-0.097
-696.470	37.276	-0.221	0.198
-695.456	-106.020	0.252	-0.057
-694.441	404.794	-0.124	0.263
-693.426	-42.277	-0.122	-0.063
-692.412	88.554	0.156	0.175
-691.397	-14.917	-0.207	-0.134
-690.383	-118.746	-0.042	-0.007
-689.368	-200.000	-0.017	-0.253
-688.354	6.921	0.101	0.076
-687.339	-146.272	-0.229	0.020
-686.324	-103.908	-0.232	-0.055
-685.310	-189.524	0.057	0.001
-684.295	285.836	-0.145	-0.263
-683.281	-200.000	-0.029	-0.224
-682.266	-88.385	0.486	-0.146
-681.251	13.854	0.178	-0.139
-680.237	428.724	0.052	0.114
-679.222	-200.000	-0.032	-0.231
-678.208	444.379	-0.126	0.278
-677.193	78.407	-0.075	0.081
-676.178	23.608	0.100	0.083
-675.164	800.000	-0.041	-0.124
-674.149	432.294	0.206	0.450
-673.135	-25.816	0.194	0.115
-672.120	431.723	0.191	-0.417
-671.105	158.218	-0.230	0.321
-670.091	-150.730	0.344	-0.026
-669.076	378.260	-0.080	0.164
-668.062	800.000	0.029	-0.093
-667.047	-200.000	-0.041	-0.315
-666.032	800.000	0.064	-0.236
-665.018	800.000	0.056	0.236
-664.003	136.089	-0.087	-0.114
-662.989	85.279	0.050	0.056
-661.974	-87.262	-0.155	-0.047
-660.959	-134.509	-0.028	-0.003
-659.945	91.404	0.066	-0.075
-658.930	-24.166	-0.226	0.136
-657.916	-12.356	-0.269	0.177
-656.901	-200.000	-0.009	-0.167
-655.886	800.000	0.090	0.379
-654.872	551.656	-0.006	-0.015
-653.857	273.052	0.126	-0.225
-652.843	5.355	0.183	0.136
-651.828	-116.258	0.040	0.007
-650.814	-9.959	0.218	0.146
-649.799	800.000	0.052	0.149
-648.784	10.713	0.112	0.086
-647.770	-25.959	-0.279	0.165
-646.755	24.576	-0.179	-0.149
-645.741	-200.000	0.078	0.366
-644.726	75.436	-0.125	0.133
-643.711	-67.691	0.473	-0.187
-642.697	-12.920	0.198	-0.130
-641.682	9.865	0.147	0.112
-640.668	-153.181	0.186	-0.013
-639.653	-155.656	-0.291	0.019
-638.638	-122.450	0.229	0.037
-637.624	-200.000	0.044	-0.320
-636.609	176.438	0.158	0.231
-635.595	-60.820	0.243	0.104
-634.580	3.059	0.257	0.188
-633.565	-32.434	-0.240	0.135
-632.551	-191.397	-0.240	-0.002
-631.536	425.614	-0.098	-0.214
-630.522	65.459	-0.205	0.209
-629.507	-200.000	0.010	0.096
-628.492	-200.000	0.010	0.146
-627.478	-200.000	-0.043	-0.194
-626.463	-200.000	-0.006	0.119
-625.449	-200.000	-0.016	-0.253
-624.434	-200.000	-0.004	-0.112
-623.419	800.000	0.008	0.029
-622.405	-60.361	0.316	0.135
-621.390	-200.000	0.026	0.330
-620.376	81.060	-0.144	-0.157
-619.361	800.000	-0.038	-0.116
-618.346	189.217	-0.193	-0.291
-617.332	190.557	0.103	0.156
-616.317	-103.297	0.414	0.098
-615.303	800.000	0.033	-0.125
-614.288	-200.000	-0.005	-0.266
-613.273	10.406	-0.171	0.131
-612.259	164.934	-0.142	-0.201
-611.244	800.000	-0.035	-0.123
-610.230	-200.000	0.010	-0.274
-609.215	-78.917	0.188	-0.064
-608.201	-200.000	0.030	0.178
-607.186	43.075	0.319	-0.293
-606.171	-25.824	-0.194	-0.115
-605.157	-55.298	-0.206	0.093
-604.142	334.516	0.193	-0.376
-603.128	41.528	-0.148	-0.135
-602.113	11.731	-0.183	0.142
-601.098	547.641	0.021	-0.051
-600.084	-123.596	-0.386	0.062
-599.069	65.659	0.190	0.193
-598.055	571.475	0.078	0.190
-597.040	200.734	-0.085	0.132
-596.025	-15.659	-0.328	0.210
-595.011	-125.455	0.225	-0.034
-593.996	-13.299	0.361	-0.236
-592.982	273.646	-0.067	-0.120
-591.967	-88.542	0.148	0.044
-590.952	354.592	0.054	0.108
-589.938	800.000	-0.078	0.338
-588.923	-17.424	0.168	0.106
-587.909	800.000	0.064	0.220
-586.894	800.000	0.051	0.202
-585.879	124.710	-0.224	-0.284
-584.865	236.238	-0.150	0.249
-583.850	-200.000	0.014	0.195
-582.836	800.000	-0.080	0.237
-581.821	133.652	0.067	0.087
-580.806	-126.781	0.143	0.021
-579.792	-200.000	0.081	-0.362
-578.777	576.745	0.171	0.419
-577.763	392.418	-0.078	0.163
-576.748	-51.658	0.243	-0.114
-575.733	-200.000	-0.077	-0.366
-574.719	576.236	0.151	0.372
-573.704	266.571	0.132	0.231
-572.690	-43.627	-0.150	0.076
-571.675	462.844	-0.142	0.318
-570.661	-200.000	0.050	0.293
-569.646	800.000	0.044	-0.123
-568.631	68.271	0.154	-0.158
-567.617	-81.160	-0.067	0.022
-566.602	800.000	-0.093	0.309
-565.588	-200.000	0.022	-0.112
-564.573	773.694	-0.070	0.193
-563.558	54.808	0.119	0.115
-562.544	115.213	-0.143	-0.176
-561.529	-64.971	-0.369	0.150
-560.515	-94.859	0.104	-0.028
-559.500	90.301	0.132	0.148
-558.485	-90.614	-0.384	0.111
-557.471	800.000	-0.123	-0.350
-556.456	176.239	-0.098	-0.143
-555.442	-200.000	0.003	-0.067
-554.427	37.902	-0.263	-0.235
-553.412	-54.124	0.317	0.145
-552.398	130.636	-0.216	-0.278
-551.383	-200.000	-0.037	-0.211
-550.369	-200.000	-0.031	-0.149
-549.354	-97.778	0.137	-0.036
-548.339	1.405	-0.219	-0.158
-547.325	495.187	0.069	0.159
-546.310	-94.696	-0.280	-0.076
-545.296	-67.682	0.493	-0.194
-544.281	176.388	0.032	0.047
-543.266	-33.666	-0.183	0.102
-542.252	78.471	-0.221	0.237
-541.237	-200.000	-0.004	-0.187
-540.223	-35.369	-0.163	-0.089
-539.208	-3.292	0.125	-0.087
-538.193	-200.000	-0.038	0.183
-537.179	186.443	-0.122	0.182
-536.164	0.848	-0.163	-0.117
-535.150	-75.250	0.046	0.017
-534.135	554.973	-0.050	0.121
-533.121	800.000	0.036	-0.118
-532.106	-128.986	-0.077	-0.011
-531.091	530.286	0.080	0.190
-530.077	-200.000	0.027	0.194
-529.062	37.887	0.109	0.097
-528.048	-109.598	-0.221	0.047
-527.033	88.760	0.222	-0.247
-526.018	200.478	-0.213	-0.328
-525.004	-200.000	0.025	0.185
-523.989	-56.609	0.307	-0.136
-522.975	11.770	0.080	-0.062
-521.960	-28.049	-0.111	-0.064
-520.945	-58.732	0.131	0.057
-519.931	40.095	0.165	0.149
-518.916	453.174	-0.026	0.058
-517.902	120.268	0.188	0.234
-516.887	-87.426	-0.410	0.125
-515.872	-200.000	-0.042	0.187
-514.858	-123.106	0.128	0.021
-513.843	-11.486	-0.422	0.278
-512.829	241.930	0.079	-0.132
-511.814	8.112	-0.057	-0.043
-510.799	-200.000	-0.057	-0.259
-509.785	531.849	-0.163	-0.387
-508.770	-200.000	0.002	-0.160
-507.756	-13.079	0.241	-0.157
-506.741	50.173	0.118	-0.112
-505.726	-21.848	-0.224	-0.136
-504.712	-135.364	-0.242	0.029
-503.697	136.696	-0.083	0.109
-502.683	279.889	0.047	-0.084
-501.668	335.671	0.214	0.415
-500.653	-75.385	0.178	0.064
-499.639	-145.210	0.185	0.017
-498.624	-105.745	0.194	0.044
-497.610	-200.000	-0.279	-0.001
-496.595	103.053	-0.135	0.159
-495.581	-7.400	0.239	-0.162
-494.566	-19.526	0.074	0.046
-493.551	18.033	-0.261	0.208
-492.537	-88.034	0.186	0.056
-491.522	800.000	-0.055	-0.223
-490.508	181.369	-0.077	-0.113
-489.493	-200.000	-0.029	0.483
-488.478	-57.365	0.174	0.076
-487.464	120.052	-0.184	-0.228
-486.449	-80.523	0.140	-0.047
-485.435	57.620	-0.176	-0.172
-484.420	-78.379	-0.110	0.038
-483.405	-153.331	-0.217	-0.015
-482.391	-61.951	-0.312	0.130
-481.376	-84.621	0.120	0.038
-480.362	-118.471	0.171	0.030
-479.347	-200.000	0.030	-0.193
-478.332	-1.113	0.106	0.075
-477.318	-20.495	0.320	-0.197
-476.303	-200.000	0.074	0.511
-475.289	-200.000	-0.063	0.332
-474.274	93.458	0.074	0.084
-473.259	-132.829	-0.152	0.019
-472.245	558.219	-0.054	0.129
-471.230	-102.061	-0.200	0.048
-470.216	-119.314	0.164	0.029
-469.201	-200.000	-0.034	0.197
-468.186	43.101	0.138	0.126
-467.172	12.223	0.176	0.135
-466.157	510.712	-0.098	-0.227
-465.143	-61.328	-0.250	-0.105
-464.128	98.413	0.107	-0.123
-463.113	325.030	-0.184	0.351
-462.099	-200.000	-0.023	-0.107
-461.084	31.009	0.340	0.292
-460.070	-68.344	0.148	0.058
-459.055	-43.364	0.384	-0.194
-458.040	-144.923	-0.101	-0.009
-457.026	800.000	-0.031	-0.094
-456.011	3.752	-0.193	0.141
-454.997	-200.000	0.008	0.235
-453.982	-97.460	-0.422	-0.110
-452.968	-116.405	0.361	-0.067
-451.953	575.301	-0.115	-0.280
-450.938	216.014	0.087	-0.139
-449.924	-132.402	0.432	-0.056
-448.909	-168.915	0.234	-0.009
-447.895	-111.765	-0.128	0.026
-446.880	-60.089	0.244	0.104
-445.865	-134.385	0.307	0.038
-444.851	171.492	-0.121	0.174
-443.836	-200.000	0.027	0.338
-442.822	-180.697	-0.407	-0.008
-441.807	-34.381	0.278	0.152
-440.792	82.144	-0.179	0.193
-439.778	354.627	0.047	0.094
-438.763	194.830	0.072	0.109
-437.749	10.731	-0.137	0.105
-436.734	-44.089	-0.509	-0.255
-435.719	106.318	-0.145	-0.172
-434.705	61.621	-0.194	-0.192
-433.690	78.718	-0.289	0.308
-432.676	74.356	0.098	-0.103
-431.661	-63.250	-0.273	0.112
-430.646	53.157	-0.136	0.130
-429.632	167.066	-0.101	0.143
-428.617	-200.000	-0.001	0.150
-427.603	27.213	0.187	-0.157
-426.588	-75.344	-0.344	-0.123
-425.573	800.000	-0.055	0.189
-424.559	-40.017	-0.169	0.088
-423.544	607.009	0.046	0.114
-422.530	-76.335	0.162	-0.057
-421.515	-200.000	-0.001	0.048
-420.500	-44.981	-0.072	0.036
-419.486	250.240	0.016	-0.027
-418.471	-40.110	-0.115	0.060
-417.457	199.065	-0.129	0.198
-416.442	-53.808	0.220	-0.100
-415.428	586.330	-0.019	0.048
-414.413	800.000	-0.095	-0.307
-413.398	-128.559	-0.118	-0.017
-412.384	-129.006	0.206	-0.029
-411.369	-182.379	-0.149	0.003
-410.355	452.412	0.002	-0.004
-409.340	800.000	-0.025	-0.101
-408.325	-77.283	-0.081	-0.028
-407.311	281.973	-0.148	-0.264
-406.296	485.043	-0.153	-0.348
-405.282	413.548	-0.042	-0.088
-404.267	-66.393	0.162	-0.064
-403.252	-188.866	0.202	-0.002
-402.238	-200.000	-0.010	0.332
-401.223	276.826	0.154	-0.272
-400.209	-200.000	0.019	-0.256
-399.194	-116.461	-0.081	-0.015
-398.179	-200.000	-0.061	0.379
-397.165	6.890	0.334	-0.248
-396.150	154.566	0.141	0.193
-395.136	-90.969	0.027	-0.008
-394.121	-171.995	-0.152	-0.005
-393.106	9.992	-0.036	-0.027
-392.092	-89.663	-0.200	0.059
-391.077	121.927	-0.199	0.248
-390.063	486.546	0.031	-0.071
-389.048	140.092	0.028	0.037
-388.033	6.625	-0.082	-0.061
-387.019	800.000	0.084	-0.339
-386.004	623.446	-0.016	0.041
-384.990	-200.000	-0.001	-0.212
-383.975	-26.352	-0.170	0.100
-382.960	-200.000	-0.001	0.159
-381.946	251.065	0.164	-0.278
-380.931	-93.087	-0.282	-0.078
-379.917	-167.456	0.331	-0.013
-378.902	242.572	-0.161	-0.269
-377.888	-145.187	-0.258	-0.023
-376.873	681.434	0.026	-0.069
-375.858	91.129	-0.117	0.131
-374.844	10.503	-0.057	-0.043
-373.829	-200.000	0.010	-0.100
-372.815	800.000	-0.121	-0.342
-371.800	-200.000	-0.076	0.436
-370.785	-46.902	-0.227	-0.111
-369.771	-94.331	-0.280	-0.076
-368.756	123.992	-0.126	-0.157
-367.742	29.402	-0.126	0.106
-366.727	-150.365	0.129	-0.010
-365.712	800.000	-0.116	-0.446
-364.698	-81.234	0.325	0.107
-363.683	800.000	0.129	-0.435
-362.669	-200.000	0.019	-0.168
-361.654	210.006	-0.116	-0.181
-360.639	347.719	-0.058	0.113
-359.625	-118.693	0.111	0.019
-358.610	-66.413	0.279	0.111
-357.596	-200.000	0.013	-0.225
-356.581	237.113	0.177	0.292
-355.566	42.835	0.127	-0.115
-354.552	-44.557	-0.155	0.077
-353.537	-27.678	0.331	0.191
-352.523	-66.099	-0.141	0.056
-351.508	-94.761	-0.365	0.099
-350.493	-154.420	0.197	0.013
-349.479	800.000	0.044	-0.145
-348.464	-132.699	-0.183	-0.023
-347.450	-167.824	0.106	-0.004
-346.435	-52.456	0.076	0.035
-345.420	104.880	0.144	-0.169
-344.406	800.000	-0.049	-0.137
-343.391	269.206	-0.167	-0.291
-342.377	128.114	-0.114	-0.144
-341.362	230.660	0.233	0.379
-340.348	163.289	-0.041	-0.057
-339.333	-88.074	-0.249	0.074
-338.318	219.500	-0.136	0.217
-337.304	40.377	0.073	0.066
-336.289	-41.785	-0.038	-0.019
-335.275	-63.857	-0.160	-0.065
-334.260	8.649	-0.118	-0.089
-333.245	800.000	-0.026	-0.080
-332.231	68.332	0.160	-0.163
-331.216	-17.863	-0.252	-0.158
-330.202	800.000	-0.073	0.225
-329.187	317.035	-0.128	0.241
-328.172	-29.778	0.161	-0.091
-327.158	-155.493	0.196	0.013
-326.143	-195.162	-0.187	-0.001
-325.129	74.681	0.215	0.225
-324.114	-51.278	-0.243	0.113
-323.099	-200.000	-0.014	-0.234
-322.085	11.519	0.085	0.065
-321.070	384.765	0.090	0.184
-320.056	54.000	0.057	-0.055
-319.041	-101.282	0.276	-0.067
-318.026	-148.100	0.154	-0.013
-317.012	-200.000	0.100	-0.518
-315.997	60.425	-0.190	0.187
-314.983	-60.656	0.270	-0.114
-313.968	479.606	-0.032	-0.073
-312.953	681.265	0.131	0.339
-311.939	200.349	0.145	0.221
-310.924	-94.987	-0.296	-0.080
-309.910	32.203	-0.044	-0.038
-308.895	-49.070	-0.070	0.033
-307.880	-200.000	-0.024	0.124
-306.866	781.880	-0.037	-0.101
-305.851	-2.404	0.077	0.053
-304.837	498.374	-0.069	-0.157
-303.822	-200.000	0.058	-0.349
-302.807	671.635	0.005	-0.014
-301.793	-60.397	-0.195	-0.083
-300.778	154.445	-0.144	-0.197
-299.764	76.175	-0.146	0.153
-298.749	800.000	-0.089	0.360
-297.735	174.954	-0.114	0.164
-296.720	9.241	0.104	-0.078
-295.705	652.168	-0.042	-0.107
-294.691	-29.045	-0.018	-0.011
-293.676	-200.000	-0.000	0.033
-292.662	-165.566	0.244	-0.011
-291.647	-30.786	0.213	-0.120
-290.632	-200.000	-0.060	-0.415
-289.618	275.502	0.018	-0.031
-288.603	-129.274	0.195	0.027
-287.589	298.630	-0.143	-0.262
-286.574	262.607	-0.093	0.160
-285.559	129.453	-0.133	0.169
-284.545	688.088	-0.039	-0.101
-283.530	-200.000	0.110	0.523
-282.516	219.097	0.092	-0.146
-281.501	-15.470	0.126	0.080
-280.486	39.184	-0.284	-0.252
-279.472	-147.059	-0.179	-0.015
-278.457	28.115	0.185	-0.155
-277.443	-102.786	-0.344	0.081
-276.428	-112.080	-0.181	-0.036
-275.413	-200.000	-0.007	-0.103
-274.399	800.000	-0.028	0.079
-273.384	164.514	-0.171	0.239
-272.370	93.892	0.196	-0.221
-271.355	-200.000	-0.091	-0.412
-270.340	221.513	0.037	0.058
-269.326	800.000	-0.018	0.075
-268.311	-37.191	-0.222	-0.118
-267.297	-180.358	0.391	0.008
-266.282	-200.000	0.011	0.124
-265.267	-40.051	-0.143	-0.074
-264.253	800.000	0.079	-0.247
-263.238	-86.929	0.163	0.049
-262.224	-10.565	-0.169	-0.111
-261.209	-200.000	0.006	-0.174
-260.195	42.504	0.165	-0.149
-259.180	-170.113	0.082	0.003
-258.165	-109.443	0.189	0.040
-257.151	-200.000	-0.051	-0.515
-256.136	-132.862	0.278	0.035
-255.122	-47.840	0.165	-0.079
-254.107	-200.000	-0.009	-0.114
-253.092	98.531	-0.154	-0.176
-252.078	177.431	0.079	-0.115
-251.063	-152.858	-0.331	0.023
-250.049	-200.000	-0.011	0.149
-249.034	-23.018	0.026	-0.016
-248.019	-200.000	-0.035	-0.303
-247.005	-54.097	-0.248	-0.112
-245.990	-32.282	0.284	0.157
-244.976	-200.000	0.010	-0.288
-243.961	-131.605	0.171	0.022
-242.946	195.320	-0.167	-0.252
-241.932	-105.553	0.264	0.059
-240.917	75.917	0.408	0.427
-239.903	-200.000	0.097	0.433
-238.888	-179.747	-0.350	-0.007
-237.873	227.966	-0.075	0.121
-236.859	-200.000	-0.059	0.377
-235.844	517.935	0.092	0.215
-234.830	800.000	-0.053	-0.220
-233.815	800.000	0.147	-0.497
-232.800	-56.443	-0.180	-0.079
-231.786	800.000	0.045	0.176
-230.771	-48.187	0.338	-0.162
-229.757	96.725	-0.074	0.084
-228.742	-60.529	0.113	-0.048
-227.727	-29.387	-0.054	-0.030
-226.713	606.401	0.038	-0.093
-225.698	70.967	0.283	-0.290
-224.684	295.942	-0.033	0.059
-223.669	-117.958	0.323	0.057
-222.655	-117.281	-0.274	0.049
-221.640	800.000	-0.068	0.292
-220.625	-88.537	0.117	0.035
-219.611	-163.956	-0.100	0.005
-218.596	-166.436	0.184	0.008
-217.582	716.765	0.049	0.128
-216.567	-41.681	0.098	-0.050
-215.552	84.322	0.139	-0.150
-214.538	-35.834	-0.101	-0.054
-213.523	321.540	0.036	0.067
-212.509	148.137	0.178	-0.238
-211.494	-58.980	0.090	0.038
-210.479	370.578	0.072	-0.144
-209.465	-200.000	-0.005	0.026
-208.450	-119.689	-0.083	0.014
-207.436	239.982	0.035	0.057
-206.421	-200.000	-0.019	-0.110
-205.406	-200.000	-0.000	0.047
-204.392	-200.000	-0.030	0.192
-203.377	25.965	-0.132	-0.109
-202.363	13.803	0.174	0.134
-201.348	-49.005	-0.201	-0.095
-200.333	-42.286	0.140	-0.071
-199.319	-200.000	0.087	-0.447
-198.304	-172.382	0.082	-0.003
-197.290	800.000	0.065	0.235
-196.275	-200.000	0.042	0.253
-195.260	-200.000	-0.058	0.306
-194.246	-85.706	0.314	-0.097
-193.231	197.438	0.056	-0.085
-192.217	64.731	-0.089	0.089
-191.202	-70.857	0.176	0.066
-190.187	322.322	-0.076	0.144
-189.173	-200.000	-0.022	-0.179
-188.158	800.000	-0.060	0.170
-187.144	88.278	-0.192	-0.211
-186.129	-116.318	-0.116	0.021
-185.114	-114.905	0.181	0.034
-184.100	32.895	0.126	0.108
-183.085	275.889	-0.045	-0.079
-182.071	77.362	-0.028	0.030
-181.056	277.500	0.049	0.086
-180.042	79.127	0.125	-0.132
-179.027	-200.000	0.042	0.324
-178.012	225.150	0.021	-0.034
-176.998	455.231	0.123	-0.269
-175.983	-200.000	0.033	0.154
-174.969	-110.078	0.049	-0.010
-173.954	-19.762	-0.136	-0.083
-172.939	48.493	0.142	0.131
-171.925	800.000	-0.032	-0.134
-170.910	-153.413	0.462	-0.032
-169.896	-200.000	0.022	-0.108
-168.881	-47.430	0.194	-0.093
-167.866	208.399	-0.113	0.174
-166.852	106.355	-0.327	-0.383
-165.837	103.516	0.179	-0.208
-164.823	334.948	-0.120	0.229
-163.808	-37.812	0.065	0.034
-162.793	-169.899	0.247	0.009
-161.779	183.927	0.029	-0.042
-160.764	29.304	-0.433	0.364
-159.750	139.838	-0.095	-0.124
-158.735	210.328	0.048	-0.074
-157.720	-93.652	0.227	-0.062
-156.706	-200.000	-0.002	0.153
-155.691	-23.856	-0.457	0.271
-154.677	800.000	-0.039	0.110
-153.662	800.000	-0.068	0.214
-152.647	8.822	0.382	-0.284
-151.633	-200.000	-0.052	0.234
-150.618	800.000	0.158	-0.490
-149.604	-115.436	0.330	0.062
-148.589	27.366	-0.232	0.193
-147.574	-200.000	-0.058	-0.281
-146.560	-90.547	-0.366	-0.105
-145.545	76.474	0.139	-0.146
-144.531	-134.470	0.367	-0.044
-143.516	-42.558	0.085	0.043
-142.502	0.625	-0.191	-0.135
-141.487	201.401	0.034	-0.052
-140.472	-5.297	0.331	0.224
-139.458	-82.079	-0.238	0.077
-138.443	-200.000	0.032	-0.214
-137.429	596.391	-0.106	0.260
-136.414	-94.170	0.261	-0.071
-135.399	800.000	-0.002	0.006
-134.385	-8.227	0.090	-0.060
-133.370	800.000	0.031	-0.110
-132.356	33.227	0.159	-0.137
-131.341	8.408	-0.243	-0.181
-130.326	-200.000	-0.019	0.381
-129.312	27.230	0.289	0.240
-128.297	-81.817	-0.192	0.062
-127.283	12.993	0.100	0.077
-126.268	32.861	0.183	0.156
-125.253	-200.000	-0.002	0.111
-124.239	800.000	0.100	0.298
-123.224	146.113	-0.169	-0.224
-122.210	-131.367	-0.261	-0.034
-121.195	57.602	-0.126	-0.121
-120.180	-93.905	0.203	-0.055
-119.166	-31.606	0.162	0.090
-118.151	-1.919	-0.046	0.032
-117.137	800.000	-0.090	-0.340
-116.122	127.891	-0.271	-0.341
-115.107	134.076	0.231	0.295
-114.093	-117.579	0.183	0.033
-113.078	314.397	-0.171	0.319
-112.064	-200.000	0.034	0.181
-111.049	-89.874	-0.144	0.041
-110.034	800.000	0.051	-0.171
-109.020	-200.000	0.020	0.204
-108.005	76.805	0.316	-0.331
-106.991	81.491	-0.089	-0.095
-105.976	800.000	0.116	0.322
-104.962	57.168	0.066	-0.064
-103.947	124.161	-0.045	-0.056
-102.932	-200.000	-0.014	0.214
-101.918	158.363	-0.056	0.076
-100.903	-116.510	-0.056	-0.010
-99.889	-30.400	0.088	-0.049
-98.874	-69.446	-0.282	0.107
-97.859	2.412	-0.109	-0.077
-96.845	46.206	-0.130	0.119
-95.830	-73.703	0.087	-0.031
-94.816	147.678	0.103	0.137
-93.801	-134.403	-0.401	0.049
-92.786	-134.715	0.233	-0.028
-91.772	17.344	-0.166	-0.130
-90.757	-70.915	0.102	0.038
-89.743	-98.280	0.107	0.027
-88.728	122.057	0.129	0.159
-87.713	-200.000	-0.012	0.107
-86.699	568.950	0.079	-0.189
-85.684	-17.868	-0.108	0.066
-84.670	633.251	0.067	0.167
-83.655	629.747	-0.078	0.194
-82.640	-89.158	0.134	0.039
-81.626	-39.464	0.134	-0.069
-80.611	800.000	-0.154	-0.439
-79.597	35.616	0.129	0.112
-78.582	800.000	-0.067	0.183
-77.567	-157.520	-0.183	0.011
-76.553	800.000	0.057	0.225
-75.538	-195.270	-0.182	-0.001
-74.524	-200.000	-0.056	0.318
-73.509	31.655	0.219	0.186
-72.494	12.053	-0.236	-0.179
-71.480	-200.000	-0.006	-0.255
-70.465	283.357	0.117	-0.208
-69.451	-86.563	0.160	-0.048
-68.436	-55.912	0.275	-0.121
-67.422	69.765	0.095	-0.097
-66.407	-64.163	0.297	0.119
-65.392	41.077	-0.233	-0.207
-64.378	-200.000	0.030	-0.274
-63.363	-200.000	-0.004	0.059
-62.349	-23.524	0.160	0.095
-61.334	-28.445	-1.161	-0.659
-60.319	-51.993	0.685	0.313
-59.305	800.000	-0.409	-1.242
-58.290	298.932	0.638	1.156
-57.276	451.299	0.671	1.459
-56.261	-200.000	95.704	599.530
-55.246	639.667	1395.183	3493.830
-54.232	192.449	2586.412	3842.224
-53.217	120.563	2167.129	2649.981
-52.203	44.018	1619.341	1460.757
-51.188	35.112	1354.082	1167.448
-50.173	31.847	1312.754	1112.434
-49.159	55.351	1359.192	1293.928
-48.144	57.266	1375.756	1321.159
-47.130	35.396	1335.214	1152.702
-46.115	31.887	1317.433	1116.460
-45.100	31.750	1312.395	1111.334
-44.086	31.616	1310.164	1108.604
-43.071	31.676	1307.605	1106.751
-42.057	31.562	1305.587	1104.326
-41.042	31.594	1303.828	1102.985
-40.027	31.578	1302.393	1101.632
-39.013	31.620	1300.653	1100.363
-37.998	31.555	1298.798	1098.371
-36.984	31.595	1297.307	1097.297
-35.969	31.639	1295.323	1095.835
-34.954	31.703	1293.140	1094.318
-33.940	31.647	1292.292	1093.228
-32.925	31.670	1291.127	1092.336
-31.911	31.804	1288.954	1091.235
-30.896	31.787	1287.225	1089.627
-29.881	31.846	1285.863	1088.775
-28.867	31.896	1284.189	1087.607
-27.852	31.755	1283.611	1086.252
-26.838	31.700	1282.207	1084.707
-25.823	31.793	1280.531	1083.784
-24.809	31.852	1279.290	1083.030
-23.794	31.782	1278.128	1081.599
-22.779	31.739	1276.716	1080.112
-21.765	31.760	1275.351	1079.033
-20.750	31.785	1274.153	1078.123
-19.736	31.705	1272.873	1076.535
-18.721	31.624	1271.506	1074.875
-17.706	31.612	1270.389	1073.816
-16.692	31.641	1269.199	1072.936
-15.677	31.667	1268.066	1072.084
-14.663	31.612	1267.469	1071.220
-13.648	31.686	1265.631	1070.048
-12.633	31.599	1264.742	1068.761
-11.619	31.613	1263.779	1067.979
-10.604	31.558	1263.318	1067.238
-9.590	31.614	1262.077	1066.466
-8.575	31.463	1261.373	1064.970
-7.560	31.617	1260.419	1064.998
-6.546	31.611	1259.137	1063.839
-5.531	31.518	1258.620	1062.829
-4.517	31.573	1257.365	1062.042
-3.502	31.565	1256.815	1061.485
-2.487	31.606	1255.490	1060.560
-1.473	31.618	1251.394	1057.123
-0.458	30.478	1236.684	1038.289
0.556	28.629	1217.986	998.358
1.571	24.632	1223.128	980.600
2.586	23.502	1237.646	985.879
3.600	22.098	1225.858	968.663
4.615	16.705	1153.592	883.419
5.629	8.711	1079.201	787.208
6.644	4.959	1059.524	754.652
7.659	4.619	1056.959	751.117
8.673	4.458	1056.003	749.591
9.688	4.345	1054.447	747.878
10.702	4.998	1052.909	749.860
11.717	10.137	1060.229	779.841
12.731	18.117	1071.832	827.058
13.746	21.795	1075.786	847.861
14.761	22.024	1075.069	848.328
15.775	21.087	1073.479	842.476
16.790	20.073	1071.774	836.173
17.804	19.554	1069.731	832.002
18.819	19.236	1069.111	829.914
19.834	19.189	1067.963	828.724
20.848	19.056	1067.700	827.810
21.863	18.796	1066.923	825.882
22.877	18.603	1066.274	824.379
23.892	18.502	1065.786	823.443
24.907	18.542	1064.871	822.857
25.921	18.566	1063.448	821.799
26.936	18.538	1062.715	821.025
27.950	18.585	1061.118	819.943
28.965	18.816	1059.697	819.878
29.980	18.954	1057.901	819.073
30.994	19.004	1057.272	818.750
32.009	19.107	1056.093	818.253
33.023	18.997	1054.962	816.782
34.038	18.885	1053.630	815.147
35.053	18.636	1053.232	813.586
36.067	18.720	1052.318	813.208
37.082	18.749	1051.400	812.563
38.096	18.773	1050.860	812.189
39.111	18.877	1050.301	812.178
40.126	18.659	1049.106	810.151
41.140	18.380	1047.329	807.392
42.155	18.335	1045.936	806.034
43.169	18.183	1045.105	804.610
44.184	18.184	1044.044	803.726
45.199	18.194	1043.211	803.062
46.213	18.354	1042.245	802.997
47.228	18.649	1041.805	803.968
48.242	18.762	1040.253	803.229
49.257	18.738	1039.526	802.485
50.271	18.681	1039.265	801.944
51.286	18.741	1038.876	801.852
52.301	18.731	1037.271	800.495
53.315	18.608	1035.899	798.796
54.330	18.570	1034.946	797.813
55.344	18.490	1033.872	796.541
56.359	18.424	1033.772	796.089
57.374	18.386	1032.791	795.086
58.388	18.185	1031.897	793.393
59.403	18.310	1030.513	792.837
60.417	18.258	1029.937	792.084
61.432	18.246	1029.227	791.415
62.447	18.120	1028.323	790.066
63.461	18.030	1027.738	789.132
64.476	18.049	1026.489	788.188
65.490	18.069	1025.689	787.598
66.505	18.206	1024.869	787.529
67.520	18.136	1024.451	786.816
68.534	18.045	1023.776	785.808
69.549	18.056	1023.247	785.385
70.563	18.068	1021.733	784.211
71.578	17.948	1021.115	783.112
72.593	17.883	1020.352	782.161
73.607	17.825	1020.137	781.661
74.622	17.814	1019.699	781.210
75.636	17.972	1018.474	780.921
76.651	17.986	1018.030	780.575
77.666	18.066	1016.947	780.042
78.680	17.956	1016.630	779.228
79.695	18.116	1016.007	779.412
80.709	18.209	1016.088	779.831
81.724	18.220	1014.856	778.862
82.739	18.470	1014.221	779.444
83.753	18.613	1014.026	779.877
84.768	18.891	1013.202	780.435
85.782	19.070	1012.193	780.400
86.797	18.964	1011.418	779.253
87.812	18.807	1010.033	777.407
88.826	18.804	1009.038	776.559
89.841	18.943	1008.372	776.605
90.855	19.016	1007.559	776.244
91.870	19.056	1006.954	775.887
92.884	19.061	1005.665	774.850
93.899	19.049	1004.855	774.101
94.914	18.948	1004.618	773.394
95.928	19.083	1003.228	772.864
96.943	18.894	1002.419	771.322
97.957	18.787	1001.845	770.333
98.972	18.875	1001.003	770.011
99.987	18.980	1000.116	769.732
101.001	18.905	998.963	768.442
102.016	18.863	998.095	767.518
103.030	18.976	996.877	767.018
104.045	18.934	996.688	766.619
105.060	18.792	995.622	765.096
106.074	18.457	994.380	762.582
107.089	18.309	993.092	760.872
108.103	18.123	992.182	759.283
109.118	18.134	991.505	758.743
110.133	18.141	990.560	757.987
111.147	18.040	989.862	756.938
112.162	18.332	988.548	757.158
113.176	18.349	987.666	756.489
114.191	18.375	987.631	756.508
115.206	18.326	986.786	755.579
116.220	18.353	985.731	754.822
117.235	18.272	984.828	753.709
118.249	18.216	984.228	752.937
119.264	18.245	983.081	752.122
120.279	18.061	982.418	750.736
121.293	18.116	981.650	750.328
122.308	17.948	980.604	748.724
123.322	17.835	979.617	747.411
124.337	17.935	978.566	746.979
125.352	18.024	977.523	746.507
126.366	17.915	976.500	745.183
127.381	18.071	975.595	745.107
128.395	17.882	975.136	743.865
129.410	17.994	973.991	743.415
130.424	18.304	973.067	743.990
131.439	18.452	972.117	743.843
132.454	18.547	971.758	743.914
133.468	18.441	970.717	742.591
134.483	18.462	970.474	742.431
135.497	18.384	969.383	741.193
136.512	18.549	968.313	741.022
137.527	18.350	967.362	739.369
138.541	18.551	966.811	739.751
139.556	18.449	966.569	739.058
140.570	18.639	965.802	739.225
141.585	18.794	965.267	739.418
142.600	18.840	964.229	738.754
143.614	19.081	963.152	738.899
144.629	19.057	962.602	738.309
145.643	18.873	961.729	736.787
146.658	18.755	960.416	735.210
147.673	18.647	959.246	733.788
148.687	18.464	958.459	732.338
149.702	18.308	957.865	731.155
150.716	18.463	956.815	730.951
151.731	18.441	956.230	730.342
152.746	18.531	955.256	729.919
153.760	18.547	955.117	729.816
154.775	18.699	954.316	729.783
155.789	18.875	953.640	729.949
156.804	18.661	953.353	728.758
157.819	18.810	952.841	728.936
158.833	18.969	951.782	728.733
159.848	19.277	950.583	729.054
160.862	18.865	949.685	726.561
161.877	18.502	948.760	724.254
162.892	18.452	947.635	723.122
163.906	18.329	946.736	721.854
164.921	18.477	945.922	721.792
165.935	18.608	944.982	721.561
166.950	18.673	943.964	720.993
167.964	18.503	943.375	719.767
168.979	18.447	942.551	718.837
169.994	18.542	941.475	718.351
171.008	18.730	940.881	718.620
172.023	18.991	940.448	719.321
173.037	19.009	939.901	718.912
174.052	18.793	938.947	717.217
175.067	18.600	937.614	715.329
176.081	18.400	937.177	714.099
177.096	18.491	936.547	713.937
178.110	18.571	936.077	713.849
179.125	18.530	936.116	713.644
180.140	18.704	935.046	713.488
181.154	18.737	934.946	713.484
182.169	18.884	934.683	713.831
183.183	19.021	933.782	713.651
184.198	19.120	933.024	713.419
185.213	18.937	932.360	712.087
186.227	18.981	931.909	711.862
187.242	19.136	931.182	711.884
188.256	19.439	930.196	712.323
189.271	19.294	929.849	711.393
190.286	18.909	928.533	708.737
191.300	18.459	927.691	706.178
192.315	18.330	926.923	704.998
193.329	18.326	926.961	704.950
194.344	18.533	925.942	704.965
195.359	18.754	925.445	705.432
196.373	18.886	924.763	705.389
197.388	18.970	924.856	705.744
198.402	19.313	924.048	706.471
199.417	19.323	923.878	706.320
200.432	19.531	922.835	706.311
201.446	19.629	922.466	706.366
202.461	19.477	922.411	705.638
203.475	19.360	922.072	704.842
204.490	19.201	920.623	703.018
205.504	19.113	919.816	701.983
206.519	19.196	918.824	701.503
207.534	19.166	918.329	700.939
208.548	19.132	917.492	700.100
209.563	19.029	917.371	699.530
210.577	19.276	916.166	699.551
211.592	19.394	915.865	699.738
212.607	19.471	915.217	699.494
213.621	19.367	914.479	698.446
214.636	19.167	913.884	697.120
215.650	19.423	913.044	697.450
216.665	19.534	912.770	697.630
217.680	19.447	912.130	696.726
218.694	19.560	911.442	696.597
219.709	19.603	910.494	695.982
220.723	19.410	909.963	694.740
221.738	19.419	909.286	694.197
222.753	19.368	908.398	693.252
223.767	19.676	908.044	694.157
224.782	19.603	907.701	693.542
225.796	19.661	907.315	693.420
226.811	19.479	906.571	692.059
227.826	19.277	905.382	690.281
228.840	19.399	904.817	690.276
229.855	19.380	903.945	689.473
230.869	19.241	903.666	688.646
231.884	19.330	902.761	688.250
232.899	19.314	901.945	687.502
233.913	19.238	901.084	686.483
234.928	19.190	899.957	685.372
235.942	19.004	900.015	684.615
236.957	19.279	899.286	685.096
237.972	19.181	898.586	684.113
238.986	19.071	898.195	683.316
240.001	19.149	897.562	683.084
241.015	19.304	896.802	683.059
242.030	19.188	896.578	682.369
243.045	19.410	895.629	682.466
244.059	19.374	895.349	682.047
245.074	19.452	894.813	681.887
246.088	19.527	894.476	681.867
247.103	19.673	893.342	681.516
248.117	19.862	893.599	682.397
249.132	20.071	893.017	682.716
250.147	20.334	892.447	683.258
251.161	20.459	891.777	683.174
252.176	20.435	891.332	682.678
253.190	20.357	890.875	681.962
254.205	20.492	889.982	681.747
255.220	20.396	889.341	680.819
256.234	20.363	888.886	680.283
257.249	20.453	887.920	679.834
258.263	20.133	887.476	678.185
259.278	20.250	886.703	677.990
260.293	20.360	885.911	677.753
261.307	20.492	885.733	678.072
262.322	20.512	885.081	677.593
263.336	20.500	884.300	676.889
264.351	20.457	883.452	676.011
265.366	20.564	882.976	676.003
266.380	20.407	882.348	674.853
267.395	20.421	881.132	673.916
268.409	20.259	880.487	672.736
269.424	20.238	879.865	672.122
270.439	20.145	879.237	671.222
271.453	20.067	878.515	670.308
272.468	20.085	878.129	670.024
273.482	20.221	877.495	670.007
274.497	20.233	877.041	669.648
275.512	20.244	876.683	669.356
276.526	20.228	876.186	668.856
277.541	20.396	875.442	668.877
278.555	20.554	875.134	669.190
279.570	20.629	874.776	669.146
280.585	20.459	873.623	667.553
281.599	20.557	872.528	667.030
282.614	20.335	872.047	665.753
283.628	20.445	871.414	665.631
284.643	20.229	871.012	664.440
285.657	20.442	870.207	664.581
286.672	20.395	869.360	663.696
287.687	20.327	869.052	663.143
288.701	20.322	868.385	662.556
289.716	20.412	867.781	662.380
290.730	20.333	867.477	661.788
291.745	20.494	866.494	661.592
292.760	20.629	865.874	661.576
293.774	20.765	865.493	661.743
294.789	20.741	864.640	660.939
295.803	20.549	864.142	659.772
296.818	20.432	863.152	658.514
297.833	20.522	862.462	658.272
298.847	20.338	862.449	657.506
299.862	20.590	861.449	657.639
300.876	20.838	860.799	658.021
301.891	20.861	860.528	657.842
302.906	20.852	860.253	657.539
303.920	21.024	859.736	657.734
304.935	20.989	859.484	657.354
305.949	21.063	858.272	656.646
306.964	20.928	857.865	655.768
307.979	20.910	857.550	655.401
308.993	20.957	857.011	655.108
310.008	20.794	856.435	653.998
311.022	20.889	855.692	653.729
312.037	20.658	854.704	652.052
313.052	20.633	853.674	651.114
314.066	20.498	853.675	650.551
315.081	20.336	853.153	649.491
316.095	20.518	852.141	649.343
317.110	20.497	851.964	649.074
318.125	20.490	851.262	648.455
319.139	20.385	851.051	647.842
320.154	20.603	850.138	647.904
321.168	20.720	849.597	647.868
322.183	20.682	849.171	647.345
323.197	20.620	848.751	646.737
324.212	20.758	847.805	646.473
325.227	20.610	847.679	645.771
326.241	20.603	847.059	645.212
327.256	20.421	846.484	644.044
328.270	20.602	845.700	644.061
329.285	20.515	845.309	643.383
330.300	20.624	844.712	643.277
331.314	20.671	844.531	643.255
332.329	20.872	843.942	643.492
333.343	20.918	843.105	642.967
334.358	20.986	842.768	642.903
335.373	21.022	842.639	642.882
336.387	20.932	842.300	642.234
337.402	21.185	841.751	642.689
338.416	21.288	841.668	642.947
339.431	21.333	841.804	643.163
340.446	21.328	841.399	642.775
341.460	21.528	840.792	642.992
342.475	21.437	840.330	642.245
343.489	21.521	839.887	642.160
344.504	21.464	839.736	641.778
345.519	21.662	838.947	641.843
346.533	21.665	838.266	641.275
347.548	21.205	837.888	639.248
348.562	21.177	836.713	638.191
349.577	20.929	836.594	637.139
350.592	20.875	835.840	636.311
351.606	21.041	834.830	636.092
352.621	21.042	834.196	635.556
353.635	20.971	833.790	634.932
354.650	21.051	833.191	634.710
355.665	21.199	832.683	634.804
356.679	21.257	832.263	634.640
357.694	21.335	830.902	633.829
358.708	21.174	830.789	633.102
359.723	21.324	830.131	633.090
360.738	21.282	829.500	632.398
361.752	21.348	828.961	632.169
362.767	21.549	828.350	632.377
363.781	21.677	827.895	632.433
364.796	21.736	827.896	632.592
365.810	21.826	827.522	632.574
366.825	21.989	826.819	632.568
367.840	21.832	826.445	631.661
368.854	21.726	825.946	630.843
369.869	21.705	825.459	630.338
370.883	21.537	825.449	629.670
371.898	21.753	825.108	630.131
372.913	21.882	824.546	630.112
373.927	21.699	824.079	629.041
374.942	21.819	823.325	628.838
375.956	21.926	823.056	628.962
376.971	22.048	822.548	628.954
377.986	22.005	822.303	628.557
379.000	22.154	821.416	628.358
380.015	21.979	821.225	627.529
381.029	21.834	820.660	626.525
382.044	22.003	820.018	626.583
383.059	21.960	819.345	625.860
384.073	21.893	818.651	625.034
385.088	21.693	818.064	623.819
386.102	21.706	817.220	623.169
387.117	21.589	816.831	622.402
388.132	21.748	816.354	622.546
389.146	21.676	815.808	621.818
390.161	21.962	815.249	622.352
391.175	21.950	814.994	622.059
392.190	21.863	814.510	621.326
393.205	21.732	813.641	620.145
394.219	21.607	813.426	619.485
395.234	21.591	813.153	619.167
396.248	21.571	812.032	618.188
397.263	21.617	811.728	618.062
398.278	21.406	811.661	617.211
399.292	21.490	811.091	617.021
400.307	21.360	810.569	616.109
401.321	21.481	810.190	616.193
402.336	21.771	809.718	616.802
403.350	21.891	809.367	616.901
404.365	21.947	809.227	616.937
405.380	22.071	808.730	616.939
406.394	22.183	808.394	617.023
407.409	22.280	808.003	617.010
408.423	22.353	807.187	616.586
409.438	22.480	806.834	616.709
410.453	22.485	806.728	616.588
411.467	22.429	806.353	616.053
412.482	22.533	805.993	616.085
413.496	22.590	805.570	615.906
414.511	22.590	804.715	615.200
415.526	22.600	804.684	615.157
416.540	22.439	804.222	614.188
417.555	22.418	803.580	613.568
418.569	22.524	803.251	613.632
419.584	22.453	802.949	613.099
420.599	22.561	802.350	612.964
421.613	162.945	1369.018	1794.904
422.628	141.646	1451.597	1795.004
