DTS Sentinel unit serial number:	SN413079Multiplexer serial number:	ORYXHardware model number:	OX4-SRSoftware version number:	ORYX F/W v4.00 Oryx Data Collector v3.7.2.0data status	okinstallation	princeton_trtdifferential loss correction	single-endedforward channel	channel 1reverse channel	N/Adate	2019/09/15time	15:06:35forward acquisition time	60.00reverse acquisition time	0.00gamma	496.2192k internal	0.2292k external	0.2292temperature offset calibration	0.9948default loss term (dB/km)	0.3790temperature slope calibration	1.0000multiplexer offset coefficient	1.0000multiplexer slope coefficient	1.0000fibre end	0.00T internal ref (°C)	40.37T ext. ref 1 (°C)	4.93T ext. ref 2 (°C)	37.56length (m)	temperature (°C)	Stokes	anti-Stokes-747.200	-22.761	-0.170	0.105
-746.185	800.000	-0.034	-0.131
-745.171	471.515	-0.087	0.200
-744.156	800.000	-0.078	0.343
-743.142	117.136	0.178	0.224
-742.127	-110.674	-0.213	0.045
-741.112	-90.617	0.283	-0.084
-740.098	-121.120	-0.243	0.042
-739.083	668.951	-0.106	-0.280
-738.069	316.672	0.164	0.318
-737.054	417.218	-0.043	-0.093
-736.039	-175.598	0.421	0.012
-735.025	-152.112	-0.387	0.029
-734.010	-200.000	-0.019	-0.098
-732.996	-200.000	0.016	0.157
-731.981	-42.170	-0.174	0.091
-730.966	-0.792	0.217	-0.157
-729.952	-200.000	0.041	0.218
-728.937	-58.480	-0.289	0.128
-727.923	-200.000	0.050	-0.233
-726.908	-52.461	-0.105	0.050
-725.894	43.502	0.123	-0.115
-724.879	-6.152	-0.270	-0.189
-723.864	324.172	-0.066	-0.129
-722.850	-73.840	0.312	0.116
-721.835	272.353	-0.105	-0.190
-720.821	-87.375	-0.116	-0.036
-719.806	-56.083	-0.581	-0.265
-718.791	-80.924	-0.222	0.075
-717.777	-200.000	0.053	0.261
-716.762	41.344	0.222	0.205
-715.748	-200.000	0.039	-0.290
-714.733	-24.225	-0.192	0.117
-713.718	-200.000	-0.033	-0.213
-712.704	363.119	-0.031	-0.063
-711.689	25.372	0.256	-0.217
-710.675	-200.000	-0.019	-0.153
-709.660	35.431	-0.096	0.086
-708.645	125.454	-0.082	0.105
-707.631	133.037	-0.185	0.244
-706.616	-7.780	0.397	-0.274
-705.602	788.750	-0.098	0.275
-704.587	-200.000	-0.013	0.248
-703.572	68.497	0.159	-0.167
-702.558	800.000	0.121	-0.381
-701.543	-83.000	0.423	0.139
-700.529	-200.000	0.020	-0.163
-699.514	-200.000	-0.045	-0.209
-698.499	60.920	-0.058	-0.058
-697.485	-10.094	0.053	-0.036
-696.470	212.807	-0.085	0.137
-695.456	800.000	0.045	0.142
-694.441	-63.014	-0.128	-0.054
-693.426	-127.997	0.068	0.010
-692.412	20.273	0.058	-0.048
-691.397	-4.593	0.228	0.161
-690.383	51.729	-0.218	0.212
-689.368	-106.004	-0.306	-0.070
-688.354	-45.254	-0.255	-0.129
-687.339	-70.045	0.098	0.038
-686.324	-106.545	0.104	0.024
-685.310	199.406	-0.109	0.171
-684.295	344.291	0.132	0.265
-683.281	-200.000	-0.043	-0.276
-682.266	436.412	-0.140	0.312
-681.251	6.092	-0.169	-0.128
-680.237	-156.881	0.164	-0.010
-679.222	-115.079	-0.474	-0.092
-678.208	-200.000	-0.033	-0.220
-677.193	-71.469	0.305	-0.117
-676.178	125.689	0.171	0.220
-675.164	72.540	-0.020	0.021
-674.149	113.027	-0.143	0.177
-673.135	42.569	-0.193	-0.179
-672.120	-163.931	0.413	-0.020
-671.105	643.953	-0.108	0.280
-670.091	-146.301	-0.465	-0.042
-669.076	64.874	-0.234	-0.241
-668.062	181.992	-0.252	-0.379
-667.047	315.410	-0.071	-0.136
-666.032	-184.749	0.113	-0.002
-665.018	-101.389	0.357	-0.089
-664.003	64.451	0.045	-0.047
-662.989	80.622	0.126	0.138
-661.974	800.000	-0.045	-0.130
-660.959	-53.506	-0.114	-0.053
-659.945	-200.000	0.073	-0.358
-658.930	-113.096	0.050	0.010
-657.916	79.956	-0.101	-0.110
-656.901	-200.000	-0.013	0.334
-655.886	-95.113	-0.249	-0.068
-654.872	-41.285	-0.228	0.120
-653.857	-200.000	0.034	-0.174
-652.843	-99.667	-0.243	-0.062
-651.828	-200.000	0.149	-0.001
-650.814	-92.167	-0.129	-0.037
-649.799	21.908	-0.062	-0.052
-648.784	701.272	0.117	-0.313
-647.770	10.836	-0.245	-0.191
-646.755	-117.505	-0.235	-0.043
-645.741	131.979	-0.174	0.229
-644.726	-96.374	-0.021	-0.006
-643.711	-200.000	0.075	-0.426
-642.697	-81.233	-0.177	-0.060
-641.682	61.703	-0.271	-0.275
-640.668	706.408	0.162	0.437
-639.653	-64.995	0.180	-0.074
-638.638	-21.738	0.046	-0.029
-637.624	252.841	-0.077	-0.133
-636.609	-12.247	0.106	-0.071
-635.595	800.000	-0.067	-0.205
-634.580	101.949	0.050	-0.060
-633.565	187.141	0.067	0.101
-632.551	-12.584	-0.234	-0.155
-631.536	-92.929	0.206	0.059
-630.522	155.831	0.103	-0.144
-629.507	-141.720	-0.166	0.017
-628.492	360.741	0.062	0.126
-627.478	-62.976	0.266	-0.112
-626.463	-5.855	-0.138	0.096
-625.449	60.229	-0.083	-0.084
-624.434	800.000	0.075	-0.218
-623.419	-52.836	-0.238	-0.112
-622.405	31.095	-0.080	0.070
-621.390	268.406	-0.064	0.115
-620.376	122.265	-0.177	-0.225
-619.361	-200.000	-0.090	-0.452
-618.346	-63.534	-0.265	0.111
-617.332	-144.502	-0.132	0.012
-616.317	265.947	-0.200	-0.355
-615.303	-154.946	-0.322	-0.022
-614.288	297.708	0.178	0.333
-613.273	-78.048	-0.359	-0.126
-612.259	779.330	-0.107	-0.297
-611.244	-30.779	0.193	-0.111
-610.230	-102.812	0.348	0.084
-609.215	-94.546	0.237	0.066
-608.201	800.000	0.046	0.137
-607.186	800.000	0.041	0.140
-606.171	-132.252	0.310	0.041
-605.157	334.187	0.087	-0.171
-604.142	-100.953	0.175	-0.044
-603.128	-22.510	0.219	-0.135
-602.113	102.089	-0.097	-0.115
-601.098	161.501	-0.096	0.137
-600.084	153.608	0.118	-0.165
-599.069	365.460	-0.116	0.237
-598.055	-200.000	0.018	0.208
-597.040	800.000	0.024	-0.075
-596.025	800.000	-0.046	-0.151
-595.011	-200.000	-0.034	0.178
-593.996	271.434	0.167	0.300
-592.982	-128.911	-0.224	0.032
-591.967	-97.337	-0.293	-0.078
-590.952	-58.089	0.076	-0.034
-589.938	-64.626	-0.238	-0.098
-588.923	336.202	-0.104	-0.205
-587.909	19.368	0.227	0.186
-586.894	156.020	0.126	-0.176
-585.879	44.605	-0.149	-0.140
-584.865	-92.316	0.188	0.054
-583.850	800.000	-0.011	0.039
-582.836	-14.079	-0.063	-0.041
-581.821	-24.071	0.207	0.126
-580.806	-200.000	-0.005	-0.112
-579.792	-172.452	0.237	-0.008
-578.777	-177.509	0.164	0.004
-577.763	-90.794	-0.394	0.115
-576.748	236.482	-0.094	0.159
-575.733	41.919	0.137	0.127
-574.719	300.011	-0.059	-0.110
-573.704	646.504	0.051	0.132
-572.690	-31.718	-0.277	-0.158
-571.675	428.512	-0.105	-0.231
-570.661	800.000	0.034	-0.112
-569.646	800.000	-0.117	0.330
-568.631	-161.621	-0.118	-0.006
-567.617	291.884	0.022	0.040
-566.602	356.028	-0.026	-0.052
-565.588	660.743	0.044	-0.115
-564.573	-29.603	0.227	-0.132
-563.558	800.000	-0.023	-0.097
-562.544	-72.268	-0.254	0.096
-561.529	800.000	0.075	0.229
-560.515	-89.775	-0.222	-0.066
-559.500	14.891	-0.230	-0.183
-558.485	800.000	0.063	-0.197
-557.471	-185.572	-0.139	0.002
-556.456	-85.336	-0.097	-0.031
-555.442	664.884	-0.034	0.089
-554.427	-147.740	-0.139	-0.012
-553.412	-95.341	-0.245	0.067
-552.398	-110.693	-0.206	0.043
-551.383	800.000	0.036	0.132
-550.369	3.038	0.336	-0.248
-549.354	-115.998	-0.253	-0.048
-548.339	56.059	-0.333	-0.328
-547.325	463.103	0.059	-0.133
-546.310	-200.000	-0.077	-0.397
-545.296	230.582	0.107	-0.177
-544.281	83.665	-0.097	0.108
-543.266	-72.260	-0.089	0.034
-542.252	-200.000	0.011	0.117
-541.237	800.000	-0.036	0.143
-540.223	-140.944	-0.278	0.029
-539.208	301.501	-0.139	-0.261
-538.193	-130.270	0.398	-0.055
-537.179	-64.514	-0.304	-0.125
-536.164	-200.000	0.018	-0.129
-535.150	-65.949	-0.148	-0.060
-534.135	-200.000	-0.018	-0.192
-533.121	241.784	0.110	-0.187
-532.106	39.124	-0.038	0.035
-531.091	800.000	-0.060	0.241
-530.077	463.783	0.050	0.113
-529.062	-200.000	0.041	-0.277
-528.048	-200.000	0.133	0.000
-527.033	-63.468	0.017	0.007
-526.018	24.911	0.100	0.085
-525.004	-200.000	-0.011	-0.077
-523.989	-200.000	0.003	-0.049
-522.975	-23.917	-0.116	-0.071
-521.960	-200.000	-0.010	0.282
-520.945	179.423	-0.092	0.137
-519.931	15.163	-0.256	-0.204
-518.916	-200.000	0.068	-0.356
-517.902	-36.265	0.302	0.165
-516.887	136.716	0.093	-0.124
-515.872	-103.420	0.171	-0.041
-514.858	90.085	-0.167	-0.189
-513.843	79.010	0.089	0.097
-512.829	-139.507	-0.065	0.007
-511.814	161.609	-0.110	-0.156
-510.799	269.596	-0.136	0.242
-509.785	-200.000	-0.012	-0.248
-508.770	19.469	-0.011	-0.009
-507.756	713.202	0.067	-0.180
-506.741	25.402	-0.056	-0.047
-505.726	250.233	0.124	0.214
-504.712	-29.811	-0.039	-0.023
-503.697	-44.215	0.141	0.072
-502.683	273.871	-0.126	0.226
-501.668	15.534	-0.197	0.157
-500.653	-117.027	-0.225	0.042
-499.639	-108.958	0.142	0.031
-498.624	-200.000	0.020	0.282
-497.610	199.045	-0.092	0.143
-496.595	61.073	0.215	0.217
-495.581	12.416	0.145	0.113
-494.566	-16.641	-0.066	-0.042
-493.551	-59.958	0.227	0.098
-492.537	30.485	-0.103	-0.089
-491.522	-71.889	0.160	0.060
-490.508	229.305	0.026	0.043
-489.493	800.000	-0.022	0.085
-488.478	-153.731	-0.233	-0.016
-487.464	87.595	-0.081	0.091
-486.449	320.187	0.173	-0.334
-485.435	-75.058	-0.223	-0.081
-484.420	-200.000	0.009	0.194
-483.405	-58.574	-0.173	-0.076
-482.391	311.894	0.213	-0.404
-481.376	310.038	0.165	-0.314
-480.362	-6.610	-0.145	-0.100
-479.347	-97.741	-0.304	0.080
-478.332	-59.887	-0.092	-0.040
-477.318	-108.314	-0.315	-0.069
-476.303	391.058	-0.119	-0.249
-475.289	445.552	0.138	0.306
-474.274	447.075	-0.080	-0.178
-473.259	-113.130	-0.145	0.029
-472.245	-89.136	-0.415	0.124
-471.230	800.000	-0.092	0.358
-470.216	800.000	0.048	0.154
-469.201	-200.000	0.046	-0.220
-468.186	98.009	0.101	-0.117
-467.172	-200.000	-0.019	-0.123
-466.157	22.106	-0.087	-0.072
-465.143	-200.000	0.027	0.189
-464.128	474.499	0.062	-0.141
-463.113	25.050	0.145	-0.122
-462.099	-117.728	-0.133	-0.024
-461.084	-13.124	0.085	0.056
-460.070	-25.445	-0.403	0.241
-459.055	-200.000	-0.031	0.244
-458.040	-200.000	0.045	0.255
-457.026	253.748	-0.246	0.425
-456.011	-134.998	0.118	-0.014
-454.997	-66.400	-0.236	-0.095
-453.982	-112.571	0.140	0.028
-452.968	800.000	0.113	0.436
-451.953	182.456	0.081	-0.121
-450.938	-45.360	0.112	-0.056
-449.924	-171.808	0.043	-0.001
-448.909	-111.950	0.125	-0.026
-447.895	-200.000	0.441	-0.001
-446.880	-5.747	0.078	0.054
-445.865	682.855	-0.139	0.368
-444.851	-130.336	-0.070	0.010
-443.836	-200.000	-0.028	-0.234
-442.822	-56.358	-0.217	0.097
-441.807	148.340	-0.059	0.080
-440.792	-200.000	0.027	0.337
-439.778	800.000	-0.059	0.170
-438.763	-81.859	0.408	0.135
-437.749	-200.000	-0.048	0.214
-436.734	-174.478	-0.422	0.012
-435.719	800.000	-0.064	-0.248
-434.705	-45.782	0.167	0.084
-433.690	7.040	-0.287	0.216
-432.676	27.192	-0.217	-0.184
-431.661	-62.401	-0.072	0.030
-430.646	1.444	0.197	0.143
-429.632	-48.912	-0.206	-0.100
-428.617	-146.984	-0.160	-0.014
-427.603	-59.764	-0.238	-0.103
-426.588	-200.000	0.053	0.325
-425.573	-105.487	0.099	-0.023
-424.559	-200.000	0.005	-0.107
-423.544	29.049	-0.211	0.181
-422.530	-200.000	0.016	0.126
-421.515	646.863	0.106	0.274
-420.500	-87.485	-0.162	-0.049
-419.486	-200.000	0.030	-0.283
-418.471	109.346	-0.237	-0.287
-417.457	56.029	0.205	-0.201
-416.442	-81.395	0.302	-0.101
-415.428	-63.487	0.026	-0.011
-414.413	289.922	0.100	-0.183
-413.398	49.169	0.341	-0.324
-412.384	800.000	-0.057	0.248
-411.369	-17.056	-0.372	-0.237
-410.355	800.000	0.097	0.285
-409.340	36.931	0.078	0.069
-408.325	-200.000	-0.045	0.289
-407.311	800.000	0.022	0.064
-406.296	80.285	-0.420	-0.456
-405.282	-1.454	0.178	-0.127
-404.267	142.440	0.194	0.261
-403.252	197.779	-0.043	0.066
-402.238	-175.883	0.416	-0.011
-401.223	47.965	-0.117	-0.110
-400.209	-138.412	-0.165	0.018
-399.194	-200.000	0.017	-0.163
-398.179	-84.965	-0.145	0.046
-397.165	-47.426	0.268	0.132
-396.150	302.102	-0.086	-0.161
-395.136	-200.000	0.031	0.139
-394.121	-30.375	-0.199	-0.114
-393.106	-200.000	0.007	0.261
-392.092	401.772	-0.056	0.118
-391.077	-200.000	-0.003	0.109
-390.063	427.603	-0.104	-0.226
-389.048	32.900	-0.071	-0.062
-388.033	130.061	-0.034	-0.044
-387.019	134.752	-0.055	-0.072
-386.004	101.701	-0.114	0.134
-384.990	-200.000	-0.046	0.445
-383.975	27.578	-0.278	-0.236
-382.960	467.194	-0.073	-0.165
-381.946	-200.000	-0.016	-0.260
-380.931	-81.648	-0.449	-0.149
-379.917	18.391	-0.108	0.087
-378.902	-200.000	-0.063	0.305
-377.888	-200.000	0.004	0.269
-376.873	284.495	0.089	-0.162
-375.858	-200.000	0.001	0.252
-374.844	-68.250	0.117	-0.046
-373.829	-66.563	0.203	-0.081
-372.815	-200.000	0.011	-0.095
-371.800	-40.054	0.152	-0.080
-370.785	-200.000	0.009	0.063
-369.771	136.131	0.039	0.052
-368.756	800.000	0.084	-0.244
-367.742	42.434	0.045	0.042
-366.727	-100.622	0.121	-0.030
-365.712	95.582	-0.194	0.223
-364.698	568.578	-0.156	0.383
-363.683	-114.050	-0.177	-0.035
-362.669	-41.264	-0.322	-0.167
-361.654	-140.361	0.328	-0.035
-360.639	28.193	0.076	-0.064
-359.625	-88.183	0.227	-0.069
-358.610	-74.377	-0.113	-0.041
-357.596	-62.258	0.186	-0.078
-356.581	-152.163	0.212	0.016
-355.566	270.466	0.175	0.311
-354.552	-104.417	-0.273	0.064
-353.537	-159.821	0.098	-0.005
-352.523	203.327	0.037	-0.058
-351.508	359.824	0.088	0.177
-350.493	-6.469	0.092	0.063
-349.479	-79.956	-0.231	-0.078
-348.464	-78.411	0.262	-0.091
-347.450	-105.885	0.270	-0.061
-346.435	800.000	-0.121	-0.399
-345.420	800.000	-0.060	-0.262
-344.406	-116.094	0.224	0.042
-343.391	710.541	-0.066	-0.177
-342.377	800.000	0.030	0.092
-341.362	-200.000	0.011	0.116
-340.348	-177.481	-0.304	0.007
-339.333	-200.000	0.033	0.152
-338.318	-101.452	0.041	-0.010
-337.304	-89.638	-0.140	0.041
-336.289	347.470	0.037	-0.073
-335.275	-89.069	0.058	-0.017
-334.260	-165.639	0.219	0.010
-333.245	280.207	-0.122	-0.220
-332.231	435.221	0.175	0.382
-331.216	-25.657	-0.058	-0.035
-330.202	-57.144	0.284	0.126
-329.187	52.956	0.274	0.264
-328.172	-131.922	-0.705	0.093
-327.158	-130.748	0.171	-0.023
-326.143	800.000	0.066	0.290
-325.129	650.708	-0.106	-0.273
-324.114	292.818	-0.139	-0.256
-323.099	152.097	-0.224	-0.307
-322.085	800.000	-0.062	0.223
-321.070	-127.636	0.222	-0.032
-320.056	-83.473	0.212	0.068
-319.041	767.257	0.126	0.344
-318.026	43.239	0.077	0.070
-317.012	105.504	0.154	0.183
-315.997	-200.000	0.515	-0.001
-314.983	-159.039	0.217	-0.012
-313.968	73.757	-0.075	-0.079
-312.953	800.000	0.061	0.255
-311.939	-53.161	-0.084	0.039
-310.924	-179.291	0.216	-0.005
-309.910	590.398	0.084	0.208
-308.895	439.669	0.057	0.125
-307.880	-200.000	0.001	-0.070
-306.866	25.714	0.155	-0.130
-305.851	648.236	-0.024	-0.061
-304.837	214.014	-0.182	0.290
-303.822	296.129	0.173	0.319
-302.807	-168.358	-0.382	0.015
-301.793	10.000	0.095	0.073
-300.778	800.000	-0.093	0.358
-299.764	314.066	0.118	0.224
-298.749	372.420	0.081	0.166
-297.735	386.329	0.075	0.157
-296.720	300.240	-0.100	-0.186
-295.705	273.216	0.238	-0.422
-294.691	-139.382	0.082	-0.009
-293.676	-88.206	0.289	-0.087
-292.662	-82.426	-0.235	0.077
-291.647	134.485	-0.139	-0.182
-290.632	-200.000	0.022	0.356
-289.618	250.322	0.056	-0.096
-288.603	545.532	0.078	0.188
-287.589	-163.258	-0.365	0.018
-286.574	-126.468	0.406	-0.061
-285.559	-200.000	0.065	-0.300
-284.545	-74.147	0.072	0.026
-283.530	58.185	0.167	-0.165
-282.516	468.662	0.154	0.349
-281.501	38.215	0.474	0.424
-280.486	-200.000	-0.016	-0.087
-279.472	-90.893	-0.179	0.052
-278.457	-28.291	0.145	0.084
-277.443	256.221	0.054	0.093
-276.428	-98.703	0.096	-0.025
-275.413	-103.888	-0.337	-0.079
-274.399	128.676	0.178	-0.228
-273.384	-83.636	0.330	-0.106
-272.370	196.413	0.045	0.069
-271.355	-9.105	-0.069	0.047
-270.340	-2.641	0.092	-0.064
-269.326	-200.000	0.019	-0.104
-268.311	800.000	-0.059	0.257
-267.297	-54.741	0.258	-0.117
-266.282	216.383	-0.090	-0.144
-265.267	-200.000	0.016	-0.083
-264.253	1.933	-0.225	0.163
-263.238	-200.000	0.047	0.000
-262.224	800.000	0.048	0.203
-261.209	800.000	-0.080	-0.269
-260.195	227.384	0.163	0.266
-259.180	800.000	0.100	0.312
-258.165	260.418	-0.170	-0.296
-257.151	85.413	0.182	0.201
-256.136	800.000	0.058	0.163
-255.122	-58.737	-0.304	-0.132
-254.107	-86.559	0.213	0.066
-253.092	110.366	0.181	0.218
-252.078	-102.633	-0.100	0.024
-251.063	-91.117	0.307	-0.088
-250.049	335.068	-0.016	0.030
-249.034	-71.966	0.121	-0.045
-248.019	612.079	-0.041	-0.103
-247.005	-15.594	0.245	0.157
-245.990	-70.713	-0.082	-0.031
-244.976	389.149	0.171	-0.355
-243.961	-85.354	0.266	-0.083
-242.946	-166.110	0.026	-0.001
-241.932	-42.185	0.472	-0.242
-240.917	-52.553	-0.348	0.161
-239.903	800.000	0.094	0.305
-238.888	-73.489	-0.196	-0.072
-237.873	-154.834	0.182	-0.012
-236.859	112.597	-0.125	-0.152
-235.844	-91.510	0.488	-0.140
-234.830	-29.350	0.266	0.153
-233.815	-143.186	-0.107	0.010
-232.800	-200.000	-0.029	-0.383
-231.786	-95.528	0.064	-0.017
-230.771	-200.000	-0.062	-0.278
-229.757	0.247	-0.064	-0.045
-228.742	224.520	-0.141	-0.229
-227.727	-150.325	0.172	0.013
-226.713	-124.629	-0.205	-0.032
-225.698	-200.000	0.011	0.140
-224.684	-200.000	0.023	0.132
-223.669	-15.123	0.108	0.069
-222.655	195.495	0.114	0.174
-221.640	-200.000	-0.026	0.120
-220.625	14.310	0.185	0.145
-219.611	52.337	0.148	0.142
-218.596	14.463	-0.161	-0.126
-217.582	7.119	-0.085	-0.064
-216.567	-70.628	0.143	0.054
-215.552	35.103	-0.153	-0.135
-214.538	80.737	0.178	-0.193
-213.523	97.206	-0.223	0.257
-212.509	-99.762	0.165	-0.041
-211.494	-68.872	0.120	-0.047
-210.479	33.166	-0.147	-0.128
-209.465	-200.000	-0.031	-0.291
-208.450	-200.000	0.014	0.200
-207.436	-200.000	-0.019	-0.155
-206.421	800.000	0.126	0.511
-205.406	510.350	0.059	-0.137
-204.392	800.000	0.062	0.258
-203.377	-133.824	0.192	-0.024
-202.363	-107.368	-0.134	0.029
-201.348	-79.306	-0.408	0.138
-200.333	-15.047	0.257	-0.165
-199.319	-135.555	-0.187	-0.022
-198.304	47.684	0.075	0.070
-197.290	514.710	0.060	-0.141
-196.275	800.000	-0.045	-0.197
-195.260	147.280	0.186	-0.250
-194.246	-20.530	0.292	-0.180
-193.231	52.294	-0.236	-0.225
-192.217	800.000	0.047	0.204
-191.202	-200.000	-0.053	0.572
-190.187	800.000	-0.041	0.122
-189.173	168.460	0.122	0.174
-188.158	800.000	0.050	0.146
-187.144	-29.447	0.351	-0.201
-186.129	-52.861	-0.151	-0.070
-185.114	-200.000	-0.034	-0.260
-184.100	-149.350	0.051	-0.004
-183.085	-81.423	0.313	-0.103
-182.071	-104.892	0.442	0.102
-181.056	-56.461	-0.152	-0.068
-180.042	575.491	0.129	0.316
-179.027	-2.498	0.084	-0.059
-178.012	81.875	-0.267	0.290
-176.998	-200.000	-0.040	0.422
-175.983	-123.990	-0.186	0.029
-174.969	-158.778	-0.198	-0.011
-173.954	306.644	-0.121	-0.225
-172.939	394.595	0.091	-0.190
-171.925	526.880	0.135	0.317
-170.910	-200.000	0.012	0.159
-169.896	-200.000	0.027	-0.135
-168.881	-200.000	0.032	-0.212
-167.866	-129.293	0.087	-0.012
-166.852	-64.272	-0.463	0.189
-165.837	-200.000	0.000	0.240
-164.823	266.421	0.174	0.304
-163.808	-200.000	-0.030	0.230
-162.793	418.821	-0.047	-0.100
-161.779	-45.106	0.280	-0.139
-160.764	-42.106	-0.162	-0.083
-159.750	-41.394	0.038	0.020
-158.735	-200.000	-0.057	-0.341
-157.720	543.198	-0.109	-0.261
-156.706	800.000	-0.101	-0.423
-155.691	-200.000	0.007	0.115
-154.677	248.843	-0.146	-0.248
-153.662	224.737	-0.192	-0.311
-152.647	85.974	-0.049	-0.054
-151.633	198.336	0.118	0.181
-150.618	-100.278	-0.088	0.022
-149.604	-89.492	-0.150	-0.044
-148.589	800.000	0.070	0.225
-147.574	-160.947	0.221	0.012
-146.560	422.830	0.101	0.218
-145.545	290.639	0.097	-0.177
-144.531	-116.673	0.255	0.047
-143.516	65.457	-0.009	0.009
-142.502	429.901	-0.102	-0.221
-141.487	62.495	-0.150	-0.150
-140.472	-45.668	-0.243	0.120
-139.458	161.261	-0.074	-0.104
-138.443	106.603	-0.119	0.141
-137.429	800.000	0.033	0.144
-136.414	-59.715	0.277	0.119
-135.399	-141.449	0.175	-0.018
-134.385	-56.722	0.161	-0.071
-133.370	76.624	0.216	0.229
-132.356	-63.501	-0.110	0.045
-131.341	614.752	0.053	0.132
-130.326	70.410	0.256	0.264
-129.312	176.769	0.033	0.048
-128.297	440.992	-0.104	-0.228
-127.283	800.000	0.075	-0.251
-126.268	21.797	0.207	0.168
-125.253	45.877	0.146	0.135
-124.239	-67.196	0.038	-0.015
-123.224	-86.599	-0.064	-0.020
-122.210	-200.000	-0.015	-0.245
-121.195	426.159	0.073	-0.157
-120.180	-79.572	0.215	0.073
-119.166	333.404	0.188	-0.363
-118.151	38.083	0.325	0.289
-117.137	-114.599	-0.273	-0.052
-116.122	98.862	-0.217	0.250
-115.107	69.749	-0.115	0.118
-114.093	-61.896	0.327	-0.136
-113.078	-26.945	-0.405	-0.236
-112.064	23.373	-0.214	0.176
-111.049	171.424	-0.117	0.167
-110.034	657.708	-0.095	0.245
-109.020	97.268	-0.211	0.242
-108.005	800.000	-0.077	-0.250
-106.991	-200.000	-0.012	-0.195
-105.976	-135.683	0.250	0.030
-104.962	-200.000	-0.033	0.187
-103.947	-200.000	0.151	0.001
-102.932	-14.558	0.180	-0.115
-101.918	-91.652	-0.358	-0.102
-100.903	498.982	-0.148	0.341
-99.889	800.000	0.068	-0.208
-98.874	-60.786	-0.172	-0.073
-97.859	-200.000	-0.004	0.045
-96.845	199.296	-0.127	-0.194
-95.830	-161.312	-0.102	-0.005
-94.816	-79.041	0.279	-0.095
-93.801	44.236	0.048	-0.044
-92.786	800.000	-0.026	-0.076
-91.772	-200.000	0.038	-0.206
-90.757	-137.693	0.202	-0.023
-89.743	-89.342	0.263	-0.077
-88.728	140.392	-0.133	-0.175
-87.713	48.361	-0.323	-0.302
-86.699	800.000	0.030	-0.096
-85.684	716.133	-0.039	0.102
-84.670	338.302	0.132	0.255
-83.655	-200.000	0.034	0.342
-82.640	180.769	0.149	-0.218
-81.626	-183.635	-0.074	0.001
-80.611	166.831	-0.065	-0.092
-79.597	-200.000	-0.015	-0.289
-78.582	800.000	0.049	-0.177
-77.567	25.878	0.157	0.130
-76.553	-200.000	0.002	0.281
-75.538	583.187	-0.052	-0.128
-74.524	-12.265	0.187	-0.122
-73.509	-84.143	0.158	0.050
-72.494	800.000	-0.045	0.165
-71.480	-80.505	0.330	0.110
-70.465	-65.060	0.210	-0.085
-69.451	203.729	0.202	0.312
-68.436	26.643	0.037	0.031
-67.422	133.417	-0.148	-0.191
-66.407	-86.397	-0.122	0.037
-65.392	-200.000	0.012	-0.134
-64.378	-200.000	0.039	0.245
-63.363	-38.641	-0.316	0.166
-62.349	-46.834	0.209	0.102
-61.334	157.708	-0.582	-0.803
-60.319	-200.000	0.055	0.308
-59.305	555.406	-0.217	-0.520
-58.290	304.987	0.437	0.808
-57.276	609.781	0.731	1.820
-56.261	-200.000	76.576	513.992
-55.246	513.894	1336.545	3106.154
-54.232	144.304	2575.027	3424.390
-53.217	116.264	2237.409	2731.223
-52.203	52.194	1679.333	1594.956
-51.188	44.126	1402.144	1280.980
-50.173	40.366	1356.699	1216.383
-49.159	58.999	1391.047	1362.926
-48.144	65.406	1410.009	1421.066
-47.130	44.571	1373.265	1257.149
-46.115	40.596	1356.310	1217.251
-45.100	40.309	1351.908	1211.497
-44.086	40.159	1349.491	1208.368
-43.071	40.190	1346.788	1206.091
-42.057	40.251	1344.539	1204.399
-41.042	40.179	1343.104	1202.630
-40.027	40.175	1341.786	1201.376
-39.013	40.336	1339.624	1200.366
-37.998	40.235	1337.888	1198.153
-36.984	40.273	1336.024	1196.670
-35.969	40.258	1334.883	1195.509
-34.954	40.596	1332.046	1194.954
-33.940	40.412	1331.143	1192.990
-32.925	40.540	1329.720	1192.437
-31.911	40.559	1328.415	1191.335
-30.896	40.678	1326.144	1189.966
-29.881	40.446	1325.798	1188.216
-28.867	40.459	1323.855	1186.506
-27.852	40.489	1322.471	1185.398
-26.838	40.497	1320.971	1184.051
-25.823	40.453	1320.028	1182.895
-24.809	40.525	1318.560	1181.964
-23.794	40.438	1316.728	1179.758
-22.779	40.435	1315.382	1178.486
-21.765	40.440	1313.987	1177.223
-20.750	40.546	1312.257	1176.255
-19.736	40.390	1311.318	1174.440
-18.721	40.220	1310.521	1172.671
-17.706	40.324	1309.140	1172.002
-16.692	40.222	1307.980	1170.318
-15.677	40.379	1307.031	1170.347
-14.663	40.359	1305.901	1169.172
-13.648	40.336	1304.661	1167.880
-12.633	40.281	1303.686	1166.635
-11.619	40.384	1302.228	1165.893
-10.604	40.293	1301.589	1164.738
-9.590	40.374	1300.694	1164.367
-8.575	40.186	1299.926	1162.530
-7.560	40.263	1299.259	1162.338
-6.546	40.221	1298.472	1161.344
-5.531	40.151	1297.691	1160.184
-4.517	40.295	1296.222	1159.672
-3.502	40.340	1295.117	1158.902
-2.487	40.434	1294.370	1158.736
-1.473	40.335	1291.139	1155.219
-0.458	39.673	1276.787	1138.512
0.556	34.509	1257.846	1099.478
1.571	30.300	1261.008	1077.760
2.586	28.486	1275.679	1079.536
3.600	26.764	1264.577	1059.983
4.615	20.421	1188.360	961.032
5.629	10.428	1106.757	843.213
6.644	5.355	1083.550	799.563
7.659	4.862	1080.650	794.832
8.673	4.800	1079.125	793.325
9.688	4.695	1078.332	792.142
10.702	5.147	1077.249	793.574
11.717	11.167	1086.091	830.794
12.731	18.713	1096.605	877.483
13.746	19.574	1096.368	881.610
14.761	17.717	1093.178	869.505
15.775	16.577	1090.554	861.537
16.790	15.416	1088.660	854.063
17.804	14.713	1087.008	849.118
18.819	14.245	1085.822	845.737
19.834	14.056	1085.129	844.163
20.848	13.759	1084.180	841.844
21.863	13.481	1083.460	839.799
22.877	13.376	1082.458	838.418
23.892	13.467	1081.607	838.145
24.907	13.356	1081.107	837.122
25.921	13.375	1079.557	835.944
26.936	13.428	1078.735	835.502
27.950	13.537	1077.149	834.748
28.965	13.659	1075.483	833.997
29.980	13.629	1073.815	832.480
30.994	13.703	1072.713	831.919
32.009	13.717	1071.554	831.018
33.023	13.567	1071.096	829.841
34.038	13.520	1070.101	828.761
35.053	13.574	1068.436	827.668
36.067	13.553	1068.027	827.169
37.082	13.637	1067.225	826.895
38.096	13.675	1066.269	826.272
39.111	13.605	1065.863	825.535
40.126	13.527	1064.489	824.012
41.140	13.406	1062.988	822.172
42.155	13.174	1062.567	820.624
43.169	13.352	1061.058	820.266
44.184	13.314	1059.749	818.996
45.199	13.326	1058.872	818.307
46.213	13.377	1057.997	817.810
47.228	13.380	1057.018	816.995
48.242	13.480	1056.038	816.659
49.257	13.407	1054.930	815.368
50.271	13.554	1053.696	815.067
51.286	13.556	1052.830	814.333
52.301	13.445	1052.103	813.153
53.315	13.420	1050.901	812.030
54.330	13.386	1050.034	811.124
55.344	13.320	1049.333	810.186
56.359	13.517	1047.883	809.957
57.374	13.401	1047.192	808.788
58.388	13.295	1046.421	807.603
59.403	13.241	1045.707	806.716
60.417	13.255	1044.771	805.990
61.432	13.188	1044.129	805.095
62.447	13.216	1043.089	804.362
63.461	13.246	1042.176	803.731
64.476	13.256	1041.322	803.048
65.490	13.167	1040.958	802.265
66.505	13.211	1039.660	801.407
67.520	13.329	1038.855	801.286
68.534	13.262	1038.459	800.589
69.549	13.293	1037.974	800.295
70.563	13.181	1037.044	798.965
71.578	13.125	1036.280	798.031
72.593	13.242	1035.117	797.629
73.607	13.044	1034.716	796.298
74.622	13.203	1033.571	796.110
75.636	13.202	1033.445	795.939
76.651	13.213	1032.617	795.283
77.666	13.150	1031.803	794.285
78.680	13.289	1030.983	794.248
79.695	13.246	1031.020	793.999
80.709	13.301	1029.728	793.202
81.724	13.304	1028.979	792.566
82.739	13.389	1028.351	792.422
83.753	13.388	1027.595	791.761
84.768	13.717	1026.374	792.325
85.782	13.706	1025.948	791.875
86.797	13.592	1025.382	790.820
87.812	13.460	1024.506	789.447
88.826	13.485	1023.141	788.442
89.841	13.339	1022.645	787.296
90.855	13.537	1021.221	787.071
91.870	13.517	1020.658	786.474
92.884	13.608	1019.520	785.957
93.899	13.627	1018.776	785.405
94.914	13.765	1018.208	785.551
95.928	13.629	1017.567	784.342
96.943	13.686	1016.180	783.477
97.957	13.496	1015.784	782.204
98.972	13.615	1014.335	781.579
99.987	13.515	1013.951	780.744
101.001	13.614	1012.957	780.375
102.016	13.666	1011.658	779.550
103.030	13.521	1011.311	778.533
104.045	13.635	1010.299	778.217
105.060	13.467	1009.859	777.022
106.074	13.456	1008.634	775.960
107.089	13.276	1007.388	774.090
108.103	13.247	1006.458	773.170
109.118	13.272	1005.604	772.564
110.133	13.290	1004.715	771.896
111.147	13.426	1003.726	771.701
112.162	13.366	1003.231	770.973
113.176	13.453	1001.991	770.359
114.191	13.501	1001.493	770.131
115.206	13.482	1000.475	769.192
116.220	13.396	999.498	767.972
117.235	13.475	998.645	767.614
118.249	13.430	998.084	766.906
119.264	13.449	997.162	766.217
120.279	13.382	996.463	765.305
121.293	13.432	995.264	764.547
122.308	13.458	994.404	763.940
123.322	13.470	993.019	762.861
124.337	13.335	992.381	761.684
125.352	13.325	991.588	760.959
126.366	13.301	990.379	759.856
127.381	13.350	989.258	759.154
128.395	13.449	988.196	758.724
129.410	13.384	987.669	757.956
130.424	13.533	986.752	757.867
131.439	13.517	986.096	757.221
132.454	13.659	985.357	757.235
133.468	13.528	984.338	755.789
134.483	13.531	983.440	755.044
135.497	13.624	982.926	755.007
136.512	13.763	981.673	754.610
137.527	13.725	980.797	753.701
138.541	13.686	980.280	753.056
139.556	13.652	979.315	752.098
140.570	13.732	979.098	752.227
141.585	13.777	977.955	751.485
142.600	13.745	977.373	750.824
143.614	13.761	976.386	750.072
144.629	13.900	975.386	749.864
145.643	13.839	974.256	748.655
146.658	13.625	973.607	747.127
147.673	13.815	972.010	746.689
148.687	13.611	971.757	745.513
149.702	13.580	970.922	744.665
150.716	13.660	969.294	743.712
151.731	13.558	969.123	743.056
152.746	13.578	968.699	742.757
153.760	13.595	968.216	742.397
154.775	13.865	966.862	742.499
155.789	13.704	966.649	741.549
156.804	13.788	965.664	741.104
157.819	13.755	965.030	740.407
158.833	13.821	964.685	740.370
159.848	13.790	963.899	739.562
160.862	13.834	962.606	738.702
161.877	13.718	961.671	737.401
162.892	13.737	960.373	736.428
163.906	13.644	959.589	735.347
164.921	13.609	959.097	734.749
165.935	13.794	957.926	734.607
166.950	13.758	957.539	734.084
167.964	13.706	956.601	733.071
168.979	13.700	955.335	732.009
169.994	13.685	954.549	731.279
171.008	13.749	953.799	730.919
172.023	13.950	953.246	731.315
173.037	13.873	952.465	730.314
174.052	13.798	952.181	729.700
175.067	13.701	951.200	728.460
176.081	13.712	950.363	727.802
177.096	13.726	950.022	727.539
178.110	13.754	949.445	727.156
179.125	13.699	949.274	726.715
180.140	13.816	948.396	726.495
181.154	13.781	948.317	726.216
182.169	13.816	947.650	725.792
183.183	14.024	946.709	725.918
184.198	14.004	945.892	725.140
185.213	13.996	945.229	724.533
186.227	13.999	944.469	723.899
187.242	14.082	943.988	723.828
188.256	14.107	943.449	723.460
189.271	14.135	942.215	722.572
190.286	13.838	941.598	720.745
191.300	13.739	940.841	719.669
192.315	13.730	940.014	718.935
193.329	13.698	939.610	718.424
194.344	13.924	938.873	718.777
195.359	13.910	938.426	718.309
196.373	13.979	937.900	718.141
197.388	14.128	937.399	718.335
198.402	14.190	937.026	718.255
199.417	14.147	936.145	717.333
200.432	14.281	936.004	717.737
201.446	14.437	935.047	717.612
202.461	14.378	934.792	717.098
203.475	14.257	933.934	715.856
204.490	14.349	932.963	715.444
205.504	14.290	932.398	714.695
206.519	14.127	931.781	713.460
207.534	14.194	931.308	713.320
208.548	14.356	930.258	713.146
209.563	14.212	929.632	711.987
210.577	14.233	929.233	711.710
211.592	14.378	928.466	711.678
212.607	14.497	927.188	711.143
213.621	14.365	926.590	710.058
214.636	14.461	925.617	709.660
215.650	14.528	925.279	709.624
216.665	14.419	924.422	708.439
217.680	14.535	923.953	708.509
218.694	14.500	923.493	707.946
219.709	14.504	922.706	707.296
220.723	14.697	921.958	707.478
221.738	14.454	921.124	705.746
222.753	14.488	920.557	705.393
223.767	14.639	919.789	705.382
224.782	14.615	919.630	705.098
225.796	14.695	919.010	704.898
226.811	14.637	918.423	704.140
227.826	14.602	917.402	703.148
228.840	14.473	916.977	702.214
229.855	14.595	915.991	701.911
230.869	14.505	915.737	701.276
231.884	14.532	914.972	700.742
232.899	14.529	913.778	699.751
233.913	14.394	913.377	698.819
234.928	14.330	912.744	698.003
235.942	14.489	911.971	698.016
236.957	14.485	911.843	697.841
237.972	14.518	910.888	697.185
238.986	14.631	909.996	696.913
240.001	14.631	909.571	696.527
241.015	14.592	908.943	695.821
242.030	14.658	908.421	695.635
243.045	14.660	907.975	695.240
244.059	14.705	907.116	694.707
245.074	14.634	907.018	694.273
246.088	14.747	906.027	693.926
247.103	14.853	905.466	693.873
248.117	14.682	905.189	692.888
249.132	15.028	904.024	693.373
250.147	14.989	903.373	692.648
251.161	15.022	903.088	692.503
252.176	15.050	902.491	692.103
253.190	15.112	901.818	691.782
254.205	15.147	900.945	691.193
255.220	15.056	900.377	690.323
256.234	15.177	899.761	690.288
257.249	15.245	898.549	689.578
258.263	15.122	898.547	689.007
259.278	15.248	897.526	688.682
260.293	15.296	897.095	688.487
261.307	15.316	896.570	688.105
262.322	15.294	895.925	687.458
263.336	15.361	895.056	687.006
264.351	15.407	894.140	686.432
265.366	15.302	894.089	685.902
266.380	15.208	893.153	684.738
267.395	15.252	892.381	684.267
268.409	15.308	891.631	683.857
269.424	15.339	890.895	683.358
270.439	15.314	890.146	682.621
271.453	15.315	889.541	682.105
272.468	15.278	888.913	681.410
273.482	15.360	888.513	681.376
274.497	15.288	888.283	680.847
275.512	15.327	887.174	680.096
276.526	15.392	886.882	680.073
277.541	15.312	886.797	679.625
278.555	15.423	885.892	679.321
279.570	15.572	885.133	679.280
280.585	15.601	884.114	678.557
281.599	15.453	883.366	677.324
282.614	15.425	883.005	676.876
283.628	15.447	882.259	676.333
284.643	15.461	881.541	675.779
285.657	15.575	881.007	675.768
286.672	15.558	880.383	675.162
287.687	15.533	879.851	674.593
288.701	15.546	879.161	674.056
289.716	15.588	878.797	673.885
290.730	15.612	878.397	673.617
291.745	15.563	877.825	672.922
292.760	15.674	876.943	672.629
293.774	15.838	876.401	672.811
294.789	15.867	875.677	672.310
295.803	15.717	874.679	670.888
296.818	15.664	874.355	670.367
297.833	15.640	873.631	669.658
298.847	15.633	872.963	669.058
299.862	15.704	872.675	669.060
300.876	15.852	871.907	669.001
301.891	15.807	871.639	668.557
302.906	15.832	871.345	668.371
303.920	15.941	870.750	668.291
304.935	15.931	869.919	667.554
305.949	15.986	869.195	667.156
306.964	15.844	868.577	666.059
307.979	15.862	867.966	665.604
308.993	16.019	867.489	665.799
310.008	16.038	866.570	665.112
311.022	16.028	866.246	664.764
312.037	16.012	865.869	664.351
313.052	15.769	865.185	662.812
314.066	15.848	864.726	662.711
315.081	15.821	864.210	662.152
316.095	15.897	863.408	661.779
317.110	15.959	862.541	661.296
318.125	15.939	862.378	661.035
319.139	15.941	861.917	660.632
320.154	15.860	861.301	659.784
321.168	15.928	860.868	659.659
322.183	16.110	859.784	659.483
323.197	16.015	859.640	658.943
324.212	16.000	859.268	658.542
325.227	16.094	858.553	658.303
326.241	15.972	857.947	657.302
327.256	15.958	857.457	656.812
328.270	15.988	856.712	656.304
329.285	15.962	856.638	656.087
330.300	16.069	855.575	655.631
331.314	16.039	855.186	655.156
332.329	16.066	854.852	654.948
333.343	16.053	854.006	654.191
334.358	16.175	853.982	654.590
335.373	16.198	853.682	654.390
336.387	16.013	853.498	653.473
337.402	16.236	853.007	653.906
338.416	16.222	852.585	653.470
339.431	16.279	852.285	653.401
340.446	16.468	851.520	653.488
341.460	16.406	851.471	653.151
342.475	16.472	850.839	652.864
343.489	16.634	849.932	652.738
344.504	16.629	849.658	652.449
345.519	16.618	849.366	652.124
346.533	16.465	849.008	651.202
347.548	16.356	848.433	650.286
348.562	16.413	847.605	649.814
349.577	16.353	846.807	648.910
350.592	16.286	846.557	648.406
351.606	16.531	845.398	648.399
352.621	16.552	844.716	647.900
353.635	16.452	844.447	647.253
354.650	16.477	843.788	646.787
355.665	16.430	843.275	646.157
356.679	16.587	842.469	646.082
357.694	16.535	842.000	645.466
358.708	16.535	841.195	644.792
359.723	16.621	840.691	644.678
360.738	16.546	839.970	643.782
361.752	16.807	839.025	643.993
362.767	16.747	838.624	643.400
363.781	16.684	838.911	643.324
364.796	16.768	838.130	642.985
365.810	16.841	837.589	642.792
366.825	16.861	837.280	642.574
367.840	16.845	836.863	642.136
368.854	16.820	836.324	641.569
369.869	16.753	836.028	641.032
370.883	16.812	835.368	640.692
371.898	16.908	834.853	640.606
372.913	16.935	834.751	640.572
373.927	16.820	834.317	639.748
374.942	16.915	833.445	639.382
375.956	16.991	833.116	639.358
376.971	17.086	832.588	639.252
377.986	17.023	832.494	638.888
379.000	17.185	831.628	638.777
380.015	17.157	831.170	638.261
381.029	17.319	830.231	638.093
382.044	16.941	830.175	636.577
383.059	17.187	829.377	636.828
384.073	17.147	828.903	636.258
385.088	17.091	828.251	635.491
386.102	17.146	827.433	635.013
387.117	17.002	827.483	634.456
388.132	17.041	826.881	634.087
389.146	17.122	825.906	633.583
390.161	17.183	825.531	633.469
391.175	17.184	825.468	633.369
392.190	17.066	824.643	632.239
393.205	17.125	824.224	632.081
394.219	17.008	824.134	631.519
395.234	17.099	823.363	631.213
396.248	16.985	822.989	630.445
397.263	17.040	822.362	630.113
398.278	16.955	822.266	629.669
399.292	16.996	821.898	629.485
400.307	17.069	821.334	629.266
401.321	17.158	820.854	629.175
402.336	17.149	820.243	628.616
403.350	17.139	819.801	628.183
404.365	17.241	819.111	627.978
405.380	17.357	818.696	628.031
406.394	17.297	817.995	627.218
407.409	17.375	818.010	627.461
408.423	17.437	817.682	627.381
409.438	17.395	817.320	626.894
410.453	17.472	816.817	626.738
411.467	17.615	816.180	626.719
412.482	17.536	816.145	626.345
413.496	17.570	815.734	626.099
414.511	17.574	815.210	625.656
415.526	17.807	814.503	625.915
416.540	17.593	814.237	624.869
417.555	17.633	813.657	624.514
418.569	17.692	813.031	624.194
419.584	17.417	813.141	623.218
420.599	17.573	812.456	623.209
421.613	92.153	1266.464	1376.338
422.628	78.993	1332.639	1376.448
