DTS Sentinel unit serial number:	SN413079Multiplexer serial number:	ORYXHardware model number:	OX4-SRSoftware version number:	ORYX F/W v4.00 Oryx Data Collector v3.7.2.0data status	okinstallation	princeton_trtdifferential loss correction	single-endedforward channel	channel 1reverse channel	N/Adate	2019/09/12time	14:48:11forward acquisition time	60.00reverse acquisition time	0.00gamma	496.2192k internal	0.2293k external	0.2293temperature offset calibration	1.0051default loss term (dB/km)	0.3790temperature slope calibration	1.0000multiplexer offset coefficient	1.0000multiplexer slope coefficient	1.0000fibre end	0.00T internal ref (°C)	40.25T ext. ref 1 (°C)	2.31T ext. ref 2 (°C)	37.10length (m)	temperature (°C)	Stokes	anti-Stokes-747.200	-125.013	0.120	0.019
-746.185	-200.000	-0.038	0.288
-745.171	436.886	0.146	-0.325
-744.156	-200.000	0.004	0.169
-743.142	389.633	-0.102	-0.217
-742.127	419.664	0.091	-0.198
-741.112	-12.039	-0.137	-0.092
-740.098	-200.000	0.002	0.219
-739.083	-48.814	-0.268	-0.132
-738.069	286.992	-0.096	0.177
-737.054	581.495	0.133	-0.334
-736.039	-200.000	-0.034	0.223
-735.025	-122.881	-0.167	-0.028
-734.010	-200.000	-0.009	-0.247
-732.996	800.000	0.075	0.215
-731.981	129.605	-0.241	-0.315
-730.966	-15.500	-0.244	-0.159
-729.952	268.348	0.105	-0.188
-728.937	-200.000	-0.034	0.185
-727.923	-163.135	0.139	0.007
-726.908	-85.627	-0.302	-0.096
-725.894	258.164	-0.101	-0.178
-724.879	632.951	-0.046	-0.120
-723.864	108.921	0.223	-0.273
-722.850	-91.658	-0.152	-0.044
-721.835	166.425	-0.103	-0.149
-720.821	264.234	0.131	0.233
-719.806	-200.000	-0.024	-0.132
-718.791	131.203	-0.161	-0.211
-717.777	-98.982	0.406	-0.105
-716.762	139.130	-0.130	-0.175
-715.748	-200.000	0.015	0.348
-714.733	-200.000	0.034	-0.155
-713.718	72.950	0.061	-0.066
-712.704	-21.137	0.270	0.169
-711.689	-79.071	-0.344	-0.119
-710.675	-200.000	-0.019	0.108
-709.660	-200.000	0.045	0.291
-708.645	800.000	0.091	0.272
-707.631	800.000	-0.074	-0.259
-706.616	-117.296	-0.090	-0.017
-705.602	-200.000	0.064	-0.453
-704.587	-75.598	0.056	-0.020
-703.572	-79.686	-0.163	0.056
-702.558	391.241	-0.018	0.039
-701.543	726.531	-0.135	0.367
-700.529	89.810	-0.184	0.210
-699.514	185.752	-0.181	-0.275
-698.499	800.000	-0.046	0.170
-697.485	-38.572	-0.259	0.140
-696.470	-200.000	0.001	0.225
-695.456	-200.000	0.016	-0.337
-694.441	321.735	-0.031	0.061
-693.426	134.158	0.083	-0.110
-692.412	148.595	-0.063	-0.087
-691.397	800.000	0.038	0.132
-690.383	-18.174	0.190	-0.121
-689.368	-148.932	-0.076	0.006
-688.354	-200.000	0.039	-0.199
-687.339	-3.478	-0.291	0.207
-686.324	-200.000	-0.075	-0.000
-685.310	-98.702	0.116	-0.030
-684.295	-200.000	-0.052	0.283
-683.281	-51.406	-0.221	0.105
-682.266	-68.307	0.151	0.060
-681.251	80.414	0.197	0.216
-680.237	56.443	0.177	0.176
-679.222	-11.172	-0.106	0.071
-678.208	59.722	0.228	0.229
-677.193	191.905	0.186	-0.286
-676.178	321.625	-0.081	0.157
-675.164	-200.000	0.152	0.000
-674.149	-176.047	-0.371	-0.010
-673.135	-16.632	0.143	0.092
-672.120	691.677	-0.040	-0.106
-671.105	347.371	-0.206	0.413
-670.091	167.996	0.198	0.287
-669.076	132.888	0.258	0.339
-668.062	-15.958	-0.270	-0.175
-667.047	-86.263	-0.219	0.069
-666.032	-85.774	-0.133	0.042
-665.018	175.907	0.075	-0.111
-664.003	-200.000	0.027	0.130
-662.989	800.000	0.137	-0.429
-661.974	196.730	-0.097	-0.151
-660.959	-18.877	-0.082	0.052
-659.945	271.252	0.129	-0.231
-658.930	-35.373	-0.134	0.074
-657.916	-9.453	0.193	0.131
-656.901	283.005	-0.096	0.177
-655.886	321.741	-0.047	-0.092
-654.872	-200.000	-0.003	-0.363
-653.857	33.400	-0.222	-0.197
-652.843	-200.000	0.010	0.265
-651.828	800.000	0.101	-0.313
-650.814	-78.918	0.042	-0.015
-649.799	2.033	0.239	-0.176
-648.784	-64.203	-0.238	0.099
-647.770	-90.170	-0.160	-0.048
-646.755	72.746	0.019	0.020
-645.741	-200.000	0.030	0.222
-644.726	356.993	-0.186	0.377
-643.711	-200.000	-0.013	0.355
-642.697	620.268	0.040	0.102
-641.682	-200.000	-0.036	-0.389
-640.668	94.036	-0.200	0.231
-639.653	-48.743	0.123	-0.060
-638.638	62.659	-0.268	-0.273
-637.624	777.880	-0.114	0.319
-636.609	-90.315	0.121	0.036
-635.595	574.560	0.046	0.113
-634.580	-165.962	-0.082	0.004
-633.565	20.683	-0.345	-0.285
-632.551	207.173	-0.160	0.254
-631.536	-200.000	0.016	0.227
-630.522	800.000	0.082	-0.311
-629.507	-69.417	0.290	0.113
-628.492	-39.713	-0.204	-0.109
-627.478	197.334	-0.154	-0.240
-626.463	800.000	-0.056	0.220
-625.449	-8.905	-0.150	-0.103
-624.434	-117.672	-0.132	-0.024
-623.419	171.284	-0.197	0.288
-622.405	-162.318	-0.082	0.004
-621.390	406.402	-0.130	0.279
-620.376	-63.584	0.128	0.054
-619.361	-200.000	-0.007	0.088
-618.346	0.910	-0.475	0.347
-617.332	-128.440	-0.141	0.020
-616.317	26.610	0.138	0.118
-615.303	236.923	-0.073	-0.124
-614.288	-65.355	-0.116	0.048
-613.273	800.000	-0.066	0.205
-612.259	-93.396	0.119	0.034
-611.244	-190.056	-0.164	0.002
-610.230	76.341	0.190	-0.205
-609.215	720.931	-0.078	0.210
-608.201	-200.000	0.014	-0.074
-607.186	-33.456	-0.058	-0.032
-606.171	112.443	0.228	-0.281
-605.157	-200.000	0.012	0.163
-604.142	-80.792	-0.209	-0.071
-603.128	256.907	0.120	-0.209
-602.113	216.215	-0.027	0.044
-601.098	-200.000	0.002	0.132
-600.084	12.819	-0.161	-0.127
-599.069	800.000	0.079	0.302
-598.055	666.824	0.049	0.129
-597.040	-163.339	-0.179	0.009
-596.025	-87.333	-0.182	-0.056
-595.011	-34.657	-0.211	0.118
-593.996	228.920	0.097	0.161
-592.982	789.267	0.049	0.136
-591.967	800.000	-0.043	0.143
-590.952	730.055	-0.058	0.157
-589.938	48.218	-0.291	-0.277
-588.923	47.735	0.272	0.258
-587.909	-45.109	0.245	-0.124
-586.894	480.190	0.102	0.235
-585.879	-200.000	-0.010	-0.193
-584.865	-82.889	0.419	0.137
-583.850	70.206	-0.208	0.218
-582.836	485.164	-0.081	0.188
-581.821	-10.136	-0.306	0.207
-580.806	63.529	0.196	0.200
-579.792	59.295	-0.235	0.235
-578.777	384.825	-0.150	0.313
-577.763	-115.731	0.147	0.028
-576.748	-12.769	0.369	-0.245
-575.733	114.354	-0.168	0.208
-574.719	800.000	0.087	0.247
-573.704	-87.210	-0.133	0.041
-572.690	-200.000	-0.019	0.152
-571.675	-200.000	-0.022	0.198
-570.661	4.140	0.323	0.240
-569.646	-56.553	0.121	0.054
-568.631	-200.000	0.017	0.221
-567.617	-110.576	-0.187	0.039
-566.602	196.988	0.117	0.181
-565.588	-200.000	-0.033	-0.159
-564.573	-179.760	-0.165	-0.004
-563.558	-158.843	-0.059	-0.003
-562.544	-66.833	-0.128	-0.051
-561.529	800.000	0.030	-0.097
-560.515	-85.628	-0.201	0.063
-559.500	35.263	0.232	0.206
-558.485	-104.960	0.267	0.062
-557.471	353.163	0.148	0.299
-556.456	-200.000	0.048	-0.256
-555.442	-121.113	0.137	-0.023
-554.427	80.927	0.054	0.059
-553.412	251.463	-0.044	0.076
-552.398	-62.297	-0.123	0.052
-551.383	160.674	0.054	-0.077
-550.369	101.160	-0.123	-0.146
-549.354	-146.620	0.349	-0.031
-548.339	50.514	-0.145	0.139
-547.325	-169.679	0.278	-0.010
-546.310	-116.431	0.123	-0.023
-545.296	-160.191	-0.132	-0.007
-544.281	-200.000	-0.036	-0.382
-543.266	-110.562	0.077	0.016
-542.252	17.616	0.026	-0.021
-541.237	98.963	0.103	-0.120
-540.223	90.244	0.083	-0.094
-539.208	-68.930	-0.087	-0.034
-538.193	741.810	0.028	0.075
-537.179	-120.043	-0.450	-0.078
-536.164	-27.808	0.166	-0.098
-535.150	-169.890	-0.416	-0.015
-534.135	229.099	0.144	-0.238
-533.121	800.000	-0.096	-0.342
-532.106	-6.361	-0.236	-0.163
-531.091	57.209	-0.237	0.235
-530.077	-34.294	0.173	-0.096
-529.062	-114.316	0.517	-0.101
-528.048	-200.000	-0.041	-0.229
-527.033	-0.059	0.241	0.174
-526.018	136.292	0.049	0.064
-525.004	410.924	-0.063	-0.136
-523.989	385.252	0.057	-0.118
-522.975	-111.171	-0.400	-0.083
-521.960	800.000	-0.045	-0.168
-520.945	498.670	0.135	0.315
-519.931	217.793	-0.095	-0.154
-518.916	-48.914	0.166	-0.081
-517.902	-161.214	0.384	-0.020
-516.887	73.016	0.222	0.235
-515.872	-64.354	-0.222	-0.092
-514.858	-51.092	0.249	-0.119
-513.843	-200.000	0.003	-0.210
-512.829	-65.133	0.155	-0.063
-511.814	-157.963	-0.217	0.013
-510.799	300.625	0.154	-0.288
-509.785	-200.000	0.002	0.064
-508.770	171.218	-0.163	-0.237
-507.756	-79.200	0.115	-0.040
-506.741	-139.946	-0.241	-0.026
-505.726	-63.596	-0.123	-0.051
-504.712	800.000	-0.097	-0.280
-503.697	227.339	0.156	-0.257
-502.683	248.009	0.038	-0.065
-501.668	147.456	-0.247	0.337
-500.653	800.000	0.087	0.380
-499.639	-39.942	-0.414	0.219
-498.624	-112.783	0.240	0.048
-497.610	-28.414	-0.182	-0.106
-496.595	750.613	-0.037	-0.100
-495.581	-13.349	0.307	-0.202
-494.566	-147.813	-0.046	0.004
-493.551	800.000	0.209	-0.630
-492.537	-108.428	-0.402	-0.088
-491.522	243.737	-0.204	-0.346
-490.508	56.467	-0.052	-0.051
-489.493	73.326	-0.102	0.108
-488.478	234.469	0.092	-0.153
-487.464	-200.000	-0.009	-0.205
-486.449	-85.462	0.207	0.065
-485.435	800.000	0.043	0.150
-484.420	67.190	-0.072	-0.074
-483.405	-77.970	0.199	-0.069
-482.391	-158.411	-0.245	0.014
-481.376	230.849	-0.071	0.117
-480.362	-43.511	0.210	-0.107
-479.347	-200.000	0.024	0.125
-478.332	1.470	0.045	-0.033
-477.318	-200.000	-0.002	-0.220
-476.303	-200.000	0.008	0.248
-475.289	6.303	0.219	0.165
-474.274	800.000	-0.075	-0.228
-473.259	-36.228	-0.062	0.034
-472.245	346.816	0.034	0.067
-471.230	-200.000	0.003	0.046
-470.216	-200.000	0.032	-0.340
-469.201	251.092	0.148	-0.254
-468.186	83.237	-0.080	0.088
-467.172	-200.000	-0.026	0.162
-466.157	167.066	-0.121	-0.174
-465.143	-200.000	0.013	0.114
-464.128	-63.593	0.219	-0.091
-463.113	-200.000	0.053	-0.236
-462.099	-59.795	0.435	-0.188
-461.084	151.000	0.292	-0.402
-460.070	-27.331	-0.096	0.057
-459.055	-162.924	-0.192	-0.009
-458.040	-200.000	0.024	0.232
-457.026	-68.848	-0.129	-0.051
-456.011	-200.000	-0.012	-0.166
-454.997	800.000	0.022	0.097
-453.982	147.969	-0.055	-0.075
-452.968	-200.000	0.004	0.017
-451.953	290.478	-0.049	-0.089
-450.938	71.047	-0.099	0.104
-449.924	-128.221	0.277	-0.040
-448.909	103.308	-0.047	0.055
-447.895	-16.712	0.225	-0.144
-446.880	-130.835	-0.135	-0.018
-445.865	-133.508	-0.173	-0.022
-444.851	-2.176	0.134	0.095
-443.836	-200.000	-0.005	0.108
-442.822	-116.172	0.264	-0.049
-441.807	-200.000	-0.034	0.288
-440.792	287.945	0.097	0.177
-439.778	51.555	0.187	-0.179
-438.763	-200.000	0.017	-0.114
-437.749	546.814	-0.122	0.296
-436.734	489.387	0.115	0.265
-435.719	401.411	0.031	0.065
-434.705	-137.463	-0.149	0.017
-433.690	-46.981	-0.215	-0.106
-432.676	122.234	-0.193	-0.244
-431.661	-25.866	-0.159	0.095
-430.646	800.000	0.051	-0.185
-429.632	-179.277	0.218	-0.005
-428.617	243.472	0.094	0.159
-427.603	-141.228	0.212	-0.022
-426.588	-106.593	-0.153	-0.034
-425.573	317.788	-0.090	0.171
-424.559	-200.000	0.001	-0.213
-423.544	-32.995	0.074	0.041
-422.530	-200.000	0.000	-0.007
-421.515	-132.950	-0.125	0.016
-420.500	45.366	0.246	-0.229
-419.486	1.768	0.092	-0.067
-418.471	800.000	-0.098	0.424
-417.457	-3.158	0.142	0.100
-416.442	34.531	0.177	-0.156
-415.428	196.958	-0.040	-0.061
-414.413	-59.505	-0.200	-0.087
-413.398	-122.472	-0.134	-0.022
-412.384	-200.000	-0.078	0.000
-411.369	229.818	0.178	0.294
-410.355	207.716	0.176	0.278
-409.340	-18.133	0.040	-0.026
-408.325	-73.484	0.266	-0.098
-407.311	800.000	-0.077	0.221
-406.296	77.251	-0.204	-0.219
-405.282	537.735	0.132	-0.316
-404.267	-200.000	0.006	0.101
-403.252	92.279	0.164	-0.186
-402.238	466.604	0.048	-0.108
-401.223	-96.454	0.397	0.106
-400.209	-41.365	0.168	-0.087
-399.194	-200.000	-0.018	-0.295
-398.179	129.838	-0.058	0.075
-397.165	-10.769	0.180	0.120
-396.150	-113.696	0.327	-0.064
-395.136	-200.000	-0.020	0.236
-394.121	-117.762	-0.139	-0.025
-393.106	23.114	0.219	0.181
-392.092	-200.000	0.049	0.298
-391.077	-80.891	-0.330	0.110
-390.063	17.568	-0.158	0.127
-389.048	-26.999	0.244	-0.144
-388.033	583.871	-0.075	0.185
-387.019	-200.000	0.037	-0.210
-386.004	185.806	0.199	-0.299
-384.990	-200.000	0.005	-0.145
-383.975	171.333	0.061	-0.089
-382.960	-12.739	0.062	0.041
-381.946	101.241	0.097	0.114
-380.931	-100.868	-0.294	-0.073
-379.917	800.000	0.065	-0.262
-378.902	352.005	-0.022	-0.044
-377.888	93.216	-0.172	-0.196
-376.873	-200.000	0.085	0.427
-375.858	-26.303	0.203	-0.120
-374.844	-6.454	-0.180	-0.123
-373.829	-94.261	-0.269	0.074
-372.815	289.368	-0.096	-0.175
-371.800	319.044	0.204	0.390
-370.785	-200.000	-0.012	0.351
-369.771	-99.345	-0.308	-0.078
-368.756	-145.400	0.387	-0.035
-367.742	166.681	-0.046	-0.066
-366.727	137.648	-0.295	-0.390
-365.712	800.000	0.051	0.148
-364.698	-43.970	-0.144	0.073
-363.683	69.446	-0.115	0.120
-362.669	525.864	0.085	0.201
-361.654	668.959	0.074	0.192
-360.639	-200.000	-0.033	0.337
-359.625	-130.443	-0.156	-0.021
-358.610	29.281	0.186	-0.159
-357.596	254.600	0.154	-0.265
-356.581	179.589	0.156	-0.230
-355.566	-142.092	0.097	0.010
-354.552	288.420	-0.082	-0.150
-353.537	-133.376	0.183	0.023
-352.523	-200.000	-0.031	0.312
-351.508	769.310	0.089	-0.243
-350.493	-200.000	-0.030	-0.361
-349.479	493.494	0.063	0.145
-348.464	471.727	-0.116	-0.264
-347.450	-129.227	-0.195	-0.027
-346.435	105.521	-0.140	-0.167
-345.420	-200.000	0.018	-0.118
-344.406	233.485	0.093	0.153
-343.391	800.000	-0.040	-0.162
-342.377	94.219	-0.109	0.124
-341.362	-200.000	0.038	0.213
-340.348	103.681	-0.136	-0.161
-339.333	800.000	-0.035	0.140
-338.318	23.158	0.053	0.044
-337.304	-104.951	0.281	0.065
-336.289	-200.000	0.020	0.159
-335.275	-78.135	-0.136	-0.047
-334.260	-35.291	-0.253	0.139
-333.245	-96.074	-0.053	-0.014
-332.231	-200.000	0.038	-0.225
-331.216	162.037	-0.068	0.096
-330.202	149.958	-0.106	-0.145
-329.187	-100.185	0.451	0.113
-328.172	-108.260	0.168	-0.037
-327.158	-117.338	0.235	0.043
-326.143	-61.825	-0.484	0.204
-325.129	152.712	0.220	0.302
-324.114	-32.154	0.089	0.050
-323.099	-67.992	0.122	-0.048
-322.085	394.185	0.144	0.301
-321.070	-200.000	0.042	-0.226
-320.056	353.212	-0.240	-0.479
-319.041	-74.552	-0.128	-0.046
-318.026	800.000	-0.097	0.284
-317.012	35.218	-0.197	-0.174
-315.997	266.316	-0.108	-0.189
-314.983	-86.602	-0.380	-0.117
-313.968	-75.407	-0.176	0.063
-312.953	800.000	-0.038	-0.117
-311.939	-19.389	0.196	-0.122
-310.924	-137.407	0.305	-0.035
-309.910	-200.000	-0.061	-0.313
-308.895	50.481	-0.328	0.312
-307.880	62.662	0.216	0.217
-306.866	-200.000	-0.013	0.115
-305.851	7.194	0.215	0.161
-304.837	-31.388	-0.303	-0.171
-303.822	24.262	-0.057	0.047
-302.807	15.295	0.058	0.046
-301.793	330.277	0.056	-0.108
-300.778	-73.174	-0.322	0.119
-299.764	-162.484	0.280	-0.014
-298.749	-42.945	0.311	0.159
-297.735	-200.000	-0.038	-0.198
-296.720	540.025	0.077	0.185
-295.705	-200.000	-0.018	0.172
-294.691	-200.000	0.018	-0.237
-293.676	163.311	-0.109	0.153
-292.662	-200.000	0.011	-0.049
-291.647	-86.570	-0.180	-0.056
-290.632	-6.558	0.036	0.025
-289.618	319.953	0.132	-0.251
-288.603	-71.282	-0.158	-0.059
-287.589	-105.521	-0.467	0.106
-286.574	-90.721	0.042	-0.012
-285.559	-1.944	0.152	0.107
-284.545	-138.245	0.133	-0.015
-283.530	-200.000	0.003	-0.260
-282.516	-34.510	0.477	-0.263
-281.501	419.631	0.190	-0.408
-280.486	-37.921	0.053	0.028
-279.472	-125.749	0.135	0.020
-278.457	-134.656	-0.215	0.026
-277.443	-200.000	0.072	-0.374
-276.428	53.015	0.205	-0.197
-275.413	-58.276	-0.156	0.068
-274.399	133.105	-0.122	0.159
-273.384	-72.773	-0.049	0.018
-272.370	-200.000	-0.064	-0.479
-271.355	-47.953	-0.073	0.036
-270.340	-158.683	-0.284	-0.016
-269.326	55.475	0.138	0.134
-268.311	800.000	-0.096	-0.305
-267.297	359.350	0.020	-0.039
-266.282	60.157	0.108	0.107
-265.267	-137.866	0.068	0.008
-264.253	-48.131	-0.219	-0.106
-263.238	800.000	0.070	-0.226
-262.224	50.809	-0.099	0.094
-261.209	800.000	-0.118	-0.358
-260.195	185.594	-0.146	-0.218
-259.180	42.130	-0.178	0.162
-258.165	-200.000	0.062	0.370
-257.151	59.299	0.116	0.115
-256.136	-200.000	0.031	0.172
-255.122	94.845	-0.119	0.136
-254.107	-95.132	0.035	0.009
-253.092	800.000	-0.041	0.149
-252.078	212.956	-0.143	0.226
-251.063	493.179	0.189	-0.434
-250.049	233.682	0.125	-0.207
-249.034	44.085	0.238	-0.219
-248.019	236.738	0.071	-0.117
-247.005	150.791	-0.120	0.163
-245.990	173.674	-0.091	0.132
-244.976	800.000	-0.076	-0.241
-243.961	452.488	-0.073	-0.162
-242.946	-155.253	0.182	0.012
-241.932	-100.504	-0.259	-0.064
-240.917	-72.226	0.173	-0.064
-239.903	-143.321	-0.302	0.029
-238.888	533.459	0.046	0.110
-237.873	-200.000	0.049	-0.324
-236.859	-200.000	0.078	-0.375
-235.844	108.697	0.217	-0.260
-234.830	-4.072	0.173	0.120
-233.815	-89.893	-0.131	-0.039
-232.800	-183.054	-0.041	-0.001
-231.786	92.290	-0.163	-0.184
-230.771	-74.376	0.096	-0.035
-229.757	225.907	0.146	-0.238
-228.742	295.512	0.221	0.407
-227.727	-200.000	-0.271	-0.001
-226.713	-71.826	0.342	-0.128
-225.698	547.471	-0.051	0.121
-224.684	800.000	0.034	0.146
-223.669	-3.604	-0.146	-0.102
-222.655	-40.837	-0.152	-0.079
-221.640	-7.881	-0.291	0.197
-220.625	297.648	-0.208	-0.383
-219.611	12.120	0.324	0.250
-218.596	545.736	-0.204	0.489
-217.582	800.000	-0.073	0.310
-216.567	-130.897	-0.310	-0.042
-215.552	-200.000	0.004	0.367
-214.538	557.107	-0.174	0.421
-213.523	-200.000	0.017	-0.122
-212.509	-200.000	0.026	-0.122
-211.494	48.893	0.140	0.132
-210.479	521.872	-0.115	0.272
-209.465	390.517	0.151	-0.314
-208.450	362.964	0.171	0.345
-207.436	-27.489	0.197	-0.115
-206.421	-79.567	-0.033	0.011
-205.406	800.000	-0.103	0.380
-204.392	-53.393	0.136	-0.062
-203.377	225.230	0.068	0.111
-202.363	420.659	-0.136	0.291
-201.348	-200.000	-0.150	0.681
-200.333	133.511	0.117	0.151
-199.319	-94.948	-0.312	0.085
-198.304	118.435	-0.286	-0.353
-197.290	221.387	0.035	-0.056
-196.275	-200.000	-0.001	0.184
-195.260	611.859	0.067	-0.167
-194.246	-81.789	-0.271	-0.089
-193.231	-200.000	-0.015	-0.079
-192.217	-72.219	0.236	-0.088
-191.202	376.446	0.034	-0.069
-190.187	-159.426	-0.135	-0.008
-189.173	517.470	-0.045	0.105
-188.158	-90.301	0.537	0.156
-187.144	-118.948	-0.197	0.035
-186.129	-54.000	-0.195	-0.089
-185.114	148.911	0.053	0.072
-184.100	65.471	0.374	-0.379
-183.085	-59.431	0.241	0.104
-182.071	140.877	-0.043	0.057
-181.056	-74.778	0.102	0.037
-180.042	-90.883	0.241	0.069
-179.027	-112.491	-0.217	0.043
-178.012	33.385	0.411	0.357
-176.998	-50.141	0.300	-0.142
-175.983	95.786	-0.230	-0.263
-174.969	800.000	0.027	-0.103
-173.954	-200.000	-0.004	0.177
-172.939	269.729	-0.159	0.279
-171.925	327.467	0.065	0.126
-170.910	-200.000	0.042	-0.290
-169.896	-167.672	-0.280	-0.011
-168.881	-108.987	-0.244	0.052
-167.866	-200.000	-0.029	-0.196
-166.852	-111.098	0.084	-0.017
-165.837	318.712	0.017	-0.032
-164.823	-57.313	0.382	-0.168
-163.808	-23.608	0.226	0.136
-162.793	800.000	0.090	-0.309
-161.779	-103.301	-0.383	0.090
-160.764	187.215	-0.153	-0.228
-159.750	24.378	0.149	0.123
-158.735	-9.758	-0.158	-0.105
-157.720	-122.056	0.284	-0.047
-156.706	145.057	-0.055	0.073
-155.691	-30.572	-0.176	-0.100
-154.677	-78.643	-0.184	-0.063
-153.662	688.149	0.071	0.186
-152.647	-116.895	0.176	0.032
-151.633	-108.273	0.073	-0.016
-150.618	-122.683	-0.243	0.039
-149.604	295.966	0.093	-0.171
-148.589	-77.073	-0.189	0.066
-147.574	121.280	-0.203	-0.253
-146.560	72.799	-0.093	-0.097
-145.545	695.170	-0.062	-0.162
-144.531	-146.963	-0.174	-0.015
-143.516	572.002	0.082	-0.201
-142.502	800.000	-0.034	0.113
-141.487	59.758	0.108	-0.107
-140.472	-18.838	-0.251	-0.156
-139.458	55.225	-0.075	-0.073
-138.443	-31.982	-0.167	0.094
-137.429	800.000	0.045	0.193
-136.414	-200.000	-0.048	0.235
-135.399	-150.911	-0.265	0.020
-134.385	141.100	-0.117	0.154
-133.370	6.083	0.473	-0.350
-132.356	-200.000	0.068	-0.302
-131.341	-200.000	0.012	0.080
-130.326	196.128	-0.155	0.235
-129.312	-200.000	-0.073	0.344
-128.297	153.175	0.080	0.109
-127.283	-116.667	0.187	-0.034
-126.268	-3.856	-0.259	-0.180
-125.253	26.397	-0.300	-0.251
-124.239	-200.000	0.023	0.244
-123.224	193.158	0.210	0.318
-122.210	-13.434	0.379	0.245
-121.195	-48.145	-0.318	-0.153
-120.180	-75.866	0.399	0.141
-119.166	148.740	0.107	-0.145
-118.151	-174.158	-0.268	0.008
-117.137	64.263	0.086	-0.086
-116.122	-7.506	-0.057	0.038
-115.107	160.328	-0.299	0.416
-114.093	-95.064	-0.148	-0.040
-113.078	-124.788	-0.109	0.017
-112.064	-200.000	-0.014	-0.166
-111.049	-200.000	0.013	-0.421
-110.034	-35.570	0.162	-0.088
-109.020	-54.692	-0.112	0.051
-108.005	-200.000	0.001	-0.377
-106.991	89.399	-0.444	-0.494
-105.976	20.577	0.308	0.248
-104.962	-125.992	0.378	-0.057
-103.947	48.181	0.190	-0.177
-102.932	230.647	0.146	-0.238
-101.918	-59.990	0.304	-0.129
-100.903	-54.346	0.172	0.078
-99.889	-64.664	0.140	0.056
-98.874	3.824	0.080	-0.059
-97.859	-129.964	-0.300	-0.041
-96.845	-200.000	0.011	0.064
-95.830	68.524	-0.144	0.148
-94.816	30.454	-0.175	0.149
-93.801	-58.448	0.277	-0.120
-92.786	402.747	0.064	0.135
-91.772	-200.000	0.007	-0.163
-90.757	800.000	-0.100	0.390
-89.743	103.702	-0.181	-0.211
-88.728	20.819	0.213	-0.172
-87.713	-200.000	-0.020	-0.233
-86.699	39.109	-0.179	-0.159
-85.684	-140.748	-0.112	0.012
-84.670	-13.859	-0.257	0.166
-83.655	39.498	-0.295	-0.264
-82.640	-200.000	-0.085	0.405
-81.626	25.436	0.070	0.058
-80.611	236.754	0.057	0.094
-79.597	312.334	0.139	0.259
-78.582	168.696	0.093	-0.132
-77.567	214.748	-0.175	0.277
-76.553	-200.000	0.001	-0.139
-75.538	-23.975	0.046	-0.028
-74.524	326.628	0.106	-0.203
-73.509	-200.000	-0.049	0.226
-72.494	-90.704	-0.174	0.050
-71.480	90.778	0.175	0.196
-70.465	385.642	-0.175	0.360
-69.451	800.000	-0.042	-0.116
-68.436	-200.000	0.069	0.415
-67.422	396.984	-0.090	0.188
-66.407	26.985	0.168	0.140
-65.392	-59.461	-0.129	0.055
-64.378	219.831	-0.106	0.169
-63.363	-200.000	0.010	-0.047
-62.349	-200.000	0.003	-0.263
-61.334	-3.565	-0.845	-0.585
-60.319	-91.117	0.584	0.167
-59.305	-200.000	0.109	-0.545
-58.290	425.851	0.385	0.825
-57.276	222.072	1.016	1.628
-56.261	-200.000	76.565	510.709
-55.246	514.632	1329.670	3090.760
-54.232	147.817	2556.620	3432.417
-53.217	115.600	2223.139	2706.815
-52.203	51.692	1674.202	1585.700
-51.188	43.867	1401.254	1278.022
-50.173	40.348	1355.594	1214.797
-49.159	58.717	1391.338	1360.938
-48.144	65.318	1410.467	1420.418
-47.130	44.402	1372.759	1255.135
-46.115	40.397	1356.034	1215.296
-45.100	40.191	1351.246	1209.699
-44.086	40.080	1349.182	1207.123
-43.071	39.988	1347.165	1204.711
-42.057	39.968	1344.805	1202.431
-41.042	40.037	1342.943	1201.136
-40.027	40.047	1341.621	1199.967
-39.013	40.132	1339.455	1198.499
-37.998	40.148	1337.543	1196.840
-36.984	40.209	1335.523	1195.352
-35.969	40.214	1333.948	1193.925
-34.954	40.345	1331.906	1192.839
-33.940	40.240	1331.149	1191.480
-32.925	40.250	1329.819	1190.306
-31.911	40.419	1327.587	1189.273
-30.896	40.328	1326.452	1187.660
-29.881	40.356	1325.075	1186.552
-28.867	40.384	1323.244	1185.031
-27.852	40.405	1321.866	1183.875
-26.838	40.310	1320.895	1182.394
-25.823	40.295	1319.137	1180.681
-24.809	40.357	1317.925	1179.922
-23.794	40.332	1316.884	1178.790
-22.779	40.289	1315.307	1177.077
-21.765	40.383	1313.665	1176.119
-20.750	40.361	1312.305	1174.725
-19.736	40.271	1311.149	1173.110
-18.721	40.168	1309.500	1170.977
-17.706	40.221	1308.552	1170.401
-16.692	40.202	1307.376	1169.189
-15.677	40.222	1306.110	1168.125
-14.663	40.249	1305.142	1167.376
-13.648	40.156	1304.185	1165.926
-12.633	40.212	1302.963	1165.117
-11.619	40.219	1301.910	1164.166
-10.604	40.103	1301.907	1163.437
-9.590	40.183	1300.661	1162.745
-8.575	40.201	1299.250	1161.544
-7.560	40.176	1298.926	1161.066
-6.546	40.187	1297.708	1159.993
-5.531	40.227	1297.005	1159.550
-4.517	40.140	1296.052	1158.147
-3.502	40.257	1294.770	1157.638
-2.487	40.240	1293.705	1156.541
-1.473	40.243	1290.093	1153.284
-0.458	39.169	1275.654	1134.137
0.556	35.823	1256.175	1093.785
1.571	31.847	1260.682	1074.871
2.586	30.595	1276.173	1080.709
3.600	29.133	1264.499	1062.306
4.615	20.870	1186.388	951.660
5.629	8.459	1101.660	820.278
6.644	2.796	1077.415	773.665
7.659	2.307	1075.083	769.464
8.673	2.123	1073.219	767.138
9.688	2.027	1072.185	765.850
10.702	2.427	1071.022	766.956
11.717	9.457	1081.874	810.144
12.731	20.503	1097.689	878.036
13.746	25.320	1102.805	906.438
14.761	25.641	1102.936	908.085
15.775	25.563	1102.857	907.544
16.790	25.437	1101.860	906.010
17.804	25.317	1101.413	904.956
18.819	25.385	1101.023	904.899
19.834	25.468	1100.866	905.107
20.848	25.559	1099.950	904.730
21.863	25.558	1099.583	904.343
22.877	25.544	1098.852	903.593
23.892	25.449	1098.228	902.524
24.907	25.505	1097.487	902.116
25.921	25.495	1096.129	900.868
26.936	25.531	1094.543	899.667
27.950	25.245	1093.738	897.493
28.965	25.314	1091.356	895.806
29.980	25.409	1089.860	894.972
30.994	25.573	1089.493	895.407
32.009	25.657	1087.804	894.358
33.023	25.427	1086.616	892.161
34.038	25.379	1086.228	891.521
35.053	25.447	1086.018	891.607
36.067	25.406	1085.030	890.515
37.082	25.599	1083.901	890.466
38.096	25.662	1082.945	889.913
39.111	25.819	1082.453	890.209
40.126	25.639	1080.940	887.994
41.140	25.135	1079.634	884.358
42.155	25.146	1077.960	882.965
43.169	25.227	1077.191	882.653
44.184	25.206	1076.213	881.673
45.199	25.092	1074.987	880.028
46.213	25.117	1074.475	879.656
47.228	25.236	1074.010	879.779
48.242	25.399	1072.843	879.543
49.257	25.409	1072.116	878.921
50.271	25.503	1071.217	878.565
51.286	25.574	1070.691	878.403
52.301	25.508	1069.831	877.299
53.315	25.428	1069.032	876.173
54.330	25.323	1067.926	874.680
55.344	25.527	1066.738	874.621
56.359	25.355	1066.339	873.377
57.374	25.284	1065.280	872.087
58.388	25.213	1064.451	870.990
59.403	25.241	1063.357	870.155
60.417	25.004	1063.045	868.673
61.432	25.156	1062.212	868.650
62.447	25.306	1061.508	868.726
63.461	25.221	1060.677	867.556
64.476	25.136	1060.185	866.663
65.490	25.117	1058.708	865.289
66.505	25.170	1058.519	865.317
67.520	25.312	1057.903	865.418
68.534	24.944	1056.885	862.737
69.549	24.563	1055.939	860.054
70.563	24.751	1054.536	859.742
71.578	24.852	1053.419	859.237
72.593	24.653	1052.513	857.470
73.607	24.752	1052.306	857.696
74.622	24.940	1052.115	858.368
75.636	25.072	1050.881	857.919
76.651	24.876	1050.363	856.479
77.666	24.861	1049.766	855.848
78.680	24.828	1049.032	855.014
79.695	24.985	1048.099	854.928
80.709	24.938	1047.747	854.343
81.724	25.072	1046.947	854.253
82.739	25.055	1045.901	853.240
83.753	25.435	1045.478	854.628
84.768	25.824	1044.686	855.756
85.782	25.853	1043.952	855.216
86.797	25.658	1043.221	853.615
87.812	25.527	1042.250	852.126
88.826	25.685	1041.362	852.072
89.841	25.831	1040.181	851.722
90.855	25.791	1038.933	850.435
91.870	25.815	1037.779	849.529
92.884	25.606	1037.319	848.089
93.899	25.586	1036.236	847.036
94.914	25.634	1036.038	847.023
95.928	25.667	1034.466	845.821
96.943	25.251	1033.656	843.129
97.957	25.083	1032.304	841.163
98.972	24.988	1031.175	839.722
99.987	25.234	1030.181	839.992
101.001	25.442	1029.577	840.399
102.016	25.434	1028.732	839.597
103.030	25.274	1027.950	838.138
104.045	25.317	1026.730	837.270
105.060	25.123	1025.588	835.360
106.074	25.225	1025.263	835.494
107.089	25.642	1024.481	836.726
108.103	25.560	1023.172	835.200
109.118	25.069	1022.522	832.318
110.133	25.096	1021.751	831.739
111.147	25.033	1020.201	830.112
112.162	24.790	1019.489	828.336
113.176	25.189	1018.728	829.491
114.191	25.067	1017.858	828.142
115.206	24.769	1016.685	825.740
116.220	24.705	1015.925	824.757
117.235	24.790	1015.302	824.567
118.249	24.912	1014.275	824.224
119.264	24.764	1013.350	822.718
120.279	24.618	1012.900	821.611
121.293	24.899	1012.002	822.100
122.308	24.867	1010.943	821.017
123.322	24.807	1009.922	819.842
124.337	24.785	1008.131	818.212
125.352	24.155	1007.006	814.348
126.366	24.151	1006.120	813.542
127.381	24.794	1006.189	816.462
128.395	25.271	1006.149	818.535
129.410	25.426	1005.039	818.265
130.424	25.446	1003.514	817.043
131.439	25.318	1003.204	816.134
132.454	25.360	1002.560	815.727
133.468	25.497	1000.865	814.900
134.483	25.519	1000.664	814.764
135.497	25.608	999.997	814.551
136.512	25.660	999.474	814.290
137.527	25.731	998.062	813.386
138.541	25.730	997.235	812.637
139.556	25.624	996.381	811.390
140.570	25.872	995.670	811.857
141.585	25.874	994.634	810.949
142.600	25.819	993.995	810.110
143.614	25.834	993.473	809.681
144.629	26.239	992.288	810.459
145.643	25.766	991.310	807.467
146.658	25.566	989.814	805.283
147.673	25.681	988.600	804.740
148.687	25.580	987.669	803.458
149.702	25.377	986.595	801.610
150.716	25.482	985.616	801.211
151.731	25.614	985.033	801.253
152.746	25.679	984.955	801.409
153.760	25.861	983.784	801.196
154.775	25.892	983.157	800.751
155.789	25.843	982.612	800.016
156.804	25.830	981.863	799.280
157.819	25.886	980.590	798.419
158.833	25.989	980.142	798.442
159.848	25.975	979.518	797.799
160.862	25.826	977.769	795.647
161.877	25.789	976.609	794.471
162.892	25.828	975.852	793.954
163.906	25.694	974.650	792.315
164.921	25.744	973.759	791.744
165.935	25.824	972.921	791.342
166.950	25.886	971.695	790.546
167.964	25.899	970.716	789.739
168.979	25.712	969.609	787.952
169.994	25.654	968.683	786.875
171.008	25.884	968.371	787.558
172.023	25.800	967.908	786.744
173.037	25.684	966.370	784.916
174.052	25.523	965.541	783.472
175.067	25.640	964.874	783.371
176.081	25.607	964.266	782.663
177.096	25.361	964.277	781.537
178.110	25.255	962.738	779.757
179.125	25.232	962.078	779.055
180.140	25.268	961.506	778.677
181.154	25.371	961.263	778.860
182.169	25.679	961.167	780.048
183.183	25.837	961.075	780.589
184.198	25.757	959.927	779.242
185.213	25.735	959.086	778.394
186.227	25.805	958.214	777.919
187.242	25.876	957.368	777.471
188.256	25.795	957.335	777.026
189.271	25.917	956.628	776.908
190.286	25.589	955.300	774.349
191.300	24.861	953.767	769.908
192.315	24.162	951.986	765.403
193.329	24.035	951.946	764.755
194.344	24.952	952.190	768.821
195.359	25.549	952.227	771.344
196.373	25.643	951.888	771.405
197.388	25.641	951.162	770.740
198.402	25.653	950.636	770.298
199.417	25.785	949.436	769.822
200.432	25.393	948.886	767.632
201.446	25.312	948.197	766.663
202.461	25.386	947.463	766.314
203.475	24.602	945.288	761.149
204.490	23.772	943.918	756.449
205.504	24.531	944.629	760.180
206.519	25.175	944.672	762.889
207.534	25.293	943.919	762.715
208.548	25.836	944.176	765.163
209.563	25.488	943.031	762.693
210.577	25.370	941.981	761.276
211.592	25.828	942.542	763.603
212.607	25.804	941.514	762.601
213.621	26.035	940.417	762.622
214.636	25.909	940.027	761.705
215.650	25.822	939.015	760.452
216.665	25.958	938.377	760.439
217.680	25.869	937.754	759.494
218.694	25.458	936.558	756.726
219.709	25.323	935.894	755.553
220.723	25.538	935.669	756.211
221.738	25.715	935.042	756.380
222.753	25.674	934.299	755.540
223.767	25.714	934.253	755.604
224.782	26.012	933.817	756.434
225.796	25.951	932.933	755.397
226.811	25.341	931.549	751.654
227.826	24.777	929.994	747.977
228.840	24.799	929.779	747.831
229.855	24.933	929.024	747.716
230.869	24.401	928.161	744.735
231.884	24.902	928.149	746.751
232.899	25.648	928.556	750.124
233.913	25.662	927.179	749.005
234.928	25.647	926.548	748.365
235.942	25.456	926.586	747.536
236.957	25.180	925.202	745.207
237.972	25.209	924.737	744.884
238.986	25.315	924.140	744.778
240.001	25.331	923.275	744.081
241.015	25.423	923.397	744.494
242.030	25.535	922.956	744.539
243.045	25.660	922.425	744.561
244.059	25.844	921.972	744.890
245.074	25.750	920.662	743.379
246.088	25.267	920.076	740.845
247.103	25.635	918.940	741.383
248.117	26.100	919.456	743.649
249.132	26.272	919.134	744.032
250.147	26.393	918.799	744.193
251.161	26.458	918.469	744.125
252.176	26.558	917.296	743.523
253.190	26.627	916.726	743.275
254.205	26.812	916.598	743.867
255.220	26.744	915.643	742.747
256.234	26.458	915.052	741.029
257.249	26.524	914.296	740.625
258.263	26.532	913.473	739.923
259.278	26.668	912.665	739.760
260.293	26.574	912.649	739.295
261.307	26.598	911.737	738.590
262.322	26.369	910.832	736.858
263.336	25.615	908.937	732.192
264.351	24.606	906.833	726.333
265.366	24.493	907.267	726.159
266.380	25.682	907.563	731.163
267.395	26.101	907.441	732.701
268.409	26.113	906.590	731.997
269.424	26.323	906.138	732.420
270.439	26.370	905.182	731.772
271.453	26.376	904.949	731.543
272.468	26.453	904.710	731.597
273.482	26.551	904.322	731.614
274.497	26.177	903.110	729.060
275.512	25.820	902.100	726.742
276.526	26.201	902.240	728.325
277.541	26.512	901.561	728.968
278.555	26.005	901.465	726.780
279.570	26.028	900.394	725.946
280.585	26.251	899.672	726.197
281.599	26.209	898.576	725.080
282.614	25.650	897.325	721.762
283.628	25.604	896.729	721.035
284.643	25.956	896.954	722.566
285.657	25.704	895.777	720.543
286.672	25.319	894.619	718.009
287.687	25.842	894.692	720.095
288.701	26.046	893.807	720.133
289.716	25.560	893.197	717.637
290.730	25.613	892.635	717.337
291.745	25.279	891.550	715.068
292.760	25.561	891.601	716.172
293.774	26.426	892.281	720.101
294.789	26.841	891.962	721.430
295.803	27.004	890.883	721.140
296.818	27.058	890.495	720.975
297.833	26.559	888.977	717.707
298.847	26.415	888.023	716.303
299.862	26.642	888.399	717.441
300.876	26.830	888.464	718.174
301.891	26.731	887.395	716.853
302.906	26.473	886.085	714.713
303.920	26.650	885.819	715.136
304.935	26.881	885.853	716.013
305.949	26.725	885.214	714.816
306.964	26.570	884.209	713.332
307.979	26.635	883.787	713.184
308.993	27.069	883.786	714.828
310.008	27.066	882.987	714.108
311.022	26.812	882.249	712.447
312.037	26.582	881.436	710.827
313.052	26.346	880.362	708.974
314.066	25.476	878.920	704.340
315.081	25.067	878.115	702.031
316.095	25.989	878.603	705.969
317.110	26.545	878.039	707.628
318.125	25.715	876.894	703.403
319.139	24.664	875.181	697.865
320.154	24.548	874.844	697.080
321.168	25.494	875.100	700.914
322.183	26.300	875.374	704.216
323.197	26.446	875.195	704.578
324.212	26.595	874.792	704.768
325.227	26.701	874.045	704.519
326.241	26.632	872.959	703.311
327.256	26.365	872.842	702.120
328.270	26.426	872.211	701.787
329.285	26.274	870.697	699.918
330.300	26.077	869.973	698.511
331.314	26.169	869.851	698.708
332.329	26.664	869.995	700.677
333.343	26.805	869.733	700.948
334.358	26.770	869.207	700.326
335.373	26.869	868.721	700.257
336.387	27.106	868.733	701.118
337.402	27.210	868.943	701.627
338.416	27.126	868.119	700.575
339.431	27.198	868.017	700.709
340.446	27.264	867.924	700.824
341.460	27.219	867.232	700.032
342.475	27.218	866.267	699.187
343.489	27.210	866.131	698.986
344.504	27.427	865.930	699.594
345.519	27.709	865.486	700.257
346.533	27.652	864.977	699.565
347.548	27.483	864.840	698.741
348.562	27.596	863.725	698.212
349.577	27.445	863.162	697.120
350.592	27.502	862.720	696.917
351.606	27.448	861.791	695.898
352.621	27.452	861.102	695.295
353.635	27.337	860.004	693.908
354.650	26.672	858.738	690.295
355.665	25.693	857.342	685.385
356.679	25.989	857.173	686.317
357.694	26.566	856.591	687.981
358.708	26.525	856.116	687.384
359.723	26.835	855.938	688.357
360.738	27.112	855.615	689.088
361.752	27.235	855.115	689.089
362.767	27.682	854.653	690.350
363.781	27.861	854.310	690.689
364.796	27.905	854.251	690.746
365.810	28.031	853.663	690.685
366.825	28.020	853.316	690.302
367.840	27.751	852.575	688.628
368.854	27.252	851.720	685.992
369.869	27.185	850.996	685.097
370.883	27.268	851.073	685.411
371.898	27.063	850.280	683.941
372.913	27.356	849.674	684.494
373.927	27.458	848.852	684.155
374.942	27.675	848.863	684.918
375.956	27.641	848.747	684.637
376.971	27.662	848.608	684.541
377.986	27.812	848.353	684.838
379.000	27.983	847.189	684.477
380.015	27.603	846.740	682.633
381.029	27.776	845.853	682.504
382.044	27.944	845.376	682.687
383.059	27.953	844.909	682.284
384.073	27.851	844.300	681.352
385.088	27.819	843.471	680.503
386.102	27.765	842.591	679.530
387.117	27.523	842.322	678.354
388.132	27.253	841.395	676.540
389.146	26.701	840.393	673.625
390.161	27.122	840.602	675.299
391.175	27.641	840.235	676.869
392.190	27.442	839.005	675.082
393.205	26.061	836.660	668.026
394.219	24.514	835.104	661.002
395.234	24.304	834.734	659.873
396.248	25.935	836.313	667.106
397.263	27.291	837.191	672.768
398.278	27.219	837.199	672.446
399.292	26.951	836.351	670.716
400.307	26.923	836.070	670.326
401.321	27.253	835.384	670.935
402.336	27.599	835.177	671.988
403.350	28.031	834.807	673.222
404.365	28.259	834.810	674.002
405.380	28.666	834.152	674.907
406.394	28.727	833.823	674.806
407.409	28.580	833.651	674.068
408.423	28.458	833.545	673.476
409.438	28.474	833.228	673.217
410.453	28.535	832.576	672.855
411.467	28.527	831.757	672.106
412.482	28.476	831.395	671.566
413.496	28.706	830.685	671.773
414.511	28.636	830.733	671.496
415.526	28.664	829.920	670.883
416.540	28.516	829.234	669.730
417.555	28.213	828.626	668.073
418.569	28.303	828.523	668.259
419.584	28.231	827.810	667.362
420.599	28.106	827.119	666.290
421.613	96.063	1269.176	1384.355
422.628	82.988	1333.628	1384.497
