DTS Sentinel unit serial number:	SN413079Multiplexer serial number:	ORYXHardware model number:	OX4-SRSoftware version number:	ORYX F/W v4.00 Oryx Data Collector v3.7.2.0data status	okinstallation	princeton_trtdifferential loss correction	single-endedforward channel	channel 1reverse channel	N/Adate	2019/09/14time	20:06:35forward acquisition time	60.00reverse acquisition time	0.00gamma	496.2192k internal	0.2314k external	0.2314temperature offset calibration	1.0028default loss term (dB/km)	0.3790temperature slope calibration	1.0000multiplexer offset coefficient	1.0000multiplexer slope coefficient	1.0000fibre end	0.00T internal ref (°C)	33.94T ext. ref 1 (°C)	4.87T ext. ref 2 (°C)	28.34length (m)	temperature (°C)	Stokes	anti-Stokes-747.200	118.329	0.093	0.116
-746.185	-117.969	-0.078	0.014
-745.171	63.037	0.181	0.184
-744.156	103.195	-0.147	0.175
-743.142	130.188	-0.246	-0.319
-742.127	-200.000	0.016	-0.146
-741.112	-0.089	-0.093	-0.067
-740.098	136.049	-0.085	0.113
-739.083	294.085	-0.137	0.253
-738.069	-200.000	0.023	0.198
-737.054	-200.000	0.003	0.083
-736.039	-200.000	-0.115	0.000
-735.025	-162.295	0.215	0.011
-734.010	44.235	0.269	0.250
-732.996	-200.000	-0.008	0.303
-731.981	-159.502	0.073	0.004
-730.966	-200.000	-0.023	-0.142
-729.952	800.000	0.064	-0.285
-728.937	-130.132	0.288	-0.040
-727.923	-200.000	0.032	-0.220
-726.908	-51.489	-0.222	-0.105
-725.894	-121.733	0.158	-0.026
-724.879	205.272	0.024	-0.037
-723.864	-70.075	-0.336	0.130
-722.850	800.000	-0.161	-0.453
-721.835	48.275	0.245	0.232
-720.821	-148.332	-0.401	-0.033
-719.806	794.715	-0.030	0.082
-718.791	-116.162	0.168	0.032
-717.777	212.579	-0.096	-0.153
-716.762	10.261	0.209	0.161
-715.748	-131.436	-0.064	-0.009
-714.733	90.376	0.105	0.119
-713.718	-111.066	0.215	-0.045
-712.704	-98.746	-0.045	0.012
-711.689	-81.005	0.308	-0.103
-710.675	489.762	-0.087	0.202
-709.660	800.000	0.099	-0.303
-708.645	-200.000	-0.055	0.363
-707.631	23.939	0.072	-0.060
-706.616	800.000	0.059	0.222
-705.602	800.000	0.076	0.289
-704.587	-200.000	0.006	0.228
-703.572	800.000	-0.082	-0.244
-702.558	201.069	-0.111	-0.173
-701.543	5.784	-0.106	0.080
-700.529	230.110	-0.072	0.118
-699.514	800.000	0.017	-0.060
-698.499	-23.867	0.070	0.042
-697.485	-66.188	0.121	-0.049
-696.470	56.626	-0.129	-0.127
-695.456	51.260	0.088	0.084
-694.441	91.675	0.333	0.379
-693.426	290.953	-0.023	0.043
-692.412	1.173	0.132	-0.096
-691.397	-200.000	0.009	0.265
-690.383	-84.862	-0.182	-0.058
-689.368	-163.042	0.187	0.009
-688.354	-136.132	-0.398	0.047
-687.339	800.000	0.076	0.234
-686.324	109.536	-0.011	-0.013
-685.310	310.539	0.057	0.107
-684.295	685.082	0.032	-0.086
-683.281	-8.878	-0.379	-0.257
-682.266	-17.096	0.221	-0.141
-681.251	-200.000	-0.006	-0.150
-680.237	165.535	-0.060	0.086
-679.222	-67.469	-0.161	-0.064
-678.208	-54.698	-0.144	0.066
-677.193	-107.816	-0.155	-0.034
-676.178	-200.000	0.039	0.326
-675.164	-200.000	0.007	0.128
-674.149	-13.294	-0.098	0.064
-673.135	788.607	-0.041	0.114
-672.120	-18.614	-0.262	-0.165
-671.105	-3.392	-0.185	-0.130
-670.091	-77.818	0.324	-0.113
-669.076	5.481	0.159	-0.119
-668.062	-103.921	-0.254	0.060
-667.047	28.177	0.142	-0.121
-666.032	-79.511	-0.518	-0.177
-665.018	44.675	-0.169	-0.157
-664.003	163.185	-0.067	0.095
-662.989	-200.000	0.011	0.245
-661.974	633.959	-0.084	0.215
-660.959	255.560	-0.108	-0.187
-659.945	-181.358	0.119	-0.002
-658.930	800.000	-0.090	-0.262
-657.916	-138.417	-0.293	0.033
-656.901	-98.306	0.234	-0.061
-655.886	-72.684	0.183	-0.068
-654.872	-95.236	-0.184	-0.050
-653.857	103.628	0.147	-0.175
-652.843	-200.000	0.006	-0.445
-651.828	-0.937	0.234	0.167
-650.814	714.330	-0.035	0.093
-649.799	-58.917	-0.205	-0.089
-648.784	-101.082	-0.252	-0.062
-647.770	-200.000	-0.043	-0.334
-646.755	-11.745	-0.194	-0.129
-645.741	-4.831	0.336	-0.234
-644.726	-47.428	-0.390	-0.191
-643.711	-60.515	-0.054	0.023
-642.697	-163.538	-0.162	-0.008
-641.682	66.068	0.106	0.109
-640.668	-24.493	0.251	0.151
-639.653	-200.000	-0.021	0.243
-638.638	-200.000	-0.039	-0.275
-637.624	800.000	0.044	0.131
-636.609	-200.000	0.019	-0.298
-635.595	447.360	0.062	0.137
-634.580	42.549	-0.145	-0.133
-633.565	445.828	-0.087	-0.194
-632.551	-124.147	-0.071	0.011
-631.536	-79.718	-0.227	0.077
-630.522	65.400	-0.266	0.272
-629.507	41.400	-0.446	0.407
-628.492	87.588	-0.159	0.178
-627.478	438.985	-0.107	-0.236
-626.463	-23.384	0.150	0.091
-625.449	-200.000	-0.020	-0.310
-624.434	800.000	-0.066	0.239
-623.419	-45.084	-0.187	0.094
-622.405	82.291	-0.051	-0.056
-621.390	-28.599	0.306	0.178
-620.376	-50.227	0.081	0.039
-619.361	-105.844	0.260	0.059
-618.346	163.603	-0.191	0.271
-617.332	-200.000	-0.042	-0.277
-616.317	800.000	0.061	-0.192
-615.303	800.000	-0.032	0.106
-614.288	-46.296	-0.315	0.156
-613.273	-200.000	-0.044	0.280
-612.259	213.433	0.054	-0.087
-611.244	-10.552	-0.191	-0.128
-610.230	117.266	-0.103	0.128
-609.215	800.000	0.076	0.289
-608.201	648.987	0.070	0.181
-607.186	800.000	-0.100	-0.406
-606.171	-170.297	0.035	-0.001
-605.157	31.595	-0.083	0.072
-604.142	102.423	0.082	0.097
-603.128	-135.905	0.317	-0.038
-602.113	-84.150	0.340	0.109
-601.098	-200.000	0.020	0.337
-600.084	-139.360	-0.270	0.029
-599.069	649.672	-0.117	0.301
-598.055	226.607	0.065	-0.107
-597.040	-156.811	-0.165	0.010
-596.025	639.027	-0.088	-0.227
-595.011	-141.577	0.085	-0.009
-593.996	-134.784	-0.131	0.016
-592.982	-140.231	-0.381	-0.040
-591.967	-56.263	-0.124	0.055
-590.952	-200.000	-0.024	-0.257
-589.938	147.935	0.152	-0.206
-588.923	-119.176	0.073	-0.013
-587.909	-92.166	0.241	-0.069
-586.894	-9.923	0.200	0.134
-585.879	-200.000	0.030	-0.162
-584.865	95.341	0.128	0.147
-583.850	48.971	-0.091	0.086
-582.836	-49.309	0.332	-0.160
-581.821	-72.058	-0.269	0.101
-580.806	-128.342	-0.453	-0.065
-579.792	800.000	-0.110	-0.442
-578.777	-180.598	0.158	0.003
-577.763	437.327	0.020	0.044
-576.748	4.300	-0.217	-0.160
-575.733	371.923	-0.032	-0.065
-574.719	8.737	0.178	-0.135
-573.704	-200.000	-0.052	0.290
-572.690	-43.479	0.100	-0.051
-571.675	800.000	0.074	0.324
-570.661	-10.756	-0.194	0.129
-569.646	-37.782	-0.162	-0.087
-568.631	-23.994	0.331	-0.199
-567.617	9.813	0.125	-0.096
-566.602	-122.895	-0.508	0.083
-565.588	-200.000	0.062	-0.336
-564.573	519.992	-0.059	-0.139
-563.558	270.607	-0.203	0.360
-562.544	382.069	-0.090	-0.186
-561.529	-83.848	-0.217	-0.070
-560.515	800.000	-0.019	-0.081
-559.500	267.881	-0.055	-0.096
-558.485	-103.027	-0.160	-0.038
-557.471	31.774	0.123	-0.106
-556.456	-88.680	0.137	0.041
-555.442	-200.000	0.041	0.242
-554.427	79.258	0.063	-0.068
-553.412	-144.195	-0.118	0.011
-552.398	760.607	-0.026	0.072
-551.383	-200.000	-0.002	-0.101
-550.369	-200.000	-0.030	0.161
-549.354	73.016	0.254	0.267
-548.339	29.903	-0.119	-0.102
-547.325	-200.000	-0.014	-0.097
-546.310	800.000	-0.051	0.151
-545.296	-61.584	0.248	-0.105
-544.281	-87.266	0.118	-0.036
-543.266	-200.000	-0.053	-0.345
-542.252	800.000	-0.046	-0.181
-541.237	239.663	-0.133	-0.222
-540.223	-83.407	-0.253	0.082
-539.208	800.000	0.075	0.269
-538.193	-47.005	-0.094	-0.046
-537.179	794.206	0.025	-0.069
-536.164	-30.362	-0.049	-0.028
-535.150	-80.744	-0.369	0.123
-534.135	-200.000	-0.033	0.160
-533.121	-81.758	-0.326	-0.107
-532.106	-15.229	0.059	0.038
-531.091	-200.000	0.006	-0.145
-530.077	-185.345	0.182	-0.003
-529.062	-200.000	-0.037	-0.192
-528.048	-89.463	-0.351	-0.104
-527.033	-60.232	0.114	0.049
-526.018	-103.843	0.179	-0.042
-525.004	-91.991	-0.065	0.018
-523.989	64.274	-0.095	0.096
-522.975	800.000	-0.100	-0.330
-521.960	-105.372	0.231	-0.053
-520.945	8.427	0.060	-0.045
-519.931	35.067	-0.109	-0.096
-518.916	-67.942	-0.136	0.053
-517.902	40.565	-0.112	-0.101
-516.887	329.120	0.107	0.206
-515.872	-24.673	-0.040	-0.024
-514.858	-170.947	0.375	0.013
-513.843	-200.000	-0.022	-0.252
-512.829	-62.518	0.178	-0.074
-511.814	-168.373	-0.307	-0.012
-510.799	-41.666	0.329	-0.170
-509.785	132.011	-0.049	0.063
-508.770	800.000	0.031	-0.095
-507.756	213.245	0.139	0.221
-506.741	800.000	0.061	-0.173
-505.726	61.987	-0.231	-0.231
-504.712	800.000	-0.050	-0.188
-503.697	800.000	0.059	-0.214
-502.683	-200.000	-0.012	0.166
-501.668	-200.000	-0.029	-0.423
-500.653	800.000	-0.056	-0.203
-499.639	-200.000	-0.020	0.152
-498.624	279.530	-0.055	0.099
-497.610	-139.482	0.155	-0.017
-496.595	800.000	-0.036	0.111
-495.581	28.281	0.090	0.077
-494.566	109.305	0.117	0.140
-493.551	-121.615	-0.304	-0.051
-492.537	12.920	-0.292	0.227
-491.522	6.265	-0.328	0.244
-490.508	-28.513	0.133	0.077
-489.493	-41.667	-0.166	-0.085
-488.478	-103.626	0.264	0.062
-487.464	-117.858	-0.184	-0.033
-486.449	-92.742	0.082	-0.023
-485.435	397.080	-0.045	0.093
-484.420	-24.141	-0.126	-0.076
-483.405	-31.126	-0.228	0.129
-482.391	-200.000	0.020	0.201
-481.376	-200.000	0.058	0.394
-480.362	-176.051	0.071	0.002
-479.347	307.498	-0.227	0.425
-478.332	118.374	0.176	0.218
-477.318	12.404	0.349	0.270
-476.303	-200.000	0.011	0.085
-475.289	-74.704	-0.312	-0.112
-474.274	205.605	-0.119	0.186
-473.259	800.000	0.038	-0.107
-472.245	116.038	0.156	0.192
-471.230	72.262	-0.195	0.203
-470.216	333.620	0.041	0.079
-469.201	33.565	-0.057	0.050
-468.186	233.456	-0.099	-0.163
-467.172	-200.000	-0.078	-0.520
-466.157	155.033	-0.077	0.107
-465.143	-152.344	-0.111	0.008
-464.128	-128.890	0.072	0.010
-463.113	610.021	0.085	-0.212
-462.099	-143.226	-0.414	0.040
-461.084	-90.563	0.191	-0.056
-460.070	-8.254	0.208	-0.140
-459.055	464.722	0.155	0.348
-458.040	427.837	-0.047	0.101
-457.026	11.108	-0.098	-0.075
-456.011	264.213	-0.127	-0.221
-454.997	54.825	-0.070	-0.068
-453.982	-127.446	0.180	0.026
-452.968	-134.172	0.385	-0.048
-451.953	-200.000	-0.042	-0.436
-450.938	-12.926	-0.037	-0.024
-449.924	-200.000	0.028	-0.243
-448.909	39.371	-0.203	-0.182
-447.895	-200.000	0.080	-0.427
-446.880	-21.821	0.418	-0.255
-445.865	-80.488	0.067	-0.022
-444.851	-3.487	-0.132	-0.092
-443.836	-36.647	0.337	0.182
-442.822	-19.284	-0.197	-0.123
-441.807	-148.040	0.174	-0.014
-440.792	-86.044	0.084	0.026
-439.778	800.000	0.052	-0.151
-438.763	-163.271	0.124	-0.006
-437.749	-93.015	0.199	0.055
-436.734	-28.091	0.186	0.108
-435.719	643.038	-0.046	-0.118
-434.705	39.130	0.055	0.049
-433.690	800.000	0.031	-0.091
-432.676	-19.530	-0.139	-0.086
-431.661	513.031	-0.029	0.067
-430.646	-8.209	-0.099	0.067
-429.632	-117.367	-0.310	0.056
-428.617	-91.022	0.280	-0.081
-427.603	800.000	0.067	0.200
-426.588	-7.026	-0.050	0.034
-425.573	-31.090	-0.079	-0.045
-424.559	800.000	0.049	0.207
-423.544	-55.278	0.185	-0.083
-422.530	-200.000	0.016	-0.328
-421.515	-21.114	-0.256	-0.156
-420.500	-11.962	0.238	0.156
-419.486	-200.000	0.000	0.255
-418.471	83.477	-0.132	0.144
-417.457	-61.414	0.126	0.053
-416.442	-200.000	-0.035	-0.171
-415.428	-95.839	-0.256	-0.068
-414.413	-86.630	-0.219	0.067
-413.398	106.341	0.206	0.244
-412.384	-45.245	0.375	0.186
-411.369	779.771	-0.090	-0.246
-410.355	0.462	-0.215	-0.153
-409.340	-200.000	0.004	-0.196
-408.325	-200.000	0.003	-0.143
-407.311	-200.000	0.008	0.100
-406.296	-98.387	0.074	0.019
-405.282	114.903	-0.116	0.141
-404.267	14.052	0.158	-0.123
-403.252	-117.667	-0.023	-0.004
-402.238	-29.020	0.216	0.124
-401.223	-200.000	0.002	0.195
-400.209	-88.760	0.189	-0.056
-399.194	-168.377	-0.172	0.007
-398.179	800.000	-0.118	-0.391
-397.165	-67.156	-0.059	-0.023
-396.150	-101.747	-0.084	-0.020
-395.136	138.896	0.210	-0.275
-394.121	-200.000	-0.055	-0.345
-393.106	224.625	0.024	0.039
-392.092	101.343	0.073	0.085
-391.077	-0.505	0.326	0.231
-390.063	-189.675	0.285	0.003
-389.048	-148.430	-0.282	0.023
-388.033	407.611	0.098	-0.208
-387.019	53.318	0.040	0.039
-386.004	363.634	-0.197	0.396
-384.990	-200.000	0.008	0.164
-383.975	57.341	-0.033	-0.032
-382.960	-75.580	-0.166	0.059
-381.946	24.795	0.064	0.053
-380.931	189.380	-0.226	-0.338
-379.917	-117.258	0.092	0.017
-378.902	800.000	0.026	-0.080
-377.888	427.856	0.096	0.208
-376.873	-166.513	-0.347	0.014
-375.858	82.159	-0.108	0.117
-374.844	-37.444	0.140	-0.075
-373.829	-27.729	-0.097	-0.056
-372.815	-53.823	0.214	0.097
-371.800	-66.605	0.260	0.103
-370.785	-96.489	0.092	-0.024
-369.771	-56.820	-0.237	0.104
-368.756	103.080	0.154	0.180
-367.742	-133.370	0.375	-0.047
-366.727	70.128	0.230	-0.237
-365.712	-162.088	0.086	-0.004
-364.698	-176.496	0.221	-0.006
-363.683	451.531	-0.076	0.167
-362.669	315.935	0.165	0.311
-361.654	10.703	-0.163	0.125
-360.639	-64.807	0.534	0.216
-359.625	640.820	-0.095	-0.241
-358.610	182.875	-0.203	-0.299
-357.596	70.531	0.143	-0.148
-356.581	-200.000	0.019	0.254
-355.566	-2.717	0.086	-0.060
-354.552	800.000	0.097	0.385
-353.537	-26.511	-0.137	-0.080
-352.523	-200.000	0.000	-0.031
-351.508	175.290	-0.294	0.425
-350.493	-0.934	-0.028	-0.019
-349.479	293.847	0.127	0.231
-348.464	800.000	0.100	0.358
-347.450	389.476	0.111	0.230
-346.435	12.124	-0.099	0.076
-345.420	421.337	-0.058	0.125
-344.406	800.000	0.026	0.084
-343.391	200.058	0.153	0.235
-342.377	658.064	-0.065	0.166
-341.362	-89.972	0.108	-0.031
-340.348	-126.760	-0.095	0.014
-339.333	-47.120	-0.280	0.136
-338.318	-71.951	-0.152	-0.056
-337.304	502.667	0.108	0.248
-336.289	-26.202	-0.046	0.027
-335.275	-200.000	-0.025	0.442
-334.260	0.773	-0.243	-0.173
-333.245	140.216	0.082	0.108
-332.231	194.516	0.104	-0.157
-331.216	-200.000	-0.011	0.257
-330.202	-70.301	-0.022	-0.008
-329.187	800.000	-0.009	-0.035
-328.172	-139.761	0.150	-0.016
-327.158	-200.000	0.042	-0.284
-326.143	-41.593	-0.099	-0.051
-325.129	-87.619	0.178	-0.054
-324.114	-139.924	0.047	0.005
-323.099	-200.000	-0.005	0.035
-322.085	47.913	-0.184	0.172
-321.070	107.817	0.113	0.134
-320.056	-105.330	0.087	0.020
-319.041	-127.088	-0.297	-0.043
-318.026	800.000	0.061	0.174
-317.012	140.853	0.116	-0.152
-315.997	-76.744	0.344	-0.120
-314.983	800.000	-0.127	0.356
-313.968	800.000	-0.021	0.061
-312.953	124.866	0.135	0.170
-311.939	-87.953	0.106	0.032
-310.924	777.897	0.094	0.255
-309.910	446.590	-0.039	-0.086
-308.895	678.719	0.013	-0.034
-307.880	30.981	-0.216	-0.185
-306.866	-114.969	-0.117	0.022
-305.851	-150.813	0.223	0.017
-304.837	-81.939	0.089	0.029
-303.822	71.948	0.038	-0.039
-302.807	-200.000	-0.005	-0.169
-301.793	800.000	0.038	-0.118
-300.778	-57.527	0.139	0.061
-299.764	-80.426	-0.105	-0.035
-298.749	165.272	0.133	-0.188
-297.735	-90.019	0.263	-0.076
-296.720	-53.474	0.324	0.148
-295.705	722.113	-0.082	-0.217
-294.691	371.232	0.072	-0.145
-293.676	-64.259	0.066	-0.027
-292.662	-67.850	-0.120	0.047
-291.647	-200.000	0.057	0.373
-290.632	320.100	0.104	-0.197
-289.618	514.144	0.071	0.164
-288.603	-43.407	0.126	0.064
-287.589	117.285	0.204	-0.250
-286.574	85.811	-0.143	-0.157
-285.559	197.642	0.116	0.177
-284.545	-20.494	-0.251	-0.154
-283.530	-178.083	-0.142	0.003
-282.516	-42.991	-0.008	-0.004
-281.501	402.176	0.125	0.262
-280.486	717.720	-0.082	-0.216
-279.472	-80.454	-0.349	-0.116
-278.457	68.797	0.214	-0.218
-277.443	800.000	0.051	-0.178
-276.428	618.409	-0.034	-0.085
-275.413	-200.000	-0.021	0.259
-274.399	529.926	0.077	-0.182
-273.384	-26.878	-0.258	-0.150
-272.370	-124.327	0.315	-0.049
-271.355	660.470	-0.038	-0.098
-270.340	-200.000	0.040	-0.202
-269.326	-179.553	-0.264	0.006
-268.311	442.376	-0.017	0.036
-267.297	313.059	0.050	-0.093
-266.282	-31.738	-0.109	0.061
-265.267	-71.084	-0.181	-0.068
-264.253	-200.000	0.022	0.110
-263.238	-71.345	-0.350	-0.131
-262.224	-41.510	-0.194	-0.099
-261.209	800.000	0.074	-0.208
-260.195	-200.000	0.021	0.111
-259.180	-83.510	0.274	0.087
-258.165	-39.039	0.256	-0.134
-257.151	-200.000	0.036	-0.468
-256.136	-89.714	0.248	-0.072
-255.122	22.911	-0.164	0.134
-254.107	108.176	-0.107	-0.126
-253.092	-46.456	0.364	-0.178
-252.078	-109.308	0.202	-0.043
-251.063	282.495	0.092	-0.164
-250.049	-200.000	-0.028	0.188
-249.034	-38.002	-0.068	-0.036
-248.019	161.358	-0.058	0.081
-247.005	356.343	-0.024	0.048
-245.990	-160.906	0.162	0.008
-244.976	-30.546	-0.019	0.011
-243.961	-138.577	0.181	-0.020
-242.946	-200.000	-0.051	-0.229
-241.932	-76.070	0.118	0.041
-240.917	207.812	-0.165	0.256
-239.903	-42.856	0.083	0.042
-238.888	-200.000	0.019	-0.316
-237.873	127.390	0.146	-0.184
-236.859	-31.937	0.224	-0.125
-235.844	-113.810	-0.338	0.065
-234.830	-104.743	0.396	0.090
-233.815	-200.000	-0.014	-0.181
-232.800	-83.650	-0.071	-0.022
-231.786	421.677	-0.071	-0.152
-230.771	-17.935	0.072	-0.045
-229.757	-47.585	0.124	0.060
-228.742	-124.697	-0.090	-0.014
-227.727	-200.000	0.017	-0.112
-226.713	147.260	-0.152	0.204
-225.698	139.997	-0.178	-0.233
-224.684	-13.217	0.270	-0.174
-223.669	361.436	-0.147	-0.292
-222.655	-83.656	-0.163	0.052
-221.640	654.567	0.029	-0.074
-220.625	-52.070	-0.254	-0.117
-219.611	106.619	-0.157	0.185
-218.596	-18.518	0.122	-0.076
-217.582	-64.331	-0.358	0.145
-216.567	-125.629	0.719	0.108
-215.552	-200.000	0.008	-0.163
-214.538	-140.107	0.247	0.026
-213.523	433.996	0.122	-0.264
-212.509	-99.997	0.185	0.046
-211.494	36.703	-0.203	0.178
-210.479	-126.058	-0.268	0.040
-209.465	800.000	0.050	-0.141
-208.450	76.949	0.273	0.288
-207.436	-15.152	0.167	-0.106
-206.421	800.000	0.136	0.396
-205.406	-57.100	0.293	-0.128
-204.392	59.946	-0.327	0.320
-203.377	-61.373	0.181	-0.075
-202.363	-25.453	0.101	0.059
-201.348	382.972	0.065	0.132
-200.333	-120.386	-0.160	-0.027
-199.319	800.000	-0.083	0.306
-198.304	-68.962	-0.143	0.055
-197.290	468.503	0.119	0.265
-196.275	-14.194	0.278	0.178
-195.260	123.795	0.204	0.254
-194.246	800.000	-0.048	0.145
-193.231	24.820	-0.260	-0.214
-192.217	-126.923	0.206	-0.030
-191.202	117.540	-0.037	-0.045
-190.187	-200.000	0.031	-0.308
-189.173	28.017	0.441	0.369
-188.158	-167.135	-0.167	-0.007
-187.144	46.225	-0.144	0.132
-186.129	68.173	0.140	0.142
-185.114	785.417	-0.064	0.173
-184.100	-122.491	-0.111	0.018
-183.085	-79.734	-0.185	0.062
-182.071	-21.940	-0.298	-0.180
-181.056	261.623	-0.029	0.050
-180.042	-56.549	-0.176	-0.077
-179.027	231.710	-0.128	-0.209
-178.012	-19.473	-0.245	-0.151
-176.998	484.447	0.087	0.196
-175.983	219.397	-0.218	0.346
-174.969	-49.003	-0.353	-0.168
-173.954	800.000	0.035	0.125
-172.939	84.660	0.083	-0.090
-171.925	-0.709	-0.236	-0.166
-170.910	15.631	0.211	0.164
-169.896	-200.000	0.020	-0.147
-168.881	122.835	0.167	-0.207
-167.866	263.839	0.041	0.070
-166.852	-23.743	-0.341	-0.203
-165.837	-132.700	-0.161	0.020
-164.823	179.257	-0.126	0.183
-163.808	-107.290	0.226	-0.049
-162.793	-26.384	0.456	0.265
-161.779	418.988	0.159	0.338
-160.764	3.034	-0.108	0.078
-159.750	167.913	-0.065	-0.092
-158.735	24.858	0.306	0.251
-157.720	18.136	0.242	-0.191
-156.706	246.450	-0.066	-0.110
-155.691	213.035	-0.069	0.108
-154.677	-76.298	-0.071	-0.025
-153.662	104.058	0.233	0.272
-152.647	-200.000	-0.042	-0.234
-151.633	-103.698	-0.293	-0.068
-150.618	-13.762	0.238	0.152
-149.604	-200.000	0.026	0.252
-148.589	220.876	0.054	-0.085
-147.574	-134.952	-0.236	0.028
-146.560	-124.839	0.200	-0.031
-145.545	-179.736	-0.252	-0.005
-144.531	-156.037	0.078	0.005
-143.516	-65.803	0.119	0.047
-142.502	46.185	0.103	0.095
-141.487	-200.000	0.037	0.377
-140.472	-200.000	-0.042	-0.222
-139.458	-200.000	0.028	-0.211
-138.443	148.838	-0.083	-0.111
-137.429	-135.000	-0.080	0.010
-136.414	-200.000	-0.027	-0.329
-135.399	-200.000	0.126	0.000
-134.385	-32.182	-0.286	0.158
-133.370	-200.000	0.064	0.349
-132.356	-200.000	0.056	-0.266
-131.341	152.373	0.049	0.067
-130.326	183.514	-0.202	0.295
-129.312	-200.000	-0.019	0.295
-128.297	714.903	0.108	0.283
-127.283	-97.842	0.432	0.111
-126.268	214.153	0.054	0.085
-125.253	171.109	-0.175	0.248
-124.239	-111.862	-0.131	0.026
-123.224	-3.374	0.294	0.202
-122.210	168.572	-0.224	0.316
-121.195	800.000	0.092	-0.295
-120.180	-70.054	0.232	-0.087
-119.166	-42.008	-0.199	0.101
-118.151	-40.689	-0.056	0.029
-117.137	263.627	0.160	-0.275
-116.122	-200.000	0.011	-0.285
-115.107	394.775	0.075	-0.155
-114.093	206.757	-0.127	0.195
-113.078	407.559	-0.097	0.202
-112.064	-200.000	0.019	-0.158
-111.049	85.894	-0.357	-0.389
-110.034	40.189	-0.025	-0.022
-109.020	800.000	0.012	0.035
-108.005	-99.858	-0.193	0.048
-106.991	-98.627	-0.107	-0.027
-105.976	-20.173	0.190	0.116
-104.962	800.000	0.070	0.241
-103.947	356.089	-0.085	-0.166
-102.932	8.408	0.335	0.249
-101.918	-64.103	0.324	0.131
-100.903	-200.000	0.013	0.257
-99.889	-9.413	0.160	0.106
-98.874	-73.220	0.081	-0.029
-97.859	529.764	0.124	-0.290
-96.845	47.904	0.045	0.042
-95.830	-200.000	0.024	0.137
-94.816	173.653	0.070	-0.099
-93.801	-91.922	0.288	0.081
-92.786	800.000	0.033	-0.136
-91.772	800.000	-0.067	0.211
-90.757	769.856	-0.064	0.172
-89.743	-40.906	-0.165	-0.084
-88.728	21.794	-0.307	-0.247
-87.713	-200.000	-0.045	0.349
-86.699	-129.082	0.076	0.010
-85.684	55.246	0.151	0.144
-84.670	150.311	0.220	0.295
-83.655	-50.967	-0.181	-0.084
-82.640	-99.874	-0.295	-0.073
-81.626	-200.000	0.012	0.335
-80.611	-58.743	0.091	0.039
-79.597	176.284	-0.101	0.145
-78.582	-65.831	0.018	0.007
-77.567	5.488	0.147	-0.107
-76.553	-59.635	0.190	-0.081
-75.538	-200.000	0.001	0.250
-74.524	122.876	0.049	0.061
-73.509	800.000	0.021	0.090
-72.494	130.608	0.184	-0.233
-71.480	226.363	-0.187	-0.299
-70.465	125.996	0.117	0.145
-69.451	-41.226	-0.191	0.097
-68.436	-200.000	0.003	0.211
-67.422	-77.205	-0.131	-0.045
-66.407	-72.183	-0.115	-0.042
-65.392	-97.799	-0.265	-0.068
-64.378	-41.310	-0.127	-0.065
-63.363	512.190	0.099	0.228
-62.349	-27.978	-0.066	-0.038
-61.334	160.397	-0.711	-0.979
-60.319	522.971	0.328	0.761
-59.305	800.000	-0.307	-0.916
-58.290	181.841	0.568	0.825
-57.276	207.436	1.015	1.563
-56.261	-200.000	96.091	572.015
-55.246	622.134	1392.172	3457.732
-54.232	191.606	2582.310	3838.005
-53.217	119.156	2157.545	2632.724
-52.203	45.378	1614.969	1470.133
-51.188	37.447	1352.325	1182.989
-50.173	34.160	1310.171	1126.648
-49.159	56.771	1358.119	1304.494
-48.144	59.612	1375.020	1337.742
-47.130	37.602	1332.371	1166.278
-46.115	34.077	1314.742	1129.908
-45.100	33.967	1310.113	1125.231
-44.086	33.787	1307.706	1122.058
-43.071	33.800	1305.120	1119.873
-42.057	33.679	1303.863	1118.036
-41.042	33.804	1301.647	1116.823
-40.027	33.960	1300.087	1116.357
-39.013	33.862	1298.220	1114.139
-37.998	33.820	1296.673	1112.517
-36.984	33.843	1295.033	1111.203
-35.969	33.910	1292.909	1109.727
-34.954	34.019	1291.154	1108.809
-33.940	34.086	1290.000	1108.169
-32.925	34.052	1288.784	1106.879
-31.911	34.025	1287.477	1105.559
-30.896	33.988	1286.362	1104.343
-29.881	34.042	1284.457	1102.976
-28.867	34.027	1283.461	1101.987
-27.852	33.973	1281.863	1100.261
-26.838	34.105	1280.427	1099.746
-25.823	34.014	1279.540	1098.416
-24.809	34.050	1277.683	1096.985
-23.794	34.023	1276.459	1095.739
-22.779	33.958	1275.303	1094.325
-21.765	34.083	1273.909	1093.803
-20.750	34.073	1272.547	1092.532
-19.736	33.940	1271.262	1090.628
-18.721	33.883	1270.326	1089.453
-17.706	33.901	1268.979	1088.357
-16.692	33.993	1267.710	1087.750
-15.677	33.854	1266.886	1086.206
-14.663	33.918	1265.621	1085.446
-13.648	33.785	1264.931	1084.051
-12.633	33.898	1263.461	1083.393
-11.619	33.916	1263.242	1083.263
-10.604	33.886	1262.219	1082.170
-9.590	33.768	1261.412	1080.768
-8.575	33.877	1259.898	1080.043
-7.560	33.823	1259.279	1079.165
-6.546	33.908	1258.255	1078.729
-5.531	33.797	1257.564	1077.463
-4.517	33.853	1256.855	1077.130
-3.502	33.978	1255.936	1077.010
-2.487	33.834	1255.425	1075.710
-1.473	33.857	1250.960	1071.972
-0.458	32.258	1235.873	1050.080
0.556	27.948	1217.993	1009.816
1.571	24.106	1222.872	992.406
2.586	22.910	1237.976	997.821
3.600	22.149	1226.758	984.436
4.615	16.717	1155.778	898.646
5.629	8.555	1081.282	799.969
6.644	4.967	1061.265	767.448
7.659	4.749	1058.538	764.337
8.673	4.915	1057.281	764.176
9.688	4.870	1055.851	762.859
10.702	5.080	1054.113	762.562
11.717	9.563	1060.018	788.760
12.731	16.759	1070.863	832.238
13.746	19.590	1073.426	848.076
14.761	18.801	1072.165	843.136
15.775	17.708	1069.958	835.967
16.790	16.757	1067.599	829.398
17.804	15.824	1066.476	823.887
18.819	15.480	1065.694	821.524
19.834	15.388	1064.424	820.022
20.848	15.025	1063.492	817.461
21.863	14.951	1062.426	816.208
22.877	14.754	1062.137	814.955
23.892	14.789	1061.140	814.286
24.907	14.762	1060.291	813.430
25.921	14.883	1058.897	812.879
26.936	14.964	1057.760	812.326
27.950	14.965	1056.416	811.227
28.965	14.817	1055.458	809.703
29.980	15.022	1053.742	809.307
30.994	15.131	1052.851	809.079
32.009	15.050	1051.975	807.942
33.023	15.134	1051.138	807.631
34.038	14.993	1049.634	805.728
35.053	15.004	1048.833	805.091
36.067	15.108	1047.513	804.510
37.082	14.985	1046.900	803.374
38.096	15.158	1045.955	803.409
39.111	15.007	1045.585	802.332
40.126	14.940	1044.005	800.726
41.140	14.854	1042.761	799.289
42.155	14.582	1041.871	797.236
43.169	14.651	1040.987	796.819
44.184	14.613	1039.699	795.580
45.199	14.674	1039.046	795.301
46.213	14.731	1037.690	794.464
47.228	14.940	1036.290	794.316
48.242	14.912	1035.498	793.506
49.257	14.931	1034.584	792.826
50.271	14.943	1034.025	792.384
51.286	15.057	1032.853	791.955
52.301	14.921	1032.143	790.698
53.315	14.877	1031.218	789.709
54.330	14.922	1029.503	788.543
55.344	14.768	1029.319	787.603
56.359	14.901	1028.109	787.234
57.374	14.647	1027.685	785.646
58.388	14.756	1026.405	785.108
59.403	14.640	1025.708	783.962
60.417	14.643	1025.027	783.384
61.432	14.594	1024.223	782.471
62.447	14.667	1022.974	781.789
63.461	14.595	1022.203	780.795
64.476	14.578	1021.566	780.159
65.490	14.586	1020.775	779.526
66.505	14.685	1019.767	779.149
67.520	14.622	1019.103	778.277
68.534	14.585	1018.740	777.758
69.549	14.653	1018.032	777.468
70.563	14.630	1016.633	776.221
71.578	14.518	1016.056	775.191
72.593	14.540	1015.179	774.556
73.607	14.604	1014.822	774.512
74.622	14.698	1014.143	774.364
75.636	14.572	1013.258	773.033
76.651	14.492	1012.902	772.324
77.666	14.545	1012.778	772.405
78.680	14.540	1011.578	771.399
79.695	14.549	1011.039	770.962
80.709	14.903	1009.731	771.530
81.724	14.732	1009.547	770.533
82.739	14.813	1008.855	770.309
83.753	14.816	1008.180	769.738
84.768	14.979	1007.548	769.941
85.782	15.212	1006.217	769.923
86.797	14.988	1005.719	768.446
87.812	14.932	1005.126	767.670
88.826	14.963	1003.708	766.661
89.841	15.166	1002.195	766.363
90.855	15.113	1001.753	765.717
91.870	15.110	1001.574	765.499
92.884	15.037	1000.480	764.262
93.899	15.088	999.673	763.810
94.914	15.277	998.625	763.802
95.928	15.101	997.792	762.299
96.943	15.143	996.619	761.525
97.957	15.026	996.220	760.621
98.972	15.114	995.387	760.315
99.987	15.047	994.422	759.209
101.001	15.041	993.598	758.487
102.016	15.083	992.565	757.820
103.030	15.164	992.085	757.754
104.045	15.057	991.594	756.826
105.060	14.895	990.958	755.542
106.074	14.787	989.428	753.821
107.089	14.702	988.613	752.749
108.103	14.741	987.395	751.935
109.118	14.805	986.170	751.222
110.133	14.687	985.367	750.015
111.147	14.660	984.680	749.300
112.162	14.784	984.294	749.500
113.176	14.942	983.204	749.309
114.191	14.812	982.494	748.119
115.206	14.745	982.272	747.586
116.220	14.809	981.451	747.182
117.235	14.817	980.530	746.451
118.249	14.803	979.603	745.616
119.264	14.795	978.350	744.561
120.279	14.740	977.933	743.931
121.293	14.737	977.351	743.409
122.308	14.697	976.633	742.620
123.322	14.733	975.329	741.723
124.337	14.694	974.261	740.671
125.352	14.671	973.277	739.756
126.366	14.615	972.426	738.798
127.381	14.772	971.202	738.493
128.395	14.717	970.028	737.296
129.410	14.744	969.461	736.918
130.424	14.748	969.000	736.519
131.439	14.873	967.865	736.139
132.454	14.987	967.317	736.162
133.468	14.902	966.710	735.263
134.483	15.002	965.446	734.675
135.497	15.002	965.089	734.338
136.512	14.848	964.208	732.927
137.527	14.874	963.478	732.422
138.541	14.960	962.281	731.824
139.556	14.990	962.113	731.761
140.570	14.960	961.540	731.128
141.585	15.166	960.650	731.287
142.600	15.158	959.705	730.469
143.614	15.179	958.910	729.890
144.629	15.315	958.078	729.783
145.643	15.205	957.316	728.659
146.658	15.141	955.992	727.308
147.673	14.998	955.327	726.121
148.687	15.074	954.364	725.654
149.702	15.005	953.565	724.681
150.716	14.905	952.342	723.254
151.731	14.960	951.956	723.138
152.746	14.905	951.668	722.614
153.760	15.098	950.620	722.591
154.775	15.106	950.493	722.461
155.789	15.146	949.567	721.869
156.804	15.212	948.877	721.565
157.819	15.180	948.316	720.936
158.833	15.241	947.654	720.630
159.848	15.259	947.124	720.241
160.862	15.162	945.929	718.854
161.877	15.198	944.604	717.937
162.892	15.056	943.463	716.398
163.906	15.056	942.519	715.617
164.921	15.063	941.764	715.011
165.935	15.123	940.910	714.556
166.950	15.130	940.219	713.996
167.964	15.083	939.420	713.128
168.979	15.170	938.042	712.387
169.994	15.180	937.169	711.706
171.008	15.250	937.119	711.901
172.023	15.281	935.954	711.086
173.037	15.299	935.258	710.568
174.052	15.258	934.883	710.049
175.067	15.068	934.098	708.584
176.081	15.038	933.457	707.910
177.096	15.096	932.700	707.516
178.110	15.160	932.115	707.283
179.125	15.212	931.591	707.039
180.140	15.375	930.958	707.185
181.154	15.188	930.995	706.362
182.169	15.257	930.675	706.349
183.183	15.452	929.789	706.434
184.198	15.505	928.698	705.764
185.213	15.479	928.103	705.141
186.227	15.426	927.787	704.615
187.242	15.566	927.005	704.548
188.256	15.571	926.633	704.223
189.271	15.413	925.942	702.973
190.286	15.252	924.861	701.419
191.300	15.125	923.940	700.125
192.315	15.066	923.375	699.387
193.329	15.038	922.788	698.766
194.344	15.193	922.342	699.013
195.359	15.335	921.671	699.032
196.373	15.416	921.339	699.056
197.388	15.371	921.036	698.577
198.402	15.565	920.123	698.633
199.417	15.753	919.182	698.636
200.432	15.750	918.666	698.169
201.446	15.683	918.446	697.663
202.461	15.788	917.832	697.571
203.475	15.835	916.995	697.066
204.490	15.800	915.927	696.049
205.504	15.670	915.664	695.250
206.519	15.728	914.490	694.537
207.534	15.565	914.370	693.709
208.548	15.596	913.857	693.390
209.563	15.677	913.048	693.048
210.577	15.683	912.539	692.622
211.592	15.952	911.444	692.839
212.607	15.815	910.933	691.825
213.621	15.775	910.782	691.483
214.636	15.832	909.691	690.831
215.650	15.901	908.728	690.320
216.665	15.865	908.453	689.902
217.680	15.870	907.705	689.295
218.694	15.880	907.242	688.922
219.709	15.815	906.482	688.017
220.723	15.896	905.802	687.771
221.738	15.898	904.685	686.869
222.753	15.918	904.292	686.595
223.767	15.970	903.924	686.466
224.782	16.006	903.584	686.292
225.796	16.130	902.769	686.119
226.811	16.111	901.880	685.305
227.826	15.900	901.504	684.101
228.840	15.944	900.690	683.599
229.855	15.980	899.740	682.964
230.869	16.010	898.857	682.355
231.884	15.967	897.839	681.350
232.899	15.945	897.579	681.002
233.913	15.744	897.131	679.790
234.928	15.865	896.226	679.532
235.942	15.890	895.835	679.278
236.957	15.906	895.444	678.983
237.972	15.869	894.959	678.408
238.986	15.855	893.775	677.392
240.001	15.942	893.053	677.135
241.015	15.913	892.661	676.664
242.030	16.133	891.687	676.747
243.045	16.069	891.510	676.296
244.059	16.067	890.665	675.586
245.074	16.119	890.210	675.392
246.088	16.105	889.657	674.856
247.103	16.276	888.791	674.822
248.117	16.347	888.590	674.893
249.132	16.501	887.761	674.820
250.147	16.584	887.411	674.825
251.161	16.544	886.710	674.071
252.176	16.548	885.967	673.465
253.190	16.603	885.834	673.523
254.205	16.629	885.171	673.060
255.220	16.557	884.511	672.214
256.234	16.510	884.102	671.659
257.249	16.589	883.011	671.083
258.263	16.678	882.471	670.967
259.278	16.732	881.771	670.589
260.293	16.689	881.400	670.074
261.307	16.776	880.731	669.852
262.322	16.778	879.950	669.206
263.336	16.791	879.714	669.019
264.351	16.807	878.399	668.022
265.366	16.945	877.721	667.992
266.380	16.725	877.167	666.648
267.395	16.681	876.852	666.175
268.409	16.778	876.030	665.872
269.424	16.755	875.416	665.255
270.439	16.774	874.456	664.543
271.453	16.674	873.799	663.592
272.468	16.616	873.286	662.917
273.482	16.765	872.304	662.694
274.497	16.785	872.121	662.577
275.512	16.664	871.586	661.637
276.526	16.814	871.107	661.803
277.541	16.781	870.482	661.141
278.555	16.841	869.780	660.782
279.570	17.079	869.088	661.124
280.585	16.978	868.439	660.180
281.599	16.901	867.824	659.354
282.614	16.896	866.705	658.424
283.628	16.800	866.586	657.904
284.643	16.746	866.011	657.202
285.657	16.834	865.899	657.397
286.672	16.811	864.629	656.288
287.687	17.012	864.149	656.645
288.701	16.998	863.426	655.981
289.716	16.917	863.019	655.301
290.730	17.025	862.567	655.318
291.745	17.044	861.888	654.815
292.760	16.930	861.225	653.814
293.774	17.040	860.742	653.815
294.789	17.082	860.022	653.373
295.803	17.110	859.304	652.877
296.818	17.082	858.434	652.048
297.833	17.016	857.843	651.289
298.847	17.058	857.456	651.099
299.862	17.073	856.805	650.605
300.876	17.272	856.304	650.927
301.891	17.137	855.894	650.044
302.906	17.321	855.167	650.137
303.920	17.463	854.585	650.180
304.935	17.446	854.432	649.939
305.949	17.384	853.586	649.002
306.964	17.252	852.687	647.758
307.979	17.189	852.432	647.269
308.993	17.538	851.816	648.071
310.008	17.573	851.126	647.623
311.022	17.389	850.817	646.629
312.037	17.383	849.825	645.798
313.052	17.206	849.532	644.845
314.066	17.254	848.877	644.471
315.081	17.205	848.550	643.983
316.095	17.162	847.819	643.208
317.110	17.288	846.928	642.952
318.125	17.272	846.608	642.591
319.139	17.355	845.899	642.311
320.154	17.187	845.703	641.469
321.168	17.302	845.312	641.550
322.183	17.407	844.752	641.462
323.197	17.447	844.074	641.044
324.212	17.392	843.742	640.526
325.227	17.268	843.344	639.700
326.241	17.264	842.504	638.993
327.256	17.278	841.834	638.481
328.270	17.318	841.300	638.170
329.285	17.293	840.739	637.593
330.300	17.264	840.103	636.948
331.314	17.280	840.063	636.920
332.329	17.677	838.847	637.427
333.343	17.522	838.820	636.771
334.358	17.616	838.349	636.705
335.373	17.564	837.987	636.179
336.387	17.665	837.457	636.101
337.402	17.669	837.756	636.286
338.416	17.615	837.494	635.830
339.431	17.861	836.703	636.087
340.446	17.769	836.188	635.298
341.460	17.884	835.804	635.379
342.475	17.855	835.698	635.134
343.489	17.917	835.094	634.849
344.504	17.931	834.577	634.450
345.519	17.971	834.126	634.202
346.533	18.029	833.579	633.944
347.548	17.899	833.156	633.086
348.562	17.791	832.487	632.118
349.577	17.882	831.794	631.873
350.592	17.674	831.323	630.690
351.606	17.790	830.704	630.594
352.621	17.852	829.872	630.137
353.635	17.934	829.204	629.875
354.650	17.850	828.374	628.880
355.665	17.913	828.153	628.890
356.679	17.936	827.733	628.599
357.694	18.035	826.918	628.289
358.708	18.026	825.983	627.489
359.723	17.873	825.680	626.640
360.738	18.013	824.906	626.514
361.752	17.956	824.470	625.918
362.767	18.051	824.150	625.968
363.781	18.119	823.456	625.634
364.796	18.322	823.291	626.195
365.810	18.311	823.067	625.930
366.825	18.470	822.505	626.026
367.840	18.081	821.939	624.120
368.854	18.248	821.265	624.163
369.869	18.168	820.941	623.571
370.883	18.258	820.875	623.792
371.898	18.144	820.706	623.192
372.913	18.331	819.772	623.108
373.927	18.152	819.660	622.316
374.942	18.250	818.702	621.893
375.956	18.393	818.447	622.162
376.971	18.522	817.809	622.090
377.986	18.631	817.297	622.043
379.000	18.625	816.996	621.736
380.015	18.453	816.530	620.702
381.029	18.460	816.182	620.408
382.044	18.634	814.964	620.057
383.059	18.525	814.983	619.621
384.073	18.538	814.187	619.010
385.088	18.446	813.432	618.049
386.102	18.414	813.028	617.574
387.117	18.497	812.279	617.246
388.132	18.269	812.386	616.454
389.146	18.577	811.350	616.718
390.161	18.441	811.213	616.072
391.175	18.542	810.527	615.859
392.190	18.530	809.826	615.230
393.205	18.515	809.266	614.695
394.219	18.318	809.721	614.282
395.234	18.464	808.762	614.021
396.248	18.328	808.669	613.409
397.263	18.128	807.944	612.087
398.278	18.318	808.031	612.782
399.292	18.537	806.621	612.441
400.307	18.346	806.400	611.536
401.321	18.521	805.834	611.676
402.336	18.354	805.863	611.050
403.350	18.478	805.240	610.964
404.365	18.785	804.656	611.561
405.380	18.697	804.358	610.967
406.394	18.686	803.881	610.510
407.409	18.733	803.652	610.450
408.423	18.912	803.118	610.628
409.438	18.894	802.600	610.116
410.453	19.014	802.506	610.414
411.467	18.932	801.853	609.576
412.482	18.916	801.402	609.121
413.496	19.014	801.004	609.112
414.511	19.051	801.099	609.260
415.526	18.992	800.620	608.634
416.540	18.978	799.791	607.900
417.555	18.988	799.134	607.380
418.569	18.965	798.960	607.116
419.584	19.001	798.490	606.832
420.599	19.023	798.118	606.570
421.613	155.741	1371.595	1791.128
422.628	134.926	1455.163	1791.198
