DTS Sentinel unit serial number:	SN413079Multiplexer serial number:	ORYXHardware model number:	OX4-SRSoftware version number:	ORYX F/W v4.00 Oryx Data Collector v3.7.2.0data status	okinstallation	princeton_trtdifferential loss correction	single-endedforward channel	channel 1reverse channel	N/Adate	2019/09/11time	11:00:11forward acquisition time	60.00reverse acquisition time	0.00gamma	496.2192k internal	0.2297k external	0.2297temperature offset calibration	0.9959default loss term (dB/km)	0.3790temperature slope calibration	1.0000multiplexer offset coefficient	1.0000multiplexer slope coefficient	1.0000fibre end	0.00T internal ref (°C)	37.20T ext. ref 1 (°C)	0.17T ext. ref 2 (°C)	34.49length (m)	temperature (°C)	Stokes	anti-Stokes-747.200	800.000	0.006	-0.021
-746.185	-200.000	0.005	0.051
-745.171	-200.000	0.028	0.146
-744.156	-200.000	-0.014	0.309
-743.142	11.267	0.209	0.163
-742.127	184.937	0.097	0.147
-741.112	566.888	0.105	0.260
-740.098	-2.613	0.248	-0.177
-739.083	63.739	0.156	0.160
-738.069	42.911	-0.127	0.118
-737.054	367.484	-0.233	-0.481
-736.039	121.600	0.210	-0.268
-735.025	-16.393	0.172	0.111
-734.010	-145.364	-0.079	0.007
-732.996	195.460	0.088	-0.137
-731.981	184.623	-0.181	-0.275
-730.966	-200.000	-0.029	-0.210
-729.952	-169.870	-0.421	-0.015
-728.937	800.000	-0.038	-0.135
-727.923	268.083	0.223	-0.399
-726.908	800.000	-0.047	-0.188
-725.894	-8.216	-0.084	0.058
-724.879	-191.808	-0.049	-0.000
-723.864	-15.481	0.030	-0.020
-722.850	30.404	-0.064	0.056
-721.835	-141.437	0.416	-0.043
-720.821	190.024	-0.021	-0.031
-719.806	57.371	-0.385	-0.384
-718.791	-65.012	-0.165	-0.068
-717.777	-19.610	-0.344	-0.217
-716.762	-54.580	0.066	0.031
-715.748	800.000	0.019	-0.067
-714.733	17.924	-0.035	-0.029
-713.718	264.123	-0.052	-0.093
-712.704	117.683	-0.052	-0.065
-711.689	-165.221	-0.340	0.015
-710.675	-103.205	0.355	-0.086
-709.660	-200.000	-0.047	-0.383
-708.645	-67.169	-0.294	0.118
-707.631	-1.050	0.228	-0.164
-706.616	-143.602	0.126	0.012
-705.602	88.972	0.069	-0.078
-704.587	467.263	-0.093	0.213
-703.572	-21.696	0.131	0.081
-702.558	-112.917	0.370	-0.075
-701.543	-3.760	-0.130	0.092
-700.529	-136.619	0.136	-0.016
-699.514	247.727	0.173	0.297
-698.499	-75.338	-0.061	0.022
-697.485	36.162	-0.255	0.229
-696.470	40.644	-0.103	-0.095
-695.456	-74.542	0.452	-0.166
-694.441	-200.000	0.004	-0.160
-693.426	-62.777	-0.075	-0.032
-692.412	-25.048	0.320	-0.194
-691.397	-35.745	-0.101	-0.056
-690.383	-40.879	-0.249	-0.131
-689.368	619.358	0.072	0.185
-688.354	464.018	-0.227	-0.518
-687.339	145.131	0.161	0.220
-686.324	-126.092	0.197	0.030
-685.310	-200.000	-0.042	0.228
-684.295	-34.285	-0.320	0.179
-683.281	800.000	0.087	-0.376
-682.266	618.622	-0.073	-0.187
-681.251	-200.000	0.015	-0.378
-680.237	-58.439	-0.089	-0.040
-679.222	307.091	-0.148	-0.281
-678.208	38.252	0.177	0.161
-677.193	-18.173	0.088	0.056
-676.178	-68.755	0.195	-0.077
-675.164	-200.000	-0.043	-0.458
-674.149	126.691	-0.137	0.177
-673.135	-79.710	0.067	0.023
-672.120	-200.000	0.024	0.261
-671.105	800.000	-0.063	0.194
-670.091	-149.404	-0.157	0.013
-669.076	130.518	0.184	-0.240
-668.062	-200.000	0.041	-0.327
-667.047	-80.871	0.291	-0.098
-666.032	21.193	0.427	0.353
-665.018	92.519	-0.145	0.166
-664.003	101.933	-0.124	0.147
-662.989	-83.184	-0.098	0.032
-661.974	-200.000	-0.005	-0.338
-660.959	239.749	0.049	-0.082
-659.945	462.511	-0.120	-0.272
-658.930	236.393	-0.093	0.156
-657.916	-200.000	-0.014	-0.068
-656.901	-145.179	-0.056	0.005
-655.886	-140.330	0.140	0.015
-654.872	-118.908	0.264	0.047
-653.857	-28.946	0.437	-0.255
-652.843	124.284	0.255	0.327
-651.828	412.070	0.197	0.426
-650.814	20.524	0.196	-0.162
-649.799	-34.036	-0.149	0.083
-648.784	363.612	-0.200	-0.410
-647.770	363.172	-0.107	-0.219
-646.755	800.000	0.029	-0.128
-645.741	-200.000	0.007	-0.303
-644.726	-137.666	-0.197	0.023
-643.711	417.347	0.054	0.117
-642.697	-200.000	-0.013	-0.096
-641.682	24.654	0.123	-0.104
-640.668	42.304	0.209	-0.193
-639.653	-133.197	0.606	0.078
-638.638	800.000	0.043	-0.165
-637.624	254.868	-0.073	0.126
-636.609	256.544	-0.037	-0.065
-635.595	2.897	-0.195	-0.144
-634.580	-200.000	0.004	0.152
-633.565	800.000	0.033	-0.098
-632.551	-150.397	-0.275	-0.021
-631.536	127.602	-0.275	-0.355
-630.522	800.000	-0.109	-0.375
-629.507	14.954	-0.157	0.125
-628.492	-200.000	-0.016	0.127
-627.478	84.467	0.037	-0.041
-626.463	-56.760	-0.334	-0.150
-625.449	-200.000	-0.017	-0.217
-624.434	-145.432	-0.222	0.020
-623.419	-100.444	-0.190	0.048
-622.405	13.186	0.127	0.100
-621.390	220.119	-0.148	0.241
-620.376	800.000	-0.072	-0.260
-619.361	-21.171	-0.211	0.131
-618.346	182.448	-0.036	-0.054
-617.332	-172.199	-0.412	0.013
-616.317	-200.000	-0.069	-0.419
-615.303	-91.260	-0.225	-0.065
-614.288	150.079	0.105	0.145
-613.273	-184.455	-0.069	0.001
-612.259	-200.000	-0.006	0.285
-611.244	5.428	-0.101	0.076
-610.230	36.667	-0.148	0.132
-609.215	31.425	0.154	0.134
-608.201	-33.392	0.130	0.073
-607.186	-29.716	-0.155	0.090
-606.171	167.374	-0.104	-0.150
-605.157	-112.738	-0.234	0.047
-604.142	-200.000	-0.038	-0.240
-603.128	-26.682	-0.147	0.087
-602.113	28.232	0.015	0.013
-601.098	767.772	0.077	0.212
-600.084	-80.294	0.129	0.044
-599.069	23.546	0.042	0.035
-598.055	800.000	-0.104	0.332
-597.040	186.222	-0.132	0.200
-596.025	-179.378	0.370	-0.008
-595.011	-200.000	-0.003	-0.438
-593.996	435.851	-0.060	0.132
-592.982	-161.932	-0.119	-0.006
-591.967	-200.000	-0.029	0.179
-590.952	-71.046	0.352	0.134
-589.938	122.485	0.110	-0.140
-588.923	-200.000	0.000	-0.050
-587.909	91.086	0.193	0.220
-586.894	571.013	0.089	0.221
-585.879	-13.214	0.118	0.078
-584.865	-200.000	-0.015	0.171
-583.850	286.220	0.154	-0.283
-582.836	-200.000	0.006	-0.120
-581.821	13.021	0.089	0.070
-580.806	144.918	0.154	-0.210
-579.792	164.111	-0.142	0.202
-578.777	-76.475	0.139	0.049
-577.763	-115.054	-0.121	-0.023
-576.748	313.246	-0.013	-0.024
-575.733	-200.000	0.028	-0.268
-574.719	-151.437	-0.157	0.012
-573.704	175.181	0.095	0.139
-572.690	-200.000	-0.038	-0.182
-571.675	305.664	-0.067	-0.127
-570.661	-40.367	-0.224	0.118
-569.646	800.000	0.096	0.277
-568.631	36.183	0.264	0.236
-567.617	251.879	0.212	0.366
-566.602	77.349	0.202	0.217
-565.588	-184.930	-0.036	-0.001
-564.573	-53.595	0.155	-0.072
-563.558	-200.000	-0.053	-0.305
-562.544	-58.340	0.077	0.034
-561.529	244.469	0.120	0.204
-560.515	800.000	-0.020	-0.084
-559.500	-126.306	0.164	-0.025
-558.485	-120.863	-0.097	-0.017
-557.471	181.856	-0.098	0.147
-556.456	4.160	0.071	-0.053
-555.442	800.000	0.046	0.195
-554.427	744.926	0.093	-0.254
-553.412	-77.277	0.090	0.032
-552.398	800.000	-0.072	0.246
-551.383	-200.000	0.048	0.230
-550.369	-107.626	0.275	-0.061
-549.354	-200.000	0.010	-0.191
-548.339	639.249	-0.058	-0.150
-547.325	-22.043	0.273	-0.168
-546.310	9.620	-0.165	-0.127
-545.296	-3.583	0.096	-0.068
-544.281	-129.353	-0.366	-0.052
-543.266	-43.472	-0.150	0.077
-542.252	-124.099	-0.370	0.059
-541.237	800.000	-0.064	-0.249
-540.223	-1.720	-0.041	0.029
-539.208	-200.000	-0.002	0.039
-538.193	162.678	0.114	0.162
-537.179	-120.405	-0.106	0.018
-536.164	-200.000	-0.063	0.288
-535.150	-5.491	-0.209	0.145
-534.135	482.281	-0.078	0.180
-533.121	49.152	-0.195	0.186
-532.106	-153.370	-0.597	0.042
-531.091	232.383	-0.108	0.180
-530.077	-200.000	-0.003	0.112
-529.062	-200.000	0.029	-0.290
-528.048	-200.000	-0.021	-0.276
-527.033	426.034	0.038	-0.082
-526.018	-43.904	-0.251	-0.128
-525.004	155.418	0.211	-0.294
-523.989	126.086	-0.228	-0.292
-522.975	-200.000	0.030	0.415
-521.960	499.995	-0.065	0.151
-520.945	206.255	0.056	0.089
-519.931	-182.373	0.248	-0.005
-518.916	261.429	0.120	-0.210
-517.902	124.796	-0.084	0.107
-516.887	275.537	-0.181	-0.325
-515.872	19.654	-0.128	-0.104
-514.858	492.164	0.069	-0.161
-513.843	155.664	-0.053	0.074
-512.829	-75.119	0.168	0.061
-511.814	18.992	-0.230	0.187
-510.799	-200.000	-0.025	-0.320
-509.785	-91.095	-0.142	-0.041
-508.770	126.092	0.074	0.095
-507.756	96.204	-0.050	0.058
-506.741	-14.013	-0.103	-0.067
-505.726	800.000	-0.035	0.107
-504.712	-115.447	0.132	0.025
-503.697	789.130	0.049	0.135
-502.683	15.976	-0.154	0.123
-501.668	-18.646	0.023	0.015
-500.653	-200.000	0.016	0.101
-499.639	-35.475	-0.069	-0.038
-498.624	-200.000	-0.019	-0.138
-497.610	800.000	-0.022	-0.069
-496.595	18.415	0.108	0.087
-495.581	123.483	-0.219	0.278
-494.566	-103.257	0.235	0.056
-493.551	-63.600	0.188	-0.078
-492.537	340.734	0.094	-0.185
-491.522	800.000	0.121	-0.337
-490.508	188.671	0.076	0.115
-489.493	800.000	0.022	-0.075
-488.478	164.800	-0.184	0.263
-487.464	184.852	-0.098	0.147
-486.449	54.144	-0.246	0.240
-485.435	142.106	-0.153	-0.205
-484.420	-200.000	-0.052	0.358
-483.405	109.098	0.044	-0.053
-482.391	-200.000	-0.006	-0.046
-481.376	123.977	0.141	-0.179
-480.362	800.000	0.126	-0.386
-479.347	156.281	0.088	-0.123
-478.332	6.545	-0.214	0.161
-477.318	304.319	0.069	0.130
-476.303	116.728	0.101	0.125
-475.289	-55.455	0.530	0.240
-474.274	-200.000	0.011	0.116
-473.259	21.098	-0.082	0.068
-472.245	-90.162	0.143	0.042
-471.230	800.000	0.014	0.042
-470.216	-172.552	0.181	-0.006
-469.201	-200.000	-0.029	-0.241
-468.186	-182.855	0.148	0.003
-467.172	55.580	-0.214	0.210
-466.157	38.642	-0.261	-0.235
-465.143	-61.802	0.029	0.012
-464.128	-74.114	-0.069	0.025
-463.113	99.758	-0.042	-0.049
-462.099	400.040	0.034	-0.072
-461.084	215.313	0.185	-0.297
-460.070	-200.000	0.005	-0.176
-459.055	363.191	0.241	0.490
-458.040	8.838	-0.254	-0.194
-457.026	-17.870	0.215	-0.136
-456.011	-106.516	0.310	0.070
-454.997	-100.546	0.207	0.052
-453.982	800.000	-0.085	-0.250
-452.968	60.866	0.255	-0.256
-451.953	-17.659	0.294	0.187
-450.938	61.294	0.138	0.139
-449.924	7.785	0.264	-0.200
-448.909	-159.260	-0.025	0.001
-447.895	-131.905	-0.106	-0.014
-446.880	-75.116	0.243	0.088
-445.865	-200.000	-0.030	0.255
-444.851	-56.858	0.105	0.047
-443.836	-98.930	-0.213	-0.055
-442.822	-142.199	-0.121	0.012
-441.807	-140.775	-0.103	0.011
-440.792	-200.000	-0.009	-0.365
-439.778	222.198	0.100	-0.162
-438.763	-200.000	0.014	0.281
-437.749	800.000	0.048	-0.142
-436.734	-200.000	0.003	0.143
-435.719	127.233	0.129	-0.165
-434.705	800.000	0.057	-0.227
-433.690	-14.581	-0.038	-0.024
-432.676	-75.349	-0.378	0.136
-431.661	-33.765	0.124	-0.069
-430.646	61.196	0.212	0.213
-429.632	-155.725	-0.397	-0.026
-428.617	-200.000	-0.031	0.306
-427.603	800.000	-0.137	0.499
-426.588	-51.413	-0.124	0.058
-425.573	-134.804	-0.142	-0.017
-424.559	-110.118	-0.209	-0.044
-423.544	800.000	0.078	-0.328
-422.530	-70.099	0.147	-0.056
-421.515	187.496	-0.136	-0.205
-420.500	59.969	-0.095	-0.095
-419.486	227.921	0.047	0.078
-418.471	800.000	-0.033	0.104
-417.457	252.203	-0.052	0.090
-416.442	-200.000	-0.005	-0.194
-415.428	94.274	0.150	-0.171
-414.413	-200.000	-0.037	-0.357
-413.398	6.007	-0.178	-0.133
-412.384	32.374	0.132	0.115
-411.369	-131.817	-0.263	0.035
-410.355	-171.568	-0.166	-0.006
-409.340	800.000	-0.045	0.158
-408.325	-137.907	0.189	-0.021
-407.311	-200.000	-0.065	-0.303
-406.296	-122.434	-0.262	0.043
-405.282	-60.248	-0.170	-0.073
-404.267	-28.742	0.332	-0.192
-403.252	-112.179	-0.114	-0.023
-402.238	-200.000	0.001	-0.188
-401.223	-200.000	0.034	-0.219
-400.209	-68.666	0.073	0.028
-399.194	407.777	-0.099	0.210
-398.179	-55.050	0.197	-0.089
-397.165	240.847	0.202	0.340
-396.150	28.927	0.270	0.231
-395.136	-197.755	0.124	0.001
-394.121	-122.468	-0.115	0.019
-393.106	16.210	0.126	-0.100
-392.092	-79.683	0.225	-0.076
-391.077	800.000	-0.075	-0.288
-390.063	89.672	0.081	-0.091
-389.048	-54.314	0.174	0.080
-388.033	-32.257	-0.200	-0.113
-387.019	-200.000	-0.081	-0.403
-386.004	171.338	-0.100	0.144
-384.990	466.717	0.128	0.289
-383.975	661.135	-0.105	0.273
-382.960	-5.511	-0.233	0.161
-381.946	-61.831	-0.180	0.076
-380.931	162.417	-0.061	-0.087
-379.917	437.447	0.086	-0.188
-378.902	61.078	-0.019	0.019
-377.888	-13.491	0.275	0.179
-376.873	-199.072	0.325	-0.002
-375.858	22.362	-0.290	-0.239
-374.844	35.228	0.144	-0.127
-373.829	185.379	0.098	0.147
-372.815	-200.000	-0.115	-0.000
-371.800	-87.078	0.109	0.033
-370.785	-9.499	0.188	-0.126
-369.771	18.710	-0.321	0.259
-368.756	-34.963	0.162	0.089
-367.742	-5.778	0.105	0.072
-366.727	-2.859	-0.232	0.163
-365.712	-200.000	-0.039	0.211
-364.698	800.000	0.084	0.295
-363.683	-83.213	0.167	-0.054
-362.669	109.967	-0.109	0.132
-361.654	-200.000	-0.064	0.294
-360.639	-40.886	0.167	0.087
-359.625	800.000	-0.117	0.482
-358.610	-200.000	-0.023	0.112
-357.596	-80.616	-0.134	0.045
-356.581	800.000	-0.038	-0.124
-355.566	68.858	0.112	-0.115
-354.552	-135.332	0.200	-0.024
-353.537	-67.699	0.113	0.044
-352.523	-104.447	-0.243	-0.057
-351.508	-107.721	-0.320	0.070
-350.493	-41.164	0.340	0.176
-349.479	59.822	-0.190	0.188
-348.464	-69.499	0.019	-0.007
-347.450	139.325	-0.171	-0.226
-346.435	-1.286	-0.153	0.109
-345.420	185.759	0.146	0.219
-344.406	-200.000	-0.009	0.129
-343.391	255.071	-0.125	-0.216
-342.377	168.573	-0.042	0.060
-341.362	18.016	0.142	-0.114
-340.348	-87.882	0.124	-0.038
-339.333	129.654	-0.174	0.224
-338.318	-200.000	-0.074	0.329
-337.304	64.414	0.241	-0.244
-336.289	363.055	0.072	0.145
-335.275	730.997	0.146	0.392
-334.260	60.352	-0.064	-0.063
-333.245	-142.920	0.082	0.008
-332.231	-76.189	0.162	0.057
-331.216	-141.919	-0.101	-0.010
-330.202	-200.000	0.013	-0.167
-329.187	-16.942	-0.061	-0.039
-328.172	-164.503	-0.098	0.004
-327.158	421.935	0.166	0.357
-326.143	-53.663	0.191	-0.088
-325.129	-38.141	-0.222	0.118
-324.114	-148.532	-0.475	0.039
-323.099	271.305	-0.130	0.231
-322.085	-200.000	-0.033	-0.213
-321.070	800.000	0.062	0.201
-320.056	-50.421	0.175	0.083
-319.041	-5.588	0.133	0.092
-318.026	-81.919	-0.068	-0.022
-317.012	-178.833	-0.080	-0.002
-315.997	22.631	-0.135	-0.111
-314.983	-83.524	0.139	-0.045
-313.968	-165.825	-0.309	0.013
-312.953	-200.000	-0.035	-0.404
-311.939	800.000	-0.057	0.224
-310.924	73.837	0.155	0.163
-309.910	-200.000	0.029	-0.150
-308.895	139.910	0.150	0.199
-307.880	-200.000	0.030	-0.185
-306.866	23.124	0.441	0.364
-305.851	-163.299	0.166	-0.008
-304.837	39.445	-0.068	-0.061
-303.822	800.000	-0.093	0.274
-302.807	-200.000	0.022	0.356
-301.793	-200.000	-0.012	-0.154
-300.778	-98.211	0.006	0.002
-299.764	311.859	0.105	0.198
-298.749	-116.872	-0.445	0.082
-297.735	173.352	0.083	-0.120
-296.720	-110.133	-0.075	-0.016
-295.705	-161.032	-0.036	-0.002
-294.691	-199.600	-0.354	-0.002
-293.676	800.000	0.065	0.208
-292.662	-200.000	-0.012	0.080
-291.647	-16.313	-0.177	-0.113
-290.632	-200.000	-0.014	0.272
-289.618	284.413	-0.116	0.210
-288.603	-114.262	-0.276	-0.053
-287.589	800.000	-0.089	0.262
-286.574	30.829	0.077	-0.066
-285.559	-80.197	0.228	-0.077
-284.545	800.000	0.006	0.016
-283.530	140.712	-0.132	0.175
-282.516	-69.706	0.184	0.071
-281.501	-177.236	-0.226	-0.006
-280.486	-200.000	-0.081	0.368
-279.472	13.027	0.132	0.102
-278.457	-200.000	-0.008	-0.192
-277.443	-41.740	0.389	-0.200
-276.428	-62.807	-0.407	-0.169
-275.413	-128.294	0.184	0.026
-274.399	-130.757	-0.177	0.024
-273.384	-60.356	-0.088	0.038
-272.370	74.973	0.130	0.137
-271.355	-112.797	0.284	0.057
-270.340	-200.000	0.059	-0.318
-269.326	-200.000	0.036	0.345
-268.311	-186.463	0.458	-0.007
-267.297	-6.740	-0.308	0.210
-266.282	-200.000	0.022	-0.472
-265.267	-200.000	0.009	-0.398
-264.253	800.000	-0.071	-0.226
-263.238	-103.215	-0.163	-0.039
-262.224	72.859	0.203	-0.212
-261.209	293.733	0.122	-0.224
-260.195	-81.785	0.228	0.075
-259.180	49.835	0.170	-0.160
-258.165	74.025	-0.175	0.184
-257.151	-151.013	0.051	-0.004
-256.136	-139.479	0.202	-0.022
-255.122	-76.811	0.364	-0.128
-254.107	-200.000	-0.015	-0.248
-253.092	-175.302	-0.259	0.007
-252.078	100.208	-0.098	-0.113
-251.063	136.207	0.238	0.311
-250.049	-22.403	-0.091	-0.055
-249.034	800.000	0.040	-0.148
-248.019	-7.896	0.258	-0.175
-247.005	17.490	0.316	0.252
-245.990	-94.960	0.219	0.059
-244.976	3.836	-0.256	-0.187
-243.961	-28.998	0.185	-0.106
-242.946	-200.000	0.005	0.300
-241.932	800.000	-0.062	-0.209
-240.917	124.110	-0.077	0.097
-239.903	55.744	0.004	0.004
-238.888	-200.000	0.005	-0.139
-237.873	31.322	0.138	0.119
-236.859	-140.761	-0.258	-0.027
-235.844	109.986	-0.257	-0.308
-234.830	-4.087	-0.223	-0.154
-233.815	-77.104	0.068	0.024
-232.800	800.000	-0.081	-0.326
-231.786	-190.979	0.265	0.003
-230.771	208.964	-0.205	0.321
-229.757	-102.266	0.210	-0.050
-228.742	-114.549	0.039	-0.007
-227.727	251.002	-0.097	-0.164
-226.713	-200.000	-0.104	-0.500
-225.698	-32.593	0.017	-0.010
-224.684	-200.000	0.039	-0.224
-223.669	717.023	-0.010	-0.026
-222.655	-20.825	-0.152	0.093
-221.640	73.222	0.334	0.350
-220.625	195.809	0.095	-0.144
-219.611	564.479	0.102	0.248
-218.596	-92.393	-0.099	-0.028
-217.582	136.517	0.100	-0.130
-216.567	20.705	-0.153	-0.124
-215.552	-80.003	-0.361	-0.121
-214.538	128.362	0.154	-0.196
-213.523	153.781	0.129	-0.176
-212.509	-132.960	0.182	0.023
-211.494	12.392	0.011	0.009
-210.479	16.389	-0.128	-0.101
-209.465	21.324	0.251	-0.204
-208.450	-79.749	-0.155	0.052
-207.436	-141.253	0.129	-0.013
-206.421	800.000	-0.105	0.422
-205.406	-155.948	0.125	-0.008
-204.392	800.000	0.068	0.201
-203.377	-40.997	0.243	-0.125
-202.363	-1.795	-0.273	0.192
-201.348	-73.939	0.143	0.052
-200.333	-102.971	0.261	-0.062
-199.319	446.604	-0.084	-0.184
-198.304	-134.155	-0.472	-0.058
-197.290	783.684	-0.124	0.339
-196.275	-200.000	0.050	-0.341
-195.260	800.000	-0.026	0.084
-194.246	800.000	0.073	-0.209
-193.231	-116.175	0.151	0.028
-192.217	800.000	-0.012	0.047
-191.202	800.000	-0.036	-0.133
-190.187	-200.000	-0.061	0.299
-189.173	-94.013	0.288	-0.079
-188.158	-133.034	0.161	-0.020
-187.144	27.986	0.354	-0.299
-186.129	133.271	0.137	-0.177
-185.114	297.084	0.045	-0.083
-184.100	-70.566	-0.189	0.072
-183.085	351.601	0.045	-0.089
-182.071	86.297	0.097	-0.107
-181.056	245.846	-0.103	-0.173
-180.042	-181.229	-0.127	-0.003
-179.027	-87.351	-0.395	0.120
-178.012	800.000	-0.170	0.575
-176.998	74.870	0.117	-0.123
-175.983	438.968	0.094	0.205
-174.969	41.793	-0.277	-0.251
-173.954	181.112	0.178	0.262
-172.939	12.532	-0.271	-0.209
-171.925	-72.808	0.086	0.031
-170.910	166.238	-0.053	0.074
-169.896	135.650	0.308	0.400
-168.881	800.000	-0.053	0.188
-167.866	800.000	0.030	0.117
-166.852	359.183	0.103	-0.205
-165.837	701.001	0.031	-0.081
-164.823	22.599	0.089	0.073
-163.808	-200.000	-0.033	-0.491
-162.793	-149.985	0.066	0.005
-161.779	216.377	-0.174	0.277
-160.764	36.004	-0.060	-0.053
-159.750	3.216	0.259	-0.188
-158.735	134.429	-0.180	-0.233
-157.720	800.000	-0.016	0.064
-156.706	-39.020	0.328	-0.173
-155.691	800.000	0.043	0.144
-154.677	-28.234	-0.398	-0.229
-153.662	50.960	-0.215	-0.204
-152.647	-50.972	0.293	-0.137
-151.633	-121.773	0.298	-0.049
-150.618	-200.000	0.033	-0.258
-149.604	-101.793	0.253	-0.061
-148.589	71.302	0.125	-0.130
-147.574	-68.642	-0.225	-0.087
-146.560	8.712	-0.365	-0.274
-145.545	800.000	0.020	0.070
-144.531	452.384	-0.145	0.320
-143.516	-59.671	0.176	0.075
-142.502	-200.000	-0.062	0.290
-141.487	371.299	0.144	0.291
-140.472	48.468	0.103	0.097
-139.458	800.000	-0.017	-0.057
-138.443	-78.236	0.098	0.034
-137.429	-102.121	-0.334	-0.080
-136.414	30.909	0.167	0.143
-135.399	-200.000	0.001	-0.216
-134.385	703.499	0.077	-0.203
-133.370	-37.247	0.099	0.053
-132.356	331.397	0.094	-0.180
-131.341	-110.670	-0.249	0.051
-130.326	147.342	-0.078	0.105
-129.312	51.893	0.210	0.200
-128.297	-200.000	-0.008	-0.042
-127.283	-200.000	-0.024	-0.283
-126.268	24.257	0.105	0.086
-125.253	22.936	0.191	-0.156
-124.239	97.122	0.172	-0.197
-123.224	127.665	-0.037	0.047
-122.210	-15.536	-0.313	0.199
-121.195	-108.040	-0.163	0.035
-120.180	-33.825	0.292	-0.161
-119.166	56.100	-0.303	0.293
-118.151	112.639	0.153	0.185
-117.137	-200.000	-0.004	-0.210
-116.122	-1.410	0.123	-0.087
-115.107	620.309	0.079	-0.199
-114.093	-200.000	0.238	0.001
-113.078	131.258	-0.080	-0.102
-112.064	5.341	-0.288	0.211
-111.049	800.000	-0.044	0.136
-110.034	101.806	-0.182	-0.211
-109.020	205.895	0.053	0.082
-108.005	800.000	0.038	0.128
-106.991	-200.000	0.049	0.306
-105.976	320.618	-0.097	-0.183
-104.962	87.353	-0.305	0.336
-103.947	800.000	0.089	0.246
-102.932	38.359	0.094	-0.083
-101.918	63.347	0.282	-0.282
-100.903	670.169	-0.085	0.219
-99.889	-47.810	-0.094	-0.045
-98.874	-145.860	0.379	-0.034
-97.859	33.645	0.077	-0.067
-96.845	-84.010	-0.161	-0.051
-95.830	-40.288	0.344	0.178
-94.816	-200.000	0.036	0.208
-93.801	-200.000	-0.094	0.417
-92.786	418.605	0.104	0.220
-91.772	539.822	-0.065	0.153
-90.757	36.607	0.229	-0.202
-89.743	-8.260	0.242	0.162
-88.728	800.000	0.072	0.223
-87.713	-47.440	-0.060	-0.029
-86.699	-96.353	-0.103	-0.027
-85.684	263.765	0.096	0.166
-84.670	749.665	-0.041	0.109
-83.655	288.783	0.034	-0.061
-82.640	-200.000	0.053	-0.234
-81.626	284.366	0.063	0.112
-80.611	73.173	-0.098	0.102
-79.597	-21.700	0.376	0.228
-78.582	800.000	-0.103	-0.406
-77.567	-33.110	0.314	-0.173
-76.553	-53.165	0.060	0.027
-75.538	-200.000	-0.024	-0.276
-74.524	382.929	-0.180	-0.369
-73.509	357.359	-0.054	0.106
-72.494	-114.183	0.204	-0.039
-71.480	678.269	-0.120	-0.312
-70.465	-116.622	0.066	-0.012
-69.451	5.334	0.424	0.311
-68.436	-200.000	0.011	-0.064
-67.422	-200.000	-0.049	0.244
-66.407	209.845	-0.132	-0.206
-65.392	-200.000	-0.031	0.292
-64.378	-86.437	-0.217	0.066
-63.363	6.150	0.103	-0.076
-62.349	174.955	0.112	-0.162
-61.334	40.045	-0.857	-0.766
-60.319	270.417	0.477	0.834
-59.305	-200.000	-0.095	-0.623
-58.290	185.333	0.456	0.673
-57.276	800.000	0.416	1.531
-56.261	-200.000	85.988	509.056
-55.246	556.746	1376.990	3299.332
-54.232	183.096	2609.087	3830.892
-53.217	119.024	2241.880	2755.729
-52.203	48.205	1689.727	1571.530
-51.188	40.590	1419.289	1271.405
-50.173	37.342	1375.157	1211.610
-49.159	56.328	1416.350	1368.229
-48.144	60.741	1434.622	1413.686
-47.130	40.910	1394.904	1251.377
-46.115	37.405	1377.081	1213.505
-45.100	37.105	1372.600	1207.637
-44.086	37.083	1370.001	1205.168
-43.071	36.929	1368.182	1202.563
-42.057	36.956	1365.430	1200.266
-41.042	36.992	1363.898	1199.096
-40.027	37.086	1362.127	1198.068
-39.013	37.158	1360.487	1197.025
-37.998	37.017	1359.178	1194.959
-36.984	37.190	1356.684	1193.782
-35.969	37.333	1354.530	1192.718
-34.954	37.180	1353.411	1190.743
-33.940	37.273	1352.010	1190.037
-32.925	37.344	1350.397	1189.004
-31.911	37.290	1348.893	1187.301
-30.896	37.364	1347.499	1186.481
-29.881	37.348	1345.619	1184.678
-28.867	37.394	1344.715	1184.113
-27.852	37.345	1342.750	1182.042
-26.838	37.342	1341.412	1180.799
-25.823	37.394	1339.683	1179.546
-24.809	37.379	1338.491	1178.355
-23.794	37.335	1336.983	1176.716
-22.779	37.250	1335.967	1175.260
-21.765	37.266	1334.398	1173.929
-20.750	37.305	1333.430	1173.267
-19.736	37.200	1331.970	1171.304
-18.721	37.118	1330.311	1169.305
-17.706	37.164	1329.263	1168.615
-16.692	37.109	1328.371	1167.449
-15.677	37.148	1326.611	1166.093
-14.663	37.109	1325.961	1165.240
-13.648	37.096	1324.793	1164.093
-12.633	37.043	1323.754	1162.813
-11.619	37.122	1322.984	1162.562
-10.604	37.107	1321.945	1161.513
-9.590	37.051	1320.960	1160.269
-8.575	37.119	1319.953	1159.742
-7.560	37.007	1319.499	1158.628
-6.546	37.140	1317.998	1158.062
-5.531	37.091	1317.244	1157.062
-4.517	37.063	1316.413	1156.114
-3.502	37.149	1315.472	1155.755
-2.487	37.215	1314.624	1155.356
-1.473	37.192	1310.713	1151.740
-0.458	36.369	1295.801	1133.762
0.556	31.697	1276.965	1096.271
1.571	28.164	1281.394	1079.182
2.586	27.094	1296.482	1085.405
3.600	25.688	1284.548	1066.992
4.615	17.890	1204.393	956.793
5.629	5.807	1120.011	826.343
6.644	0.477	1096.802	781.590
7.659	0.178	1093.480	777.609
8.673	0.061	1092.470	776.221
9.688	-0.025	1091.135	774.757
10.702	0.474	1089.696	776.237
11.717	7.757	1101.104	822.052
12.731	18.093	1116.678	887.535
13.746	22.032	1120.829	911.241
14.761	22.156	1120.785	911.767
15.775	22.252	1119.885	911.451
16.790	21.963	1119.300	909.398
17.804	21.913	1118.941	908.766
18.819	21.984	1118.247	908.490
19.834	22.012	1117.545	907.987
20.848	22.118	1117.063	908.058
21.863	22.082	1116.561	907.384
22.877	22.015	1115.834	906.371
23.892	21.894	1115.087	905.057
24.907	21.879	1114.603	904.509
25.921	22.007	1113.435	904.140
26.936	21.955	1111.980	902.612
27.950	21.956	1110.428	901.275
28.965	21.825	1108.431	898.901
29.980	21.953	1106.650	898.035
30.994	21.987	1106.195	897.762
32.009	22.077	1105.151	897.292
33.023	21.949	1103.277	895.039
34.038	21.906	1102.598	894.189
35.053	22.090	1102.200	894.725
36.067	22.025	1101.127	893.446
37.082	22.232	1100.163	893.634
38.096	22.203	1100.082	893.344
39.111	22.359	1098.885	893.085
40.126	22.160	1097.144	890.584
41.140	21.857	1095.604	887.718
42.155	21.625	1094.391	885.486
43.169	21.760	1093.043	884.998
44.184	21.715	1092.378	884.155
45.199	21.635	1091.357	882.845
46.213	21.791	1090.059	882.504
47.228	21.824	1089.820	882.398
48.242	21.834	1088.646	881.422
49.257	21.905	1087.835	881.041
50.271	22.098	1086.890	881.168
51.286	21.998	1086.491	880.262
52.301	22.055	1085.561	879.719
53.315	22.002	1083.986	878.098
54.330	22.032	1083.007	877.379
55.344	21.993	1082.541	876.728
56.359	22.035	1081.482	876.002
57.374	21.904	1080.369	874.372
58.388	21.738	1080.201	873.330
59.403	21.726	1078.960	872.187
60.417	21.587	1078.145	870.760
61.432	21.688	1077.737	870.859
62.447	21.878	1076.558	870.773
63.461	21.763	1075.912	869.600
64.476	21.719	1074.933	868.515
65.490	21.686	1073.462	867.086
66.505	21.844	1072.801	867.259
67.520	21.860	1072.454	866.978
68.534	21.571	1071.228	864.486
69.549	21.301	1070.024	862.103
70.563	21.323	1069.290	861.543
71.578	21.330	1068.054	860.505
72.593	21.128	1067.320	858.847
73.607	21.358	1066.851	859.525
74.622	21.581	1066.644	860.377
75.636	21.636	1065.667	859.782
76.651	21.387	1064.832	857.812
77.666	21.381	1063.933	856.983
78.680	21.564	1063.150	857.170
79.695	21.632	1062.108	856.590
80.709	21.688	1061.492	856.289
81.724	21.511	1061.252	855.156
82.739	21.663	1060.570	855.273
83.753	22.059	1059.990	856.661
84.768	22.360	1058.833	857.115
85.782	22.363	1058.203	856.546
86.797	22.305	1056.932	855.161
87.812	22.227	1055.871	853.847
88.826	22.265	1055.192	853.403
89.841	22.215	1054.342	852.398
90.855	22.400	1053.211	852.304
91.870	22.311	1052.467	851.197
92.884	22.119	1051.345	849.286
93.899	22.127	1049.775	847.983
94.914	22.307	1049.271	848.367
95.928	22.091	1048.395	846.543
96.943	21.922	1046.598	844.207
97.957	21.631	1045.810	842.095
98.972	21.492	1044.690	840.450
99.987	21.782	1043.825	841.073
101.001	21.995	1043.445	841.714
102.016	22.076	1041.914	840.791
103.030	21.804	1041.686	839.234
104.045	21.761	1040.234	837.781
105.060	21.442	1039.267	835.407
106.074	21.736	1038.949	836.482
107.089	22.156	1038.149	837.764
108.103	22.112	1036.323	836.007
109.118	21.815	1035.422	833.792
110.133	21.713	1034.975	832.878
111.147	21.614	1033.123	830.841
112.162	21.505	1032.168	829.483
113.176	21.689	1031.557	829.793
114.191	21.645	1030.513	828.672
115.206	21.268	1029.575	826.062
116.220	21.241	1028.742	825.189
117.235	21.447	1027.790	825.325
118.249	21.570	1026.898	825.117
119.264	21.174	1026.457	822.826
120.279	21.443	1025.423	823.190
121.293	21.544	1024.504	822.855
122.308	21.570	1023.953	822.459
123.322	21.391	1023.044	820.818
124.337	21.418	1020.700	818.988
125.352	20.927	1019.194	815.411
126.366	20.796	1018.286	814.000
127.381	21.522	1018.457	817.460
128.395	21.915	1017.748	818.652
129.410	21.968	1017.092	818.300
130.424	21.981	1016.074	817.470
131.439	22.075	1015.006	816.971
132.454	22.040	1014.399	816.250
133.468	21.937	1012.844	814.450
134.483	22.019	1012.576	814.542
135.497	22.238	1011.800	814.861
136.512	22.266	1010.634	813.980
137.527	22.420	1009.767	813.921
138.541	22.258	1009.431	812.830
139.556	22.259	1008.005	811.615
140.570	22.311	1007.496	811.371
141.585	22.279	1006.331	810.213
142.600	22.267	1005.076	809.074
143.614	22.527	1004.522	809.752
144.629	22.613	1003.345	809.128
145.643	22.300	1002.281	806.764
146.658	22.249	1000.784	805.253
147.673	22.157	999.704	803.893
148.687	22.151	998.732	803.010
149.702	22.065	997.848	801.840
150.716	21.915	996.983	800.389
151.731	22.036	996.513	800.492
152.746	22.401	995.569	801.324
153.760	22.524	994.895	801.270
154.775	22.418	994.488	800.390
155.789	22.409	993.706	799.647
156.804	22.330	992.865	798.542
157.819	22.333	992.003	797.792
158.833	22.543	991.307	798.114
159.848	22.522	990.287	797.125
160.862	22.427	988.818	795.443
161.877	22.370	987.936	794.407
162.892	22.490	986.880	794.031
163.906	22.412	985.662	792.626
164.921	22.303	985.132	791.639
165.935	22.325	984.267	790.972
166.950	22.361	983.117	790.142
167.964	22.352	982.303	789.376
168.979	22.181	981.364	787.788
169.994	22.184	979.888	786.544
171.008	22.442	979.658	787.446
172.023	22.422	978.782	786.581
173.037	22.290	977.297	784.730
174.052	21.980	976.496	782.637
175.067	22.271	975.429	783.005
176.081	22.139	975.692	782.562
177.096	22.222	974.501	781.904
178.110	21.904	973.572	779.680
179.125	21.732	972.326	777.846
180.140	21.671	972.473	777.626
181.154	21.886	972.230	778.317
182.169	22.101	972.337	779.287
183.183	22.254	971.668	779.361
184.198	22.309	970.135	778.304
185.213	22.291	969.788	777.878
186.227	22.385	968.831	777.457
187.242	22.303	968.601	776.843
188.256	22.469	967.399	776.540
189.271	22.428	966.907	775.897
190.286	22.238	965.502	773.865
191.300	21.440	964.467	769.459
192.315	20.904	962.512	765.476
193.329	20.769	962.420	764.742
194.344	21.579	962.769	768.510
195.359	22.316	962.220	771.235
196.373	22.348	961.777	770.949
197.388	22.289	960.983	769.987
198.402	22.150	960.453	768.889
199.417	22.264	959.938	768.907
200.432	22.020	958.830	766.884
201.446	21.826	958.136	765.416
202.461	21.842	957.752	765.109
203.475	21.064	955.611	759.944
204.490	20.313	953.936	755.278
205.504	21.125	954.755	759.393
206.519	21.863	954.649	762.452
207.534	21.793	954.539	761.992
208.548	22.299	954.217	763.868
209.563	22.067	952.962	761.789
210.577	22.121	952.324	761.445
211.592	22.336	952.100	762.128
212.607	22.346	951.237	761.417
213.621	22.434	950.347	761.016
214.636	22.409	949.854	760.443
215.650	22.433	949.005	759.802
216.665	22.634	947.946	759.752
217.680	22.240	947.583	757.699
218.694	21.956	946.066	755.196
219.709	21.803	945.779	754.241
220.723	22.212	945.199	755.471
221.738	22.173	944.258	754.484
222.753	22.273	943.753	754.440
223.767	22.221	943.754	754.151
224.782	22.529	943.003	754.805
225.796	22.451	942.969	754.376
226.811	21.787	940.984	749.884
227.826	21.153	939.491	745.919
228.840	21.455	939.012	746.764
229.855	21.586	938.087	746.518
230.869	21.113	937.258	743.777
231.884	21.555	936.837	745.260
232.899	22.232	937.413	748.537
233.913	22.236	936.336	747.627
234.928	22.279	935.947	747.432
235.942	22.256	935.510	746.920
236.957	21.795	934.580	744.153
237.972	21.762	934.070	743.545
238.986	21.815	933.498	743.247
240.001	21.827	933.132	742.943
241.015	21.985	932.478	743.024
242.030	22.218	931.712	743.331
243.045	22.162	931.417	742.795
244.059	22.349	930.659	742.913
245.074	22.273	929.414	741.534
246.088	21.925	928.517	739.285
247.103	22.127	928.156	739.785
248.117	22.676	928.319	742.161
249.132	22.898	927.995	742.770
250.147	22.843	927.713	742.247
251.161	23.130	926.623	742.513
252.176	23.057	926.080	741.705
253.190	23.196	925.406	741.684
254.205	23.372	925.060	742.076
255.220	23.150	924.568	740.689
256.234	23.069	923.604	739.512
257.249	22.902	922.894	738.181
258.263	22.988	921.878	737.659
259.278	23.145	921.417	737.881
260.293	23.090	920.975	737.230
261.307	23.044	920.484	736.583
262.322	23.035	918.833	735.160
263.336	22.222	916.634	729.959
264.351	21.178	915.022	724.285
265.366	21.297	914.910	724.624
266.380	22.319	915.369	729.162
267.395	22.725	915.228	730.667
268.409	22.635	914.333	729.514
269.424	22.795	914.259	730.054
270.439	22.821	913.732	729.676
271.453	22.996	912.647	729.466
272.468	23.180	912.391	729.956
273.482	23.218	911.746	729.532
274.497	22.979	910.104	727.171
275.512	22.442	909.603	724.497
276.526	22.873	909.854	726.407
277.541	23.032	909.210	726.483
278.555	22.673	908.235	724.163
279.570	22.644	907.679	723.536
280.585	22.738	907.180	723.464
281.599	22.721	905.877	722.290
282.614	22.241	904.619	719.259
283.628	22.207	904.257	718.768
284.643	22.546	904.336	720.156
285.657	22.288	902.677	717.715
286.672	21.856	902.216	715.525
287.687	22.391	902.420	717.806
288.701	22.348	901.824	717.091
289.716	22.170	900.663	715.382
290.730	22.220	899.493	714.591
291.745	21.907	899.041	712.897
292.760	22.248	898.803	714.031
293.774	23.189	898.910	717.871
294.789	23.492	898.523	718.728
295.803	23.522	898.601	718.848
296.818	23.396	898.007	717.799
297.833	22.972	896.620	714.912
298.847	23.072	895.940	714.710
299.862	23.186	895.852	715.037
300.876	23.405	895.595	715.652
301.891	23.447	894.433	714.831
302.906	23.075	892.806	711.972
303.920	23.064	892.959	711.985
304.935	23.471	892.727	713.377
305.949	23.418	892.189	712.667
306.964	23.119	891.480	710.838
307.979	23.205	891.134	710.845
308.993	23.575	890.552	711.803
310.008	23.608	889.846	711.309
311.022	23.283	889.236	709.455
312.037	23.118	888.434	708.091
313.052	23.064	887.349	706.948
314.066	22.074	886.245	702.050
315.081	21.605	885.499	699.525
316.095	22.692	885.420	703.741
317.110	23.221	885.182	705.596
318.125	22.348	883.664	700.849
319.139	21.241	882.498	695.459
320.154	21.376	881.635	695.254
321.168	22.168	882.183	698.774
322.183	22.830	882.135	701.307
323.197	23.013	881.973	701.842
324.212	23.136	881.783	702.115
325.227	23.277	880.844	701.865
326.241	23.165	880.387	700.994
327.256	22.994	879.827	699.810
328.270	22.909	878.796	698.590
329.285	22.925	877.780	697.786
330.300	22.592	877.078	695.853
331.314	22.776	877.353	696.735
332.329	23.196	877.008	698.055
333.343	23.383	876.439	698.280
334.358	23.232	876.103	697.354
335.373	23.404	875.327	697.350
336.387	23.791	875.321	698.806
337.402	23.866	875.422	699.121
338.416	23.561	875.026	697.543
339.431	23.772	874.624	697.992
340.446	23.897	874.209	698.090
341.460	23.754	873.401	696.820
342.475	23.720	872.859	696.191
343.489	23.717	872.558	695.881
344.504	24.089	872.048	696.867
345.519	24.212	871.995	697.247
346.533	24.119	871.826	696.686
347.548	24.147	870.989	696.062
348.562	24.087	870.440	695.330
349.577	23.972	870.030	694.491
350.592	24.034	868.928	693.791
351.606	24.023	868.319	693.200
352.621	23.840	867.761	691.982
353.635	23.959	866.482	691.362
354.650	23.286	864.721	687.285
355.665	22.277	863.847	682.618
356.679	22.732	863.328	683.912
357.694	23.201	863.044	685.440
358.708	23.044	862.627	684.442
359.723	23.367	862.579	685.592
360.738	23.689	862.060	686.367
361.752	23.921	861.338	686.626
362.767	24.307	860.932	687.730
363.781	24.454	860.578	687.954
364.796	24.488	860.409	687.888
365.810	24.505	859.874	687.465
366.825	24.456	859.466	686.891
367.840	24.204	858.357	684.973
368.854	23.735	857.549	682.468
369.869	23.762	857.091	682.147
370.883	23.812	856.772	682.022
371.898	23.653	856.574	681.197
372.913	23.736	856.397	681.312
373.927	24.004	855.578	681.626
374.942	24.062	855.394	681.644
375.956	24.119	855.169	681.619
376.971	24.260	854.393	681.483
377.986	24.373	854.510	681.947
379.000	24.409	853.570	681.272
380.015	24.258	852.840	680.054
381.029	24.382	852.147	679.916
382.044	24.528	851.702	680.053
383.059	24.547	850.761	679.317
384.073	24.482	850.353	678.683
385.088	24.473	849.812	678.157
386.102	24.238	848.714	676.330
387.117	24.236	848.225	675.871
388.132	23.751	847.461	673.364
389.146	23.256	846.502	670.670
390.161	23.675	846.587	672.263
391.175	24.218	846.001	673.792
392.190	23.832	844.924	671.419
393.205	22.497	842.923	664.734
394.219	21.123	841.047	658.017
395.234	20.885	841.006	657.030
396.248	22.597	842.404	664.526
397.263	24.009	842.754	670.062
398.278	24.064	842.508	670.017
399.292	23.765	842.000	668.427
400.307	23.692	841.732	667.882
401.321	23.793	841.346	667.896
402.336	24.217	841.051	669.194
403.350	24.527	841.069	670.314
404.365	24.952	840.639	671.506
405.380	25.201	840.339	672.142
406.394	25.133	839.823	671.413
407.409	25.136	839.415	671.039
408.423	25.012	839.154	670.308
409.438	25.081	838.964	670.354
410.453	25.114	838.084	669.715
411.467	24.905	837.754	668.613
412.482	25.167	837.306	669.173
413.496	25.145	836.865	668.679
414.511	25.120	836.425	668.172
415.526	25.125	836.110	667.882
416.540	24.916	835.223	666.338
417.555	24.807	834.080	664.961
418.569	24.879	833.806	664.952
419.584	24.805	833.443	664.329
420.599	24.498	833.054	662.818
421.613	150.196	1366.563	1783.565
422.628	131.162	1444.307	1783.669
