DTS Sentinel unit serial number:	SN413079Multiplexer serial number:	ORYXHardware model number:	OX4-SRSoftware version number:	ORYX F/W v4.00 Oryx Data Collector v3.7.2.0data status	okinstallation	princeton_trtdifferential loss correction	single-endedforward channel	channel 1reverse channel	N/Adate	2019/09/13time	21:38:35forward acquisition time	60.00reverse acquisition time	0.00gamma	496.2192k internal	0.2332k external	0.2332temperature offset calibration	1.0082default loss term (dB/km)	0.3790temperature slope calibration	1.0000multiplexer offset coefficient	1.0000multiplexer slope coefficient	1.0000fibre end	0.00T internal ref (°C)	28.19T ext. ref 1 (°C)	3.15T ext. ref 2 (°C)	22.90length (m)	temperature (°C)	Stokes	anti-Stokes-747.200	799.233	0.066	0.183
-746.185	17.697	-0.142	-0.114
-745.171	121.063	-0.203	0.254
-744.156	-25.031	-0.091	0.055
-743.142	-116.505	0.106	-0.020
-742.127	-44.775	-0.197	0.099
-741.112	319.156	0.128	0.244
-740.098	-98.254	0.218	0.056
-739.083	12.592	0.045	-0.035
-738.069	-28.652	0.302	0.175
-737.054	282.551	-0.088	0.159
-736.039	-200.000	-0.036	-0.249
-735.025	-14.231	0.161	0.104
-734.010	-77.505	-0.081	0.028
-732.996	-23.833	-0.145	-0.088
-731.981	-200.000	0.030	-0.295
-730.966	800.000	0.078	-0.284
-729.952	-59.756	-0.462	-0.199
-728.937	72.308	0.347	-0.363
-727.923	582.347	-0.051	0.127
-726.908	-200.000	0.071	-0.333
-725.894	-5.320	-0.168	-0.116
-724.879	-84.468	0.307	-0.098
-723.864	-77.546	-0.119	0.041
-722.850	-124.751	-0.445	0.069
-721.835	-200.000	0.039	-0.220
-720.821	800.000	-0.077	0.329
-719.806	-69.009	-0.310	-0.120
-718.791	210.455	0.131	-0.207
-717.777	800.000	0.072	-0.205
-716.762	-200.000	0.024	-0.381
-715.748	-66.605	0.246	0.098
-714.733	81.514	0.126	0.137
-713.718	-73.138	0.217	0.080
-712.704	-200.000	0.006	-0.162
-711.689	743.139	0.032	-0.086
-710.675	246.690	0.181	0.307
-709.660	-98.649	-0.238	-0.061
-708.645	-200.000	0.043	-0.396
-707.631	-61.129	-0.215	-0.091
-706.616	-43.547	-0.255	-0.129
-705.602	-164.712	0.280	0.013
-704.587	22.340	-0.325	-0.267
-703.572	-132.556	0.106	0.014
-702.558	-1.861	-0.422	-0.298
-701.543	42.581	0.230	0.210
-700.529	800.000	0.069	0.216
-699.514	241.211	0.057	0.096
-698.499	493.562	0.078	-0.181
-697.485	5.232	0.143	-0.106
-696.470	-78.005	-0.384	0.133
-695.456	-200.000	-0.051	0.317
-694.441	562.646	-0.103	0.249
-693.426	131.953	0.055	0.072
-692.412	157.414	-0.141	0.195
-691.397	48.458	-0.083	-0.078
-690.383	-66.886	0.291	-0.116
-689.368	-56.402	-0.160	-0.071
-688.354	7.963	-0.437	-0.329
-687.339	103.857	-0.123	0.145
-686.324	7.732	0.037	-0.028
-685.310	-139.324	0.139	0.015
-684.295	800.000	-0.042	0.119
-683.281	-200.000	0.006	0.101
-682.266	633.495	0.118	-0.301
-681.251	800.000	0.111	-0.348
-680.237	800.000	0.127	-0.417
-679.222	35.602	-0.094	-0.083
-678.208	-200.000	0.029	-0.220
-677.193	-110.827	-0.179	-0.037
-676.178	122.745	-0.289	0.363
-675.164	800.000	-0.025	0.084
-674.149	-123.011	-0.156	-0.025
-673.135	572.139	-0.033	0.082
-672.120	158.784	-0.168	0.235
-671.105	-135.859	0.219	0.026
-670.091	-111.475	-0.129	0.026
-669.076	36.414	-0.141	0.125
-668.062	-148.656	0.450	0.037
-667.047	-9.187	-0.069	0.046
-666.032	140.408	0.154	0.204
-665.018	265.932	-0.179	0.313
-664.003	22.412	-0.126	0.103
-662.989	-35.652	0.213	-0.116
-661.974	522.730	-0.136	0.320
-660.959	800.000	-0.046	-0.134
-659.945	-149.251	0.248	0.020
-658.930	-6.350	0.332	-0.227
-657.916	-16.027	0.262	-0.167
-656.901	100.362	-0.086	-0.100
-655.886	-200.000	0.022	0.199
-654.872	233.474	0.098	-0.161
-653.857	-77.180	-0.268	0.093
-652.843	357.967	0.120	0.240
-651.828	-200.000	-0.001	0.012
-650.814	800.000	-0.052	-0.161
-649.799	-24.502	0.189	0.113
-648.784	411.858	0.143	-0.305
-647.770	-120.426	-0.036	-0.006
-646.755	-200.000	-0.019	0.231
-645.741	-23.866	-0.161	0.097
-644.726	246.032	-0.064	0.108
-643.711	-143.979	0.082	-0.008
-642.697	186.336	-0.036	-0.054
-641.682	-68.033	-0.312	0.122
-640.668	-200.000	-0.004	0.049
-639.653	-9.593	-0.150	-0.100
-638.638	-85.333	-0.156	-0.049
-637.624	275.945	-0.111	-0.197
-636.609	13.778	-0.207	0.161
-635.595	83.006	0.221	0.241
-634.580	-155.047	-0.130	-0.009
-633.565	-144.555	0.306	-0.028
-632.551	243.220	-0.135	-0.226
-631.536	247.116	-0.107	-0.180
-630.522	-55.145	0.043	0.019
-629.507	-95.180	0.179	0.048
-628.492	225.188	0.101	-0.164
-627.478	-55.576	0.468	-0.210
-626.463	40.176	0.147	-0.133
-625.449	-13.464	-0.380	-0.247
-624.434	800.000	-0.029	-0.097
-623.419	800.000	0.065	-0.218
-622.405	163.682	-0.206	-0.290
-621.390	7.918	0.088	-0.066
-620.376	-200.000	0.023	0.223
-619.361	10.952	0.215	-0.164
-618.346	570.203	0.124	0.302
-617.332	800.000	-0.047	0.130
-616.317	-46.725	0.129	-0.063
-615.303	65.121	-0.039	-0.040
-614.288	800.000	0.173	0.542
-613.273	-55.585	-0.179	-0.080
-612.259	-28.205	-0.280	-0.162
-611.244	-200.000	-0.019	0.212
-610.230	-65.269	-0.074	0.030
-609.215	-200.000	-0.025	0.235
-608.201	43.483	0.069	-0.063
-607.186	-200.000	-0.016	-0.200
-606.171	-200.000	-0.031	-0.201
-605.157	800.000	-0.009	-0.031
-604.142	800.000	-0.034	0.109
-603.128	800.000	-0.048	-0.156
-602.113	-92.248	-0.314	0.089
-601.098	65.910	0.111	0.113
-600.084	313.847	0.146	-0.275
-599.069	-200.000	-0.062	-0.287
-598.055	-57.795	0.146	0.064
-597.040	-83.678	-0.471	0.150
-596.025	-120.783	0.232	-0.039
-595.011	-18.990	0.297	0.185
-593.996	-78.942	-0.400	-0.136
-592.982	441.880	-0.064	0.141
-591.967	16.990	-0.260	-0.206
-590.952	-200.000	-0.296	-0.001
-589.938	486.140	0.219	-0.500
-588.923	-34.296	0.346	-0.190
-587.909	-99.067	0.156	-0.039
-586.894	-92.081	0.250	-0.071
-585.879	-81.927	0.359	-0.118
-584.865	-200.000	0.046	-0.262
-583.850	800.000	0.030	-0.122
-582.836	488.294	-0.037	-0.085
-581.821	-166.311	0.114	0.005
-580.806	-146.233	-0.136	0.012
-579.792	-200.000	-0.006	0.075
-578.777	-141.742	0.253	-0.025
-577.763	-144.756	0.116	-0.011
-576.748	-111.739	0.214	0.043
-575.733	800.000	-0.066	-0.278
-574.719	13.430	-0.046	0.036
-573.704	-118.248	-0.251	0.045
-572.690	-200.000	0.004	-0.067
-571.675	-73.899	-0.024	0.009
-570.661	-60.103	-0.134	-0.057
-569.646	106.500	-0.054	0.064
-568.631	-145.849	-0.066	0.006
-567.617	70.601	0.191	-0.197
-566.602	-200.000	-0.023	-0.143
-565.588	10.854	-0.158	-0.120
-564.573	41.495	0.200	0.181
-563.558	800.000	-0.033	-0.113
-562.544	-200.000	-0.030	-0.276
-561.529	88.502	-0.279	0.309
-560.515	256.532	-0.158	-0.272
-559.500	-200.000	0.041	-0.258
-558.485	-200.000	-0.040	-0.254
-557.471	418.505	-0.054	-0.114
-556.456	-170.161	0.182	-0.006
-555.442	-200.000	-0.048	-0.295
-554.427	-13.141	0.279	0.181
-553.412	800.000	0.012	0.051
-552.398	-200.000	-0.030	-0.210
-551.383	121.890	-0.209	-0.261
-550.369	73.598	0.203	0.212
-549.354	-200.000	-0.007	-0.243
-548.339	76.684	-0.028	-0.029
-547.325	361.504	0.096	-0.192
-546.310	-136.959	-0.140	-0.016
-545.296	-16.809	-0.199	0.126
-544.281	-200.000	0.009	0.104
-543.266	-125.477	0.063	0.010
-542.252	241.279	0.100	-0.167
-541.237	112.178	0.171	-0.206
-540.223	-80.413	0.263	0.088
-539.208	114.345	-0.247	-0.300
-538.193	-76.778	-0.198	-0.069
-537.179	-200.000	0.000	0.111
-536.164	800.000	-0.157	0.471
-535.150	-70.583	0.492	-0.186
-534.135	-0.082	0.083	0.059
-533.121	800.000	0.018	0.060
-532.106	-88.362	0.157	0.047
-531.091	-60.680	-0.090	0.038
-530.077	-8.761	0.179	-0.120
-529.062	533.312	0.044	-0.103
-528.048	-200.000	-0.057	-0.266
-527.033	118.873	0.177	-0.218
-526.018	-200.000	-0.010	0.330
-525.004	-2.390	-0.146	-0.102
-523.989	800.000	-0.061	0.183
-522.975	-172.437	0.302	0.010
-521.960	1.912	-0.258	-0.185
-520.945	-110.133	-0.081	0.017
-519.931	263.723	0.146	-0.254
-518.916	-32.687	0.116	-0.064
-517.902	79.044	-0.025	0.027
-516.887	800.000	-0.048	-0.161
-515.872	-22.012	-0.025	0.015
-514.858	62.499	0.110	0.109
-513.843	-92.866	-0.193	-0.054
-512.829	800.000	-0.089	0.366
-511.814	-147.498	-0.305	-0.026
-510.799	0.675	0.171	-0.122
-509.785	-162.741	-0.040	-0.002
-508.770	-68.068	-0.456	0.177
-507.756	321.698	-0.109	0.206
-506.741	-200.000	0.014	-0.265
-505.726	-82.244	0.248	0.081
-504.712	-144.001	0.203	0.019
-503.697	84.464	0.049	0.054
-502.683	-129.840	0.246	0.034
-501.668	-200.000	-0.001	-0.215
-500.653	-200.000	-0.066	0.299
-499.639	-120.900	-0.327	-0.055
-498.624	263.090	0.036	0.063
-497.610	-99.760	-0.213	0.053
-496.595	517.530	0.148	-0.346
-495.581	-52.955	-0.323	-0.148
-494.566	131.829	0.214	-0.274
-493.551	-116.452	-0.179	-0.033
-492.537	-4.078	0.227	0.156
-491.522	-112.965	0.228	-0.045
-490.508	44.261	-0.187	-0.171
-489.493	-109.240	0.390	-0.083
-488.478	-40.916	-0.338	-0.174
-487.464	-91.039	0.070	-0.020
-486.449	800.000	0.034	-0.114
-485.435	57.062	-0.113	-0.110
-484.420	-101.208	0.203	0.049
-483.405	-33.810	0.262	-0.144
-482.391	9.561	-0.334	0.252
-481.376	-0.282	0.037	-0.026
-480.362	-200.000	-0.001	-0.241
-479.347	-119.715	0.226	-0.039
-478.332	-123.370	0.169	0.027
-477.318	-29.397	-0.284	0.162
-476.303	800.000	0.051	0.207
-475.289	-200.000	0.027	0.142
-474.274	116.257	0.178	0.217
-473.259	-49.565	0.187	0.089
-472.245	18.950	0.124	-0.099
-471.230	-71.078	-0.127	0.047
-470.216	29.576	0.140	-0.119
-469.201	-34.012	-0.200	-0.110
-468.186	166.939	0.184	0.260
-467.172	-42.887	-0.262	-0.133
-466.157	72.070	-0.445	-0.461
-465.143	-200.000	0.011	-0.143
-464.128	-110.970	-0.439	-0.090
-463.113	61.970	-0.219	-0.217
-462.099	-200.000	-0.042	-0.230
-461.084	-200.000	-0.025	-0.160
-460.070	-114.694	0.212	-0.040
-459.055	-136.122	0.505	-0.059
-458.040	-138.278	-0.261	-0.029
-457.026	-200.000	0.003	-0.188
-456.011	154.274	-0.157	0.214
-454.997	17.632	-0.267	0.211
-453.982	38.265	-0.132	-0.117
-452.968	560.474	0.167	-0.402
-451.953	457.898	0.058	-0.129
-450.938	7.808	-0.160	-0.119
-449.924	649.024	0.069	0.177
-448.909	178.368	0.105	0.153
-447.895	-40.284	-0.142	-0.074
-446.880	800.000	0.037	0.141
-445.865	-200.000	-0.056	0.255
-444.851	236.860	0.147	0.243
-443.836	-46.936	-0.167	-0.081
-442.822	193.613	0.141	-0.212
-441.807	-93.857	0.240	-0.066
-440.792	-200.000	0.050	-0.290
-439.778	-117.512	0.155	0.028
-438.763	61.102	-0.068	-0.068
-437.749	-200.000	-0.000	0.080
-436.734	-63.075	-0.035	0.014
-435.719	2.966	-0.245	0.177
-434.705	-55.826	-0.379	-0.168
-433.690	519.920	0.249	0.581
-432.676	-77.319	0.218	-0.075
-431.661	800.000	0.052	0.173
-430.646	31.482	-0.289	0.247
-429.632	243.370	0.096	0.161
-428.617	-157.280	0.103	0.006
-427.603	800.000	0.020	-0.059
-426.588	76.984	-0.063	0.066
-425.573	800.000	-0.115	-0.410
-424.559	-200.000	-0.005	0.230
-423.544	-72.174	-0.116	0.043
-422.530	222.611	-0.186	-0.297
-421.515	-200.000	-0.055	0.397
-420.500	172.082	-0.224	0.320
-419.486	-200.000	0.003	0.114
-418.471	-83.208	0.010	-0.003
-417.457	-200.000	0.010	-0.210
-416.442	187.642	0.056	0.082
-415.428	-178.875	0.096	-0.002
-414.413	552.408	-0.002	-0.005
-413.398	800.000	0.048	-0.202
-412.384	155.052	0.124	-0.170
-411.369	-200.000	0.005	-0.022
-410.355	719.852	-0.014	0.037
-409.340	92.782	-0.067	0.075
-408.325	160.258	-0.078	-0.108
-407.311	800.000	0.059	0.209
-406.296	-53.236	-0.272	-0.124
-405.282	-48.093	-0.208	0.100
-404.267	-200.000	-0.012	-0.123
-403.252	262.072	0.184	0.316
-402.238	-200.000	0.058	0.274
-401.223	21.398	0.258	0.208
-400.209	-18.557	0.301	0.186
-399.194	-200.000	-0.044	-0.325
-398.179	-200.000	-0.046	0.471
-397.165	-89.707	0.155	-0.045
-396.150	-125.426	-0.413	-0.062
-395.136	800.000	0.049	-0.198
-394.121	176.652	0.143	0.206
-393.106	164.350	-0.144	-0.201
-392.092	-200.000	-0.094	-0.430
-391.077	29.239	0.249	0.210
-390.063	-112.561	-0.201	0.040
-389.048	160.642	0.108	0.150
-388.033	800.000	0.060	-0.245
-387.019	550.206	0.062	0.147
-386.004	158.094	0.196	-0.270
-384.990	800.000	-0.083	-0.288
-383.975	-200.000	-0.029	0.448
-382.960	-11.217	-0.066	0.043
-381.946	-23.705	0.191	0.114
-380.931	-200.000	0.012	0.112
-379.917	46.615	-0.052	0.047
-378.902	507.448	0.079	-0.182
-377.888	164.018	0.149	-0.209
-376.873	-19.488	-0.173	-0.106
-375.858	-113.648	0.168	0.033
-374.844	-200.000	-0.041	-0.301
-373.829	-15.451	0.153	-0.097
-372.815	81.005	-0.082	-0.088
-371.800	-148.343	-0.490	-0.040
-370.785	-13.920	0.398	0.255
-369.771	-200.000	-0.010	-0.197
-368.756	32.344	-0.149	0.127
-367.742	340.650	0.138	0.267
-366.727	44.003	-0.145	-0.132
-365.712	-49.023	-0.122	0.058
-364.698	20.442	0.201	0.161
-363.683	-131.510	0.342	-0.045
-362.669	-16.137	-0.039	0.025
-361.654	-85.367	-0.154	-0.048
-360.639	-118.101	-0.182	-0.032
-359.625	500.364	-0.071	0.163
-358.610	-133.475	-0.197	0.025
-357.596	-200.000	0.011	-0.141
-356.581	800.000	0.127	-0.392
-355.566	30.643	0.166	-0.141
-354.552	29.864	-0.261	0.221
-353.537	761.846	0.114	0.308
-352.523	-142.855	0.127	-0.012
-351.508	-196.440	-0.138	-0.001
-350.493	42.257	0.096	-0.087
-349.479	734.046	0.136	0.361
-348.464	81.533	0.137	0.147
-347.450	363.297	-0.027	0.053
-346.435	-0.743	0.089	-0.063
-345.420	291.627	-0.059	0.107
-344.406	-200.000	-0.038	0.194
-343.391	752.804	0.041	-0.109
-342.377	-63.764	-0.104	-0.042
-341.362	17.433	-0.079	0.062
-340.348	23.761	-0.107	0.087
-339.333	313.310	-0.081	-0.150
-338.318	213.543	-0.075	0.118
-337.304	800.000	0.036	-0.116
-336.289	189.295	-0.231	0.342
-335.275	525.912	0.072	0.167
-334.260	-110.626	0.068	0.014
-333.245	800.000	-0.013	-0.053
-332.231	72.629	0.060	-0.062
-331.216	800.000	0.075	-0.297
-330.202	-126.300	-0.086	-0.013
-329.187	800.000	0.044	0.132
-328.172	-138.304	-0.407	0.045
-327.158	590.876	-0.031	-0.077
-326.143	-87.034	-0.258	-0.078
-325.129	-87.448	-0.092	-0.027
-324.114	-29.547	0.251	0.142
-323.099	2.237	0.089	0.063
-322.085	-134.609	-0.305	0.037
-321.070	595.741	-0.070	-0.171
-320.056	178.400	-0.126	0.182
-319.041	-49.823	-0.069	0.032
-318.026	35.249	0.077	0.067
-317.012	7.151	0.106	0.078
-315.997	42.818	0.147	0.133
-314.983	-200.000	-0.034	0.186
-313.968	168.736	-0.102	-0.144
-312.953	800.000	-0.051	0.151
-311.939	-200.000	0.026	-0.459
-310.924	273.370	0.077	-0.134
-309.910	-93.472	-0.282	-0.077
-308.895	-100.199	0.328	-0.081
-307.880	524.302	-0.138	-0.322
-306.866	193.920	-0.042	0.063
-305.851	-14.578	0.109	-0.069
-304.837	-45.166	0.258	0.127
-303.822	-65.783	0.084	-0.033
-302.807	-7.199	-0.130	-0.087
-301.793	-141.616	-0.377	0.038
-300.778	800.000	0.065	-0.244
-299.764	-33.172	-0.325	0.178
-298.749	-41.052	0.080	0.041
-297.735	23.712	-0.195	0.159
-296.720	-121.341	0.185	0.031
-295.705	44.111	0.284	-0.257
-294.691	117.797	-0.236	0.287
-293.676	-79.116	0.236	-0.079
-292.662	-200.000	-0.029	0.141
-291.647	-85.043	0.211	-0.065
-290.632	-200.000	0.044	0.235
-289.618	800.000	0.060	-0.185
-288.603	-46.054	0.094	0.046
-287.589	-120.365	-0.135	0.023
-286.574	-200.000	0.087	0.457
-285.559	-200.000	0.034	0.172
-284.545	-60.974	0.094	-0.039
-283.530	502.923	-0.170	0.389
-282.516	-40.847	0.264	0.135
-281.501	9.481	-0.255	-0.190
-280.486	-117.901	-0.033	0.006
-279.472	30.907	0.055	-0.046
-278.457	800.000	-0.042	0.123
-277.443	-200.000	-0.068	0.324
-276.428	529.498	-0.027	0.063
-275.413	-47.681	0.158	0.076
-274.399	179.308	0.154	-0.222
-273.384	25.264	0.062	-0.051
-272.370	280.016	-0.034	-0.060
-271.355	25.483	-0.192	-0.158
-270.340	-101.554	-0.106	0.025
-269.326	-200.000	0.016	0.142
-268.311	279.263	-0.112	-0.198
-267.297	106.090	-0.129	0.151
-266.282	-200.000	0.005	0.174
-265.267	-19.138	0.112	0.068
-264.253	-31.952	0.116	-0.064
-263.238	126.606	0.247	0.309
-262.224	-19.739	-0.115	-0.070
-261.209	-81.104	-0.135	0.044
-260.195	-84.199	-0.028	-0.009
-259.180	-200.000	-0.019	-0.327
-258.165	78.963	0.176	-0.186
-257.151	94.137	-0.102	0.114
-256.136	81.134	-0.180	-0.192
-255.122	16.164	-0.121	0.094
-254.107	-200.000	-0.049	0.278
-253.092	5.882	0.226	-0.165
-252.078	-200.000	-0.016	0.126
-251.063	-112.430	0.255	-0.050
-250.049	101.475	-0.236	-0.271
-249.034	52.638	0.212	0.200
-248.019	168.751	0.075	-0.105
-247.005	-200.000	-0.028	-0.252
-245.990	-140.042	0.132	-0.014
-244.976	343.073	-0.057	0.111
-243.961	-22.014	0.138	-0.083
-242.946	64.739	0.090	0.089
-241.932	61.702	-0.141	-0.138
-240.917	69.589	0.139	0.141
-239.903	154.348	-0.144	0.195
-238.888	89.576	0.253	0.278
-237.873	-52.991	-0.144	0.065
-236.859	-57.612	0.208	-0.090
-235.844	-35.219	-0.159	0.085
-234.830	293.313	-0.239	0.431
-233.815	123.195	0.181	-0.224
-232.800	-200.000	0.011	-0.119
-231.786	-124.885	-0.020	0.003
-230.771	-200.000	-0.014	-0.282
-229.757	29.457	-0.093	-0.078
-228.742	-44.262	0.240	0.119
-227.727	-134.395	0.303	0.037
-226.713	377.174	-0.031	-0.062
-225.698	648.129	0.128	0.324
-224.684	-88.029	0.106	0.031
-223.669	-200.000	-0.083	0.417
-222.655	106.625	0.185	0.216
-221.640	256.592	-0.261	0.441
-220.625	-36.683	0.119	0.063
-219.611	345.539	0.101	0.195
-218.596	-200.000	0.029	0.166
-217.582	-200.000	-0.003	-0.204
-216.567	-200.000	-0.030	0.386
-215.552	64.911	0.063	0.062
-214.538	-18.435	0.154	0.095
-213.523	-17.930	0.056	-0.035
-212.509	-58.890	-0.197	-0.084
-211.494	91.412	-0.284	0.314
-210.479	26.515	-0.130	-0.107
-209.465	800.000	-0.077	0.249
-208.450	-200.000	-0.030	0.234
-207.436	-2.701	0.064	-0.044
-206.421	397.548	0.151	0.311
-205.406	-34.983	-0.274	0.147
-204.392	154.424	-0.044	0.060
-203.377	434.677	-0.145	-0.310
-202.363	-200.000	-0.071	0.000
-201.348	284.947	0.200	0.355
-200.333	-132.498	-0.136	0.017
-199.319	800.000	0.100	-0.299
-198.304	-84.902	-0.095	0.029
-197.290	-93.674	-0.380	0.103
-196.275	56.899	0.409	-0.393
-195.260	-6.665	-0.235	-0.158
-194.246	800.000	-0.052	-0.212
-193.231	-8.830	-0.299	-0.198
-192.217	-10.500	0.106	-0.069
-191.202	-94.482	0.261	-0.070
-190.187	-189.354	0.121	0.001
-189.173	710.559	-0.124	0.323
-188.158	-57.954	0.157	-0.067
-187.144	-79.240	-0.176	-0.059
-186.129	-80.254	0.315	-0.104
-185.114	25.085	0.205	0.168
-184.100	57.978	-0.255	0.246
-183.085	800.000	0.074	0.216
-182.071	-200.000	-0.013	-0.098
-181.056	800.000	0.132	-0.403
-180.042	800.000	0.017	0.064
-179.027	13.398	0.128	0.098
-178.012	393.919	0.060	-0.124
-176.998	800.000	0.113	0.333
-175.983	265.440	0.112	-0.192
-174.969	-103.022	0.171	0.040
-173.954	-12.504	-0.240	-0.154
-172.939	-65.265	0.158	0.062
-171.925	-200.000	0.022	0.198
-170.910	-17.197	-0.058	-0.036
-169.896	421.163	-0.127	0.268
-168.881	113.984	0.175	-0.209
-167.866	-200.000	0.011	0.211
-166.852	259.849	0.046	0.079
-165.837	-200.000	-0.021	-0.305
-164.823	-200.000	0.038	-0.268
-163.808	-135.429	0.136	-0.016
-162.793	-89.084	-0.222	0.065
-161.779	800.000	0.162	0.457
-160.764	-97.326	-0.205	0.052
-159.750	228.346	0.037	0.059
-158.735	317.955	0.051	0.095
-157.720	-200.000	-0.051	0.310
-156.706	-148.508	0.276	0.022
-155.691	800.000	0.073	0.241
-154.677	126.711	0.048	-0.060
-153.662	215.179	-0.162	0.252
-152.647	-79.588	-0.239	-0.079
-151.633	-43.856	-0.150	-0.074
-150.618	38.992	-0.227	-0.200
-149.604	-97.766	-0.174	-0.044
-148.589	800.000	-0.034	0.117
-147.574	-6.705	0.116	-0.078
-146.560	-90.609	0.049	0.014
-145.545	-146.590	0.203	-0.017
-144.531	143.175	0.229	0.299
-143.516	-111.551	0.130	0.026
-142.502	5.085	-0.167	-0.121
-141.487	-82.277	-0.079	0.025
-140.472	126.672	0.082	-0.102
-139.458	429.987	-0.025	-0.053
-138.443	-102.237	0.178	-0.042
-137.429	210.888	-0.070	-0.108
-136.414	800.000	-0.061	-0.220
-135.399	379.232	-0.110	0.221
-134.385	800.000	-0.049	0.170
-133.370	284.145	-0.134	0.236
-132.356	-22.099	0.219	-0.131
-131.341	162.262	0.163	-0.224
-130.326	164.500	-0.170	0.236
-129.312	-200.000	0.071	0.397
-128.297	800.000	0.062	0.218
-127.283	800.000	0.063	0.269
-126.268	1.806	-0.357	0.253
-125.253	-12.007	-0.067	0.043
-124.239	800.000	-0.092	0.282
-123.224	-200.000	-0.010	0.102
-122.210	-200.000	-0.011	0.135
-121.195	-124.646	0.101	-0.015
-120.180	-173.545	0.305	0.009
-119.166	800.000	0.044	-0.135
-118.151	299.813	0.136	0.246
-117.137	-65.190	-0.220	-0.087
-116.122	540.118	0.086	-0.200
-115.107	3.036	0.263	0.188
-114.093	-47.225	-0.016	0.008
-113.078	-84.438	-0.347	0.108
-112.064	126.965	0.151	-0.188
-111.049	-46.238	0.109	-0.052
-110.034	758.285	-0.085	0.227
-109.020	800.000	-0.041	0.145
-108.005	20.244	-0.135	0.107
-106.991	10.895	0.188	-0.141
-105.976	92.548	0.099	-0.110
-104.962	-22.111	-0.202	-0.120
-103.947	800.000	-0.005	-0.018
-102.932	-112.412	0.203	0.040
-101.918	21.274	0.202	0.161
-100.903	-11.347	-0.237	0.153
-99.889	199.352	0.131	-0.197
-98.874	-85.500	0.260	-0.079
-97.859	175.330	-0.244	0.346
-96.845	-143.622	-0.251	0.023
-95.830	130.836	-0.126	0.159
-94.816	30.972	-0.093	0.078
-93.801	800.000	-0.085	0.302
-92.786	-53.316	0.238	0.107
-91.772	-32.099	0.220	0.120
-90.757	457.412	-0.084	-0.183
-89.743	-200.000	0.010	0.342
-88.728	153.338	0.139	0.187
-87.713	-26.979	0.207	-0.118
-86.699	-71.483	-0.132	0.048
-85.684	32.670	-0.083	0.070
-84.670	-86.732	-0.343	-0.103
-83.655	2.408	0.113	-0.080
-82.640	-65.315	0.232	0.092
-81.626	-71.615	-0.347	-0.127
-80.611	190.871	-0.097	0.143
-79.597	-155.385	0.282	0.018
-78.582	-171.315	0.142	-0.005
-77.567	-126.482	-0.079	-0.011
-76.553	-174.619	0.306	-0.009
-75.538	42.882	-0.208	0.186
-74.524	34.009	-0.209	0.179
-73.509	-142.317	0.210	0.020
-72.494	-54.326	0.399	-0.177
-71.480	-200.000	0.013	0.198
-70.465	-200.000	0.027	0.180
-69.451	-145.020	0.295	0.026
-68.436	288.198	-0.154	0.274
-67.422	-137.893	-0.090	-0.010
-66.407	280.142	0.184	0.322
-65.392	625.860	-0.113	0.280
-64.378	40.967	0.066	-0.059
-63.363	29.007	0.354	0.294
-62.349	-200.000	-0.017	0.450
-61.334	138.064	-0.876	-1.125
-60.319	-11.809	0.556	0.357
-59.305	-200.000	-0.187	-0.868
-58.290	275.518	0.648	1.126
-57.276	489.369	0.710	1.590
-56.261	-200.000	113.647	665.138
-55.246	552.904	1513.290	3561.575
-54.232	179.679	2679.528	3843.593
-53.217	113.343	2147.305	2551.953
-52.203	40.049	1596.268	1404.696
-51.188	31.621	1343.444	1131.490
-50.173	28.629	1305.200	1081.631
-49.159	57.028	1362.527	1300.625
-48.144	55.259	1376.198	1303.034
-47.130	31.802	1331.372	1122.230
-46.115	28.401	1313.494	1086.980
-45.100	28.154	1308.882	1081.659
-44.086	28.072	1306.592	1079.240
-43.071	28.100	1303.976	1077.204
-42.057	28.057	1302.302	1075.527
-41.042	28.083	1300.384	1074.052
-40.027	28.066	1298.562	1072.405
-39.013	28.127	1296.884	1071.334
-37.998	28.156	1294.861	1069.788
-36.984	28.096	1293.500	1068.271
-35.969	28.255	1291.231	1067.281
-34.954	28.162	1289.882	1065.584
-33.940	28.291	1288.400	1065.070
-32.925	28.226	1287.279	1063.718
-31.911	28.350	1285.661	1063.058
-30.896	28.350	1284.261	1061.863
-29.881	28.359	1283.223	1061.012
-28.867	28.242	1281.966	1059.255
-27.852	28.198	1280.641	1057.862
-26.838	28.276	1278.983	1056.903
-25.823	28.260	1277.741	1055.743
-24.809	28.263	1276.121	1054.377
-23.794	28.182	1275.493	1053.349
-22.779	28.163	1274.106	1052.057
-21.765	28.267	1272.133	1050.981
-20.750	28.371	1270.892	1050.512
-19.736	28.155	1269.559	1048.128
-18.721	28.072	1268.564	1046.790
-17.706	28.068	1267.717	1046.028
-16.692	28.127	1266.595	1045.397
-15.677	28.205	1265.266	1044.705
-14.663	28.231	1263.911	1043.693
-13.648	28.109	1263.216	1042.383
-12.633	28.167	1262.244	1041.867
-11.619	28.045	1261.561	1040.569
-10.604	28.114	1260.625	1040.150
-9.590	28.138	1259.107	1038.993
-8.575	28.069	1258.481	1038.042
-7.560	28.061	1257.945	1037.514
-6.546	28.183	1256.900	1037.304
-5.531	28.252	1255.981	1036.893
-4.517	28.177	1254.958	1035.580
-3.502	28.202	1254.223	1035.077
-2.487	28.124	1253.223	1033.767
-1.473	28.161	1248.754	1030.249
-0.458	26.488	1234.227	1008.902
0.556	23.366	1216.430	970.645
1.571	19.580	1222.016	954.141
2.586	18.453	1236.515	959.071
3.600	18.239	1224.510	948.491
4.615	13.535	1153.747	868.977
5.629	6.357	1081.958	779.406
6.644	3.357	1063.038	751.100
7.659	3.041	1061.074	748.111
8.673	3.046	1059.934	747.265
9.688	3.147	1058.609	746.752
10.702	3.298	1056.435	745.885
11.717	7.373	1062.033	769.578
12.731	14.990	1072.440	814.252
13.746	19.381	1078.309	840.072
14.761	19.864	1078.284	842.332
15.775	18.908	1076.932	836.548
16.790	17.989	1074.647	830.237
17.804	17.360	1073.088	825.904
18.819	16.988	1072.033	823.215
19.834	16.922	1071.262	822.230
20.848	16.784	1070.693	821.051
21.863	16.656	1069.708	819.604
22.877	16.388	1068.891	817.610
23.892	16.362	1068.288	816.947
24.907	16.298	1067.718	816.132
25.921	16.475	1066.291	815.821
26.936	16.475	1065.046	814.796
27.950	16.406	1064.022	813.612
28.965	16.476	1062.270	812.537
29.980	16.742	1060.757	812.581
30.994	16.606	1060.455	811.627
32.009	16.794	1059.126	811.440
33.023	16.690	1057.822	809.868
34.038	16.675	1056.405	808.641
35.053	16.319	1056.088	806.629
36.067	16.501	1055.181	806.732
37.082	16.542	1054.248	806.144
38.096	16.721	1053.394	806.272
39.111	16.635	1052.812	805.345
40.126	16.647	1050.834	803.817
41.140	16.326	1050.215	801.747
42.155	16.264	1048.831	800.327
43.169	16.095	1047.672	798.572
44.184	16.080	1046.773	797.747
45.199	16.065	1045.974	796.994
46.213	16.333	1044.631	797.169
47.228	16.401	1043.987	796.926
48.242	16.532	1042.647	796.448
49.257	16.468	1041.855	795.473
50.271	16.603	1040.870	795.282
51.286	16.541	1040.063	794.307
52.301	16.450	1039.452	793.340
53.315	16.322	1038.320	791.809
54.330	16.282	1036.929	790.489
55.344	16.176	1036.699	789.749
56.359	16.243	1035.405	789.007
57.374	16.246	1034.359	788.152
58.388	16.198	1033.371	787.106
59.403	16.167	1032.841	786.487
60.417	16.180	1031.837	785.716
61.432	16.052	1030.892	784.330
62.447	16.186	1029.590	783.892
63.461	15.945	1029.560	782.682
64.476	16.040	1028.342	782.126
65.490	16.058	1027.266	781.322
66.505	16.126	1026.571	781.040
67.520	16.085	1026.084	780.409
68.534	16.037	1025.405	779.604
69.549	16.014	1024.414	778.675
70.563	15.970	1023.866	777.986
71.578	15.925	1022.935	777.002
72.593	15.808	1022.004	775.687
73.607	15.862	1021.453	775.450
74.622	15.866	1020.998	775.052
75.636	15.956	1019.867	774.538
76.651	15.926	1019.737	774.236
77.666	16.017	1018.899	773.947
78.680	16.070	1018.310	773.678
79.695	16.083	1017.776	773.260
80.709	16.067	1017.531	772.932
81.724	16.171	1016.746	772.746
82.739	16.324	1015.572	772.483
83.753	16.427	1015.378	772.737
84.768	16.663	1014.404	773.005
85.782	16.712	1013.556	772.515
86.797	16.817	1012.329	771.992
87.812	16.597	1011.612	770.375
88.826	16.628	1010.713	769.762
89.841	16.577	1009.843	768.798
90.855	16.709	1008.944	768.648
91.870	16.807	1008.163	768.429
92.884	16.674	1007.454	767.215
93.899	16.718	1005.981	766.227
94.914	16.864	1005.318	766.311
95.928	16.709	1004.745	765.110
96.943	16.646	1004.206	764.345
97.957	16.520	1002.945	762.751
98.972	16.613	1002.168	762.511
99.987	16.673	1001.461	762.176
101.001	16.579	1000.022	760.591
102.016	16.636	999.335	760.260
103.030	16.724	998.679	760.088
104.045	16.673	997.886	759.184
105.060	16.564	996.592	757.648
106.074	16.239	996.112	755.759
107.089	16.231	994.413	754.367
108.103	16.151	993.540	753.282
109.118	16.225	992.440	752.709
110.133	16.151	991.506	751.605
111.147	16.139	990.978	751.085
112.162	16.182	990.490	750.843
113.176	16.274	989.596	750.505
114.191	16.364	988.634	750.110
115.206	16.322	988.145	749.485
116.220	16.243	987.110	748.287
117.235	16.236	986.214	747.508
118.249	16.188	985.550	746.726
119.264	16.133	984.516	745.633
120.279	16.202	984.091	745.549
121.293	16.087	982.782	743.988
122.308	15.877	982.365	742.680
123.322	16.070	980.800	742.280
124.337	15.921	980.006	740.956
125.352	16.024	978.679	740.342
126.366	16.047	977.496	739.479
127.381	16.131	976.705	739.184
128.395	16.055	975.989	738.244
129.410	16.098	974.958	737.589
130.424	16.048	974.165	736.705
131.439	16.225	973.436	736.862
132.454	16.187	972.881	736.209
133.468	16.289	971.970	735.900
134.483	16.364	971.116	735.513
135.497	16.235	970.639	734.527
136.512	16.164	970.112	733.753
137.527	16.190	969.242	733.145
138.541	16.449	968.035	733.291
139.556	16.424	967.434	732.663
140.570	16.563	967.161	732.994
141.585	16.519	966.185	731.996
142.600	16.572	965.502	731.645
143.614	16.762	964.574	731.698
144.629	16.782	963.981	731.271
145.643	16.813	962.778	730.425
146.658	16.604	961.415	728.429
147.673	16.535	960.429	727.321
148.687	16.449	959.662	726.303
149.702	16.377	958.890	725.347
150.716	16.275	958.510	724.559
151.731	16.460	957.206	724.301
152.746	16.437	956.699	723.755
153.760	16.472	956.186	723.452
154.775	16.619	955.660	723.617
155.789	16.504	954.720	722.349
156.804	16.590	954.688	722.630
157.819	16.639	953.797	722.101
158.833	16.753	952.915	721.856
159.848	16.787	952.486	721.611
160.862	16.669	951.220	720.086
161.877	16.629	949.730	718.723
162.892	16.424	949.023	717.257
163.906	16.378	947.745	716.033
164.921	16.325	947.189	715.322
165.935	16.576	946.741	715.986
166.950	16.601	945.406	715.016
167.964	16.441	944.612	713.678
168.979	16.417	944.049	713.088
169.994	16.504	943.321	712.843
171.008	16.554	942.466	712.346
172.023	16.704	941.947	712.519
173.037	16.785	941.643	712.570
174.052	16.713	940.462	711.307
175.067	16.420	939.931	709.614
176.081	16.474	938.779	708.907
177.096	16.342	938.681	708.218
178.110	16.422	938.156	708.095
179.125	16.433	937.369	707.482
180.140	16.664	936.540	707.762
181.154	16.646	936.687	707.733
182.169	16.865	935.675	707.821
183.183	16.786	935.592	707.368
184.198	16.824	934.375	706.544
185.213	16.797	933.819	705.947
186.227	16.876	933.147	705.706
187.242	16.908	932.706	705.442
188.256	17.045	932.105	705.495
189.271	17.022	931.410	704.812
190.286	16.763	930.263	702.805
191.300	16.441	928.770	700.284
192.315	16.263	928.421	699.218
193.329	16.375	928.636	699.783
194.344	16.487	927.831	699.580
195.359	16.620	927.181	699.576
196.373	16.811	926.233	699.587
197.388	16.914	926.121	699.865
198.402	17.138	925.722	700.425
199.417	17.226	925.175	700.314
200.432	17.187	924.908	699.890
201.446	17.214	924.459	699.598
202.461	17.394	923.989	699.921
203.475	17.204	923.438	698.663
204.490	16.977	922.108	696.660
205.504	17.060	920.800	695.953
206.519	16.958	920.495	695.243
207.534	17.006	919.554	694.668
208.548	16.970	919.057	694.082
209.563	17.065	918.517	694.002
210.577	17.082	917.949	693.579
211.592	17.316	917.147	693.869
212.607	17.357	916.359	693.378
213.621	17.288	915.597	692.459
214.636	17.182	915.206	691.670
215.650	17.288	914.443	691.464
216.665	17.290	913.628	690.794
217.680	17.293	913.533	690.673
218.694	17.331	912.670	690.112
219.709	17.266	912.009	689.289
220.723	17.445	911.183	689.328
221.738	17.288	910.585	688.181
222.753	17.353	909.882	687.851
223.767	17.397	909.309	687.535
224.782	17.558	908.833	687.764
225.796	17.509	908.669	687.381
226.811	17.594	907.636	686.879
227.826	17.414	906.779	685.448
228.840	17.411	905.966	684.759
229.855	17.325	905.609	684.082
230.869	17.248	904.660	682.995
231.884	17.135	904.195	682.130
232.899	17.183	903.153	681.477
233.913	17.164	902.622	680.939
234.928	17.176	901.772	680.285
235.942	17.102	901.361	679.619
236.957	17.237	900.778	679.660
237.972	17.249	899.874	678.966
238.986	17.271	899.071	678.387
240.001	17.338	898.627	678.261
241.015	17.320	898.071	677.709
242.030	17.264	897.925	677.318
243.045	17.453	897.045	677.342
244.059	17.410	896.569	676.755
245.074	17.380	896.048	676.182
246.088	17.469	895.583	676.123
247.103	17.581	894.809	675.923
248.117	17.691	894.316	675.928
249.132	18.059	893.985	677.075
250.147	18.055	893.364	676.531
251.161	18.082	892.796	676.147
252.176	18.141	891.961	675.690
253.190	18.254	891.290	675.568
254.205	18.235	890.863	675.109
255.220	18.209	890.424	674.612
256.234	18.110	889.719	673.631
257.249	18.260	888.651	673.350
258.263	18.203	887.898	672.499
259.278	18.128	887.378	671.749
260.293	18.143	886.823	671.326
261.307	18.210	886.614	671.373
262.322	18.251	885.990	671.004
263.336	18.318	884.972	670.436
264.351	18.373	884.416	670.171
265.366	18.287	884.242	669.640
266.380	18.265	883.197	668.705
267.395	18.157	882.530	667.719
268.409	18.206	881.575	667.130
269.424	18.264	880.797	666.709
270.439	18.071	880.121	665.383
271.453	17.984	879.714	664.681
272.468	18.149	879.062	664.772
273.482	18.060	878.364	663.839
274.497	18.169	877.541	663.580
275.512	18.046	877.233	662.811
276.526	18.100	877.051	662.824
277.541	18.290	876.318	662.947
278.555	18.272	876.118	662.669
279.570	18.222	875.850	662.213
280.585	18.453	874.325	661.895
281.599	18.275	873.437	660.475
282.614	18.326	872.769	660.108
283.628	18.090	872.753	659.129
284.643	18.123	871.997	658.626
285.657	18.291	871.064	658.512
286.672	18.265	870.443	657.881
287.687	18.420	869.541	657.737
288.701	18.266	869.206	656.834
289.716	18.301	868.704	656.534
290.730	18.313	868.055	656.031
291.745	18.481	867.463	656.168
292.760	18.409	866.682	655.243
293.774	18.648	866.493	655.955
294.789	18.528	865.783	654.901
295.803	18.295	865.041	653.394
296.818	18.273	864.447	652.801
297.833	18.316	863.571	652.249
298.847	18.320	863.000	651.774
299.862	18.329	862.625	651.467
300.876	18.541	861.805	651.597
301.891	18.663	861.423	651.715
302.906	18.867	860.724	651.900
303.920	18.845	860.310	651.446
304.935	18.880	859.814	651.144
305.949	18.849	859.197	650.502
306.964	18.690	858.429	649.262
307.979	18.704	858.263	649.131
308.993	18.846	857.505	649.039
310.008	18.858	856.878	648.551
311.022	18.882	856.236	648.099
312.037	18.615	855.699	646.628
313.052	18.509	855.060	645.689
314.066	18.623	854.235	645.439
315.081	18.432	854.167	644.610
316.095	18.515	852.976	643.966
317.110	18.535	852.460	643.595
318.125	18.541	852.180	643.350
319.139	18.582	851.817	643.173
320.154	18.554	851.348	642.655
321.168	18.626	850.418	642.166
322.183	18.624	850.302	642.017
323.197	18.672	849.821	641.775
324.212	18.715	849.168	641.387
325.227	18.635	848.552	640.563
326.241	18.628	847.604	639.768
327.256	18.580	847.401	639.376
328.270	18.606	846.570	638.791
329.285	18.609	846.237	638.496
330.300	18.643	845.670	638.135
331.314	18.781	845.275	638.293
332.329	18.822	844.869	638.083
333.343	18.863	844.555	637.941
334.358	18.932	843.775	637.553
335.373	18.772	843.902	636.998
336.387	18.948	843.303	637.142
337.402	18.921	842.870	636.661
338.416	19.094	842.589	637.031
339.431	19.173	842.570	637.251
340.446	19.167	841.759	636.560
341.460	19.349	841.588	637.047
342.475	19.282	840.914	636.232
343.489	19.215	840.931	635.943
344.504	19.449	840.232	636.222
345.519	19.553	839.797	636.217
346.533	19.345	839.255	634.987
347.548	19.204	838.610	633.921
348.562	18.974	838.094	632.629
349.577	19.078	836.901	632.055
350.592	19.030	836.196	631.292
351.606	19.080	835.496	630.891
352.621	18.976	835.231	630.255
353.635	19.143	834.566	630.307
354.650	19.122	833.675	629.501
355.665	19.134	833.551	629.395
356.679	19.148	833.046	629.010
357.694	19.138	832.515	628.516
358.708	19.046	831.848	627.622
359.723	19.173	830.794	627.235
360.738	19.215	830.549	627.147
361.752	19.300	829.596	626.680
362.767	19.378	829.426	626.782
363.781	19.475	829.313	626.991
364.796	19.629	828.667	627.008
365.810	19.694	828.165	626.808
366.825	19.818	827.563	626.745
367.840	19.821	827.019	626.289
368.854	19.614	826.636	625.193
369.869	19.405	826.504	624.285
370.883	19.590	826.208	624.674
371.898	19.739	825.665	624.745
372.913	19.764	825.335	624.531
373.927	19.577	824.799	623.397
374.942	19.603	824.376	623.114
375.956	19.755	823.952	623.286
376.971	20.015	823.103	623.525
377.986	20.012	822.871	623.284
379.000	20.012	822.172	622.700
380.015	19.971	822.014	622.376
381.029	19.798	821.232	621.108
382.044	19.922	820.979	621.309
383.059	19.895	820.006	620.420
384.073	19.862	819.408	619.794
385.088	19.794	818.569	618.860
386.102	19.620	818.071	617.807
387.117	19.705	817.412	617.559
388.132	19.729	816.970	617.257
389.146	19.797	816.261	616.907
390.161	19.764	816.385	616.829
391.175	19.867	815.676	616.605
392.190	19.870	814.922	615.994
393.205	19.768	814.661	615.378
394.219	19.708	814.573	615.043
395.234	19.735	813.589	614.342
396.248	19.588	813.185	613.462
397.263	19.635	813.091	613.504
398.278	19.391	812.718	612.299
399.292	19.613	811.864	612.389
400.307	19.650	811.512	612.201
401.321	19.630	811.056	611.732
402.336	19.559	810.701	611.160
403.350	19.810	810.204	611.617
404.365	19.802	809.744	611.189
405.380	20.142	809.439	612.107
406.394	20.123	808.955	611.617
407.409	20.110	808.473	611.154
408.423	20.097	808.873	611.357
409.438	20.255	808.079	611.259
410.453	20.197	807.402	610.486
411.467	20.314	807.061	610.588
412.482	20.338	807.003	610.574
413.496	20.252	806.798	610.062
414.511	20.406	805.932	609.894
415.526	20.466	805.406	609.652
416.540	20.329	804.926	608.757
417.555	20.399	804.584	608.687
418.569	20.531	803.815	608.516
419.584	20.345	803.522	607.589
420.599	20.381	803.242	607.449
421.613	161.317	1373.073	1796.711
422.628	140.121	1456.095	1796.783
