DTS Sentinel unit serial number:	SN413079Multiplexer serial number:	ORYXHardware model number:	OX4-SRSoftware version number:	ORYX F/W v4.00 Oryx Data Collector v3.7.2.0data status	okinstallation	princeton_trtdifferential loss correction	single-endedforward channel	channel 1reverse channel	N/Adate	2019/09/12time	22:18:35forward acquisition time	60.00reverse acquisition time	0.00gamma	496.2192k internal	0.2326k external	0.2326temperature offset calibration	1.0152default loss term (dB/km)	0.3790temperature slope calibration	1.0000multiplexer offset coefficient	1.0000multiplexer slope coefficient	1.0000fibre end	0.00T internal ref (°C)	29.81T ext. ref 1 (°C)	3.73T ext. ref 2 (°C)	24.41length (m)	temperature (°C)	Stokes	anti-Stokes-747.200	-58.806	-0.171	-0.075
-746.185	356.961	-0.109	0.219
-745.171	129.965	-0.125	0.161
-744.156	279.448	0.090	-0.162
-743.142	800.000	-0.100	-0.324
-742.127	-97.671	-0.069	0.018
-741.112	-33.100	-0.345	-0.193
-740.098	237.904	-0.167	0.280
-739.083	69.766	0.097	-0.101
-738.069	354.715	0.159	0.319
-737.054	-200.000	-0.010	-0.145
-736.039	-55.964	-0.315	0.142
-735.025	473.005	0.108	0.246
-734.010	495.676	-0.183	0.424
-732.996	-97.198	-0.165	-0.043
-731.981	-91.420	-0.422	-0.121
-730.966	-200.000	-0.042	0.357
-729.952	-23.801	-0.120	0.072
-728.937	-124.016	-0.176	0.028
-727.923	-50.425	0.143	-0.068
-726.908	-110.469	0.008	-0.002
-725.894	-105.998	-0.258	0.059
-724.879	-42.535	0.308	-0.158
-723.864	-138.583	-0.429	0.047
-722.850	17.042	0.100	-0.080
-721.835	218.316	-0.074	0.119
-720.821	-200.000	-0.003	0.384
-719.806	-116.662	-0.388	0.072
-718.791	-200.000	0.094	-0.561
-717.777	-122.379	0.341	-0.056
-716.762	-108.712	-0.175	0.038
-715.748	102.635	0.052	-0.061
-714.733	800.000	0.100	-0.297
-713.718	149.469	-0.265	-0.361
-712.704	-200.000	-0.007	-0.131
-711.689	-147.863	-0.191	0.016
-710.675	800.000	-0.029	0.108
-709.660	29.734	-0.186	-0.160
-708.645	50.004	-0.265	-0.252
-707.631	-200.000	-0.044	0.211
-706.616	-67.788	0.189	0.075
-705.602	70.610	-0.047	-0.049
-704.587	-200.000	0.022	-0.272
-703.572	171.543	-0.143	0.206
-702.558	-200.000	0.045	0.291
-701.543	303.758	-0.059	0.111
-700.529	35.601	-0.140	-0.124
-699.514	-70.628	0.456	-0.174
-698.499	-200.000	-0.050	-0.349
-697.485	209.290	0.169	-0.266
-696.470	-200.000	-0.004	-0.109
-695.456	-12.076	-0.138	0.091
-694.441	60.534	-0.038	0.038
-693.426	56.423	-0.247	-0.242
-692.412	-200.000	0.018	0.097
-691.397	185.681	0.134	0.200
-690.383	-78.185	0.291	0.101
-689.368	56.893	0.398	-0.390
-688.354	-9.041	-0.149	-0.101
-687.339	-45.122	0.311	-0.156
-686.324	371.297	-0.141	0.288
-685.310	800.000	-0.038	0.121
-684.295	-153.197	-0.424	0.030
-683.281	-153.257	-0.222	-0.016
-682.266	-9.434	0.087	-0.058
-681.251	237.382	-0.145	-0.243
-680.237	-89.537	-0.163	0.048
-679.222	800.000	-0.009	-0.028
-678.208	296.456	0.250	0.461
-677.193	-138.642	-0.125	-0.014
-676.178	9.892	-0.107	-0.082
-675.164	96.087	-0.160	0.184
-674.149	212.869	0.064	-0.102
-673.135	119.856	0.174	0.217
-672.120	-134.606	0.156	-0.019
-671.105	43.381	-0.054	0.050
-670.091	-200.000	0.024	-0.140
-669.076	-144.842	-0.145	0.013
-668.062	77.937	0.188	0.201
-667.047	47.891	-0.162	0.152
-666.032	-200.000	0.021	-0.169
-665.018	-101.847	0.120	-0.029
-664.003	-141.782	-0.221	-0.022
-662.989	189.661	0.017	-0.026
-661.974	-200.000	-0.009	-0.098
-660.959	700.507	0.120	-0.318
-659.945	-200.000	0.004	-0.095
-658.930	800.000	0.116	-0.381
-657.916	-10.421	-0.050	0.033
-656.901	-121.568	0.164	-0.027
-655.886	16.170	-0.215	-0.171
-654.872	-81.248	0.425	0.141
-653.857	-49.369	-0.347	-0.167
-652.843	-32.688	-0.206	-0.115
-651.828	21.743	0.216	0.177
-650.814	-131.354	0.436	-0.058
-649.799	280.825	0.147	-0.264
-648.784	-42.415	0.113	0.058
-647.770	2.971	0.190	-0.139
-646.755	-200.000	0.001	0.082
-645.741	128.333	-0.118	0.151
-644.726	29.961	0.064	0.055
-643.711	-200.000	0.074	0.367
-642.697	-27.586	0.152	0.089
-641.682	-200.000	0.010	0.116
-640.668	-200.000	-0.029	0.150
-639.653	-200.000	-0.051	0.227
-638.638	-200.000	-0.023	0.303
-637.624	45.551	0.221	-0.205
-636.609	107.868	-0.148	-0.177
-635.595	-200.000	-0.001	-0.076
-634.580	-17.856	0.162	0.102
-633.565	47.104	-0.097	0.090
-632.551	30.072	0.144	-0.124
-631.536	153.535	0.168	-0.231
-630.522	-200.000	0.041	-0.243
-629.507	-200.000	0.004	0.067
-628.492	6.265	-0.229	-0.170
-627.478	-106.052	0.318	-0.072
-626.463	4.959	-0.118	0.087
-625.449	-92.755	-0.125	0.035
-624.434	800.000	0.100	-0.313
-623.419	-34.359	0.044	-0.024
-622.405	-66.679	-0.116	-0.046
-621.390	569.409	-0.077	-0.188
-620.376	47.144	-0.223	-0.208
-619.361	60.695	0.136	0.136
-618.346	179.062	0.065	-0.095
-617.332	-52.346	-0.266	0.124
-616.317	583.084	-0.076	0.188
-615.303	-16.943	-0.198	0.126
-614.288	156.919	-0.040	0.056
-613.273	-15.220	-0.012	-0.008
-612.259	132.589	0.067	-0.087
-611.244	-113.507	-0.234	-0.046
-610.230	-179.429	-0.194	-0.004
-609.215	211.901	-0.012	-0.019
-608.201	454.526	-0.106	0.236
-607.186	-200.000	-0.020	-0.122
-606.171	-90.746	0.215	-0.062
-605.157	-190.645	-0.250	0.003
-604.142	800.000	-0.031	-0.099
-603.128	315.214	-0.121	0.228
-602.113	-200.000	-0.012	0.290
-601.098	800.000	0.035	-0.109
-600.084	9.836	0.204	0.155
-599.069	-200.000	0.033	0.177
-598.055	-136.699	-0.089	0.010
-597.040	30.267	0.275	-0.235
-596.025	36.270	-0.356	0.314
-595.011	-103.031	-0.071	0.017
-593.996	800.000	0.053	-0.223
-592.982	-200.000	0.004	-0.143
-591.967	-47.815	0.145	0.070
-590.952	-120.127	-0.164	-0.028
-589.938	-200.000	0.009	-0.287
-588.923	-23.891	-0.104	-0.062
-587.909	180.276	-0.131	0.193
-586.894	-79.124	0.294	-0.100
-585.879	-200.000	-0.007	-0.089
-584.865	-129.598	-0.310	0.043
-583.850	145.467	-0.106	0.142
-582.836	575.367	-0.129	-0.316
-581.821	-200.000	-0.030	-0.225
-580.806	80.357	0.055	0.059
-579.792	-13.337	0.262	0.170
-578.777	-107.443	0.109	-0.024
-577.763	-200.000	0.023	-0.144
-576.748	-66.810	-0.181	-0.072
-575.733	-200.000	0.009	0.106
-574.719	411.053	0.077	0.164
-573.704	-200.000	0.034	0.328
-572.690	-122.829	0.149	-0.024
-571.675	202.261	0.067	-0.103
-570.661	-200.000	0.007	0.102
-569.646	-200.000	-0.005	0.215
-568.631	300.649	-0.041	0.075
-567.617	780.521	-0.062	-0.170
-566.602	-52.995	-0.174	-0.080
-565.588	-146.169	0.074	-0.007
-564.573	488.527	-0.111	0.253
-563.558	46.150	0.387	0.359
-562.544	221.258	0.069	0.112
-561.529	209.084	-0.092	0.145
-560.515	-200.000	0.378	-0.000
-559.500	-200.000	0.027	-0.282
-558.485	-118.196	0.222	-0.040
-557.471	-149.257	-0.082	0.007
-556.456	83.999	-0.156	-0.171
-555.442	-200.000	-0.015	-0.325
-554.427	-200.000	-0.019	0.094
-553.412	800.000	0.049	0.144
-552.398	-105.189	0.250	-0.057
-551.383	800.000	-0.037	-0.154
-550.369	800.000	0.100	-0.341
-549.354	800.000	0.036	0.142
-548.339	215.710	-0.116	0.185
-547.325	-82.975	0.199	-0.064
-546.310	-111.387	-0.188	-0.038
-545.296	-112.471	-0.308	-0.062
-544.281	629.611	-0.167	-0.422
-543.266	-200.000	-0.005	-0.209
-542.252	-32.545	-0.480	0.268
-541.237	-200.000	0.008	0.138
-540.223	-30.194	0.197	-0.112
-539.208	57.882	-0.276	-0.270
-538.193	748.661	0.101	-0.273
-537.179	-52.168	0.105	-0.049
-536.164	276.695	0.085	-0.151
-535.150	-69.567	-0.226	0.087
-534.135	518.172	0.079	-0.185
-533.121	-180.612	0.295	-0.006
-532.106	-137.272	-0.110	-0.012
-531.091	76.003	0.302	0.320
-530.077	-93.410	0.244	-0.068
-529.062	-62.241	-0.081	-0.034
-528.048	176.137	-0.122	-0.177
-527.033	49.989	-0.412	-0.388
-526.018	784.410	0.017	0.046
-525.004	-151.223	-0.508	-0.038
-523.989	-106.755	0.273	-0.061
-522.975	310.240	-0.150	0.281
-521.960	-86.484	-0.476	-0.146
-520.945	289.284	-0.174	-0.316
-519.931	-200.000	0.006	-0.352
-518.916	104.286	0.150	0.176
-517.902	264.034	-0.194	-0.337
-516.887	-85.990	0.022	-0.007
-515.872	-94.269	0.080	-0.022
-514.858	-116.162	-0.218	-0.041
-513.843	-200.000	0.007	0.153
-512.829	106.428	0.131	-0.156
-511.814	-80.299	0.232	-0.077
-510.799	233.283	0.096	0.158
-509.785	-137.264	-0.166	0.019
-508.770	22.368	-0.182	-0.149
-507.756	-102.064	0.155	-0.037
-506.741	-200.000	-0.018	-0.241
-505.726	-137.026	0.113	0.013
-504.712	534.898	-0.017	-0.041
-503.697	-200.000	-0.078	0.458
-502.683	-71.180	-0.218	-0.082
-501.668	4.298	0.450	-0.329
-500.653	800.000	0.063	0.255
-499.639	-130.933	-0.252	0.034
-498.624	67.292	-0.114	0.116
-497.610	-200.000	-0.005	-0.201
-496.595	-200.000	-0.010	0.071
-495.581	621.621	-0.110	0.277
-494.566	-200.000	-0.029	0.441
-493.551	277.388	-0.125	0.223
-492.537	15.099	0.074	-0.058
-491.522	-14.960	-0.144	-0.092
-490.508	247.027	-0.095	-0.160
-489.493	-200.000	-0.088	0.414
-488.478	23.758	0.174	0.143
-487.464	-126.054	0.185	0.028
-486.449	800.000	0.022	-0.067
-485.435	37.784	0.152	-0.135
-484.420	437.854	0.068	0.147
-483.405	400.253	-0.057	-0.120
-482.391	-33.857	0.258	-0.142
-481.376	800.000	-0.054	-0.177
-480.362	-27.979	-0.216	0.125
-479.347	800.000	0.063	0.251
-478.332	-58.485	-0.340	0.147
-477.318	800.000	0.109	-0.301
-476.303	-52.421	-0.186	-0.086
-475.289	-20.964	0.123	-0.075
-474.274	-166.932	0.131	0.005
-473.259	800.000	0.028	0.095
-472.245	297.558	0.072	0.132
-471.230	-84.894	-0.225	-0.071
-470.216	-200.000	-0.057	0.318
-469.201	-200.000	-0.020	0.243
-468.186	800.000	0.071	0.208
-467.172	-125.913	0.105	0.016
-466.157	84.670	0.259	-0.282
-465.143	-17.182	-0.132	0.083
-464.128	178.745	0.204	-0.297
-463.113	-200.000	0.107	-0.612
-462.099	36.709	0.206	0.182
-461.084	12.875	-0.139	-0.107
-460.070	45.244	-0.175	-0.161
-459.055	63.534	-0.206	0.207
-458.040	-145.491	0.138	0.012
-457.026	-78.615	-0.227	-0.077
-456.011	-113.180	-0.080	-0.016
-454.997	-200.000	0.035	0.197
-453.982	99.978	0.078	0.090
-452.968	9.692	-0.190	-0.143
-451.953	-200.000	-0.005	-0.075
-450.938	3.391	-0.086	0.063
-449.924	-31.316	-0.049	0.028
-448.909	800.000	-0.033	0.104
-447.895	-145.561	-0.111	-0.010
-446.880	248.650	0.036	0.060
-445.865	800.000	0.039	0.130
-444.851	800.000	0.070	-0.288
-443.836	415.149	-0.135	-0.287
-442.822	-128.909	-0.124	-0.017
-441.807	63.024	0.250	-0.249
-440.792	-86.436	0.318	0.097
-439.778	800.000	0.027	-0.078
-438.763	-43.375	0.192	-0.097
-437.749	485.387	-0.039	-0.089
-436.734	158.964	-0.140	-0.193
-435.719	-200.000	0.007	-0.246
-434.705	-113.218	0.111	0.022
-433.690	46.110	-0.189	0.174
-432.676	150.360	-0.093	-0.125
-431.661	-200.000	0.008	-0.037
-430.646	-59.811	-0.068	0.029
-429.632	-149.104	-0.223	0.018
-428.617	-72.507	-0.299	-0.110
-427.603	-20.962	-0.256	0.156
-426.588	80.502	-0.079	-0.085
-425.573	-200.000	0.023	0.111
-424.559	-93.424	0.233	0.064
-423.544	-99.647	-0.148	-0.037
-422.530	-150.898	0.091	0.007
-421.515	-200.000	0.007	-0.178
-420.500	-9.626	0.196	-0.130
-419.486	800.000	-0.060	0.211
-418.471	16.367	-0.191	0.150
-417.457	-152.307	0.312	-0.022
-416.442	16.503	-0.457	-0.359
-415.428	431.241	0.161	-0.348
-414.413	49.915	0.117	0.109
-413.398	-200.000	-0.023	-0.152
-412.384	157.397	0.217	-0.299
-411.369	-53.409	-0.157	0.072
-410.355	751.714	-0.133	0.357
-409.340	325.516	-0.046	-0.087
-408.325	800.000	0.102	-0.345
-407.311	-74.061	0.361	-0.130
-406.296	30.557	0.375	-0.319
-405.282	-172.427	0.178	-0.006
-404.267	120.942	0.039	-0.049
-403.252	177.679	0.349	-0.506
-402.238	412.101	-0.107	-0.227
-401.223	-200.000	-0.062	-0.412
-400.209	104.976	-0.306	-0.359
-399.194	122.752	0.271	-0.338
-398.179	-127.975	0.146	-0.021
-397.165	800.000	0.087	0.275
-396.150	-67.419	-0.101	-0.039
-395.136	-134.282	0.283	0.035
-394.121	-200.000	0.023	0.299
-393.106	-60.550	-0.204	0.086
-392.092	217.948	-0.125	0.198
-391.077	-7.252	0.097	-0.066
-390.063	345.013	0.013	-0.026
-389.048	-77.876	-0.273	0.094
-388.033	800.000	0.071	-0.197
-387.019	590.710	-0.124	-0.304
-386.004	-200.000	-0.021	0.154
-384.990	-200.000	0.063	-0.305
-383.975	49.970	0.394	-0.369
-382.960	-48.470	0.120	-0.058
-381.946	-131.445	0.214	0.028
-380.931	800.000	0.075	-0.266
-379.917	-58.273	0.057	-0.024
-378.902	591.763	0.101	0.248
-377.888	-200.000	0.007	0.257
-376.873	9.989	0.228	-0.172
-375.858	-186.722	0.224	0.003
-374.844	-104.082	-0.194	-0.045
-373.829	-103.843	-0.266	0.062
-372.815	800.000	-0.046	-0.139
-371.800	-200.000	-0.025	-0.211
-370.785	-102.572	0.198	-0.047
-369.771	-39.053	0.123	-0.064
-368.756	-200.000	0.053	-0.265
-367.742	-65.218	0.111	0.044
-366.727	59.034	-0.224	-0.219
-365.712	-44.674	-0.111	0.055
-364.698	-112.517	-0.117	0.023
-363.683	800.000	0.037	-0.146
-362.669	-200.000	0.055	-0.337
-361.654	168.217	0.194	0.274
-360.639	58.518	0.084	0.082
-359.625	-73.651	0.117	-0.042
-358.610	-106.924	-0.021	-0.005
-357.596	-84.891	-0.144	-0.045
-356.581	-200.000	-0.007	0.291
-355.566	18.086	0.018	-0.014
-354.552	-200.000	-0.011	0.214
-353.537	-71.049	0.055	0.020
-352.523	-200.000	-0.024	0.152
-351.508	-200.000	-0.005	0.049
-350.493	-200.000	0.033	0.364
-349.479	5.200	0.103	-0.075
-348.464	-118.769	-0.440	0.077
-347.450	-31.992	-0.088	0.049
-346.435	286.604	0.114	-0.204
-345.420	157.518	-0.204	0.281
-344.406	-158.732	-0.323	-0.018
-343.391	-200.000	0.042	-0.207
-342.377	-200.000	-0.010	0.055
-341.362	-95.823	-0.212	0.056
-340.348	-193.479	-0.222	-0.002
-339.333	19.344	-0.057	0.045
-338.318	800.000	-0.075	-0.219
-337.304	-4.741	0.190	0.130
-336.289	28.172	-0.195	0.163
-335.275	-25.218	-0.066	-0.039
-334.260	43.495	0.082	0.074
-333.245	57.136	0.134	0.130
-332.231	800.000	0.044	0.142
-331.216	800.000	0.039	0.125
-330.202	642.749	-0.183	0.463
-329.187	800.000	-0.015	-0.046
-328.172	800.000	0.030	0.122
-327.158	800.000	-0.075	0.210
-326.143	-25.924	-0.047	-0.027
-325.129	-46.235	0.340	0.166
-324.114	401.460	-0.028	0.059
-323.099	15.323	0.182	0.142
-322.085	-21.196	-0.114	0.069
-321.070	-20.858	-0.270	0.164
-320.056	154.203	-0.124	-0.168
-319.041	9.184	0.056	0.042
-318.026	15.654	0.060	0.047
-317.012	800.000	0.026	-0.083
-315.997	800.000	0.081	0.352
-314.983	800.000	0.087	-0.349
-313.968	-200.000	-0.016	0.200
-312.953	-200.000	-0.016	0.335
-311.939	-200.000	0.015	-0.193
-310.924	-122.182	-0.026	-0.004
-309.910	-200.000	0.030	0.298
-308.895	-86.159	0.112	-0.034
-307.880	-67.968	0.237	0.092
-306.866	-200.000	-0.032	0.417
-305.851	107.525	0.084	0.099
-304.837	800.000	0.027	0.107
-303.822	-200.000	0.019	-0.324
-302.807	-123.101	-0.061	-0.010
-301.793	58.635	0.025	-0.024
-300.778	594.395	0.024	-0.058
-299.764	74.950	0.110	-0.115
-298.749	483.205	-0.072	-0.161
-297.735	89.319	-0.213	-0.236
-296.720	-22.165	-0.182	-0.109
-295.705	-30.930	0.175	-0.098
-294.691	-200.000	-0.033	-0.329
-293.676	393.227	0.011	0.023
-292.662	-200.000	-0.015	-0.301
-291.647	-85.685	-0.201	-0.062
-290.632	564.606	0.148	0.356
-289.618	15.135	0.094	0.073
-288.603	52.024	-0.250	0.236
-287.589	359.448	0.034	0.068
-286.574	-121.690	-0.274	0.045
-285.559	-83.508	-0.262	0.083
-284.545	-173.426	0.353	0.011
-283.530	800.000	0.072	-0.218
-282.516	132.494	0.161	-0.206
-281.501	251.098	-0.171	0.288
-280.486	-63.096	-0.260	-0.106
-279.472	75.560	-0.127	-0.133
-278.457	2.262	0.269	0.193
-277.443	345.260	-0.073	0.143
-276.428	-200.000	0.036	0.401
-275.413	-165.173	-0.326	0.014
-274.399	574.729	0.071	-0.170
-273.384	102.134	0.152	0.176
-272.370	385.198	0.201	0.410
-271.355	38.301	-0.062	0.055
-270.340	16.591	0.189	0.148
-269.326	-144.522	-0.085	0.008
-268.311	-46.058	-0.299	-0.146
-267.297	62.476	0.226	0.224
-266.282	-149.908	-0.480	0.037
-265.267	-22.712	0.186	0.111
-264.253	-137.131	-0.229	-0.026
-263.238	41.117	0.076	-0.068
-262.224	-200.000	-0.015	0.206
-261.209	-95.990	0.056	0.015
-260.195	-130.524	-0.248	0.033
-259.180	-199.221	-0.418	-0.002
-258.165	240.788	-0.098	0.162
-257.151	-26.466	0.026	-0.015
-256.136	267.958	0.069	0.119
-255.122	-66.081	-0.198	0.078
-254.107	-137.536	0.058	-0.007
-253.092	-79.373	0.205	-0.069
-252.078	-28.585	-0.060	-0.034
-251.063	-200.000	-0.011	-0.178
-250.049	-108.357	0.587	-0.125
-249.034	61.607	-0.084	-0.083
-248.019	-200.000	0.284	0.001
-247.005	-152.414	-0.269	-0.019
-245.990	376.726	-0.061	-0.124
-244.976	-200.000	0.032	-0.149
-243.961	760.416	-0.104	0.278
-242.946	458.497	0.041	0.090
-241.932	-200.000	0.007	0.039
-240.917	10.214	0.275	0.207
-239.903	87.509	-0.132	-0.144
-238.888	130.496	-0.118	0.149
-237.873	28.718	-0.131	0.110
-236.859	149.819	-0.142	0.190
-235.844	-111.154	-0.080	0.016
-234.830	-136.912	-0.070	0.008
-233.815	135.790	0.192	0.247
-232.800	-28.686	0.148	-0.084
-231.786	364.242	-0.035	0.069
-230.771	-138.079	-0.223	0.025
-229.757	447.771	-0.152	-0.331
-228.742	800.000	0.097	-0.270
-227.727	-200.000	-0.001	0.041
-226.713	-200.000	0.003	0.420
-225.698	469.064	0.075	0.167
-224.684	800.000	0.073	0.266
-223.669	-200.000	-0.031	0.234
-222.655	346.052	0.162	0.314
-221.640	800.000	0.104	0.292
-220.625	-126.500	0.074	0.011
-219.611	28.255	0.137	-0.115
-218.596	-111.208	-0.132	-0.027
-217.582	140.721	-0.041	0.053
-216.567	733.384	0.090	-0.239
-215.552	-112.382	-0.194	-0.038
-214.538	2.521	0.274	-0.196
-213.523	46.768	-0.272	-0.250
-212.509	-108.582	-0.135	-0.029
-211.494	-72.904	0.104	0.038
-210.479	800.000	0.056	-0.198
-209.465	230.231	0.216	-0.349
-208.450	59.991	0.214	0.209
-207.436	-200.000	-0.102	0.501
-206.421	-200.000	0.002	0.189
-205.406	3.964	-0.263	0.190
-204.392	-79.872	0.285	0.095
-203.377	-200.000	-0.017	0.270
-202.363	-89.266	-0.058	0.017
-201.348	800.000	-0.022	-0.067
-200.333	217.127	0.134	-0.210
-199.319	103.867	-0.091	0.106
-198.304	-28.879	0.295	0.167
-197.290	-77.662	0.360	-0.123
-196.275	-200.000	0.023	0.208
-195.260	-110.214	0.203	-0.042
-194.246	-200.000	-0.084	-0.407
-193.231	-143.890	-0.195	-0.018
-192.217	701.206	0.083	0.215
-191.202	24.567	0.043	-0.035
-190.187	-88.479	0.218	-0.064
-189.173	-200.000	0.110	0.512
-188.158	-28.085	0.226	0.129
-187.144	229.985	-0.112	-0.180
-186.129	-81.536	0.216	-0.070
-185.114	-72.215	0.298	-0.109
-184.100	453.175	0.127	0.277
-183.085	-200.000	-0.019	-0.102
-182.071	-128.183	-0.051	0.007
-181.056	-200.000	0.094	0.469
-180.042	37.305	-0.207	-0.181
-179.027	-114.387	-0.147	-0.028
-178.012	216.255	-0.089	0.139
-176.998	39.605	-0.117	-0.103
-175.983	-141.269	-0.043	0.004
-174.969	800.000	-0.080	-0.226
-173.954	79.561	0.419	-0.444
-172.939	-72.701	0.379	-0.138
-171.925	722.734	-0.107	0.280
-170.910	208.007	0.079	0.121
-169.896	-86.180	0.162	0.049
-168.881	-200.000	-0.025	0.142
-167.866	-111.252	-0.118	0.024
-166.852	-200.000	-0.000	-0.426
-165.837	-60.800	-0.088	0.037
-164.823	77.573	-0.120	-0.126
-163.808	-82.947	0.270	-0.086
-162.793	391.249	-0.112	0.229
-161.779	-33.257	0.083	-0.045
-160.764	-200.000	0.042	0.289
-159.750	105.625	-0.017	-0.020
-158.735	378.634	-0.090	0.181
-157.720	-184.590	-0.278	-0.004
-156.706	22.578	-0.127	-0.103
-155.691	192.579	0.197	-0.294
-154.677	469.842	0.146	0.322
-153.662	120.182	-0.132	0.162
-152.647	-3.585	-0.048	-0.033
-151.633	-119.112	-0.054	-0.009
-150.618	-200.000	0.056	0.351
-149.604	676.028	-0.018	-0.045
-148.589	-200.000	-0.027	0.117
-147.574	-96.384	-0.133	0.035
-146.560	14.890	0.120	-0.092
-145.545	-95.128	-0.268	0.071
-144.531	169.614	0.062	0.087
-143.516	-128.171	0.208	0.029
-142.502	123.931	0.062	-0.077
-141.487	10.117	-0.239	-0.179
-140.472	263.768	0.166	0.284
-139.458	350.178	-0.201	0.391
-138.443	220.358	-0.049	-0.077
-137.429	227.634	-0.114	-0.183
-136.414	-145.690	0.224	-0.020
-135.399	-123.078	0.258	-0.041
-134.385	444.930	-0.084	0.181
-133.370	15.043	-0.136	-0.105
-132.356	-200.000	-0.020	-0.147
-131.341	-200.000	0.066	0.333
-130.326	-94.507	0.331	0.089
-129.312	800.000	0.009	-0.035
-128.297	78.438	0.135	-0.141
-127.283	29.966	0.126	0.105
-126.268	800.000	-0.100	0.294
-125.253	-200.000	0.016	-0.119
-124.239	95.896	0.219	-0.246
-123.224	15.631	-0.114	0.089
-122.210	128.362	-0.154	-0.193
-121.195	13.503	0.202	-0.154
-120.180	37.785	-0.191	-0.167
-119.166	684.058	-0.078	-0.200
-118.151	117.216	0.129	0.156
-117.137	-116.769	-0.163	0.029
-116.122	-99.988	0.270	-0.066
-115.107	-165.053	0.279	0.012
-114.093	-24.639	0.303	0.177
-113.078	-154.795	-0.206	0.013
-112.064	-200.000	-0.007	-0.145
-111.049	83.339	-0.159	0.170
-110.034	800.000	0.138	0.381
-109.020	-200.000	0.448	-0.001
-108.005	120.632	-0.074	0.091
-106.991	-192.141	0.239	0.002
-105.976	330.919	-0.220	0.416
-104.962	-46.712	0.109	0.052
-103.947	-200.000	-0.015	0.123
-102.932	294.198	-0.112	-0.201
-101.918	-50.792	0.369	0.171
-100.903	-164.893	0.139	0.006
-99.889	-70.037	-0.053	-0.020
-98.874	-200.000	0.047	0.208
-97.859	36.353	-0.186	-0.162
-96.845	-92.050	0.365	-0.102
-95.830	196.205	0.133	0.199
-94.816	102.293	-0.043	-0.049
-93.801	149.878	0.198	-0.264
-92.786	347.241	0.166	-0.321
-91.772	-80.755	0.398	0.130
-90.757	-104.542	0.213	-0.048
-89.743	21.499	-0.213	0.170
-88.728	-200.000	0.167	-0.001
-87.713	75.961	-0.185	0.192
-86.699	-44.394	0.259	-0.128
-85.684	-70.676	0.182	-0.068
-84.670	-69.403	0.189	-0.071
-83.655	-113.677	0.204	-0.039
-82.640	-103.557	0.055	0.013
-81.626	-7.517	0.467	0.310
-80.611	-87.766	-0.100	-0.030
-79.597	43.900	-0.094	-0.084
-78.582	74.206	0.162	-0.167
-77.567	-10.445	-0.321	-0.209
-76.553	64.678	-0.107	0.106
-75.538	-87.020	0.220	-0.066
-74.524	-124.007	0.064	0.010
-73.509	81.177	-0.254	0.269
-72.494	301.937	-0.066	-0.120
-71.480	234.010	-0.065	-0.105
-70.465	-34.836	-0.128	-0.069
-69.451	800.000	0.085	0.334
-68.436	-166.142	0.320	-0.013
-67.422	-200.000	0.023	0.132
-66.407	27.486	-0.102	0.084
-65.392	-129.087	0.240	0.033
-64.378	800.000	0.108	0.304
-63.363	-200.000	0.022	-0.340
-62.349	800.000	0.109	0.322
-61.334	7.826	-1.050	-0.772
-60.319	283.336	0.304	0.536
-59.305	-200.000	-0.215	-1.101
-58.290	309.850	0.586	1.076
-57.276	233.767	0.842	1.361
-56.261	-200.000	106.985	589.127
-55.246	519.209	1474.333	3390.024
-54.232	182.254	2656.503	3842.921
-53.217	112.094	2144.250	2543.478
-52.203	41.197	1595.130	1415.029
-51.188	33.277	1334.850	1136.750
-50.173	30.120	1294.093	1083.576
-49.159	53.526	1347.834	1268.902
-48.144	54.265	1363.508	1288.014
-47.130	33.261	1318.246	1122.340
-46.115	29.997	1300.189	1087.784
-45.100	29.752	1295.587	1082.460
-44.086	29.738	1293.417	1080.521
-43.071	29.664	1291.160	1078.163
-42.057	29.707	1288.751	1076.356
-41.042	29.710	1287.170	1075.012
-40.027	29.732	1285.356	1073.585
-39.013	29.707	1283.543	1071.878
-37.998	29.789	1281.464	1070.574
-36.984	29.802	1280.283	1069.622
-35.969	29.770	1278.785	1068.146
-34.954	29.867	1276.809	1067.012
-33.940	29.847	1275.557	1065.804
-32.925	29.813	1274.353	1064.562
-31.911	29.920	1272.907	1063.929
-30.896	29.950	1271.446	1062.834
-29.881	29.966	1269.610	1061.353
-28.867	29.946	1268.380	1060.168
-27.852	29.842	1267.427	1058.731
-26.838	29.970	1265.135	1057.509
-25.823	29.948	1264.340	1056.676
-24.809	29.833	1263.440	1055.223
-23.794	29.872	1262.040	1054.237
-22.779	29.847	1260.816	1053.030
-21.765	29.968	1259.619	1052.677
-20.750	29.931	1257.853	1050.949
-19.736	29.774	1256.977	1049.286
-18.721	29.650	1256.189	1047.879
-17.706	29.724	1255.047	1047.306
-16.692	29.820	1253.124	1046.203
-15.677	29.743	1252.409	1045.126
-14.663	29.791	1251.061	1044.232
-13.648	29.662	1249.999	1042.577
-12.633	29.701	1249.220	1042.106
-11.619	29.795	1248.349	1041.868
-10.604	29.821	1247.553	1041.307
-9.590	29.808	1246.568	1040.372
-8.575	29.751	1245.592	1039.194
-7.560	29.733	1244.458	1038.109
-6.546	29.731	1243.891	1037.585
-5.531	29.753	1243.059	1036.971
-4.517	29.702	1242.244	1035.964
-3.502	29.809	1241.439	1035.852
-2.487	29.728	1240.359	1034.455
-1.473	29.766	1236.277	1031.222
-0.458	28.171	1221.062	1009.696
0.556	26.145	1203.477	970.847
1.571	22.264	1207.581	953.084
2.586	21.207	1221.531	958.212
3.600	20.648	1210.642	946.541
4.615	15.972	1139.807	867.070
5.629	7.711	1066.983	771.646
6.644	4.014	1048.164	740.313
7.659	3.857	1045.243	737.437
8.673	3.501	1044.169	734.920
9.688	3.540	1042.844	734.106
10.702	4.009	1040.987	734.964
11.717	9.160	1048.396	764.706
12.731	17.707	1060.239	814.265
13.746	22.674	1066.040	842.437
14.761	23.464	1067.055	846.941
15.775	22.974	1065.278	843.118
16.790	22.293	1063.489	838.384
17.804	21.746	1062.940	835.270
18.819	21.654	1061.969	833.994
19.834	21.744	1061.599	834.056
20.848	21.630	1060.879	832.878
21.863	21.582	1060.410	832.204
22.877	21.364	1060.032	830.799
23.892	21.437	1058.676	830.012
24.907	21.329	1058.082	828.961
25.921	21.197	1057.063	827.459
26.936	21.152	1055.424	825.890
27.950	21.188	1054.254	825.075
28.965	21.304	1052.527	824.197
29.980	21.470	1051.510	824.111
30.994	21.526	1050.505	823.512
32.009	21.498	1049.930	822.857
33.023	21.562	1048.649	822.081
34.038	21.463	1047.450	820.603
35.053	21.320	1046.478	819.101
36.067	21.206	1045.714	817.894
37.082	21.256	1045.311	817.743
38.096	21.486	1044.780	818.330
39.111	21.596	1043.923	818.100
40.126	21.299	1042.035	815.164
41.140	20.939	1040.342	812.087
42.155	20.680	1039.056	809.810
43.169	20.620	1038.445	808.984
44.184	20.698	1037.412	808.466
45.199	20.661	1036.982	807.889
46.213	20.887	1036.340	808.368
47.228	21.323	1035.803	809.898
48.242	21.435	1034.902	809.640
49.257	21.368	1033.761	808.366
50.271	21.514	1033.396	808.685
51.286	21.496	1033.049	808.255
52.301	21.569	1031.258	807.118
53.315	21.382	1030.343	805.470
54.330	21.190	1029.540	803.887
55.344	21.037	1028.452	802.264
56.359	21.011	1027.853	801.605
57.374	21.006	1026.593	800.530
58.388	20.828	1026.323	799.434
59.403	20.558	1025.542	797.515
60.417	20.696	1024.337	797.141
61.432	20.737	1023.712	796.771
62.447	20.547	1022.562	794.936
63.461	20.499	1022.008	794.216
64.476	20.435	1021.081	793.132
65.490	20.504	1019.921	792.476
66.505	20.679	1019.459	792.844
67.520	20.641	1018.743	792.045
68.534	20.551	1017.726	790.772
69.549	20.544	1017.068	790.160
70.563	20.434	1016.060	788.806
71.578	20.006	1015.297	786.202
72.593	19.942	1014.152	784.959
73.607	20.002	1013.644	784.764
74.622	20.213	1013.076	785.214
75.636	20.160	1012.736	784.640
76.651	20.218	1011.839	784.136
77.666	20.340	1011.759	784.558
78.680	20.277	1010.534	783.256
79.695	20.166	1010.633	782.762
80.709	20.550	1010.010	783.941
81.724	20.732	1009.159	784.032
82.739	20.846	1008.716	784.128
83.753	21.273	1008.430	785.761
84.768	21.749	1007.771	787.316
85.782	22.125	1007.132	788.433
86.797	22.003	1006.439	787.273
87.812	21.602	1005.147	784.398
88.826	21.628	1004.305	783.790
89.841	21.828	1003.140	783.706
90.855	21.795	1002.887	783.287
91.870	21.824	1001.985	782.647
92.884	21.853	1001.002	781.937
93.899	21.695	1000.225	780.555
94.914	21.771	999.539	780.292
95.928	21.696	998.355	778.964
96.943	21.585	997.513	777.746
97.957	21.324	996.681	775.872
98.972	21.520	995.967	776.114
99.987	21.677	994.992	775.981
101.001	21.563	993.970	774.610
102.016	21.414	993.472	773.494
103.030	21.540	992.169	772.971
104.045	21.779	991.628	773.535
105.060	21.513	990.627	771.512
106.074	21.250	989.006	769.023
107.089	20.902	988.168	766.774
108.103	20.704	987.102	765.006
109.118	20.490	986.251	763.340
110.133	20.469	984.910	762.144
111.147	20.434	983.905	761.143
112.162	20.527	983.200	760.937
113.176	20.723	982.940	761.528
114.191	20.842	982.353	761.528
115.206	20.715	981.673	760.378
116.220	20.663	980.645	759.285
117.235	20.734	979.477	758.626
118.249	20.517	978.821	757.105
119.264	20.327	978.611	756.047
120.279	20.323	977.014	754.728
121.293	20.330	976.530	754.317
122.308	20.005	975.627	752.141
123.322	20.015	974.281	751.082
124.337	20.069	972.946	750.222
125.352	20.111	972.163	749.733
126.366	20.158	971.463	749.328
127.381	20.219	970.682	748.924
128.395	20.310	970.177	748.861
129.410	20.311	969.052	747.928
130.424	20.494	968.448	748.184
131.439	20.674	967.715	748.326
132.454	20.759	967.270	748.282
133.468	20.608	966.709	747.136
134.483	20.796	965.499	746.940
135.497	20.656	964.848	745.768
136.512	20.775	963.899	745.479
137.527	20.893	963.300	745.455
138.541	20.766	962.846	744.496
139.556	20.944	962.067	744.585
140.570	21.268	961.550	745.505
141.585	21.481	960.799	745.762
142.600	21.550	959.898	745.294
143.614	21.593	959.532	745.125
144.629	21.770	958.623	745.107
145.643	21.637	957.422	743.543
146.658	21.320	956.205	741.187
147.673	21.080	955.178	739.307
148.687	20.909	953.904	737.532
149.702	20.842	953.091	736.557
150.716	20.864	952.137	735.848
151.731	21.088	951.517	736.248
152.746	20.992	951.128	735.476
153.760	21.067	950.226	735.031
154.775	21.104	950.217	735.112
155.789	21.221	949.136	734.706
156.804	21.200	948.545	734.095
157.819	21.287	948.042	734.003
158.833	21.514	947.630	734.574
159.848	21.804	946.385	734.759
160.862	21.499	945.344	732.609
161.877	21.017	943.661	729.228
162.892	20.781	942.972	727.642
163.906	20.777	941.466	726.398
164.921	20.647	941.044	725.465
165.935	20.759	940.403	725.376
166.950	21.066	939.475	725.871
167.964	20.981	938.502	724.704
168.979	20.983	937.279	723.705
169.994	20.900	936.349	722.577
171.008	21.247	935.681	723.438
172.023	21.440	936.263	724.621
173.037	21.501	935.348	724.101
174.052	21.336	934.179	722.451
175.067	20.879	933.205	719.745
176.081	20.696	932.145	718.110
177.096	20.521	931.987	717.201
178.110	20.666	931.200	717.133
179.125	20.666	930.739	716.714
180.140	20.968	930.231	717.502
181.154	21.184	929.972	718.127
182.169	21.398	929.960	718.935
183.183	21.237	929.579	717.916
184.198	21.329	928.672	717.529
185.213	21.340	927.609	716.687
186.227	21.375	927.123	716.391
187.242	21.447	926.731	716.321
188.256	21.656	926.488	716.926
189.271	21.661	925.965	716.477
190.286	21.322	924.144	713.620
191.300	20.801	923.091	710.619
192.315	20.486	922.205	708.589
193.329	20.662	922.049	709.124
194.344	20.741	921.438	708.915
195.359	20.972	920.990	709.445
196.373	21.146	920.788	709.936
197.388	21.298	920.490	710.262
198.402	21.749	920.008	711.660
199.417	21.814	919.731	711.646
200.432	22.120	918.944	712.212
201.446	22.071	918.490	711.601
202.461	22.131	918.338	711.664
203.475	21.821	917.512	709.706
204.490	21.406	916.444	707.138
205.504	21.307	915.842	706.209
206.519	21.364	914.545	705.380
207.534	21.298	914.182	704.769
208.548	21.355	913.116	704.116
209.563	21.360	912.953	703.946
210.577	21.480	911.776	703.461
211.592	21.735	911.777	704.423
212.607	21.873	911.071	704.370
213.621	21.826	910.377	703.584
214.636	21.642	909.920	702.429
215.650	21.763	908.984	702.128
216.665	21.809	908.342	701.756
217.680	21.793	907.921	701.303
218.694	21.852	907.648	701.267
219.709	21.826	906.543	700.247
220.723	21.734	905.830	699.267
221.738	21.581	905.127	698.056
222.753	21.730	904.252	697.911
223.767	21.842	904.052	698.140
224.782	22.034	903.617	698.507
225.796	22.084	902.987	698.156
226.811	21.749	902.246	696.190
227.826	21.584	901.511	694.907
228.840	21.494	900.665	693.838
229.855	21.703	899.548	693.744
230.869	21.558	898.872	692.586
231.884	21.309	898.395	691.173
232.899	21.133	897.898	690.034
233.913	21.174	896.621	689.151
234.928	21.100	895.961	688.294
235.942	20.977	895.885	687.688
236.957	21.029	895.103	687.231
237.972	21.043	894.685	686.907
238.986	21.191	893.792	686.740
240.001	21.060	893.328	685.808
241.015	21.249	892.629	685.956
242.030	21.382	892.383	686.226
243.045	21.547	891.714	686.299
244.059	21.382	891.413	685.359
245.074	21.674	890.552	685.781
246.088	21.788	890.425	686.066
247.103	21.909	890.051	686.191
248.117	22.188	889.899	687.104
249.132	22.518	890.167	688.541
250.147	22.900	889.470	689.430
251.161	22.972	888.971	689.263
252.176	22.966	888.136	688.532
253.190	22.988	887.551	688.106
254.205	23.042	887.413	688.149
255.220	22.877	886.432	686.682
256.234	22.805	885.463	685.593
257.249	22.788	884.876	685.011
258.263	22.676	884.071	683.893
259.278	22.649	883.818	683.533
260.293	22.721	883.374	683.409
261.307	22.905	882.823	683.633
262.322	22.816	882.428	682.924
263.336	22.858	881.100	681.995
264.351	22.902	880.151	681.369
265.366	22.948	880.028	681.393
266.380	22.738	879.738	680.300
267.395	22.832	878.529	679.667
268.409	22.703	877.362	678.207
269.424	22.753	877.162	678.186
270.439	22.564	876.191	676.649
271.453	22.320	875.619	675.211
272.468	22.373	875.326	675.129
273.482	22.462	874.856	675.048
274.497	22.432	873.673	673.957
275.512	22.319	873.302	673.181
276.526	22.467	873.201	673.610
277.541	22.545	872.646	673.420
278.555	22.763	872.520	674.096
279.570	22.969	871.917	674.356
280.585	23.015	871.044	673.798
281.599	22.713	869.988	671.771
282.614	22.412	869.118	669.896
283.628	22.489	868.286	669.485
284.643	22.572	867.817	669.383
285.657	22.335	867.463	668.149
286.672	22.419	867.092	668.121
287.687	22.600	866.200	668.064
288.701	22.486	865.698	667.186
289.716	22.541	865.204	666.952
290.730	22.824	864.509	667.430
291.745	22.692	863.904	666.403
292.760	22.875	863.760	666.924
293.774	23.001	863.511	667.150
294.789	23.003	862.784	666.537
295.803	22.673	861.488	664.232
296.818	22.393	860.971	662.721
297.833	22.622	859.662	662.515
298.847	22.785	859.446	662.901
299.862	22.700	858.959	662.151
300.876	22.898	858.670	662.612
301.891	23.146	858.454	663.316
302.906	23.218	858.317	663.422
303.920	23.366	857.852	663.557
304.935	23.546	857.113	663.602
305.949	23.326	856.327	662.112
306.964	23.057	855.952	660.759
307.979	22.957	855.217	659.758
308.993	23.281	854.157	660.089
310.008	23.263	853.820	659.703
311.022	23.209	853.148	658.928
312.037	22.822	853.036	657.338
313.052	22.467	852.053	655.204
314.066	22.286	851.500	654.049
315.081	22.330	850.632	653.488
316.095	22.481	849.683	653.260
317.110	22.433	849.510	652.891
318.125	22.491	848.533	652.296
319.139	22.203	848.292	650.988
320.154	22.208	848.115	650.814
321.168	22.536	847.338	651.370
322.183	22.696	846.657	651.382
323.197	22.670	846.531	651.133
324.212	22.577	845.944	650.278
325.227	22.474	845.227	649.290
326.241	22.452	844.377	648.500
327.256	22.525	843.676	648.172
328.270	22.455	843.539	647.753
329.285	22.368	842.682	646.717
330.300	22.263	842.040	645.780
331.314	22.442	841.846	646.233
332.329	22.796	841.640	647.315
333.343	22.943	840.990	647.297
334.358	22.913	840.652	646.869
335.373	23.007	840.421	646.978
336.387	23.029	840.690	647.210
337.402	23.164	840.182	647.254
338.416	23.290	840.273	647.727
339.431	23.677	839.956	648.840
340.446	23.778	839.793	649.028
341.460	23.645	839.470	648.235
342.475	23.629	839.214	647.920
343.489	23.747	838.796	647.972
344.504	23.996	838.405	648.520
345.519	24.029	837.889	648.184
346.533	23.755	836.679	646.194
347.548	23.383	836.149	644.372
348.562	23.268	835.070	643.067
349.577	22.989	834.441	641.512
350.592	22.912	833.560	640.499
351.606	23.006	832.978	640.339
352.621	22.917	832.381	639.498
353.635	22.994	831.709	639.204
354.650	23.035	831.480	639.123
355.665	23.054	830.842	638.641
356.679	23.207	830.034	638.516
357.694	23.258	829.474	638.213
358.708	23.174	829.031	637.515
359.723	23.176	828.384	636.966
360.738	23.127	827.475	636.035
361.752	23.343	827.225	636.562
362.767	23.674	826.579	637.199
363.781	24.048	826.507	638.428
364.796	24.053	825.975	637.978
365.810	24.228	825.803	638.417
366.825	24.147	825.830	638.091
367.840	23.955	825.040	636.736
368.854	23.824	823.953	635.371
369.869	23.636	823.589	634.363
370.883	23.635	823.545	634.271
371.898	23.783	823.439	634.663
372.913	24.020	822.906	635.041
373.927	23.822	821.936	633.528
374.942	23.697	821.647	632.806
375.956	23.988	821.513	633.684
376.971	24.095	821.302	633.844
377.986	24.195	820.755	633.722
379.000	24.360	820.140	633.777
380.015	24.148	819.706	632.634
381.029	24.124	818.839	631.824
382.044	24.096	818.614	631.494
383.059	24.290	818.020	631.666
384.073	23.966	816.876	629.580
385.088	23.736	815.912	627.970
386.102	23.569	815.518	627.020
387.117	23.467	814.971	626.183
388.132	23.284	814.244	624.925
389.146	23.565	813.971	625.650
390.161	23.801	814.005	626.455
391.175	24.093	813.200	626.807
392.190	23.829	812.749	625.476
393.205	23.660	812.029	624.271
394.219	23.268	811.738	622.613
395.234	23.319	810.737	621.971
396.248	23.291	810.407	621.564
397.263	23.203	809.763	620.706
398.278	23.144	809.326	620.112
399.292	23.174	808.722	619.698
400.307	23.117	808.261	619.092
401.321	23.179	808.078	619.111
402.336	23.400	807.809	619.625
403.350	23.613	807.635	620.179
404.365	23.888	807.640	621.091
405.380	24.167	807.467	621.876
406.394	24.379	806.601	621.894
407.409	24.457	806.355	621.921
408.423	24.521	806.057	621.858
409.438	24.607	805.851	621.943
410.453	24.697	804.975	621.525
411.467	24.454	804.825	620.510
412.482	24.595	804.533	620.719
413.496	24.611	804.036	620.338
414.511	24.542	803.607	619.711
415.526	24.467	803.168	619.057
416.540	24.449	802.284	618.261
417.555	24.445	802.143	618.081
418.569	24.476	801.657	617.760
419.584	24.354	801.319	617.024
420.599	24.302	800.710	616.321
421.613	163.632	1371.206	1796.829
422.628	142.169	1454.325	1796.922
