DTS Sentinel unit serial number:	SN413079Multiplexer serial number:	ORYXHardware model number:	OX4-SRSoftware version number:	ORYX F/W v4.00 Oryx Data Collector v3.7.2.0data status	okinstallation	princeton_trtdifferential loss correction	single-endedforward channel	channel 1reverse channel	N/Adate	2019/09/16time	10:38:35forward acquisition time	60.00reverse acquisition time	0.00gamma	496.2192k internal	0.2304k external	0.2304temperature offset calibration	0.9963default loss term (dB/km)	0.3790temperature slope calibration	1.0000multiplexer offset coefficient	1.0000multiplexer slope coefficient	1.0000fibre end	0.00T internal ref (°C)	35.73T ext. ref 1 (°C)	12.62T ext. ref 2 (°C)	33.71length (m)	temperature (°C)	Stokes	anti-Stokes-747.200	393.648	0.140	0.297
-746.185	-200.000	0.021	0.227
-745.171	-30.010	0.317	0.184
-744.156	268.548	0.070	0.126
-743.142	132.197	0.222	-0.291
-742.127	38.364	-0.204	0.185
-741.112	800.000	0.081	0.260
-740.098	527.889	-0.121	0.290
-739.083	796.704	0.062	0.174
-738.069	-200.000	0.070	0.376
-737.054	53.515	0.219	0.214
-736.039	-3.301	-0.144	-0.102
-735.025	55.030	0.079	-0.078
-734.010	86.625	-0.186	-0.209
-732.996	-132.612	-0.137	-0.018
-731.981	430.654	-0.231	0.510
-730.966	603.836	-0.140	0.355
-729.952	-53.797	0.196	0.091
-728.937	800.000	0.094	-0.379
-727.923	64.976	-0.213	-0.219
-726.908	-200.000	0.068	0.410
-725.894	43.546	-0.265	-0.247
-724.879	-200.000	0.067	0.311
-723.864	-160.382	0.271	0.015
-722.850	-149.859	0.326	0.026
-721.835	-117.401	-0.143	-0.026
-720.821	-77.721	-0.283	-0.100
-719.806	47.410	-0.223	-0.212
-718.791	25.352	-0.108	0.091
-717.777	34.401	0.015	-0.014
-716.762	-200.000	-0.019	0.152
-715.748	123.923	0.174	-0.222
-714.733	-9.974	0.199	-0.135
-713.718	-163.703	-0.049	0.002
-712.704	-61.917	0.349	-0.149
-711.689	-8.885	-0.189	0.129
-710.675	-29.661	0.120	-0.069
-709.660	-46.833	0.380	0.189
-708.645	-27.022	-0.240	0.142
-707.631	117.747	-0.131	0.163
-706.616	-81.511	-0.179	0.060
-705.602	-161.848	0.210	0.011
-704.587	-158.603	-0.063	-0.004
-703.572	35.979	-0.036	0.032
-702.558	-22.879	0.085	0.052
-701.543	-27.505	-0.147	-0.087
-700.529	7.022	-0.096	-0.073
-699.514	224.093	0.319	0.524
-698.499	-72.883	0.295	-0.110
-697.485	-88.633	0.203	-0.061
-696.470	-200.000	0.058	0.271
-695.456	-200.000	-0.026	-0.121
-694.441	-136.859	-0.125	0.015
-693.426	756.246	0.043	-0.118
-692.412	800.000	0.035	-0.102
-691.397	-127.945	0.413	-0.060
-690.383	36.443	0.335	-0.301
-689.368	386.579	0.096	-0.201
-688.354	62.192	-0.317	-0.321
-687.339	-20.792	0.182	-0.114
-686.324	250.634	-0.041	0.072
-685.310	489.853	0.074	-0.172
-684.295	11.334	-0.143	0.111
-683.281	-200.000	0.030	-0.221
-682.266	35.790	-0.151	-0.135
-681.251	-53.783	0.424	0.196
-680.237	-200.000	-0.011	0.078
-679.222	78.456	0.088	-0.095
-678.208	4.324	-0.206	-0.154
-677.193	-62.641	0.084	-0.035
-676.178	-114.811	-0.189	0.037
-675.164	-127.895	0.221	0.032
-674.149	14.254	-0.117	-0.093
-673.135	-200.000	-0.018	-0.288
-672.120	696.948	0.103	0.276
-671.105	800.000	-0.064	0.217
-670.091	-161.789	-0.098	0.005
-669.076	49.446	0.160	0.153
-668.062	-49.752	0.219	0.106
-667.047	-1.824	-0.106	-0.075
-666.032	67.786	-0.073	-0.076
-665.018	800.000	-0.142	0.411
-664.003	87.546	-0.283	-0.319
-662.989	800.000	-0.060	0.174
-661.974	324.410	0.071	0.137
-660.959	-49.462	0.207	0.100
-659.945	686.168	0.033	0.088
-658.930	220.942	0.162	0.264
-657.916	453.009	-0.060	-0.135
-656.901	-0.581	-0.166	-0.119
-655.886	800.000	-0.063	-0.194
-654.872	-113.570	-0.272	-0.054
-653.857	-200.000	0.031	0.296
-652.843	72.978	-0.313	-0.332
-651.828	800.000	0.069	-0.237
-650.814	-200.000	-0.016	-0.242
-649.799	-96.116	0.231	0.062
-648.784	800.000	-0.092	0.274
-647.770	18.546	-0.206	0.167
-646.755	-200.000	0.013	-0.100
-645.741	94.740	-0.023	0.027
-644.726	-81.535	-0.250	-0.083
-643.711	3.177	-0.031	0.023
-642.697	-112.804	-0.299	0.060
-641.682	-200.000	0.021	0.301
-640.668	-49.194	0.288	0.140
-639.653	6.051	-0.313	-0.235
-638.638	67.642	-0.049	-0.051
-637.624	415.862	-0.162	-0.350
-636.609	-200.000	0.062	-0.310
-635.595	549.781	-0.103	0.250
-634.580	-68.407	0.179	0.071
-633.565	17.604	-0.117	0.094
-632.551	123.981	-0.071	0.091
-631.536	106.335	-0.159	-0.191
-630.522	-200.000	0.054	-0.246
-629.507	353.990	-0.203	0.408
-628.492	-148.584	0.089	0.007
-627.478	316.055	0.036	0.070
-626.463	-36.944	-0.205	-0.111
-625.449	-200.000	-0.019	-0.137
-624.434	-181.336	0.224	-0.004
-623.419	800.000	-0.078	0.239
-622.405	-89.210	-0.124	0.037
-621.390	-86.663	0.304	-0.094
-620.376	163.288	-0.096	-0.136
-619.361	800.000	0.023	0.093
-618.346	692.590	0.061	-0.161
-617.332	28.143	-0.150	-0.129
-616.317	81.602	-0.083	0.091
-615.303	-200.000	0.050	0.457
-614.288	-200.000	0.003	0.179
-613.273	36.801	0.248	-0.222
-612.259	-200.000	-0.013	-0.443
-611.244	424.982	-0.067	0.146
-610.230	-200.000	-0.030	-0.325
-609.215	84.647	0.206	0.229
-608.201	800.000	-0.087	0.361
-607.186	251.918	-0.161	0.278
-606.171	199.407	-0.158	0.246
-605.157	-200.000	-0.037	-0.251
-604.142	268.638	-0.011	-0.020
-603.128	264.493	-0.124	0.219
-602.113	-15.377	0.271	-0.176
-601.098	-13.444	-0.257	0.169
-600.084	220.578	-0.218	0.354
-599.069	-112.734	0.304	-0.061
-598.055	567.349	-0.069	0.169
-597.040	-200.000	0.024	0.348
-596.025	-25.791	0.111	0.066
-595.011	-200.000	0.012	-0.065
-593.996	-17.321	-0.280	-0.179
-592.982	-19.418	-0.232	0.145
-591.967	-79.376	0.063	0.022
-590.952	-34.471	0.398	-0.221
-589.938	-13.855	-0.092	0.060
-588.923	323.788	-0.136	-0.263
-587.909	-56.246	0.216	0.097
-586.894	-69.098	-0.426	-0.166
-585.879	534.394	-0.129	-0.310
-584.865	-28.391	0.164	-0.096
-583.850	-147.895	-0.018	-0.002
-582.836	-23.469	-0.194	-0.118
-581.821	-144.700	-0.252	-0.023
-580.806	800.000	-0.020	0.088
-579.792	358.630	0.011	-0.022
-578.777	-39.750	-0.214	-0.113
-577.763	10.275	0.314	-0.242
-576.748	-17.442	0.231	0.147
-575.733	-200.000	-0.081	0.366
-574.719	800.000	0.031	-0.125
-573.704	-111.882	-0.329	0.067
-572.690	-200.000	-0.030	-0.223
-571.675	-33.136	0.204	0.114
-570.661	-85.130	0.216	0.068
-569.646	-200.000	-0.062	0.286
-568.631	63.122	-0.096	-0.097
-567.617	-126.745	-0.409	-0.061
-566.602	-200.000	-0.065	-0.305
-565.588	530.239	0.155	-0.369
-564.573	-148.744	0.353	0.029
-563.558	-67.433	0.357	-0.142
-562.544	55.160	-0.370	-0.362
-561.529	-59.033	-0.167	-0.073
-560.515	-200.000	0.012	-0.060
-559.500	-200.000	0.015	-0.075
-558.485	-183.134	-0.107	-0.002
-557.471	158.985	0.017	0.024
-556.456	-51.939	-0.168	-0.079
-555.442	667.108	-0.028	0.073
-554.427	-48.068	-0.120	-0.059
-553.412	-150.634	0.273	0.021
-552.398	-10.230	-0.081	0.054
-551.383	-70.134	0.241	-0.093
-550.369	-178.014	-0.271	-0.007
-549.354	800.000	0.048	0.184
-548.339	116.321	-0.104	-0.128
-547.325	-39.545	0.388	0.205
-546.310	157.275	0.162	-0.226
-545.296	-200.000	0.048	0.235
-544.281	-200.000	0.010	0.307
-543.266	398.996	-0.068	0.145
-542.252	18.841	0.379	0.307
-541.237	-200.000	0.015	-0.278
-540.223	345.539	0.092	0.182
-539.208	184.378	-0.132	-0.198
-538.193	143.862	-0.101	-0.136
-537.179	-200.000	0.012	0.057
-536.164	22.256	0.092	-0.076
-535.150	-93.797	-0.300	0.083
-534.135	40.047	-0.056	0.051
-533.121	173.411	0.111	0.161
-532.106	-18.027	-0.076	0.048
-531.091	-67.553	0.092	0.036
-530.077	-117.008	-0.308	-0.057
-529.062	800.000	0.070	0.224
-528.048	185.817	-0.156	-0.235
-527.033	-200.000	0.051	0.342
-526.018	-200.000	0.470	-0.001
-525.004	-142.767	0.409	0.040
-523.989	141.661	-0.088	-0.117
-522.975	277.659	0.130	-0.234
-521.960	-200.000	0.010	0.091
-520.945	-200.000	0.041	0.194
-519.931	-33.562	0.058	0.032
-518.916	800.000	-0.058	-0.224
-517.902	91.629	0.181	0.205
-516.887	765.792	0.104	-0.286
-515.872	-161.812	0.104	-0.005
-514.858	90.987	0.182	-0.205
-513.843	-92.718	-0.275	-0.078
-512.829	108.827	0.233	-0.281
-511.814	-138.011	-0.624	-0.070
-510.799	33.262	-0.113	0.099
-509.785	-200.000	-0.020	0.260
-508.770	-81.925	0.261	-0.086
-507.756	737.970	-0.123	0.334
-506.741	800.000	0.050	0.147
-505.726	70.268	0.272	0.284
-504.712	-43.502	-0.138	0.070
-503.697	800.000	-0.077	0.244
-502.683	7.321	0.342	-0.258
-501.668	-200.000	0.015	-0.227
-500.653	-67.528	-0.177	-0.070
-499.639	246.783	-0.142	-0.242
-498.624	-143.668	-0.169	-0.016
-497.610	672.923	-0.050	-0.131
-496.595	-16.097	-0.089	0.057
-495.581	-200.000	0.007	-0.540
-494.566	-140.601	0.135	-0.014
-493.551	-161.454	-0.077	-0.004
-492.537	-110.384	-0.346	0.072
-491.522	76.244	0.157	0.167
-490.508	-104.287	-0.479	-0.112
-489.493	-200.000	-0.005	-0.222
-488.478	-13.174	0.137	-0.090
-487.464	-146.246	0.132	-0.012
-486.449	800.000	-0.033	-0.116
-485.435	-200.000	0.011	-0.141
-484.420	-28.515	-0.075	-0.044
-483.405	119.144	0.056	0.070
-482.391	240.803	-0.069	-0.116
-481.376	-146.113	0.177	0.016
-480.362	-200.000	-0.060	-0.267
-479.347	354.200	0.153	-0.306
-478.332	48.290	0.096	-0.090
-477.318	-109.164	0.142	0.030
-476.303	-101.127	-0.269	-0.066
-475.289	58.596	0.022	0.022
-474.274	465.339	0.086	-0.194
-473.259	800.000	-0.091	-0.354
-472.245	41.019	-0.225	0.204
-471.230	-99.655	0.194	-0.049
-470.216	-40.556	0.369	-0.193
-469.201	-121.011	-0.262	-0.044
-468.186	-200.000	-0.022	-0.256
-467.172	125.428	0.171	0.217
-466.157	261.574	0.098	0.170
-465.143	72.638	0.146	-0.153
-464.128	-110.039	0.305	0.064
-463.113	-68.745	0.196	0.076
-462.099	323.294	0.104	0.200
-461.084	-200.000	-0.016	-0.159
-460.070	-200.000	0.012	0.135
-459.055	500.868	0.112	0.260
-458.040	-56.912	-0.146	-0.065
-457.026	-142.435	0.232	-0.023
-456.011	-116.532	-0.241	-0.045
-454.997	172.443	-0.102	-0.147
-453.982	-96.860	0.441	0.117
-452.968	-176.652	-0.237	0.006
-451.953	-200.000	0.016	-0.236
-450.938	371.936	0.117	0.239
-449.924	149.539	-0.281	0.384
-448.909	-40.510	-0.023	0.012
-447.895	84.031	0.131	0.145
-446.880	336.360	-0.066	0.129
-445.865	157.020	0.151	-0.210
-444.851	-109.364	-0.095	-0.020
-443.836	7.234	-0.102	0.077
-442.822	-105.109	0.075	-0.017
-441.807	-38.113	-0.083	-0.044
-440.792	-43.281	-0.113	0.058
-439.778	-200.000	-0.031	0.280
-438.763	105.369	0.069	0.082
-437.749	358.914	-0.105	-0.210
-436.734	-93.524	-0.327	-0.091
-435.719	629.197	-0.108	0.274
-434.705	-72.411	0.173	-0.064
-433.690	18.268	-0.204	0.164
-432.676	-200.000	0.055	-0.305
-431.661	24.556	0.421	-0.351
-430.646	-200.000	0.010	-0.240
-429.632	7.658	-0.223	0.168
-428.617	-95.425	-0.216	0.058
-427.603	-18.864	-0.187	0.117
-426.588	49.343	-0.084	-0.079
-425.573	800.000	0.088	-0.265
-424.559	-20.503	-0.274	0.169
-423.544	-67.408	-0.250	-0.099
-422.530	-200.000	0.040	0.421
-421.515	-200.000	-0.007	0.281
-420.500	122.792	-0.207	0.261
-419.486	-134.620	0.165	-0.020
-418.471	-16.688	0.176	-0.112
-417.457	-134.312	-0.153	-0.019
-416.442	-82.543	-0.163	0.053
-415.428	-113.961	0.091	-0.018
-414.413	688.332	-0.082	0.214
-413.398	136.531	-0.128	0.168
-412.384	-200.000	0.076	-0.342
-411.369	-101.043	0.098	0.024
-410.355	-187.724	-0.316	0.004
-409.340	-16.675	0.171	-0.109
-408.325	18.274	-0.071	0.057
-407.311	-154.220	0.170	0.012
-406.296	-28.418	0.158	-0.092
-405.282	167.863	0.116	0.166
-404.267	-200.000	-0.004	0.133
-403.252	5.362	0.165	-0.122
-402.238	1.713	-0.087	0.063
-401.223	546.300	-0.097	0.232
-400.209	-200.000	-0.038	-0.198
-399.194	-20.164	-0.078	0.048
-398.179	-118.536	-0.059	0.011
-397.165	461.022	0.127	-0.284
-396.150	-44.124	0.051	-0.026
-395.136	45.063	-0.271	-0.251
-394.121	-200.000	-0.019	0.168
-393.106	-133.579	0.124	0.016
-392.092	-96.994	-0.235	0.062
-391.077	-7.829	0.284	-0.193
-390.063	-200.000	0.065	0.392
-389.048	-200.000	0.033	-0.485
-388.033	-18.252	-0.180	-0.113
-387.019	-63.110	-0.114	-0.047
-386.004	9.215	-0.118	0.090
-384.990	-200.000	-0.044	-0.264
-383.975	-200.000	0.035	0.330
-382.960	424.613	0.081	0.174
-381.946	-85.873	-0.284	-0.088
-380.931	363.744	-0.030	-0.060
-379.917	160.839	0.272	0.382
-378.902	-138.815	-0.185	-0.020
-377.888	45.771	0.148	-0.138
-376.873	-3.884	0.030	0.021
-375.858	800.000	-0.129	-0.408
-374.844	537.453	0.083	0.198
-373.829	-200.000	0.004	0.061
-372.815	231.776	0.104	0.171
-371.800	-35.072	-0.243	0.133
-370.785	800.000	0.140	0.527
-369.771	-162.705	0.070	0.003
-368.756	-66.199	-0.107	-0.043
-367.742	-152.722	-0.158	-0.011
-366.727	198.818	-0.014	0.022
-365.712	-124.727	0.163	0.025
-364.698	-19.503	-0.039	0.024
-363.683	-200.000	0.003	-0.060
-362.669	-26.398	0.283	0.166
-361.654	-157.842	0.107	-0.006
-360.639	19.770	-0.210	0.169
-359.625	800.000	-0.032	-0.131
-358.610	-100.784	0.204	0.050
-357.596	-100.207	-0.240	-0.060
-356.581	5.883	-0.167	-0.124
-355.566	69.356	0.038	-0.039
-354.552	800.000	-0.053	-0.219
-353.537	5.273	0.199	-0.147
-352.523	0.634	-0.182	0.131
-351.508	-57.861	0.219	-0.096
-350.493	24.999	-0.135	0.113
-349.479	13.312	-0.134	-0.104
-348.464	800.000	-0.083	-0.233
-347.450	277.184	0.207	-0.368
-346.435	26.639	-0.049	0.041
-345.420	-153.569	0.279	0.019
-344.406	124.244	0.306	-0.386
-343.391	290.181	0.085	0.154
-342.377	8.619	-0.255	0.192
-341.362	-200.000	-0.045	-0.247
-340.348	-200.000	0.071	0.367
-339.333	-5.362	0.188	-0.130
-338.318	-200.000	0.025	-0.157
-337.304	-25.533	0.038	0.023
-336.289	-47.727	0.106	0.052
-335.275	797.254	-0.059	0.162
-334.260	-103.344	-0.083	-0.020
-333.245	800.000	-0.071	0.265
-332.231	-200.000	-0.017	-0.235
-331.216	-200.000	0.075	-0.382
-330.202	-29.346	-0.139	-0.080
-329.187	-13.136	0.204	-0.133
-328.172	745.214	0.050	0.134
-327.158	-47.024	-0.164	0.080
-326.143	800.000	0.027	-0.115
-325.129	-200.000	-0.077	-0.383
-324.114	619.773	-0.120	-0.301
-323.099	-64.532	-0.169	-0.069
-322.085	-175.228	-0.015	0.000
-321.070	-109.576	0.205	0.043
-320.056	800.000	0.053	-0.191
-319.041	-42.556	-0.242	-0.124
-318.026	49.488	0.134	-0.126
-317.012	800.000	-0.051	-0.162
-315.997	800.000	0.031	0.107
-314.983	-82.175	0.224	-0.073
-313.968	60.744	0.216	-0.214
-312.953	-147.384	0.562	0.048
-311.939	186.037	0.061	-0.091
-310.924	-33.409	0.206	-0.114
-309.910	-149.600	-0.257	0.020
-308.895	-107.547	-0.125	-0.027
-307.880	-115.901	0.177	-0.033
-306.866	-200.000	0.015	0.127
-305.851	-26.048	-0.170	-0.100
-304.837	-37.553	0.064	-0.034
-303.822	94.080	0.059	0.067
-302.807	-59.526	0.416	-0.179
-301.793	-167.056	-0.164	-0.007
-300.778	-74.260	0.189	-0.068
-299.764	-82.231	-0.107	-0.035
-298.749	-79.175	0.266	-0.090
-297.735	204.049	0.126	-0.195
-296.720	-12.166	0.236	-0.155
-295.705	645.856	-0.089	0.228
-294.691	181.467	0.176	-0.258
-293.676	800.000	0.034	0.119
-292.662	-74.761	-0.109	-0.039
-291.647	-74.157	0.043	0.015
-290.632	184.818	-0.136	-0.201
-289.618	121.419	0.167	-0.208
-288.603	-12.340	0.151	-0.099
-287.589	706.265	-0.131	0.347
-286.574	-57.171	0.069	0.030
-285.559	-200.000	-0.068	0.365
-284.545	-149.126	0.200	0.016
-283.530	-200.000	-0.006	0.096
-282.516	800.000	0.054	0.207
-281.501	-200.000	-0.067	-0.374
-280.486	69.082	0.144	-0.148
-279.472	86.253	-0.272	-0.299
-278.457	30.070	0.138	-0.118
-277.443	238.543	-0.089	0.148
-276.428	-103.922	-0.259	0.060
-275.413	14.936	0.137	-0.107
-274.399	464.631	-0.082	0.184
-273.384	-53.505	-0.151	0.069
-272.370	-55.041	0.239	0.108
-271.355	-93.401	0.264	0.073
-270.340	800.000	0.073	0.203
-269.326	-60.286	0.149	0.063
-268.311	73.865	0.143	0.150
-267.297	15.633	-0.221	-0.174
-266.282	439.985	0.058	-0.128
-265.267	-200.000	0.007	0.123
-264.253	100.819	-0.163	-0.189
-263.238	24.965	0.328	-0.272
-262.224	-200.000	-0.051	-0.260
-261.209	54.295	-0.091	0.088
-260.195	-200.000	-0.051	0.242
-259.180	759.879	-0.093	-0.253
-258.165	427.057	-0.089	0.193
-257.151	-56.636	0.313	0.138
-256.136	72.209	0.247	0.257
-255.122	-15.156	0.099	0.063
-254.107	-200.000	-0.020	0.123
-253.092	-109.919	-0.218	0.046
-252.078	443.795	0.055	0.121
-251.063	-200.000	0.039	0.335
-250.049	-200.000	-0.011	-0.085
-249.034	800.000	-0.084	0.336
-248.019	591.469	-0.084	0.206
-247.005	-200.000	-0.104	-0.509
-245.990	412.999	0.074	0.158
-244.976	-81.447	0.241	0.079
-243.961	-74.023	-0.155	-0.056
-242.946	-25.362	-0.320	-0.189
-241.932	-49.966	-0.186	0.088
-240.917	-200.000	-0.005	0.177
-239.903	-2.259	-0.143	-0.100
-238.888	81.252	0.087	0.094
-237.873	-137.725	-0.351	0.039
-236.859	-119.222	0.037	-0.006
-235.844	-137.542	-0.228	-0.026
-234.830	282.287	-0.109	0.195
-233.815	177.893	-0.096	-0.140
-232.800	-200.000	0.054	0.241
-231.786	-200.000	-0.005	0.203
-230.771	-70.264	0.109	0.041
-229.757	-75.202	0.166	0.059
-228.742	-200.000	-0.083	0.516
-227.727	565.892	-0.064	0.154
-226.713	-83.088	-0.036	-0.012
-225.698	475.649	0.115	0.259
-224.684	-30.264	-0.309	0.175
-223.669	-200.000	-0.019	-0.128
-222.655	-58.869	-0.147	-0.064
-221.640	-64.627	-0.247	-0.100
-220.625	10.195	-0.037	0.028
-219.611	800.000	-0.008	-0.031
-218.596	-200.000	-0.101	0.601
-217.582	57.219	0.126	0.122
-216.567	800.000	0.017	-0.051
-215.552	-81.595	-0.326	0.107
-214.538	-200.000	0.014	-0.373
-213.523	-70.641	-0.238	-0.090
-212.509	-69.924	-0.332	-0.126
-211.494	127.010	0.177	-0.224
-210.479	83.073	-0.164	-0.178
-209.465	138.408	-0.128	0.167
-208.450	-51.522	-0.157	0.073
-207.436	17.165	0.123	-0.097
-206.421	-107.633	-0.127	0.028
-205.406	-200.000	-0.074	-0.353
-204.392	-125.057	-0.057	0.009
-203.377	73.037	-0.219	0.228
-202.363	177.508	-0.132	-0.192
-201.348	23.490	-0.178	-0.146
-200.333	50.500	0.150	-0.141
-199.319	-111.640	0.299	0.060
-198.304	-37.871	0.089	0.047
-197.290	-10.693	0.258	-0.170
-196.275	-28.890	0.304	-0.174
-195.260	-169.057	-0.123	-0.005
-194.246	800.000	-0.096	-0.275
-193.231	85.263	-0.054	0.059
-192.217	-167.812	0.254	-0.010
-191.202	-200.000	-0.028	0.548
-190.187	241.324	0.181	0.301
-189.173	-67.764	0.091	-0.035
-188.158	303.293	0.081	0.149
-187.144	-200.000	-0.008	0.250
-186.129	256.710	0.068	0.117
-185.114	-105.999	0.153	0.034
-184.100	-51.615	-0.139	-0.065
-183.085	201.806	0.173	0.266
-182.071	-46.660	0.144	0.070
-181.056	-136.737	0.518	-0.059
-180.042	-200.000	-0.004	0.084
-179.027	248.712	-0.167	0.281
-178.012	-63.216	0.110	-0.045
-176.998	75.165	0.140	-0.147
-175.983	-200.000	0.041	0.299
-174.969	-200.000	0.056	0.303
-173.954	27.010	-0.272	-0.227
-172.939	-40.071	-0.208	-0.108
-171.925	-98.082	-0.077	0.020
-170.910	-15.543	-0.227	0.144
-169.896	800.000	0.064	0.253
-168.881	-150.261	0.212	-0.016
-167.866	646.311	-0.083	0.212
-166.852	-75.532	0.460	0.163
-165.837	21.293	-0.220	-0.178
-164.823	-162.341	-0.207	0.010
-163.808	-87.240	0.122	0.037
-162.793	-21.309	0.328	-0.199
-161.779	195.108	0.064	-0.097
-160.764	-138.946	-0.197	0.021
-159.750	119.315	0.149	-0.183
-158.735	-62.575	0.254	0.105
-157.720	-40.987	0.236	0.121
-156.706	-67.224	-0.182	-0.071
-155.691	132.687	0.166	0.213
-154.677	-75.049	0.075	-0.027
-153.662	-68.668	0.111	-0.043
-152.647	800.000	-0.095	-0.290
-151.633	-49.560	-0.125	-0.059
-150.618	-79.055	0.355	-0.120
-149.604	378.779	-0.068	-0.138
-148.589	34.480	0.053	0.046
-147.574	-91.192	-0.089	-0.025
-146.560	126.226	0.168	-0.212
-145.545	35.172	-0.185	0.161
-144.531	800.000	-0.044	0.155
-143.516	800.000	0.102	0.295
-142.502	-3.530	0.200	0.139
-141.487	-42.937	-0.122	-0.062
-140.472	-5.059	-0.121	-0.083
-139.458	380.857	-0.057	-0.117
-138.443	27.174	0.290	-0.242
-137.429	-200.000	0.057	0.367
-136.414	349.145	-0.067	-0.132
-135.399	191.248	0.037	0.055
-134.385	-119.307	0.334	-0.058
-133.370	442.769	0.082	0.178
-132.356	-200.000	0.007	-0.125
-131.341	234.674	0.050	0.082
-130.326	293.779	-0.013	-0.023
-129.312	800.000	-0.046	0.147
-128.297	-200.000	0.018	-0.125
-127.283	-122.608	-0.124	0.020
-126.268	200.786	0.011	0.016
-125.253	57.753	-0.070	-0.068
-124.239	-38.696	-0.458	0.240
-123.224	800.000	-0.070	0.225
-122.210	119.505	-0.083	-0.102
-121.195	410.840	0.030	-0.063
-120.180	4.468	-0.280	0.204
-119.166	-200.000	-0.015	-0.092
-118.151	-172.143	0.390	0.012
-117.137	-13.772	-0.116	0.074
-116.122	-139.240	0.244	0.026
-115.107	-70.054	0.097	-0.037
-114.093	-143.612	-0.074	0.007
-113.078	-38.470	0.127	-0.067
-112.064	-200.000	-0.011	-0.288
-111.049	36.224	0.110	0.096
-110.034	203.363	-0.084	0.130
-109.020	446.706	0.061	0.132
-108.005	238.725	-0.201	0.332
-106.991	800.000	-0.115	-0.470
-105.976	122.533	0.218	0.271
-104.962	-200.000	0.033	0.252
-103.947	800.000	0.077	-0.300
-102.932	-58.843	-0.131	-0.056
-101.918	345.752	-0.103	0.201
-100.903	-24.162	-0.368	-0.218
-99.889	800.000	0.053	0.176
-98.874	-89.973	0.308	0.089
-97.859	43.605	0.271	0.246
-96.845	-200.000	0.199	-0.001
-95.830	306.719	-0.147	0.271
-94.816	274.942	0.092	0.162
-93.801	-125.843	-0.270	-0.040
-92.786	327.452	0.243	-0.463
-91.772	86.484	0.153	0.167
-90.757	141.540	0.057	0.074
-89.743	-200.000	-0.021	-0.172
-88.728	-130.092	-0.243	-0.033
-87.713	-200.000	-0.025	0.268
-86.699	109.508	-0.018	-0.021
-85.684	-200.000	0.032	0.202
-84.670	-189.493	-0.320	0.004
-83.655	8.586	0.180	-0.134
-82.640	541.151	-0.082	-0.193
-81.626	800.000	-0.047	-0.143
-80.611	28.519	0.268	0.225
-79.597	40.037	-0.296	-0.264
-78.582	39.183	-0.112	0.099
-77.567	184.417	-0.090	0.132
-76.553	111.211	0.165	0.197
-75.538	-200.000	-0.009	0.039
-74.524	304.204	-0.118	0.217
-73.509	-200.000	-0.008	0.209
-72.494	197.501	0.005	-0.008
-71.480	-8.113	0.091	-0.061
-70.465	129.679	0.055	-0.070
-69.451	-92.405	-0.259	-0.072
-68.436	-99.916	0.240	0.059
-67.422	-200.000	0.010	-0.149
-66.407	96.063	-0.029	0.032
-65.392	-85.980	0.117	0.036
-64.378	-54.890	-0.289	-0.129
-63.363	-200.000	0.002	-0.034
-62.349	-111.167	0.240	0.049
-61.334	221.307	-0.607	-0.966
-60.319	-53.699	0.167	0.076
-59.305	800.000	-0.295	-0.885
-58.290	800.000	0.293	1.076
-57.276	387.880	0.778	1.595
-56.261	-200.000	90.839	521.810
-55.246	456.607	1426.994	3140.206
-54.232	143.593	2635.144	3479.497
-53.217	110.107	2237.131	2661.977
-52.203	46.831	1674.813	1542.653
-51.188	39.025	1404.638	1244.534
-50.173	35.841	1361.444	1186.622
-49.159	54.795	1406.771	1345.330
-48.144	58.841	1425.010	1388.080
-47.130	39.517	1381.690	1227.072
-46.115	35.929	1363.600	1188.854
-45.100	35.617	1359.124	1182.983
-44.086	35.598	1356.446	1180.489
-43.071	35.531	1354.287	1178.153
-42.057	35.557	1351.893	1176.184
-41.042	35.649	1349.969	1175.024
-40.027	35.615	1348.205	1173.239
-39.013	35.703	1346.301	1172.067
-37.998	35.666	1344.469	1170.202
-36.984	35.645	1343.386	1169.089
-35.969	35.733	1341.345	1167.798
-34.954	35.843	1339.208	1166.559
-33.940	35.757	1337.651	1164.636
-32.925	35.771	1336.444	1163.624
-31.911	35.914	1334.838	1163.043
-30.896	35.883	1333.372	1161.530
-29.881	35.829	1332.019	1159.980
-28.867	35.826	1330.762	1158.824
-27.852	35.935	1328.982	1157.880
-26.838	35.897	1327.330	1156.171
-25.823	35.790	1325.842	1154.186
-24.809	35.846	1324.309	1153.140
-23.794	35.855	1322.665	1151.719
-22.779	35.796	1321.564	1150.358
-21.765	35.897	1320.233	1149.758
-20.750	35.915	1318.697	1148.484
-19.736	35.632	1317.907	1146.060
-18.721	35.632	1316.251	1144.575
-17.706	35.689	1315.262	1144.009
-16.692	35.693	1313.672	1142.608
-15.677	35.745	1312.588	1141.927
-14.663	35.688	1311.532	1140.620
-13.648	35.627	1310.616	1139.422
-12.633	35.686	1309.193	1138.489
-11.619	35.606	1308.821	1137.645
-10.604	35.613	1307.955	1136.887
-9.590	35.650	1306.666	1135.940
-8.575	35.638	1305.533	1134.839
-7.560	35.575	1305.486	1134.381
-6.546	35.582	1304.294	1133.344
-5.531	35.646	1303.064	1132.608
-4.517	35.708	1301.842	1131.861
-3.502	35.687	1301.004	1130.965
-2.487	35.734	1299.953	1130.283
-1.473	35.760	1296.161	1127.097
-0.458	35.025	1281.624	1110.149
0.556	30.467	1263.660	1074.052
1.571	26.836	1268.688	1057.113
2.586	25.649	1283.548	1062.395
3.600	24.655	1272.387	1047.242
4.615	21.312	1201.504	970.287
5.629	15.836	1127.347	881.709
6.644	12.911	1107.121	850.743
7.659	12.582	1105.070	847.400
8.673	12.579	1103.561	846.151
9.688	12.409	1102.136	844.111
10.702	12.824	1100.552	844.949
11.717	16.510	1105.478	867.607
12.731	20.255	1110.511	890.743
13.746	19.734	1107.802	885.824
14.761	17.748	1104.700	873.105
15.775	16.567	1102.327	865.115
16.790	15.405	1100.283	857.499
17.804	14.763	1098.872	853.047
18.819	14.235	1097.737	849.398
19.834	13.805	1096.993	846.554
20.848	13.732	1095.596	845.031
21.863	13.461	1094.730	842.909
22.877	13.284	1093.968	841.344
23.892	13.290	1092.793	840.395
24.907	13.370	1092.365	840.400
25.921	13.309	1091.673	839.483
26.936	13.371	1089.816	838.295
27.950	13.445	1088.522	837.601
28.965	13.501	1087.034	836.663
29.980	13.624	1085.084	835.712
30.994	13.575	1084.212	834.720
32.009	13.611	1083.305	834.127
33.023	13.596	1082.124	833.066
34.038	13.560	1081.084	832.014
35.053	13.417	1080.278	830.602
36.067	13.582	1078.835	830.248
37.082	13.503	1078.569	829.573
38.096	13.542	1077.360	828.765
39.111	13.631	1076.566	828.523
40.126	13.465	1075.451	826.766
41.140	13.320	1074.204	825.008
42.155	13.393	1072.937	824.328
43.169	13.357	1071.669	823.098
44.184	13.305	1070.764	822.072
45.199	13.269	1069.692	821.001
46.213	13.355	1068.519	820.455
47.228	13.452	1067.417	820.016
48.242	13.390	1066.361	818.824
49.257	13.484	1065.261	818.371
50.271	13.486	1064.402	817.648
51.286	13.531	1063.298	816.952
52.301	13.559	1062.000	816.021
53.315	13.509	1060.871	814.835
54.330	13.390	1060.038	813.537
55.344	13.412	1059.226	812.950
56.359	13.403	1058.538	812.305
57.374	13.390	1057.558	811.417
58.388	13.447	1056.400	810.735
59.403	13.241	1056.196	809.499
60.417	13.350	1055.121	809.135
61.432	13.191	1054.924	808.136
62.447	13.275	1053.506	807.391
63.461	13.185	1052.606	806.190
64.476	13.246	1051.740	805.753
65.490	13.232	1050.637	804.769
66.505	13.271	1050.222	804.567
67.520	13.313	1049.459	804.120
68.534	13.358	1048.560	803.577
69.549	13.314	1047.531	802.504
70.563	13.318	1046.789	801.882
71.578	13.228	1046.147	800.885
72.593	13.217	1045.335	800.140
73.607	13.180	1045.148	799.746
74.622	13.228	1043.955	798.993
75.636	13.269	1043.353	798.661
76.651	13.103	1042.931	797.466
77.666	13.147	1042.258	797.091
78.680	13.210	1041.309	796.598
79.695	13.274	1040.717	796.382
80.709	13.367	1040.172	796.345
81.724	13.415	1039.272	795.816
82.739	13.476	1038.561	795.494
83.753	13.551	1037.789	795.191
84.768	13.549	1036.478	794.108
85.782	13.530	1036.416	793.901
86.797	13.497	1034.965	792.561
87.812	13.453	1034.567	791.974
88.826	13.405	1033.078	790.536
89.841	13.481	1032.121	790.093
90.855	13.672	1031.057	790.123
91.870	13.587	1030.773	789.430
92.884	13.562	1029.651	788.381
93.899	13.635	1028.726	787.950
94.914	13.740	1027.786	787.656
95.928	13.640	1027.057	786.557
96.943	13.544	1026.394	785.525
97.957	13.627	1025.356	785.054
98.972	13.503	1024.911	784.054
99.987	13.556	1023.985	783.528
101.001	13.470	1023.150	782.412
102.016	13.566	1021.812	781.774
103.030	13.427	1021.439	780.764
104.045	13.613	1020.153	780.589
105.060	13.458	1019.644	779.401
106.074	13.428	1018.700	778.467
107.089	13.396	1017.739	777.515
108.103	13.474	1016.262	776.682
109.118	13.474	1015.271	775.856
110.133	13.402	1014.712	775.023
111.147	13.347	1013.653	773.887
112.162	13.294	1013.110	773.158
113.176	13.437	1012.279	773.123
114.191	13.548	1011.098	772.672
115.206	13.324	1010.942	771.438
116.220	13.367	1009.876	770.757
117.235	13.368	1008.687	769.786
118.249	13.437	1008.068	769.565
119.264	13.406	1007.147	768.652
120.279	13.430	1006.278	768.030
121.293	13.379	1005.194	766.902
122.308	13.332	1004.523	766.102
123.322	13.423	1003.359	765.570
124.337	13.318	1002.587	764.424
125.352	13.372	1001.357	763.671
126.366	13.391	1000.330	762.907
127.381	13.355	999.098	761.733
128.395	13.344	998.361	761.056
129.410	13.376	997.688	760.619
130.424	13.493	996.757	760.381
131.439	13.514	995.774	759.663
132.454	13.490	995.392	759.194
133.468	13.512	994.115	758.251
134.483	13.576	993.065	757.674
135.497	13.516	992.250	756.712
136.512	13.645	991.427	756.605
137.527	13.662	990.482	755.897
138.541	13.541	989.634	754.632
139.556	13.564	989.133	754.285
140.570	13.654	988.508	754.154
141.585	13.647	987.775	753.496
142.600	13.621	986.628	752.436
143.614	13.854	985.172	752.314
144.629	13.778	984.493	751.386
145.643	13.791	983.395	750.539
146.658	13.774	982.473	749.693
147.673	13.719	982.006	749.023
148.687	13.593	981.140	747.727
149.702	13.547	980.375	746.870
150.716	13.674	979.100	746.404
151.731	13.617	978.402	745.549
152.746	13.481	978.336	744.822
153.760	13.643	977.460	744.818
154.775	13.561	976.922	743.972
155.789	13.730	975.812	743.821
156.804	13.772	975.101	743.401
157.819	13.892	974.293	743.257
158.833	13.833	973.976	742.684
159.848	13.762	973.574	741.993
160.862	13.755	972.283	740.915
161.877	13.636	971.272	739.548
162.892	13.650	970.346	738.837
163.906	13.635	969.869	738.345
164.921	13.709	968.838	737.824
165.935	13.674	967.646	736.694
166.950	13.727	966.914	736.309
167.964	13.788	965.959	735.786
168.979	13.778	965.074	735.001
169.994	13.823	963.883	734.230
171.008	13.775	963.730	733.833
172.023	13.878	962.894	733.587
173.037	13.822	961.977	732.579
174.052	13.850	961.441	732.228
175.067	13.852	960.820	731.698
176.081	13.646	960.096	730.176
177.096	13.763	959.800	730.401
178.110	13.687	958.838	729.271
179.125	13.814	958.478	729.490
180.140	13.782	957.962	728.890
181.154	13.879	957.005	728.524
182.169	14.112	956.343	728.980
183.183	14.017	955.266	727.679
184.198	14.009	955.205	727.529
185.213	14.015	954.140	726.684
186.227	14.005	953.580	726.149
187.242	14.073	952.936	725.890
188.256	14.067	952.717	725.633
189.271	14.103	951.207	724.574
190.286	14.082	950.684	724.023
191.300	13.810	950.512	722.640
192.315	13.940	949.015	722.006
193.329	13.859	948.696	721.347
194.344	13.930	948.215	721.223
195.359	13.861	947.668	720.447
196.373	14.076	946.735	720.605
197.388	14.147	946.698	720.819
198.402	14.217	945.976	720.512
199.417	14.186	945.423	719.893
200.432	14.289	944.732	719.748
201.446	14.337	943.980	719.315
202.461	14.418	943.766	719.440
203.475	14.336	942.921	718.379
204.490	14.226	941.897	717.063
205.504	14.234	941.444	716.689
206.519	14.173	940.832	715.896
207.534	14.283	939.818	715.531
208.548	14.246	939.297	714.914
209.563	14.175	938.870	714.220
210.577	14.337	938.282	714.405
211.592	14.317	937.379	713.571
212.607	14.428	936.700	713.463
213.621	14.563	935.304	712.915
214.636	14.587	934.733	712.517
215.650	14.429	934.407	711.535
216.665	14.498	933.774	711.283
217.680	14.525	932.925	710.690
218.694	14.618	932.366	710.593
219.709	14.611	931.354	709.733
220.723	14.440	930.999	708.671
221.738	14.493	930.366	708.352
222.753	14.687	929.359	708.344
223.767	14.460	929.480	707.412
224.782	14.683	928.275	707.378
225.796	14.658	927.925	706.943
226.811	14.695	927.321	706.574
227.826	14.614	926.236	705.344
228.840	14.555	925.677	704.606
229.855	14.630	924.651	704.078
230.869	14.541	924.057	703.191
231.884	14.561	923.271	702.616
232.899	14.617	922.895	702.500
233.913	14.560	921.887	701.431
234.928	14.549	921.123	700.744
235.942	14.573	920.889	700.604
236.957	14.479	920.531	699.873
237.972	14.541	919.802	699.517
238.986	14.562	919.145	699.046
240.001	14.567	918.473	698.491
241.015	14.668	918.077	698.551
242.030	14.616	917.259	697.652
243.045	14.639	916.581	697.168
244.059	14.691	915.904	696.809
245.074	14.797	914.990	696.496
246.088	14.685	914.703	695.749
247.103	14.778	913.770	695.365
248.117	14.846	913.231	695.173
249.132	14.889	913.113	695.204
250.147	14.957	912.467	694.932
251.161	15.163	911.219	694.773
252.176	15.095	911.141	694.370
253.190	15.015	910.434	693.439
254.205	15.109	909.532	693.082
255.220	15.001	908.983	692.154
256.234	15.159	908.124	692.092
257.249	15.175	907.598	691.697
258.263	15.153	906.633	690.810
259.278	15.076	906.642	690.436
260.293	15.250	905.636	690.325
261.307	15.211	905.017	689.631
262.322	15.216	904.832	689.451
263.336	15.266	903.904	688.890
264.351	15.406	902.590	688.398
265.366	15.373	902.401	688.060
266.380	15.338	902.023	687.566
267.395	15.205	901.157	686.303
268.409	15.248	900.178	685.669
269.424	15.413	899.322	685.635
270.439	15.200	899.034	684.482
271.453	15.304	898.258	684.254
272.468	15.253	897.828	683.661
273.482	15.195	897.251	682.923
274.497	15.412	896.324	683.043
275.512	15.293	895.875	682.154
276.526	15.319	895.578	681.974
277.541	15.237	895.142	681.249
278.555	15.306	894.463	680.949
279.570	15.513	893.595	681.071
280.585	15.568	892.288	680.237
281.599	15.568	891.730	679.748
282.614	15.410	891.512	678.886
283.628	15.401	890.825	678.266
284.643	15.396	890.304	677.789
285.657	15.590	889.109	677.599
286.672	15.502	888.785	676.938
287.687	15.650	887.914	676.813
288.701	15.588	887.923	676.510
289.716	15.433	887.458	675.473
290.730	15.595	886.828	675.584
291.745	15.683	885.927	675.189
292.760	15.641	885.442	674.593
293.774	15.696	884.674	674.170
294.789	15.681	883.921	673.477
295.803	15.666	883.103	672.732
296.818	15.711	882.464	672.368
297.833	15.737	881.546	671.710
298.847	15.708	881.290	671.341
299.862	15.651	881.310	671.067
300.876	15.899	880.007	671.007
301.891	15.862	879.804	670.646
302.906	15.782	879.225	669.823
303.920	15.845	878.708	669.624
304.935	15.876	878.246	669.335
305.949	15.930	877.381	668.830
306.964	15.913	876.432	667.979
307.979	15.981	876.089	667.929
308.993	15.987	875.951	667.790
310.008	15.933	875.400	667.095
311.022	15.909	874.461	666.227
312.037	16.075	873.192	665.858
313.052	15.931	872.712	664.864
314.066	15.885	872.506	664.466
315.081	15.811	872.027	663.750
316.095	15.961	871.281	663.716
317.110	15.960	870.721	663.224
318.125	16.008	869.738	662.606
319.139	15.823	870.038	662.050
320.154	15.943	869.359	661.947
321.168	15.983	868.642	661.498
322.183	16.062	868.044	661.292
323.197	15.947	867.375	660.275
324.212	16.002	867.017	660.161
325.227	15.989	866.312	659.514
326.241	16.052	865.573	659.139
327.256	16.079	865.101	658.828
328.270	16.115	864.511	658.460
329.285	16.011	863.998	657.605
330.300	16.105	863.326	657.403
331.314	15.957	863.183	656.657
332.329	16.212	862.473	657.053
333.343	16.173	861.970	656.458
334.358	16.214	861.554	656.242
335.373	16.182	861.307	655.872
336.387	16.298	860.720	655.820
337.402	16.267	860.305	655.325
338.416	16.231	860.320	655.137
339.431	16.321	859.713	654.967
340.446	16.341	859.185	654.583
341.460	16.482	858.949	654.894
342.475	16.425	858.629	654.370
343.489	16.424	858.032	653.854
344.504	16.429	857.794	653.634
345.519	16.608	857.004	653.666
346.533	16.502	856.286	652.650
347.548	16.386	856.029	651.949
348.562	16.419	855.127	651.333
349.577	16.366	854.517	650.606
350.592	16.456	853.938	650.455
351.606	16.452	853.220	649.832
352.621	16.428	852.648	649.250
353.635	16.434	852.180	648.857
354.650	16.550	851.450	648.688
355.665	16.400	850.962	647.684
356.679	16.612	850.303	647.940
357.694	16.588	849.448	647.137
358.708	16.672	848.960	647.028
359.723	16.477	848.658	645.998
360.738	16.637	847.711	645.828
361.752	16.705	847.060	645.535
362.767	16.637	846.414	644.726
363.781	16.756	845.679	644.564
364.796	16.843	845.588	644.768
365.810	16.896	844.834	644.336
366.825	16.924	844.799	644.359
367.840	16.711	844.115	642.971
368.854	16.758	843.697	642.775
369.869	16.813	843.451	642.739
370.883	16.801	842.901	642.220
371.898	16.924	842.364	642.218
372.913	16.969	842.099	642.129
373.927	16.874	841.779	641.468
374.942	16.968	840.881	641.084
375.956	16.936	840.577	640.675
376.971	16.949	840.388	640.522
377.986	17.049	839.684	640.305
379.000	17.005	839.198	639.714
380.015	16.996	839.022	639.490
381.029	17.053	838.172	639.000
382.044	16.945	837.710	638.184
383.059	17.301	836.736	638.722
384.073	17.285	835.820	637.908
385.088	17.092	835.675	637.016
386.102	16.982	835.169	636.160
387.117	17.104	834.830	636.304
388.132	17.118	834.001	635.668
389.146	17.077	833.533	635.101
390.161	17.124	833.170	634.944
391.175	17.057	832.864	634.404
392.190	17.140	831.972	633.981
393.205	17.091	831.392	633.301
394.219	17.163	831.247	633.400
395.234	17.120	830.792	632.837
396.248	17.013	830.450	632.124
397.263	17.057	829.691	631.652
398.278	16.890	829.618	630.921
399.292	17.079	828.828	630.966
400.307	17.090	828.673	630.832
401.321	17.104	828.207	630.473
402.336	17.293	827.372	630.485
403.350	17.052	827.158	629.370
404.365	17.184	826.882	629.595
405.380	17.326	826.078	629.453
406.394	17.351	825.787	629.267
407.409	17.400	825.218	628.959
408.423	17.424	825.144	628.938
409.438	17.502	824.666	628.804
410.453	17.568	823.795	628.329
411.467	17.521	823.419	627.813
412.482	17.654	823.218	628.093
413.496	17.585	823.194	627.768
414.511	17.700	822.224	627.395
415.526	17.799	821.661	627.273
416.540	17.595	821.368	626.242
417.555	17.633	820.908	625.977
418.569	17.484	820.625	625.160
419.584	17.691	820.098	625.463
420.599	17.621	819.766	624.897
421.613	101.107	1283.472	1431.515
422.628	87.208	1351.032	1431.617
