DTS Sentinel unit serial number:	SN413079Multiplexer serial number:	ORYXHardware model number:	OX4-SRSoftware version number:	ORYX F/W v4.00 Oryx Data Collector v3.7.2.0data status	okinstallation	princeton_trtdifferential loss correction	single-endedforward channel	channel 1reverse channel	N/Adate	2019/09/16time	08:46:35forward acquisition time	60.00reverse acquisition time	0.00gamma	496.2192k internal	0.2324k external	0.2324temperature offset calibration	0.9978default loss term (dB/km)	0.3790temperature slope calibration	1.0000multiplexer offset coefficient	1.0000multiplexer slope coefficient	1.0000fibre end	0.00T internal ref (°C)	29.86T ext. ref 1 (°C)	12.00T ext. ref 2 (°C)	26.88length (m)	temperature (°C)	Stokes	anti-Stokes-747.200	448.159	-0.040	0.088
-746.185	-200.000	-0.019	0.143
-745.171	90.810	0.187	0.212
-744.156	343.517	0.025	-0.049
-743.142	-94.226	0.020	0.005
-742.127	800.000	-0.008	0.027
-741.112	-200.000	-0.022	0.114
-740.098	-200.000	-0.118	0.632
-739.083	4.055	0.189	-0.140
-738.069	-151.288	0.213	-0.016
-737.054	-177.725	0.311	-0.008
-736.039	-174.849	-0.387	-0.011
-735.025	-200.000	0.003	-0.111
-734.010	-131.761	-0.137	-0.018
-732.996	-23.107	-0.195	-0.118
-731.981	521.898	0.047	-0.111
-730.966	800.000	-0.028	0.108
-729.952	-40.104	0.046	0.024
-728.937	703.207	-0.107	0.284
-727.923	-128.331	0.121	-0.017
-726.908	345.818	0.126	0.250
-725.894	181.520	-0.075	-0.111
-724.879	18.444	-0.268	0.216
-723.864	-96.084	0.238	0.064
-722.850	147.257	-0.166	-0.226
-721.835	-92.462	-0.154	-0.044
-720.821	-200.000	-0.099	-0.517
-719.806	-200.000	0.027	-0.253
-718.791	-103.044	0.431	0.103
-717.777	417.985	-0.069	0.148
-716.762	800.000	-0.110	0.314
-715.748	774.650	-0.172	0.473
-714.733	-83.203	-0.262	0.085
-713.718	792.876	-0.068	-0.189
-712.704	-59.247	-0.380	-0.165
-711.689	200.237	-0.044	-0.068
-710.675	46.025	-0.146	0.136
-709.660	50.376	0.128	-0.122
-708.645	-200.000	-0.035	-0.368
-707.631	47.702	-0.213	0.200
-706.616	-4.461	-0.389	0.271
-705.602	53.376	0.092	0.089
-704.587	-167.489	0.096	-0.004
-703.572	74.023	0.166	0.175
-702.558	-161.769	-0.102	-0.005
-701.543	-123.780	0.277	-0.044
-700.529	-22.736	0.052	0.032
-699.514	-30.268	-0.046	-0.026
-698.499	-200.000	0.067	-0.312
-697.485	225.106	-0.108	0.176
-696.470	-111.854	0.194	-0.040
-695.456	-200.000	0.015	-0.141
-694.441	317.774	0.076	0.144
-693.426	800.000	-0.060	0.184
-692.412	59.098	0.211	0.210
-691.397	-200.000	0.023	-0.136
-690.383	543.122	-0.021	0.051
-689.368	39.734	0.188	0.170
-688.354	-106.452	-0.089	-0.020
-687.339	59.305	-0.114	0.113
-686.324	135.533	-0.076	0.099
-685.310	95.482	0.033	0.038
-684.295	45.820	0.111	0.103
-683.281	9.028	-0.196	-0.149
-682.266	-200.000	-0.034	0.153
-681.251	-21.475	-0.100	-0.061
-680.237	545.570	0.092	-0.222
-679.222	65.236	-0.124	-0.126
-678.208	-200.000	-0.004	-0.353
-677.193	394.556	-0.050	0.104
-676.178	294.120	0.048	0.088
-675.164	-166.733	-0.285	-0.012
-674.149	-200.000	0.004	-0.073
-673.135	82.628	0.315	0.345
-672.120	95.411	-0.275	0.316
-671.105	56.406	-0.172	-0.168
-670.091	-10.168	-0.190	0.127
-669.076	-121.447	-0.300	-0.050
-668.062	-200.000	0.052	-0.281
-667.047	12.204	-0.163	-0.127
-666.032	-200.000	0.073	-0.366
-665.018	638.391	-0.117	0.298
-664.003	-200.000	0.003	-0.153
-662.989	-130.434	0.171	-0.023
-661.974	-142.084	-0.177	-0.018
-660.959	2.663	-0.196	-0.143
-659.945	-38.716	-0.132	0.070
-658.930	-109.254	0.213	0.046
-657.916	7.924	0.162	0.122
-656.901	46.912	-0.069	0.065
-655.886	308.461	-0.271	0.510
-654.872	-37.806	-0.211	0.113
-653.857	-42.710	-0.126	-0.064
-652.843	-164.545	0.241	-0.011
-651.828	-26.131	-0.354	0.209
-650.814	-13.981	-0.262	-0.170
-649.799	470.096	0.051	-0.114
-648.784	39.029	-0.204	0.184
-647.770	-8.378	-0.187	0.126
-646.755	-200.000	0.001	-0.216
-645.741	9.054	0.130	0.099
-644.726	-200.000	-0.022	-0.123
-643.711	-108.246	-0.141	0.031
-642.697	31.616	0.179	-0.154
-641.682	423.755	0.079	-0.170
-640.668	40.732	0.082	-0.075
-639.653	800.000	-0.058	0.197
-638.638	-145.577	0.122	0.011
-637.624	-128.609	0.327	-0.046
-636.609	18.814	0.227	0.182
-635.595	-200.000	-0.012	-0.137
-634.580	39.678	-0.270	-0.243
-633.565	-121.214	0.157	-0.026
-632.551	-36.871	0.179	-0.096
-631.536	69.523	0.104	0.108
-630.522	52.664	0.030	0.028
-629.507	-95.677	0.302	0.081
-628.492	-30.719	0.274	-0.156
-627.478	-117.426	-0.114	-0.021
-626.463	-160.014	-0.255	-0.014
-625.449	-113.415	-0.424	0.084
-624.434	-11.967	-0.272	-0.179
-623.419	-200.000	-0.003	-0.336
-622.405	-98.641	-0.255	-0.065
-621.390	-200.000	-0.017	-0.366
-620.376	420.083	-0.113	0.242
-619.361	138.593	0.148	-0.196
-618.346	-58.540	-0.239	0.104
-617.332	57.195	-0.176	0.172
-616.317	-200.000	-0.052	-0.000
-615.303	-200.000	0.049	-0.233
-614.288	653.599	0.059	-0.153
-613.273	-114.152	-0.216	-0.042
-612.259	79.410	-0.197	0.212
-611.244	800.000	0.045	0.177
-610.230	355.707	-0.117	-0.234
-609.215	-5.545	-0.157	-0.108
-608.201	-200.000	0.001	-0.076
-607.186	-107.536	0.098	0.022
-606.171	84.552	-0.240	0.264
-605.157	-114.165	-0.152	-0.030
-604.142	313.806	0.138	-0.261
-603.128	-45.161	0.393	0.196
-602.113	-199.577	0.170	0.001
-601.098	-127.845	0.177	0.026
-600.084	800.000	0.119	0.509
-599.069	239.257	0.095	0.159
-598.055	-120.890	0.284	-0.048
-597.040	181.827	-0.037	0.055
-596.025	800.000	-0.056	-0.158
-595.011	-151.263	-0.184	0.014
-593.996	-200.000	0.031	-0.221
-592.982	-132.178	-0.107	-0.014
-591.967	-15.484	-0.155	-0.099
-590.952	-56.168	-0.249	-0.111
-589.938	-11.457	0.289	0.191
-588.923	-9.045	-0.063	0.042
-587.909	800.000	-0.068	-0.238
-586.894	800.000	-0.108	-0.376
-585.879	-200.000	0.011	0.077
-584.865	191.007	0.080	0.121
-583.850	117.655	-0.256	-0.316
-582.836	16.131	-0.135	0.106
-581.821	-127.169	-0.257	0.038
-580.806	-158.481	0.241	-0.014
-579.792	145.730	0.123	-0.166
-578.777	-172.052	0.101	-0.003
-577.763	-200.000	-0.063	0.419
-576.748	-6.684	-0.138	0.094
-575.733	414.698	0.043	-0.092
-574.719	141.444	-0.118	-0.156
-573.704	-61.389	0.032	-0.014
-572.690	-109.449	-0.080	0.017
-571.675	-120.380	0.359	0.061
-570.661	63.943	-0.153	0.154
-569.646	-200.000	-0.069	0.393
-568.631	-200.000	-0.014	0.080
-567.617	800.000	0.066	0.190
-566.602	-200.000	-0.012	0.139
-565.588	-200.000	0.002	0.108
-564.573	-200.000	0.092	-0.469
-563.558	-185.005	-0.103	0.002
-562.544	-139.910	0.279	0.030
-561.529	-111.951	-0.477	0.096
-560.515	-9.646	0.155	-0.104
-559.500	65.604	0.262	0.266
-558.485	-98.508	-0.364	0.093
-557.471	-12.193	-0.267	0.175
-556.456	261.052	-0.070	-0.121
-555.442	390.515	0.127	0.264
-554.427	-14.664	0.100	0.064
-553.412	-22.592	-0.097	-0.059
-552.398	-21.989	0.360	0.219
-551.383	-164.833	-0.284	-0.013
-550.369	8.094	0.127	0.096
-549.354	-97.033	0.089	-0.023
-548.339	-40.235	-0.253	-0.132
-547.325	800.000	-0.027	-0.109
-546.310	-29.780	0.116	-0.066
-545.296	-84.546	-0.502	-0.159
-544.281	-110.170	-0.051	-0.011
-543.266	800.000	0.061	-0.207
-542.252	-154.485	0.322	-0.022
-541.237	-86.278	-0.168	-0.052
-540.223	-200.000	-0.074	-0.371
-539.208	422.583	-0.141	-0.304
-538.193	474.346	0.164	-0.370
-537.179	-93.646	-0.281	-0.078
-536.164	5.584	-0.024	0.018
-535.150	257.118	0.068	-0.118
-534.135	612.182	-0.074	0.186
-533.121	-200.000	0.042	-0.245
-532.106	-81.179	0.244	-0.081
-531.091	-79.947	0.256	0.086
-530.077	272.485	0.112	-0.198
-529.062	800.000	-0.057	-0.171
-528.048	-69.468	-0.194	-0.074
-527.033	-200.000	0.033	-0.164
-526.018	-146.899	0.133	-0.011
-525.004	-200.000	0.207	0.001
-523.989	-3.149	-0.156	0.109
-522.975	-4.069	0.122	0.085
-521.960	-200.000	0.005	-0.180
-520.945	-122.752	-0.207	-0.034
-519.931	-200.000	-0.012	-0.210
-518.916	-200.000	0.031	-0.148
-517.902	557.163	-0.041	-0.099
-516.887	-24.793	-0.237	0.141
-515.872	-118.015	-0.179	-0.032
-514.858	115.389	-0.170	-0.207
-513.843	-200.000	-0.012	-0.215
-512.829	800.000	0.080	0.279
-511.814	-92.988	0.251	0.070
-510.799	96.471	-0.103	0.118
-509.785	381.710	0.110	0.227
-508.770	-200.000	0.330	0.001
-507.756	-72.281	-0.274	0.102
-506.741	27.282	0.066	-0.055
-505.726	800.000	0.052	0.224
-504.712	-48.934	0.138	-0.066
-503.697	-189.679	-0.326	-0.004
-502.683	-134.774	0.593	0.072
-501.668	106.644	-0.280	-0.333
-500.653	-141.997	-0.067	0.007
-499.639	-200.000	-0.008	0.114
-498.624	-61.577	-0.510	-0.214
-497.610	-117.778	-0.033	0.006
-496.595	64.716	0.231	0.233
-495.581	800.000	-0.092	0.256
-494.566	309.328	-0.065	0.121
-493.551	-86.480	0.063	0.019
-492.537	-200.000	0.016	-0.140
-491.522	-103.228	-0.078	0.019
-490.508	-126.834	0.058	-0.009
-489.493	-54.569	-0.212	-0.096
-488.478	6.991	0.390	-0.291
-487.464	616.222	0.105	-0.264
-486.449	217.370	-0.245	-0.390
-485.435	494.270	0.064	-0.147
-484.420	-57.416	0.068	0.030
-483.405	514.327	-0.120	0.279
-482.391	800.000	0.112	-0.313
-481.376	610.407	-0.060	-0.151
-480.362	-200.000	-0.018	0.085
-479.347	158.265	-0.208	-0.288
-478.332	-134.744	0.017	0.002
-477.318	-81.647	-0.314	0.103
-476.303	-124.697	-0.320	-0.049
-475.289	-200.000	-0.052	-0.446
-474.274	49.755	-0.015	-0.014
-473.259	62.372	-0.236	-0.235
-472.245	-200.000	0.022	-0.305
-471.230	-200.000	-0.011	0.120
-470.216	134.990	-0.089	-0.116
-469.201	371.243	-0.120	-0.244
-468.186	800.000	0.005	0.022
-467.172	800.000	0.153	-0.430
-466.157	489.023	-0.277	-0.632
-465.143	-200.000	0.044	0.195
-464.128	-113.794	-0.348	0.068
-463.113	117.198	-0.134	-0.165
-462.099	-19.710	-0.110	0.068
-461.084	-64.496	-0.260	-0.106
-460.070	61.257	0.107	0.106
-459.055	75.163	-0.074	0.078
-458.040	312.047	0.073	0.138
-457.026	461.874	0.138	0.307
-456.011	-174.637	0.068	-0.002
-454.997	321.498	-0.122	0.231
-453.982	-95.613	0.381	0.102
-452.968	-185.528	-0.315	-0.005
-451.953	-200.000	0.061	0.496
-450.938	-126.400	-0.273	-0.041
-449.924	102.373	0.151	0.176
-448.909	800.000	0.032	-0.134
-447.895	-200.000	-0.022	0.287
-446.880	-58.163	0.142	-0.062
-445.865	490.340	-0.033	-0.074
-444.851	108.221	0.044	-0.053
-443.836	55.118	0.098	-0.095
-442.822	-176.637	0.425	-0.011
-441.807	50.196	-0.202	-0.191
-440.792	181.555	0.254	0.373
-439.778	-82.362	-0.361	-0.117
-438.763	-200.000	0.039	0.378
-437.749	165.564	-0.176	0.248
-436.734	-143.086	-0.217	0.021
-435.719	-200.000	-0.002	-0.108
-434.705	-193.550	0.211	-0.002
-433.690	0.402	-0.214	-0.152
-432.676	-200.000	0.014	-0.122
-431.661	-20.181	-0.149	0.092
-430.646	519.227	-0.113	-0.263
-429.632	12.449	0.314	0.241
-428.617	-70.228	0.318	-0.120
-427.603	-94.846	0.309	0.083
-426.588	27.664	-0.230	-0.193
-425.573	-32.828	-0.098	-0.054
-424.559	51.393	-0.169	0.160
-423.544	7.955	-0.236	-0.176
-422.530	800.000	0.015	0.061
-421.515	94.474	-0.092	-0.104
-420.500	-200.000	0.023	-0.503
-419.486	51.222	-0.107	-0.101
-418.471	800.000	-0.023	0.073
-417.457	-200.000	0.011	0.201
-416.442	-175.166	0.230	0.006
-415.428	-200.000	0.057	-0.301
-414.413	495.486	0.050	0.115
-413.398	-121.347	0.114	-0.019
-412.384	64.846	0.180	-0.181
-411.369	-91.599	0.246	-0.070
-410.355	129.989	-0.130	0.166
-409.340	-200.000	-0.030	-0.271
-408.325	-70.754	0.066	0.025
-407.311	97.352	-0.232	0.266
-406.296	129.485	0.182	0.231
-405.282	-200.000	0.008	-0.286
-404.267	-22.318	0.463	-0.279
-403.252	-152.219	0.086	0.006
-402.238	205.841	0.167	0.259
-401.223	-200.000	0.031	-0.176
-400.209	-200.000	0.001	-0.021
-399.194	-165.890	0.087	0.004
-398.179	445.812	-0.118	-0.257
-397.165	-106.960	-0.274	-0.060
-396.150	165.801	-0.090	-0.127
-395.136	-72.835	0.228	-0.084
-394.121	-101.134	-0.343	-0.084
-393.106	-65.325	0.302	-0.121
-392.092	-155.336	-0.167	0.011
-391.077	800.000	-0.003	0.010
-390.063	-56.249	0.055	0.024
-389.048	-109.070	-0.179	-0.038
-388.033	122.520	0.142	0.176
-387.019	-59.267	0.185	0.079
-386.004	800.000	-0.027	0.103
-384.990	-194.284	0.312	0.003
-383.975	-147.924	0.308	0.026
-382.960	800.000	-0.087	-0.244
-381.946	-200.000	0.026	0.427
-380.931	-103.369	0.096	0.023
-379.917	-89.709	0.239	-0.070
-378.902	542.077	0.064	-0.152
-377.888	221.512	0.092	-0.147
-376.873	-110.391	-0.191	-0.039
-375.858	21.294	0.075	0.061
-374.844	-55.497	0.288	0.129
-373.829	-200.000	0.021	0.296
-372.815	54.509	-0.040	0.038
-371.800	-99.719	0.088	-0.022
-370.785	148.220	-0.064	-0.086
-369.771	800.000	-0.005	0.017
-368.756	-111.169	-0.010	-0.002
-367.742	10.920	-0.101	0.076
-366.727	-3.905	0.204	-0.141
-365.712	522.319	-0.128	-0.299
-364.698	-24.010	0.294	-0.175
-363.683	120.799	-0.253	-0.313
-362.669	-35.733	-0.210	0.113
-361.654	-9.333	0.104	0.069
-360.639	-138.990	-0.307	0.033
-359.625	45.593	-0.047	0.043
-358.610	48.533	-0.297	0.277
-357.596	-200.000	0.024	-0.254
-356.581	-200.000	0.027	0.201
-355.566	-93.476	0.345	0.095
-354.552	-200.000	0.000	0.092
-353.537	-66.625	-0.247	-0.097
-352.523	-102.117	0.211	-0.050
-351.508	-152.743	0.163	0.012
-350.493	-171.949	0.248	0.008
-349.479	684.984	-0.042	-0.108
-348.464	100.079	0.085	0.098
-347.450	-14.519	-0.281	0.180
-346.435	29.318	0.163	0.137
-345.420	68.475	0.273	0.278
-344.406	-121.240	0.130	0.022
-343.391	-200.000	-0.029	-0.157
-342.377	-48.932	-0.113	0.054
-341.362	261.394	-0.084	0.144
-340.348	696.904	0.067	-0.175
-339.333	706.065	-0.027	-0.070
-338.318	-31.680	0.140	-0.078
-337.304	-61.260	0.320	-0.134
-336.289	-142.836	0.307	-0.030
-335.275	180.474	0.186	0.272
-334.260	-37.594	-0.425	0.225
-333.245	800.000	0.082	0.323
-332.231	544.756	0.116	0.275
-331.216	39.593	-0.134	0.119
-330.202	-200.000	0.060	0.445
-329.187	-200.000	0.024	0.198
-328.172	-38.474	0.086	-0.045
-327.158	-116.209	0.184	-0.034
-326.143	401.309	-0.147	0.306
-325.129	-102.606	-0.026	-0.006
-324.114	46.781	-0.119	-0.110
-323.099	404.090	0.059	0.124
-322.085	-32.330	0.185	-0.103
-321.070	308.556	-0.074	-0.137
-320.056	-18.370	0.325	-0.202
-319.041	-43.301	0.239	-0.120
-318.026	800.000	-0.111	-0.343
-317.012	800.000	0.017	-0.061
-315.997	-143.565	0.243	0.023
-314.983	-91.740	-0.296	-0.083
-313.968	75.620	-0.218	0.228
-312.953	800.000	0.034	0.148
-311.939	706.354	0.064	0.168
-310.924	800.000	-0.034	-0.139
-309.910	282.107	-0.198	-0.351
-308.895	-149.931	0.177	-0.014
-307.880	2.750	-0.449	0.323
-306.866	800.000	0.074	0.248
-305.851	-143.636	-0.139	0.013
-304.837	87.198	-0.172	0.188
-303.822	67.000	0.030	-0.030
-302.807	-200.000	0.259	-0.000
-301.793	53.144	0.095	0.090
-300.778	800.000	-0.083	0.236
-299.764	576.648	-0.117	0.283
-298.749	469.517	0.082	-0.182
-297.735	178.226	0.115	-0.167
-296.720	482.723	-0.107	-0.242
-295.705	-75.590	0.493	-0.174
-294.691	257.044	0.210	-0.357
-293.676	131.954	-0.073	0.093
-292.662	-200.000	-0.049	0.334
-291.647	24.626	-0.133	0.109
-290.632	-104.713	0.224	0.051
-289.618	-200.000	-0.011	-0.103
-288.603	255.054	-0.074	0.126
-287.589	265.313	-0.094	0.162
-286.574	800.000	0.126	0.364
-285.559	-200.000	-0.034	-0.257
-284.545	-37.656	0.266	-0.141
-283.530	-200.000	0.043	-0.000
-282.516	250.512	-0.032	0.054
-281.501	-200.000	-0.002	-0.017
-280.486	133.219	-0.216	0.276
-279.472	215.452	0.167	0.263
-278.457	-97.941	0.272	0.070
-277.443	37.327	0.268	0.236
-276.428	15.456	0.190	-0.148
-275.413	-200.000	0.063	-0.274
-274.399	-52.296	-0.165	0.076
-273.384	-28.413	0.323	0.185
-272.370	-4.785	0.216	0.148
-271.355	20.174	0.026	-0.021
-270.340	-200.000	0.025	-0.231
-269.326	126.444	0.240	-0.301
-268.311	-200.000	-0.006	0.029
-267.297	-200.000	-0.020	0.188
-266.282	800.000	0.127	0.380
-265.267	800.000	-0.037	0.145
-264.253	-126.901	-0.145	-0.021
-263.238	250.627	-0.141	0.237
-262.224	501.792	0.130	-0.297
-261.209	14.056	0.064	0.049
-260.195	385.185	-0.144	-0.293
-259.180	-82.202	0.224	0.072
-258.165	3.647	0.271	0.196
-257.151	182.246	-0.026	0.039
-256.136	800.000	-0.026	-0.074
-255.122	28.915	-0.137	0.115
-254.107	-62.039	-0.231	-0.096
-253.092	-200.000	-0.018	-0.093
-252.078	244.942	-0.099	-0.164
-251.063	44.421	0.201	0.183
-250.049	474.678	0.172	0.384
-249.034	800.000	-0.055	0.161
-248.019	-114.468	0.185	0.035
-247.005	-76.864	0.286	-0.099
-245.990	-147.697	0.236	-0.020
-244.976	337.971	-0.022	-0.043
-243.961	-146.045	0.153	-0.013
-242.946	-70.897	0.145	-0.054
-241.932	-200.000	-0.009	0.097
-240.917	-174.730	-0.186	-0.005
-239.903	67.403	-0.336	-0.340
-238.888	-105.291	0.222	0.050
-237.873	158.137	0.155	0.212
-236.859	-47.699	0.228	-0.110
-235.844	800.000	0.083	-0.256
-234.830	1.313	-0.096	-0.068
-233.815	-200.000	-0.090	0.479
-232.800	551.590	0.144	0.342
-231.786	-144.846	-0.329	0.030
-230.771	-132.346	0.131	-0.017
-229.757	42.396	-0.218	-0.196
-228.742	-200.000	0.001	-0.422
-227.727	-122.285	0.217	0.035
-226.713	-200.000	0.029	0.129
-225.698	259.049	0.074	-0.127
-224.684	-35.365	0.187	-0.101
-223.669	97.751	0.116	-0.132
-222.655	-82.947	-0.381	0.121
-221.640	-109.672	0.169	0.035
-220.625	-200.000	0.057	0.254
-219.611	638.469	0.101	0.253
-218.596	-111.435	0.246	0.050
-217.582	-91.902	-0.210	-0.059
-216.567	-2.738	-0.044	-0.030
-215.552	-57.088	0.192	-0.084
-214.538	184.974	-0.063	0.092
-213.523	-123.382	0.124	-0.020
-212.509	10.064	-0.128	-0.096
-211.494	-102.771	-0.252	0.059
-210.479	800.000	-0.020	-0.072
-209.465	-116.771	0.129	0.023
-208.450	207.302	0.164	0.253
-207.436	79.331	-0.118	-0.125
-206.421	-1.335	-0.305	0.213
-205.406	89.535	-0.072	-0.079
-204.392	99.762	0.123	-0.141
-203.377	194.668	-0.108	0.162
-202.363	81.074	0.140	-0.150
-201.348	-200.000	0.038	0.377
-200.333	-200.000	-0.026	0.136
-199.319	235.157	-0.077	0.126
-198.304	-76.974	0.135	0.047
-197.290	-200.000	0.003	-0.238
-196.275	99.799	0.142	-0.163
-195.260	-34.665	-0.197	0.106
-194.246	111.108	-0.047	0.056
-193.231	251.030	0.188	-0.316
-192.217	170.084	0.309	-0.436
-191.202	-200.000	-0.001	-0.033
-190.187	244.625	0.061	0.102
-189.173	-187.159	-0.167	-0.002
-188.158	-165.988	-0.077	0.003
-187.144	-77.591	-0.066	0.023
-186.129	-42.889	-0.186	0.094
-185.114	-59.590	-0.328	0.139
-184.100	266.567	-0.033	0.057
-183.085	-114.655	-0.167	-0.031
-182.071	471.161	-0.140	-0.311
-181.056	-43.565	0.071	0.035
-180.042	-200.000	-0.041	-0.239
-179.027	800.000	0.057	-0.162
-178.012	-31.178	-0.401	-0.223
-176.998	-92.430	-0.223	0.062
-175.983	-200.000	0.055	0.390
-174.969	541.236	0.119	0.280
-173.954	-109.360	-0.503	-0.105
-172.939	-119.305	-0.307	-0.053
-171.925	456.496	-0.088	0.194
-170.910	-134.852	0.345	0.041
-169.896	-195.042	0.159	-0.001
-168.881	368.170	-0.125	0.249
-167.866	19.415	-0.052	-0.041
-166.852	-37.746	0.144	-0.076
-165.837	-200.000	-0.019	0.495
-164.823	800.000	-0.091	0.362
-163.808	140.471	-0.099	0.129
-162.793	-200.000	0.016	0.226
-161.779	-79.710	-0.456	0.152
-160.764	800.000	-0.066	0.225
-159.750	-35.308	-0.124	-0.066
-158.735	38.357	-0.129	-0.114
-157.720	-200.000	0.002	0.244
-156.706	-40.564	-0.287	-0.147
-155.691	-200.000	0.035	-0.398
-154.677	51.178	-0.208	0.194
-153.662	800.000	0.108	0.327
-152.647	146.773	-0.136	0.180
-151.633	800.000	-0.030	0.092
-150.618	-152.797	-0.089	-0.006
-149.604	-200.000	-0.091	0.419
-148.589	-126.057	0.175	-0.026
-147.574	667.290	-0.120	0.306
-146.560	67.476	-0.124	-0.125
-145.545	-200.000	0.006	0.218
-144.531	45.676	0.108	0.098
-143.516	-200.000	0.056	-0.389
-142.502	467.023	0.033	0.072
-141.487	137.743	-0.096	-0.124
-140.472	27.435	0.157	0.130
-139.458	-200.000	-0.007	-0.077
-138.443	-96.296	0.158	-0.041
-137.429	-53.056	-0.255	-0.115
-136.414	284.544	0.029	-0.051
-135.399	800.000	0.065	0.220
-134.385	142.740	0.152	0.199
-133.370	-96.066	-0.099	-0.026
-132.356	-126.956	-0.073	0.011
-131.341	212.489	0.191	0.296
-130.326	77.737	-0.114	0.120
-129.312	-200.000	0.003	-0.022
-128.297	314.553	-0.097	-0.180
-127.283	317.390	0.045	-0.084
-126.268	-159.139	0.227	-0.013
-125.253	103.345	-0.166	0.192
-124.239	6.327	0.215	0.157
-123.224	-92.967	-0.257	-0.071
-122.210	-30.581	0.058	0.032
-121.195	-164.018	-0.257	-0.012
-120.180	270.377	0.113	-0.196
-119.166	800.000	-0.122	0.470
-118.151	800.000	0.041	-0.125
-117.137	65.939	0.238	0.238
-116.122	269.247	-0.058	0.100
-115.107	-56.763	-0.182	-0.079
-114.093	-120.778	-0.086	-0.014
-113.078	-200.000	-0.017	-0.181
-112.064	7.926	-0.122	0.090
-111.049	-200.000	0.047	-0.403
-110.034	-88.746	0.309	0.091
-109.020	-200.000	0.078	-0.493
-108.005	-114.754	0.193	-0.036
-106.991	759.017	-0.083	0.221
-105.976	-85.321	0.267	0.082
-104.962	466.916	-0.088	-0.195
-103.947	66.016	0.054	0.054
-102.932	-110.422	0.195	0.040
-101.918	-200.000	0.088	0.384
-100.903	71.150	-0.158	0.161
-99.889	10.019	0.129	-0.096
-98.874	158.462	0.063	-0.087
-97.859	49.033	0.103	0.095
-96.845	112.867	0.073	-0.088
-95.830	71.060	-0.068	0.070
-94.816	-34.880	-0.450	0.242
-93.801	800.000	-0.027	0.075
-92.786	135.856	-0.122	0.156
-91.772	-87.374	0.132	0.039
-90.757	202.676	-0.129	0.195
-89.743	800.000	0.089	-0.307
-88.728	-42.999	-0.162	-0.081
-87.713	365.293	-0.025	-0.050
-86.699	-111.381	-0.307	-0.062
-85.684	-179.188	0.394	-0.009
-84.670	800.000	0.050	0.173
-83.655	-47.784	-0.439	0.209
-82.640	-29.638	0.264	-0.148
-81.626	145.165	-0.100	0.132
-80.611	99.952	0.151	0.172
-79.597	800.000	0.079	-0.216
-78.582	-53.125	0.047	-0.021
-77.567	-63.048	-0.213	0.087
-76.553	-66.661	-0.145	0.056
-75.538	-121.156	0.196	-0.032
-74.524	800.000	-0.138	0.536
-73.509	465.219	-0.084	0.185
-72.494	57.254	0.131	-0.126
-71.480	106.978	0.094	-0.109
-70.465	800.000	-0.082	-0.239
-69.451	800.000	0.067	-0.217
-68.436	-62.447	-0.090	0.037
-67.422	134.492	0.007	-0.010
-66.407	193.582	-0.084	-0.125
-65.392	47.720	-0.149	0.136
-64.378	277.077	-0.095	0.167
-63.363	87.110	0.257	0.280
-62.349	-97.946	0.313	0.079
-61.334	58.496	-0.840	-0.810
-60.319	279.155	0.444	0.778
-59.305	800.000	-0.254	-0.908
-58.290	-200.000	0.281	1.461
-57.276	393.913	0.721	1.476
-56.261	-200.000	103.071	567.595
-55.246	462.315	1450.428	3180.108
-54.232	149.422	2642.710	3515.699
-53.217	108.454	2168.745	2543.333
-52.203	41.719	1609.044	1432.359
-51.188	33.360	1341.979	1144.319
-50.173	30.149	1300.597	1090.142
-49.159	53.956	1351.625	1276.125
-48.144	54.405	1367.986	1294.213
-47.130	33.495	1324.184	1129.769
-46.115	29.925	1307.101	1094.097
-45.100	29.799	1302.106	1089.129
-44.086	29.722	1299.364	1086.341
-43.071	29.735	1296.946	1084.355
-42.057	29.732	1294.684	1082.404
-41.042	29.648	1293.641	1080.996
-40.027	29.704	1291.698	1079.657
-39.013	29.790	1289.661	1078.411
-37.998	29.864	1287.575	1077.056
-36.984	29.901	1285.871	1075.804
-35.969	29.834	1284.551	1074.266
-34.954	29.857	1282.564	1072.697
-33.940	29.908	1281.175	1071.787
-32.925	29.920	1279.927	1070.771
-31.911	29.963	1278.695	1069.947
-30.896	29.950	1277.145	1068.533
-29.881	29.993	1275.712	1067.536
-28.867	30.132	1273.838	1066.725
-27.852	29.901	1273.038	1064.687
-26.838	29.968	1271.381	1063.643
-25.823	29.968	1270.119	1062.543
-24.809	29.917	1269.163	1061.408
-23.794	29.989	1267.596	1060.467
-22.779	29.966	1266.293	1059.204
-21.765	29.944	1265.316	1058.221
-20.750	29.882	1264.155	1056.856
-19.736	29.865	1262.217	1055.093
-18.721	29.801	1261.086	1053.743
-17.706	29.796	1260.225	1052.953
-16.692	29.816	1258.809	1051.842
-15.677	29.822	1257.979	1051.144
-14.663	29.760	1256.868	1049.819
-13.648	29.800	1255.306	1048.697
-12.633	29.800	1255.069	1048.461
-11.619	29.739	1254.284	1047.418
-10.604	29.711	1252.892	1046.054
-9.590	29.818	1251.791	1045.700
-8.575	29.769	1251.104	1044.804
-7.560	29.704	1250.153	1043.604
-6.546	29.787	1249.229	1043.257
-5.531	29.813	1248.060	1042.387
-4.517	29.730	1247.747	1041.616
-3.502	29.838	1246.689	1041.304
-2.487	29.819	1245.556	1040.208
-1.473	29.879	1241.429	1037.056
-0.458	28.837	1227.595	1019.678
0.556	24.571	1211.851	986.835
1.571	21.523	1217.894	974.724
2.586	20.713	1232.411	981.686
3.600	20.475	1221.925	971.912
4.615	18.279	1154.921	906.916
5.629	14.218	1087.830	833.849
6.644	12.121	1069.978	809.749
7.659	12.074	1067.360	807.463
8.673	11.946	1066.141	805.839
9.688	11.850	1065.189	804.576
10.702	12.156	1063.627	804.826
11.717	14.805	1066.383	819.853
12.731	18.041	1070.804	839.098
13.746	18.454	1069.997	840.415
14.761	17.690	1068.660	835.548
15.775	16.566	1066.646	828.399
16.790	15.490	1064.712	821.561
17.804	14.846	1062.769	816.842
18.819	14.403	1061.747	813.822
19.834	14.129	1060.919	811.778
20.848	13.869	1059.825	809.602
21.863	13.703	1059.168	808.221
22.877	13.453	1058.488	806.410
23.892	13.464	1057.416	805.579
24.907	13.452	1056.656	804.867
25.921	13.478	1055.763	804.245
26.936	13.603	1054.565	803.868
27.950	13.708	1052.623	802.822
28.965	13.742	1051.458	802.025
29.980	13.659	1049.932	800.393
30.994	13.742	1048.832	799.882
32.009	13.907	1047.474	799.572
33.023	13.925	1046.357	798.734
34.038	13.629	1045.400	796.513
35.053	13.665	1044.614	796.016
36.067	13.655	1043.742	795.233
37.082	13.654	1042.961	794.562
38.096	13.647	1042.641	794.212
39.111	13.707	1041.650	793.676
40.126	13.607	1040.511	792.260
41.140	13.425	1039.178	790.306
42.155	13.447	1038.286	789.663
43.169	13.425	1037.409	788.819
44.184	13.505	1036.234	788.240
45.199	13.531	1035.117	787.441
46.213	13.523	1033.743	786.288
47.228	13.507	1033.420	785.898
48.242	13.636	1031.943	785.315
49.257	13.519	1031.119	784.068
50.271	13.648	1030.177	783.889
51.286	13.646	1029.320	783.162
52.301	13.661	1028.107	782.240
53.315	13.507	1026.976	780.582
54.330	13.483	1026.018	779.672
55.344	13.616	1025.057	779.498
56.359	13.581	1023.976	778.446
57.374	13.539	1023.102	777.513
58.388	13.468	1022.628	776.750
59.403	13.586	1021.103	776.079
60.417	13.429	1020.950	775.156
61.432	13.331	1019.840	773.785
62.447	13.438	1018.781	773.415
63.461	13.362	1018.388	772.695
64.476	13.352	1017.102	771.603
65.490	13.308	1016.371	770.774
66.505	13.535	1016.009	771.488
67.520	13.524	1015.287	770.822
68.534	13.450	1014.707	769.969
69.549	13.525	1013.583	769.396
70.563	13.539	1012.520	768.585
71.578	13.311	1012.277	767.277
72.593	13.253	1011.452	766.314
73.607	13.325	1010.435	765.808
74.622	13.433	1009.688	765.676
75.636	13.346	1009.423	765.003
76.651	13.425	1008.304	764.453
77.666	13.288	1008.007	763.528
78.680	13.344	1007.253	763.149
79.695	13.351	1006.758	762.736
80.709	13.405	1006.141	762.449
81.724	13.472	1005.328	762.074
82.739	13.418	1004.712	761.294
83.753	13.721	1003.739	761.881
84.768	13.697	1002.852	761.028
85.782	13.870	1001.815	760.971
86.797	13.742	1001.166	759.824
87.812	13.683	1000.188	758.742
88.826	13.584	999.039	757.350
89.841	13.661	998.515	757.237
90.855	13.718	997.307	756.517
91.870	13.694	997.083	756.170
92.884	13.726	996.322	755.669
93.899	13.871	995.031	755.284
94.914	13.849	994.104	754.412
95.928	13.828	993.541	753.824
96.943	13.709	992.482	752.415
97.957	13.756	991.774	752.025
98.972	13.712	991.017	751.183
99.987	13.792	989.796	750.553
101.001	13.768	988.810	749.630
102.016	13.748	988.193	749.008
103.030	13.779	987.541	748.586
104.045	13.653	987.147	747.653
105.060	13.713	985.974	746.969
106.074	13.643	985.299	746.078
107.089	13.606	983.974	744.842
108.103	13.524	982.863	743.569
109.118	13.420	982.213	742.543
110.133	13.632	981.340	742.768
111.147	13.636	980.589	742.151
112.162	13.596	979.364	740.978
113.176	13.574	979.084	740.601
114.191	13.691	978.287	740.457
115.206	13.560	977.458	739.180
116.220	13.445	976.634	737.978
117.235	13.684	975.654	738.237
118.249	13.642	974.870	737.393
119.264	13.566	973.982	736.316
120.279	13.813	972.883	736.517
121.293	13.627	971.916	734.893
122.308	13.456	971.514	733.769
123.322	13.655	969.992	733.437
124.337	13.483	969.457	732.205
125.352	13.611	968.261	731.804
126.366	13.598	967.182	730.863
127.381	13.521	966.398	729.870
128.395	13.523	965.431	729.080
129.410	13.698	964.624	729.178
130.424	13.676	963.613	728.253
131.439	13.618	963.190	727.613
132.454	13.631	962.585	727.150
133.468	13.702	961.630	726.675
134.483	13.706	960.689	725.918
135.497	13.545	960.256	724.822
136.512	13.633	959.446	724.531
137.527	13.631	958.132	723.464
138.541	13.626	957.377	722.807
139.556	13.623	956.680	722.208
140.570	13.740	956.359	722.410
141.585	13.835	955.240	721.913
142.600	13.785	954.478	721.058
143.614	13.796	953.901	720.607
144.629	13.922	953.068	720.456
145.643	13.764	952.140	719.008
146.658	13.917	950.740	718.551
147.673	13.803	950.399	717.735
148.687	13.652	949.784	716.556
149.702	13.628	948.754	715.608
150.716	13.587	948.121	714.893
151.731	13.750	947.376	714.970
152.746	13.750	946.589	714.313
153.760	13.811	945.865	713.968
154.775	13.879	945.157	713.659
155.789	13.822	944.981	713.220
156.804	13.858	943.972	712.549
157.819	13.844	943.777	712.279
158.833	13.962	942.715	711.918
159.848	13.939	941.918	711.157
160.862	13.980	941.288	710.793
161.877	13.840	939.870	709.065
162.892	13.809	939.336	708.465
163.906	13.865	938.039	707.661
164.921	13.807	937.255	706.763
165.935	13.896	936.446	706.468
166.950	14.019	935.327	706.085
167.964	13.871	934.861	705.040
168.979	13.871	933.673	704.084
169.994	13.856	933.339	703.703
171.008	14.023	932.209	703.497
172.023	14.043	931.471	702.961
173.037	14.138	930.819	702.808
174.052	13.977	930.494	701.821
175.067	13.850	929.848	700.735
176.081	13.880	928.792	700.006
177.096	13.956	928.180	699.801
178.110	14.008	928.052	699.863
179.125	14.058	927.235	699.397
180.140	14.077	926.456	698.823
181.154	14.052	926.086	698.380
182.169	14.131	925.968	698.559
183.183	14.090	925.464	697.945
184.198	14.170	923.950	697.077
185.213	14.206	923.307	696.683
186.227	14.197	922.803	696.200
187.242	14.311	922.368	696.289
188.256	14.271	921.634	695.506
189.271	14.317	921.153	695.273
190.286	14.176	920.416	694.069
191.300	14.108	919.655	693.152
192.315	13.887	919.297	691.899
193.329	14.020	918.482	691.775
194.344	14.076	918.096	691.659
195.359	14.280	916.877	691.526
196.373	14.251	916.922	691.378
197.388	14.259	916.347	690.915
198.402	14.406	915.668	690.954
199.417	14.305	915.252	690.160
200.432	14.531	914.379	690.376
201.446	14.473	914.382	690.077
202.461	14.511	913.464	689.479
203.475	14.432	913.303	688.969
204.490	14.417	911.928	687.811
205.504	14.431	911.411	687.418
206.519	14.341	910.810	686.532
207.534	14.316	909.986	685.748
208.548	14.263	909.509	685.110
209.563	14.390	908.492	684.803
210.577	14.506	907.759	684.667
211.592	14.626	907.190	684.669
212.607	14.686	906.265	684.156
213.621	14.648	905.609	683.446
214.636	14.600	904.990	682.724
215.650	14.591	904.174	682.009
216.665	14.678	903.422	681.735
217.680	14.617	903.203	681.264
218.694	14.633	902.546	680.774
219.709	14.710	901.600	680.312
220.723	14.655	901.163	679.696
221.738	14.655	900.448	679.099
222.753	14.706	899.438	678.484
223.767	14.796	898.879	678.368
224.782	14.845	898.817	678.461
225.796	14.821	898.312	677.923
226.811	14.731	897.691	677.028
227.826	14.740	897.189	676.625
228.840	14.694	895.825	675.350
229.855	14.830	894.863	675.117
230.869	14.714	894.507	674.319
231.884	14.743	893.497	673.616
232.899	14.620	893.179	672.821
233.913	14.640	892.458	672.299
234.928	14.638	891.855	671.778
235.942	14.701	891.157	671.445
236.957	14.731	890.634	671.111
237.972	14.677	890.300	670.582
238.986	14.741	889.472	670.157
240.001	14.818	888.908	669.983
241.015	14.788	888.497	669.493
242.030	14.803	887.972	669.096
243.045	14.786	887.387	668.530
244.059	14.943	886.737	668.609
245.074	14.781	886.387	667.638
246.088	14.915	885.331	667.317
247.103	15.010	884.531	667.035
248.117	14.974	884.578	666.867
249.132	15.046	883.886	666.575
250.147	15.116	883.567	666.552
251.161	15.230	882.430	666.089
252.176	15.308	881.807	665.868
253.190	15.261	881.127	665.111
254.205	15.255	880.719	664.720
255.220	15.243	880.256	664.263
256.234	15.262	879.406	663.638
257.249	15.393	878.073	663.091
258.263	15.323	877.486	662.313
259.278	15.331	877.207	662.079
260.293	15.499	876.388	662.062
261.307	15.383	876.386	661.545
262.322	15.356	875.579	660.770
263.336	15.544	874.642	660.744
264.351	15.402	874.159	659.762
265.366	15.447	873.366	659.284
266.380	15.477	872.959	659.033
267.395	15.358	872.375	658.068
268.409	15.457	871.633	657.838
269.424	15.467	870.745	657.148
270.439	15.432	870.222	656.560
271.453	15.504	869.302	656.091
272.468	15.339	868.970	655.137
273.482	15.390	868.774	655.128
274.497	15.473	867.831	654.685
275.512	15.395	867.357	653.964
276.526	15.616	866.845	654.381
277.541	15.507	866.855	653.908
278.555	15.534	865.865	653.207
279.570	15.735	865.085	653.342
280.585	15.859	864.016	652.959
281.599	15.671	863.350	651.667
282.614	15.593	862.757	650.860
283.628	15.633	862.302	650.615
284.643	15.642	861.696	650.134
285.657	15.581	861.325	649.561
286.672	15.827	860.438	649.785
287.687	15.734	859.762	648.859
288.701	15.827	859.266	648.783
289.716	15.726	859.034	648.162
290.730	15.927	857.791	647.943
291.745	15.823	857.585	647.328
292.760	15.800	856.954	646.708
293.774	15.803	856.469	646.294
294.789	15.941	855.717	646.202
295.803	15.923	854.738	645.334
296.818	15.837	854.389	644.686
297.833	15.884	853.523	644.155
298.847	15.758	853.427	643.543
299.862	15.809	852.733	643.155
300.876	15.871	852.214	642.945
301.891	15.887	851.648	642.524
302.906	16.026	850.911	642.438
303.920	16.021	850.896	642.351
304.935	16.014	850.078	641.651
305.949	16.049	849.472	641.270
306.964	15.921	848.799	640.218
307.979	16.001	848.520	640.256
308.993	15.943	847.913	639.522
310.008	16.115	847.104	639.506
311.022	16.133	846.524	639.082
312.037	16.035	846.038	638.286
313.052	16.032	845.347	637.698
314.066	16.138	844.580	637.461
315.081	16.108	844.028	636.875
316.095	16.100	843.711	636.551
317.110	16.214	842.830	636.259
318.125	16.138	842.287	635.507
319.139	16.024	842.568	635.234
320.154	16.056	842.068	634.919
321.168	16.099	841.095	634.291
322.183	16.213	840.377	634.123
323.197	16.188	840.062	633.733
324.212	16.226	839.262	633.218
325.227	16.264	838.724	632.898
326.241	16.213	837.960	632.076
327.256	16.087	837.980	631.562
328.270	16.234	837.214	631.477
329.285	16.193	836.443	630.690
330.300	16.219	835.878	630.303
331.314	16.139	835.846	629.923
332.329	16.306	835.359	630.126
333.343	16.336	834.626	629.629
334.358	16.424	834.277	629.639
335.373	16.489	833.896	629.537
336.387	16.527	833.356	629.214
337.402	16.534	833.391	629.212
338.416	16.345	833.372	628.437
339.431	16.404	833.010	628.329
340.446	16.596	832.202	628.377
341.460	16.583	831.625	627.836
342.475	16.423	831.874	627.376
343.489	16.539	831.173	627.221
344.504	16.588	830.535	626.867
345.519	16.752	829.950	626.977
346.533	16.695	829.850	626.634
347.548	16.633	828.861	625.604
348.562	16.567	828.315	624.893
349.577	16.578	827.696	624.408
350.592	16.570	827.065	623.850
351.606	16.663	826.109	623.417
352.621	16.610	825.832	622.956
353.635	16.673	825.187	622.645
354.650	16.676	824.566	622.135
355.665	16.769	823.876	621.897
356.679	16.757	823.299	621.363
357.694	16.775	822.267	620.598
358.708	16.771	822.013	620.337
359.723	16.747	821.336	619.682
360.738	16.748	821.125	619.470
361.752	16.846	820.383	619.215
362.767	16.947	819.884	619.151
363.781	16.899	819.428	618.576
364.796	16.849	819.153	618.135
365.810	16.889	818.827	617.979
366.825	16.981	818.178	617.769
367.840	17.071	817.712	617.691
368.854	16.976	817.072	616.808
369.869	16.869	816.912	616.242
370.883	16.992	816.597	616.399
371.898	17.031	816.006	616.037
372.913	17.136	815.355	615.872
373.927	17.044	815.146	615.326
374.942	17.088	814.605	615.025
375.956	17.199	814.039	614.946
376.971	17.227	813.989	614.954
377.986	17.145	813.475	614.212
379.000	17.226	812.974	614.072
380.015	17.278	812.399	613.773
381.029	17.405	811.811	613.734
382.044	17.398	811.414	613.355
383.059	17.337	810.780	612.599
384.073	17.301	810.171	611.954
385.088	17.335	809.251	611.330
386.102	17.323	808.566	610.715
387.117	17.127	808.282	609.742
388.132	17.263	807.896	609.886
389.146	17.287	807.506	609.623
390.161	17.390	806.884	609.467
391.175	17.381	806.335	608.968
392.190	17.162	806.419	608.193
393.205	17.424	805.535	608.409
394.219	17.258	805.128	607.453
395.234	17.251	804.741	607.085
396.248	17.174	804.356	606.465
397.263	17.168	803.804	605.972
398.278	17.304	803.529	606.196
399.292	17.182	802.929	605.256
400.307	17.348	802.416	605.408
401.321	17.323	801.919	604.888
402.336	17.318	801.697	604.653
403.350	17.338	801.185	604.281
404.365	17.492	800.843	604.519
405.380	17.526	800.458	604.295
406.394	17.578	799.917	604.016
407.409	17.458	799.730	603.397
408.423	17.597	799.184	603.425
409.438	17.643	798.848	603.280
410.453	17.499	798.439	602.409
411.467	17.553	798.069	602.265
412.482	17.723	797.560	602.431
413.496	17.856	796.843	602.304
414.511	17.864	796.536	602.046
415.526	17.836	795.891	601.408
416.540	17.814	795.500	600.983
417.555	17.965	794.908	601.013
418.569	17.807	794.801	600.322
419.584	17.779	794.715	600.107
420.599	17.856	794.091	599.853
421.613	109.903	1289.947	1467.778
422.628	94.486	1362.170	1467.873
