DTS Sentinel unit serial number:	SN413079Multiplexer serial number:	ORYXHardware model number:	OX4-SRSoftware version number:	ORYX F/W v4.00 Oryx Data Collector v3.7.2.0data status	okinstallation	princeton_trtdifferential loss correction	single-endedforward channel	channel 1reverse channel	N/Adate	2019/09/12time	15:32:11forward acquisition time	60.00reverse acquisition time	0.00gamma	496.2192k internal	0.2293k external	0.2293temperature offset calibration	1.0068default loss term (dB/km)	0.3790temperature slope calibration	1.0000multiplexer offset coefficient	1.0000multiplexer slope coefficient	1.0000fibre end	0.00T internal ref (°C)	40.52T ext. ref 1 (°C)	2.42T ext. ref 2 (°C)	33.63length (m)	temperature (°C)	Stokes	anti-Stokes-747.200	-200.000	0.003	0.027
-746.185	800.000	0.065	0.220
-745.171	-50.426	0.186	-0.090
-744.156	-179.788	-0.065	0.001
-743.142	44.308	0.066	-0.062
-742.127	-200.000	-0.007	0.117
-741.112	-146.654	-0.395	-0.035
-740.098	800.000	-0.123	0.436
-739.083	325.127	-0.064	-0.125
-738.069	196.489	0.188	0.294
-737.054	140.477	0.074	0.100
-736.039	83.071	-0.159	0.177
-735.025	-121.442	0.163	0.028
-734.010	-109.520	-0.330	-0.071
-732.996	-148.185	-0.168	-0.014
-731.981	129.631	-0.144	0.188
-730.966	-200.000	-0.000	-0.130
-729.952	-15.311	-0.275	0.180
-728.937	-162.463	0.208	-0.011
-727.923	-114.370	0.098	0.019
-726.908	-200.000	0.001	-0.008
-725.894	-29.189	-0.173	0.101
-724.879	-37.430	-0.182	0.100
-723.864	-18.078	0.079	0.050
-722.850	-31.980	-0.286	-0.164
-721.835	-2.209	-0.388	-0.278
-720.821	775.594	-0.057	-0.160
-719.806	-119.871	-0.158	-0.028
-718.791	35.024	-0.252	0.225
-717.777	-200.000	0.003	-0.019
-716.762	-13.344	-0.105	-0.070
-715.748	262.036	0.097	0.171
-714.733	-148.584	-0.360	0.030
-713.718	27.103	0.367	0.314
-712.704	-99.716	-0.323	-0.083
-711.689	32.398	-0.246	-0.217
-710.675	172.737	0.102	-0.150
-709.660	491.295	0.117	0.274
-708.645	32.574	0.093	-0.082
-707.631	270.411	0.316	-0.567
-706.616	-122.075	-0.147	-0.025
-705.602	40.295	-0.182	0.168
-704.587	-58.813	-0.044	-0.019
-703.572	-200.000	0.027	0.389
-702.558	-81.701	-0.234	-0.078
-701.543	-200.000	-0.016	-0.114
-700.529	241.167	0.075	0.127
-699.514	-34.697	-0.278	0.156
-698.499	-200.000	0.030	-0.364
-697.485	131.525	0.056	-0.074
-696.470	71.309	-0.242	-0.256
-695.456	51.936	0.127	-0.124
-694.441	-8.596	0.357	-0.245
-693.426	-120.399	0.076	-0.013
-692.412	403.332	-0.143	0.308
-691.397	-44.877	-0.315	-0.160
-690.383	-200.000	-0.004	0.034
-689.368	68.337	0.260	0.272
-688.354	-69.164	-0.189	-0.074
-687.339	36.033	0.123	-0.110
-686.324	800.000	-0.033	-0.136
-685.310	-200.000	-0.023	0.229
-684.295	-128.235	-0.092	0.013
-683.281	-112.677	0.307	-0.062
-682.266	-128.154	-0.115	-0.017
-681.251	204.558	0.068	0.107
-680.237	-74.128	-0.396	-0.146
-679.222	69.353	0.075	-0.079
-678.208	195.319	-0.060	0.093
-677.193	42.571	0.203	0.188
-676.178	-200.000	0.007	-0.060
-675.164	-79.377	-0.273	0.094
-674.149	191.342	-0.139	-0.214
-673.135	-23.137	0.045	-0.027
-672.120	-132.708	0.078	-0.010
-671.105	360.527	0.084	-0.172
-670.091	-45.027	0.063	-0.032
-669.076	133.221	0.102	-0.134
-668.062	-64.930	0.252	-0.104
-667.047	-180.768	-0.388	-0.008
-666.032	-35.554	0.024	-0.013
-665.018	-18.243	0.072	0.046
-664.003	-6.304	0.439	-0.306
-662.989	-76.814	0.176	-0.063
-661.974	-200.000	0.042	-0.264
-660.959	800.000	-0.015	0.049
-659.945	218.632	-0.170	0.277
-658.930	-169.123	0.221	-0.008
-657.916	26.502	-0.124	0.106
-656.901	-13.616	-0.092	0.061
-655.886	-140.037	-0.078	0.008
-654.872	271.276	0.229	-0.411
-653.857	-171.503	-0.398	-0.013
-652.843	800.000	-0.047	-0.192
-651.828	28.634	-0.263	-0.227
-650.814	-101.823	0.210	-0.052
-649.799	-144.877	0.152	0.014
-648.784	-200.000	-0.013	0.188
-647.770	-126.967	0.267	0.040
-646.755	-4.739	0.028	-0.020
-645.741	800.000	0.026	0.090
-644.726	692.764	-0.070	-0.186
-643.711	-5.181	0.074	0.052
-642.697	59.978	-0.248	-0.249
-641.682	-83.436	-0.163	0.053
-640.668	-85.334	0.151	0.048
-639.653	-50.523	-0.117	0.056
-638.638	10.165	0.146	-0.113
-637.624	31.347	0.141	-0.123
-636.609	424.848	0.118	-0.259
-635.595	159.985	0.166	-0.236
-634.580	-200.000	0.043	-0.216
-633.565	-153.336	0.194	-0.014
-632.551	-200.000	-0.007	-0.416
-631.536	794.557	-0.137	-0.383
-630.522	-93.487	-0.263	-0.074
-629.507	-124.811	-0.345	0.054
-628.492	800.000	0.077	0.268
-627.478	-134.264	0.088	0.011
-626.463	29.549	0.192	-0.166
-625.449	65.911	0.081	-0.083
-624.434	-200.000	0.036	-0.184
-623.419	-200.000	0.023	0.159
-622.405	135.665	-0.012	0.016
-621.390	4.544	0.104	-0.078
-620.376	487.388	-0.108	0.252
-619.361	246.141	0.111	0.191
-618.346	-200.000	0.055	-0.273
-617.332	27.738	0.157	0.135
-616.317	-200.000	-0.012	0.066
-615.303	61.682	-0.125	0.126
-614.288	-200.000	0.018	0.083
-613.273	-36.386	-0.087	-0.048
-612.259	-200.000	-0.049	-0.271
-611.244	-102.831	-0.309	-0.075
-610.230	-175.357	0.206	0.006
-609.215	-200.000	-0.034	-0.253
-608.201	-187.351	-0.311	0.004
-607.186	-39.852	-0.160	-0.085
-606.171	264.496	-0.055	-0.098
-605.157	-200.000	-0.039	-0.449
-604.142	178.676	-0.154	0.230
-603.128	12.969	0.280	0.220
-602.113	-53.553	0.218	-0.101
-601.098	-191.147	0.059	0.001
-600.084	-200.000	-0.019	-0.098
-599.069	-3.623	0.156	0.110
-598.055	-200.000	-0.012	0.325
-597.040	-200.000	-0.014	-0.238
-596.025	800.000	0.049	-0.213
-595.011	596.397	-0.061	0.155
-593.996	242.322	0.067	-0.114
-592.982	800.000	0.056	-0.220
-591.967	106.870	0.136	0.164
-590.952	-74.081	-0.277	-0.102
-589.938	800.000	0.033	-0.120
-588.923	7.942	0.144	0.110
-587.909	57.411	0.307	0.305
-586.894	118.829	-0.151	0.190
-585.879	320.677	-0.103	0.199
-584.865	16.324	0.169	0.136
-583.850	278.261	-0.230	-0.416
-582.836	112.590	0.190	-0.234
-581.821	800.000	0.021	-0.075
-580.806	59.056	-0.160	0.160
-579.792	658.486	-0.148	0.388
-578.777	800.000	-0.060	-0.261
-577.763	457.637	0.025	0.055
-576.748	-3.205	-0.420	0.298
-575.733	-113.761	-0.288	0.057
-574.719	66.577	0.043	-0.045
-573.704	-92.712	0.180	-0.051
-572.690	453.550	-0.030	-0.068
-571.675	34.968	-0.103	-0.092
-570.661	-123.147	0.125	0.020
-569.646	506.880	-0.034	0.080
-568.631	106.156	-0.080	-0.097
-567.617	234.898	0.090	-0.151
-566.602	-119.872	0.185	0.032
-565.588	297.086	-0.171	-0.319
-564.573	-143.158	-0.211	0.021
-563.558	-200.000	-0.031	0.200
-562.544	-68.831	0.373	0.146
-561.529	679.519	-0.098	-0.260
-560.515	240.663	0.193	0.327
-559.500	-200.000	-0.007	-0.198
-558.485	654.115	0.059	0.153
-557.471	140.264	0.088	-0.117
-556.456	24.684	0.153	-0.129
-555.442	84.594	0.252	0.281
-554.427	7.315	-0.311	-0.236
-553.412	-58.690	0.436	-0.192
-552.398	-55.889	-0.096	-0.044
-551.383	-49.611	-0.239	0.115
-550.369	134.532	-0.100	-0.131
-549.354	-41.496	0.051	0.027
-548.339	-114.658	-0.209	-0.041
-547.325	800.000	0.088	0.288
-546.310	42.920	-0.041	0.038
-545.296	56.477	-0.247	0.244
-544.281	172.631	0.166	-0.243
-543.266	124.991	0.054	-0.069
-542.252	-59.079	0.208	0.091
-541.237	33.903	-0.164	-0.145
-540.223	-34.420	0.255	-0.142
-539.208	-200.000	0.007	0.048
-538.193	-191.300	0.155	-0.002
-537.179	800.000	-0.056	0.233
-536.164	800.000	0.049	0.139
-535.150	-200.000	-0.018	0.177
-534.135	24.930	-0.346	0.291
-533.121	700.040	0.053	-0.143
-532.106	800.000	-0.114	-0.366
-531.091	492.981	-0.042	-0.099
-530.077	225.259	0.030	0.050
-529.062	-36.611	-0.306	-0.167
-528.048	-144.213	-0.212	0.020
-527.033	800.000	-0.070	-0.234
-526.018	-106.792	0.105	0.024
-525.004	558.986	0.011	-0.026
-523.989	-15.801	0.096	0.062
-522.975	-8.284	-0.133	-0.091
-521.960	117.090	-0.235	-0.293
-520.945	800.000	0.035	-0.145
-519.931	-86.910	-0.281	-0.087
-518.916	-200.000	-0.029	0.382
-517.902	-48.129	0.272	-0.133
-516.887	-79.761	0.329	0.112
-515.872	-86.299	-0.398	-0.124
-514.858	29.453	-0.188	0.162
-513.843	-46.556	-0.098	0.049
-512.829	-102.725	0.112	0.027
-511.814	34.046	0.301	-0.266
-510.799	-86.493	-0.152	-0.047
-509.785	66.973	0.063	-0.065
-508.770	-200.000	0.025	0.276
-507.756	-26.967	0.149	-0.088
-506.741	-110.195	-0.477	-0.101
-505.726	800.000	0.075	0.223
-504.712	2.312	0.113	0.083
-503.697	-171.542	0.058	0.002
-502.683	-200.000	0.067	0.363
-501.668	174.166	-0.083	0.121
-500.653	-83.468	0.068	-0.022
-499.639	202.700	0.068	0.106
-498.624	29.001	-0.260	0.224
-497.610	9.976	-0.224	0.173
-496.595	684.523	-0.067	0.176
-495.581	-102.227	0.193	-0.047
-494.566	156.875	0.222	-0.311
-493.551	-193.382	-0.216	-0.002
-492.537	339.498	0.020	0.039
-491.522	69.896	0.169	0.177
-490.508	607.273	-0.058	-0.147
-489.493	195.491	0.144	-0.221
-488.478	62.538	0.118	0.120
-487.464	-25.686	0.027	0.016
-486.449	800.000	0.117	-0.356
-485.435	-136.990	-0.079	-0.009
-484.420	227.891	-0.043	-0.072
-483.405	-132.853	-0.074	0.010
-482.391	37.279	0.291	0.261
-481.376	193.325	0.182	0.279
-480.362	-200.000	0.001	0.019
-479.347	-200.000	-0.022	-0.134
-478.332	435.541	-0.114	-0.251
-477.318	210.620	-0.033	-0.053
-476.303	-100.220	0.183	-0.046
-475.289	204.292	-0.069	-0.108
-474.274	-99.784	-0.009	0.002
-473.259	-25.664	0.102	0.061
-472.245	-54.681	-0.169	0.078
-471.230	38.438	-0.224	0.203
-470.216	-148.377	0.037	0.003
-469.201	-9.551	-0.163	0.110
-468.186	-6.721	0.126	0.087
-467.172	118.063	0.142	-0.177
-466.157	-54.663	-0.250	0.114
-465.143	43.663	0.152	0.141
-464.128	-200.000	0.022	0.189
-463.113	-78.923	-0.241	0.083
-462.099	171.205	-0.167	-0.243
-461.084	-200.000	-0.026	0.216
-460.070	800.000	0.041	-0.171
-459.055	324.931	-0.108	-0.209
-458.040	211.629	0.036	0.057
-457.026	132.122	0.115	0.150
-456.011	-200.000	0.071	-0.350
-454.997	181.942	0.158	0.236
-453.982	192.481	0.184	-0.280
-452.968	-108.643	-0.181	0.039
-451.953	-52.914	0.157	-0.073
-450.938	800.000	-0.102	-0.341
-449.924	-120.998	-0.262	0.045
-448.909	800.000	0.046	-0.130
-447.895	469.943	0.072	0.163
-446.880	-189.188	-0.299	0.004
-445.865	-52.898	-0.072	-0.034
-444.851	52.377	-0.084	0.081
-443.836	-26.310	-0.185	-0.110
-442.822	199.712	0.051	0.079
-441.807	-110.909	-0.098	-0.020
-440.792	114.213	0.224	0.275
-439.778	-66.762	0.092	0.037
-438.763	-200.000	0.008	0.160
-437.749	-65.901	0.054	-0.022
-436.734	134.220	0.096	-0.125
-435.719	13.260	0.233	0.183
-434.705	6.682	0.106	0.080
-433.690	800.000	0.059	0.184
-432.676	130.166	0.116	-0.150
-431.661	357.150	-0.084	0.170
-430.646	144.909	-0.043	-0.058
-429.632	-200.000	-0.013	0.117
-428.617	108.408	0.229	0.277
-427.603	50.698	0.354	0.339
-426.588	468.940	-0.123	0.280
-425.573	-24.623	-0.160	-0.096
-424.559	800.000	-0.097	-0.320
-423.544	-87.326	0.330	-0.101
-422.530	146.710	0.094	0.128
-421.515	-82.981	0.201	0.066
-420.500	-69.329	-0.162	-0.063
-419.486	-35.859	0.297	0.162
-418.471	194.033	0.313	0.479
-417.457	-200.000	0.045	0.206
-416.442	187.095	0.237	-0.357
-415.428	732.477	0.087	-0.234
-414.413	2.839	-0.224	0.164
-413.398	800.000	0.130	0.382
-412.384	800.000	0.074	-0.245
-411.369	-106.960	-0.139	0.031
-410.355	-40.141	-0.085	-0.045
-409.340	84.201	-0.058	-0.064
-408.325	800.000	-0.019	-0.069
-407.311	11.732	0.180	0.139
-406.296	180.690	-0.022	-0.033
-405.282	-158.162	-0.271	0.016
-404.267	-116.338	0.273	-0.051
-403.252	-115.945	-0.169	0.032
-402.238	62.733	0.064	0.065
-401.223	735.024	-0.192	0.519
-400.209	-123.391	0.039	0.006
-399.194	800.000	-0.078	0.294
-398.179	-138.350	0.446	0.050
-397.165	780.688	0.075	0.207
-396.150	454.847	-0.009	-0.021
-395.136	666.413	0.119	0.312
-394.121	-106.659	0.357	0.080
-393.106	-112.246	-0.337	-0.068
-392.092	200.547	0.191	-0.296
-391.077	171.044	-0.128	0.185
-390.063	800.000	0.022	-0.091
-389.048	-17.151	0.180	-0.115
-388.033	-163.269	-0.403	0.019
-387.019	530.265	0.058	0.138
-386.004	-115.959	-0.256	0.048
-384.990	-200.000	0.018	-0.152
-383.975	601.409	-0.019	0.047
-382.960	43.289	-0.153	0.141
-381.946	-87.087	0.129	-0.040
-380.931	428.457	0.284	-0.619
-379.917	251.711	-0.105	0.180
-378.902	-95.075	-0.336	-0.091
-377.888	-147.523	-0.149	0.013
-376.873	-108.102	0.183	-0.040
-375.858	119.911	0.244	0.305
-374.844	21.904	0.287	0.236
-373.829	32.221	0.184	-0.160
-372.815	-49.233	0.153	0.074
-371.800	-12.402	-0.380	0.251
-370.785	-200.000	0.021	-0.136
-369.771	265.820	-0.055	0.097
-368.756	267.531	0.087	0.153
-367.742	209.168	-0.102	-0.162
-366.727	-123.855	0.242	0.038
-365.712	-22.165	-0.263	-0.161
-364.698	11.270	-0.367	-0.284
-363.683	-179.928	-0.029	0.001
-362.669	5.246	-0.213	0.159
-361.654	800.000	0.044	-0.137
-360.639	-154.130	0.186	-0.013
-359.625	123.019	0.127	-0.160
-358.610	-105.097	-0.249	-0.057
-357.596	800.000	0.038	0.126
-356.581	-159.701	0.134	-0.007
-355.566	-78.587	0.160	-0.055
-354.552	-40.418	0.229	-0.120
-353.537	-58.538	-0.174	0.076
-352.523	-200.000	0.053	0.498
-351.508	97.991	0.145	0.168
-350.493	-200.000	0.023	0.212
-349.479	109.421	0.156	0.188
-348.464	43.907	-0.220	0.203
-347.450	29.016	0.261	-0.223
-346.435	800.000	-0.090	-0.345
-345.420	-94.731	-0.038	-0.011
-344.406	-6.902	0.061	0.042
-343.391	-200.000	-0.013	0.149
-342.377	-10.468	0.214	-0.143
-341.362	133.767	-0.222	-0.289
-340.348	-38.784	-0.109	-0.058
-339.333	-200.000	-0.002	0.057
-338.318	7.675	0.195	-0.147
-337.304	-136.901	-0.333	-0.038
-336.289	-25.311	0.131	0.078
-335.275	800.000	0.097	0.283
-334.260	-74.139	0.278	-0.101
-333.245	800.000	-0.075	-0.301
-332.231	800.000	0.107	0.306
-331.216	498.222	-0.057	-0.132
-330.202	800.000	-0.046	0.127
-329.187	800.000	0.012	0.053
-328.172	-35.514	-0.144	0.079
-327.158	-99.193	-0.351	-0.089
-326.143	4.686	-0.049	0.036
-325.129	-200.000	0.030	0.256
-324.114	219.876	-0.097	0.156
-323.099	-33.573	0.320	-0.178
-322.085	-59.497	-0.082	-0.035
-321.070	-118.239	-0.238	0.043
-320.056	-79.758	-0.216	0.073
-319.041	87.079	-0.146	-0.162
-318.026	22.072	0.272	-0.223
-317.012	164.661	0.067	0.095
-315.997	282.728	0.114	-0.207
-314.983	-200.000	0.116	-0.521
-313.968	-200.000	-0.046	-0.323
-312.953	-13.152	0.052	-0.034
-311.939	-69.185	-0.324	0.125
-310.924	152.142	-0.087	0.119
-309.910	32.566	0.151	-0.131
-308.895	-200.000	0.015	0.079
-307.880	-93.676	-0.277	0.077
-306.866	175.894	0.117	-0.170
-305.851	-77.011	0.167	-0.059
-304.837	-27.746	0.191	-0.112
-303.822	-150.532	0.244	-0.019
-302.807	148.753	0.029	-0.040
-301.793	227.674	-0.177	0.289
-300.778	230.259	-0.093	0.153
-299.764	254.758	0.012	0.020
-298.749	800.000	-0.067	0.290
-297.735	-30.724	-0.378	0.215
-296.720	28.963	0.172	-0.147
-295.705	-200.000	0.001	-0.009
-294.691	-200.000	0.018	0.305
-293.676	-55.147	0.284	0.128
-292.662	-70.201	0.384	0.147
-291.647	-200.000	-0.021	0.254
-290.632	-156.098	-0.167	0.011
-289.618	147.667	0.226	-0.306
-288.603	416.533	-0.145	-0.310
-287.589	-55.528	-0.240	-0.108
-286.574	243.231	-0.097	-0.163
-285.559	-21.384	-0.103	-0.063
-284.545	-200.000	-0.065	0.306
-283.530	-19.715	-0.070	0.043
-282.516	-200.000	-0.008	-0.222
-281.501	-112.707	-0.442	0.088
-280.486	264.446	-0.104	-0.182
-279.472	800.000	-0.103	-0.296
-278.457	-200.000	-0.023	-0.115
-277.443	-200.000	-0.020	-0.171
-276.428	2.234	-0.072	0.052
-275.413	-200.000	-0.051	-0.400
-274.399	-115.498	-0.237	0.045
-273.384	165.409	0.038	0.055
-272.370	-39.139	0.393	0.208
-271.355	185.882	-0.100	-0.149
-270.340	-136.941	0.258	0.030
-269.326	-200.000	-0.048	-0.238
-268.311	-172.535	0.135	-0.004
-267.297	47.740	-0.133	0.125
-266.282	-102.009	0.262	-0.063
-265.267	9.276	-0.256	0.195
-264.253	557.609	-0.099	0.240
-263.238	290.657	-0.060	-0.109
-262.224	-190.078	0.223	-0.002
-261.209	222.094	-0.142	0.230
-260.195	-69.115	-0.187	0.072
-259.180	-4.320	0.046	0.032
-258.165	68.361	0.301	0.310
-257.151	-200.000	-0.015	-0.378
-256.136	541.263	-0.096	0.230
-255.122	218.147	-0.090	0.144
-254.107	-200.000	0.014	0.263
-253.092	-200.000	0.002	0.252
-252.078	428.386	-0.076	-0.165
-251.063	28.009	0.067	-0.057
-250.049	800.000	0.023	0.091
-249.034	-67.018	-0.033	0.013
-248.019	111.168	-0.071	0.085
-247.005	-185.021	-0.182	-0.003
-245.990	54.767	-0.097	0.094
-244.976	-84.850	0.120	0.038
-243.961	-102.955	0.137	-0.033
-242.946	240.895	0.077	-0.130
-241.932	-67.979	-0.163	0.064
-240.917	196.837	0.007	-0.010
-239.903	27.711	-0.070	-0.059
-238.888	-116.980	-0.210	-0.039
-237.873	-200.000	-0.038	0.192
-236.859	-200.000	0.004	-0.238
-235.844	-200.000	0.023	-0.361
-234.830	-132.148	-0.102	-0.013
-233.815	40.828	0.104	0.094
-232.800	213.214	0.207	0.328
-231.786	-120.813	-0.342	-0.058
-230.771	57.069	-0.069	0.067
-229.757	155.389	-0.299	0.412
-228.742	788.529	0.056	0.153
-227.727	187.001	-0.231	0.346
-226.713	-128.421	0.277	-0.039
-225.698	-200.000	0.001	0.047
-224.684	209.224	0.251	0.394
-223.669	297.744	0.054	0.100
-222.655	-200.000	-0.020	0.133
-221.640	256.719	0.068	-0.118
-220.625	800.000	0.047	-0.156
-219.611	206.922	0.052	0.081
-218.596	167.365	0.155	0.220
-217.582	-113.220	-0.141	-0.028
-216.567	-200.000	0.046	-0.323
-215.552	800.000	0.026	0.107
-214.538	-200.000	0.017	0.177
-213.523	26.156	-0.128	-0.107
-212.509	-69.058	0.348	-0.134
-211.494	-72.220	-0.108	-0.040
-210.479	-44.399	-0.197	0.099
-209.465	-112.182	-0.028	-0.006
-208.450	212.509	-0.050	0.080
-207.436	9.488	-0.185	-0.140
-206.421	642.457	-0.037	0.094
-205.406	225.840	-0.078	0.126
-204.392	9.372	-0.213	-0.161
-203.377	472.195	-0.126	-0.283
-202.363	-89.491	-0.264	-0.078
-201.348	-20.235	-0.077	0.048
-200.333	178.694	-0.224	-0.329
-199.319	144.507	-0.089	0.120
-198.304	-1.577	-0.246	0.174
-197.290	-178.989	-0.199	0.004
-196.275	-76.856	0.140	-0.049
-195.260	443.222	-0.079	0.174
-194.246	-200.000	-0.008	-0.079
-193.231	-200.000	0.014	0.229
-192.217	-83.300	0.179	-0.058
-191.202	-90.477	0.261	0.076
-190.187	-162.009	-0.108	0.005
-189.173	436.743	0.108	-0.235
-188.158	800.000	-0.047	0.165
-187.144	290.770	0.226	0.412
-186.129	-27.885	0.213	-0.124
-185.114	-90.903	0.327	0.094
-184.100	145.747	-0.115	-0.154
-183.085	5.177	0.034	0.025
-182.071	-126.124	0.250	0.038
-181.056	-200.000	-0.046	-0.238
-180.042	-24.423	0.121	-0.072
-179.027	17.602	0.042	-0.034
-178.012	-6.891	-0.228	-0.155
-176.998	-200.000	0.029	-0.241
-175.983	-69.709	-0.140	-0.054
-174.969	-200.000	-0.029	-0.294
-173.954	41.900	0.097	0.088
-172.939	-104.547	0.023	-0.005
-171.925	174.193	0.052	0.075
-170.910	-82.325	-0.298	0.097
-169.896	-116.742	0.335	-0.062
-168.881	248.527	-0.185	-0.312
-167.866	-200.000	0.041	-0.350
-166.852	-41.864	-0.212	-0.109
-165.837	77.618	0.289	0.308
-164.823	-200.000	0.029	-0.158
-163.808	0.041	0.179	-0.127
-162.793	800.000	0.076	-0.228
-161.779	-200.000	0.003	-0.149
-160.764	252.526	0.110	-0.188
-159.750	69.788	0.280	-0.289
-158.735	-65.450	-0.084	-0.034
-157.720	-130.537	-0.142	0.019
-156.706	-108.474	-0.173	0.037
-155.691	121.482	-0.237	0.295
-154.677	69.492	0.044	-0.046
-153.662	112.739	-0.054	-0.065
-152.647	-85.137	0.344	-0.108
-151.633	-200.000	-0.039	-0.364
-150.618	-200.000	-0.052	0.266
-149.604	84.942	0.254	-0.278
-148.589	-200.000	-0.054	-0.298
-147.574	-39.429	0.341	0.179
-146.560	-200.000	-0.086	0.434
-145.545	-150.513	-0.030	0.002
-144.531	-119.456	0.332	0.058
-143.516	800.000	0.041	-0.143
-142.502	800.000	0.049	-0.195
-141.487	800.000	0.031	0.106
-140.472	-66.843	-0.151	-0.060
-139.458	263.810	-0.147	0.256
-138.443	-109.632	0.081	0.017
-137.429	-52.359	-0.162	-0.075
-136.414	-200.000	0.033	0.259
-135.399	356.447	0.036	0.071
-134.385	-112.733	-0.238	-0.047
-133.370	-82.784	-0.114	0.037
-132.356	-200.000	-0.010	-0.169
-131.341	191.032	0.198	0.298
-130.326	-8.693	0.268	0.180
-129.312	-192.755	-0.103	-0.001
-128.297	-200.000	0.007	0.081
-127.283	-200.000	-0.055	0.352
-126.268	15.510	0.139	-0.109
-125.253	25.446	-0.171	0.142
-124.239	154.054	-0.065	0.089
-123.224	-108.839	-0.221	-0.047
-122.210	357.355	-0.119	0.238
-121.195	-82.303	0.148	-0.048
-120.180	-118.629	0.420	-0.074
-119.166	-200.000	0.036	-0.385
-118.151	800.000	-0.076	0.265
-117.137	-9.675	0.242	0.161
-116.122	403.212	0.154	0.324
-115.107	265.120	0.129	0.225
-114.093	-87.913	-0.375	0.112
-113.078	-44.987	-0.186	0.092
-112.064	-94.862	0.185	0.050
-111.049	-49.546	0.351	-0.167
-110.034	800.000	0.018	-0.067
-109.020	-200.000	-0.015	0.430
-108.005	44.415	-0.208	0.190
-106.991	-79.609	0.456	0.153
-105.976	-155.452	0.234	-0.015
-104.962	-98.275	-0.356	-0.091
-103.947	800.000	0.131	-0.366
-102.932	-76.425	0.112	-0.039
-101.918	-102.771	0.271	-0.064
-100.903	57.062	-0.157	-0.152
-99.889	453.633	-0.124	-0.274
-98.874	17.035	0.163	-0.129
-97.859	-193.694	0.260	-0.002
-96.845	-200.000	0.005	0.026
-95.830	129.951	0.243	0.310
-94.816	-118.055	-0.505	0.090
-93.801	-124.283	0.318	-0.050
-92.786	18.807	0.034	0.027
-91.772	-200.000	-0.000	0.007
-90.757	-32.505	0.260	0.145
-89.743	800.000	0.097	-0.296
-88.728	636.389	0.119	-0.301
-87.713	78.276	-0.348	0.370
-86.699	800.000	0.095	0.323
-85.684	-3.117	-0.423	-0.294
-84.670	37.216	0.233	0.206
-83.655	222.330	0.097	0.156
-82.640	-110.812	-0.256	0.053
-81.626	-136.256	0.231	-0.027
-80.611	152.947	0.113	0.154
-79.597	-15.049	-0.064	0.041
-78.582	195.505	-0.107	-0.162
-77.567	721.595	-0.154	0.409
-76.553	-200.000	-0.011	0.127
-75.538	-200.000	-0.031	-0.308
-74.524	-87.582	0.356	0.107
-73.509	1.935	0.216	-0.155
-72.494	800.000	-0.149	0.480
-71.480	109.273	-0.184	0.220
-70.465	800.000	-0.054	-0.155
-69.451	-200.000	-0.033	0.404
-68.436	-186.299	0.265	0.004
-67.422	-104.087	0.505	-0.117
-66.407	589.152	-0.028	0.068
-65.392	45.210	0.269	-0.247
-64.378	57.044	0.206	-0.200
-63.363	-7.088	-0.186	-0.126
-62.349	-60.465	0.474	-0.200
-61.334	80.199	-0.777	-0.832
-60.319	323.479	0.078	0.148
-59.305	-200.000	-0.080	-0.699
-58.290	150.608	0.514	0.695
-57.276	800.000	0.482	1.506
-56.261	-200.000	77.426	511.816
-55.246	515.853	1322.921	3077.959
-54.232	148.713	2546.560	3427.367
-53.217	115.528	2222.459	2705.247
-52.203	51.848	1676.823	1589.289
-51.188	44.204	1404.740	1283.286
-50.173	40.652	1359.675	1220.275
-49.159	58.930	1396.243	1366.992
-48.144	65.642	1414.805	1426.730
-47.130	44.553	1377.061	1259.963
-46.115	40.633	1360.006	1220.265
-45.100	40.444	1355.367	1214.897
-44.086	40.251	1353.496	1211.990
-43.071	40.327	1350.984	1210.153
-42.057	40.248	1348.624	1207.513
-41.042	40.321	1347.015	1206.467
-40.027	40.452	1345.152	1205.549
-39.013	40.384	1343.348	1203.473
-37.998	40.385	1341.455	1201.734
-36.984	40.466	1339.643	1200.552
-35.969	40.547	1337.598	1199.161
-34.954	40.674	1335.696	1198.174
-33.940	40.627	1334.685	1196.937
-32.925	40.653	1333.248	1195.758
-31.911	40.653	1331.932	1194.527
-30.896	40.612	1330.364	1192.831
-29.881	40.574	1329.166	1191.483
-28.867	40.704	1327.415	1190.644
-27.852	40.610	1325.963	1188.731
-26.838	40.619	1324.741	1187.642
-25.823	40.512	1323.524	1185.864
-24.809	40.584	1321.879	1184.770
-23.794	40.605	1320.279	1183.420
-22.779	40.590	1319.128	1182.249
-21.765	40.590	1317.602	1180.834
-20.750	40.615	1315.811	1179.334
-19.736	40.562	1314.810	1178.071
-18.721	40.505	1312.989	1176.057
-17.706	40.427	1312.259	1174.891
-16.692	40.496	1310.959	1174.092
-15.677	40.487	1310.349	1173.444
-14.663	40.467	1308.984	1172.058
-13.648	40.522	1307.949	1171.411
-12.633	40.444	1306.636	1169.725
-11.619	40.357	1306.805	1169.315
-10.604	40.454	1305.292	1168.491
-9.590	40.548	1303.910	1167.762
-8.575	40.428	1303.309	1166.471
-7.560	40.354	1303.043	1165.748
-6.546	40.307	1302.014	1164.506
-5.531	40.415	1300.736	1163.948
-4.517	40.465	1300.043	1163.578
-3.502	40.510	1298.647	1162.544
-2.487	40.532	1297.530	1161.627
-1.473	40.389	1294.024	1157.608
-0.458	38.622	1277.871	1132.904
0.556	34.289	1256.153	1083.215
1.571	29.503	1258.790	1058.042
2.586	28.138	1273.720	1062.574
3.600	26.729	1262.902	1045.332
4.615	19.369	1186.371	941.857
5.629	8.013	1103.945	818.314
6.644	2.870	1080.704	775.101
7.659	2.353	1077.998	770.486
8.673	2.220	1076.254	768.507
9.688	2.239	1074.507	767.285
10.702	2.465	1073.568	767.680
11.717	9.281	1083.246	808.926
12.731	19.966	1099.381	875.202
13.746	25.219	1105.117	906.299
14.761	25.665	1106.216	909.376
15.775	25.823	1105.592	909.579
16.790	25.607	1104.262	907.316
17.804	25.463	1104.187	906.448
18.819	25.618	1103.783	906.820
19.834	25.654	1102.966	906.249
20.848	25.730	1102.704	906.338
21.863	25.750	1102.087	905.847
22.877	25.653	1101.246	904.592
23.892	25.632	1100.780	904.020
24.907	25.719	1099.802	903.577
25.921	25.660	1098.581	902.193
26.936	25.577	1097.330	900.675
27.950	25.594	1095.933	899.531
28.965	25.539	1094.157	897.723
29.980	25.650	1092.637	896.947
30.994	25.756	1091.796	896.706
32.009	25.831	1090.673	896.078
33.023	25.672	1089.282	894.065
34.038	25.687	1088.415	893.348
35.053	25.698	1088.530	893.417
36.067	25.654	1087.837	892.550
37.082	25.775	1086.826	892.245
38.096	25.890	1086.407	892.391
39.111	26.065	1085.311	892.276
40.126	25.871	1083.823	890.018
41.140	25.462	1082.228	886.608
42.155	25.300	1080.754	884.525
43.169	25.280	1079.789	883.559
44.184	25.281	1079.252	883.048
45.199	25.173	1078.083	881.482
46.213	25.224	1077.530	881.204
47.228	25.541	1076.272	881.651
48.242	25.616	1075.863	881.602
49.257	25.610	1075.355	881.079
50.271	25.713	1074.360	880.692
51.286	25.791	1073.801	880.535
52.301	25.715	1072.574	879.081
53.315	25.648	1071.928	878.146
54.330	25.583	1070.834	876.857
55.344	25.610	1070.266	876.445
56.359	25.563	1069.267	875.321
57.374	25.307	1068.420	873.303
58.388	25.507	1066.871	872.931
59.403	25.294	1066.260	871.322
60.417	25.334	1065.087	870.479
61.432	25.280	1065.044	870.105
62.447	25.421	1064.464	870.236
63.461	25.542	1063.459	869.925
64.476	25.463	1062.423	868.620
65.490	25.358	1061.713	867.454
66.505	25.339	1060.983	866.690
67.520	25.367	1060.349	866.229
68.534	25.227	1059.344	864.659
69.549	24.871	1058.225	861.952
70.563	24.888	1057.263	861.174
71.578	24.845	1056.556	860.318
72.593	24.674	1055.493	858.556
73.607	24.943	1054.870	859.260
74.622	25.135	1054.632	859.912
75.636	25.297	1054.027	860.122
76.651	25.061	1053.116	858.171
77.666	25.015	1052.333	857.239
78.680	25.014	1051.743	856.677
79.695	25.174	1050.903	856.677
80.709	25.245	1050.467	856.585
81.724	25.141	1049.496	855.225
82.739	25.375	1048.739	855.648
83.753	25.688	1048.564	856.920
84.768	25.873	1047.937	857.209
85.782	25.979	1047.117	856.967
86.797	25.957	1045.701	855.628
87.812	25.758	1044.923	853.972
88.826	25.911	1043.848	853.741
89.841	25.979	1043.268	853.515
90.855	25.788	1042.045	851.535
91.870	25.896	1041.322	851.381
92.884	25.788	1040.210	849.887
93.899	25.812	1039.056	848.981
94.914	25.963	1038.067	848.809
95.928	25.796	1036.848	846.953
96.943	25.519	1035.874	844.780
97.957	25.334	1034.845	842.999
98.972	25.118	1033.742	841.009
99.987	25.434	1033.045	841.850
101.001	25.664	1032.073	842.062
102.016	25.586	1031.676	841.298
103.030	25.462	1030.381	839.587
104.045	25.358	1029.660	838.440
105.060	25.354	1028.272	837.218
106.074	25.404	1028.055	837.199
107.089	25.700	1027.753	838.257
108.103	25.688	1026.427	837.048
109.118	25.375	1025.130	834.463
110.133	25.295	1024.013	833.106
111.147	25.181	1023.071	831.737
112.162	25.072	1022.153	830.414
113.176	25.234	1021.748	830.760
114.191	25.250	1020.530	829.769
115.206	24.981	1019.304	827.459
116.220	24.925	1018.770	826.692
117.235	25.010	1017.908	826.313
118.249	24.987	1016.778	825.214
119.264	24.963	1016.109	824.491
120.279	24.983	1015.795	824.255
121.293	25.018	1014.919	823.632
122.308	24.991	1013.895	822.601
123.322	24.927	1012.568	821.159
124.337	24.870	1011.344	819.833
125.352	24.455	1009.600	816.450
126.366	24.238	1009.206	815.068
127.381	25.113	1008.639	818.532
128.395	25.557	1008.369	820.269
129.410	25.611	1007.447	819.690
130.424	25.563	1006.692	818.785
131.439	25.496	1006.023	817.867
132.454	25.579	1004.905	817.259
133.468	25.551	1003.820	816.177
134.483	25.710	1003.405	816.493
135.497	25.841	1002.465	816.246
136.512	25.827	1001.776	815.552
137.527	25.881	1000.859	814.978
138.541	25.841	1000.372	814.329
139.556	25.866	998.903	813.173
140.570	26.003	998.341	813.262
141.585	25.949	997.681	812.406
142.600	25.895	996.534	811.159
143.614	26.012	996.347	811.461
144.629	26.196	995.048	811.157
145.643	25.975	993.947	809.196
146.658	25.778	992.521	807.079
147.673	25.839	991.116	806.139
148.687	25.727	990.589	805.138
149.702	25.669	989.438	803.874
150.716	25.641	988.424	802.856
151.731	25.701	987.814	802.555
152.746	25.899	987.197	802.864
153.760	26.040	986.625	802.956
154.775	26.107	986.085	802.742
155.789	25.845	985.520	801.047
156.804	26.076	984.154	800.891
157.819	26.006	983.982	800.372
158.833	26.127	982.812	799.884
159.848	26.147	982.051	799.282
160.862	25.957	980.627	797.214
161.877	26.075	979.497	796.746
162.892	26.077	978.291	795.704
163.906	25.855	977.821	794.272
164.921	25.878	976.558	793.277
165.935	26.053	975.553	793.157
166.950	26.012	974.711	792.224
167.964	26.044	973.962	791.688
168.979	25.800	972.821	789.619
169.994	25.747	972.189	788.805
171.008	26.012	971.164	789.060
172.023	26.023	970.760	788.710
173.037	25.846	969.484	786.832
174.052	25.530	968.875	784.888
175.067	25.599	968.421	784.753
176.081	25.857	967.559	785.110
177.096	25.672	966.985	783.767
178.110	25.536	965.542	781.938
179.125	25.288	964.905	780.277
180.140	25.357	964.642	780.294
181.154	25.470	964.637	780.712
182.169	25.748	964.492	781.732
183.183	25.926	964.030	782.059
184.198	25.951	962.501	780.861
185.213	25.877	961.794	779.899
186.227	26.108	961.504	780.592
187.242	25.928	961.023	779.353
188.256	25.977	960.013	778.678
189.271	26.103	959.301	778.576
190.286	25.740	958.204	776.050
191.300	25.122	956.780	772.169
192.315	24.254	955.160	767.061
193.329	24.174	955.032	766.543
194.344	25.206	954.972	770.868
195.359	25.881	955.303	773.964
196.373	25.995	954.107	773.415
197.388	25.794	953.935	772.346
198.402	25.812	953.592	772.078
199.417	25.878	952.512	771.419
200.432	25.649	951.625	769.653
201.446	25.416	951.245	768.278
202.461	25.458	950.649	767.909
203.475	24.718	948.441	762.901
204.490	23.811	947.131	757.914
205.504	24.757	947.753	762.378
206.519	25.372	947.662	764.858
207.534	25.478	947.308	764.956
208.548	25.972	947.011	766.751
209.563	25.641	946.008	764.464
210.577	25.711	945.230	764.065
211.592	26.077	944.850	765.243
212.607	26.008	944.332	764.464
213.621	26.014	943.657	763.875
214.636	25.997	943.003	763.207
215.650	25.997	942.131	762.431
216.665	26.171	941.441	762.542
217.680	25.937	941.073	761.189
218.694	25.559	939.576	758.315
219.709	25.430	938.613	756.929
220.723	25.778	938.491	758.229
221.738	25.799	938.167	757.989
222.753	25.844	937.350	757.450
223.767	25.961	936.369	757.083
224.782	26.209	936.121	757.857
225.796	26.290	935.708	757.794
226.811	25.579	934.436	753.720
227.826	24.823	933.171	749.466
228.840	25.103	932.512	750.042
229.855	25.082	931.830	749.340
230.869	24.746	930.880	747.104
231.884	25.103	930.677	748.366
232.899	25.827	930.899	751.501
233.913	25.712	930.037	750.258
234.928	25.668	929.549	749.617
235.942	25.823	928.932	749.698
236.957	25.487	927.838	747.350
237.972	25.465	927.414	746.853
238.986	25.553	926.910	746.746
240.001	25.526	926.482	746.222
241.015	25.615	926.110	746.228
242.030	25.747	925.808	746.464
243.045	25.940	925.012	746.554
244.059	26.168	924.665	747.153
245.074	25.873	923.606	745.013
246.088	25.552	922.680	742.875
247.103	25.814	922.177	743.486
248.117	26.374	922.433	745.934
249.132	26.497	922.131	746.132
250.147	26.692	921.488	746.348
251.161	26.777	921.166	746.374
252.176	26.780	920.365	745.669
253.190	26.847	919.891	745.496
254.205	26.966	919.547	745.638
255.220	26.844	919.084	744.697
256.234	26.719	918.355	743.530
257.249	26.627	917.328	742.253
258.263	26.679	916.751	741.934
259.278	26.723	915.812	741.288
260.293	26.989	915.104	741.736
261.307	26.706	914.637	740.136
262.322	26.630	913.706	739.008
263.336	25.892	911.582	734.221
264.351	24.722	909.951	728.078
265.366	24.817	909.788	728.272
266.380	25.891	910.376	733.048
267.395	26.307	910.220	734.552
268.409	26.346	909.324	733.919
269.424	26.442	909.070	734.039
270.439	26.449	908.477	733.524
271.453	26.571	907.887	733.477
272.468	26.918	906.954	734.063
273.482	26.894	906.852	733.817
274.497	26.403	905.850	730.960
275.512	26.000	904.737	728.368
276.526	26.330	905.136	729.959
277.541	26.474	904.686	730.113
278.555	26.458	903.649	729.146
279.570	26.275	902.720	727.596
280.585	26.449	902.503	728.058
281.599	26.430	901.343	726.982
282.614	25.918	899.678	723.519
283.628	25.791	899.533	722.829
284.643	26.186	899.267	724.133
285.657	25.909	897.884	721.846
286.672	25.624	896.801	719.774
287.687	26.127	897.500	722.283
288.701	26.118	897.027	721.804
289.716	25.864	895.733	719.682
290.730	25.705	895.111	718.486
291.745	25.522	894.379	717.103
292.760	25.733	894.373	717.877
293.774	26.668	895.108	722.133
294.789	26.936	894.552	722.688
295.803	27.028	893.887	722.452
296.818	27.171	892.853	722.123
297.833	26.667	891.796	719.203
298.847	26.586	891.249	718.377
299.862	26.900	891.280	719.583
300.876	27.092	891.071	720.113
301.891	26.931	890.431	718.893
302.906	26.613	888.927	716.358
303.920	26.704	888.943	716.669
304.935	26.993	888.773	717.609
305.949	26.999	887.801	716.783
306.964	26.891	886.771	715.464
307.979	26.935	886.349	715.233
308.993	27.254	886.603	716.632
310.008	27.197	885.627	715.558
311.022	26.914	885.102	713.954
312.037	26.924	884.212	713.213
313.052	26.574	883.448	711.158
314.066	25.637	881.988	706.243
315.081	25.153	881.188	703.641
316.095	26.144	881.486	707.704
317.110	26.676	881.245	709.533
318.125	25.802	880.154	705.172
319.139	24.788	878.085	699.490
320.154	24.760	877.879	699.154
321.168	25.703	878.014	702.883
322.183	26.429	878.615	706.138
323.197	26.585	877.820	706.045
324.212	26.783	877.701	706.661
325.227	26.885	876.973	706.408
326.241	26.721	875.989	704.917
327.256	26.532	875.830	703.990
328.270	26.480	875.258	703.265
329.285	26.417	874.013	701.959
330.300	26.117	873.291	700.154
331.314	26.342	873.203	700.895
332.329	26.850	872.891	702.550
333.343	26.970	872.709	702.805
334.358	27.007	872.258	702.522
335.373	26.929	871.964	701.921
336.387	27.220	871.843	702.887
337.402	27.425	871.429	703.286
338.416	27.415	870.906	702.761
339.431	27.353	871.169	702.671
340.446	27.636	870.433	703.107
341.460	27.514	870.046	702.263
342.475	27.207	869.384	700.482
343.489	27.421	869.046	700.975
344.504	27.513	869.180	701.371
345.519	27.814	868.565	701.971
346.533	27.780	867.868	701.216
347.548	27.739	867.557	700.746
348.562	27.662	866.709	699.705
349.577	27.571	866.134	698.829
350.592	27.641	865.404	698.444
351.606	27.578	864.654	697.536
352.621	27.480	863.877	696.474
353.635	27.407	863.419	695.763
354.650	26.847	861.598	692.100
355.665	25.937	859.944	687.240
356.679	26.253	859.820	688.284
357.694	26.776	859.643	690.073
358.708	26.697	858.795	689.031
359.723	26.998	858.692	690.034
360.738	27.260	858.563	690.866
361.752	27.342	858.149	690.783
362.767	27.723	857.537	691.670
363.781	27.965	857.299	692.336
364.796	28.184	857.017	692.877
365.810	28.142	856.513	692.247
366.825	28.105	855.963	691.604
367.840	27.909	855.173	690.163
368.854	27.386	854.457	687.549
369.869	27.549	853.859	687.621
370.883	27.484	853.497	687.025
371.898	27.546	852.776	686.618
372.913	27.467	852.651	686.160
373.927	27.470	852.549	686.025
374.942	27.795	851.688	686.495
375.956	27.908	851.153	686.429
376.971	28.009	850.873	686.523
377.986	28.032	851.081	686.716
379.000	28.051	850.135	685.960
380.015	27.931	849.521	684.957
381.029	27.968	849.166	684.748
382.044	28.282	848.213	685.093
383.059	28.084	847.982	684.105
384.073	28.282	847.219	684.172
385.088	28.190	846.488	683.175
386.102	27.835	845.899	681.317
387.117	27.715	845.473	680.464
388.132	27.567	844.192	678.822
389.146	27.083	842.899	675.921
390.161	27.369	842.935	676.953
391.175	27.712	843.398	678.542
392.190	27.485	841.863	676.405
393.205	26.067	839.637	669.302
394.219	24.680	837.507	662.407
395.234	24.485	837.610	661.707
396.248	25.985	839.327	668.570
397.263	27.591	840.003	675.003
398.278	27.561	839.581	674.495
399.292	27.281	838.977	672.915
400.307	27.329	838.525	672.671
401.321	27.404	838.087	672.534
402.336	27.987	837.563	674.207
403.350	28.260	837.544	675.139
404.365	28.438	838.159	676.232
405.380	28.745	837.841	677.046
406.394	28.803	837.066	676.574
407.409	28.818	836.184	675.856
408.423	28.827	835.873	675.578
409.438	28.714	835.636	674.912
410.453	28.825	834.799	674.583
411.467	28.792	834.346	674.036
412.482	28.772	834.215	673.800
413.496	28.773	834.119	673.664
414.511	28.761	833.906	673.388
415.526	28.789	832.993	672.694
416.540	28.628	832.142	671.360
417.555	28.486	831.380	670.167
418.569	28.505	831.248	670.070
419.584	28.427	830.614	669.213
420.599	28.398	829.553	668.195
421.613	95.724	1268.232	1379.294
422.628	82.762	1332.174	1379.443
