DTS Sentinel unit serial number:	SN413079Multiplexer serial number:	ORYXHardware model number:	OX4-SRSoftware version number:	ORYX F/W v4.00 Oryx Data Collector v3.7.2.0data status	okinstallation	princeton_trtdifferential loss correction	single-endedforward channel	channel 1reverse channel	N/Adate	2019/09/11time	19:16:11forward acquisition time	60.00reverse acquisition time	0.00gamma	496.2192k internal	0.2293k external	0.2293temperature offset calibration	1.0016default loss term (dB/km)	0.3790temperature slope calibration	1.0000multiplexer offset coefficient	1.0000multiplexer slope coefficient	1.0000fibre end	0.00T internal ref (°C)	41.28T ext. ref 1 (°C)	1.26T ext. ref 2 (°C)	33.45length (m)	temperature (°C)	Stokes	anti-Stokes-747.200	116.041	0.055	0.069
-746.185	52.281	-0.264	0.257
-745.171	699.010	-0.054	0.145
-744.156	363.671	0.051	-0.106
-743.142	800.000	-0.047	0.161
-742.127	-146.263	0.183	0.016
-741.112	10.415	-0.284	0.222
-740.098	-200.000	0.051	0.408
-739.083	-200.000	0.015	0.164
-738.069	98.424	0.304	0.359
-737.054	-120.020	0.198	-0.035
-736.039	347.614	0.116	-0.233
-735.025	-24.272	0.207	-0.126
-734.010	115.818	0.064	0.080
-732.996	-70.870	0.097	-0.037
-731.981	173.854	0.052	-0.077
-730.966	-90.098	0.105	-0.031
-729.952	-200.000	-0.004	0.241
-728.937	174.421	-0.161	-0.238
-727.923	-33.513	-0.278	-0.157
-726.908	-200.000	0.001	0.367
-725.894	207.821	-0.116	0.185
-724.879	800.000	-0.054	-0.174
-723.864	113.885	-0.187	0.232
-722.850	236.721	-0.037	-0.062
-721.835	-105.639	-0.237	0.055
-720.821	168.096	0.066	-0.096
-719.806	-200.000	-0.013	0.125
-718.791	-118.675	-0.254	0.046
-717.777	17.306	0.262	-0.213
-716.762	-99.788	0.333	-0.085
-715.748	-200.000	0.005	0.200
-714.733	-53.436	0.313	0.147
-713.718	-200.000	-0.033	0.329
-712.704	15.958	-0.125	0.100
-711.689	800.000	0.036	0.124
-710.675	-57.931	-0.292	-0.130
-709.660	328.309	0.078	0.153
-708.645	-139.946	0.293	-0.032
-707.631	5.219	0.226	0.170
-706.616	-200.000	0.011	-0.367
-705.602	552.729	-0.065	0.159
-704.587	61.470	-0.256	-0.260
-703.572	-200.000	-0.028	0.397
-702.558	586.619	-0.128	0.322
-701.543	8.895	-0.329	0.253
-700.529	-191.741	-0.269	0.003
-699.514	-200.000	-0.042	-0.195
-698.499	93.330	-0.196	-0.227
-697.485	-200.000	-0.035	-0.202
-696.470	-149.500	0.247	0.020
-695.456	-154.573	0.043	0.003
-694.441	-6.445	-0.284	0.198
-693.426	-26.925	-0.170	0.102
-692.412	-83.894	0.119	0.039
-691.397	13.596	-0.171	-0.135
-690.383	-92.825	0.122	0.035
-689.368	-94.777	-0.117	0.032
-688.354	45.976	-0.077	-0.073
-687.339	454.663	0.087	-0.197
-686.324	-99.308	0.061	0.016
-685.310	-36.747	-0.183	-0.100
-684.295	-200.000	-0.029	-0.206
-683.281	-7.060	-0.147	0.102
-682.266	800.000	0.018	0.067
-681.251	453.892	0.041	0.092
-680.237	-200.000	0.006	-0.062
-679.222	43.445	-0.043	-0.040
-678.208	-200.000	-0.009	0.059
-677.193	800.000	0.041	0.126
-676.178	128.151	0.137	-0.178
-675.164	-134.588	0.304	0.038
-674.149	800.000	-0.019	0.053
-673.135	-200.000	0.140	0.000
-672.120	112.257	-0.045	-0.056
-671.105	83.239	-0.304	-0.338
-670.091	494.095	-0.111	-0.261
-669.076	-107.301	-0.105	-0.024
-668.062	-97.268	-0.133	-0.035
-667.047	-200.000	0.026	-0.474
-666.032	-96.668	-0.107	0.029
-665.018	191.249	0.029	-0.044
-664.003	-4.541	0.163	0.115
-662.989	-124.968	0.192	0.030
-661.974	-69.303	-0.335	0.131
-660.959	111.880	0.167	-0.206
-659.945	62.049	0.210	0.214
-658.930	-154.495	-0.088	-0.006
-657.916	-55.933	0.221	-0.101
-656.901	209.573	0.021	0.033
-655.886	125.018	-0.032	-0.041
-654.872	-135.159	0.149	0.018
-653.857	88.922	-0.061	0.069
-652.843	-124.417	0.355	-0.056
-651.828	-21.955	0.386	0.239
-650.814	110.783	-0.123	-0.151
-649.799	189.967	-0.088	-0.135
-648.784	-103.530	-0.149	0.036
-647.770	-100.894	0.245	0.061
-646.755	-37.595	0.110	-0.060
-645.741	-200.000	-0.039	0.192
-644.726	800.000	-0.050	-0.174
-643.711	-33.739	0.114	-0.064
-642.697	179.828	0.124	0.185
-641.682	744.337	0.076	-0.208
-640.668	-200.000	-0.029	-0.165
-639.653	-200.000	-0.022	0.118
-638.638	-159.189	-0.089	-0.005
-637.624	500.807	-0.126	-0.295
-636.609	-200.000	-0.023	0.226
-635.595	-161.659	-0.100	0.005
-634.580	-3.267	0.119	0.084
-633.565	-68.868	-0.118	0.047
-632.551	100.244	-0.108	-0.127
-631.536	-190.101	0.461	0.005
-630.522	-78.370	-0.218	0.076
-629.507	5.885	0.023	-0.017
-628.492	47.327	-0.288	-0.273
-627.478	-200.000	0.013	-0.393
-626.463	-8.222	0.021	-0.015
-625.449	800.000	0.085	0.288
-624.434	-159.969	-0.324	-0.018
-623.419	35.812	-0.137	-0.123
-622.405	-91.315	0.070	0.020
-621.390	-200.000	0.011	-0.121
-620.376	-116.142	0.307	0.058
-619.361	-125.225	-0.171	0.027
-618.346	72.132	0.176	-0.186
-617.332	-70.657	0.153	0.059
-616.317	158.984	-0.111	0.157
-615.303	-200.000	0.019	-0.167
-614.288	-32.774	-0.236	0.134
-613.273	182.272	-0.135	0.202
-612.259	46.958	-0.009	-0.009
-611.244	800.000	0.074	0.265
-610.230	450.812	0.061	-0.137
-609.215	17.180	-0.261	-0.211
-608.201	-200.000	0.005	-0.180
-607.186	361.920	0.114	-0.233
-606.171	800.000	0.098	-0.405
-605.157	-184.233	-0.077	-0.001
-604.142	-200.000	-0.023	-0.165
-603.128	-200.000	-0.018	-0.157
-602.113	299.049	-0.072	-0.136
-601.098	-200.000	-0.017	-0.226
-600.084	121.966	0.057	0.072
-599.069	800.000	0.058	0.179
-598.055	-200.000	-0.012	-0.148
-597.040	-28.552	-0.241	-0.141
-596.025	-58.650	0.246	-0.108
-595.011	24.766	0.082	-0.069
-593.996	-89.793	0.118	0.035
-592.982	130.104	-0.014	0.018
-591.967	247.422	0.214	0.368
-590.952	193.280	0.151	0.232
-589.938	-25.355	-0.112	0.067
-588.923	-170.024	-0.214	0.008
-587.909	-88.782	0.244	-0.074
-586.894	4.129	-0.135	0.101
-585.879	800.000	-0.122	0.434
-584.865	-41.258	0.156	0.082
-583.850	-62.631	0.098	0.041
-582.836	148.596	-0.117	-0.160
-581.821	-200.000	-0.024	0.234
-580.806	-69.394	-0.027	-0.011
-579.792	214.103	0.126	0.203
-578.777	-46.327	-0.369	0.184
-577.763	-200.000	-0.121	-0.653
-576.748	800.000	-0.052	-0.155
-575.733	-42.942	0.282	-0.145
-574.719	-200.000	-0.037	0.236
-573.704	800.000	0.037	-0.113
-572.690	370.080	-0.145	0.299
-571.675	48.103	0.173	-0.164
-570.661	-13.983	-0.233	0.153
-569.646	-200.000	-0.010	0.073
-568.631	800.000	0.074	0.249
-567.617	-200.000	0.038	-0.237
-566.602	800.000	0.044	-0.176
-565.588	63.900	-0.420	0.429
-564.573	-59.848	-0.278	-0.121
-563.558	20.130	-0.167	0.137
-562.544	-200.000	0.000	0.171
-561.529	-89.296	0.050	0.015
-560.515	28.707	0.268	-0.231
-559.500	217.213	-0.096	-0.155
-558.485	-113.339	0.212	-0.042
-557.471	800.000	-0.064	0.218
-556.456	62.699	-0.502	-0.509
-555.442	-200.000	0.006	0.097
-554.427	399.105	0.151	-0.320
-553.412	125.378	-0.179	0.230
-552.398	201.315	0.025	0.040
-551.383	301.209	0.030	0.056
-550.369	-89.435	0.353	0.105
-549.354	-62.957	0.295	0.124
-548.339	800.000	0.051	0.160
-547.325	34.525	0.256	-0.227
-546.310	-200.000	-0.020	-0.178
-545.296	-81.078	0.191	0.064
-544.281	91.886	0.196	-0.224
-543.266	355.327	-0.206	-0.417
-542.252	800.000	-0.020	0.068
-541.237	-200.000	-0.013	0.091
-540.223	4.264	0.129	0.096
-539.208	40.304	-0.245	-0.224
-538.193	140.715	0.323	-0.433
-537.179	233.729	0.068	0.114
-536.164	63.963	-0.349	0.356
-535.150	447.535	-0.112	0.249
-534.135	-138.068	-0.144	-0.016
-533.121	-1.245	-0.177	-0.127
-532.106	189.626	0.217	0.331
-531.091	-200.000	-0.021	0.210
-530.077	-72.411	-0.040	0.015
-529.062	-36.837	-0.378	-0.206
-528.048	-82.259	0.113	0.037
-527.033	-200.000	0.044	-0.224
-526.018	15.526	-0.253	-0.201
-525.004	-92.634	0.245	-0.070
-523.989	800.000	0.081	-0.343
-522.975	-200.000	-0.031	-0.345
-521.960	800.000	0.077	0.293
-520.945	18.362	0.149	0.121
-519.931	268.901	0.126	-0.224
-518.916	56.928	-0.338	0.334
-517.902	-200.000	0.022	0.201
-516.887	309.030	-0.083	0.156
-515.872	184.023	0.205	0.308
-514.858	800.000	-0.031	0.101
-513.843	-179.170	0.264	0.006
-512.829	-116.534	-0.236	-0.044
-511.814	768.860	-0.098	0.271
-510.799	-133.243	-0.134	-0.017
-509.785	-121.752	0.165	0.028
-508.770	800.000	-0.021	-0.075
-507.756	35.024	-0.177	-0.157
-506.741	645.236	-0.042	0.108
-505.726	-53.806	-0.144	0.067
-504.712	594.807	-0.024	-0.061
-503.697	129.480	-0.166	-0.216
-502.683	-157.832	0.102	-0.006
-501.668	-34.482	-0.164	-0.091
-500.653	1.986	0.274	0.200
-499.639	-34.230	-0.213	0.119
-498.624	108.309	-0.184	0.223
-497.610	-23.238	-0.266	0.162
-496.595	147.622	-0.325	-0.443
-495.581	113.212	-0.265	-0.326
-494.566	-28.663	-0.242	0.141
-493.551	800.000	0.171	0.479
-492.537	-94.802	0.206	0.057
-491.522	-200.000	0.027	-0.261
-490.508	-50.463	-0.400	-0.191
-489.493	130.266	0.182	0.236
-488.478	144.557	0.115	-0.155
-487.464	268.474	-0.124	-0.221
-486.449	317.342	0.153	-0.293
-485.435	-119.719	0.225	-0.039
-484.420	800.000	-0.067	-0.223
-483.405	-134.504	0.178	-0.022
-482.391	78.461	0.062	-0.067
-481.376	-200.000	0.024	-0.170
-480.362	-21.046	-0.190	0.118
-479.347	-109.194	-0.202	-0.043
-478.332	-49.909	-0.298	0.143
-477.318	144.318	0.149	0.201
-476.303	-200.000	0.035	0.316
-475.289	-18.166	0.167	0.106
-474.274	-76.199	0.112	0.040
-473.259	-145.189	0.445	0.041
-472.245	800.000	0.095	0.302
-471.230	-200.000	-0.026	-0.304
-470.216	-200.000	-0.020	-0.127
-469.201	558.236	-0.149	-0.365
-468.186	54.988	-0.098	0.096
-467.172	-16.131	-0.233	-0.150
-466.157	186.251	0.060	-0.090
-465.143	202.563	0.184	0.288
-464.128	-200.000	-0.592	-0.002
-463.113	398.332	0.098	-0.208
-462.099	-157.042	-0.314	0.019
-461.084	800.000	-0.059	0.199
-460.070	-3.463	0.282	-0.199
-459.055	80.956	-0.108	0.118
-458.040	-200.000	-0.015	0.231
-457.026	-162.826	-0.145	0.007
-456.011	-29.022	0.396	-0.230
-454.997	49.740	-0.077	0.073
-453.982	-101.634	0.377	-0.093
-452.968	-200.000	0.058	-0.298
-451.953	422.118	0.025	-0.054
-450.938	90.595	0.177	-0.201
-449.924	82.048	-0.020	-0.021
-448.909	516.810	0.086	0.203
-447.895	-200.000	0.016	-0.139
-446.880	800.000	0.031	0.125
-445.865	800.000	-0.045	-0.173
-444.851	-55.123	0.162	-0.074
-443.836	258.298	-0.072	-0.125
-442.822	159.931	-0.052	0.073
-441.807	-53.179	0.342	-0.159
-440.792	-37.221	-0.225	-0.121
-439.778	-169.063	0.135	-0.005
-438.763	76.515	0.169	0.182
-437.749	-200.000	-0.041	0.300
-436.734	149.825	-0.146	0.200
-435.719	-130.487	-0.164	0.022
-434.705	-8.720	0.377	-0.256
-433.690	529.402	-0.059	0.142
-432.676	-67.573	-0.142	-0.056
-431.661	279.131	-0.350	-0.631
-430.646	45.517	-0.126	-0.117
-429.632	205.620	-0.029	-0.046
-428.617	212.033	-0.075	-0.120
-427.603	148.688	0.127	0.174
-426.588	-46.163	0.147	0.073
-425.573	191.594	-0.046	-0.070
-424.559	138.139	0.026	0.035
-423.544	528.581	-0.063	0.151
-422.530	-91.018	0.617	-0.179
-421.515	-93.255	-0.322	0.090
-420.500	40.848	-0.030	-0.027
-419.486	-30.783	0.221	0.126
-418.471	-152.062	0.055	0.004
-417.457	22.519	-0.051	-0.042
-416.442	-200.000	-0.006	-0.060
-415.428	-19.518	-0.047	0.030
-414.413	-94.149	0.138	-0.038
-413.398	-200.000	-0.034	-0.309
-412.384	347.073	0.111	0.221
-411.369	-200.000	0.006	0.139
-410.355	-149.448	0.048	-0.004
-409.340	-200.000	-0.064	0.443
-408.325	-98.277	-0.345	-0.089
-407.311	800.000	0.116	-0.376
-406.296	-200.000	-0.041	-0.239
-405.282	116.342	0.252	0.312
-404.267	-55.007	-0.159	0.073
-403.252	-110.766	-0.190	0.040
-402.238	29.596	0.063	-0.054
-401.223	-24.978	0.150	-0.090
-400.209	-200.000	-0.018	0.194
-399.194	-102.316	0.258	-0.063
-398.179	-200.000	-0.208	-0.001
-397.165	-134.142	0.207	-0.026
-396.150	634.924	-0.099	-0.253
-395.136	224.773	0.081	-0.132
-394.121	-111.659	-0.388	-0.079
-393.106	-72.569	-0.178	-0.066
-392.092	-56.632	-0.187	-0.084
-391.077	800.000	-0.070	0.219
-390.063	184.071	-0.077	-0.114
-389.048	800.000	-0.057	0.240
-388.033	-46.626	0.081	-0.040
-387.019	800.000	0.021	0.068
-386.004	49.088	0.140	0.133
-384.990	-56.253	-0.127	-0.057
-383.975	118.505	0.304	-0.379
-382.960	-41.281	-0.037	-0.019
-381.946	-200.000	-0.047	0.272
-380.931	800.000	-0.048	-0.194
-379.917	800.000	0.023	0.088
-378.902	109.537	-0.070	0.084
-377.888	24.344	0.212	0.177
-376.873	77.127	0.121	0.130
-375.858	-200.000	0.006	0.150
-374.844	71.134	0.075	-0.078
-373.829	-22.480	-0.189	-0.116
-372.815	800.000	0.057	-0.186
-371.800	-2.412	0.024	-0.017
-370.785	-200.000	0.077	0.343
-369.771	-134.826	0.158	-0.019
-368.756	-72.598	0.338	-0.126
-367.742	-148.470	-0.306	0.025
-366.727	186.213	0.133	0.199
-365.712	-38.146	0.066	-0.035
-364.698	244.131	-0.036	0.062
-363.683	194.036	0.030	0.045
-362.669	-80.853	0.108	-0.036
-361.654	-62.895	-0.182	-0.076
-360.639	-95.695	0.309	0.083
-359.625	-200.000	-0.021	-0.136
-358.610	800.000	-0.046	-0.148
-357.596	-80.478	-0.130	0.044
-356.581	116.095	0.141	0.174
-355.566	551.863	0.058	0.141
-354.552	800.000	0.030	0.088
-353.537	-36.235	-0.145	0.079
-352.523	800.000	0.078	0.255
-351.508	-134.513	0.027	0.003
-350.493	-131.916	-0.142	-0.019
-349.479	132.021	0.059	-0.076
-348.464	-200.000	0.009	0.095
-347.450	-133.987	-0.522	0.065
-346.435	-22.791	0.133	0.081
-345.420	164.733	0.107	0.153
-344.406	234.790	0.100	0.166
-343.391	126.438	-0.057	-0.073
-342.377	-32.484	-0.168	-0.094
-341.362	229.026	0.048	0.078
-340.348	121.920	-0.056	-0.070
-339.333	800.000	0.070	0.302
-338.318	-147.216	-0.192	0.016
-337.304	-4.226	0.279	-0.194
-336.289	275.003	0.073	0.130
-335.275	655.856	-0.126	0.325
-334.260	81.010	0.067	0.073
-333.245	-106.444	0.539	-0.121
-332.231	-200.000	-0.035	-0.271
-331.216	-200.000	-0.003	-0.168
-330.202	150.635	0.237	-0.324
-329.187	-200.000	-0.012	-0.259
-328.172	-76.639	-0.096	-0.034
-327.158	26.788	0.092	-0.077
-326.143	495.795	-0.233	-0.539
-325.129	-71.740	0.232	-0.087
-324.114	-200.000	-0.021	-0.124
-323.099	32.176	0.223	0.194
-322.085	800.000	0.046	0.161
-321.070	421.133	-0.044	0.094
-320.056	82.307	0.198	-0.216
-319.041	-148.661	0.123	-0.010
-318.026	800.000	-0.078	-0.331
-317.012	-101.539	0.093	-0.023
-315.997	118.885	-0.204	-0.253
-314.983	-200.000	-0.036	0.282
-313.968	229.866	0.054	-0.088
-312.953	-200.000	-0.014	-0.186
-311.939	363.567	-0.139	0.282
-310.924	-97.504	0.145	-0.038
-309.910	-63.090	-0.356	-0.148
-308.895	255.486	-0.034	-0.058
-307.880	-139.640	0.032	-0.003
-306.866	-200.000	0.022	0.379
-305.851	-68.661	0.312	0.122
-304.837	-57.105	-0.115	-0.051
-303.822	-45.167	-0.385	-0.193
-302.807	-76.755	-0.173	-0.061
-301.793	89.270	0.396	-0.443
-300.778	800.000	-0.093	0.385
-299.764	-70.813	0.374	-0.142
-298.749	-200.000	-0.012	-0.135
-297.735	-44.371	-0.209	0.105
-296.720	213.980	-0.040	-0.063
-295.705	-79.333	0.108	-0.037
-294.691	-200.000	0.075	-0.378
-293.676	51.830	-0.109	0.105
-292.662	476.780	-0.010	0.023
-291.647	-85.092	0.134	-0.042
-290.632	-111.484	-0.290	-0.059
-289.618	115.222	0.114	0.140
-288.603	-77.866	0.407	-0.141
-287.589	-200.000	0.003	-0.352
-286.574	-123.107	0.151	0.024
-285.559	240.830	-0.087	-0.146
-284.545	-37.917	-0.515	0.275
-283.530	800.000	-0.036	-0.113
-282.516	800.000	-0.027	0.114
-281.501	-28.313	0.102	0.059
-280.486	800.000	-0.072	0.224
-279.472	154.158	0.142	-0.195
-278.457	46.371	-0.103	-0.096
-277.443	-200.000	-0.008	-0.154
-276.428	71.954	0.062	0.064
-275.413	-151.764	-0.245	0.018
-274.399	-78.311	0.105	0.036
-273.384	-98.733	-0.041	-0.011
-272.370	-119.971	-0.141	0.024
-271.355	148.264	0.186	0.253
-270.340	-200.000	0.012	0.055
-269.326	-89.107	0.081	-0.024
-268.311	-151.751	0.272	0.020
-267.297	-47.296	-0.049	0.024
-266.282	-197.880	0.191	-0.001
-265.267	-133.990	-0.455	0.057
-264.253	60.291	0.106	-0.106
-263.238	-63.597	0.159	-0.066
-262.224	-125.053	0.199	-0.031
-261.209	85.188	0.076	-0.084
-260.195	32.781	-0.095	-0.082
-259.180	-173.665	0.115	-0.003
-258.165	-161.645	0.086	-0.004
-257.151	-60.566	-0.189	-0.081
-256.136	-200.000	-0.043	-0.196
-255.122	-179.494	-0.518	0.011
-254.107	-200.000	-0.020	-0.158
-253.092	44.826	0.124	0.114
-252.078	-90.982	-0.352	-0.101
-251.063	-200.000	-0.015	0.166
-250.049	-62.833	0.213	-0.089
-249.034	98.962	-0.132	0.153
-248.019	198.196	-0.124	-0.190
-247.005	482.455	-0.111	0.254
-245.990	-190.185	-0.197	-0.002
-244.976	-143.547	-0.262	0.025
-243.961	-13.987	-0.098	0.063
-242.946	262.214	0.026	-0.046
-241.932	69.130	0.283	0.292
-240.917	-200.000	-0.025	0.173
-239.903	-143.770	-0.443	-0.042
-238.888	32.448	0.274	0.238
-237.873	19.473	-0.105	-0.084
-236.859	14.155	0.094	-0.073
-235.844	101.003	0.207	0.241
-234.830	-110.807	-0.206	-0.043
-233.815	137.504	-0.050	0.065
-232.800	-11.183	-0.074	-0.049
-231.786	-148.961	0.374	0.030
-230.771	800.000	-0.018	0.058
-229.757	-38.036	-0.110	0.059
-228.742	-200.000	0.044	0.298
-227.727	-36.097	0.128	0.070
-226.713	-125.733	-0.133	-0.020
-225.698	800.000	0.075	-0.302
-224.684	188.795	-0.099	0.149
-223.669	-17.653	0.243	0.153
-222.655	-10.808	0.199	0.132
-221.640	-106.291	0.376	-0.084
-220.625	-200.000	-0.008	0.137
-219.611	-62.006	-0.154	-0.064
-218.596	-51.915	0.114	-0.053
-217.582	87.497	-0.083	0.092
-216.567	757.071	0.073	-0.199
-215.552	513.434	-0.056	0.131
-214.538	-64.439	0.297	-0.121
-213.523	100.434	0.155	0.181
-212.509	-98.887	0.142	0.036
-211.494	382.390	-0.028	0.059
-210.479	119.571	0.109	0.136
-209.465	-200.000	0.010	0.067
-208.450	713.537	0.020	0.052
-207.436	228.961	0.145	0.237
-206.421	38.942	0.250	0.224
-205.406	344.143	0.106	-0.209
-204.392	16.295	0.046	-0.036
-203.377	-29.780	0.223	0.127
-202.363	-161.694	0.399	-0.020
-201.348	-64.911	-0.167	-0.068
-200.333	55.764	-0.187	0.182
-199.319	-86.733	-0.325	0.099
-198.304	22.271	0.139	0.113
-197.290	800.000	-0.113	-0.415
-196.275	239.463	0.335	0.558
-195.260	15.343	-0.217	-0.170
-194.246	126.891	0.193	0.245
-193.231	-200.000	0.005	0.107
-192.217	103.340	0.102	-0.120
-191.202	260.912	0.147	-0.254
-190.187	6.094	-0.207	-0.153
-189.173	187.281	0.172	-0.256
-188.158	3.829	0.010	0.008
-187.144	-12.872	-0.221	-0.144
-186.129	-200.000	0.021	-0.169
-185.114	141.903	0.164	0.218
-184.100	245.329	-0.193	0.324
-183.085	245.641	-0.112	0.189
-182.071	770.163	-0.112	0.306
-181.056	-85.865	-0.269	-0.083
-180.042	-200.000	0.012	0.115
-179.027	800.000	-0.059	0.210
-178.012	92.424	-0.127	-0.143
-176.998	-33.912	-0.190	0.104
-175.983	-60.990	0.066	-0.028
-174.969	-93.758	-0.138	-0.038
-173.954	800.000	-0.037	-0.118
-172.939	-137.250	0.059	0.007
-171.925	-34.502	0.154	-0.084
-170.910	800.000	-0.014	0.044
-169.896	68.968	-0.070	0.072
-168.881	-200.000	-0.007	-0.241
-167.866	-65.512	-0.274	0.110
-166.852	250.142	0.190	0.323
-165.837	32.354	0.174	-0.151
-164.823	12.103	-0.117	0.090
-163.808	22.558	-0.330	-0.270
-162.793	16.968	-0.300	0.237
-161.779	193.519	0.122	0.184
-160.764	800.000	0.130	0.538
-159.750	-56.060	-0.056	0.025
-158.735	388.476	-0.122	-0.252
-157.720	-200.000	-0.005	-0.105
-156.706	758.634	0.029	0.078
-155.691	332.639	0.142	0.275
-154.677	800.000	0.060	0.223
-153.662	56.639	-0.079	-0.076
-152.647	165.652	-0.145	0.205
-151.633	-49.301	0.290	0.139
-150.618	34.635	-0.165	0.144
-149.604	800.000	0.125	0.396
-148.589	118.500	-0.098	-0.120
-147.574	256.290	0.132	-0.227
-146.560	-200.000	0.036	0.173
-145.545	-200.000	0.051	0.455
-144.531	-175.975	-0.141	0.004
-143.516	-200.000	-0.015	-0.108
-142.502	165.304	0.215	0.304
-141.487	-41.811	0.114	-0.058
-140.472	-200.000	-0.014	0.107
-139.458	-96.636	-0.284	0.075
-138.443	3.092	0.069	0.050
-137.429	800.000	0.031	-0.113
-136.414	-200.000	-0.016	-0.184
-135.399	-49.839	-0.236	0.112
-134.385	-109.415	-0.446	-0.094
-133.370	800.000	-0.065	-0.274
-132.356	-117.574	-0.238	0.043
-131.341	-110.963	-0.162	-0.033
-130.326	-20.950	0.024	0.015
-129.312	159.302	0.112	0.156
-128.297	35.162	-0.098	0.086
-127.283	4.435	0.025	-0.018
-126.268	-96.582	0.372	-0.098
-125.253	800.000	-0.097	0.364
-124.239	443.428	-0.086	0.188
-123.224	81.630	0.177	-0.192
-122.210	24.337	-0.047	-0.039
-121.195	32.956	0.248	0.214
-120.180	-200.000	-0.014	-0.146
-119.166	539.425	-0.082	-0.195
-118.151	134.815	-0.148	0.192
-117.137	284.432	-0.067	0.120
-116.122	-200.000	0.012	0.145
-115.107	-62.135	0.254	-0.106
-114.093	-200.000	-0.018	0.115
-113.078	186.101	0.184	-0.273
-112.064	212.324	0.259	0.408
-111.049	154.350	0.138	0.189
-110.034	64.888	0.241	-0.243
-109.020	220.320	-0.149	0.239
-108.005	385.885	-0.151	0.311
-106.991	15.768	0.293	-0.230
-105.976	-108.585	-0.466	-0.100
-104.962	18.948	0.243	-0.194
-103.947	-6.861	0.172	-0.117
-102.932	-200.000	-0.040	0.516
-101.918	430.350	0.103	0.222
-100.903	-200.000	-0.039	0.253
-99.889	-135.916	0.109	0.013
-98.874	-200.000	0.020	-0.206
-97.859	-37.333	0.212	-0.113
-96.845	69.656	0.128	-0.132
-95.830	-160.346	-0.160	-0.009
-94.816	-154.442	0.330	-0.022
-93.801	-200.000	0.027	0.195
-92.786	-200.000	-0.055	-0.437
-91.772	327.820	0.070	0.135
-90.757	800.000	-0.083	0.244
-89.743	800.000	0.110	0.464
-88.728	-6.788	-0.235	-0.159
-87.713	98.713	-0.121	0.140
-86.699	54.844	-0.067	0.064
-85.684	-200.000	0.011	0.181
-84.670	800.000	0.087	-0.306
-83.655	-125.060	-0.174	0.027
-82.640	48.359	-0.108	-0.100
-81.626	-90.840	-0.248	-0.071
-80.611	-98.273	-0.105	-0.027
-79.597	-143.500	-0.247	0.024
-78.582	7.800	0.102	-0.076
-77.567	-151.520	0.293	-0.022
-76.553	119.581	-0.232	0.286
-75.538	-200.000	0.014	-0.069
-74.524	-200.000	-0.001	-0.135
-73.509	-200.000	0.001	-0.100
-72.494	-26.912	0.121	0.071
-71.480	-67.903	0.249	0.097
-70.465	-159.393	-0.177	-0.010
-69.451	-6.555	0.256	0.174
-68.436	231.428	-0.015	0.024
-67.422	-72.432	-0.168	0.062
-66.407	-200.000	0.040	-0.190
-65.392	169.897	-0.156	0.222
-64.378	150.002	0.137	-0.186
-63.363	-200.000	-0.009	-0.167
-62.349	-200.000	0.006	0.090
-61.334	158.739	-0.504	-0.697
-60.319	203.884	0.364	0.562
-59.305	280.678	-0.276	-0.492
-58.290	360.496	0.543	1.083
-57.276	800.000	0.489	1.388
-56.261	-200.000	77.269	516.217
-55.246	532.623	1317.309	3105.048
-54.232	149.442	2538.314	3422.941
-53.217	118.374	2210.536	2715.617
-52.203	53.003	1666.351	1587.810
-51.188	45.060	1394.137	1278.872
-50.173	41.546	1348.797	1215.873
-49.159	60.289	1384.404	1363.583
-48.144	67.448	1403.269	1426.024
-47.130	45.459	1366.105	1255.408
-46.115	41.347	1349.650	1215.238
-45.100	41.201	1344.866	1209.991
-44.086	40.983	1343.023	1206.966
-43.071	41.072	1340.442	1205.135
-42.057	41.079	1337.782	1202.741
-41.042	41.062	1335.889	1200.885
-40.027	41.235	1334.000	1200.180
-39.013	41.292	1332.293	1198.940
-37.998	41.152	1331.158	1197.033
-36.984	41.208	1329.691	1196.000
-35.969	41.203	1327.638	1194.075
-34.954	41.299	1325.765	1192.920
-33.940	41.260	1324.353	1191.367
-32.925	41.367	1322.922	1190.677
-31.911	41.396	1321.484	1189.505
-30.896	41.458	1319.657	1188.183
-29.881	41.283	1318.940	1186.451
-28.867	41.372	1317.338	1185.487
-27.852	41.471	1315.329	1184.224
-26.838	41.350	1314.611	1182.808
-25.823	41.259	1313.292	1181.039
-24.809	41.281	1311.697	1179.685
-23.794	41.355	1310.042	1178.586
-22.779	41.503	1308.503	1178.031
-21.765	41.427	1307.537	1176.670
-20.750	41.376	1306.388	1175.288
-19.736	41.241	1305.157	1173.338
-18.721	41.220	1304.077	1172.196
-17.706	41.272	1302.684	1171.205
-16.692	41.373	1300.611	1169.883
-15.677	41.173	1300.360	1168.438
-14.663	41.276	1299.308	1168.049
-13.648	41.229	1298.066	1166.616
-12.633	41.305	1296.797	1165.870
-11.619	41.244	1296.070	1164.811
-10.604	41.233	1295.423	1164.123
-9.590	41.169	1294.916	1163.250
-8.575	41.225	1293.258	1162.037
-7.560	41.159	1292.898	1161.285
-6.546	41.191	1291.941	1160.562
-5.531	41.191	1290.642	1159.352
-4.517	41.224	1289.903	1158.837
-3.502	41.394	1288.592	1158.595
-2.487	41.304	1287.947	1157.451
-1.473	41.213	1283.858	1153.203
-0.458	39.304	1267.634	1127.657
0.556	34.048	1247.266	1079.641
1.571	29.269	1250.424	1055.000
2.586	27.856	1265.596	1059.515
3.600	26.707	1254.332	1043.380
4.615	18.977	1178.243	938.018
5.629	7.122	1095.031	811.259
6.644	1.741	1070.863	766.260
7.659	1.215	1068.426	761.810
8.673	1.051	1067.333	760.138
9.688	1.045	1065.533	758.762
10.702	1.491	1064.966	760.521
11.717	8.563	1075.528	803.633
12.731	19.092	1090.318	867.981
13.746	23.408	1095.271	893.661
14.761	23.890	1095.711	896.371
15.775	23.769	1095.570	895.567
16.790	23.813	1094.105	894.511
17.804	23.523	1093.740	892.678
18.819	23.651	1093.277	892.864
19.834	23.808	1092.352	892.816
20.848	23.823	1092.348	892.808
21.863	23.781	1091.714	892.001
22.877	23.760	1090.954	891.196
23.892	23.580	1090.238	889.632
24.907	23.678	1090.057	889.893
25.921	23.692	1088.787	888.852
26.936	23.697	1087.043	887.374
27.950	23.596	1085.614	885.623
28.965	23.562	1083.476	883.629
29.980	23.650	1081.894	882.700
30.994	23.775	1081.218	882.692
32.009	23.893	1080.083	882.272
33.023	23.572	1078.896	879.633
34.038	23.672	1078.091	879.396
35.053	23.690	1078.126	879.433
36.067	23.803	1077.037	879.027
37.082	23.861	1075.859	878.274
38.096	23.887	1075.455	877.994
39.111	24.063	1075.108	878.504
40.126	23.866	1073.318	875.993
41.140	23.440	1071.793	872.577
42.155	23.386	1070.141	870.887
43.169	23.429	1069.066	870.145
44.184	23.514	1067.568	869.268
45.199	23.229	1067.298	867.575
46.213	23.346	1066.313	867.268
47.228	23.513	1065.647	867.469
48.242	23.615	1064.353	866.836
49.257	23.678	1063.797	866.612
50.271	23.884	1062.772	866.707
51.286	23.907	1062.041	866.143
52.301	23.868	1060.931	864.972
53.315	23.741	1060.213	863.694
54.330	23.840	1059.205	863.278
55.344	23.761	1058.655	862.372
56.359	23.615	1057.477	860.627
57.374	23.472	1056.605	859.146
58.388	23.612	1055.805	859.099
59.403	23.366	1055.150	857.299
60.417	23.296	1053.955	855.914
61.432	23.453	1053.424	856.163
62.447	23.485	1052.910	855.825
63.461	23.524	1052.284	855.428
64.476	23.467	1051.413	854.370
65.490	23.356	1050.035	852.640
66.505	23.461	1049.378	852.536
67.520	23.435	1048.715	851.802
68.534	23.271	1047.353	849.831
69.549	23.021	1046.054	847.503
70.563	23.001	1045.322	846.740
71.578	23.079	1044.903	846.697
72.593	22.867	1043.556	844.520
73.607	22.992	1042.760	844.397
74.622	23.280	1042.787	845.719
75.636	23.265	1041.990	844.927
76.651	23.152	1041.244	843.709
77.666	23.109	1040.509	842.833
78.680	23.157	1039.740	842.364
79.695	23.286	1038.846	842.178
80.709	23.425	1038.171	842.216
81.724	23.310	1037.243	840.843
82.739	23.262	1037.241	840.541
83.753	23.710	1036.447	841.946
84.768	24.009	1035.580	842.583
85.782	24.124	1034.906	842.504
86.797	23.933	1034.001	840.790
87.812	23.799	1032.622	838.964
88.826	23.950	1031.952	839.059
89.841	24.038	1030.938	838.572
90.855	24.086	1029.647	837.672
91.870	23.892	1029.264	836.377
92.884	23.869	1027.721	834.941
93.899	23.769	1026.880	833.713
94.914	23.935	1026.307	833.954
95.928	23.828	1025.027	832.340
96.943	23.526	1024.128	830.121
97.957	23.336	1022.786	828.075
98.972	23.233	1021.560	826.523
99.987	23.507	1020.742	827.068
101.001	23.731	1020.260	827.648
102.016	23.765	1019.293	826.948
103.030	23.604	1018.186	825.230
104.045	23.495	1017.486	824.082
105.060	23.523	1016.225	823.118
106.074	23.492	1015.592	822.387
107.089	23.837	1015.558	823.888
108.103	23.641	1014.577	822.114
109.118	23.443	1013.067	819.899
110.133	23.411	1011.969	818.792
111.147	23.244	1011.068	817.218
112.162	23.125	1009.872	815.632
113.176	23.523	1008.772	816.505
114.191	23.196	1008.725	814.885
115.206	22.940	1007.539	812.680
116.220	22.977	1006.717	812.114
117.235	23.130	1005.596	811.842
118.249	23.223	1004.896	811.628
119.264	23.061	1004.112	810.184
120.279	23.144	1003.287	809.828
121.293	23.278	1001.903	809.252
122.308	23.258	1001.845	809.041
123.322	23.251	1000.468	807.825
124.337	23.041	998.818	805.464
125.352	22.519	997.471	801.930
126.366	22.411	996.938	800.942
127.381	23.092	996.426	803.553
128.395	23.609	996.553	805.935
129.410	23.812	995.163	805.657
130.424	23.819	994.148	804.794
131.439	23.675	993.705	803.717
132.454	23.676	992.527	802.694
133.468	23.581	991.709	801.536
134.483	23.748	990.988	801.635
135.497	23.884	990.304	801.621
136.512	23.970	989.677	801.431
137.527	23.917	988.784	800.397
138.541	23.958	987.714	799.649
139.556	23.941	986.907	798.844
140.570	24.001	986.020	798.329
141.585	24.036	985.199	797.749
142.600	23.817	984.296	795.968
143.614	24.242	983.616	797.246
144.629	24.254	983.034	796.758
145.643	24.170	981.436	795.018
146.658	23.956	980.293	793.069
147.673	23.940	978.656	791.602
148.687	23.793	977.769	790.162
149.702	23.717	976.796	788.966
150.716	23.760	975.596	788.118
151.731	23.879	975.170	788.232
152.746	24.088	974.407	788.474
153.760	24.030	974.475	788.200
154.775	24.252	973.488	788.315
155.789	24.016	972.733	786.589
156.804	24.135	971.658	786.175
157.819	24.121	970.964	785.484
158.833	24.266	970.484	785.665
159.848	24.311	969.054	784.636
160.862	24.132	967.901	782.848
161.877	24.144	967.112	782.192
162.892	24.177	965.985	781.354
163.906	24.145	964.974	780.328
164.921	24.086	963.879	779.116
165.935	24.048	963.259	778.379
166.950	24.153	962.083	777.821
167.964	24.126	961.344	777.035
168.979	24.018	960.267	775.627
169.994	24.022	959.475	774.935
171.008	24.210	958.898	775.216
172.023	24.153	958.491	774.571
173.037	23.923	957.123	772.400
174.052	23.914	955.759	771.190
175.067	23.867	955.615	770.802
176.081	23.804	955.236	770.157
177.096	23.866	954.782	769.992
178.110	23.584	953.195	767.423
179.125	23.470	952.480	766.286
180.140	23.476	952.073	765.918
181.154	23.557	952.116	766.235
182.169	23.899	951.799	767.388
183.183	24.075	951.567	767.893
184.198	23.940	950.526	766.401
185.213	24.035	949.255	765.717
186.227	24.070	949.067	765.650
187.242	24.021	948.600	764.996
188.256	24.155	948.096	765.094
189.271	24.348	946.504	764.571
190.286	23.915	945.470	761.815
191.300	23.310	943.892	757.885
192.315	22.597	942.901	753.974
193.329	22.517	942.224	753.026
194.344	23.357	942.711	756.936
195.359	23.839	942.768	758.978
196.373	24.043	942.215	759.333
197.388	23.832	941.632	757.897
198.402	23.896	940.615	757.284
199.417	24.029	940.176	757.427
200.432	23.796	938.767	755.237
201.446	23.581	938.402	753.965
202.461	23.608	937.624	753.387
203.475	22.937	935.687	748.919
204.490	22.044	934.380	744.025
205.504	22.871	934.868	747.851
206.519	23.587	934.698	750.682
207.534	23.673	934.149	750.538
208.548	23.997	934.457	752.086
209.563	23.758	933.543	750.276
210.577	23.775	932.753	749.647
211.592	24.223	932.338	751.133
212.607	24.264	931.325	750.425
213.621	24.140	930.941	749.526
214.636	24.252	929.810	749.020
215.650	24.097	929.089	747.723
216.665	24.119	928.607	747.360
217.680	24.036	928.471	746.839
218.694	23.662	926.801	743.862
219.709	23.583	926.256	743.029
220.723	23.789	926.126	743.721
221.738	23.862	925.512	743.465
222.753	23.856	924.617	742.658
223.767	24.160	924.170	743.501
224.782	24.351	923.520	743.708
225.796	24.234	923.381	743.042
226.811	23.601	922.099	739.308
227.826	22.985	919.906	734.927
228.840	23.131	919.454	735.105
229.855	23.222	919.071	735.113
230.869	22.806	917.933	732.413
231.884	23.259	917.655	734.002
232.899	24.032	918.158	737.547
233.913	23.982	917.551	736.787
234.928	23.998	916.574	736.001
235.942	23.725	916.420	734.684
236.957	23.430	915.740	732.856
237.972	23.555	914.645	732.428
238.986	23.631	913.960	732.129
240.001	23.572	913.851	731.732
241.015	23.647	913.527	731.720
242.030	23.908	912.633	732.014
243.045	24.049	912.027	732.040
244.059	24.152	911.604	732.061
245.074	23.966	910.755	730.550
246.088	23.625	909.443	728.037
247.103	23.920	909.205	728.989
248.117	24.391	909.717	731.266
249.132	24.583	909.438	731.763
250.147	24.661	908.718	731.440
251.161	24.878	908.018	731.700
252.176	24.790	907.425	730.796
253.190	24.996	906.797	731.068
254.205	25.059	906.443	730.973
255.220	25.047	905.609	730.187
256.234	24.861	905.014	728.886
257.249	24.866	904.208	728.193
258.263	24.666	903.852	727.030
259.278	24.796	903.030	726.830
260.293	24.775	902.513	726.266
261.307	24.862	901.213	725.506
262.322	24.694	900.661	724.319
263.336	23.833	898.774	719.254
264.351	22.731	896.843	713.193
265.366	22.904	896.715	713.726
266.380	23.868	897.392	718.098
267.395	24.613	896.954	720.691
268.409	24.411	896.219	719.225
269.424	24.652	895.249	719.349
270.439	24.604	895.170	719.029
271.453	24.688	894.703	718.931
272.468	24.946	894.523	719.759
273.482	25.023	893.725	719.362
274.497	24.474	892.589	716.182
275.512	24.202	891.642	714.266
276.526	24.609	891.638	715.834
277.541	24.703	891.298	715.873
278.555	24.447	890.351	714.025
279.570	24.272	889.857	712.865
280.585	24.524	889.029	713.148
281.599	24.482	887.940	712.044
282.614	24.047	886.562	709.144
283.628	23.878	886.884	708.663
284.643	24.249	886.208	709.539
285.657	23.918	885.108	707.277
286.672	23.750	884.075	705.724
287.687	24.178	884.253	707.501
288.701	24.179	883.710	707.007
289.716	24.032	882.473	705.372
290.730	23.803	882.182	704.171
291.745	23.669	881.021	702.651
292.760	23.910	881.346	703.802
293.774	24.949	881.271	707.789
294.789	25.290	881.074	708.916
295.803	25.328	880.740	708.734
296.818	25.335	879.758	707.910
297.833	24.943	878.509	705.299
298.847	24.641	877.448	703.196
299.862	24.875	877.902	704.417
300.876	25.208	877.461	705.311
301.891	25.110	876.933	704.441
302.906	24.655	875.906	701.766
303.920	24.830	875.568	702.122
304.935	25.269	875.118	703.417
305.949	25.192	874.719	702.734
306.964	24.811	873.908	700.529
307.979	24.836	873.670	700.374
308.993	25.191	873.610	701.653
310.008	25.266	872.573	701.051
311.022	25.029	871.832	699.468
312.037	24.800	871.240	698.039
313.052	24.726	870.029	696.717
314.066	23.785	868.752	691.973
315.081	23.469	867.809	689.931
316.095	24.316	868.132	693.418
317.110	24.903	868.063	695.586
318.125	24.028	866.350	690.755
319.139	23.061	864.557	685.517
320.154	23.021	864.499	685.259
321.168	23.815	864.713	688.445
322.183	24.575	864.935	691.501
323.197	24.695	864.770	691.775
324.212	25.021	864.263	692.568
325.227	24.925	863.800	691.765
326.241	24.949	862.930	691.100
327.256	24.772	862.491	690.003
328.270	24.737	861.575	689.076
329.285	24.438	860.812	687.251
330.300	24.369	859.867	686.170
331.314	24.433	859.962	686.434
332.329	24.955	859.591	688.081
333.343	25.040	859.043	687.910
334.358	25.062	858.603	687.582
335.373	25.174	858.525	687.888
336.387	25.369	858.834	688.820
337.402	25.456	858.487	688.817
338.416	25.464	857.649	688.112
339.431	25.398	857.814	687.932
340.446	25.575	857.514	688.307
341.460	25.545	856.641	687.432
342.475	25.240	856.446	686.046
343.489	25.400	855.857	686.128
344.504	25.558	855.917	686.717
345.519	25.888	854.997	687.176
346.533	25.984	854.180	686.824
347.548	25.918	854.041	686.401
348.562	25.868	853.512	685.727
349.577	25.840	852.706	684.912
350.592	25.776	852.167	684.174
351.606	25.714	851.783	683.571
352.621	25.734	850.517	682.567
353.635	25.550	849.812	681.247
354.650	25.037	848.260	678.002
355.665	24.106	846.611	673.106
356.679	24.401	846.412	674.002
357.694	24.916	846.267	675.771
358.708	24.749	845.597	674.545
359.723	25.237	845.356	676.133
360.738	25.465	845.140	676.760
361.752	25.552	844.959	676.883
362.767	25.964	844.346	677.881
363.781	26.025	844.312	678.025
364.796	26.074	843.738	677.685
365.810	26.247	843.250	677.884
366.825	26.241	842.832	677.465
367.840	25.949	841.965	675.615
368.854	25.396	841.239	672.903
369.869	25.606	840.537	673.065
370.883	25.564	840.261	672.629
371.898	25.543	839.820	672.136
372.913	25.521	839.522	671.756
373.927	25.783	839.124	672.358
374.942	25.763	838.786	671.952
375.956	25.880	838.427	672.040
376.971	26.027	837.935	672.136
377.986	26.220	837.554	672.491
379.000	26.170	836.675	671.540
380.015	26.036	835.975	670.418
381.029	26.063	835.496	670.076
382.044	26.268	835.058	670.425
383.059	26.164	834.560	669.581
384.073	26.243	834.250	669.565
385.088	26.157	833.438	668.536
386.102	25.963	832.528	667.031
387.117	25.887	831.934	666.213
388.132	25.661	830.605	664.258
389.146	25.238	829.832	662.021
390.161	25.498	829.814	662.907
391.175	25.832	829.944	664.183
392.190	25.528	828.632	661.954
393.205	24.354	826.520	655.895
394.219	22.798	824.775	648.737
395.234	22.557	824.671	647.714
396.248	24.173	826.104	654.725
397.263	25.813	826.639	661.117
398.278	25.644	826.662	660.454
399.292	25.486	825.633	658.997
400.307	25.455	825.217	658.494
401.321	25.673	824.600	658.739
402.336	25.907	824.938	659.807
403.350	26.313	824.892	661.198
404.365	26.572	824.720	661.948
405.380	26.869	824.291	662.631
406.394	26.890	823.549	662.053
407.409	26.883	822.973	661.507
408.423	26.701	822.807	660.649
409.438	26.949	822.376	661.148
410.453	26.884	821.985	660.539
411.467	26.775	821.562	659.743
412.482	26.854	821.007	659.528
413.496	26.937	820.662	659.493
414.511	26.863	820.576	659.098
415.526	26.850	819.729	658.311
416.540	26.786	818.933	657.381
417.555	26.597	818.419	656.227
418.569	26.680	817.678	655.874
419.584	26.623	817.120	655.165
420.599	26.390	816.894	654.082
421.613	94.475	1263.519	1374.847
422.628	81.333	1328.613	1374.987
