DTS Sentinel unit serial number:	SN413079Multiplexer serial number:	ORYXHardware model number:	OX4-SRSoftware version number:	ORYX F/W v4.00 Oryx Data Collector v3.7.2.0data status	okinstallation	princeton_trtdifferential loss correction	single-endedforward channel	channel 1reverse channel	N/Adate	2019/09/13time	08:06:35forward acquisition time	60.00reverse acquisition time	0.00gamma	496.2192k internal	0.2332k external	0.2332temperature offset calibration	1.0161default loss term (dB/km)	0.3790temperature slope calibration	1.0000multiplexer offset coefficient	1.0000multiplexer slope coefficient	1.0000fibre end	0.00T internal ref (°C)	26.98T ext. ref 1 (°C)	4.25T ext. ref 2 (°C)	23.21length (m)	temperature (°C)	Stokes	anti-Stokes-747.200	-200.000	-0.016	0.141
-746.185	-170.541	0.126	-0.004
-745.171	-200.000	0.043	-0.295
-744.156	800.000	-0.166	0.516
-743.142	-200.000	0.032	0.464
-742.127	-134.551	-0.026	-0.003
-741.112	-134.185	-0.299	-0.037
-740.098	411.517	0.147	0.315
-739.083	-48.146	0.174	0.085
-738.069	55.282	0.096	0.093
-737.054	-10.718	-0.296	-0.197
-736.039	116.713	-0.142	-0.175
-735.025	-113.767	0.295	0.058
-734.010	-200.000	0.057	-0.360
-732.996	177.471	-0.116	-0.169
-731.981	-131.828	0.367	-0.048
-730.966	-200.000	0.016	0.252
-729.952	-123.559	-0.209	-0.033
-728.937	-167.165	0.217	-0.009
-727.923	-149.669	0.261	-0.021
-726.908	4.591	-0.388	-0.287
-725.894	800.000	0.044	0.150
-724.879	-200.000	-0.079	-0.408
-723.864	-155.483	0.127	-0.008
-722.850	-183.429	0.049	-0.001
-721.835	-119.362	-0.339	0.059
-720.821	-74.332	-0.315	0.114
-719.806	-125.445	-0.275	0.042
-718.791	32.414	-0.078	0.068
-717.777	-111.974	0.310	0.063
-716.762	-69.689	-0.175	-0.067
-715.748	257.019	0.030	-0.052
-714.733	-46.124	0.196	0.097
-713.718	35.437	-0.120	-0.106
-712.704	-55.740	-0.288	-0.129
-711.689	82.961	-0.072	0.079
-710.675	125.505	-0.169	-0.214
-709.660	-200.000	0.029	0.139
-708.645	-87.119	0.179	0.055
-707.631	-32.254	-0.104	0.058
-706.616	-103.797	-0.124	-0.029
-705.602	-33.408	0.177	-0.098
-704.587	-200.000	-0.031	-0.330
-703.572	606.687	0.025	0.063
-702.558	-200.000	-0.024	0.132
-701.543	-124.105	0.203	-0.032
-700.529	-200.000	0.028	-0.181
-699.514	50.751	-0.350	-0.333
-698.499	-87.476	-0.216	-0.066
-697.485	-174.892	-0.214	-0.006
-696.470	105.104	-0.097	-0.115
-695.456	-151.109	-0.337	0.025
-694.441	-65.121	-0.079	-0.032
-693.426	-21.753	-0.094	-0.058
-692.412	-107.794	-0.251	-0.055
-691.397	232.851	0.132	0.219
-690.383	-155.376	0.054	-0.004
-689.368	-200.000	-0.003	0.037
-688.354	-129.012	-0.253	0.036
-687.339	-53.184	-0.232	0.107
-686.324	800.000	0.054	-0.211
-685.310	-88.343	0.199	-0.060
-684.295	-200.000	-0.012	-0.122
-683.281	-17.174	0.164	0.104
-682.266	296.427	-0.038	0.071
-681.251	17.728	0.172	0.137
-680.237	182.810	0.163	-0.242
-679.222	800.000	-0.106	0.444
-678.208	-119.357	-0.473	0.083
-677.193	-167.421	-0.130	0.005
-676.178	-7.183	-0.096	0.065
-675.164	260.595	0.100	-0.173
-674.149	764.885	0.071	-0.192
-673.135	84.071	-0.178	-0.195
-672.120	-29.492	-0.110	-0.063
-671.105	-110.537	0.190	-0.039
-670.091	141.589	-0.084	-0.111
-669.076	6.901	-0.169	0.126
-668.062	69.482	0.082	-0.084
-667.047	-56.800	0.101	-0.045
-666.032	0.247	0.309	-0.221
-665.018	-75.030	-0.216	-0.078
-664.003	258.927	-0.108	-0.188
-662.989	800.000	0.139	-0.503
-661.974	382.153	0.040	-0.082
-660.959	353.030	-0.099	0.196
-659.945	623.208	0.064	0.163
-658.930	800.000	-0.164	-0.581
-657.916	-131.258	0.121	-0.016
-656.901	500.256	0.029	-0.068
-655.886	65.721	0.088	0.089
-654.872	800.000	0.039	0.158
-653.857	-129.790	-0.246	-0.034
-652.843	-200.000	-0.075	0.333
-651.828	-200.000	0.034	-0.422
-650.814	-141.973	0.222	-0.022
-649.799	-101.821	-0.145	-0.035
-648.784	1.202	0.113	-0.081
-647.770	-0.678	-0.215	0.153
-646.755	800.000	0.021	0.064
-645.741	527.559	-0.118	0.279
-644.726	-200.000	-0.015	0.144
-643.711	-146.748	0.097	-0.008
-642.697	-136.569	-0.279	0.032
-641.682	33.772	0.097	0.084
-640.668	-200.000	-0.050	0.333
-639.653	800.000	-0.089	-0.304
-638.638	-31.128	0.073	0.041
-637.624	-3.934	-0.078	0.054
-636.609	-148.920	-0.163	-0.013
-635.595	-129.652	0.200	0.028
-634.580	-200.000	0.006	0.055
-633.565	476.798	0.060	0.135
-632.551	-200.000	-0.006	0.143
-631.536	-136.308	0.066	0.008
-630.522	-107.317	-0.281	0.062
-629.507	-101.173	-0.226	-0.055
-628.492	-155.093	-0.100	0.007
-627.478	-92.019	0.145	0.041
-626.463	394.396	-0.085	0.178
-625.449	-172.748	0.086	0.003
-624.434	192.620	-0.218	-0.330
-623.419	114.376	0.150	0.183
-622.405	-151.432	-0.208	0.015
-621.390	-17.500	0.261	-0.164
-620.376	-75.633	0.009	0.003
-619.361	-44.686	0.151	-0.076
-618.346	136.933	-0.174	-0.228
-617.332	-124.081	0.170	-0.027
-616.317	-85.452	0.161	0.050
-615.303	254.795	-0.104	-0.178
-614.288	94.214	-0.225	0.256
-613.273	6.846	0.032	-0.024
-612.259	-200.000	-0.028	0.133
-611.244	-30.035	0.201	0.114
-610.230	-200.000	0.037	-0.421
-609.215	-18.962	0.140	-0.087
-608.201	155.670	0.149	0.205
-607.186	-106.557	-0.074	-0.017
-606.171	46.971	0.107	-0.100
-605.157	-200.000	0.016	-0.088
-604.142	402.892	0.060	0.127
-603.128	112.388	0.143	0.174
-602.113	-200.000	-0.007	0.328
-601.098	248.956	0.151	0.256
-600.084	59.445	0.226	-0.223
-599.069	-200.000	-0.002	-0.032
-598.055	147.415	-0.155	0.209
-597.040	-94.667	-0.531	0.144
-596.025	-150.973	0.378	0.029
-595.011	16.534	0.114	0.090
-593.996	-102.052	-0.132	0.032
-592.982	64.331	-0.260	0.262
-591.967	800.000	-0.085	-0.244
-590.952	-101.386	0.339	-0.083
-589.938	-179.173	-0.368	0.008
-588.923	-200.000	-0.008	0.092
-587.909	194.442	-0.149	-0.226
-586.894	71.312	-0.221	0.229
-585.879	-200.000	-0.008	0.097
-584.865	-50.951	-0.063	0.030
-583.850	-104.413	-0.071	0.017
-582.836	800.000	0.067	-0.206
-581.821	132.618	-0.228	-0.294
-580.806	-33.823	-0.477	-0.263
-579.792	-133.158	-0.073	-0.009
-578.777	-200.000	0.001	-0.103
-577.763	-62.025	-0.127	0.053
-576.748	-200.000	-0.035	-0.161
-575.733	334.866	-0.062	-0.121
-574.719	66.138	0.066	0.067
-573.704	-45.866	0.251	0.124
-572.690	800.000	0.041	-0.116
-571.675	-200.000	-0.000	-0.221
-570.661	-157.271	-0.447	0.027
-569.646	5.404	0.103	-0.076
-568.631	-200.000	-0.043	-0.187
-567.617	-104.503	-0.299	0.069
-566.602	96.845	-0.004	-0.004
-565.588	-129.561	-0.248	-0.034
-564.573	-115.515	0.237	-0.044
-563.558	44.777	-0.258	-0.237
-562.544	-101.833	0.235	-0.057
-561.529	-122.532	-0.413	-0.067
-560.515	-125.263	0.186	-0.028
-559.500	-200.000	-0.033	0.279
-558.485	427.302	0.146	0.314
-557.471	-200.000	-0.006	0.145
-556.456	-21.494	0.420	-0.256
-555.442	-31.020	0.289	-0.163
-554.427	-200.000	0.031	0.261
-553.412	-56.294	0.389	0.173
-552.398	-93.531	-0.059	0.016
-551.383	19.997	-0.157	-0.127
-550.369	203.703	-0.107	0.165
-549.354	-200.000	-0.020	-0.271
-548.339	62.858	-0.256	-0.256
-547.325	-39.552	0.086	-0.045
-546.310	144.934	0.130	-0.173
-545.296	91.418	0.218	-0.245
-544.281	-173.508	-0.127	-0.004
-543.266	-14.405	0.129	0.083
-542.252	-71.530	0.147	-0.055
-541.237	122.103	0.068	-0.085
-540.223	143.086	-0.120	0.159
-539.208	-187.887	0.133	-0.002
-538.193	-57.384	-0.243	-0.107
-537.179	-71.682	-0.257	0.096
-536.164	-42.554	-0.194	0.099
-535.150	-52.448	0.216	-0.100
-534.135	158.660	-0.185	0.257
-533.121	-138.523	0.158	-0.017
-532.106	46.745	-0.246	0.228
-531.091	499.005	-0.118	0.271
-530.077	-200.000	0.011	-0.050
-529.062	-91.637	0.296	-0.084
-528.048	800.000	0.119	0.356
-527.033	87.687	0.166	-0.184
-526.018	800.000	-0.065	0.225
-525.004	337.694	0.045	-0.087
-523.989	-53.307	0.448	0.205
-522.975	253.286	-0.090	0.154
-521.960	-20.458	0.035	0.022
-520.945	176.096	0.271	-0.392
-519.931	220.734	0.223	-0.357
-518.916	264.106	0.097	0.169
-517.902	742.166	0.024	-0.064
-516.887	18.957	0.173	-0.138
-515.872	-93.407	0.170	-0.047
-514.858	11.452	0.037	-0.028
-513.843	-114.678	-0.258	0.049
-512.829	28.990	0.165	-0.140
-511.814	53.838	0.112	-0.108
-510.799	800.000	0.052	-0.153
-509.785	86.809	0.183	0.202
-508.770	800.000	0.039	-0.159
-507.756	-200.000	0.000	0.099
-506.741	-200.000	0.001	-0.130
-505.726	-135.760	-0.162	0.019
-504.712	-187.816	-0.360	-0.005
-503.697	-102.385	-0.212	0.051
-502.683	-200.000	0.035	0.230
-501.668	-18.755	0.065	0.040
-500.653	143.145	-0.090	0.120
-499.639	-100.383	0.195	-0.048
-498.624	-68.381	-0.160	-0.062
-497.610	130.492	-0.065	0.083
-496.595	239.311	-0.124	0.206
-495.581	163.925	-0.223	-0.312
-494.566	333.746	0.086	-0.166
-493.551	-200.000	0.080	0.409
-492.537	800.000	0.075	0.268
-491.522	344.534	0.165	0.324
-490.508	-86.787	0.147	0.045
-489.493	363.981	-0.072	0.144
-488.478	-52.538	0.244	0.112
-487.464	800.000	0.061	-0.216
-486.449	6.292	0.055	-0.040
-485.435	241.234	-0.191	-0.318
-484.420	-51.576	0.355	0.165
-483.405	-200.000	0.040	0.286
-482.391	-96.949	-0.201	0.053
-481.376	285.734	0.046	0.083
-480.362	96.824	0.143	-0.163
-479.347	-2.211	0.218	-0.152
-478.332	215.605	-0.042	0.067
-477.318	165.423	-0.169	0.237
-476.303	-68.701	-0.113	0.044
-475.289	259.373	-0.105	-0.180
-474.274	-168.470	0.527	0.020
-473.259	-150.438	0.236	-0.018
-472.245	800.000	0.068	0.201
-471.230	-30.451	0.162	-0.091
-470.216	-23.067	0.032	-0.019
-469.201	203.362	-0.132	0.204
-468.186	-200.000	0.042	0.197
-467.172	144.004	0.111	0.148
-466.157	-109.860	-0.513	-0.107
-465.143	234.009	0.170	-0.279
-464.128	-200.000	-0.034	0.233
-463.113	259.008	0.150	-0.258
-462.099	-200.000	0.005	-0.076
-461.084	-200.000	0.030	0.135
-460.070	-22.997	0.047	-0.028
-459.055	-79.890	-0.142	0.047
-458.040	-200.000	0.043	0.195
-457.026	-4.386	0.125	0.086
-456.011	390.291	-0.082	0.169
-454.997	-116.669	-0.191	-0.035
-453.982	-97.844	-0.310	0.080
-452.968	-26.306	-0.204	0.119
-451.953	-200.000	-0.018	-0.151
-450.938	-200.000	-0.031	0.158
-449.924	-47.024	0.384	-0.187
-448.909	73.513	-0.292	-0.304
-447.895	173.234	0.136	-0.195
-446.880	-52.601	-0.178	-0.082
-445.865	13.512	0.085	-0.066
-444.851	800.000	0.067	-0.188
-443.836	388.782	-0.029	-0.059
-442.822	-106.313	-0.189	0.042
-441.807	-200.000	-0.001	-0.299
-440.792	555.590	-0.101	-0.243
-439.778	-189.453	0.200	-0.002
-438.763	583.600	-0.073	0.179
-437.749	-37.747	-0.159	0.084
-436.734	134.336	-0.263	-0.338
-435.719	75.904	0.124	-0.130
-434.705	-55.473	0.431	0.192
-433.690	197.299	0.080	0.121
-432.676	-139.745	-0.267	0.028
-431.661	15.271	0.136	0.106
-430.646	24.960	-0.287	-0.236
-429.632	-30.856	-0.368	0.207
-428.617	50.434	0.122	0.114
-427.603	-200.000	0.005	0.365
-426.588	139.576	0.033	-0.043
-425.573	259.365	0.014	0.024
-424.559	400.611	-0.111	0.232
-423.544	-158.290	0.157	0.009
-422.530	-200.000	0.013	0.099
-421.515	-118.251	0.108	0.019
-420.500	-83.626	0.110	-0.035
-419.486	-32.944	-0.142	-0.079
-418.471	10.116	0.121	0.091
-417.457	612.889	-0.127	-0.316
-416.442	-185.139	-0.132	-0.002
-415.428	427.135	-0.111	-0.239
-414.413	800.000	0.047	0.150
-413.398	146.508	0.104	-0.138
-412.384	800.000	-0.050	-0.178
-411.369	-64.379	-0.114	0.046
-410.355	254.451	0.030	-0.052
-409.340	-200.000	-0.017	-0.168
-408.325	176.543	0.233	0.336
-407.311	-21.987	-0.139	-0.084
-406.296	-161.598	0.207	0.011
-405.282	-100.411	0.180	-0.044
-404.267	-86.838	0.130	-0.040
-403.252	81.276	0.238	0.255
-402.238	30.501	-0.239	0.203
-401.223	-14.723	-0.176	0.112
-400.209	-200.000	0.016	-0.125
-399.194	-52.236	-0.244	-0.112
-398.179	-126.216	0.120	-0.018
-397.165	208.405	-0.052	0.080
-396.150	-200.000	0.021	-0.142
-395.136	106.734	-0.055	-0.064
-394.121	800.000	-0.048	0.139
-393.106	-200.000	0.029	-0.356
-392.092	291.468	-0.054	-0.098
-391.077	62.517	0.231	-0.229
-390.063	800.000	-0.101	0.297
-389.048	163.355	0.102	0.143
-388.033	-157.143	0.213	-0.013
-387.019	-176.918	-0.187	-0.005
-386.004	-200.000	0.023	0.263
-384.990	-30.354	-0.062	0.035
-383.975	-200.000	-0.022	0.259
-382.960	-38.168	-0.236	-0.124
-381.946	800.000	0.056	-0.187
-380.931	-108.611	-0.236	0.050
-379.917	-200.000	-0.013	-0.083
-378.902	-60.634	0.413	-0.174
-377.888	-34.037	0.236	-0.129
-376.873	224.784	-0.117	-0.188
-375.858	-200.000	-0.013	0.071
-374.844	103.144	0.219	-0.255
-373.829	-96.219	0.060	0.016
-372.815	131.914	-0.168	0.215
-371.800	-73.606	0.079	-0.028
-370.785	-175.820	-0.365	0.010
-369.771	-41.920	-0.101	0.052
-368.756	99.414	0.237	-0.272
-367.742	17.016	0.097	-0.076
-366.727	85.279	-0.186	0.202
-365.712	450.971	0.077	0.168
-364.698	42.084	0.112	0.101
-363.683	800.000	0.135	-0.423
-362.669	-17.685	-0.303	0.188
-361.654	-151.080	0.279	0.021
-360.639	-23.767	-0.107	-0.063
-359.625	800.000	-0.070	-0.267
-358.610	35.753	-0.075	0.065
-357.596	774.290	-0.119	-0.323
-356.581	-200.000	0.008	0.132
-355.566	84.790	0.075	-0.081
-354.552	-200.000	-0.014	0.209
-353.537	26.698	-0.319	-0.264
-352.523	800.000	0.052	-0.151
-351.508	-31.271	0.175	-0.098
-350.493	71.781	0.098	-0.101
-349.479	-200.000	0.022	-0.349
-348.464	-96.600	0.184	0.048
-347.450	28.081	-0.414	-0.346
-346.435	-61.123	0.070	-0.029
-345.420	-141.574	0.159	0.016
-344.406	294.510	0.167	0.302
-343.391	800.000	0.045	0.191
-342.377	169.414	0.159	0.225
-341.362	-200.000	-0.002	0.125
-340.348	200.872	0.133	0.203
-339.333	732.265	0.060	0.158
-338.318	800.000	-0.051	-0.162
-337.304	185.854	0.068	-0.100
-336.289	-200.000	-0.081	0.470
-335.275	-69.164	-0.166	-0.063
-334.260	-200.000	0.064	-0.309
-333.245	-40.996	-0.356	-0.182
-332.231	12.633	0.153	0.117
-331.216	-70.717	-0.088	0.033
-330.202	-20.760	0.233	-0.142
-329.187	-82.280	-0.071	-0.023
-328.172	57.119	-0.208	-0.201
-327.158	97.909	-0.208	-0.237
-326.143	-200.000	-0.005	0.074
-325.129	-200.000	0.059	-0.412
-324.114	339.225	-0.058	0.112
-323.099	-53.432	-0.329	-0.149
-322.085	-109.570	-0.171	0.036
-321.070	-138.123	0.335	0.037
-320.056	-200.000	-0.010	-0.256
-319.041	102.792	0.197	0.228
-318.026	-149.187	0.302	0.024
-317.012	-200.000	-0.004	-0.177
-315.997	-51.535	-0.254	0.118
-314.983	-200.000	-0.001	-0.089
-313.968	-101.751	-0.161	-0.039
-312.953	106.778	0.217	-0.255
-311.939	284.181	-0.120	0.213
-310.924	-146.017	0.242	-0.021
-309.910	-200.000	0.011	0.180
-308.895	-73.838	0.279	-0.100
-307.880	-81.799	0.187	-0.061
-306.866	248.022	-0.185	0.309
-305.851	12.729	0.067	-0.051
-304.837	89.401	0.134	-0.148
-303.822	-184.967	-0.396	-0.006
-302.807	309.116	-0.047	-0.086
-301.793	105.519	0.184	-0.215
-300.778	-132.797	-0.118	-0.015
-299.764	149.595	-0.128	0.172
-298.749	-143.225	0.192	0.018
-297.735	35.743	-0.095	0.083
-296.720	120.744	0.084	-0.104
-295.705	-155.073	-0.347	-0.022
-294.691	370.514	-0.138	0.276
-293.676	-75.708	0.175	0.061
-292.662	-200.000	-0.099	0.447
-291.647	-200.000	-0.026	-0.173
-290.632	800.000	0.059	-0.180
-289.618	-200.000	-0.068	0.475
-288.603	-72.757	0.289	-0.105
-287.589	800.000	-0.054	-0.205
-286.574	-43.772	0.177	0.088
-285.559	70.820	0.151	-0.155
-284.545	800.000	0.077	0.239
-283.530	-36.509	0.200	0.106
-282.516	306.798	0.089	-0.163
-281.501	418.836	-0.119	0.251
-280.486	53.246	0.252	0.238
-279.472	-62.704	-0.160	-0.066
-278.457	-17.726	0.106	0.066
-277.443	-53.704	-0.147	-0.066
-276.428	-29.629	-0.102	0.057
-275.413	-7.772	0.201	0.134
-274.399	318.694	-0.114	0.213
-273.384	714.814	-0.116	0.304
-272.370	-30.359	0.062	0.035
-271.355	800.000	-0.022	-0.089
-270.340	-136.528	0.140	0.016
-269.326	-91.092	0.173	0.049
-268.311	606.513	-0.151	-0.372
-267.297	800.000	-0.032	-0.089
-266.282	-200.000	-0.018	-0.157
-265.267	-161.146	0.200	0.010
-264.253	-157.475	0.072	-0.004
-263.238	-102.769	-0.134	0.031
-262.224	-63.054	-0.212	0.087
-261.209	94.141	0.209	0.234
-260.195	-200.000	-0.036	-0.191
-259.180	-10.526	0.057	-0.037
-258.165	-200.000	0.006	0.382
-257.151	-10.244	-0.096	-0.063
-256.136	108.920	0.267	-0.315
-255.122	523.179	-0.114	0.265
-254.107	361.533	-0.038	0.075
-253.092	108.893	0.120	-0.142
-252.078	587.984	-0.027	0.065
-251.063	-139.986	0.135	-0.014
-250.049	-77.361	0.127	-0.044
-249.034	-31.908	0.285	0.157
-248.019	-111.663	-0.135	-0.027
-247.005	77.771	-0.058	0.061
-245.990	23.148	-0.152	0.123
-244.976	-150.155	0.251	0.019
-243.961	424.410	-0.010	0.022
-242.946	615.810	-0.054	0.134
-241.932	-200.000	0.006	0.058
-240.917	194.740	-0.089	0.133
-239.903	187.094	0.040	0.059
-238.888	106.700	-0.229	0.268
-237.873	-200.000	-0.010	0.186
-236.859	-33.725	-0.215	0.117
-235.844	800.000	-0.073	0.220
-234.830	-200.000	-0.032	0.267
-233.815	-47.782	-0.295	-0.141
-232.800	-130.722	0.691	-0.092
-231.786	45.363	-0.095	-0.086
-230.771	29.816	0.222	0.187
-229.757	-32.316	-0.100	0.055
-228.742	-133.930	0.147	0.018
-227.727	-78.916	0.238	-0.080
-226.713	43.334	-0.223	-0.201
-225.698	226.751	-0.075	-0.120
-224.684	-71.408	0.524	0.193
-223.669	-91.495	0.080	-0.023
-222.655	-50.622	0.127	-0.059
-221.640	277.863	-0.083	0.146
-220.625	39.651	-0.189	-0.167
-219.611	36.120	0.153	-0.133
-218.596	-200.000	0.000	-0.034
-217.582	-200.000	0.008	0.138
-216.567	-2.100	-0.019	-0.013
-215.552	-160.530	0.473	0.025
-214.538	800.000	-0.101	0.314
-213.523	-73.625	0.044	0.016
-212.509	92.439	0.146	-0.163
-211.494	-81.283	-0.204	-0.066
-210.479	192.699	0.008	-0.012
-209.465	473.921	0.006	-0.012
-208.450	94.123	0.161	-0.180
-207.436	-47.845	0.440	0.210
-206.421	-200.000	-0.019	-0.272
-205.406	-99.866	-0.394	-0.097
-204.392	-134.471	-0.630	0.076
-203.377	-2.511	-0.084	-0.058
-202.363	-77.231	0.229	0.079
-201.348	-117.342	-0.268	0.048
-200.333	-20.988	-0.258	-0.156
-199.319	460.291	-0.060	-0.131
-198.304	-200.000	0.015	-0.154
-197.290	-4.884	-0.008	-0.005
-196.275	29.745	-0.394	-0.330
-195.260	104.966	-0.127	-0.148
-194.246	-79.794	-0.240	0.079
-193.231	221.669	0.058	0.092
-192.217	431.960	0.100	-0.214
-191.202	-45.326	0.367	-0.179
-190.187	-78.200	0.322	0.109
-189.173	-59.720	-0.362	0.153
-188.158	-94.394	0.140	0.038
-187.144	390.801	-0.119	0.244
-186.129	-129.666	-0.386	-0.052
-185.114	429.810	-0.108	0.231
-184.100	-165.962	0.382	0.016
-183.085	0.841	0.148	0.104
-182.071	-50.065	-0.169	0.079
-181.056	-72.133	0.408	-0.149
-180.042	-98.239	0.255	-0.064
-179.027	771.454	0.091	0.245
-178.012	234.608	-0.051	-0.082
-176.998	257.726	-0.258	-0.436
-175.983	-90.765	-0.303	-0.086
-174.969	685.610	-0.090	-0.230
-173.954	-37.011	-0.207	-0.109
-172.939	-156.312	-0.298	-0.018
-171.925	-91.718	-0.128	-0.036
-170.910	-200.000	0.005	0.137
-169.896	-167.180	-0.068	0.003
-168.881	400.096	-0.055	-0.113
-167.866	800.000	-0.102	-0.314
-166.852	591.897	-0.084	-0.204
-165.837	-49.301	0.119	-0.056
-164.823	337.869	0.206	0.394
-163.808	29.365	-0.143	-0.120
-162.793	-87.243	-0.168	-0.050
-161.779	275.950	0.139	-0.243
-160.764	-90.914	0.157	-0.044
-159.750	-200.000	0.034	0.215
-158.735	-161.502	-0.241	0.012
-157.720	-141.423	0.167	0.017
-156.706	-46.938	-0.398	-0.191
-155.691	63.315	0.170	-0.168
-154.677	-56.997	-0.242	-0.105
-153.662	276.324	-0.161	0.282
-152.647	-200.000	0.007	0.103
-151.633	-67.446	0.432	-0.167
-150.618	-136.992	-0.201	-0.023
-149.604	-200.000	0.007	0.247
-148.589	-200.000	-0.011	0.124
-147.574	-100.660	0.211	0.051
-146.560	85.653	-0.245	-0.264
-145.545	503.739	-0.077	-0.174
-144.531	800.000	-0.068	-0.267
-143.516	-200.000	-0.005	-0.150
-142.502	-200.000	-0.009	-0.273
-141.487	-200.000	0.013	0.114
-140.472	-110.732	-0.255	0.052
-139.458	-29.339	0.226	-0.127
-138.443	-139.587	0.203	-0.021
-137.429	21.196	-0.176	-0.141
-136.414	-89.931	-0.118	0.034
-135.399	127.350	-0.078	-0.098
-134.385	35.024	0.222	-0.191
-133.370	561.730	-0.027	-0.063
-132.356	126.506	0.078	-0.097
-131.341	-147.318	0.207	0.017
-130.326	-200.000	0.028	-0.322
-129.312	-171.895	0.082	-0.003
-128.297	800.000	0.069	-0.211
-127.283	-28.822	0.088	-0.049
-126.268	68.209	0.130	-0.131
-125.253	-77.926	-0.052	-0.018
-124.239	103.450	-0.178	0.205
-123.224	104.011	-0.097	0.112
-122.210	166.503	-0.290	0.404
-121.195	19.424	0.206	0.163
-120.180	139.012	-0.193	-0.249
-119.166	-119.547	0.190	0.032
-118.151	625.255	0.038	0.095
-117.137	177.530	0.143	0.204
-116.122	-83.290	0.222	-0.070
-115.107	64.648	0.097	0.096
-114.093	-200.000	0.055	0.254
-113.078	800.000	-0.038	-0.106
-112.064	-33.926	0.143	-0.077
-111.049	-108.095	0.318	0.068
-110.034	-200.000	-0.251	0.000
-109.020	239.086	-0.070	0.115
-108.005	-124.617	0.123	0.019
-106.991	-176.736	-0.099	-0.002
-105.976	-92.282	-0.284	0.079
-104.962	-161.182	-0.332	0.017
-103.947	-200.000	-0.038	0.297
-102.932	95.750	0.209	0.235
-101.918	-17.958	-0.502	0.309
-100.903	-135.692	0.317	-0.037
-99.889	-200.000	-0.020	-0.128
-98.874	154.793	0.148	0.200
-97.859	800.000	0.078	0.300
-96.845	-1.675	-0.204	-0.141
-95.830	503.516	0.050	-0.114
-94.816	82.091	0.149	0.158
-93.801	-145.340	0.106	0.009
-92.786	800.000	-0.093	-0.253
-91.772	340.023	-0.161	0.309
-90.757	-200.000	-0.002	-0.022
-89.743	161.197	-0.217	0.298
-88.728	22.566	-0.091	-0.073
-87.713	227.720	0.131	-0.209
-86.699	13.634	0.257	0.195
-85.684	64.711	-0.042	0.042
-84.670	42.316	0.152	0.135
-83.655	-200.000	-0.049	-0.487
-82.640	53.669	-0.241	-0.227
-81.626	-200.000	0.050	-0.224
-80.611	-200.000	0.014	-0.072
-79.597	6.997	-0.184	-0.135
-78.582	-39.173	0.068	0.035
-77.567	-118.840	-0.243	0.042
-76.553	-200.000	-0.010	0.175
-75.538	-51.455	0.048	-0.022
-74.524	-200.000	0.149	-0.001
-73.509	-200.000	0.005	-0.051
-72.494	-53.809	-0.371	0.166
-71.480	-3.884	0.156	0.106
-70.465	262.939	0.178	0.302
-69.451	21.801	-0.223	0.178
-68.436	-69.797	0.355	0.133
-67.422	800.000	0.072	-0.274
-66.407	-4.638	-0.349	0.236
-65.392	-45.476	-0.250	-0.121
-64.378	-60.871	0.044	-0.018
-63.363	-200.000	0.008	-0.036
-62.349	-200.000	-0.014	0.157
-61.334	122.077	-0.981	-1.199
-60.319	4.962	0.589	0.425
-59.305	-200.000	-0.222	-1.146
-58.290	452.943	0.606	1.314
-57.276	593.006	0.519	1.255
-56.261	-200.000	114.356	660.029
-55.246	544.153	1528.177	3573.644
-54.232	176.019	2702.158	3841.694
-53.217	110.259	2163.819	2545.225
-52.203	38.931	1602.513	1402.242
-51.188	30.254	1346.505	1125.807
-50.173	27.508	1308.000	1077.355
-49.159	55.915	1365.683	1297.061
-48.144	54.078	1379.455	1299.049
-47.130	30.594	1334.013	1117.227
-46.115	27.149	1315.999	1081.637
-45.100	26.862	1311.648	1076.311
-44.086	26.816	1308.905	1073.745
-43.071	26.795	1306.888	1071.927
-42.057	26.905	1304.115	1070.261
-41.042	26.864	1303.046	1069.094
-40.027	26.892	1301.398	1067.866
-39.013	26.795	1300.036	1066.138
-37.998	26.850	1298.091	1064.819
-36.984	26.927	1296.101	1063.600
-35.969	26.953	1293.978	1061.967
-34.954	27.005	1292.633	1061.125
-33.940	27.082	1291.584	1060.670
-32.925	27.097	1289.605	1059.091
-31.911	27.101	1287.942	1057.706
-30.896	27.143	1286.574	1056.784
-29.881	27.124	1285.561	1055.800
-28.867	27.127	1284.128	1054.599
-27.852	27.155	1282.642	1053.503
-26.838	27.045	1281.449	1051.840
-25.823	27.061	1280.166	1050.841
-24.809	26.984	1278.478	1048.966
-23.794	27.002	1277.537	1048.257
-22.779	27.169	1275.806	1047.758
-21.765	27.071	1274.634	1046.192
-20.750	27.122	1273.247	1045.301
-19.736	26.958	1272.336	1043.572
-18.721	26.875	1271.353	1042.248
-17.706	26.952	1270.325	1041.804
-16.692	27.089	1268.998	1041.461
-15.677	26.968	1267.751	1039.704
-14.663	26.861	1266.680	1038.171
-13.648	26.955	1265.584	1037.769
-12.633	26.904	1264.532	1036.575
-11.619	26.993	1263.463	1036.162
-10.604	26.889	1262.869	1035.043
-9.590	26.953	1261.887	1034.560
-8.575	26.837	1260.951	1033.089
-7.560	26.879	1260.120	1032.609
-6.546	26.834	1259.249	1031.598
-5.531	26.938	1258.265	1031.345
-4.517	26.917	1257.380	1030.457
-3.502	26.971	1256.637	1030.111
-2.487	26.951	1255.673	1029.169
-1.473	26.949	1251.213	1025.460
-0.458	25.731	1236.853	1006.844
0.556	24.073	1220.134	969.917
1.571	20.658	1225.105	955.071
2.586	19.588	1239.851	960.534
3.600	19.070	1227.591	948.095
4.615	14.557	1155.954	869.228
5.629	7.480	1084.673	780.844
6.644	4.569	1065.932	753.194
7.659	4.197	1064.061	750.007
8.673	4.139	1062.703	748.702
9.688	4.095	1060.901	747.153
10.702	4.396	1059.333	747.432
11.717	9.063	1065.488	774.264
12.731	16.752	1076.317	819.399
13.746	21.270	1081.586	845.254
14.761	21.994	1082.497	849.392
15.775	21.252	1081.079	844.621
16.790	20.294	1078.788	838.130
17.804	19.742	1077.173	834.137
18.819	19.448	1076.581	832.190
19.834	19.414	1076.236	831.686
20.848	19.407	1075.027	830.645
21.863	19.286	1074.129	829.293
22.877	18.956	1073.675	827.284
23.892	19.027	1072.900	826.952
24.907	18.911	1072.217	825.797
25.921	19.052	1070.638	825.185
26.936	18.925	1069.884	823.922
27.950	18.939	1068.354	822.735
28.965	19.070	1067.020	822.262
29.980	19.250	1065.275	821.703
30.994	19.350	1064.787	821.733
32.009	19.275	1064.087	820.761
33.023	19.340	1062.824	820.024
34.038	19.140	1061.622	818.073
35.053	18.931	1061.299	816.761
36.067	19.015	1060.041	816.117
37.082	19.140	1058.894	815.754
38.096	19.269	1058.606	816.072
39.111	19.150	1057.840	814.844
40.126	19.115	1056.388	813.489
41.140	18.804	1054.717	810.662
42.155	18.590	1053.860	808.922
43.169	18.680	1052.654	808.351
44.184	18.638	1051.845	807.460
45.199	18.568	1051.089	806.478
46.213	18.772	1050.019	806.543
47.228	19.113	1048.883	807.200
48.242	19.062	1048.353	806.481
49.257	19.038	1047.205	805.413
50.271	19.058	1046.610	804.978
51.286	19.019	1045.572	803.926
52.301	19.152	1043.997	803.266
53.315	19.060	1043.012	802.009
54.330	18.878	1042.477	800.679
55.344	18.779	1041.341	799.275
56.359	18.771	1040.712	798.682
57.374	18.821	1039.542	797.950
58.388	18.635	1038.461	796.185
59.403	18.577	1037.473	795.085
60.417	18.576	1037.260	794.847
61.432	18.509	1036.318	793.747
62.447	18.434	1035.825	792.949
63.461	18.419	1034.703	791.952
64.476	18.393	1033.488	790.833
65.490	18.359	1032.908	790.162
66.505	18.546	1032.176	790.395
67.520	18.533	1031.779	789.961
68.534	18.375	1031.034	788.595
69.549	18.405	1030.178	788.005
70.563	18.257	1029.364	786.635
71.578	18.191	1028.377	785.507
72.593	18.094	1027.514	784.332
73.607	18.067	1027.141	783.856
74.622	18.205	1026.275	783.757
75.636	18.283	1025.648	783.567
76.651	18.262	1024.728	782.700
77.666	18.172	1024.719	782.209
78.680	18.312	1023.409	781.779
79.695	18.271	1023.216	781.376
80.709	18.597	1022.109	781.949
81.724	18.564	1022.051	781.684
82.739	18.687	1021.378	781.661
83.753	18.944	1020.901	782.396
84.768	19.280	1019.986	783.155
85.782	19.503	1019.613	783.811
86.797	19.314	1018.707	782.187
87.812	19.242	1017.319	780.724
88.826	19.307	1016.588	780.389
89.841	19.192	1015.827	779.215
90.855	19.371	1014.322	778.803
91.870	19.371	1013.992	778.479
92.884	19.412	1012.725	777.620
93.899	19.421	1012.041	777.068
94.914	19.447	1011.652	776.820
95.928	19.341	1010.775	775.597
96.943	19.251	1009.525	774.166
97.957	19.145	1009.126	773.315
98.972	19.242	1008.113	772.907
99.987	19.182	1007.125	771.813
101.001	19.195	1006.148	771.053
102.016	19.217	1005.009	770.209
103.030	19.288	1004.327	769.938
104.045	19.266	1003.682	769.278
105.060	19.226	1002.559	768.168
106.074	18.786	1001.624	765.425
107.089	18.571	1000.367	763.437
108.103	18.596	999.053	762.481
109.118	18.451	998.331	761.219
110.133	18.320	997.654	760.051
111.147	18.296	996.820	759.245
112.162	18.569	995.731	759.556
113.176	18.601	995.353	759.343
114.191	18.862	994.440	759.733
115.206	18.736	993.974	758.755
116.220	18.581	993.141	757.364
117.235	18.550	991.545	755.943
118.249	18.538	990.903	755.335
119.264	18.455	990.564	754.644
120.279	18.500	989.464	753.936
121.293	18.445	988.691	753.042
122.308	18.234	987.887	751.436
123.322	18.135	986.698	750.029
124.337	18.222	985.596	749.508
125.352	18.173	984.826	748.640
126.366	18.374	983.329	748.315
127.381	18.393	982.242	747.506
128.395	18.292	981.614	746.520
129.410	18.380	981.159	746.491
130.424	18.452	980.167	745.982
131.439	18.593	979.567	746.073
132.454	18.699	978.746	745.846
133.468	18.647	977.890	744.900
134.483	18.585	977.205	744.044
135.497	18.716	976.100	743.703
136.512	18.670	975.748	743.171
137.527	18.673	974.858	742.440
138.541	18.753	973.834	741.942
139.556	18.757	973.400	741.560
140.570	18.932	973.111	742.030
141.585	19.199	972.095	742.339
142.600	19.098	971.458	741.354
143.614	19.348	970.337	741.509
144.629	19.325	969.992	741.080
145.643	19.242	968.860	739.792
146.658	19.004	967.558	737.715
147.673	18.854	966.126	735.912
148.687	18.881	965.167	735.233
149.702	18.789	964.283	734.103
150.716	18.669	963.711	733.087
151.731	18.710	963.339	732.918
152.746	18.759	962.320	732.285
153.760	18.890	961.815	732.393
154.775	18.979	961.240	732.271
155.789	19.042	960.627	732.005
156.804	19.126	959.831	731.694
157.819	19.161	959.338	731.399
158.833	19.230	958.859	731.265
159.848	19.332	958.117	731.066
160.862	19.372	956.356	729.826
161.877	18.904	955.237	726.930
162.892	18.852	954.093	725.775
163.906	18.558	953.402	723.943
164.921	18.783	952.626	724.240
165.935	18.843	951.706	723.729
166.950	18.895	951.028	723.367
167.964	18.837	950.093	722.350
168.979	18.751	949.347	721.358
169.994	18.757	948.055	720.339
171.008	18.932	947.693	720.733
172.023	19.120	947.080	720.990
173.037	19.327	946.490	721.341
174.052	19.253	945.408	720.146
175.067	18.763	944.745	717.528
176.081	18.615	944.187	716.426
177.096	18.777	943.695	716.662
178.110	18.712	943.208	715.958
179.125	18.728	942.707	715.582
180.140	18.963	941.944	715.916
181.154	18.967	942.313	716.152
182.169	19.295	941.306	716.688
183.183	19.336	940.596	716.253
184.198	19.380	939.488	715.528
185.213	19.207	939.160	714.500
186.227	19.193	938.825	714.123
187.242	19.340	938.020	714.056
188.256	19.560	937.114	714.211
189.271	19.483	936.715	713.526
190.286	19.140	935.401	711.049
191.300	18.729	934.000	708.224
192.315	18.496	933.452	706.784
193.329	18.785	933.227	707.743
194.344	18.899	932.443	707.556
195.359	18.964	931.920	707.364
196.373	19.196	931.288	707.774
197.388	19.366	931.236	708.371
198.402	19.541	930.975	708.827
199.417	19.716	929.970	708.720
200.432	19.813	929.581	708.755
201.446	19.780	929.587	708.561
202.461	19.822	928.804	708.075
203.475	19.873	928.204	707.763
204.490	19.416	927.468	705.272
205.504	19.237	926.398	703.663
206.519	19.146	926.028	702.948
207.534	19.320	924.912	702.748
208.548	19.477	923.948	702.596
209.563	19.429	923.625	702.092
210.577	19.458	923.058	701.716
211.592	19.702	922.481	702.207
212.607	19.737	921.928	701.866
213.621	19.704	921.027	700.984
214.636	19.671	920.055	700.049
215.650	19.564	919.753	699.323
216.665	19.754	918.704	699.232
217.680	19.837	918.487	699.340
218.694	19.902	917.648	698.903
219.709	19.665	917.221	697.559
220.723	19.731	916.260	697.032
221.738	19.710	915.714	696.473
222.753	19.685	915.184	695.907
223.767	19.806	914.522	695.827
224.782	20.001	914.032	696.176
225.796	20.000	913.696	695.855
226.811	19.871	913.088	694.813
227.826	19.569	912.320	692.957
228.840	19.618	911.079	692.147
229.855	19.597	910.564	691.610
230.869	19.767	909.393	691.340
231.884	19.516	909.002	689.978
232.899	19.542	908.346	689.523
233.913	19.425	907.591	688.423
234.928	19.367	906.849	687.569
235.942	19.437	905.876	687.049
236.957	19.415	905.601	686.689
237.972	19.289	905.374	685.956
238.986	19.344	904.582	685.516
240.001	19.397	903.896	685.144
241.015	19.489	903.490	685.141
242.030	19.701	902.530	685.193
243.045	19.759	902.426	685.284
244.059	19.612	901.844	684.198
245.074	19.726	901.172	684.078
246.088	19.830	900.566	683.971
247.103	19.969	900.343	684.289
248.117	20.153	899.810	684.551
249.132	20.443	899.504	685.402
250.147	20.521	899.269	685.471
251.161	20.705	898.318	685.408
252.176	20.606	898.125	684.813
253.190	20.755	896.933	684.426
254.205	20.777	896.875	684.411
255.220	20.723	895.650	683.204
256.234	20.679	895.253	682.666
257.249	20.684	894.596	682.123
258.263	20.623	893.536	681.016
259.278	20.482	893.458	680.346
260.293	20.732	892.596	680.607
261.307	20.750	892.129	680.262
262.322	20.940	891.538	680.493
263.336	20.900	890.803	679.712
264.351	20.802	890.064	678.709
265.366	20.840	889.396	678.289
266.380	20.738	888.999	677.527
267.395	20.729	887.995	676.666
268.409	20.583	887.289	675.501
269.424	20.586	886.341	674.733
270.439	20.492	886.111	674.131
271.453	20.425	884.979	672.954
272.468	20.551	884.308	672.872
273.482	20.309	884.337	671.896
274.497	20.416	883.299	671.461
275.512	20.481	882.719	671.214
276.526	20.274	882.729	670.360
277.541	20.556	882.050	670.874
278.555	20.761	881.555	671.230
279.570	20.845	881.238	671.252
280.585	20.988	880.500	671.183
281.599	20.697	879.241	669.044
282.614	20.503	878.721	667.843
283.628	20.549	877.775	667.241
284.643	20.715	877.040	667.262
285.657	20.550	876.899	666.461
286.672	20.647	876.052	666.132
287.687	20.731	875.375	665.878
288.701	20.539	875.135	664.901
289.716	20.732	874.473	665.080
290.730	20.671	873.725	664.216
291.745	20.700	873.340	663.977
292.760	20.897	872.446	663.990
293.774	20.931	872.376	664.005
294.789	20.942	871.689	663.466
295.803	20.687	870.602	661.612
296.818	20.790	869.591	661.175
297.833	20.789	868.848	660.547
298.847	20.775	868.535	660.200
299.862	20.807	868.192	659.999
300.876	20.964	867.736	660.191
301.891	20.995	867.532	660.094
302.906	21.129	867.019	660.152
303.920	21.354	866.638	660.653
304.935	21.344	866.010	660.080
305.949	21.248	865.106	658.971
306.964	20.933	864.693	657.408
307.979	21.246	863.825	657.868
308.993	21.284	863.456	657.674
310.008	21.225	862.770	656.871
311.022	21.152	862.154	656.069
312.037	20.950	861.529	654.776
313.052	20.701	860.811	653.240
314.066	20.601	860.088	652.257
315.081	20.721	859.477	652.185
316.095	20.828	858.879	652.074
317.110	20.704	858.370	651.168
318.125	20.810	857.859	651.117
319.139	20.693	857.596	650.424
320.154	20.718	857.067	650.059
321.168	20.795	856.789	650.079
322.183	20.926	855.953	649.876
323.197	20.948	855.555	649.595
324.212	20.988	854.680	649.023
325.227	20.920	854.037	648.223
326.241	20.838	853.634	647.558
327.256	20.791	853.376	647.129
328.270	20.656	853.160	646.405
329.285	20.798	851.983	645.985
330.300	20.846	851.289	645.577
331.314	20.740	851.401	645.212
332.329	21.134	850.766	646.136
333.343	21.104	850.497	645.763
334.358	21.083	849.897	645.172
335.373	21.124	849.628	645.062
336.387	21.336	849.046	645.346
337.402	21.273	849.174	645.153
338.416	21.397	848.756	645.238
339.431	21.554	848.272	645.391
340.446	21.740	848.052	645.851
341.460	21.720	847.557	645.342
342.475	21.744	847.141	645.060
343.489	21.926	846.776	645.392
344.504	21.827	846.759	644.956
345.519	21.976	846.002	644.870
346.533	21.846	845.205	643.732
347.548	21.535	844.814	642.234
348.562	21.321	844.015	640.785
349.577	21.290	842.889	639.761
350.592	21.090	842.458	638.643
351.606	21.190	841.316	638.089
352.621	21.279	841.211	638.275
353.635	21.195	840.755	637.567
354.650	21.446	839.459	637.445
355.665	21.573	838.983	637.487
356.679	21.484	838.943	637.076
357.694	21.435	838.222	636.295
358.708	21.499	837.557	635.965
359.723	21.376	836.823	634.905
360.738	21.481	836.567	635.037
361.752	21.621	835.695	634.827
362.767	21.622	835.348	634.512
363.781	21.764	835.256	634.900
364.796	21.933	834.882	635.172
365.810	22.156	834.253	635.441
366.825	22.138	834.050	635.165
367.840	22.063	833.373	634.323
368.854	22.109	832.340	633.648
369.869	22.051	831.884	633.033
370.883	21.977	831.711	632.581
371.898	22.048	831.645	632.731
372.913	22.040	831.347	632.419
373.927	21.990	830.289	631.379
374.942	22.138	830.132	631.735
375.956	22.185	829.709	631.524
376.971	22.338	829.102	631.558
377.986	22.269	829.123	631.269
379.000	22.388	828.419	631.104
380.015	22.312	827.788	630.295
381.029	22.125	827.528	629.371
382.044	22.138	826.558	628.626
383.059	22.344	825.886	628.795
384.073	22.274	824.995	627.809
385.088	22.063	824.401	626.550
386.102	21.890	823.714	625.356
387.117	21.894	823.123	624.867
388.132	21.779	822.923	624.249
389.146	21.964	822.343	624.412
390.161	22.177	821.998	624.855
391.175	22.384	821.255	624.968
392.190	21.996	821.059	623.387
393.205	22.000	820.221	622.708
394.219	21.916	819.894	622.106
395.234	21.901	819.476	621.682
396.248	21.819	818.659	620.717
397.263	21.763	818.266	620.166
398.278	21.813	817.905	620.013
399.292	21.750	817.832	619.683
400.307	21.764	817.406	619.353
401.321	21.719	816.560	618.499
402.336	21.782	816.462	618.591
403.350	22.098	816.008	619.307
404.365	22.197	815.666	619.342
405.380	22.382	815.207	619.591
406.394	22.387	814.898	619.316
407.409	22.490	814.544	619.355
408.423	22.512	814.308	619.201
409.438	22.787	814.097	619.951
410.453	22.722	813.446	619.173
411.467	22.742	812.680	618.603
412.482	22.763	812.706	618.644
413.496	22.948	812.171	618.830
414.511	22.705	811.964	617.764
415.526	22.799	811.050	617.345
416.540	22.820	810.219	616.731
417.555	22.722	810.071	616.220
418.569	22.802	809.763	616.211
419.584	22.721	809.280	615.505
420.599	22.625	809.169	615.033
421.613	164.456	1371.339	1795.204
422.628	143.207	1453.241	1795.289
