DTS Sentinel unit serial number:	SN413079Multiplexer serial number:	ORYXHardware model number:	OX4-SRSoftware version number:	ORYX F/W v4.00 Oryx Data Collector v3.7.2.0data status	okinstallation	princeton_trtdifferential loss correction	single-endedforward channel	channel 1reverse channel	N/Adate	2019/09/13time	10:26:35forward acquisition time	60.00reverse acquisition time	0.00gamma	496.2192k internal	0.2322k external	0.2322temperature offset calibration	1.0161default loss term (dB/km)	0.3790temperature slope calibration	1.0000multiplexer offset coefficient	1.0000multiplexer slope coefficient	1.0000fibre end	0.00T internal ref (°C)	31.05T ext. ref 1 (°C)	4.53T ext. ref 2 (°C)	28.00length (m)	temperature (°C)	Stokes	anti-Stokes-747.200	27.446	0.108	-0.091
-746.185	-54.818	0.083	0.038
-745.171	-104.889	0.143	0.033
-744.156	800.000	-0.167	0.477
-743.142	-108.495	-0.181	-0.039
-742.127	-200.000	0.005	0.215
-741.112	251.262	-0.161	0.277
-740.098	50.736	0.185	0.177
-739.083	-200.000	0.007	0.241
-738.069	-66.388	0.316	0.127
-737.054	800.000	-0.034	0.124
-736.039	-118.735	-0.220	-0.039
-735.025	800.000	-0.052	0.179
-734.010	299.082	-0.193	-0.359
-732.996	168.959	0.090	-0.130
-731.981	-200.000	-0.023	-0.275
-730.966	554.752	0.180	-0.438
-729.952	26.645	-0.028	-0.024
-728.937	576.286	0.066	-0.163
-727.923	40.671	-0.374	0.340
-726.908	11.174	0.059	0.045
-725.894	47.564	-0.133	-0.125
-724.879	294.671	0.090	-0.166
-723.864	-158.203	-0.245	-0.014
-722.850	257.583	-0.100	-0.174
-721.835	512.129	0.062	-0.146
-720.821	-59.679	0.059	0.025
-719.806	-200.000	0.015	-0.120
-718.791	-112.647	-0.271	-0.054
-717.777	-98.694	-0.521	0.134
-716.762	-200.000	-0.019	-0.186
-715.748	800.000	-0.067	0.224
-714.733	96.842	0.271	-0.314
-713.718	-30.225	-0.174	-0.100
-712.704	583.273	0.092	-0.228
-711.689	-70.086	0.172	0.066
-710.675	-98.951	-0.147	0.038
-709.660	-157.039	-0.235	-0.014
-708.645	-200.000	-0.045	0.333
-707.631	-10.050	-0.292	-0.196
-706.616	-103.374	0.141	0.034
-705.602	75.655	-0.155	-0.165
-704.587	40.641	-0.056	-0.051
-703.572	-200.000	0.040	0.228
-702.558	338.646	0.138	-0.271
-701.543	-114.955	0.144	-0.028
-700.529	-158.371	-0.214	-0.013
-699.514	5.916	-0.090	-0.067
-698.499	-181.369	-0.245	0.005
-697.485	90.674	0.115	-0.130
-696.470	24.208	-0.126	-0.105
-695.456	-161.110	0.250	0.013
-694.441	-157.821	-0.188	0.011
-693.426	-9.522	-0.210	0.141
-692.412	-55.687	-0.205	0.092
-691.397	-2.674	0.107	-0.076
-690.383	800.000	-0.099	-0.340
-689.368	-21.750	-0.209	-0.128
-688.354	-95.666	-0.045	-0.012
-687.339	-200.000	-0.010	0.091
-686.324	-138.898	-0.259	0.028
-685.310	210.403	-0.194	0.307
-684.295	339.068	0.051	-0.101
-683.281	73.445	-0.185	-0.195
-682.266	-200.000	-0.037	0.167
-681.251	-72.770	0.428	0.159
-680.237	-200.000	0.002	-0.119
-679.222	-77.143	-0.267	0.094
-678.208	21.175	0.186	-0.152
-677.193	293.664	0.085	0.156
-676.178	-159.083	-0.213	0.012
-675.164	-40.667	0.183	0.096
-674.149	43.182	-0.264	0.243
-673.135	-53.455	0.298	0.138
-672.120	716.586	-0.088	-0.236
-671.105	800.000	0.066	-0.199
-670.091	313.325	-0.136	0.258
-669.076	341.700	0.115	-0.227
-668.062	-52.580	0.184	0.086
-667.047	-152.557	0.098	0.007
-666.032	-130.141	-0.101	-0.014
-665.018	245.619	0.085	-0.144
-664.003	710.728	0.073	0.196
-662.989	52.361	-0.358	-0.344
-661.974	-22.351	-0.305	-0.186
-660.959	352.728	-0.114	-0.228
-659.945	-23.885	-0.218	0.131
-658.930	725.010	0.149	0.399
-657.916	-98.670	-0.181	-0.046
-656.901	-3.852	-0.119	-0.083
-655.886	441.297	0.132	-0.291
-654.872	800.000	-0.066	-0.208
-653.857	-32.185	0.201	-0.113
-652.843	216.563	0.125	0.201
-651.828	-101.046	-0.091	0.023
-650.814	-200.000	0.005	-0.061
-649.799	-161.743	0.311	-0.016
-648.784	-200.000	-0.032	-0.182
-647.770	-98.114	0.339	-0.088
-646.755	145.794	0.146	0.198
-645.741	-46.679	0.265	0.131
-644.726	68.631	-0.075	-0.078
-643.711	-36.486	0.121	0.065
-642.697	800.000	0.118	0.391
-641.682	172.889	-0.040	-0.057
-640.668	800.000	-0.077	0.223
-639.653	-200.000	0.014	-0.116
-638.638	-200.000	-0.036	-0.206
-637.624	121.434	-0.170	0.214
-636.609	-98.190	0.167	-0.043
-635.595	26.477	0.264	0.222
-634.580	165.362	-0.083	-0.118
-633.565	-163.568	-0.185	-0.009
-632.551	-28.453	0.167	0.097
-631.536	-83.390	0.271	-0.087
-630.522	44.402	-0.240	-0.222
-629.507	-126.054	-0.137	-0.021
-628.492	61.563	-0.183	0.183
-627.478	704.443	0.065	-0.172
-626.463	-165.529	-0.188	0.008
-625.449	-168.970	-0.322	0.012
-624.434	106.011	-0.097	-0.116
-623.419	143.453	-0.088	0.117
-622.405	-76.443	-0.155	-0.055
-621.390	-200.000	-0.023	0.224
-620.376	-7.051	-0.073	-0.050
-619.361	-99.887	-0.149	0.037
-618.346	-87.118	-0.154	-0.047
-617.332	258.794	-0.125	0.216
-616.317	-153.812	0.204	0.014
-615.303	-200.000	0.015	0.099
-614.288	-31.849	-0.210	0.118
-613.273	-35.261	-0.189	0.104
-612.259	-150.334	-0.197	0.015
-611.244	-75.449	0.154	0.055
-610.230	14.201	-0.196	0.153
-609.215	-144.465	-0.128	-0.012
-608.201	-64.138	0.260	0.107
-607.186	38.356	-0.142	-0.127
-606.171	686.375	0.186	-0.489
-605.157	112.876	-0.135	-0.164
-604.142	-144.675	-0.301	0.028
-603.128	-174.370	-0.208	0.006
-602.113	-200.000	-0.005	-0.117
-601.098	166.210	0.099	0.141
-600.084	800.000	-0.014	0.047
-599.069	-58.754	0.083	-0.036
-598.055	36.097	-0.026	-0.023
-597.040	92.702	0.250	0.283
-596.025	-26.693	-0.159	-0.093
-595.011	-72.836	-0.219	-0.081
-593.996	15.142	0.030	0.024
-592.982	303.033	-0.040	-0.074
-591.967	2.376	-0.069	0.050
-590.952	-200.000	0.017	0.264
-589.938	-200.000	-0.002	0.201
-588.923	-200.000	-0.009	-0.089
-587.909	-173.586	0.427	0.013
-586.894	-166.340	0.135	-0.006
-585.879	-193.673	0.063	0.001
-584.865	95.517	-0.129	0.148
-583.850	-148.850	0.185	-0.015
-582.836	-200.000	-0.015	-0.412
-581.821	-200.000	-0.024	-0.309
-580.806	234.963	-0.178	0.294
-579.792	-72.400	0.103	0.038
-578.777	163.732	0.231	0.326
-577.763	80.685	-0.481	0.521
-576.748	-12.857	0.094	0.062
-575.733	-12.835	0.066	0.043
-574.719	101.478	-0.102	-0.120
-573.704	-116.657	-0.249	0.046
-572.690	800.000	-0.085	-0.348
-571.675	-167.610	0.165	-0.007
-570.661	-200.000	-0.010	-0.076
-569.646	35.258	0.202	0.177
-568.631	-200.000	0.050	-0.392
-567.617	-16.247	-0.083	-0.053
-566.602	1.117	0.285	0.205
-565.588	24.025	-0.098	-0.081
-564.573	-101.703	0.264	-0.064
-563.558	58.843	0.207	0.204
-562.544	-200.000	-0.004	0.029
-561.529	-57.229	-0.171	0.075
-560.515	31.106	0.212	-0.182
-559.500	-200.000	0.089	-0.434
-558.485	-90.572	0.105	0.030
-557.471	-99.003	-0.083	0.021
-556.456	-32.942	-0.183	-0.102
-555.442	50.820	-0.185	-0.176
-554.427	139.023	0.095	-0.125
-553.412	98.769	0.185	0.214
-552.398	-0.565	-0.215	-0.153
-551.383	-62.352	-0.306	0.128
-550.369	-200.000	0.059	-0.284
-549.354	-200.000	0.008	-0.173
-548.339	-100.278	-0.115	-0.029
-547.325	-29.487	-0.035	-0.020
-546.310	-56.056	-0.151	0.067
-545.296	163.646	-0.131	-0.184
-544.281	-200.000	0.000	0.029
-543.266	133.817	-0.244	0.317
-542.252	77.969	0.169	0.180
-541.237	800.000	0.037	-0.158
-540.223	-200.000	0.003	-0.185
-539.208	-101.494	-0.118	-0.029
-538.193	253.481	-0.152	-0.259
-537.179	91.802	0.236	-0.266
-536.164	302.123	0.101	-0.187
-535.150	86.666	-0.033	0.037
-534.135	800.000	-0.019	0.054
-533.121	-200.000	0.015	-0.098
-532.106	209.155	-0.079	-0.125
-531.091	161.382	0.097	-0.136
-530.077	579.168	0.041	-0.102
-529.062	-200.000	-0.006	-0.070
-528.048	-200.000	-0.036	-0.177
-527.033	-40.988	-0.058	-0.030
-526.018	-67.707	-0.142	0.056
-525.004	-153.839	0.289	0.020
-523.989	-138.839	-0.168	0.018
-522.975	-200.000	-0.061	0.372
-521.960	-200.000	-0.029	0.176
-520.945	42.936	0.010	-0.009
-519.931	800.000	0.106	-0.407
-518.916	800.000	0.097	-0.373
-517.902	67.253	-0.180	-0.184
-516.887	225.118	0.101	0.163
-515.872	677.765	-0.093	0.242
-514.858	404.466	0.129	-0.272
-513.843	161.356	0.178	0.250
-512.829	-16.893	0.035	0.022
-511.814	21.315	0.060	-0.049
-510.799	-27.149	-0.308	0.180
-509.785	218.358	-0.102	0.163
-508.770	-200.000	-0.024	-0.395
-507.756	37.585	-0.263	-0.234
-506.741	1.542	0.162	-0.117
-505.726	800.000	-0.054	0.166
-504.712	289.801	-0.182	0.330
-503.697	6.798	0.080	0.060
-502.683	-31.324	0.111	-0.062
-501.668	-200.000	0.016	-0.139
-500.653	-92.991	0.188	-0.052
-499.639	-75.578	-0.116	-0.041
-498.624	-200.000	0.008	0.250
-497.610	-28.307	0.194	-0.112
-496.595	-73.912	0.091	-0.033
-495.581	-54.712	0.101	0.046
-494.566	800.000	0.259	-0.741
-493.551	8.229	0.098	-0.074
-492.537	800.000	-0.025	-0.099
-491.522	-200.000	-0.015	-0.112
-490.508	-109.870	-0.265	-0.056
-489.493	485.559	0.123	-0.279
-488.478	12.867	0.021	0.016
-487.464	31.478	0.198	-0.170
-486.449	800.000	0.077	0.312
-485.435	-5.373	0.264	0.182
-484.420	-113.999	-0.161	-0.031
-483.405	313.448	0.152	-0.286
-482.391	-133.487	-0.086	0.011
-481.376	789.003	-0.083	-0.228
-480.362	-200.000	0.001	0.078
-479.347	-130.118	0.260	0.035
-478.332	800.000	-0.024	0.073
-477.318	-46.640	0.347	0.170
-476.303	800.000	-0.070	0.213
-475.289	-104.606	-0.240	-0.055
-474.274	51.476	-0.084	0.079
-473.259	-105.779	-0.337	-0.076
-472.245	-23.621	0.033	-0.020
-471.230	78.821	0.141	0.151
-470.216	-82.230	0.058	-0.019
-469.201	77.972	0.118	0.126
-468.186	109.288	0.040	-0.048
-467.172	-8.429	0.172	-0.116
-466.157	212.589	0.027	-0.042
-465.143	-79.787	-0.186	0.063
-464.128	-126.696	-0.117	0.017
-463.113	-52.480	0.358	-0.165
-462.099	-200.000	0.026	-0.255
-461.084	-186.491	0.295	-0.004
-460.070	323.729	-0.057	0.109
-459.055	-200.000	0.013	0.275
-458.040	-200.000	0.004	-0.091
-457.026	242.919	0.035	0.058
-456.011	-4.566	0.301	0.208
-454.997	565.663	-0.088	0.214
-453.982	-200.000	-0.025	-0.163
-452.968	218.929	0.131	0.210
-451.953	-186.977	-0.233	0.003
-450.938	59.489	0.161	0.159
-449.924	25.423	-0.183	0.152
-448.909	800.000	-0.045	0.138
-447.895	202.499	0.104	-0.161
-446.880	269.613	-0.077	0.135
-445.865	214.075	-0.048	0.075
-444.851	-200.000	0.073	0.348
-443.836	-73.930	-0.187	-0.068
-442.822	505.918	-0.104	0.240
-441.807	800.000	-0.074	0.222
-440.792	-163.158	-0.223	-0.011
-439.778	800.000	-0.010	-0.039
-438.763	-46.802	-0.127	-0.062
-437.749	178.442	-0.167	0.244
-436.734	800.000	-0.090	0.269
-435.719	-161.564	0.245	0.013
-434.705	-145.930	-0.294	-0.026
-433.690	47.428	0.209	0.195
-432.676	-96.543	-0.347	-0.091
-431.661	507.290	0.113	-0.261
-430.646	-162.400	-0.157	-0.008
-429.632	-200.000	-0.011	-0.248
-428.617	-17.658	-0.162	-0.102
-427.603	412.011	0.069	0.146
-426.588	800.000	-0.090	-0.267
-425.573	127.805	-0.067	-0.085
-424.559	-144.538	0.069	0.006
-423.544	-200.000	-0.007	0.188
-422.530	800.000	0.104	0.320
-421.515	701.265	0.110	0.290
-420.500	800.000	0.024	-0.071
-419.486	-185.560	-0.288	-0.004
-418.471	65.771	-0.179	0.181
-417.457	-20.616	0.059	0.036
-416.442	140.716	0.097	-0.128
-415.428	-74.580	-0.014	-0.005
-414.413	101.399	-0.194	-0.226
-413.398	-151.635	-0.122	-0.009
-412.384	252.806	0.040	-0.068
-411.369	-200.000	0.013	-0.163
-410.355	-121.971	-0.295	-0.048
-409.340	531.616	-0.130	-0.307
-408.325	-53.735	-0.439	-0.200
-407.311	-40.178	-0.042	-0.022
-406.296	800.000	0.095	-0.348
-405.282	-200.000	-0.017	0.275
-404.267	-32.317	0.100	0.055
-403.252	-200.000	0.002	-0.117
-402.238	6.112	-0.144	-0.107
-401.223	-97.263	0.135	0.035
-400.209	530.427	0.085	0.200
-399.194	17.046	-0.096	0.075
-398.179	555.362	-0.084	-0.202
-397.165	800.000	0.033	-0.139
-396.150	-44.696	-0.128	0.064
-395.136	-200.000	0.058	-0.259
-394.121	43.200	0.197	-0.180
-393.106	22.797	0.008	-0.006
-392.092	-131.486	-0.198	-0.026
-391.077	-164.702	0.194	0.009
-390.063	43.261	-0.200	-0.182
-389.048	-121.102	0.079	-0.013
-388.033	389.012	0.116	-0.239
-387.019	178.580	0.081	0.118
-386.004	-120.154	-0.356	0.061
-384.990	800.000	0.055	-0.182
-383.975	-71.854	0.241	0.089
-382.960	-200.000	0.037	-0.285
-381.946	114.122	0.122	-0.148
-380.931	-6.351	0.228	-0.155
-379.917	-16.919	0.219	-0.138
-378.902	-200.000	-0.009	0.174
-377.888	26.883	-0.139	0.116
-376.873	220.148	0.099	-0.158
-375.858	202.039	0.216	0.332
-374.844	-82.521	-0.202	0.065
-373.829	-134.319	-0.230	0.028
-372.815	800.000	0.104	0.387
-371.800	-145.468	0.293	0.026
-370.785	-82.608	0.140	0.045
-369.771	-22.099	0.075	0.045
-368.756	23.832	-0.089	-0.073
-367.742	-200.000	-0.020	0.104
-366.727	-17.219	-0.197	0.124
-365.712	63.242	-0.253	0.253
-364.698	800.000	0.078	0.216
-363.683	-200.000	0.016	0.073
-362.669	191.933	0.063	-0.095
-361.654	-144.272	0.195	0.018
-360.639	53.475	0.220	0.210
-359.625	800.000	0.066	-0.221
-358.610	182.560	0.268	-0.393
-357.596	134.110	-0.075	0.097
-356.581	-29.169	0.169	-0.097
-355.566	756.025	0.046	0.123
-354.552	-179.919	0.179	0.004
-353.537	44.450	-0.407	0.372
-352.523	347.011	-0.194	0.379
-351.508	800.000	0.055	0.193
-350.493	245.053	0.104	-0.175
-349.479	-188.079	-0.422	-0.005
-348.464	-83.784	0.319	-0.101
-347.450	110.706	-0.331	0.396
-346.435	207.649	-0.107	-0.166
-345.420	67.669	0.103	0.104
-344.406	-200.000	-0.049	0.221
-343.391	-44.977	0.244	-0.121
-342.377	-43.427	0.331	0.166
-341.362	-118.448	0.076	-0.013
-340.348	-118.974	0.232	-0.040
-339.333	800.000	-0.045	0.166
-338.318	-200.000	0.002	-0.064
-337.304	-71.960	-0.490	0.181
-336.289	-200.000	-0.004	0.125
-335.275	-26.975	0.227	0.132
-334.260	800.000	0.085	0.319
-333.245	-113.659	-0.243	-0.047
-332.231	-37.301	0.167	-0.089
-331.216	-155.235	0.081	-0.005
-330.202	268.579	0.149	0.260
-329.187	-44.572	0.120	0.060
-328.172	-200.000	0.041	0.418
-327.158	-120.280	-0.047	0.008
-326.143	24.272	0.203	-0.167
-325.129	-200.000	-0.042	-0.264
-324.114	91.260	0.160	0.178
-323.099	-92.934	0.355	0.098
-322.085	279.795	0.280	-0.497
-321.070	-200.000	-0.046	0.229
-320.056	88.007	-0.165	-0.182
-319.041	217.030	-0.079	-0.125
-318.026	586.990	-0.094	-0.230
-317.012	470.764	0.103	-0.230
-315.997	-141.290	-0.312	-0.032
-314.983	123.944	0.170	-0.212
-313.968	800.000	0.024	0.082
-312.953	800.000	0.065	0.236
-311.939	800.000	-0.080	-0.223
-310.924	-200.000	-0.079	-0.360
-309.910	-15.343	-0.173	-0.110
-308.895	-41.979	0.181	-0.092
-307.880	266.231	0.109	-0.190
-306.866	60.748	0.257	0.253
-305.851	800.000	0.051	-0.164
-304.837	8.280	0.284	-0.212
-303.822	-200.000	0.011	-0.049
-302.807	-200.000	-0.008	-0.249
-301.793	284.678	-0.016	0.029
-300.778	-200.000	-0.030	0.326
-299.764	-76.992	-0.316	0.109
-298.749	-117.629	-0.368	-0.066
-297.735	298.042	-0.066	0.121
-296.720	-200.000	0.027	0.204
-295.705	-200.000	-0.047	0.375
-294.691	208.221	-0.133	-0.206
-293.676	184.802	0.115	-0.169
-292.662	-132.879	-0.197	0.025
-291.647	558.963	-0.137	0.327
-290.632	-200.000	-0.044	-0.355
-289.618	174.619	0.165	-0.236
-288.603	-200.000	0.007	0.073
-287.589	593.998	-0.056	0.138
-286.574	88.629	-0.044	-0.049
-285.559	-200.000	0.045	-0.219
-284.545	85.876	-0.095	-0.104
-283.530	10.411	-0.045	-0.034
-282.516	206.599	0.047	0.073
-281.501	112.511	-0.083	0.099
-280.486	800.000	0.056	-0.168
-279.472	-117.023	-0.270	-0.049
-278.457	-200.000	0.031	0.143
-277.443	-200.000	-0.009	-0.082
-276.428	298.664	0.041	-0.075
-275.413	141.918	-0.066	0.087
-274.399	800.000	0.074	0.317
-273.384	-70.160	-0.371	0.140
-272.370	-94.679	0.284	0.077
-271.355	-61.253	-0.166	-0.070
-270.340	-200.000	-0.009	-0.239
-269.326	-108.191	0.240	0.052
-268.311	-200.000	0.050	0.254
-267.297	-4.060	0.175	0.120
-266.282	800.000	0.086	-0.355
-265.267	60.602	-0.113	-0.111
-264.253	-4.887	-0.188	-0.128
-263.238	-5.983	-0.179	-0.121
-262.224	-200.000	0.005	0.049
-261.209	203.004	-0.062	0.094
-260.195	176.754	-0.194	0.279
-259.180	80.629	-0.203	-0.217
-258.165	212.866	0.070	-0.110
-257.151	-103.498	0.041	-0.010
-256.136	217.534	-0.133	-0.210
-255.122	-166.149	-0.174	-0.007
-254.107	-172.326	0.139	0.004
-253.092	-103.200	-0.081	0.019
-252.078	47.632	0.112	-0.104
-251.063	-200.000	-0.028	0.185
-250.049	-200.000	0.000	-0.218
-249.034	-200.000	0.021	0.138
-248.019	443.320	-0.064	0.140
-247.005	-185.806	0.127	0.002
-245.990	-200.000	0.019	0.151
-244.976	-152.714	0.300	-0.021
-243.961	-200.000	0.008	-0.347
-242.946	4.424	-0.047	0.034
-241.932	-40.679	0.282	-0.145
-240.917	-35.007	0.152	0.082
-239.903	-81.935	0.245	0.079
-238.888	-149.639	-0.375	-0.029
-237.873	28.774	-0.233	0.195
-236.859	-44.713	-0.161	-0.080
-235.844	-124.093	0.467	-0.073
-234.830	-80.285	-0.272	0.090
-233.815	496.763	-0.054	-0.123
-232.800	490.433	0.068	-0.155
-231.786	-200.000	-0.003	0.082
-230.771	7.688	0.242	0.179
-229.757	-87.140	-0.282	-0.085
-228.742	-111.589	0.287	-0.058
-227.727	-59.094	-0.207	-0.088
-226.713	572.889	0.054	-0.129
-225.698	-141.862	-0.353	0.035
-224.684	-154.338	0.097	-0.006
-223.669	-84.380	0.086	-0.027
-222.655	800.000	-0.104	0.315
-221.640	212.666	0.210	0.329
-220.625	91.327	0.264	-0.293
-219.611	-78.199	-0.126	-0.043
-218.596	-127.121	-0.134	-0.019
-217.582	484.554	-0.032	-0.073
-216.567	800.000	-0.073	-0.258
-215.552	64.024	0.087	0.087
-214.538	220.499	-0.056	0.089
-213.523	-101.699	-0.173	0.042
-212.509	-107.932	0.251	-0.054
-211.494	586.859	-0.184	-0.448
-210.479	800.000	0.080	-0.236
-209.465	-17.736	0.362	0.225
-208.450	34.746	0.257	0.222
-207.436	78.354	-0.281	-0.296
-206.421	-68.153	0.233	0.090
-205.406	-140.633	-0.311	0.032
-204.392	-200.000	0.025	-0.202
-203.377	800.000	-0.105	0.316
-202.363	152.361	-0.150	0.203
-201.348	327.001	-0.178	0.338
-200.333	800.000	-0.077	-0.287
-199.319	800.000	-0.075	-0.296
-198.304	380.689	-0.077	0.156
-197.290	-182.905	0.187	-0.003
-196.275	204.095	-0.112	-0.172
-195.260	-53.472	-0.135	-0.061
-194.246	800.000	-0.126	0.354
-193.231	15.631	0.073	0.057
-192.217	-107.439	0.285	0.062
-191.202	-122.604	0.369	-0.059
-190.187	-25.886	-0.159	-0.092
-189.173	45.530	0.143	0.130
-188.158	-132.353	0.140	0.018
-187.144	-146.705	0.347	-0.030
-186.129	-6.173	-0.182	0.123
-185.114	-132.912	-0.176	-0.022
-184.100	130.817	0.027	-0.034
-183.085	5.340	-0.111	0.081
-182.071	-29.246	-0.154	0.087
-181.056	-150.568	0.164	-0.012
-180.042	-200.000	0.031	0.154
-179.027	-44.796	0.116	0.057
-178.012	302.548	0.096	0.175
-176.998	-123.689	0.130	-0.020
-175.983	35.370	0.085	-0.074
-174.969	42.338	0.112	0.100
-173.954	800.000	-0.088	0.363
-172.939	194.550	0.131	0.196
-171.925	60.271	0.218	0.213
-170.910	-2.790	0.186	-0.129
-169.896	199.107	-0.077	-0.117
-168.881	-62.629	0.180	-0.074
-167.866	-200.000	-0.012	-0.232
-166.852	800.000	-0.015	0.058
-165.837	137.208	-0.101	-0.130
-164.823	40.660	-0.045	-0.040
-163.808	-128.450	-0.312	0.044
-162.793	177.707	-0.140	0.202
-161.779	800.000	-0.014	0.045
-160.764	-68.278	0.044	0.017
-159.750	-120.927	-0.124	-0.021
-158.735	-92.328	-0.192	0.054
-157.720	-5.782	-0.047	0.032
-156.706	-26.342	0.232	-0.135
-155.691	311.483	-0.119	0.220
-154.677	-22.888	-0.188	-0.112
-153.662	-200.000	0.089	-0.409
-152.647	697.858	0.137	0.356
-151.633	4.807	0.319	0.231
-150.618	97.025	-0.263	0.298
-149.604	675.458	0.011	0.029
-148.589	800.000	0.075	0.214
-147.574	-10.709	0.150	-0.098
-146.560	-1.446	-0.405	-0.282
-145.545	-37.008	0.056	-0.029
-144.531	-95.421	-0.130	-0.034
-143.516	-26.179	0.147	0.085
-142.502	800.000	0.038	0.121
-141.487	175.803	-0.053	-0.076
-140.472	-95.476	0.241	-0.064
-139.458	-127.067	-0.244	0.035
-138.443	-63.662	-0.174	0.071
-137.429	-116.985	-0.325	0.059
-136.414	-102.170	-0.117	0.028
-135.399	62.548	-0.159	0.157
-134.385	-142.013	0.483	0.047
-133.370	-155.593	-0.371	0.024
-132.356	-176.581	0.312	-0.008
-131.341	-52.082	-0.073	0.034
-130.326	82.517	0.153	0.164
-129.312	-15.175	0.377	0.238
-128.297	-154.229	-0.481	0.032
-127.283	564.830	0.066	0.159
-126.268	-141.785	0.041	-0.004
-125.253	-122.751	0.306	-0.049
-124.239	274.352	0.106	-0.186
-123.224	-200.000	0.020	0.171
-122.210	292.487	0.060	-0.108
-121.195	-102.122	0.108	-0.026
-120.180	313.816	-0.042	0.079
-119.166	-200.000	-0.015	-0.307
-118.151	151.052	-0.142	0.190
-117.137	800.000	0.086	0.311
-116.122	-105.994	0.301	0.067
-115.107	-50.265	-0.143	-0.067
-114.093	533.178	0.062	-0.144
-113.078	333.137	-0.019	-0.037
-112.064	14.003	-0.086	-0.066
-111.049	-130.702	0.024	-0.003
-110.034	105.992	0.224	-0.262
-109.020	28.977	-0.235	0.196
-108.005	-73.450	0.094	0.034
-106.991	41.710	-0.085	0.076
-105.976	-191.530	0.230	-0.002
-104.962	-134.413	0.219	-0.026
-103.947	30.821	0.160	0.135
-102.932	-200.000	0.013	0.138
-101.918	-114.971	-0.170	0.032
-100.903	25.772	0.280	0.230
-99.889	93.048	-0.092	0.102
-98.874	800.000	-0.052	0.185
-97.859	276.164	-0.089	-0.155
-96.845	44.830	-0.153	0.138
-95.830	-104.064	-0.247	-0.057
-94.816	56.575	0.087	0.083
-93.801	-200.000	-0.073	0.558
-92.786	106.703	0.052	0.061
-91.772	-49.769	-0.276	-0.129
-90.757	800.000	-0.057	-0.199
-89.743	-113.953	-0.396	-0.076
-88.728	800.000	-0.064	-0.181
-87.713	-25.850	0.081	0.047
-86.699	-108.197	-0.183	0.039
-85.684	-141.550	0.043	0.004
-84.670	-145.788	-0.224	-0.020
-83.655	-200.000	0.048	-0.245
-82.640	-103.103	0.444	0.104
-81.626	800.000	-0.090	-0.324
-80.611	-95.590	0.186	0.049
-79.597	-148.715	-0.079	0.006
-78.582	-49.942	0.202	0.094
-77.567	-200.000	-0.012	-0.053
-76.553	3.960	0.186	-0.134
-75.538	42.795	-0.063	0.056
-74.524	157.785	-0.169	-0.230
-73.509	-148.615	-0.382	-0.031
-72.494	96.442	-0.082	-0.092
-71.480	98.889	0.122	-0.139
-70.465	533.764	-0.048	-0.111
-69.451	26.195	0.125	0.103
-68.436	198.665	0.054	-0.081
-67.422	114.529	-0.036	-0.043
-66.407	-48.836	-0.088	-0.041
-65.392	-34.110	-0.082	-0.044
-64.378	145.463	-0.179	0.236
-63.363	-152.239	0.255	-0.018
-62.349	629.207	0.035	0.088
-61.334	13.752	-1.145	-0.875
-60.319	-82.680	0.525	0.167
-59.305	800.000	-0.421	-1.322
-58.290	-200.000	0.219	1.005
-57.276	643.287	0.689	1.728
-56.261	-200.000	96.505	588.511
-55.246	603.120	1400.961	3426.582
-54.232	190.315	2601.651	3842.506
-53.217	119.762	2165.116	2638.359
-52.203	43.494	1612.696	1449.707
-51.188	34.653	1345.918	1156.590
-50.173	31.401	1303.484	1100.961
-49.159	54.978	1351.439	1283.187
-48.144	56.423	1368.308	1307.800
-47.130	34.872	1326.458	1140.992
-46.115	31.351	1308.999	1105.150
-45.100	31.062	1304.119	1099.286
-44.086	30.902	1302.286	1096.752
-43.071	30.850	1300.159	1094.614
-42.057	30.916	1297.300	1092.550
-41.042	31.016	1295.498	1091.572
-40.027	31.015	1293.737	1090.040
-39.013	30.898	1292.674	1088.419
-37.998	30.937	1290.498	1086.769
-36.984	31.067	1289.055	1086.271
-35.969	31.075	1287.318	1084.809
-34.954	31.045	1285.538	1083.094
-33.940	31.173	1283.918	1082.428
-32.925	31.115	1282.428	1080.791
-31.911	31.071	1281.190	1079.448
-30.896	31.146	1280.138	1078.953
-29.881	31.163	1278.698	1077.796
-28.867	31.126	1277.130	1076.221
-27.852	31.157	1275.654	1075.110
-26.838	31.267	1274.317	1074.572
-25.823	31.155	1273.106	1072.864
-24.809	31.113	1271.840	1071.518
-23.794	31.111	1270.573	1070.393
-22.779	31.193	1269.092	1069.574
-21.765	31.251	1267.902	1068.861
-20.750	31.153	1266.227	1066.846
-19.736	31.036	1264.969	1065.077
-18.721	30.972	1264.361	1064.157
-17.706	30.975	1262.709	1062.744
-16.692	31.013	1261.483	1061.882
-15.677	30.942	1260.614	1060.704
-14.663	31.057	1259.014	1059.972
-13.648	30.999	1257.936	1058.689
-12.633	31.042	1256.724	1057.873
-11.619	30.979	1256.473	1057.263
-10.604	31.019	1255.587	1056.702
-9.590	30.863	1255.055	1055.331
-8.575	30.913	1253.489	1054.253
-7.560	30.860	1253.076	1053.563
-6.546	30.930	1251.630	1052.704
-5.531	31.002	1250.736	1052.315
-4.517	30.865	1250.056	1050.925
-3.502	30.868	1249.763	1050.659
-2.487	30.845	1248.404	1049.344
-1.473	30.937	1244.323	1046.386
-0.458	29.781	1229.655	1027.593
0.556	28.295	1211.258	989.674
1.571	24.397	1216.146	972.384
2.586	23.233	1230.533	977.378
3.600	21.930	1217.817	960.067
4.615	16.617	1146.046	875.978
5.629	8.428	1072.611	779.947
6.644	4.882	1052.536	748.275
7.659	4.526	1050.152	744.805
8.673	4.450	1048.570	743.253
9.688	4.284	1047.392	741.559
10.702	4.874	1045.703	743.114
11.717	10.178	1053.225	773.822
12.731	18.236	1064.551	820.885
13.746	21.896	1068.107	841.134
14.761	22.035	1067.977	841.624
15.775	21.167	1066.364	836.125
16.790	20.224	1064.329	829.947
17.804	19.500	1063.267	825.583
18.819	19.295	1061.845	823.423
19.834	19.184	1061.164	822.294
20.848	19.131	1060.224	821.242
21.863	18.776	1059.516	818.924
22.877	18.697	1059.166	818.206
23.892	18.675	1058.125	817.226
24.907	18.601	1057.727	816.493
25.921	18.604	1056.784	815.708
26.936	18.710	1055.191	814.908
27.950	18.641	1053.988	813.579
28.965	18.875	1052.298	813.311
29.980	18.931	1051.209	812.664
30.994	19.021	1049.962	812.053
32.009	19.118	1049.477	812.065
33.023	19.095	1048.053	810.781
34.038	18.938	1047.014	809.165
35.053	18.756	1046.242	807.643
36.067	18.632	1045.488	806.405
37.082	18.889	1044.601	806.857
38.096	18.978	1043.766	806.559
39.111	18.964	1043.062	805.877
40.126	18.736	1042.037	803.945
41.140	18.447	1040.022	800.969
42.155	18.370	1038.802	799.598
43.169	18.289	1037.645	798.259
44.184	18.322	1036.470	797.442
45.199	18.445	1035.822	797.445
46.213	18.489	1035.137	797.051
47.228	18.743	1034.431	797.616
48.242	18.849	1033.431	797.265
49.257	18.663	1032.657	795.736
50.271	18.872	1031.335	795.616
51.286	18.992	1030.775	795.668
52.301	18.762	1029.958	793.904
53.315	18.730	1028.687	792.707
54.330	18.634	1027.380	791.184
55.344	18.567	1026.591	790.200
56.359	18.717	1025.170	789.728
57.374	18.537	1024.687	788.458
58.388	18.389	1023.690	786.942
59.403	18.281	1023.044	785.878
60.417	18.340	1022.042	785.311
61.432	18.242	1021.326	784.241
62.447	18.272	1020.304	783.523
63.461	18.096	1020.029	782.436
64.476	18.179	1018.559	781.618
65.490	18.064	1018.361	780.875
66.505	18.111	1017.333	780.229
67.520	18.151	1016.627	779.801
68.534	18.210	1016.034	779.549
69.549	18.159	1015.680	778.975
70.563	18.118	1014.566	777.864
71.578	17.871	1013.891	776.156
72.593	18.023	1012.472	775.689
73.607	17.785	1012.220	774.348
74.622	17.836	1011.686	774.105
75.636	18.017	1010.956	774.296
76.651	18.049	1010.066	773.691
77.666	18.098	1009.648	773.526
78.680	18.122	1008.897	772.990
79.695	18.136	1008.250	772.490
80.709	18.287	1007.855	772.797
81.724	18.320	1007.380	772.515
82.739	18.488	1006.859	772.803
83.753	18.700	1005.921	772.971
84.768	19.020	1005.279	773.851
85.782	19.136	1004.808	773.938
86.797	19.055	1004.029	772.908
87.812	18.754	1002.995	770.692
88.826	18.895	1001.706	770.267
89.841	18.900	1001.348	769.946
90.855	19.074	1000.194	769.767
91.870	19.043	999.367	768.924
92.884	19.009	998.432	767.983
93.899	19.044	997.563	767.403
94.914	19.154	997.296	767.623
95.928	18.995	996.321	766.095
96.943	19.020	994.907	765.054
97.957	18.920	994.190	763.988
98.972	19.011	993.376	763.700
99.987	19.001	992.430	762.862
101.001	19.041	991.466	762.229
102.016	18.882	990.860	760.993
103.030	19.002	989.838	760.669
104.045	18.937	989.769	760.261
105.060	18.833	988.181	758.517
106.074	18.503	987.145	756.197
107.089	18.303	986.137	754.476
108.103	18.367	985.022	753.839
109.118	18.122	984.602	752.374
110.133	18.135	983.432	751.472
111.147	18.157	982.329	750.657
112.162	18.281	981.877	750.788
113.176	18.349	981.427	750.676
114.191	18.418	980.855	750.477
115.206	18.306	979.521	748.898
116.220	18.435	978.763	748.818
117.235	18.527	977.744	748.372
118.249	18.294	977.218	746.889
119.264	18.240	976.508	746.041
120.279	18.143	975.427	744.731
121.293	18.117	974.477	743.824
122.308	17.979	973.770	742.617
123.322	17.978	972.898	741.882
124.337	17.928	971.807	740.768
125.352	18.025	970.310	739.982
126.366	17.847	969.627	738.626
127.381	18.077	968.430	738.641
128.395	18.011	967.642	737.694
129.410	18.130	966.602	737.346
130.424	18.218	966.144	737.310
131.439	18.298	965.732	737.276
132.454	18.462	964.675	737.108
133.468	18.460	963.768	736.342
134.483	18.483	962.887	735.705
135.497	18.355	962.432	734.741
136.512	18.383	961.528	734.108
137.527	18.410	961.175	733.887
138.541	18.513	960.057	733.408
139.556	18.686	959.031	733.300
140.570	18.762	958.930	733.483
141.585	18.804	958.240	733.071
142.600	18.900	957.165	732.590
143.614	19.063	956.121	732.421
144.629	18.929	956.451	732.038
145.643	19.022	954.722	731.046
146.658	18.802	953.568	729.164
147.673	18.520	952.465	727.060
148.687	18.444	951.899	726.242
149.702	18.397	950.668	725.038
150.716	18.404	949.943	724.450
151.731	18.411	949.301	723.929
152.746	18.486	948.635	723.673
153.760	18.617	947.536	723.321
154.775	18.667	947.471	723.420
155.789	18.744	946.960	723.288
156.804	18.678	946.156	722.336
157.819	18.786	945.547	722.260
158.833	18.950	944.725	722.256
159.848	19.076	944.009	722.172
160.862	18.854	943.021	720.422
161.877	18.542	941.662	718.014
162.892	18.494	940.597	716.939
163.906	18.427	939.408	715.688
164.921	18.514	939.213	715.841
165.935	18.517	938.341	715.127
166.950	18.628	937.400	714.808
167.964	18.657	936.328	714.046
168.979	18.468	935.857	712.841
169.994	18.521	934.385	711.875
171.008	18.536	934.472	711.938
172.023	18.789	933.978	712.553
173.037	18.975	932.797	712.357
174.052	18.834	932.099	711.179
175.067	18.530	931.315	709.261
176.081	18.573	930.312	708.610
177.096	18.424	929.900	707.619
178.110	18.481	929.582	707.547
179.125	18.568	929.017	707.416
180.140	18.676	928.438	707.359
181.154	18.715	928.593	707.573
182.169	18.887	927.670	707.515
183.183	19.002	927.127	707.513
184.198	19.025	926.504	707.067
185.213	19.036	925.427	706.227
186.227	19.058	925.274	706.141
187.242	19.157	924.736	706.075
188.256	19.320	923.999	706.114
189.271	19.323	923.146	705.414
190.286	18.869	922.441	702.956
191.300	18.515	921.260	700.545
192.315	18.318	920.410	699.036
193.329	18.454	920.300	699.445
194.344	18.701	919.525	699.800
195.359	18.705	919.098	699.431
196.373	18.915	918.168	699.513
197.388	18.952	918.332	699.729
198.402	19.159	918.153	700.371
199.417	19.350	917.122	700.298
200.432	19.471	916.787	700.474
201.446	19.496	916.574	700.351
202.461	19.617	915.735	700.137
203.475	19.517	914.968	699.085
204.490	19.189	914.196	697.106
205.504	19.151	913.309	696.211
206.519	19.086	912.218	695.055
207.534	19.007	912.186	694.653
208.548	19.095	911.443	694.382
209.563	19.069	910.705	693.652
210.577	19.113	910.045	693.266
211.592	19.440	909.699	694.256
212.607	19.553	908.512	693.743
213.621	19.332	907.729	692.196
214.636	19.238	906.972	691.181
215.650	19.456	906.701	691.785
216.665	19.413	906.128	691.116
217.680	19.598	905.526	691.338
218.694	19.600	904.895	690.802
219.709	19.416	904.103	689.400
220.723	19.348	903.477	688.591
221.738	19.499	902.731	688.562
222.753	19.536	901.871	687.993
223.767	19.644	901.090	687.766
224.782	19.736	901.163	688.127
225.796	19.687	901.122	687.841
226.811	19.571	899.862	686.358
227.826	19.359	899.505	685.184
228.840	19.361	898.266	684.188
229.855	19.398	897.505	683.691
230.869	19.463	896.747	683.310
231.884	19.307	896.099	682.141
232.899	19.288	895.486	681.539
233.913	19.240	894.688	680.679
234.928	19.136	893.982	679.675
235.942	19.110	893.319	679.007
236.957	19.266	892.784	679.155
237.972	19.242	892.424	678.726
238.986	19.190	891.513	677.768
240.001	19.091	891.511	677.318
241.015	19.265	890.793	677.396
242.030	19.376	890.271	677.377
243.045	19.424	889.557	676.960
244.059	19.406	888.732	676.201
245.074	19.508	888.221	676.152
246.088	19.592	887.783	676.091
247.103	19.706	887.075	675.936
248.117	19.843	886.797	676.198
249.132	20.065	886.903	677.088
250.147	20.330	886.215	677.538
251.161	20.298	885.554	676.846
252.176	20.475	884.848	676.936
253.190	20.545	884.307	676.737
254.205	20.470	883.608	675.850
255.220	20.395	883.008	675.039
256.234	20.330	882.427	674.284
257.249	20.291	881.766	673.566
258.263	20.325	880.829	672.925
259.278	20.349	880.262	672.524
260.293	20.477	879.678	672.514
261.307	20.488	879.587	672.427
262.322	20.526	878.750	671.873
263.336	20.515	878.421	671.522
264.351	20.516	877.158	670.498
265.366	20.655	876.712	670.637
266.380	20.544	875.731	669.398
267.395	20.509	875.026	668.665
268.409	20.433	874.345	667.793
269.424	20.311	874.015	667.015
270.439	20.112	873.424	665.741
271.453	20.097	872.460	664.888
272.468	20.155	871.810	664.556
273.482	20.250	871.280	664.458
274.497	20.322	870.295	663.924
275.512	20.225	870.197	663.418
276.526	20.321	869.027	662.835
277.541	20.253	869.420	662.816
278.555	20.533	869.008	663.511
279.570	20.563	868.457	663.148
280.585	20.605	867.564	662.565
281.599	20.472	866.540	661.219
282.614	20.313	865.680	659.899
283.628	20.386	864.890	659.516
284.643	20.413	864.526	659.284
285.657	20.334	864.517	658.918
286.672	20.385	863.884	658.572
287.687	20.440	863.017	658.061
288.701	20.303	862.412	657.024
289.716	20.504	861.551	657.068
290.730	20.560	861.168	656.930
291.745	20.539	860.678	656.420
292.760	20.467	860.225	655.744
293.774	20.709	859.988	656.417
294.789	20.632	858.946	655.272
295.803	20.499	858.255	654.190
296.818	20.376	857.357	652.984
297.833	20.546	856.396	652.834
298.847	20.433	856.399	652.354
299.862	20.520	855.922	652.259
300.876	20.668	855.191	652.199
301.891	20.763	854.702	652.123
302.906	20.826	854.457	652.115
303.920	21.029	854.348	652.732
304.935	21.137	853.450	652.392
305.949	21.017	852.713	651.324
306.964	20.726	852.428	649.963
307.979	20.843	851.505	649.638
308.993	20.986	851.010	649.735
310.008	20.916	850.281	648.862
311.022	20.851	849.868	648.248
312.037	20.740	848.922	647.053
313.052	20.531	848.359	645.794
314.066	20.534	847.696	645.241
315.081	20.495	847.043	644.540
316.095	20.504	846.584	644.168
317.110	20.472	846.010	643.557
318.125	20.551	845.392	643.321
319.139	20.357	845.117	642.339
320.154	20.593	844.672	642.815
321.168	20.676	844.126	642.652
322.183	20.699	843.510	642.208
323.197	20.603	843.190	641.552
324.212	20.818	842.433	641.712
325.227	20.745	841.328	640.545
326.241	20.615	841.430	640.090
327.256	20.542	840.866	639.336
328.270	20.628	839.882	638.847
329.285	20.583	839.336	638.210
330.300	20.601	838.954	637.930
331.314	20.585	838.835	637.722
332.329	20.750	838.267	637.839
333.343	20.918	837.955	638.160
334.358	21.060	837.346	638.161
335.373	21.023	836.911	637.638
336.387	21.035	836.798	637.537
337.402	20.970	836.821	637.261
338.416	21.264	836.262	637.851
339.431	21.228	836.164	637.590
340.446	21.361	835.614	637.600
341.460	21.293	835.442	637.165
342.475	21.285	835.262	636.943
343.489	21.529	834.432	637.139
344.504	21.735	833.823	637.367
345.519	21.541	834.046	636.778
346.533	21.555	832.744	635.777
347.548	21.384	832.023	634.548
348.562	21.045	831.666	632.990
349.577	21.097	830.735	632.415
350.592	20.844	830.082	630.946
351.606	20.891	829.761	630.818
352.621	21.025	828.855	630.555
353.635	21.206	827.760	630.319
354.650	21.293	827.358	630.272
355.665	21.343	826.886	630.036
356.679	21.250	826.300	629.202
357.694	21.444	825.601	629.313
358.708	21.270	824.856	628.063
359.723	21.212	824.721	627.693
360.738	21.356	824.348	627.873
361.752	21.450	823.117	627.215
362.767	21.484	823.327	627.442
363.781	21.717	822.605	627.671
364.796	21.751	822.615	627.745
365.810	21.934	822.166	628.002
366.825	21.974	821.658	627.701
367.840	21.757	821.274	626.576
368.854	21.757	820.355	625.821
369.869	21.713	820.173	625.471
370.883	21.654	819.436	624.642
371.898	21.953	819.210	625.482
372.913	21.966	819.164	625.438
373.927	21.723	818.535	624.036
374.942	21.866	818.010	624.089
375.956	21.816	817.871	623.748
376.971	22.091	817.277	624.220
377.986	22.260	816.626	624.267
379.000	22.103	816.832	623.812
380.015	22.086	815.694	622.827
381.029	22.093	815.447	622.606
382.044	22.212	814.440	622.205
383.059	22.075	814.111	621.414
384.073	21.968	813.460	620.484
385.088	21.682	813.194	619.216
386.102	21.593	812.297	618.164
387.117	21.627	811.487	617.612
388.132	21.662	810.885	617.223
389.146	21.827	810.238	617.256
390.161	22.066	809.808	617.713
391.175	21.920	809.843	617.173
392.190	21.782	809.183	616.131
393.205	21.714	808.571	615.371
394.219	21.798	808.206	615.332
395.234	21.673	807.429	614.251
396.248	21.582	806.943	613.506
397.263	21.495	807.043	613.224
398.278	21.363	806.553	612.333
399.292	21.506	805.721	612.150
400.307	21.496	804.823	611.376
401.321	21.626	804.626	611.628
402.336	21.732	804.575	611.906
403.350	21.851	804.013	611.839
404.365	22.000	803.888	612.209
405.380	22.085	803.512	612.165
406.394	22.086	802.785	611.559
407.409	22.246	802.457	611.813
408.423	22.292	802.132	611.670
409.438	22.360	802.045	611.786
410.453	22.299	801.649	611.221
411.467	22.490	800.968	611.309
412.482	22.564	800.389	611.071
413.496	22.536	800.151	610.735
414.511	22.498	800.246	610.624
415.526	22.497	799.452	609.959
416.540	22.345	798.829	608.903
417.555	22.528	798.321	609.095
418.569	22.465	798.015	608.592
419.584	22.374	798.071	608.265
420.599	22.378	797.091	607.479
421.613	163.527	1369.010	1795.147
422.628	141.987	1452.356	1795.237
