DTS Sentinel unit serial number:	SN413079Multiplexer serial number:	ORYXHardware model number:	OX4-SRSoftware version number:	ORYX F/W v4.00 Oryx Data Collector v3.7.2.0data status	okinstallation	princeton_trtdifferential loss correction	single-endedforward channel	channel 1reverse channel	N/Adate	2019/09/12time	19:26:34forward acquisition time	15.00reverse acquisition time	0.00gamma	496.2192k internal	0.2322k external	0.2322temperature offset calibration	1.0121default loss term (dB/km)	0.3790temperature slope calibration	1.0000multiplexer offset coefficient	1.0000multiplexer slope coefficient	1.0000fibre end	0.00T internal ref (°C)	32.31T ext. ref 1 (°C)	3.20T ext. ref 2 (°C)	26.91length (m)	temperature (°C)	Stokes	anti-Stokes-747.200	37.972	0.603	-0.542
-746.185	-9.562	-0.373	-0.252
-745.171	-63.598	-0.634	0.263
-744.156	-9.420	-0.442	-0.298
-743.142	203.069	0.199	0.310
-742.127	113.135	0.297	-0.364
-741.112	-37.656	-0.659	-0.355
-740.098	342.361	-0.130	0.256
-739.083	707.613	-0.080	0.213
-738.069	12.186	0.229	-0.178
-737.054	-185.323	-0.252	-0.004
-736.039	-121.251	-0.507	0.086
-735.025	-62.071	0.561	-0.237
-734.010	-8.046	0.395	-0.269
-732.996	38.301	0.539	0.484
-731.981	323.893	-0.226	0.435
-730.966	112.125	0.544	0.664
-729.952	-200.000	0.010	-0.534
-728.937	-38.227	-0.439	0.235
-727.923	800.000	-0.094	0.385
-726.908	234.303	-0.265	0.441
-725.894	20.594	-0.419	-0.343
-724.879	800.000	-0.220	0.779
-723.864	78.077	0.554	0.597
-722.850	149.944	0.357	-0.488
-721.835	360.144	-0.121	-0.245
-720.821	12.322	-0.307	-0.238
-719.806	-16.168	0.527	-0.338
-718.791	95.107	0.464	-0.534
-717.777	29.179	-0.104	0.089
-716.762	800.000	0.054	-0.165
-715.748	-140.918	-0.704	0.073
-714.733	11.201	0.323	-0.250
-713.718	153.473	0.249	-0.344
-712.704	51.047	0.339	0.324
-711.689	-200.000	-0.146	-0.869
-710.675	-9.001	-0.828	-0.559
-709.660	-177.738	-0.435	0.011
-708.645	-200.000	0.061	1.113
-707.631	-101.236	0.382	-0.094
-706.616	800.000	-0.052	-0.156
-705.602	53.399	0.104	0.101
-704.587	8.025	0.593	0.449
-703.572	-84.069	-0.277	0.089
-702.558	-118.438	0.683	0.122
-701.543	-127.579	-0.435	-0.064
-700.529	274.306	0.238	0.424
-699.514	136.702	0.620	0.816
-698.499	93.026	-0.499	0.569
-697.485	-19.609	-0.498	0.311
-696.470	50.912	-0.216	-0.207
-695.456	-200.000	0.036	-0.825
-694.441	-187.135	-0.946	-0.013
-693.426	130.066	0.350	0.451
-692.412	117.999	-0.440	0.547
-691.397	-23.217	-0.445	0.270
-690.383	110.190	0.522	0.632
-689.368	231.491	-0.622	1.028
-688.354	-68.758	0.492	-0.192
-687.339	-92.501	0.240	-0.068
-686.324	290.059	-0.167	0.305
-685.310	-19.300	-0.682	0.427
-684.295	-93.423	0.446	-0.124
-683.281	780.126	0.168	-0.464
-682.266	-200.000	-0.011	0.458
-681.251	29.486	0.894	0.766
-680.237	422.636	-0.267	0.578
-679.222	-81.049	0.483	-0.161
-678.208	-105.440	0.678	0.155
-677.193	294.491	0.086	0.159
-676.178	507.522	-0.110	-0.257
-675.164	-7.632	-0.274	-0.186
-674.149	-25.659	0.443	-0.263
-673.135	107.846	-0.485	-0.583
-672.120	-138.271	0.933	0.104
-671.105	-114.218	-0.529	-0.103
-670.091	800.000	-0.311	-1.182
-669.076	18.659	0.523	-0.422
-668.062	75.568	0.270	0.288
-667.047	-44.784	0.234	0.117
-666.032	-135.582	1.093	-0.131
-665.018	800.000	0.206	-0.615
-664.003	-29.667	0.663	0.381
-662.989	-200.000	-0.060	0.513
-661.974	129.737	-0.261	0.336
-660.959	65.550	-0.201	-0.205
-659.945	800.000	-0.055	0.156
-658.930	409.445	-0.364	0.777
-657.916	800.000	-0.143	0.441
-656.901	-200.000	-0.069	0.686
-655.886	307.867	-0.037	0.070
-654.872	-65.744	-0.907	0.366
-653.857	-39.043	0.364	-0.193
-652.843	-48.897	-0.499	0.241
-651.828	-200.000	0.085	0.431
-650.814	-71.695	0.695	-0.261
-649.799	-38.051	-0.456	-0.244
-648.784	-96.947	0.600	-0.158
-647.770	-172.938	-0.381	0.012
-646.755	245.962	-0.402	0.682
-645.741	-133.363	-0.422	0.054
-644.726	-5.612	-0.302	-0.208
-643.711	24.007	0.504	0.418
-642.697	404.607	0.130	0.275
-641.682	-200.000	0.058	-0.281
-640.668	-52.535	-0.078	0.036
-639.653	-163.391	0.559	0.027
-638.638	300.320	0.218	-0.405
-637.624	-200.000	0.017	-0.394
-636.609	-200.000	0.093	-0.901
-635.595	429.755	-0.282	0.614
-634.580	-200.000	-0.513	0.002
-633.565	-46.422	-0.494	0.244
-632.551	-51.727	0.518	0.243
-631.536	168.995	0.148	0.213
-630.522	67.503	-0.175	-0.180
-629.507	-0.389	-0.347	0.248
-628.492	24.426	0.348	-0.290
-627.478	-60.443	0.315	0.135
-626.463	-43.833	-0.349	-0.177
-625.449	212.730	0.213	-0.338
-624.434	-155.730	-0.357	-0.023
-623.419	-3.879	-0.588	0.411
-622.405	-200.000	0.265	1.222
-621.390	122.626	0.596	0.749
-620.376	-54.973	0.372	-0.168
-619.361	41.838	0.849	-0.774
-618.346	-200.000	0.019	-0.085
-617.332	131.943	0.224	0.290
-616.317	181.367	0.268	0.396
-615.303	-51.208	-0.651	-0.307
-614.288	-71.262	-0.349	-0.132
-613.273	256.799	-0.198	-0.342
-612.259	491.755	-0.218	0.503
-611.244	-200.000	-0.020	0.306
-610.230	23.287	0.237	-0.196
-609.215	383.284	-0.111	0.231
-608.201	656.916	-0.112	-0.289
-607.186	2.598	0.581	-0.423
-606.171	800.000	0.073	-0.295
-605.157	480.724	-0.417	0.951
-604.142	-200.000	-0.073	0.635
-603.128	268.438	-0.507	-0.893
-602.113	-97.326	-0.981	0.257
-601.098	8.252	0.617	0.466
-600.084	-46.263	0.290	-0.143
-599.069	-99.498	0.348	-0.088
-598.055	-184.621	-0.177	-0.003
-597.040	-87.701	-0.745	-0.226
-596.025	-49.457	-0.561	-0.269
-595.011	615.169	-0.022	0.055
-593.996	-200.000	0.003	0.529
-592.982	-164.452	0.229	-0.010
-591.967	104.274	0.371	-0.438
-590.952	291.419	0.186	-0.340
-589.938	-77.368	0.490	-0.171
-588.923	240.389	0.320	-0.537
-587.909	527.606	-0.327	-0.775
-586.894	349.714	0.289	-0.574
-585.879	-158.007	-0.141	-0.008
-584.865	-200.000	-0.056	-0.752
-583.850	-48.326	-0.198	-0.096
-582.836	121.619	-0.282	0.353
-581.821	118.434	0.288	0.357
-580.806	742.536	0.140	-0.378
-579.792	199.170	0.159	-0.245
-578.777	-79.886	0.416	0.140
-577.763	117.980	0.297	-0.367
-576.748	-102.973	-0.612	0.146
-575.733	-112.447	-0.682	-0.137
-574.719	15.842	0.523	-0.413
-573.704	167.240	-0.120	0.171
-572.690	-200.000	0.023	-0.344
-571.675	-90.962	-0.473	-0.137
-570.661	38.081	-0.873	-0.779
-569.646	800.000	-0.213	-0.802
-568.631	-200.000	0.058	-0.488
-567.617	-43.900	0.530	0.268
-566.602	-200.000	-0.355	1.748
-565.588	287.270	0.264	0.480
-564.573	800.000	-0.207	-0.743
-563.558	-104.646	-0.482	-0.112
-562.544	-190.675	0.511	-0.005
-561.529	-81.657	0.071	-0.023
-560.515	132.154	0.318	0.411
-559.500	-179.721	1.048	0.023
-558.485	800.000	-0.053	0.174
-557.471	800.000	-0.070	-0.259
-556.456	-21.408	-0.598	-0.366
-555.442	289.124	-0.131	0.238
-554.427	-200.000	-0.029	0.237
-553.412	49.892	0.266	0.252
-552.398	197.799	0.292	-0.447
-551.383	-136.420	-0.646	0.075
-550.369	800.000	-0.122	-0.369
-549.354	-126.999	0.250	-0.037
-548.339	-153.920	-0.414	0.028
-547.325	-126.905	1.096	0.162
-546.310	800.000	-0.109	-0.334
-545.296	-80.972	-0.307	0.102
-544.281	-113.040	-0.359	0.071
-543.266	800.000	-0.055	-0.170
-542.252	-111.732	-0.687	-0.140
-541.237	800.000	0.241	0.740
-540.223	645.151	0.303	0.775
-539.208	-115.127	-0.267	0.051
-538.193	-166.979	-0.443	-0.018
-537.179	23.127	-0.270	0.222
-536.164	-73.596	-0.252	-0.092
-535.150	-200.000	0.051	-0.666
-534.135	-200.000	-0.040	-0.180
-533.121	-200.000	0.028	0.624
-532.106	-195.860	0.766	-0.005
-531.091	-82.657	-0.515	0.167
-530.077	800.000	0.241	0.831
-529.062	113.868	-0.526	0.641
-528.048	70.470	-0.504	0.522
-527.033	382.999	-0.125	-0.259
-526.018	-6.358	-0.204	-0.139
-525.004	705.604	0.048	-0.128
-523.989	-102.846	0.359	-0.086
-522.975	729.931	0.216	0.579
-521.960	-58.807	-0.408	-0.177
-520.945	121.318	-0.421	-0.525
-519.931	-21.137	0.524	0.321
-518.916	104.440	0.116	-0.137
-517.902	-105.415	0.384	0.087
-516.887	257.070	0.391	-0.674
-515.872	-76.708	-0.457	0.161
-514.858	-200.000	-0.140	1.169
-513.843	101.907	-0.113	0.132
-512.829	-200.000	-0.073	-1.022
-511.814	800.000	-0.209	0.762
-510.799	-76.049	0.707	0.250
-509.785	-200.000	-0.009	0.326
-508.770	373.510	-0.058	0.118
-507.756	-25.494	-0.212	0.126
-506.741	-200.000	0.062	-0.377
-505.726	64.893	0.455	-0.460
-504.712	380.465	0.187	-0.384
-503.697	-200.000	0.139	0.620
-502.683	47.787	0.347	-0.324
-501.668	-200.000	0.090	-0.735
-500.653	64.635	0.752	-0.759
-499.639	117.667	-0.370	0.456
-498.624	15.170	-0.252	-0.198
-497.610	-69.670	0.586	-0.224
-496.595	-24.796	0.684	0.407
-495.581	-200.000	-0.149	-0.751
-494.566	-51.873	0.266	-0.124
-493.551	-200.000	-0.001	0.188
-492.537	-185.108	-0.312	-0.005
-491.522	-200.000	-0.024	-0.303
-490.508	-88.686	0.415	0.123
-489.493	-26.498	0.187	0.110
-488.478	-118.132	-0.523	-0.093
-487.464	800.000	-0.280	0.872
-486.449	-43.259	0.202	-0.102
-485.435	800.000	-0.113	-0.365
-484.420	800.000	0.134	-0.555
-483.405	-112.756	0.564	0.112
-482.391	-200.000	0.024	0.371
-481.376	570.567	0.036	0.088
-480.362	137.330	-0.366	-0.479
-479.347	172.039	-0.552	-0.793
-478.332	665.611	-0.314	0.810
-477.318	-100.503	-1.295	-0.320
-476.303	-114.883	-0.312	0.059
-475.289	758.662	0.325	0.882
-474.274	-112.391	0.784	-0.157
-473.259	-200.000	-0.070	-0.628
-472.245	-44.761	-0.172	0.086
-471.230	-200.000	0.010	-0.266
-470.216	-28.075	-0.157	-0.091
-469.201	235.794	-0.412	0.680
-468.186	-200.000	-0.066	0.513
-467.172	-200.000	-0.087	0.546
-466.157	-200.000	-0.002	0.137
-465.143	800.000	-0.240	0.838
-464.128	-200.000	-0.134	-0.792
-463.113	179.073	0.095	0.139
-462.099	-124.577	1.111	0.172
-461.084	800.000	0.162	0.480
-460.070	-200.000	-0.051	-0.501
-459.055	-20.873	-0.626	-0.384
-458.040	-93.462	-0.666	0.184
-457.026	757.284	-0.422	-1.140
-456.011	-171.075	-0.385	0.013
-454.997	-49.512	0.826	0.393
-453.982	-200.000	0.022	-0.155
-452.968	303.029	-0.023	-0.043
-451.953	-200.000	-0.093	-0.480
-450.938	-200.000	-0.035	0.999
-449.924	-200.000	0.027	0.958
-448.909	-200.000	-0.029	0.905
-447.895	-200.000	-0.122	-0.698
-446.880	-68.024	-0.090	-0.035
-445.865	-200.000	-0.023	0.299
-444.851	5.818	0.652	0.482
-443.836	-200.000	-0.124	1.097
-442.822	-20.791	-0.878	-0.538
-441.807	800.000	0.151	-0.445
-440.792	-174.177	0.433	-0.013
-439.778	-74.904	-0.847	0.303
-438.763	800.000	-0.079	0.239
-437.749	-61.119	-0.178	0.075
-436.734	66.527	-0.425	0.431
-435.719	369.833	0.105	0.211
-434.705	-17.622	0.128	0.080
-433.690	-150.095	-0.438	0.034
-432.676	-81.952	-0.404	-0.132
-431.661	-86.759	0.624	-0.191
-430.646	149.855	-0.469	0.634
-429.632	-19.066	-0.368	0.228
-428.617	-65.392	-0.758	0.304
-427.603	467.597	0.242	0.541
-426.588	-200.000	-0.057	0.632
-425.573	800.000	-0.145	-0.503
-424.559	170.586	0.378	-0.540
-423.544	800.000	0.050	0.145
-422.530	-2.455	-0.195	-0.137
-421.515	108.935	0.424	0.506
-420.500	-19.489	-0.755	0.467
-419.486	107.585	-0.343	0.408
-418.471	136.244	0.795	-1.034
-417.457	-5.993	-0.606	0.413
-416.442	-104.498	0.485	0.112
-415.428	662.540	-0.046	0.117
-414.413	-200.000	-0.025	-0.914
-413.398	-39.055	-0.269	-0.141
-412.384	-200.000	0.026	0.269
-411.369	138.441	0.243	0.318
-410.355	-122.644	-0.656	-0.106
-409.340	-200.000	0.043	-0.230
-408.325	722.944	0.110	-0.291
-407.311	-200.000	-0.080	0.547
-406.296	-107.524	0.403	0.088
-405.282	351.716	0.225	-0.444
-404.267	-200.000	0.032	-0.273
-403.252	-87.600	-0.528	0.159
-402.238	-200.000	0.012	0.225
-401.223	-131.417	-0.181	-0.024
-400.209	800.000	0.050	-0.200
-399.194	54.019	0.321	0.308
-398.179	-82.592	0.450	-0.146
-397.165	73.419	0.163	0.170
-396.150	-113.303	0.352	0.069
-395.136	188.541	-0.385	0.574
-394.121	82.541	0.246	0.267
-393.106	-200.000	-0.020	0.218
-392.092	-98.636	0.341	-0.087
-391.077	-155.726	0.553	0.035
-390.063	21.054	-0.205	0.166
-389.048	-200.000	-0.098	0.526
-388.033	22.819	0.310	-0.253
-387.019	-200.000	-0.084	-0.873
-386.004	-98.850	-0.997	0.253
-384.990	283.607	0.402	-0.719
-383.975	285.778	0.394	-0.708
-382.960	-74.755	-0.236	0.085
-381.946	-200.000	-0.144	-1.253
-380.931	-200.000	0.021	0.577
-379.917	-133.857	-0.382	0.047
-378.902	-125.877	-0.048	-0.007
-377.888	448.008	-0.201	0.441
-376.873	54.412	0.497	-0.477
-375.858	-13.330	-0.298	0.193
-374.844	171.619	-0.064	-0.092
-373.829	-200.000	-0.001	0.156
-372.815	-170.579	-0.242	0.008
-371.800	1.518	-0.165	-0.118
-370.785	-200.000	-0.853	-0.003
-369.771	800.000	0.070	-0.291
-368.756	6.572	0.797	0.590
-367.742	-47.031	0.253	-0.123
-366.727	-200.000	0.049	0.762
-365.712	-200.000	-0.077	0.490
-364.698	182.047	-0.410	-0.601
-363.683	-79.877	0.803	0.269
-362.669	-200.000	-0.067	0.482
-361.654	-174.451	0.844	0.024
-360.639	-165.911	-0.279	-0.012
-359.625	-85.178	-0.086	0.027
-358.610	112.916	0.508	0.613
-357.596	123.837	0.075	0.094
-356.581	180.225	-0.056	-0.082
-355.566	-200.000	-0.138	0.851
-354.552	162.266	0.473	0.659
-353.537	-200.000	-0.100	0.641
-352.523	-162.778	0.624	-0.030
-351.508	-98.760	0.991	-0.251
-350.493	355.446	-0.323	-0.640
-349.479	13.384	0.193	0.149
-348.464	-200.000	0.010	-0.049
-347.450	-10.916	-0.850	-0.559
-346.435	-68.174	0.122	0.047
-345.420	0.541	0.348	0.247
-344.406	-177.236	-0.574	0.014
-343.391	-200.000	0.023	0.711
-342.377	-74.563	0.271	-0.097
-341.362	-116.364	-0.195	-0.036
-340.348	53.086	-0.330	0.314
-339.333	-53.082	0.432	-0.198
-338.318	800.000	-0.199	-0.557
-337.304	477.872	-0.106	-0.238
-336.289	-175.213	0.167	0.005
-335.275	800.000	0.052	-0.210
-334.260	800.000	-0.274	0.818
-333.245	-25.926	0.443	-0.259
-332.231	-200.000	0.042	-0.808
-331.216	70.202	0.237	0.243
-330.202	-34.315	-0.828	-0.452
-329.187	-200.000	0.092	0.831
-328.172	117.977	0.354	0.434
-327.158	-200.000	0.085	-0.823
-326.143	18.787	0.499	-0.397
-325.129	-139.880	0.052	0.005
-324.114	-29.372	-0.513	-0.292
-323.099	107.700	-0.422	0.499
-322.085	2.833	-0.754	-0.544
-321.070	49.523	0.845	0.791
-320.056	-200.000	0.011	0.513
-319.041	-77.732	-0.443	-0.152
-318.026	-34.574	-0.533	-0.290
-317.012	787.995	0.032	-0.088
-315.997	337.711	0.195	0.377
-314.983	-52.039	-0.354	0.164
-313.968	-183.586	-0.181	-0.003
-312.953	143.212	-0.428	-0.566
-311.939	228.907	-0.080	-0.130
-310.924	-200.000	-0.007	-0.317
-309.910	-152.709	0.402	0.028
-308.895	-31.567	-0.540	-0.301
-307.880	-200.000	0.033	-0.357
-306.866	-200.000	-0.048	-0.329
-305.851	214.019	-0.429	-0.674
-304.837	15.040	-0.600	0.466
-303.822	-136.095	1.003	-0.117
-302.807	-28.472	-0.503	-0.288
-301.793	-119.525	-0.522	-0.090
-300.778	78.002	0.412	-0.436
-299.764	-34.440	0.494	-0.269
-298.749	103.952	0.320	-0.374
-297.735	-102.154	-0.254	-0.061
-296.720	-200.000	-0.033	-0.212
-295.705	-20.307	-0.512	-0.313
-294.691	421.218	0.265	0.565
-293.676	40.397	0.343	-0.306
-292.662	-156.153	0.376	-0.024
-291.647	2.852	0.193	-0.139
-290.632	237.886	0.453	-0.746
-289.618	800.000	-0.237	-0.688
-288.603	-68.729	0.618	0.237
-287.589	-157.812	-0.655	0.039
-286.574	-200.000	-0.070	0.438
-285.559	-200.000	0.074	-0.502
-284.545	-200.000	-0.080	-0.387
-283.530	-53.373	-0.107	0.048
-282.516	-147.151	0.182	-0.015
-281.501	-200.000	0.004	0.170
-280.486	390.721	0.182	0.374
-279.472	-110.960	-0.443	-0.090
-278.457	800.000	-0.217	-0.631
-277.443	-92.359	0.780	-0.218
-276.428	793.065	0.184	0.502
-275.413	-119.175	-0.353	-0.061
-274.399	800.000	-0.164	-0.695
-273.384	199.618	0.241	-0.367
-272.370	417.087	-0.192	0.406
-271.355	-158.182	0.384	0.022
-270.340	-200.000	0.032	0.172
-269.326	-131.596	-0.587	-0.077
-268.311	45.203	0.762	0.697
-267.297	360.846	0.109	-0.216
-266.282	-92.245	0.725	-0.203
-265.267	-200.000	-0.074	-0.360
-264.253	222.810	0.242	0.387
-263.238	275.026	-0.065	-0.114
-262.224	140.787	0.487	0.638
-261.209	408.613	-0.176	0.369
-260.195	17.642	0.721	-0.569
-259.180	537.998	0.020	-0.046
-258.165	22.533	-0.289	0.234
-257.151	-57.574	-0.574	-0.250
-256.136	-200.000	0.291	1.304
-255.122	-55.707	0.236	-0.105
-254.107	-20.627	0.276	-0.168
-253.092	2.381	-0.316	-0.226
-252.078	-58.938	0.332	-0.142
-251.063	-200.000	-0.041	-0.936
-250.049	800.000	-0.162	0.512
-249.034	-129.765	0.586	-0.080
-248.019	-75.438	0.185	-0.065
-247.005	169.564	0.477	0.676
-245.990	-79.591	-0.779	0.260
-244.976	96.412	0.321	0.365
-243.961	-50.346	-0.724	0.339
-242.946	319.564	-0.342	0.643
-241.932	-4.935	0.276	-0.188
-240.917	-124.952	0.530	-0.081
-239.903	800.000	0.185	-0.690
-238.888	-126.120	0.563	-0.084
-237.873	37.294	-0.587	-0.516
-236.859	-81.060	0.361	-0.118
-235.844	-200.000	0.002	-0.624
-234.830	161.352	0.103	-0.142
-233.815	-200.000	0.133	-0.683
-232.800	564.411	-0.116	0.279
-231.786	-14.438	-0.408	0.260
-230.771	143.851	-0.476	0.628
-229.757	800.000	0.346	-1.073
-228.742	153.976	0.252	0.342
-227.727	379.828	-0.333	-0.676
-226.713	-200.000	0.078	-0.442
-225.698	73.415	-0.297	-0.308
-224.684	85.683	0.549	0.597
-223.669	800.000	0.108	-0.315
-222.655	194.643	0.309	0.464
-221.640	208.165	0.309	-0.477
-220.625	-92.375	0.350	-0.098
-219.611	-8.263	0.171	-0.114
-218.596	250.356	0.236	-0.396
-217.582	418.692	0.190	-0.403
-216.567	284.225	0.176	-0.313
-215.552	-19.786	-0.624	0.381
-214.538	56.924	0.315	0.303
-213.523	-13.394	-0.836	-0.536
-212.509	-200.000	0.057	-0.416
-211.494	190.131	-0.189	-0.280
-210.479	-77.303	0.428	-0.147
-209.465	440.195	-0.339	-0.734
-208.450	-138.389	0.289	0.032
-207.436	-52.870	0.556	0.253
-206.421	-92.266	0.327	0.091
-205.406	60.851	-0.240	0.236
-204.392	-15.390	0.078	0.049
-203.377	212.664	0.226	-0.353
-202.363	125.065	-0.082	-0.102
-201.348	466.487	-0.186	0.413
-200.333	-200.000	-0.022	0.269
-199.319	320.480	-0.215	0.403
-198.304	-114.137	0.711	-0.136
-197.290	108.583	-0.087	-0.103
-196.275	432.161	0.077	-0.165
-195.260	-44.290	0.311	-0.154
-194.246	-10.284	-0.487	0.320
-193.231	-122.435	0.886	-0.143
-192.217	3.675	-0.708	0.511
-191.202	-68.407	0.295	0.113
-190.187	-84.395	-0.465	0.145
-189.173	-200.000	0.093	-1.171
-188.158	-90.729	0.389	-0.111
-187.144	-33.885	0.269	0.146
-186.129	-200.000	-0.070	-0.693
-185.114	-86.515	0.227	0.069
-184.100	431.696	-0.085	-0.182
-183.085	800.000	0.103	-0.286
-182.071	344.468	-0.629	-1.221
-181.056	-31.516	0.579	0.322
-180.042	-129.213	-0.321	0.044
-179.027	800.000	-0.251	0.865
-178.012	52.962	-0.668	-0.631
-176.998	-200.000	-0.043	0.200
-175.983	276.419	-0.162	0.284
-174.969	264.034	-0.200	0.344
-173.954	246.262	0.104	-0.172
-172.939	101.591	0.495	-0.571
-171.925	-126.343	0.100	-0.015
-170.910	800.000	-0.182	0.524
-169.896	800.000	0.331	1.183
-168.881	19.235	-0.246	0.195
-167.866	-83.751	0.616	-0.194
-166.852	-105.675	-0.282	0.063
-165.837	-200.000	0.157	0.915
-164.823	197.537	0.084	-0.127
-163.808	702.885	0.192	0.500
-162.793	174.957	-0.090	0.129
-161.779	-116.448	-1.090	0.199
-160.764	-92.691	0.731	-0.202
-159.750	-24.291	0.914	-0.538
-158.735	-52.238	-0.811	0.371
-157.720	231.206	-0.315	0.509
-156.706	-200.000	0.011	-0.252
-155.691	-23.928	0.414	-0.244
-154.677	-174.852	0.269	-0.007
-153.662	-34.000	-0.338	0.183
-152.647	10.113	-0.541	0.406
-151.633	-200.000	-0.131	0.779
-150.618	-200.000	0.024	-0.317
-149.604	-200.000	-0.064	-0.745
-148.589	80.329	-0.582	0.619
-147.574	-148.975	-0.415	0.033
-146.560	-200.000	-0.013	-0.111
-145.545	-88.845	0.473	0.138
-144.531	-27.040	0.864	0.497
-143.516	349.903	0.203	-0.396
-142.502	167.112	0.050	-0.071
-141.487	700.229	0.388	1.008
-140.472	-75.373	-0.171	0.060
-139.458	81.679	-0.523	0.559
-138.443	411.178	0.091	-0.191
-137.429	800.000	-0.136	-0.433
-136.414	800.000	0.086	0.262
-135.399	-200.000	0.055	0.309
-134.385	334.500	-0.252	0.482
-133.370	-200.000	0.029	0.265
-132.356	-17.595	-0.781	0.485
-131.341	-103.225	0.286	-0.067
-130.326	104.579	-0.402	-0.467
-129.312	-10.918	0.814	-0.530
-128.297	-91.205	0.890	0.251
-127.283	2.708	-0.683	0.489
-126.268	-200.000	0.028	-0.543
-125.253	22.249	-0.430	-0.346
-124.239	800.000	0.218	0.743
-123.224	-172.788	-0.686	-0.021
-122.210	800.000	0.206	0.565
-121.195	-200.000	0.187	0.843
-120.180	-170.454	0.196	0.007
-119.166	-187.287	-0.302	0.004
-118.151	-117.934	0.369	-0.065
-117.137	380.802	0.508	-1.027
-116.122	-87.377	-0.465	-0.139
-115.107	800.000	0.130	-0.382
-114.093	-200.000	0.017	0.482
-113.078	-200.000	0.009	-0.192
-112.064	96.733	0.069	0.078
-111.049	786.048	0.182	-0.493
-110.034	405.970	0.092	-0.191
-109.020	-87.312	-0.864	-0.258
-108.005	-150.896	-0.136	-0.010
-106.991	-200.000	-0.082	0.651
-105.976	-92.217	0.498	0.139
-104.962	-200.000	0.062	-0.279
-103.947	302.799	-0.303	-0.552
-102.932	176.208	0.528	0.755
-101.918	-104.611	0.619	0.141
-100.903	800.000	-0.220	0.698
-99.889	-37.424	0.614	0.323
-98.874	235.757	0.217	-0.354
-97.859	-200.000	0.044	-0.476
-96.845	-72.909	1.137	0.412
-95.830	-175.628	0.856	0.023
-94.816	9.297	-0.245	-0.182
-93.801	-90.986	-1.151	-0.326
-92.786	-131.478	0.449	0.058
-91.772	71.195	-0.132	0.135
-90.757	-200.000	0.029	0.476
-89.743	-106.749	0.481	0.105
-88.728	-32.825	0.305	-0.167
-87.713	-126.327	0.821	-0.121
-86.699	-51.462	0.545	-0.251
-85.684	-127.165	-0.728	0.105
-84.670	263.346	0.225	-0.385
-83.655	403.098	-0.175	0.363
-82.640	187.448	-0.295	0.433
-81.626	-159.296	-0.680	-0.038
-80.611	-37.258	0.276	0.145
-79.597	800.000	-0.199	0.644
-78.582	-87.826	-0.341	0.101
-77.567	421.194	-0.254	0.537
-76.553	158.648	0.351	-0.479
-75.538	-34.008	-0.564	0.306
-74.524	-136.339	-0.269	0.031
-73.509	800.000	0.248	0.700
-72.494	-200.000	0.035	0.988
-71.480	-91.103	-0.112	-0.032
-70.465	142.187	0.289	-0.377
-69.451	800.000	-0.126	0.500
-68.436	-200.000	-0.023	0.852
-67.422	-200.000	0.004	-0.628
-66.407	-80.635	0.615	-0.201
-65.392	28.239	0.594	-0.494
-64.378	355.800	-0.267	0.522
-63.363	263.745	-0.481	0.823
-62.349	-169.409	0.604	-0.022
-61.334	212.916	-0.873	-1.355
-60.319	-200.000	0.022	0.731
-59.305	-200.000	0.014	-0.819
-58.290	132.680	0.709	0.899
-57.276	465.691	0.793	1.746
-56.261	-200.000	96.066	604.038
-55.246	678.693	1355.791	3469.209
-54.232	204.667	2517.122	3839.839
-53.217	120.809	2119.061	2591.376
-52.203	44.315	1591.293	1436.528
-51.188	35.955	1330.580	1151.403
-50.173	32.883	1290.197	1098.565
-49.159	56.020	1340.159	1278.813
-48.144	57.036	1357.073	1300.918
-47.130	36.034	1315.229	1138.402
-46.115	32.562	1297.838	1103.018
-45.100	32.198	1292.108	1095.980
-44.086	32.227	1289.992	1094.312
-43.071	32.208	1287.263	1091.842
-42.057	32.115	1286.229	1090.382
-41.042	32.202	1284.346	1089.245
-40.027	32.269	1282.170	1087.749
-39.013	32.124	1280.507	1085.453
-37.998	32.412	1277.972	1084.926
-36.984	32.371	1276.324	1083.244
-35.969	32.287	1274.981	1081.582
-34.954	32.118	1273.815	1079.577
-33.940	32.321	1272.696	1079.750
-32.925	32.280	1271.557	1078.506
-31.911	32.161	1270.445	1076.837
-30.896	32.528	1267.300	1076.230
-29.881	32.549	1265.884	1075.105
-28.867	32.428	1264.998	1073.620
-27.852	32.355	1263.178	1071.613
-26.838	32.058	1263.678	1070.305
-25.823	32.613	1260.888	1071.053
-24.809	32.466	1260.121	1069.526
-23.794	32.277	1258.348	1066.902
-22.779	32.341	1256.924	1066.020
-21.765	32.323	1255.333	1064.525
-20.750	32.389	1254.186	1063.882
-19.736	32.608	1251.749	1063.007
-18.721	32.466	1251.088	1061.605
-17.706	32.314	1250.788	1060.452
-16.692	32.144	1250.207	1058.959
-15.677	32.471	1249.475	1060.138
-14.663	32.140	1247.279	1056.372
-13.648	32.280	1246.158	1056.167
-12.633	32.278	1245.863	1055.863
-11.619	32.186	1244.750	1054.363
-10.604	32.263	1243.772	1053.925
-9.590	32.365	1242.626	1053.483
-8.575	32.134	1241.335	1051.054
-7.560	32.289	1240.691	1051.334
-6.546	32.062	1240.111	1049.530
-5.531	32.449	1238.551	1050.327
-4.517	32.056	1239.106	1048.563
-3.502	32.137	1238.219	1048.223
-2.487	32.173	1236.864	1047.235
-1.473	32.185	1232.736	1043.765
-0.458	30.673	1217.316	1022.366
0.556	28.272	1200.720	984.927
1.571	24.404	1205.630	967.926
2.586	23.441	1219.748	973.887
3.600	22.593	1208.936	960.554
4.615	17.018	1137.441	875.000
5.629	7.832	1061.878	772.385
6.644	3.754	1042.859	739.013
7.659	3.087	1041.004	734.448
8.673	3.126	1039.002	733.155
9.688	2.836	1038.153	731.113
10.702	3.540	1035.807	732.740
11.717	9.327	1044.038	766.136
12.731	18.779	1056.840	820.843
13.746	23.687	1062.505	848.694
14.761	24.054	1064.989	852.359
15.775	24.130	1062.573	850.712
16.790	23.715	1061.338	847.666
17.804	23.389	1060.711	845.538
18.819	23.781	1059.931	846.707
19.834	23.781	1058.719	845.664
20.848	23.750	1058.599	845.348
21.863	23.517	1058.847	844.359
22.877	23.141	1058.648	842.336
23.892	23.234	1057.385	841.703
24.907	23.398	1056.256	841.508
25.921	23.163	1056.273	840.331
26.936	23.306	1054.250	839.323
27.950	23.000	1053.979	837.585
28.965	23.122	1050.713	835.489
29.980	23.305	1050.548	836.148
30.994	23.607	1048.682	836.015
32.009	23.436	1047.825	834.449
33.023	23.428	1046.364	833.179
34.038	23.295	1047.332	833.247
35.053	23.234	1045.154	831.153
36.067	23.195	1044.140	830.093
37.082	23.363	1043.307	830.142
38.096	23.264	1043.510	829.765
39.111	23.380	1042.370	829.333
40.126	23.335	1041.284	828.182
41.140	23.139	1039.143	825.491
42.155	22.511	1037.857	821.469
43.169	22.739	1036.834	821.651
44.184	23.090	1034.836	821.626
45.199	22.725	1034.581	819.652
46.213	23.074	1034.052	820.782
47.228	23.277	1034.712	822.176
48.242	23.462	1034.491	822.786
49.257	23.476	1032.922	821.529
50.271	23.415	1032.118	820.537
51.286	23.733	1031.340	821.317
52.301	23.650	1029.735	819.583
53.315	23.456	1028.470	817.607
54.330	23.540	1027.802	817.394
55.344	22.995	1028.776	815.582
56.359	22.952	1027.729	814.477
57.374	22.824	1026.577	812.904
58.388	22.995	1026.193	813.318
59.403	23.027	1023.601	811.338
60.417	22.814	1023.321	810.065
61.432	22.964	1022.832	810.293
62.447	22.960	1021.543	809.184
63.461	22.735	1022.227	808.623
64.476	22.621	1020.140	806.381
65.490	22.679	1018.516	805.287
66.505	23.075	1018.151	806.734
67.520	22.874	1017.323	805.093
68.534	22.485	1017.536	803.416
69.549	22.553	1016.529	802.858
70.563	22.374	1015.841	801.430
71.578	22.024	1014.109	798.400
72.593	21.809	1013.245	796.672
73.607	21.685	1013.379	796.143
74.622	22.348	1013.006	798.794
75.636	22.035	1012.128	796.608
76.651	22.384	1011.411	797.557
77.666	22.379	1010.875	797.040
78.680	22.602	1009.785	797.119
79.695	22.341	1009.249	795.444
80.709	22.374	1008.899	795.249
81.724	22.868	1008.069	796.752
82.739	22.935	1008.160	797.056
83.753	23.375	1005.706	797.027
84.768	24.008	1005.286	799.467
85.782	24.030	1005.857	799.948
86.797	23.631	1005.261	797.613
87.812	23.723	1003.232	796.346
88.826	23.749	1003.389	796.514
89.841	23.924	1002.233	796.312
90.855	23.917	1000.503	794.835
91.870	24.029	1000.484	795.249
92.884	23.557	998.987	791.885
93.899	23.696	999.032	792.470
94.914	23.749	998.471	792.188
95.928	23.633	996.306	789.886
96.943	23.599	995.839	789.296
97.957	23.221	995.189	787.032
98.972	23.224	994.520	786.444
99.987	23.641	993.745	787.614
101.001	23.589	992.037	785.960
102.016	23.105	992.308	783.957
103.030	23.759	991.051	785.791
104.045	23.720	989.686	784.465
105.060	23.441	989.534	783.046
106.074	23.264	989.033	781.798
107.089	23.268	986.798	779.978
108.103	22.859	986.028	777.501
109.118	22.666	984.972	775.752
110.133	22.682	983.217	774.369
111.147	22.699	982.536	773.839
112.162	22.504	982.181	772.637
113.176	22.653	981.407	772.610
114.191	22.900	980.543	772.945
115.206	22.622	979.194	770.597
116.220	22.437	979.225	769.745
117.235	22.225	979.066	768.625
118.249	22.584	976.681	768.250
119.264	22.486	975.561	766.876
120.279	22.209	975.520	765.569
121.293	22.260	975.059	765.362
122.308	22.242	973.852	764.269
123.322	22.359	972.924	763.982
124.337	22.223	970.454	761.383
125.352	22.502	968.303	760.835
126.366	22.593	969.105	761.791
127.381	22.426	969.995	761.701
128.395	22.630	968.873	761.636
129.410	22.841	966.525	760.628
130.424	23.155	965.346	760.985
131.439	22.761	966.497	760.127
132.454	22.671	966.195	759.437
133.468	22.830	965.096	759.190
134.483	23.090	963.080	758.652
135.497	22.936	963.952	758.611
136.512	23.285	961.957	758.466
137.527	23.234	960.900	757.348
138.541	23.244	959.862	756.508
139.556	23.352	959.016	756.234
140.570	23.433	958.983	756.489
141.585	23.742	957.712	756.733
142.600	23.772	957.370	756.523
143.614	23.285	957.867	754.776
144.629	23.881	955.738	755.565
145.643	23.508	955.189	753.476
146.658	23.423	953.993	752.108
147.673	23.374	953.400	751.368
148.687	23.045	952.467	749.171
149.702	22.882	951.565	747.707
150.716	22.788	950.496	746.400
151.731	23.466	948.737	747.813
152.746	22.960	949.553	746.254
153.760	23.166	949.463	746.988
154.775	23.777	947.913	748.275
155.789	23.478	947.917	746.954
156.804	23.570	945.603	745.452
157.819	23.934	944.238	745.834
158.833	23.508	946.653	745.887
159.848	23.796	945.315	745.974
160.862	23.757	943.594	744.387
161.877	23.134	941.962	740.427
162.892	23.225	940.912	739.916
163.906	22.893	939.982	737.736
164.921	23.099	938.374	737.265
165.935	23.095	938.592	737.358
166.950	23.505	936.728	737.531
167.964	23.331	936.612	736.650
168.979	23.415	934.614	735.363
169.994	23.232	934.709	734.612
171.008	23.215	934.412	734.244
172.023	23.587	933.855	735.283
173.037	23.877	932.728	735.531
174.052	23.651	931.898	733.875
175.067	22.935	931.908	730.860
176.081	22.908	930.439	729.530
177.096	22.690	929.376	727.734
178.110	22.560	929.251	727.033
179.125	22.534	928.128	725.987
180.140	22.991	927.225	727.096
181.154	23.418	927.949	729.357
182.169	23.421	927.695	729.104
183.183	23.491	927.507	729.181
184.198	23.356	926.048	727.415
185.213	23.345	924.929	726.427
186.227	23.557	924.177	726.637
187.242	23.600	924.588	727.075
188.256	23.418	924.003	725.804
189.271	23.640	923.972	726.626
190.286	23.489	922.223	724.568
191.300	22.906	920.433	720.721
192.315	22.513	920.322	718.965
193.329	22.252	919.521	717.213
194.344	22.878	919.301	719.528
195.359	23.249	918.156	720.079
196.373	23.372	918.561	720.833
197.388	23.591	918.690	721.762
198.402	23.846	918.621	722.678
199.417	23.793	918.287	722.137
200.432	24.477	915.695	722.805
201.446	23.961	915.806	720.738
202.461	23.984	915.912	720.851
203.475	23.620	914.601	718.284
204.490	23.203	914.155	716.183
205.504	23.159	913.413	715.359
206.519	23.539	912.094	715.797
207.534	23.361	911.891	714.858
208.548	23.629	911.611	715.656
209.563	23.700	910.596	715.081
210.577	23.748	909.794	714.578
211.592	23.650	909.529	713.916
212.607	23.828	909.818	714.793
213.621	23.982	908.264	714.128
214.636	23.691	907.966	712.665
215.650	23.772	906.028	711.405
216.665	23.560	906.097	710.544
217.680	24.000	904.916	711.317
218.694	23.810	905.462	710.921
219.709	23.843	903.237	709.245
220.723	23.624	902.800	707.966
221.738	23.367	902.637	706.751
222.753	23.390	902.519	706.686
223.767	23.516	902.224	706.894
224.782	23.904	901.951	708.162
225.796	23.990	900.771	707.518
226.811	23.796	899.769	705.898
227.826	23.296	898.919	703.183
228.840	23.316	898.123	702.577
229.855	23.344	897.426	702.079
230.869	23.347	897.023	701.716
231.884	23.004	896.549	699.922
232.899	23.385	896.363	701.225
233.913	23.419	895.768	700.833
234.928	23.157	894.314	698.599
235.942	23.050	893.918	697.804
236.957	22.907	893.571	696.909
237.972	22.905	892.845	696.272
238.986	22.959	892.307	696.002
240.001	23.071	891.125	695.461
241.015	22.900	890.620	694.332
242.030	23.224	890.973	695.821
243.045	23.447	890.183	696.016
244.059	23.176	890.127	694.846
245.074	23.669	888.880	695.744
246.088	23.888	887.981	695.840
247.103	23.849	888.749	696.227
248.117	24.134	888.974	697.457
249.132	24.511	888.400	698.419
250.147	24.869	887.970	699.419
251.161	24.760	887.363	698.452
252.176	24.519	887.106	697.247
253.190	24.877	886.106	697.796
254.205	24.799	885.017	696.573
255.220	24.676	883.850	695.115
256.234	24.378	884.668	694.537
257.249	24.373	883.323	693.398
258.263	24.505	881.472	692.398
259.278	24.241	881.732	691.515
260.293	24.511	881.019	691.941
261.307	24.860	880.407	692.751
262.322	24.670	879.798	691.475
263.336	24.357	879.540	690.001
264.351	24.503	877.534	688.932
265.366	24.354	877.848	688.542
266.380	24.627	877.209	689.032
267.395	24.486	877.071	688.318
268.409	24.390	876.518	687.455
269.424	24.437	875.162	686.510
270.439	23.956	875.226	684.649
271.453	24.358	873.586	684.850
272.468	24.564	873.504	685.513
273.482	24.646	873.121	685.469
274.497	23.982	872.629	682.476
275.512	24.438	871.910	683.600
276.526	24.284	871.286	682.459
277.541	24.652	870.521	683.207
278.555	24.379	871.234	682.661
279.570	24.924	870.323	683.972
280.585	24.450	869.779	681.672
281.599	24.103	869.033	679.702
282.614	24.047	867.424	678.170
283.628	24.161	866.767	678.031
284.643	24.083	866.958	677.822
285.657	24.150	865.663	677.005
286.672	24.210	865.402	676.971
287.687	24.561	864.121	677.239
288.701	24.566	863.990	677.095
289.716	24.380	863.644	676.061
290.730	24.683	862.333	676.120
291.745	24.420	862.354	675.081
292.760	24.660	861.720	675.432
293.774	24.693	861.956	675.682
294.789	24.942	861.081	675.877
295.803	24.708	860.237	674.272
296.818	24.311	859.488	672.132
297.833	24.137	858.533	670.670
298.847	24.568	857.502	671.424
299.862	24.569	857.624	671.463
300.876	24.656	858.351	672.302
301.891	25.084	857.585	673.249
302.906	25.009	856.405	671.981
303.920	25.248	856.488	672.883
304.935	24.936	856.507	671.671
305.949	25.419	854.284	671.671
306.964	24.902	853.438	669.018
307.979	24.645	853.693	668.197
308.993	24.750	853.130	668.090
310.008	24.735	852.707	667.642
311.022	24.625	852.338	666.886
312.037	24.652	851.881	666.569
313.052	24.163	850.921	663.937
314.066	24.047	849.408	662.267
315.081	24.273	848.818	662.587
316.095	24.496	848.105	662.801
317.110	24.438	847.450	662.015
318.125	23.826	847.732	659.906
319.139	23.667	846.035	657.936
320.154	23.582	846.202	657.694
321.168	24.220	845.739	659.639
322.183	24.334	845.284	659.646
323.197	24.442	844.715	659.543
324.212	24.223	845.380	659.194
325.227	24.029	844.340	657.608
326.241	24.205	843.290	657.379
327.256	23.923	842.747	655.860
328.270	23.974	842.104	655.490
329.285	23.682	841.617	653.977
330.300	23.943	839.918	653.559
331.314	24.021	840.607	654.321
332.329	24.274	840.318	654.969
333.343	24.491	839.778	655.288
334.358	24.395	839.255	654.470
335.373	24.844	837.901	654.999
336.387	24.891	838.982	655.957
337.402	24.906	838.870	655.868
338.416	25.325	838.950	657.405
339.431	25.217	838.839	656.867
340.446	24.943	838.491	655.532
341.460	25.486	838.283	657.297
342.475	25.406	837.483	656.320
343.489	25.488	836.619	655.884
344.504	25.888	836.035	656.827
345.519	25.621	836.656	656.282
346.533	25.504	835.512	654.902
347.548	25.402	833.995	653.283
348.562	25.186	833.407	651.981
349.577	25.013	832.888	650.888
350.592	24.952	832.902	650.620
351.606	24.694	831.551	648.569
352.621	24.959	830.240	648.449
353.635	24.912	830.233	648.217
354.650	24.836	829.229	647.102
355.665	24.464	828.794	645.361
356.679	24.887	829.236	647.175
357.694	25.098	828.095	646.989
358.708	24.963	826.856	645.479
359.723	24.803	826.639	644.674
360.738	24.659	825.927	643.546
361.752	24.698	826.104	643.766
362.767	25.091	826.306	645.281
363.781	25.643	825.191	646.338
364.796	25.803	824.441	646.267
365.810	25.678	824.189	645.563
366.825	25.574	824.811	645.622
367.840	25.746	822.938	644.714
368.854	25.308	822.471	642.724
369.869	25.168	822.361	642.080
370.883	25.271	821.138	641.436
371.898	25.356	821.613	642.055
372.913	25.647	821.497	642.945
373.927	25.047	820.810	640.209
374.942	25.207	819.755	639.900
375.956	24.964	820.823	639.809
376.971	25.478	819.248	640.358
377.986	25.773	818.818	641.013
379.000	25.473	818.614	639.729
380.015	26.066	817.235	640.704
381.029	25.894	817.289	640.076
382.044	25.866	816.270	639.125
383.059	26.244	815.568	639.858
384.073	25.556	814.828	636.783
385.088	25.275	814.649	635.592
386.102	24.916	813.426	633.312
387.117	25.178	812.388	633.376
388.132	24.796	812.787	632.279
389.146	24.682	812.376	631.499
390.161	25.293	811.554	632.960
391.175	25.643	810.977	633.690
392.190	25.422	810.875	632.774
393.205	24.925	810.319	630.533
394.219	24.347	809.430	627.754
395.234	24.763	808.571	628.492
396.248	24.730	808.474	628.247
397.263	25.013	808.194	628.967
398.278	24.647	808.106	627.558
399.292	24.377	806.615	625.399
400.307	24.384	806.500	625.277
401.321	24.423	805.967	624.948
402.336	24.857	805.706	626.206
403.350	25.489	805.835	628.463
404.365	25.846	805.809	629.635
405.380	25.955	805.638	629.828
406.394	25.689	805.597	628.809
407.409	26.310	804.626	630.161
408.423	26.466	804.011	630.168
409.438	26.235	803.052	628.556
410.453	25.862	803.473	627.532
411.467	25.901	802.511	626.861
412.482	26.096	802.274	627.298
413.496	26.019	802.026	626.782
414.511	26.010	801.426	626.227
415.526	25.899	800.620	625.156
416.540	25.908	800.162	624.774
417.555	26.080	800.001	625.187
418.569	25.959	799.783	624.545
419.584	25.887	798.930	623.572
420.599	25.942	799.029	623.785
421.613	161.036	1370.823	1793.100
422.628	139.777	1454.082	1793.162
