DTS Sentinel unit serial number:	SN413079Multiplexer serial number:	ORYXHardware model number:	OX4-SRSoftware version number:	ORYX F/W v4.00 Oryx Data Collector v3.7.2.0data status	okinstallation	princeton_trtdifferential loss correction	single-endedforward channel	channel 1reverse channel	N/Adate	2019/09/15time	16:30:35forward acquisition time	60.00reverse acquisition time	0.00gamma	496.2192k internal	0.2292k external	0.2292temperature offset calibration	0.9931default loss term (dB/km)	0.3790temperature slope calibration	1.0000multiplexer offset coefficient	1.0000multiplexer slope coefficient	1.0000fibre end	0.00T internal ref (°C)	43.91T ext. ref 1 (°C)	5.59T ext. ref 2 (°C)	40.59length (m)	temperature (°C)	Stokes	anti-Stokes-747.200	254.723	-0.104	0.183
-746.185	800.000	0.027	0.081
-745.171	-62.066	-0.120	0.051
-744.156	149.542	0.103	-0.143
-743.142	93.248	0.095	0.109
-742.127	160.629	-0.126	0.180
-741.112	-31.810	-0.291	0.167
-740.098	-17.383	0.315	0.203
-739.083	-200.000	0.045	0.350
-738.069	-146.379	-0.087	0.008
-737.054	123.350	0.120	-0.154
-736.039	37.307	-0.129	-0.117
-735.025	-200.000	0.009	-0.106
-734.010	285.276	-0.081	0.149
-732.996	-20.555	-0.182	-0.115
-731.981	19.279	-0.101	0.083
-730.966	-14.684	-0.168	0.110
-729.952	539.913	-0.187	-0.456
-728.937	18.802	-0.101	-0.083
-727.923	97.524	-0.298	-0.350
-726.908	-99.381	0.080	-0.021
-725.894	191.528	0.398	-0.612
-724.879	-86.112	0.121	0.038
-723.864	1.420	-0.316	0.232
-722.850	66.717	0.091	-0.095
-721.835	782.707	0.054	0.150
-720.821	190.704	-0.217	-0.334
-719.806	-193.207	0.507	-0.005
-718.791	61.565	0.158	0.161
-717.777	-70.792	0.151	-0.058
-716.762	92.807	0.085	0.098
-715.748	232.840	0.080	-0.134
-714.733	-147.224	0.107	0.009
-713.718	-200.000	-0.021	-0.096
-712.704	186.438	-0.168	-0.256
-711.689	800.000	0.025	0.087
-710.675	800.000	-0.020	0.058
-709.660	-24.700	-0.148	-0.090
-708.645	-59.622	-0.052	0.023
-707.631	-200.000	0.051	-0.299
-706.616	129.445	0.136	-0.177
-705.602	39.354	-0.086	-0.079
-704.587	-135.066	-0.152	-0.019
-703.572	-200.000	-0.011	-0.079
-702.558	610.273	0.068	0.174
-701.543	365.789	0.077	0.158
-700.529	-151.298	0.434	-0.033
-699.514	174.518	0.151	-0.224
-698.499	-41.266	-0.144	0.076
-697.485	-107.144	-0.210	-0.047
-696.470	-55.455	-0.383	0.175
-695.456	109.677	-0.082	-0.101
-694.441	-105.877	-0.183	0.042
-693.426	800.000	0.023	0.065
-692.412	-200.000	-0.002	0.054
-691.397	-56.150	0.118	-0.054
-690.383	6.130	0.219	0.166
-689.368	313.750	-0.061	0.117
-688.354	44.667	0.124	-0.117
-687.339	800.000	-0.114	-0.322
-686.324	-200.000	0.065	0.337
-685.310	379.255	-0.016	0.033
-684.295	-16.440	-0.299	0.193
-683.281	21.518	0.240	0.200
-682.266	115.006	-0.074	0.093
-681.251	-200.000	-0.050	-0.347
-680.237	382.340	-0.222	-0.466
-679.222	-128.948	0.283	0.041
-678.208	219.519	0.025	-0.041
-677.193	-85.183	-0.076	0.024
-676.178	-86.579	0.059	-0.019
-675.164	-29.953	-0.294	-0.171
-674.149	61.668	-0.043	-0.044
-673.135	723.120	-0.089	-0.242
-672.120	-91.896	-0.084	-0.024
-671.105	-2.154	-0.273	-0.195
-670.091	-102.961	-0.470	0.114
-669.076	-110.310	-0.082	-0.017
-668.062	225.103	0.057	0.095
-667.047	88.269	0.177	-0.200
-666.032	-100.217	0.212	-0.054
-665.018	-107.025	0.268	0.060
-664.003	168.052	0.045	-0.066
-662.989	-110.071	0.129	-0.027
-661.974	-88.916	0.119	0.036
-660.959	-96.739	-0.153	0.041
-659.945	8.637	-0.147	-0.113
-658.930	-41.387	0.181	0.095
-657.916	-168.918	0.104	0.004
-656.901	-52.149	-0.270	-0.128
-655.886	-135.591	0.155	0.019
-654.872	99.487	-0.113	0.133
-653.857	94.030	-0.326	0.377
-652.843	-109.035	0.110	0.024
-651.828	19.510	-0.133	0.109
-650.814	-101.513	0.287	0.071
-649.799	-143.078	0.060	0.006
-648.784	3.212	0.394	-0.292
-647.770	-34.873	0.309	0.172
-646.755	-119.806	-0.255	-0.045
-645.741	213.616	-0.112	0.180
-644.726	-10.362	0.021	-0.014
-643.711	-130.123	-0.099	0.014
-642.697	328.414	0.103	0.202
-641.682	-188.028	-0.274	-0.004
-640.668	-113.475	-0.116	0.023
-639.653	310.083	0.034	0.064
-638.638	-200.000	-0.009	-0.231
-637.624	-20.886	-0.217	0.135
-636.609	43.969	0.251	0.234
-635.595	-18.403	0.128	-0.082
-634.580	51.054	-0.066	0.064
-633.565	-119.067	0.183	-0.033
-632.551	-67.823	0.172	0.068
-631.536	-99.313	0.182	-0.047
-630.522	160.802	0.053	-0.075
-629.507	-58.233	-0.266	0.118
-628.492	-153.914	0.297	0.021
-627.478	629.637	0.089	0.229
-626.463	-17.314	0.109	0.070
-625.449	-200.000	-0.028	0.379
-624.434	55.655	-0.023	0.023
-623.419	-200.000	0.040	0.248
-622.405	526.585	-0.146	-0.350
-621.390	-200.000	0.006	0.076
-620.376	-82.547	-0.160	-0.053
-619.361	61.596	-0.073	-0.074
-618.346	336.485	0.025	-0.049
-617.332	-153.697	0.289	-0.020
-616.317	-95.729	0.314	0.085
-615.303	-128.838	-0.517	-0.074
-614.288	96.075	-0.061	0.071
-613.273	800.000	0.081	-0.294
-612.259	-161.036	-0.430	-0.023
-611.244	-91.858	-0.179	0.052
-610.230	-200.000	0.041	-0.289
-609.215	-59.624	-0.165	-0.072
-608.201	-200.000	-0.014	-0.334
-607.186	-112.710	0.240	0.049
-606.171	-130.827	0.396	0.054
-605.157	-59.933	-0.152	-0.066
-604.142	261.843	-0.193	-0.340
-603.128	-72.355	0.295	0.111
-602.113	-168.765	-0.159	0.006
-601.098	-26.283	-0.193	-0.115
-600.084	-65.201	0.248	-0.102
-599.069	800.000	0.086	0.252
-598.055	-100.122	-0.200	-0.051
-597.040	-200.000	-0.009	0.059
-596.025	-82.250	-0.193	-0.064
-595.011	390.191	0.107	-0.226
-593.996	27.863	-0.102	-0.088
-592.982	152.297	-0.186	-0.258
-591.967	463.709	0.074	0.169
-590.952	104.442	0.100	-0.120
-589.938	-71.049	0.095	0.036
-588.923	135.333	-0.069	-0.092
-587.909	-37.805	-0.282	-0.152
-586.894	-98.405	-0.156	0.041
-585.879	163.370	-0.095	0.135
-584.865	76.959	0.175	0.189
-583.850	10.489	-0.006	-0.004
-582.836	-200.000	-0.039	-0.219
-581.821	-200.000	0.016	0.345
-580.806	-200.000	-0.168	0.000
-579.792	185.476	-0.073	-0.111
-578.777	80.151	-0.010	0.010
-577.763	-64.480	-0.247	-0.102
-576.748	111.985	0.206	-0.253
-575.733	-200.000	0.012	-0.108
-574.719	-200.000	0.015	0.075
-573.704	-76.988	0.271	0.096
-572.690	-62.653	-0.151	0.064
-571.675	-96.636	0.111	-0.030
-570.661	-184.788	0.199	0.003
-569.646	-58.327	0.212	0.094
-568.631	-26.618	0.123	0.073
-567.617	-109.311	-0.216	0.047
-566.602	264.376	0.174	-0.307
-565.588	-200.000	0.005	0.149
-564.573	-200.000	-0.019	-0.232
-563.558	-200.000	0.048	-0.303
-562.544	388.646	-0.175	0.368
-561.529	-200.000	-0.008	-0.197
-560.515	-200.000	-0.007	-0.114
-559.500	223.317	0.128	-0.210
-558.485	362.379	0.074	-0.151
-557.471	745.587	-0.037	-0.102
-556.456	-200.000	-0.063	-0.302
-555.442	-128.686	0.104	-0.015
-554.427	-63.490	-0.385	-0.161
-553.412	-99.310	0.346	0.089
-552.398	19.030	-0.256	-0.209
-551.383	213.019	0.167	0.268
-550.369	-30.914	0.328	0.188
-549.354	101.357	0.179	0.211
-548.339	62.301	-0.022	0.023
-547.325	-200.000	-0.031	-0.216
-546.310	-118.442	-0.191	-0.034
-545.296	234.506	-0.298	-0.498
-544.281	-141.852	0.197	-0.020
-543.266	-71.400	0.148	-0.056
-542.252	-21.252	-0.085	0.053
-541.237	800.000	0.052	-0.210
-540.223	-120.470	-0.285	-0.049
-539.208	-26.678	-0.153	-0.091
-538.193	227.719	-0.123	0.203
-537.179	131.792	0.349	-0.456
-536.164	173.648	0.179	-0.262
-535.150	-200.000	-0.041	0.363
-534.135	15.273	0.113	-0.090
-533.121	47.989	-0.209	-0.198
-532.106	-200.000	-0.009	0.204
-531.091	-83.991	-0.212	0.069
-530.077	-89.476	0.047	-0.014
-529.062	-90.202	0.181	0.053
-528.048	479.801	0.166	0.382
-527.033	-200.000	0.011	0.300
-526.018	800.000	-0.041	-0.116
-525.004	102.719	-0.299	-0.355
-523.989	-17.036	-0.067	-0.043
-522.975	31.128	0.116	0.101
-521.960	645.845	0.103	-0.266
-520.945	16.031	0.161	-0.129
-519.931	342.398	0.040	0.079
-518.916	12.508	-0.149	0.116
-517.902	-185.769	-0.579	-0.009
-516.887	-15.518	-0.096	0.062
-515.872	44.324	0.209	-0.195
-514.858	-67.861	0.078	0.031
-513.843	-115.084	-0.289	-0.056
-512.829	-76.310	-0.303	0.108
-511.814	-200.000	0.039	0.270
-510.799	-169.667	0.134	0.005
-509.785	-200.000	-0.005	0.079
-508.770	-200.000	0.055	-0.454
-507.756	136.416	0.284	0.375
-506.741	-200.000	-0.023	0.375
-505.726	8.655	0.140	0.107
-504.712	183.583	0.053	-0.080
-503.697	98.470	-0.050	-0.058
-502.683	503.862	0.137	-0.321
-501.668	-53.885	-0.276	0.128
-500.653	266.858	0.087	0.155
-499.639	170.941	-0.050	0.072
-498.624	9.573	-0.048	0.037
-497.610	800.000	0.030	0.103
-496.595	8.708	0.299	0.228
-495.581	-117.754	0.234	-0.043
-494.566	-200.000	0.003	0.139
-493.551	13.588	-0.124	-0.098
-492.537	-138.109	0.031	0.003
-491.522	-200.000	0.006	-0.049
-490.508	523.847	0.108	-0.257
-489.493	117.050	-0.177	-0.221
-488.478	-137.674	-0.733	0.084
-487.464	800.000	0.061	0.187
-486.449	-200.000	0.015	0.158
-485.435	800.000	0.087	0.250
-484.420	-47.482	-0.135	0.067
-483.405	-200.000	-0.013	-0.083
-482.391	205.626	-0.062	0.098
-481.376	11.939	-0.137	0.107
-480.362	800.000	-0.098	-0.341
-479.347	5.957	0.145	-0.109
-478.332	-78.852	0.132	-0.046
-477.318	33.767	0.232	-0.204
-476.303	800.000	-0.045	0.160
-475.289	-23.716	0.138	-0.084
-474.274	492.568	0.020	-0.047
-473.259	-5.761	-0.080	0.056
-472.245	-200.000	-0.019	-0.233
-471.230	800.000	-0.014	-0.053
-470.216	-65.979	0.226	-0.091
-469.201	54.923	-0.141	-0.138
-468.186	-200.000	-0.009	-0.109
-467.172	-200.000	-0.051	-0.526
-466.157	-120.570	-0.278	-0.048
-465.143	-115.346	-0.147	0.028
-464.128	-44.182	-0.250	-0.127
-463.113	-43.251	0.338	0.173
-462.099	-33.505	0.147	-0.082
-461.084	261.386	0.036	-0.064
-460.070	-74.694	0.202	0.073
-459.055	786.751	-0.012	-0.034
-458.040	326.653	-0.040	-0.078
-457.026	498.389	-0.131	-0.305
-456.011	-131.281	0.217	0.029
-454.997	224.920	0.152	0.249
-453.982	469.666	0.078	-0.178
-452.968	800.000	-0.091	0.292
-451.953	-40.544	0.327	-0.172
-450.938	-47.835	-0.159	0.078
-449.924	-193.359	0.148	-0.001
-448.909	112.434	-0.207	0.254
-447.895	-200.000	-0.032	0.147
-446.880	-129.987	0.310	0.043
-445.865	-200.000	0.015	0.168
-444.851	31.927	-0.275	-0.240
-443.836	124.937	-0.164	-0.209
-442.822	718.648	0.063	-0.169
-441.807	-197.210	-0.088	-0.001
-440.792	496.602	0.063	-0.147
-439.778	-58.316	0.142	-0.063
-438.763	11.366	0.222	0.172
-437.749	214.396	-0.074	0.118
-436.734	449.234	-0.079	0.175
-435.719	800.000	-0.181	-0.609
-434.705	295.092	0.071	-0.131
-433.690	313.419	-0.048	0.092
-432.676	-60.004	-0.097	-0.042
-431.661	-200.000	-0.009	-0.204
-430.646	-200.000	-0.026	0.161
-429.632	7.024	-0.031	0.024
-428.617	-81.088	-0.376	-0.126
-427.603	800.000	-0.056	0.156
-426.588	-200.000	-0.000	0.152
-425.573	-200.000	-0.018	0.205
-424.559	19.014	0.063	-0.051
-423.544	-200.000	0.049	0.326
-422.530	180.400	0.261	-0.387
-421.515	800.000	0.027	0.088
-420.500	-163.084	0.132	-0.006
-419.486	238.957	-0.137	0.230
-418.471	-200.000	0.004	-0.107
-417.457	-200.000	0.027	0.253
-416.442	152.271	0.025	-0.035
-415.428	361.946	-0.141	-0.286
-414.413	-84.240	-0.186	-0.060
-413.398	-0.219	0.147	-0.105
-412.384	131.921	0.115	-0.149
-411.369	3.154	0.249	-0.183
-410.355	-200.000	-0.054	0.339
-409.340	-42.760	-0.186	0.096
-408.325	155.364	0.121	-0.169
-407.311	-200.000	0.006	0.116
-406.296	-61.283	-0.286	-0.122
-405.282	-53.410	-0.277	0.128
-404.267	-6.841	0.115	0.079
-403.252	-93.094	-0.168	-0.047
-402.238	-200.000	-0.019	0.157
-401.223	800.000	-0.034	-0.107
-400.209	30.825	0.064	-0.055
-399.194	-14.484	0.390	0.254
-398.179	-200.000	-0.004	-0.080
-397.165	63.524	-0.179	0.182
-396.150	-154.598	0.196	0.013
-395.136	102.895	-0.155	0.184
-394.121	-200.000	0.023	0.187
-393.106	800.000	-0.023	-0.101
-392.092	-200.000	0.006	-0.064
-391.077	-36.472	-0.014	-0.008
-390.063	94.252	-0.227	0.260
-389.048	109.101	-0.169	0.204
-388.033	400.244	0.174	-0.368
-387.019	21.300	0.119	-0.098
-386.004	-99.691	0.346	0.088
-384.990	363.693	-0.056	0.113
-383.975	-179.167	-0.084	0.002
-382.960	26.032	0.104	-0.088
-381.946	-156.183	-0.185	-0.012
-380.931	-200.000	-0.025	0.229
-379.917	36.920	0.121	0.108
-378.902	273.375	-0.233	0.416
-377.888	127.446	0.137	0.175
-376.873	474.754	0.118	-0.269
-375.858	59.796	-0.296	-0.295
-374.844	-16.598	0.313	-0.200
-373.829	95.296	0.033	-0.038
-372.815	-48.002	0.197	0.096
-371.800	303.595	-0.101	0.188
-370.785	444.597	-0.158	0.350
-369.771	-131.987	-0.133	0.017
-368.756	-200.000	0.052	0.315
-367.742	499.840	-0.141	0.328
-366.727	80.790	0.272	0.296
-365.712	-20.904	-0.183	-0.113
-364.698	144.076	-0.172	-0.231
-363.683	-41.196	-0.055	-0.029
-362.669	117.279	-0.142	0.177
-361.654	156.722	-0.082	0.114
-360.639	42.537	-0.090	0.082
-359.625	56.675	0.108	0.106
-358.610	22.327	-0.191	0.157
-357.596	-200.000	0.002	-0.141
-356.581	100.584	0.157	-0.184
-355.566	315.054	-0.156	-0.296
-354.552	-51.805	0.112	0.053
-353.537	158.632	0.152	0.213
-352.523	133.744	-0.231	-0.302
-351.508	29.468	0.073	-0.062
-350.493	113.187	0.108	0.132
-349.479	800.000	0.061	-0.215
-348.464	800.000	-0.036	0.111
-347.450	23.884	0.215	-0.178
-346.435	-200.000	0.006	-0.297
-345.420	-200.000	0.001	-0.181
-344.406	-60.979	-0.303	-0.129
-343.391	164.070	0.139	-0.197
-342.377	598.225	0.089	0.222
-341.362	-200.000	0.006	0.220
-340.348	445.083	0.043	-0.095
-339.333	-200.000	0.027	0.498
-338.318	800.000	-0.114	0.386
-337.304	-166.504	0.179	0.008
-336.289	612.756	0.095	0.239
-335.275	800.000	-0.069	-0.230
-334.260	-133.394	-0.255	0.032
-333.245	-41.816	0.407	0.210
-332.231	-200.000	0.027	-0.121
-331.216	193.531	0.074	-0.112
-330.202	-44.728	-0.090	0.045
-329.187	528.999	0.095	0.226
-328.172	-51.865	0.343	0.161
-327.158	41.380	0.082	-0.074
-326.143	-140.821	0.449	0.047
-325.129	-200.000	0.022	-0.176
-324.114	-200.000	0.084	-0.457
-323.099	247.536	0.126	-0.215
-322.085	614.359	0.108	-0.272
-321.070	-168.455	-0.105	-0.004
-320.056	-200.000	0.005	-0.036
-319.041	800.000	0.043	-0.166
-318.026	157.297	0.129	-0.179
-317.012	-30.192	-0.216	-0.124
-315.997	96.077	-0.038	-0.044
-314.983	-48.595	0.206	0.100
-313.968	800.000	0.049	0.188
-312.953	800.000	-0.031	0.090
-311.939	-39.268	-0.181	0.096
-310.924	-200.000	-0.064	0.449
-309.910	-100.951	0.235	-0.058
-308.895	-47.459	-0.083	-0.040
-307.880	114.068	0.186	-0.227
-306.866	741.244	0.051	0.138
-305.851	-133.690	-0.319	0.040
-304.837	82.600	-0.337	0.368
-303.822	800.000	-0.063	-0.247
-302.807	208.356	0.261	-0.410
-301.793	34.616	-0.230	0.203
-300.778	174.463	-0.090	-0.131
-299.764	516.468	0.079	-0.185
-298.749	800.000	0.065	-0.244
-297.735	-100.675	0.158	0.039
-296.720	6.297	-0.232	0.173
-295.705	73.552	-0.123	0.129
-294.691	-23.310	-0.209	0.126
-293.676	-144.834	0.143	-0.013
-292.662	-119.008	0.035	-0.006
-291.647	-8.601	-0.216	0.146
-290.632	0.122	0.096	-0.069
-289.618	253.719	0.159	0.274
-288.603	-14.538	0.268	0.173
-287.589	-200.000	0.012	-0.065
-286.574	-14.726	-0.258	-0.166
-285.559	61.290	-0.141	0.141
-284.545	698.067	-0.121	-0.320
-283.530	-66.498	0.337	0.134
-282.516	-200.000	-0.001	0.108
-281.501	58.280	0.311	0.307
-280.486	-200.000	0.004	0.504
-279.472	2.559	-0.230	0.167
-278.457	-17.290	-0.355	-0.225
-277.443	268.948	-0.146	-0.258
-276.428	-200.000	0.012	-0.058
-275.413	-51.869	0.134	0.062
-274.399	-68.385	-0.244	0.095
-273.384	-146.234	-0.184	0.016
-272.370	53.380	0.302	-0.291
-271.355	800.000	-0.047	-0.174
-270.340	408.961	0.117	0.249
-269.326	-48.040	0.305	-0.148
-268.311	371.458	0.104	0.213
-267.297	8.304	-0.316	0.239
-266.282	145.827	-0.114	0.154
-265.267	-200.000	0.019	0.149
-264.253	3.842	-0.211	-0.155
-263.238	-76.083	-0.164	0.058
-262.224	-15.184	0.224	-0.144
-261.209	68.850	-0.066	0.068
-260.195	-71.338	-0.226	0.085
-259.180	59.687	-0.194	0.192
-258.165	110.822	-0.216	0.261
-257.151	-200.000	-0.017	0.292
-256.136	-87.416	0.216	-0.066
-255.122	800.000	0.121	0.448
-254.107	454.818	-0.043	0.096
-253.092	192.407	-0.059	-0.089
-252.078	118.018	-0.044	-0.054
-251.063	-110.596	0.161	0.033
-250.049	-0.182	0.170	-0.121
-249.034	-0.520	-0.145	0.103
-248.019	67.493	0.077	-0.079
-247.005	-105.286	0.128	0.029
-245.990	103.129	0.121	0.142
-244.976	-18.704	-0.291	-0.182
-243.961	-200.000	-0.012	0.079
-242.946	-155.183	-0.091	0.006
-241.932	98.797	0.171	-0.198
-240.917	-200.000	0.007	0.162
-239.903	81.507	-0.281	0.305
-238.888	744.784	-0.072	0.194
-237.873	-200.000	-0.016	-0.216
-236.859	-130.412	0.079	-0.011
-235.844	-200.000	-0.106	0.482
-234.830	132.524	0.084	-0.109
-233.815	-49.635	-0.086	0.041
-232.800	-123.500	-0.241	0.038
-231.786	-200.000	0.032	-0.147
-230.771	800.000	-0.022	-0.068
-229.757	-149.967	-0.292	-0.023
-228.742	800.000	0.092	-0.394
-227.727	11.152	0.209	0.160
-226.713	264.697	-0.110	0.193
-225.698	80.334	-0.230	0.248
-224.684	-173.871	-0.101	0.003
-223.669	-85.398	-0.152	0.047
-222.655	84.073	-0.277	0.303
-221.640	-86.743	0.077	-0.024
-220.625	264.075	-0.121	-0.211
-219.611	143.137	0.047	-0.062
-218.596	-34.610	-0.033	-0.018
-217.582	-151.072	-0.166	-0.013
-216.567	-41.341	-0.213	-0.110
-215.552	-19.093	0.041	-0.025
-214.538	390.569	-0.151	-0.315
-213.523	-128.138	0.103	-0.015
-212.509	-196.265	-0.433	0.003
-211.494	800.000	-0.091	-0.318
-210.479	800.000	-0.081	0.228
-209.465	101.716	0.152	0.177
-208.450	194.600	0.074	0.112
-207.436	338.968	0.130	0.254
-206.421	204.127	0.100	0.156
-205.406	-131.533	-0.207	0.027
-204.392	793.439	0.066	0.182
-203.377	-200.000	0.002	-0.064
-202.363	-200.000	0.140	-0.000
-201.348	86.131	0.067	0.074
-200.333	43.608	-0.242	0.221
-199.319	-128.751	-0.115	-0.016
-198.304	-200.000	-0.001	-0.085
-197.290	-190.411	0.350	0.004
-196.275	-170.466	0.381	-0.013
-195.260	-139.496	-0.142	-0.015
-194.246	-3.501	0.091	-0.064
-193.231	-53.496	0.283	-0.130
-192.217	-43.091	0.179	0.091
-191.202	701.249	-0.105	-0.276
-190.187	-200.000	-0.046	-0.298
-189.173	-53.732	0.206	-0.094
-188.158	800.000	-0.055	0.219
-187.144	-200.000	0.012	0.088
-186.129	-15.753	-0.128	-0.082
-185.114	-141.483	0.381	-0.039
-184.100	84.839	0.061	-0.067
-183.085	-120.044	0.161	-0.028
-182.071	800.000	-0.063	0.203
-181.056	81.229	0.317	-0.343
-180.042	-49.638	-0.069	0.033
-179.027	23.561	-0.207	-0.171
-178.012	-76.664	-0.099	0.035
-176.998	-89.640	-0.118	-0.035
-175.983	-139.141	0.111	0.012
-174.969	800.000	0.077	-0.222
-173.954	-46.222	0.308	0.152
-172.939	20.596	0.067	-0.054
-171.925	447.020	0.195	-0.430
-170.910	-147.793	0.136	0.011
-169.896	-42.289	0.147	-0.075
-168.881	-200.000	-0.065	0.416
-167.866	-159.533	-0.305	0.017
-166.852	800.000	-0.149	0.482
-165.837	-53.362	0.435	-0.199
-164.823	336.106	0.067	-0.130
-163.808	-200.000	-0.006	-0.095
-162.793	68.571	-0.097	0.100
-161.779	-0.410	0.059	-0.042
-160.764	-105.102	-0.240	-0.055
-159.750	23.574	-0.165	0.136
-158.735	-200.000	0.044	0.198
-157.720	297.759	0.162	-0.298
-156.706	-200.000	-0.029	-0.301
-155.691	-120.553	0.295	-0.050
-154.677	-12.726	0.123	-0.080
-153.662	-140.698	-0.115	0.012
-152.647	-61.234	0.187	-0.079
-151.633	433.221	0.024	-0.051
-150.618	-43.358	0.256	-0.129
-149.604	-114.176	-0.132	0.026
-148.589	-111.523	0.108	0.022
-147.574	60.077	-0.239	0.236
-146.560	-127.097	-0.271	0.040
-145.545	-200.000	0.071	0.398
-144.531	356.882	0.029	-0.057
-143.516	5.480	-0.031	0.023
-142.502	800.000	-0.070	0.297
-141.487	-140.454	0.172	-0.018
-140.472	140.033	-0.171	0.225
-139.458	538.112	0.042	-0.100
-138.443	0.341	0.166	0.118
-137.429	148.831	-0.127	0.172
-136.414	404.627	-0.034	-0.071
-135.399	46.973	-0.141	0.131
-134.385	-200.000	0.004	-0.025
-133.370	677.332	0.054	-0.141
-132.356	291.231	-0.095	0.172
-131.341	-200.000	0.027	0.141
-130.326	207.374	-0.150	-0.233
-129.312	145.668	-0.299	-0.400
-128.297	455.589	0.115	-0.254
-127.283	-83.332	0.295	-0.095
-126.268	-115.750	-0.124	0.023
-125.253	683.549	0.107	0.279
-124.239	335.572	0.121	-0.235
-123.224	189.991	-0.190	0.284
-122.210	-143.857	0.207	0.020
-121.195	-200.000	0.000	0.020
-120.180	-65.591	-0.398	0.159
-119.166	800.000	0.031	-0.100
-118.151	-152.430	0.053	0.004
-117.137	228.049	-0.022	-0.036
-116.122	-33.107	0.090	0.050
-115.107	800.000	0.037	-0.121
-114.093	-128.828	0.176	0.025
-113.078	-39.302	0.143	0.075
-112.064	-87.119	0.400	0.121
-111.049	-156.828	0.034	0.002
-110.034	-200.000	0.014	0.098
-109.020	98.960	0.058	-0.067
-108.005	800.000	0.033	-0.111
-106.991	-93.969	-0.376	-0.103
-105.976	-200.000	-0.043	0.361
-104.962	-83.814	0.128	0.041
-103.947	219.656	-0.038	-0.060
-102.932	132.298	-0.180	0.232
-101.918	-99.606	0.415	-0.104
-100.903	800.000	-0.100	-0.297
-99.889	-200.000	-0.011	-0.053
-98.874	117.594	0.104	-0.128
-97.859	-32.008	-0.108	-0.060
-96.845	153.587	0.113	-0.154
-95.830	-200.000	-0.023	-0.155
-94.816	-161.931	0.011	-0.001
-93.801	-200.000	-0.029	-0.240
-92.786	800.000	-0.020	0.069
-91.772	343.951	0.047	0.092
-90.757	-62.187	0.105	0.043
-89.743	-96.356	-0.351	-0.093
-88.728	-13.627	0.324	-0.209
-87.713	-39.023	0.182	0.095
-86.699	-199.349	0.287	0.002
-85.684	196.876	0.127	0.194
-84.670	-1.492	-0.369	0.260
-83.655	-28.897	-0.098	0.056
-82.640	2.515	0.176	0.127
-81.626	800.000	-0.046	-0.160
-80.611	-200.000	-0.001	-0.029
-79.597	-47.775	-0.275	-0.133
-78.582	-106.324	-0.378	0.084
-77.567	-89.972	0.206	0.060
-76.553	22.645	0.163	-0.133
-75.538	27.388	0.291	0.244
-74.524	-104.484	0.464	0.107
-73.509	11.245	-0.307	0.234
-72.494	800.000	-0.050	0.138
-71.480	168.264	-0.099	0.140
-70.465	61.348	0.171	0.170
-69.451	-35.886	0.085	-0.046
-68.436	51.929	0.075	0.071
-67.422	151.253	0.074	-0.100
-66.407	434.540	-0.065	-0.140
-65.392	-35.874	-0.129	0.070
-64.378	800.000	0.114	-0.364
-63.363	-148.015	-0.208	-0.017
-62.349	-68.359	0.229	0.089
-61.334	67.584	-0.634	-0.645
-60.319	-200.000	0.465	-0.002
-59.305	-200.000	0.128	-0.595
-58.290	44.529	0.537	0.491
-57.276	-200.000	0.394	1.825
-56.261	-200.000	70.288	529.032
-55.246	591.347	1272.968	3129.866
-54.232	140.923	2531.019	3332.866
-53.217	122.055	2249.943	2797.884
-52.203	57.252	1689.300	1642.087
-51.188	48.319	1402.137	1307.185
-50.173	44.283	1353.896	1237.631
-49.159	62.182	1384.082	1375.268
-48.144	70.995	1403.385	1448.252
-47.130	48.448	1367.851	1275.810
-46.115	44.196	1351.202	1234.442
-45.100	43.779	1346.785	1227.831
-44.086	43.758	1344.373	1225.454
-43.071	43.745	1342.222	1223.367
-42.057	43.672	1339.620	1220.508
-41.042	43.634	1338.237	1218.972
-40.027	43.776	1336.029	1217.766
-39.013	43.851	1334.400	1216.680
-37.998	43.888	1332.280	1214.924
-36.984	43.855	1330.703	1213.239
-35.969	43.840	1329.269	1211.791
-34.954	43.908	1327.525	1210.561
-33.940	43.908	1326.301	1209.397
-32.925	43.908	1324.707	1207.896
-31.911	44.012	1323.046	1206.953
-30.896	43.982	1321.450	1205.268
-29.881	43.971	1319.980	1203.815
-28.867	44.004	1318.100	1202.248
-27.852	44.186	1316.169	1201.517
-26.838	44.060	1315.323	1199.954
-25.823	43.991	1313.869	1198.170
-24.809	44.039	1312.400	1197.066
-23.794	44.067	1310.917	1195.831
-22.779	44.019	1309.816	1194.497
-21.765	44.061	1308.191	1193.218
-20.750	43.956	1307.358	1191.792
-19.736	43.898	1305.833	1190.014
-18.721	43.806	1304.727	1188.421
-17.706	43.894	1303.628	1187.886
-16.692	43.890	1302.481	1186.773
-15.677	43.879	1301.035	1185.338
-14.663	43.772	1300.548	1184.223
-13.648	43.811	1298.869	1182.876
-12.633	43.790	1298.282	1182.170
-11.619	43.813	1297.380	1181.438
-10.604	43.860	1296.460	1180.830
-9.590	43.782	1295.631	1179.570
-8.575	43.757	1294.518	1178.368
-7.560	43.864	1292.959	1177.524
-6.546	43.920	1292.186	1177.097
-5.531	43.822	1291.841	1176.167
-4.517	43.797	1290.683	1174.919
-3.502	43.916	1289.699	1174.671
-2.487	43.804	1288.867	1173.215
-1.473	43.957	1285.329	1170.831
-0.458	43.288	1270.759	1153.691
0.556	37.479	1250.245	1111.556
1.571	32.569	1251.767	1084.619
2.586	30.531	1265.029	1084.143
3.600	28.616	1254.162	1063.648
4.615	22.002	1178.776	963.461
5.629	11.339	1096.749	841.598
6.644	6.041	1071.675	795.511
7.659	5.590	1068.273	790.637
8.673	5.319	1067.520	788.645
9.688	5.392	1065.817	787.686
10.702	5.861	1064.671	789.129
11.717	11.750	1073.617	825.485
12.731	19.251	1084.398	871.793
13.746	19.734	1083.752	873.639
14.761	17.459	1079.741	858.859
15.775	16.260	1077.753	851.160
16.790	15.126	1075.800	843.833
17.804	14.513	1073.787	839.097
18.819	14.071	1072.484	835.782
19.834	13.707	1071.790	833.339
20.848	13.399	1070.964	831.074
21.863	13.346	1069.721	829.772
22.877	13.268	1068.807	828.598
23.892	13.009	1068.693	827.136
24.907	13.187	1067.501	827.035
25.921	13.164	1066.663	826.198
26.936	13.195	1065.269	825.196
27.950	13.187	1063.931	824.049
28.965	13.312	1062.599	823.568
29.980	13.440	1060.486	822.494
30.994	13.426	1059.714	821.754
32.009	13.377	1058.803	820.729
33.023	13.313	1057.802	819.564
34.038	13.298	1056.431	818.358
35.053	13.366	1055.320	817.761
36.067	13.250	1054.850	816.746
37.082	13.242	1053.997	815.977
38.096	13.361	1052.925	815.663
39.111	13.317	1052.351	814.928
40.126	13.223	1051.309	813.584
41.140	13.119	1049.956	811.955
42.155	13.144	1048.374	810.781
43.169	13.054	1047.518	809.606
44.184	13.071	1046.524	808.850
45.199	13.137	1045.453	808.276
46.213	13.131	1044.247	807.241
47.228	13.108	1043.017	806.105
48.242	13.169	1042.010	805.555
49.257	13.220	1041.020	804.967
50.271	13.284	1039.945	804.373
51.286	13.304	1039.399	803.979
52.301	13.269	1037.982	802.640
53.315	13.089	1037.271	801.150
54.330	13.155	1035.980	800.399
55.344	13.229	1035.084	799.995
56.359	13.114	1034.567	798.967
57.374	13.224	1033.181	798.358
58.388	13.017	1032.455	796.729
59.403	13.050	1031.731	796.259
60.417	13.138	1030.951	796.010
61.432	13.126	1029.822	795.008
62.447	12.938	1029.599	793.863
63.461	12.952	1028.848	793.280
64.476	12.988	1027.420	792.283
65.490	13.004	1026.802	791.811
66.505	13.067	1026.550	791.851
67.520	13.059	1025.633	791.036
68.534	13.036	1024.956	790.333
69.549	13.007	1023.965	789.361
70.563	13.058	1022.894	788.709
71.578	13.017	1022.227	787.930
72.593	12.865	1021.999	786.956
73.607	12.872	1020.961	786.122
74.622	12.923	1019.996	785.553
75.636	12.868	1019.659	784.961
76.651	12.813	1018.926	784.066
77.666	12.905	1018.235	783.903
78.680	12.942	1017.241	783.245
79.695	13.024	1016.720	783.163
80.709	13.179	1015.933	783.219
81.724	13.069	1015.365	782.195
82.739	13.064	1015.185	781.961
83.753	13.286	1014.213	782.193
84.768	13.300	1013.089	781.322
85.782	13.390	1012.430	781.169
86.797	13.307	1011.526	780.011
87.812	13.208	1010.977	779.053
88.826	13.220	1009.459	777.872
89.841	13.290	1008.537	777.420
90.855	13.298	1007.584	776.656
91.870	13.281	1007.095	776.131
92.884	13.284	1006.473	775.597
93.899	13.454	1005.156	775.311
94.914	13.378	1004.630	774.478
95.928	13.415	1003.764	773.915
96.943	13.368	1002.789	772.877
97.957	13.301	1002.131	771.987
98.972	13.487	1000.912	771.849
99.987	13.507	999.971	771.147
101.001	13.459	998.907	770.034
102.016	13.462	998.114	769.371
103.030	13.314	997.867	768.424
104.045	13.305	997.309	767.884
105.060	13.371	995.957	767.080
106.074	13.172	995.214	765.517
107.089	13.100	994.294	764.408
108.103	13.141	993.090	763.606
109.118	13.218	991.899	762.978
110.133	13.111	991.126	761.825
111.147	13.196	989.861	761.177
112.162	13.118	989.260	760.286
113.176	13.239	988.266	760.013
114.191	13.140	988.077	759.345
115.206	13.234	987.144	758.992
116.220	13.284	986.345	758.538
117.235	13.211	985.498	757.486
118.249	13.325	984.142	756.898
119.264	13.243	983.650	756.078
120.279	13.148	982.958	755.043
121.293	13.126	982.377	754.430
122.308	12.979	981.480	753.003
123.322	13.217	980.377	753.177
124.337	13.153	979.217	751.927
125.352	13.199	978.054	751.176
126.366	13.115	977.437	750.255
127.381	13.227	976.014	749.606
128.395	13.149	975.643	748.901
129.410	13.105	974.419	747.696
130.424	13.326	973.514	747.932
131.439	13.273	972.540	746.880
132.454	13.385	971.940	746.857
133.468	13.418	970.976	746.200
134.483	13.413	970.323	745.608
135.497	13.474	969.333	745.060
136.512	13.486	968.450	744.368
137.527	13.385	967.736	743.298
138.541	13.487	966.771	742.950
139.556	13.425	966.559	742.443
140.570	13.478	965.861	742.079
141.585	13.523	965.014	741.565
142.600	13.510	963.867	740.559
143.614	13.662	962.926	740.450
144.629	13.655	962.372	739.927
145.643	13.670	961.207	739.031
146.658	13.578	960.269	737.836
147.673	13.356	959.566	736.241
148.687	13.424	958.608	735.745
149.702	13.340	957.647	734.571
150.716	13.299	957.213	733.987
151.731	13.397	956.222	733.597
152.746	13.439	955.502	733.168
153.760	13.560	954.843	733.131
154.775	13.432	954.180	731.991
155.789	13.558	953.682	732.101
156.804	13.532	953.177	731.537
157.819	13.511	952.723	731.029
158.833	13.555	951.986	730.594
159.848	13.651	950.803	730.042
160.862	13.468	950.323	728.804
161.877	13.545	948.837	727.938
162.892	13.331	948.047	726.330
163.906	13.416	947.089	725.905
164.921	13.336	946.651	725.151
165.935	13.405	945.726	724.684
166.950	13.511	944.757	724.338
167.964	13.505	944.019	723.685
168.979	13.420	943.023	722.483
169.994	13.517	941.895	721.978
171.008	13.532	941.352	721.564
172.023	13.607	940.566	721.225
173.037	13.663	939.988	720.962
174.052	13.673	939.169	720.314
175.067	13.522	938.675	719.213
176.081	13.563	937.884	718.725
177.096	13.475	937.558	718.027
178.110	13.469	937.245	717.699
179.125	13.687	936.272	717.834
180.140	13.532	935.750	716.701
181.154	13.663	935.570	717.067
182.169	13.825	934.612	716.967
183.183	13.777	934.237	716.410
184.198	13.687	933.427	715.334
185.213	13.770	932.482	714.905
186.227	13.821	932.196	714.844
187.242	13.936	931.382	714.650
188.256	13.948	930.738	714.144
189.271	13.937	929.797	713.312
190.286	13.862	928.764	712.135
191.300	13.494	928.594	710.363
192.315	13.342	927.806	709.045
193.329	13.457	927.212	709.024
194.344	13.672	926.480	709.320
195.359	13.818	926.064	709.563
196.373	13.840	925.614	709.251
197.388	13.953	924.655	708.935
198.402	13.957	924.465	708.742
199.417	14.061	924.090	708.834
200.432	14.147	923.248	708.494
201.446	14.104	922.975	708.036
202.461	14.083	922.541	707.552
203.475	14.048	922.126	707.024
204.490	13.896	921.509	705.843
205.504	13.901	920.685	705.169
206.519	13.941	919.370	704.271
207.534	14.086	918.703	704.312
208.548	14.008	917.915	703.314
209.563	13.976	917.460	702.768
210.577	14.180	916.856	703.105
211.592	14.160	916.290	702.525
212.607	14.383	914.878	702.318
213.621	14.183	914.489	701.114
214.636	14.125	913.829	700.303
215.650	14.258	913.059	700.212
216.665	14.189	912.645	699.542
217.680	14.332	911.864	699.483
218.694	14.425	910.814	699.006
219.709	14.366	910.439	698.410
220.723	14.322	909.719	697.609
221.738	14.424	908.832	697.294
222.753	14.199	908.486	696.027
223.767	14.317	907.851	695.969
224.782	14.428	907.083	695.785
225.796	14.459	906.634	695.508
226.811	14.517	905.994	695.199
227.826	14.549	904.929	694.454
228.840	14.391	904.308	693.254
229.855	14.429	903.571	692.788
230.869	14.359	902.930	691.942
231.884	14.269	902.227	690.969
232.899	14.299	901.563	690.527
233.913	14.231	901.118	689.843
234.928	14.404	899.856	689.530
235.942	14.211	899.786	688.617
236.957	14.236	899.029	688.082
237.972	14.304	898.485	687.886
238.986	14.409	897.343	687.380
240.001	14.425	897.003	687.127
241.015	14.487	896.404	686.863
242.030	14.521	895.869	686.533
243.045	14.428	895.361	685.700
244.059	14.457	894.639	685.206
245.074	14.574	894.160	685.256
246.088	14.642	893.251	684.779
247.103	14.646	892.740	684.345
248.117	14.637	892.163	683.805
249.132	14.747	892.169	684.199
250.147	14.928	890.968	683.958
251.161	14.822	890.638	683.209
252.176	14.967	890.162	683.376
253.190	14.885	889.244	682.275
254.205	14.852	889.086	681.959
255.220	14.883	888.133	681.297
256.234	14.834	887.745	680.737
257.249	14.885	886.637	680.038
258.263	15.071	885.860	680.136
259.278	15.073	884.962	679.393
260.293	14.947	884.680	678.606
261.307	15.054	884.121	678.551
262.322	15.081	883.590	678.193
263.336	15.224	882.756	678.071
264.351	15.053	882.355	677.011
265.366	15.108	881.633	676.619
266.380	15.112	881.063	676.140
267.395	15.231	880.019	675.759
268.409	15.156	879.599	675.074
269.424	15.086	878.543	673.922
270.439	15.086	878.116	673.536
271.453	15.233	877.022	673.228
272.468	15.084	876.840	672.428
273.482	15.237	876.241	672.524
274.497	15.088	875.758	671.495
275.512	15.255	874.962	671.496
276.526	15.105	874.697	670.630
277.541	15.224	873.864	670.408
278.555	15.172	873.523	669.880
279.570	15.288	873.186	670.026
280.585	15.439	872.235	669.840
281.599	15.309	871.552	668.740
282.614	15.247	870.754	667.818
283.628	15.161	870.558	667.266
284.643	15.293	869.698	667.076
285.657	15.330	868.991	666.621
286.672	15.296	868.336	665.925
287.687	15.282	867.828	665.421
288.701	15.348	867.305	665.220
289.716	15.333	866.173	664.237
290.730	15.400	865.888	664.224
291.745	15.488	865.456	664.183
292.760	15.542	864.700	663.755
293.774	15.365	864.417	662.782
294.789	15.556	863.710	662.934
295.803	15.496	863.020	662.109
296.818	15.450	861.925	661.027
297.833	15.458	861.361	660.568
298.847	15.453	861.039	660.245
299.862	15.461	860.281	659.635
300.876	15.631	859.625	659.743
301.891	15.721	859.293	659.782
302.906	15.706	858.586	659.121
303.920	15.762	858.221	659.005
304.935	15.723	857.870	658.523
305.949	15.804	856.814	657.972
306.964	15.808	855.908	657.231
307.979	15.497	856.147	656.142
308.993	15.714	855.220	656.221
310.008	15.843	854.398	656.034
311.022	15.794	853.819	655.341
312.037	15.795	853.519	655.057
313.052	15.764	852.836	654.355
314.066	15.730	852.184	653.665
315.081	15.681	851.734	653.071
316.095	15.630	851.230	652.428
317.110	15.687	850.733	652.213
318.125	15.660	850.213	651.649
319.139	15.685	849.612	651.229
320.154	15.717	849.260	651.027
321.168	15.779	848.653	650.740
322.183	15.818	847.795	650.176
323.197	15.797	847.484	649.798
324.212	15.875	846.941	649.625
325.227	15.878	846.524	649.260
326.241	15.804	845.868	648.418
327.256	15.807	845.196	647.853
328.270	15.669	845.027	647.135
329.285	15.841	844.300	647.183
330.300	15.850	843.569	646.601
331.314	15.983	842.815	646.474
332.329	15.938	842.717	646.170
333.343	16.037	842.292	646.167
334.358	15.984	841.685	645.444
335.373	16.011	841.422	645.286
336.387	16.109	841.048	645.320
337.402	16.006	841.178	644.967
338.416	15.974	840.653	644.383
339.431	16.121	840.083	644.450
340.446	16.188	839.617	644.294
341.460	16.159	839.166	643.781
342.475	16.178	838.931	643.614
343.489	16.261	838.389	643.460
344.504	16.304	837.620	642.976
345.519	16.371	837.629	643.181
346.533	16.431	836.957	642.835
347.548	16.284	836.335	641.741
348.562	16.146	835.836	640.778
349.577	16.186	835.189	640.377
350.592	16.259	834.569	640.123
351.606	16.159	833.763	639.067
352.621	16.290	833.217	639.088
353.635	16.187	832.663	638.217
354.650	16.349	831.755	638.080
355.665	16.381	831.306	637.796
356.679	16.390	830.744	637.344
357.694	16.373	830.004	636.656
358.708	16.380	829.332	636.108
359.723	16.409	829.000	635.908
360.738	16.377	828.332	635.220
361.752	16.340	828.127	634.866
362.767	16.516	827.283	634.825
363.781	16.536	826.813	634.482
364.796	16.644	826.534	634.619
365.810	16.784	825.824	634.542
366.825	16.813	825.354	634.232
367.840	16.713	825.247	633.719
368.854	16.678	824.535	632.986
369.869	16.513	824.101	631.982
370.883	16.584	823.626	631.823
371.898	16.782	823.091	632.098
372.913	16.850	822.624	631.938
373.927	16.704	822.620	631.333
374.942	16.640	822.048	630.599
375.956	16.940	821.560	631.288
376.971	16.793	821.414	630.571
377.986	16.777	821.132	630.241
379.000	17.022	820.497	630.607
380.015	16.948	819.804	629.745
381.029	16.981	818.897	629.116
382.044	17.006	818.664	628.972
383.059	17.005	817.803	628.253
384.073	16.888	817.668	627.660
385.088	16.759	817.355	626.885
386.102	16.836	816.415	626.392
387.117	16.821	815.564	625.631
388.132	16.964	815.007	625.674
389.146	16.904	814.442	624.965
390.161	16.999	813.975	624.899
391.175	17.046	813.707	624.814
392.190	16.923	813.154	623.878
393.205	17.092	812.610	624.030
394.219	16.998	812.075	623.217
395.234	16.875	812.162	622.777
396.248	16.906	811.813	622.570
397.263	16.896	810.911	621.785
398.278	16.869	810.757	621.511
399.292	16.961	810.230	621.393
400.307	16.868	809.906	620.746
401.321	16.863	809.461	620.331
402.336	16.858	809.339	620.168
403.350	17.015	808.761	620.242
404.365	17.172	808.220	620.346
405.380	17.240	807.564	620.035
406.394	17.131	807.309	619.387
407.409	17.406	806.771	619.920
408.423	17.379	806.338	619.437
409.438	17.337	806.267	619.175
410.453	17.387	805.494	618.705
411.467	17.333	805.082	618.139
412.482	17.411	804.591	617.992
413.496	17.474	804.491	618.087
414.511	17.464	804.274	617.829
415.526	17.343	803.844	617.007
416.540	17.374	803.246	616.607
417.555	17.600	802.644	616.909
418.569	17.678	802.016	616.651
419.584	17.418	801.832	615.516
420.599	17.509	801.406	615.461
421.613	79.136	1241.122	1284.779
422.628	67.018	1305.238	1284.911
