DTS Sentinel unit serial number:	SN413079Multiplexer serial number:	ORYXHardware model number:	OX4-SRSoftware version number:	ORYX F/W v4.00 Oryx Data Collector v3.7.2.0data status	okinstallation	princeton_trtdifferential loss correction	single-endedforward channel	channel 1reverse channel	N/Adate	2019/09/11time	16:12:11forward acquisition time	60.00reverse acquisition time	0.00gamma	496.2192k internal	0.2290k external	0.2290temperature offset calibration	0.9994default loss term (dB/km)	0.3790temperature slope calibration	1.0000multiplexer offset coefficient	1.0000multiplexer slope coefficient	1.0000fibre end	0.00T internal ref (°C)	43.30T ext. ref 1 (°C)	1.04T ext. ref 2 (°C)	39.65length (m)	temperature (°C)	Stokes	anti-Stokes-747.200	-146.325	0.072	0.006
-746.185	-141.060	-0.223	0.023
-745.171	109.446	-0.029	0.036
-744.156	-200.000	-0.071	0.361
-743.142	-47.840	-0.137	0.068
-742.127	-88.371	-0.210	-0.064
-741.112	244.956	-0.152	0.261
-740.098	-60.860	0.110	0.048
-739.083	-165.588	0.168	0.007
-738.069	-200.000	0.041	0.236
-737.054	-57.207	0.359	-0.162
-736.039	296.176	-0.080	-0.151
-735.025	-122.781	0.168	-0.028
-734.010	-86.697	-0.294	0.092
-732.996	-51.696	-0.138	0.066
-731.981	-83.341	0.115	-0.038
-730.966	13.450	-0.062	-0.049
-729.952	-21.921	-0.439	-0.273
-728.937	800.000	-0.050	-0.218
-727.923	268.661	-0.102	-0.183
-726.908	164.095	-0.120	0.173
-725.894	244.651	0.167	-0.287
-724.879	-145.697	-0.139	0.013
-723.864	38.756	-0.253	-0.231
-722.850	133.842	-0.268	-0.355
-721.835	-11.327	-0.251	0.169
-720.821	-50.536	0.177	0.085
-719.806	-108.771	-0.390	0.085
-718.791	800.000	-0.020	-0.059
-717.777	-200.000	0.010	-0.149
-716.762	8.141	-0.188	-0.144
-715.748	37.724	0.278	-0.253
-714.733	-11.486	0.022	-0.015
-713.718	756.477	-0.125	0.347
-712.704	165.270	-0.302	-0.437
-711.689	-61.664	0.084	0.036
-710.675	-84.756	0.168	-0.054
-709.660	274.137	-0.061	0.111
-708.645	-200.000	0.003	0.022
-707.631	-200.000	-0.016	0.093
-706.616	800.000	-0.047	-0.195
-705.602	-132.201	-0.154	0.020
-704.587	28.868	-0.116	0.101
-703.572	783.677	-0.099	-0.278
-702.558	-75.516	0.118	-0.043
-701.543	34.664	-0.149	-0.134
-700.529	-43.540	-0.345	0.178
-699.514	51.543	-0.036	-0.035
-698.499	501.765	0.127	0.301
-697.485	-200.000	0.105	-0.575
-696.470	-0.641	-0.275	0.200
-695.456	-200.000	-0.015	-0.587
-694.441	800.000	-0.080	-0.301
-693.426	51.435	0.242	-0.235
-692.412	-200.000	-0.077	-0.434
-691.397	-55.422	-0.116	-0.053
-690.383	150.999	0.103	-0.144
-689.368	504.981	0.088	-0.209
-688.354	66.522	-0.142	0.148
-687.339	-200.000	0.019	-0.159
-686.324	13.073	0.150	0.118
-685.310	64.466	-0.190	-0.196
-684.295	800.000	0.016	-0.069
-683.281	37.618	0.045	-0.041
-682.266	139.709	-0.226	0.304
-681.251	-38.313	0.311	0.168
-680.237	379.915	-0.095	-0.198
-679.222	-65.065	-0.232	0.096
-678.208	-67.113	-0.264	0.106
-677.193	50.280	0.210	-0.203
-676.178	-40.948	-0.209	-0.110
-675.164	-42.834	-0.075	0.039
-674.149	800.000	0.044	0.161
-673.135	-200.000	-0.016	-0.083
-672.120	800.000	-0.065	0.249
-671.105	-68.778	0.055	-0.022
-670.091	-4.782	0.215	0.152
-669.076	462.642	-0.181	0.412
-668.062	53.574	0.151	-0.148
-667.047	65.346	0.188	-0.194
-666.032	-129.262	-0.254	0.036
-665.018	800.000	0.146	-0.451
-664.003	-200.000	0.003	-0.168
-662.989	356.838	-0.069	0.141
-661.974	-50.576	0.184	0.089
-660.959	121.246	-0.116	0.147
-659.945	683.990	0.093	-0.249
-658.930	-127.104	-0.265	0.040
-657.916	67.370	0.138	-0.143
-656.901	2.778	0.191	-0.142
-655.886	237.783	0.179	-0.302
-654.872	-136.868	-0.208	0.024
-653.857	-108.033	-0.042	-0.009
-652.843	473.884	-0.208	0.479
-651.828	800.000	-0.032	-0.101
-650.814	800.000	0.053	0.206
-649.799	117.430	0.136	0.171
-648.784	-4.603	0.056	0.039
-647.770	-46.486	0.056	0.028
-646.755	-131.933	-0.077	-0.010
-645.741	-54.548	-0.134	-0.062
-644.726	-66.124	0.117	0.048
-643.711	266.212	-0.122	-0.217
-642.697	107.758	0.076	0.092
-641.682	-52.387	0.176	-0.083
-640.668	325.871	0.094	0.184
-639.653	17.740	0.248	0.202
-638.638	-167.034	-0.271	0.011
-637.624	276.187	0.069	0.125
-636.609	653.628	-0.032	0.083
-635.595	266.399	0.200	-0.357
-634.580	346.790	0.201	-0.404
-633.565	64.005	0.106	0.108
-632.551	-109.397	0.036	0.008
-631.536	-200.000	-0.017	-0.145
-630.522	-103.359	0.324	0.078
-629.507	-98.212	-0.155	-0.041
-628.492	-200.000	0.015	0.220
-627.478	169.679	0.186	-0.271
-626.463	-59.299	0.027	-0.012
-625.449	535.493	0.134	-0.324
-624.434	-39.725	-0.202	-0.108
-623.419	-138.906	-0.357	-0.040
-622.405	-133.653	-0.154	-0.020
-621.390	645.697	-0.116	-0.303
-620.376	-98.256	0.156	0.041
-619.361	-36.971	-0.112	0.061
-618.346	800.000	-0.032	0.144
-617.332	-151.501	-0.037	-0.003
-616.317	-200.000	-0.013	0.208
-615.303	-56.465	0.061	0.028
-614.288	101.115	0.088	0.104
-613.273	-200.000	0.012	-0.072
-612.259	-200.000	0.005	-0.252
-611.244	370.841	0.075	-0.155
-610.230	504.541	0.087	-0.206
-609.215	745.882	-0.142	0.390
-608.201	306.368	0.126	-0.240
-607.186	509.078	-0.150	-0.356
-606.171	-0.513	-0.212	0.154
-605.157	226.834	0.051	-0.084
-604.142	113.986	-0.016	0.020
-603.128	-200.000	-0.037	0.438
-602.113	800.000	0.067	0.237
-601.098	87.397	0.166	-0.187
-600.084	50.945	-0.080	0.078
-599.069	-176.289	-0.289	-0.008
-598.055	17.169	-0.181	0.146
-597.040	32.848	-0.198	0.174
-596.025	800.000	-0.029	0.106
-595.011	49.202	-0.119	-0.114
-593.996	-180.077	-0.393	0.008
-592.982	-145.233	-0.191	-0.018
-591.967	688.624	0.022	-0.058
-590.952	-74.074	0.204	-0.075
-589.938	1.171	-0.184	-0.134
-588.923	463.414	-0.066	0.151
-587.909	573.775	-0.010	-0.024
-586.894	800.000	-0.044	0.172
-585.879	-53.046	0.184	-0.086
-584.865	409.960	0.016	0.035
-583.850	-200.000	0.015	-0.120
-582.836	800.000	-0.014	0.055
-581.821	800.000	-0.091	-0.274
-580.806	-54.110	0.097	-0.045
-579.792	8.617	0.265	0.203
-578.777	800.000	-0.065	0.203
-577.763	-200.000	0.002	-0.189
-576.748	-114.223	-0.155	-0.030
-575.733	183.818	0.252	0.379
-574.719	165.038	0.077	-0.111
-573.704	-200.000	-0.036	-0.214
-572.690	278.615	0.138	-0.250
-571.675	-11.267	-0.198	-0.133
-570.661	103.537	-0.206	0.245
-569.646	800.000	-0.029	-0.087
-568.631	77.067	0.078	-0.085
-567.617	-200.000	0.020	-0.273
-566.602	-117.159	0.236	-0.044
-565.588	800.000	-0.038	0.121
-564.573	31.298	-0.155	0.136
-563.558	-200.000	0.008	0.293
-562.544	-104.167	0.302	0.072
-561.529	209.786	-0.045	-0.072
-560.515	-118.371	0.175	0.032
-559.500	-126.805	0.048	0.007
-558.485	800.000	-0.066	0.286
-557.471	-23.763	0.276	-0.168
-556.456	116.544	0.111	0.139
-555.442	-13.823	0.222	-0.146
-554.427	-140.944	-0.315	-0.033
-553.412	26.961	0.128	0.109
-552.398	119.543	-0.013	-0.016
-551.383	-158.944	-0.268	0.015
-550.369	224.731	-0.220	-0.362
-549.354	4.303	-0.111	-0.083
-548.339	-127.699	-0.446	0.066
-547.325	-146.712	-0.152	0.013
-546.310	32.323	0.142	-0.125
-545.296	-147.790	0.388	-0.033
-544.281	171.004	-0.261	-0.381
-543.266	-67.545	0.095	-0.038
-542.252	-63.029	0.255	0.107
-541.237	10.649	0.124	-0.096
-540.223	-8.109	0.426	0.292
-539.208	458.144	0.074	0.168
-538.193	-122.098	-0.367	-0.061
-537.179	-68.567	-0.272	-0.107
-536.164	800.000	0.065	-0.218
-535.150	-57.934	-0.165	-0.073
-534.135	-64.684	0.157	0.065
-533.121	-88.770	-0.238	0.072
-532.106	-36.228	0.286	-0.157
-531.091	-200.000	0.004	0.042
-530.077	-71.405	-0.463	0.176
-529.062	-121.039	-0.290	0.049
-528.048	-166.000	0.183	0.008
-527.033	33.757	0.188	0.166
-526.018	-92.819	0.206	0.058
-525.004	800.000	0.101	0.292
-523.989	-133.693	-0.093	0.012
-522.975	218.073	0.100	-0.163
-521.960	-200.000	0.023	-0.152
-520.945	9.125	0.154	0.118
-519.931	-200.000	-0.000	-0.149
-518.916	-72.654	0.196	0.074
-517.902	354.720	0.066	0.134
-516.887	-200.000	0.061	0.351
-515.872	31.207	0.373	0.325
-514.858	-21.190	0.069	-0.043
-513.843	-200.000	-0.017	0.133
-512.829	46.247	0.100	0.094
-511.814	-200.000	-0.015	-0.359
-510.799	-91.119	-0.165	0.048
-509.785	121.661	0.246	0.311
-508.770	-138.873	-0.327	-0.036
-507.756	565.111	-0.026	0.063
-506.741	-38.279	0.430	-0.231
-505.726	-145.627	-0.196	-0.018
-504.712	534.517	-0.079	-0.189
-503.697	-2.620	0.139	-0.098
-502.683	151.357	-0.149	0.205
-501.668	50.739	0.297	0.286
-500.653	-150.180	-0.263	-0.021
-499.639	800.000	0.031	0.129
-498.624	62.354	0.230	0.233
-497.610	-23.458	0.229	-0.139
-496.595	-92.667	-0.273	-0.078
-495.581	-35.528	-0.036	-0.020
-494.566	-200.000	0.036	-0.205
-493.551	-200.000	-0.003	-0.396
-492.537	166.955	-0.147	-0.212
-491.522	-37.840	0.166	-0.090
-490.508	-91.438	0.148	0.043
-489.493	11.968	0.137	-0.107
-488.478	-200.000	0.037	-0.268
-487.464	-27.361	0.190	0.112
-486.449	51.649	0.196	-0.189
-485.435	-140.415	0.220	0.023
-484.420	33.042	0.072	0.064
-483.405	-167.867	0.174	-0.007
-482.391	159.296	0.119	-0.167
-481.376	528.018	0.103	-0.247
-480.362	-200.000	0.026	-0.279
-479.347	-200.000	0.009	-0.065
-478.332	-200.000	0.001	0.019
-477.318	18.240	0.195	-0.158
-476.303	-87.611	-0.190	-0.058
-475.289	-200.000	0.038	-0.305
-474.274	-200.000	0.002	0.223
-473.259	-200.000	0.035	0.253
-472.245	-200.000	-0.016	0.194
-471.230	179.022	0.142	0.210
-470.216	-0.844	-0.044	0.032
-469.201	42.854	0.355	0.327
-468.186	-152.897	-0.066	-0.005
-467.172	800.000	-0.054	0.156
-466.157	-200.000	0.068	0.403
-465.143	150.663	0.121	0.166
-464.128	-122.659	-0.203	0.033
-463.113	56.323	0.081	-0.079
-462.099	-75.095	0.088	-0.032
-461.084	97.615	0.220	-0.257
-460.070	-200.000	0.004	-0.035
-459.055	-200.000	0.014	0.179
-458.040	-26.017	-0.204	0.122
-457.026	-171.089	-0.159	-0.005
-456.011	4.534	0.172	-0.128
-454.997	-11.817	-0.293	-0.195
-453.982	-110.435	-0.059	0.012
-452.968	-168.837	0.334	-0.013
-451.953	94.321	0.168	-0.194
-450.938	800.000	0.114	0.445
-449.924	251.286	-0.085	0.147
-448.909	12.915	0.199	0.156
-447.895	-5.711	0.033	0.023
-446.880	98.851	-0.033	-0.039
-445.865	-200.000	-0.007	0.178
-444.851	144.536	0.044	-0.059
-443.836	-25.054	0.100	0.060
-442.822	-138.630	0.305	0.034
-441.807	142.701	-0.114	-0.153
-440.792	2.749	0.119	0.088
-439.778	114.181	0.139	0.171
-438.763	-126.844	-0.194	0.029
-437.749	-138.615	0.312	0.035
-436.734	800.000	0.034	-0.096
-435.719	-100.854	-0.122	0.030
-434.705	409.545	-0.097	0.208
-433.690	363.544	-0.107	-0.217
-432.676	800.000	0.045	0.198
-431.661	-200.000	-0.022	0.521
-430.646	87.613	-0.214	0.240
-429.632	-88.400	-0.468	0.141
-428.617	124.751	-0.075	-0.096
-427.603	-137.760	0.114	-0.013
-426.588	-24.682	-0.269	-0.162
-425.573	-16.942	-0.291	0.186
-424.559	442.821	0.111	0.245
-423.544	108.140	0.066	-0.080
-422.530	-18.949	-0.324	-0.204
-421.515	800.000	0.076	0.215
-420.500	92.562	-0.110	0.126
-419.486	153.345	-0.101	-0.139
-418.471	-200.000	0.048	0.292
-417.457	-96.542	-0.452	-0.121
-416.442	-121.091	0.155	0.026
-415.428	-200.000	-0.006	0.237
-414.413	-88.038	-0.169	0.051
-413.398	47.894	-0.023	0.022
-412.384	140.136	-0.213	-0.284
-411.369	-155.185	-0.232	-0.015
-410.355	-200.000	0.024	-0.283
-409.340	800.000	0.049	-0.152
-408.325	-87.058	-0.186	-0.057
-407.311	384.885	-0.075	0.157
-406.296	-200.000	-0.041	0.251
-405.282	634.718	-0.052	-0.133
-404.267	271.967	0.184	-0.328
-403.252	-200.000	-0.007	-0.092
-402.238	679.189	-0.084	-0.221
-401.223	-127.822	-0.218	-0.032
-400.209	-200.000	-0.023	-0.200
-399.194	-200.000	0.010	-0.084
-398.179	201.689	0.238	-0.371
-397.165	-200.000	-0.002	0.176
-396.150	-73.382	0.161	0.059
-395.136	800.000	0.014	-0.049
-394.121	485.776	-0.040	-0.093
-393.106	407.319	0.113	0.241
-392.092	627.151	-0.060	-0.152
-391.077	46.484	0.102	-0.096
-390.063	-151.291	-0.249	0.019
-389.048	357.186	-0.097	-0.194
-388.033	-200.000	-0.023	0.118
-387.019	-200.000	0.025	0.133
-386.004	479.058	0.027	-0.062
-384.990	-137.916	-0.336	-0.038
-383.975	35.005	-0.215	0.190
-382.960	-21.002	-0.189	0.117
-381.946	-13.152	-0.051	-0.034
-380.931	748.306	0.085	0.231
-379.917	636.545	-0.046	-0.118
-378.902	156.621	0.136	-0.190
-377.888	455.434	-0.065	-0.146
-376.873	32.170	0.176	0.153
-375.858	-200.000	-0.002	-0.093
-374.844	-43.161	0.187	-0.096
-373.829	195.954	-0.241	-0.371
-372.815	-58.173	0.122	0.054
-371.800	261.443	-0.141	-0.246
-370.785	-45.997	-0.088	0.044
-369.771	-90.206	-0.305	-0.090
-368.756	800.000	0.052	0.160
-367.742	172.148	0.074	0.107
-366.727	119.780	-0.225	-0.281
-365.712	778.036	0.134	0.371
-364.698	84.615	-0.192	-0.212
-363.683	-54.943	-0.092	-0.042
-362.669	78.134	0.321	0.346
-361.654	11.571	-0.123	-0.095
-360.639	-88.099	-0.357	-0.108
-359.625	-200.000	0.006	0.281
-358.610	165.714	0.115	-0.164
-357.596	184.288	0.108	0.161
-356.581	477.550	0.150	0.342
-355.566	467.323	0.024	0.054
-354.552	-200.000	0.028	0.258
-353.537	236.186	0.100	0.167
-352.523	19.013	-0.159	-0.129
-351.508	164.987	-0.109	0.156
-350.493	-107.804	0.074	0.016
-349.479	-200.000	-0.048	-0.224
-348.464	743.332	-0.130	-0.352
-347.450	-200.000	0.015	-0.125
-346.435	19.406	-0.306	-0.248
-345.420	611.046	-0.049	-0.124
-344.406	-65.723	-0.269	0.109
-343.391	56.065	-0.078	-0.077
-342.377	50.398	0.241	0.230
-341.362	123.870	0.240	0.304
-340.348	326.398	0.055	-0.105
-339.333	11.178	-0.108	-0.083
-338.318	-200.000	0.025	-0.112
-337.304	34.398	0.160	0.141
-336.289	-64.317	0.332	0.136
-335.275	-200.000	-0.030	-0.138
-334.260	265.530	-0.056	-0.098
-333.245	-82.153	-0.296	-0.097
-332.231	577.584	0.010	-0.026
-331.216	-75.195	0.250	-0.090
-330.202	-200.000	-0.012	0.405
-329.187	113.334	0.116	-0.142
-328.172	-200.000	0.070	0.518
-327.158	314.052	-0.110	0.208
-326.143	230.089	0.050	0.082
-325.129	286.928	0.105	0.191
-324.114	-134.312	0.166	0.021
-323.099	800.000	-0.159	0.493
-322.085	64.529	-0.098	0.100
-321.070	-110.816	-0.328	-0.068
-320.056	195.709	0.239	-0.366
-319.041	-200.000	0.003	0.062
-318.026	-10.299	0.057	0.038
-317.012	800.000	-0.129	-0.376
-315.997	64.130	-0.210	-0.213
-314.983	394.608	-0.103	0.216
-313.968	60.768	-0.288	-0.287
-312.953	-108.233	-0.206	-0.045
-311.939	-200.000	-0.023	0.252
-310.924	19.023	0.166	0.134
-309.910	-9.939	-0.099	-0.067
-308.895	800.000	0.071	-0.238
-307.880	-200.000	0.027	-0.343
-306.866	1.357	-0.158	-0.114
-305.851	-170.350	-0.513	-0.018
-304.837	172.982	-0.161	0.233
-303.822	-73.165	0.132	0.049
-302.807	800.000	0.074	0.214
-301.793	-59.212	0.210	0.091
-300.778	-200.000	0.002	0.171
-299.764	-17.695	0.140	0.088
-298.749	-200.000	-0.007	-0.098
-297.735	-95.011	0.188	0.051
-296.720	44.705	-0.212	-0.196
-295.705	-200.000	0.004	-0.217
-294.691	-54.893	-0.167	-0.076
-293.676	-103.873	-0.176	0.041
-292.662	800.000	-0.032	0.106
-291.647	-111.251	-0.148	0.030
-290.632	-144.783	0.330	0.031
-289.618	-60.211	0.095	-0.041
-288.603	800.000	-0.082	-0.303
-287.589	800.000	-0.111	-0.433
-286.574	-131.779	0.214	-0.028
-285.559	155.395	0.039	0.054
-284.545	800.000	-0.125	-0.360
-283.530	-200.000	0.003	-0.335
-282.516	-90.118	0.303	0.089
-281.501	-200.000	-0.054	0.338
-280.486	-102.478	-0.153	-0.037
-279.472	-106.645	0.033	-0.007
-278.457	95.432	0.064	0.073
-277.443	800.000	0.088	-0.344
-276.428	640.408	0.057	-0.146
-275.413	-35.118	0.408	0.223
-274.399	-19.781	-0.146	0.091
-273.384	313.224	0.101	0.190
-272.370	49.602	0.060	-0.057
-271.355	-61.481	0.283	0.120
-270.340	-200.000	0.013	0.194
-269.326	-37.666	0.236	0.126
-268.311	714.208	0.023	0.063
-267.297	-200.000	-0.008	0.128
-266.282	-130.098	0.251	-0.034
-265.267	477.024	0.150	0.341
-264.253	143.262	0.097	0.130
-263.238	-181.573	0.281	-0.005
-262.224	800.000	0.053	-0.204
-261.209	63.250	-0.302	-0.304
-260.195	102.298	0.113	0.132
-259.180	-200.000	-0.004	0.199
-258.165	-83.755	0.121	-0.039
-257.151	-8.407	0.087	0.059
-256.136	-98.420	-0.125	0.032
-255.122	-110.979	0.273	-0.056
-254.107	-200.000	0.005	-0.259
-253.092	-200.000	-0.045	-0.285
-252.078	-19.232	-0.328	-0.205
-251.063	-200.000	-0.047	0.214
-250.049	141.636	-0.087	0.116
-249.034	64.804	-0.141	-0.143
-248.019	14.615	-0.120	0.095
-247.005	800.000	0.038	-0.128
-245.990	-109.711	-0.168	-0.036
-244.976	-81.297	0.258	-0.085
-243.961	115.380	0.165	-0.203
-242.946	479.475	-0.064	0.145
-241.932	20.727	-0.357	-0.291
-240.917	487.226	0.021	0.049
-239.903	50.373	0.318	0.302
-238.888	-70.661	0.112	-0.043
-237.873	93.586	-0.174	0.198
-236.859	-93.941	-0.194	-0.054
-235.844	-200.000	-0.013	0.093
-234.830	-174.253	-0.056	-0.002
-233.815	800.000	-0.059	0.167
-232.800	786.613	0.055	0.151
-231.786	-100.737	0.221	-0.055
-230.771	56.662	-0.174	-0.170
-229.757	-45.645	-0.382	0.190
-228.742	657.148	0.030	0.077
-227.727	-125.808	-0.345	-0.052
-226.713	598.190	0.069	0.172
-225.698	-134.361	0.160	-0.020
-224.684	-52.079	-0.257	0.120
-223.669	-40.432	-0.199	-0.104
-222.655	331.505	0.010	-0.020
-221.640	310.016	0.081	-0.152
-220.625	-200.000	0.017	-0.395
-219.611	-169.546	-0.222	-0.008
-218.596	157.056	-0.136	-0.189
-217.582	-44.862	0.112	-0.056
-216.567	-17.033	0.048	0.030
-215.552	-200.000	-0.047	-0.218
-214.538	198.200	0.223	-0.343
-213.523	87.767	-0.341	-0.379
-212.509	800.000	0.135	-0.428
-211.494	-200.000	-0.003	-0.051
-210.479	800.000	0.031	-0.114
-209.465	-16.480	0.381	0.242
-208.450	-48.292	0.165	-0.080
-207.436	165.479	0.070	0.099
-206.421	-103.246	-0.314	-0.074
-205.406	-200.000	0.010	-0.135
-204.392	261.398	0.089	0.155
-203.377	-200.000	0.015	0.161
-202.363	-200.000	-0.016	-0.119
-201.348	104.362	-0.114	-0.135
-200.333	644.796	0.124	0.317
-199.319	233.700	0.154	0.255
-198.304	24.884	0.230	-0.191
-197.290	-200.000	0.014	0.108
-196.275	218.771	0.105	0.168
-195.260	-200.000	-0.009	0.186
-194.246	444.354	-0.065	0.143
-193.231	-107.084	0.270	0.060
-192.217	-120.871	0.268	-0.045
-191.202	-32.602	-0.142	-0.079
-190.187	203.966	-0.109	-0.169
-189.173	27.483	-0.227	0.191
-188.158	800.000	-0.016	0.057
-187.144	102.137	0.068	0.080
-186.129	25.292	0.093	0.078
-185.114	378.492	-0.114	0.233
-184.100	-139.533	0.150	-0.016
-183.085	-200.000	-0.009	0.215
-182.071	-24.964	-0.142	0.085
-181.056	-200.000	-0.035	0.400
-180.042	102.425	-0.311	-0.364
-179.027	-47.551	-0.329	0.160
-178.012	-5.607	-0.271	-0.186
-176.998	-200.000	-0.060	-0.326
-175.983	-200.000	0.013	0.114
-174.969	-200.000	0.010	-0.109
-173.954	-95.118	-0.235	0.063
-172.939	55.271	0.149	-0.144
-171.925	765.052	-0.101	0.276
-170.910	-200.000	-0.005	0.207
-169.896	-170.739	0.237	0.008
-168.881	800.000	0.084	-0.245
-167.866	800.000	-0.075	-0.208
-166.852	0.318	0.398	0.284
-165.837	-148.721	0.102	0.008
-164.823	280.044	-0.174	-0.311
-163.808	-165.037	-0.117	0.005
-162.793	-114.635	-0.128	-0.024
-161.779	-196.037	0.191	0.001
-160.764	610.127	0.072	0.180
-159.750	501.202	-0.015	-0.036
-158.735	296.200	0.134	0.246
-157.720	800.000	0.113	-0.324
-156.706	28.521	0.226	-0.191
-155.691	-200.000	0.017	-0.103
-154.677	333.534	0.023	0.044
-153.662	-105.115	-0.207	-0.047
-152.647	162.094	-0.144	0.202
-151.633	-200.000	0.008	0.257
-150.618	442.465	-0.004	0.009
-149.604	-124.238	-0.170	-0.027
-148.589	-200.000	0.005	0.352
-147.574	800.000	0.032	0.109
-146.560	-200.000	-0.009	0.088
-145.545	192.612	-0.039	0.059
-144.531	-200.000	-0.020	-0.238
-143.516	-132.501	0.136	0.018
-142.502	-42.778	0.100	0.051
-141.487	76.286	0.207	-0.219
-140.472	501.685	0.154	0.355
-139.458	61.015	0.168	0.167
-138.443	-17.123	-0.030	-0.019
-137.429	-49.684	-0.082	-0.039
-136.414	281.584	-0.200	-0.359
-135.399	-113.276	-0.353	0.069
-134.385	-14.331	-0.125	-0.081
-133.370	-200.000	0.065	0.390
-132.356	-109.730	0.039	0.008
-131.341	612.107	0.051	-0.129
-130.326	114.218	0.173	0.211
-129.312	125.939	0.248	-0.314
-128.297	-103.114	-0.204	-0.048
-127.283	38.277	-0.077	-0.069
-126.268	-200.000	-0.016	0.137
-125.253	637.069	-0.050	-0.127
-124.239	-152.175	0.237	-0.017
-123.224	-164.870	-0.348	-0.016
-122.210	391.019	-0.073	-0.152
-121.195	361.428	-0.012	-0.023
-120.180	-200.000	0.020	-0.106
-119.166	-200.000	-0.040	0.234
-118.151	-200.000	0.019	0.148
-117.137	-89.018	0.145	0.043
-116.122	-99.317	-0.216	0.054
-115.107	-135.908	-0.214	-0.025
-114.093	658.376	0.044	-0.113
-113.078	-13.510	0.035	-0.023
-112.064	-85.190	0.135	-0.042
-111.049	-47.301	-0.044	-0.021
-110.034	66.016	0.243	0.246
-109.020	-120.287	0.037	-0.006
-108.005	8.648	-0.266	0.200
-106.991	337.755	-0.108	0.210
-105.976	260.560	0.113	0.195
-104.962	740.780	0.035	0.095
-103.947	800.000	-0.031	0.092
-102.932	12.278	0.148	-0.114
-101.918	-48.296	-0.116	-0.056
-100.903	-200.000	0.025	-0.204
-99.889	800.000	0.169	-0.537
-98.874	-18.840	-0.250	0.156
-97.859	-200.000	0.132	0.609
-96.845	-200.000	0.022	0.273
-95.830	-7.765	0.245	0.166
-94.816	-30.810	-0.121	0.068
-93.801	-53.452	-0.212	0.097
-92.786	46.349	0.094	0.087
-91.772	-105.896	0.060	-0.014
-90.757	-70.751	-0.427	0.161
-89.743	30.130	-0.350	0.298
-88.728	-86.882	0.175	0.053
-87.713	-199.467	-0.038	0.000
-86.699	43.690	0.138	0.126
-85.684	-5.176	-0.402	-0.276
-84.670	800.000	0.083	-0.236
-83.655	-76.844	0.316	0.110
-82.640	-70.465	0.067	-0.025
-81.626	45.674	-0.086	-0.080
-80.611	-200.000	-0.075	0.551
-79.597	-200.000	-0.011	0.175
-78.582	216.042	-0.166	0.264
-77.567	-200.000	0.039	-0.375
-76.553	151.728	0.163	0.222
-75.538	200.299	0.052	-0.080
-74.524	141.306	0.110	-0.146
-73.509	-21.473	-0.130	0.079
-72.494	-200.000	0.014	-0.081
-71.480	76.088	-0.370	-0.391
-70.465	-135.641	0.098	0.012
-69.451	800.000	0.052	0.211
-68.436	140.728	-0.043	-0.057
-67.422	-200.000	-0.037	0.436
-66.407	-2.888	0.173	-0.121
-65.392	-132.904	0.038	-0.005
-64.378	800.000	0.048	0.169
-63.363	-52.239	0.143	0.066
-62.349	-200.000	0.010	-0.114
-61.334	15.287	-0.793	-0.620
-60.319	254.067	0.023	-0.040
-59.305	695.379	-0.270	-0.706
-58.290	297.588	0.208	0.381
-57.276	356.639	0.773	1.536
-56.261	-200.000	72.565	528.278
-55.246	593.408	1286.422	3169.805
-54.232	148.148	2502.198	3366.025
-53.217	123.380	2222.669	2777.814
-52.203	56.301	1666.348	1614.057
-51.188	47.749	1383.150	1286.986
-50.173	43.627	1335.398	1217.753
-49.159	61.331	1367.521	1354.797
-48.144	69.724	1386.109	1423.939
-47.130	47.748	1349.722	1255.678
-46.115	43.313	1334.014	1214.409
-45.100	43.282	1328.546	1209.197
-44.086	43.252	1326.173	1206.807
-43.071	43.140	1324.122	1204.227
-42.057	43.125	1321.817	1201.991
-41.042	43.113	1320.165	1200.369
-40.027	43.252	1318.778	1199.890
-39.013	43.058	1317.220	1197.273
-37.998	43.199	1314.424	1195.519
-36.984	43.261	1313.164	1194.695
-35.969	43.319	1311.060	1193.076
-34.954	43.355	1309.464	1191.785
-33.940	43.383	1308.005	1190.578
-32.925	43.284	1307.347	1189.346
-31.911	43.357	1305.396	1187.954
-30.896	43.407	1303.850	1186.796
-29.881	43.409	1302.498	1185.531
-28.867	43.409	1301.022	1184.135
-27.852	43.412	1299.047	1182.310
-26.838	43.376	1298.096	1181.188
-25.823	43.489	1296.503	1180.350
-24.809	43.314	1295.419	1178.293
-23.794	43.326	1293.762	1176.815
-22.779	43.381	1292.362	1175.811
-21.765	43.394	1290.809	1174.430
-20.750	43.332	1290.028	1173.312
-19.736	43.256	1288.382	1171.328
-18.721	43.252	1287.474	1170.428
-17.706	43.281	1286.330	1169.509
-16.692	43.285	1284.810	1168.109
-15.677	43.338	1284.119	1167.737
-14.663	43.246	1282.711	1165.881
-13.648	43.191	1281.240	1164.178
-12.633	43.238	1280.880	1164.080
-11.619	43.352	1279.405	1163.346
-10.604	43.331	1278.621	1162.468
-9.590	43.292	1277.628	1161.295
-8.575	43.258	1276.673	1160.188
-7.560	43.229	1275.819	1159.194
-6.546	43.232	1275.241	1158.643
-5.531	43.096	1274.536	1157.174
-4.517	43.302	1272.996	1156.913
-3.502	43.210	1272.611	1155.989
-2.487	43.245	1271.107	1154.778
-1.473	43.368	1267.429	1152.089
-0.458	42.629	1253.501	1135.215
0.556	38.443	1234.187	1096.691
1.571	34.334	1236.604	1075.602
2.586	33.003	1250.981	1080.407
3.600	31.206	1239.703	1060.374
4.615	22.093	1161.376	944.542
5.629	8.156	1075.387	804.658
6.644	1.471	1049.977	752.554
7.659	1.017	1047.112	748.192
8.673	0.909	1045.630	746.535
9.688	0.766	1044.167	744.722
10.702	1.291	1043.523	746.778
11.717	9.067	1054.919	793.426
12.731	20.101	1070.429	860.080
13.746	23.842	1073.971	881.443
14.761	23.562	1073.402	879.507
15.775	23.359	1073.288	878.332
16.790	23.300	1072.243	877.107
17.804	23.216	1071.501	876.007
18.819	23.443	1070.673	876.373
19.834	23.366	1070.461	875.742
20.848	23.362	1070.241	875.463
21.863	23.485	1069.411	875.316
22.877	23.321	1068.614	873.776
23.892	23.249	1068.276	873.068
24.907	23.347	1067.643	872.954
25.921	23.376	1066.089	871.752
26.936	23.360	1064.816	870.554
27.950	23.406	1063.059	869.267
28.965	23.066	1061.359	866.133
29.980	23.155	1060.116	865.480
30.994	23.303	1059.454	865.584
32.009	23.421	1058.427	865.243
33.023	23.308	1056.556	863.086
34.038	23.195	1056.642	862.534
35.053	23.372	1055.674	862.527
36.067	23.382	1054.420	861.473
37.082	23.446	1054.148	861.486
38.096	23.590	1053.536	861.611
39.111	23.720	1052.544	861.351
40.126	23.470	1051.206	858.971
41.140	23.056	1049.814	855.756
42.155	23.021	1047.989	854.024
43.169	22.920	1047.573	853.118
44.184	23.137	1046.226	852.992
45.199	23.033	1045.029	851.440
46.213	23.028	1044.261	850.716
47.228	23.196	1043.455	850.791
48.242	23.217	1042.681	850.186
49.257	23.321	1042.127	850.160
50.271	23.315	1041.375	849.443
51.286	23.511	1040.293	849.420
52.301	23.453	1039.504	848.426
53.315	23.298	1038.678	846.936
54.330	23.268	1037.963	846.133
55.344	23.382	1036.736	845.604
56.359	23.339	1035.833	844.588
57.374	23.126	1034.881	842.720
58.388	23.141	1034.209	842.170
59.403	23.021	1033.366	840.838
60.417	22.970	1032.258	839.618
61.432	23.065	1031.652	839.505
62.447	23.036	1031.349	839.045
63.461	23.057	1030.515	838.395
64.476	23.138	1029.220	837.646
65.490	23.046	1028.404	836.474
66.505	23.158	1027.934	836.549
67.520	23.147	1027.205	835.831
68.534	23.003	1026.042	834.129
69.549	22.575	1025.225	831.373
70.563	22.731	1024.085	831.109
71.578	22.641	1023.486	830.127
72.593	22.376	1022.362	827.897
73.607	22.621	1021.646	828.393
74.622	22.975	1021.454	829.826
75.636	22.919	1020.982	829.109
76.651	22.811	1019.545	827.362
77.666	22.712	1018.976	826.363
78.680	22.784	1018.422	826.176
79.695	22.841	1017.462	825.590
80.709	22.998	1017.118	825.971
81.724	22.904	1016.460	824.925
82.739	23.100	1015.289	824.816
83.753	23.371	1015.236	825.965
84.768	23.701	1014.262	826.634
85.782	23.854	1013.219	826.425
86.797	23.655	1012.154	824.558
87.812	23.400	1011.261	822.573
88.826	23.609	1010.759	823.065
89.841	23.530	1009.472	821.574
90.855	23.667	1008.679	821.490
91.870	23.592	1007.896	820.433
92.884	23.390	1006.653	818.417
93.899	23.332	1005.772	817.362
94.914	23.575	1004.859	817.664
95.928	23.494	1003.467	816.087
96.943	23.321	1002.104	814.112
97.957	22.940	1001.659	811.931
98.972	22.894	1000.121	810.398
99.987	23.068	999.238	810.408
101.001	23.298	998.310	810.641
102.016	23.351	997.701	810.313
103.030	23.249	996.948	809.167
104.045	22.894	996.273	806.926
105.060	22.986	994.945	806.197
106.074	23.095	994.324	806.118
107.089	23.417	993.759	807.058
108.103	23.371	992.424	805.692
109.118	23.167	991.265	803.755
110.133	23.208	989.967	802.814
111.147	23.035	988.391	800.682
112.162	22.854	987.909	799.401
113.176	23.017	987.573	799.799
114.191	22.975	986.385	798.577
115.206	22.669	985.549	796.445
116.220	22.621	984.480	795.292
117.235	22.743	983.778	795.209
118.249	22.772	982.923	794.575
119.264	22.722	982.181	793.680
120.279	22.764	981.466	793.223
121.293	22.878	980.578	792.947
122.308	22.936	979.833	792.532
123.322	22.796	978.651	790.880
124.337	22.634	977.416	789.090
125.352	22.156	975.782	785.560
126.366	22.141	974.994	784.794
127.381	22.830	974.940	787.754
128.395	23.318	974.427	789.445
129.410	23.412	973.484	789.031
130.424	23.454	972.889	788.666
131.439	23.479	971.610	787.670
132.454	23.455	970.704	786.757
133.468	23.243	970.163	785.312
134.483	23.450	969.166	785.351
135.497	23.585	968.416	785.271
136.512	23.626	967.868	784.939
137.527	23.697	966.845	784.352
138.541	23.715	966.110	783.768
139.556	23.646	965.389	782.806
140.570	23.834	964.567	782.901
141.585	23.783	963.336	781.610
142.600	23.659	962.396	780.229
143.614	23.766	962.196	780.470
144.629	23.954	960.946	780.213
145.643	23.823	959.775	778.617
146.658	23.608	958.435	776.523
147.673	23.628	957.089	775.449
148.687	23.519	956.384	774.332
149.702	23.425	955.350	773.019
150.716	23.384	954.324	771.941
151.731	23.514	953.643	771.889
152.746	23.621	953.560	772.220
153.760	23.659	952.997	771.859
154.775	23.824	951.961	771.668
155.789	23.841	951.054	770.939
156.804	23.642	950.111	769.243
157.819	23.715	949.533	769.023
158.833	23.802	949.012	768.912
159.848	23.828	947.949	768.092
160.862	23.794	946.800	766.948
161.877	23.735	945.503	765.576
162.892	23.744	944.778	764.958
163.906	23.730	943.883	764.106
164.921	23.521	942.859	762.313
165.935	23.579	942.169	761.935
166.950	23.747	941.279	761.871
167.964	23.689	940.314	760.772
168.979	23.644	938.983	759.436
169.994	23.528	938.352	758.364
171.008	23.842	937.403	758.868
172.023	23.879	936.542	758.264
173.037	23.562	935.491	755.995
174.052	23.420	934.789	754.754
175.067	23.407	934.418	754.331
176.081	23.486	933.722	754.041
177.096	23.631	932.731	753.792
178.110	23.187	931.727	751.027
179.125	23.056	930.917	749.753
180.140	23.041	931.036	749.717
181.154	23.147	930.751	749.874
182.169	23.638	930.214	751.450
183.183	23.727	930.044	751.626
184.198	23.713	929.284	750.884
185.213	23.618	928.184	749.528
186.227	23.666	927.434	749.057
187.242	23.665	926.952	748.597
188.256	23.858	926.156	748.704
189.271	23.794	925.643	747.954
190.286	23.456	924.804	745.786
191.300	22.929	923.163	742.186
192.315	22.175	921.517	737.632
193.329	22.019	921.128	736.600
194.344	22.941	921.768	740.917
195.359	23.501	921.431	742.928
196.373	23.622	921.037	743.052
197.388	23.636	920.229	742.393
198.402	23.582	919.723	741.691
199.417	23.524	919.246	740.997
200.432	23.360	917.906	739.168
201.446	23.089	917.741	737.840
202.461	23.256	916.989	737.867
203.475	22.448	915.089	732.910
204.490	21.536	913.938	728.133
205.504	22.428	914.227	732.009
206.519	23.172	914.086	734.919
207.534	23.305	913.283	734.763
208.548	23.576	913.548	736.035
209.563	23.545	912.149	734.714
210.577	23.416	911.380	733.496
211.592	23.812	911.327	735.026
212.607	23.756	910.371	733.960
213.621	23.703	909.619	733.067
214.636	23.790	909.183	733.012
215.650	23.751	908.238	732.025
216.665	23.929	908.039	732.533
217.680	23.760	906.848	730.812
218.694	23.419	905.711	728.428
219.709	23.201	905.187	727.049
220.723	23.432	904.886	727.692
221.738	23.602	904.116	727.704
222.753	23.544	903.548	726.945
223.767	23.646	903.428	727.204
224.782	23.909	903.007	727.877
225.796	23.956	902.328	727.454
226.811	23.316	900.427	723.246
227.826	22.703	899.387	719.848
228.840	22.975	898.775	720.402
229.855	23.015	898.479	720.263
230.869	22.440	897.368	716.968
231.884	22.956	896.971	718.688
232.899	23.747	897.117	721.956
233.913	23.653	896.553	721.058
234.928	23.552	896.029	720.165
235.942	23.585	895.010	719.414
236.957	23.233	894.360	717.402
237.972	23.257	893.679	716.888
238.986	23.312	893.615	716.996
240.001	23.290	892.904	716.275
241.015	23.349	892.453	716.087
242.030	23.511	892.107	716.400
243.045	23.645	891.270	716.204
244.059	23.719	891.369	716.521
245.074	23.543	890.078	714.710
246.088	23.297	888.913	712.722
247.103	23.542	888.656	713.436
248.117	24.097	888.644	715.595
249.132	24.241	888.618	716.089
250.147	24.423	887.885	716.167
251.161	24.465	887.388	715.873
252.176	24.337	887.131	715.087
253.190	24.502	886.407	715.102
254.205	24.666	885.961	715.334
255.220	24.626	884.946	714.292
256.234	24.362	884.472	712.791
257.249	24.408	883.698	712.290
258.263	24.356	883.075	711.516
259.278	24.489	882.206	711.281
260.293	24.562	881.722	711.119
261.307	24.587	880.596	710.250
262.322	24.332	879.713	708.462
263.336	23.630	878.202	704.396
264.351	22.469	876.613	698.457
265.366	22.595	876.022	698.425
266.380	23.627	876.888	703.145
267.395	24.171	876.473	704.902
268.409	24.175	875.621	704.170
269.424	24.302	875.303	704.355
270.439	24.165	874.876	703.407
271.453	24.447	874.026	703.773
272.468	24.537	873.911	703.973
273.482	24.587	873.353	703.658
274.497	24.141	872.318	701.009
275.512	23.850	870.961	698.712
276.526	24.209	871.471	700.468
277.541	24.404	871.147	700.912
278.555	24.171	869.960	698.984
279.570	24.071	869.071	697.812
280.585	24.250	868.226	697.775
281.599	24.154	867.739	696.946
282.614	23.602	866.512	693.743
283.628	23.530	866.165	693.123
284.643	23.902	865.968	694.354
285.657	23.628	864.428	691.990
286.672	23.306	863.705	690.097
287.687	23.847	863.819	692.235
288.701	23.922	863.544	692.246
289.716	23.580	862.685	690.164
290.730	23.625	861.775	689.551
291.745	23.348	860.841	687.666
292.760	23.405	860.787	687.784
293.774	24.612	860.993	692.569
294.789	25.014	860.673	693.809
295.803	24.904	860.195	692.935
296.818	24.903	859.622	692.409
297.833	24.472	858.390	689.690
298.847	24.439	857.715	688.960
299.862	24.615	857.625	689.507
300.876	24.889	857.610	690.491
301.891	24.787	856.561	689.192
302.906	24.368	855.520	686.679
303.920	24.431	855.628	686.950
304.935	24.920	854.809	688.110
305.949	25.036	853.957	687.808
306.964	24.524	853.739	685.606
307.979	24.572	853.332	685.404
308.993	25.015	852.978	686.758
310.008	24.963	852.618	686.209
311.022	24.701	851.486	684.233
312.037	24.536	851.224	683.332
313.052	24.416	849.953	681.791
314.066	23.475	848.650	677.094
315.081	23.280	847.399	675.293
316.095	24.087	847.698	678.548
317.110	24.580	847.904	680.533
318.125	23.701	846.460	675.967
319.139	22.766	844.781	671.014
320.154	22.813	844.310	670.761
321.168	23.469	844.835	673.609
322.183	24.237	844.777	676.420
323.197	24.313	845.068	676.882
324.212	24.663	844.598	677.771
325.227	24.720	843.937	677.400
326.241	24.658	842.910	676.281
327.256	24.368	842.229	674.577
328.270	24.275	841.914	673.911
329.285	24.075	840.921	672.302
330.300	24.153	839.743	671.595
331.314	24.233	839.709	671.810
332.329	24.513	839.998	673.037
333.343	24.719	839.458	673.323
334.358	24.836	838.774	673.153
335.373	24.865	838.543	673.020
336.387	24.969	838.669	673.452
337.402	25.181	838.561	674.102
338.416	25.152	837.566	673.134
339.431	25.199	837.571	673.255
340.446	25.441	837.004	673.647
341.460	25.395	836.563	673.061
342.475	25.023	836.205	671.317
343.489	25.169	835.749	671.439
344.504	25.286	835.497	671.614
345.519	25.589	835.160	672.419
346.533	25.680	834.491	672.160
347.548	25.539	834.137	671.288
348.562	25.610	833.497	670.979
349.577	25.547	832.997	670.284
350.592	25.537	832.308	669.630
351.606	25.493	831.759	668.965
352.621	25.353	831.124	667.877
353.635	25.135	830.369	666.401
354.650	24.672	828.471	663.101
355.665	23.780	826.810	658.408
356.679	24.059	826.895	659.454
357.694	24.341	826.435	660.073
358.708	24.415	826.284	660.165
359.723	24.910	825.796	661.548
360.738	25.121	825.420	661.965
361.752	25.253	824.917	661.992
362.767	25.588	825.014	663.248
363.781	25.728	824.648	663.409
364.796	25.946	824.117	663.724
365.810	26.066	823.866	663.906
366.825	25.933	823.371	662.961
367.840	25.586	822.030	660.546
368.854	25.141	821.562	658.479
369.869	25.122	821.479	658.287
370.883	25.233	820.675	657.989
371.898	25.276	820.600	658.029
372.913	25.361	819.715	657.573
373.927	25.328	819.957	657.589
374.942	25.450	819.125	657.309
375.956	25.784	818.460	657.935
376.971	25.825	818.363	657.949
377.986	25.926	818.253	658.170
379.000	25.924	817.526	657.521
380.015	25.792	816.657	656.285
381.029	25.703	816.483	655.762
382.044	25.794	815.958	655.612
383.059	25.884	815.061	655.160
384.073	25.907	814.672	654.874
385.088	25.862	813.936	654.063
386.102	25.613	813.416	652.684
387.117	25.655	812.600	652.124
388.132	25.272	811.684	649.945
389.146	24.728	811.012	647.377
390.161	25.122	810.856	648.624
391.175	25.441	810.757	649.638
392.190	25.349	809.742	648.435
393.205	24.002	807.694	641.883
394.219	22.605	805.505	635.057
395.234	22.257	805.778	633.964
396.248	23.983	806.674	640.836
397.263	25.391	807.637	646.615
398.278	25.295	807.686	646.253
399.292	25.185	806.643	644.964
400.307	25.191	806.286	644.642
401.321	25.293	805.685	644.472
402.336	25.709	805.467	645.734
403.350	26.087	805.444	647.014
404.365	26.389	805.577	648.147
405.380	26.499	805.452	648.382
406.394	26.617	804.713	648.151
407.409	26.465	803.904	646.899
408.423	26.422	803.924	646.705
409.438	26.560	803.440	646.751
410.453	26.624	802.925	646.509
411.467	26.493	802.315	645.493
412.482	26.530	801.830	645.176
413.496	26.791	801.764	645.995
414.511	26.708	801.400	645.352
415.526	26.573	800.630	644.194
416.540	26.493	800.093	643.421
417.555	26.238	799.091	641.653
418.569	26.296	798.969	641.703
419.584	26.190	798.573	640.953
420.599	26.166	797.811	640.198
421.613	86.223	1245.078	1317.937
422.628	73.454	1310.277	1318.049
