DTS Sentinel unit serial number:	SN413079Multiplexer serial number:	ORYXHardware model number:	OX4-SRSoftware version number:	ORYX F/W v4.00 Oryx Data Collector v3.7.2.0data status	okinstallation	princeton_trtdifferential loss correction	single-endedforward channel	channel 1reverse channel	N/Adate	2019/09/14time	08:22:35forward acquisition time	60.00reverse acquisition time	0.00gamma	496.2192k internal	0.2328k external	0.2328temperature offset calibration	1.0071default loss term (dB/km)	0.3790temperature slope calibration	1.0000multiplexer offset coefficient	1.0000multiplexer slope coefficient	1.0000fibre end	0.00T internal ref (°C)	28.05T ext. ref 1 (°C)	3.62T ext. ref 2 (°C)	26.00length (m)	temperature (°C)	Stokes	anti-Stokes-747.200	67.735	0.138	-0.143
-746.185	800.000	-0.083	0.338
-745.171	-117.150	-0.321	0.059
-744.156	-200.000	0.065	0.337
-743.142	174.265	0.194	-0.283
-742.127	800.000	-0.045	0.190
-741.112	-64.350	-0.170	0.070
-740.098	81.078	-0.145	-0.158
-739.083	166.470	-0.198	-0.283
-738.069	-200.000	0.014	0.163
-737.054	-31.340	-0.099	-0.056
-736.039	10.217	-0.314	-0.241
-735.025	163.340	0.107	0.151
-734.010	41.379	0.211	0.193
-732.996	-78.575	0.204	-0.070
-731.981	-97.011	0.246	0.065
-730.966	110.563	0.153	0.185
-729.952	35.291	0.044	0.039
-728.937	-47.022	-0.148	-0.073
-727.923	-148.626	0.251	-0.021
-726.908	800.000	0.045	0.135
-725.894	-200.000	-0.041	0.185
-724.879	-200.000	0.016	-0.129
-723.864	-200.000	0.043	-0.247
-722.850	-200.000	-0.085	-0.416
-721.835	-64.448	-0.210	-0.086
-720.821	491.884	-0.049	-0.113
-719.806	12.360	0.061	-0.048
-718.791	-19.093	-0.313	-0.196
-717.777	-140.139	0.201	0.021
-716.762	-62.565	-0.256	-0.107
-715.748	-73.466	0.189	0.069
-714.733	-200.000	-0.007	-0.060
-713.718	800.000	-0.086	-0.278
-712.704	-104.743	-0.259	-0.060
-711.689	-140.405	-0.557	0.058
-710.675	-160.849	0.299	-0.016
-709.660	-5.773	-0.072	0.049
-708.645	143.660	0.222	-0.298
-707.631	-24.945	-0.230	0.137
-706.616	51.462	-0.110	0.106
-705.602	-200.000	0.026	0.204
-704.587	-200.000	-0.015	0.266
-703.572	211.741	-0.091	0.144
-702.558	-200.000	0.020	-0.116
-701.543	-200.000	0.031	-0.160
-700.529	-40.354	-0.256	0.134
-699.514	-114.945	0.226	0.043
-698.499	18.676	0.128	-0.103
-697.485	92.474	0.156	-0.177
-696.470	268.115	-0.147	-0.258
-695.456	207.264	0.057	-0.089
-694.441	-200.000	-0.022	0.181
-693.426	-200.000	0.019	-0.094
-692.412	203.257	0.189	-0.293
-691.397	-120.456	-0.267	-0.046
-690.383	-53.450	-0.076	-0.035
-689.368	-46.112	-0.423	-0.210
-688.354	-19.479	0.201	0.125
-687.339	-200.000	-0.004	-0.105
-686.324	-200.000	-0.006	-0.199
-685.310	-200.000	-0.045	0.323
-684.295	-11.522	-0.073	-0.048
-683.281	-149.798	0.086	-0.007
-682.266	226.021	-0.081	0.132
-681.251	-113.260	0.291	0.058
-680.237	-200.000	0.183	-0.001
-679.222	-62.624	-0.012	0.005
-678.208	174.584	-0.089	0.129
-677.193	-200.000	-0.015	0.089
-676.178	800.000	0.034	0.120
-675.164	-200.000	-0.001	-0.092
-674.149	800.000	-0.059	0.204
-673.135	-41.532	-0.189	-0.098
-672.120	-200.000	0.008	-0.126
-671.105	264.175	0.117	-0.205
-670.091	-5.027	0.162	-0.112
-669.076	123.530	0.148	-0.187
-668.062	-200.000	0.031	-0.276
-667.047	-132.248	-0.152	-0.020
-666.032	-2.199	-0.311	-0.219
-665.018	-61.031	-0.279	-0.119
-664.003	-24.166	-0.004	-0.002
-662.989	-31.836	-0.107	0.060
-661.974	800.000	-0.077	0.278
-660.959	-20.835	0.053	0.032
-659.945	-50.230	-0.166	0.079
-658.930	-200.000	0.003	0.092
-657.916	-129.866	-0.327	-0.045
-656.901	-75.748	0.272	-0.097
-655.886	-200.000	0.018	0.128
-654.872	73.938	-0.027	0.029
-653.857	15.126	-0.055	0.043
-652.843	800.000	0.087	0.272
-651.828	-9.606	-0.134	0.090
-650.814	65.016	0.267	0.271
-649.799	-128.150	0.068	-0.010
-648.784	333.899	-0.099	0.192
-647.770	-68.657	0.073	-0.028
-646.755	-200.000	-0.031	-0.228
-645.741	-27.517	0.297	-0.173
-644.726	405.321	0.078	0.166
-643.711	-140.837	-0.125	0.013
-642.697	-139.266	0.489	0.053
-641.682	-146.197	-0.121	-0.011
-640.668	159.278	-0.028	-0.039
-639.653	-110.616	0.142	0.030
-638.638	70.006	-0.359	0.372
-637.624	-200.000	-0.009	0.267
-636.609	646.903	-0.120	-0.307
-635.595	800.000	-0.026	0.106
-634.580	14.741	0.308	0.241
-633.565	-103.092	-0.129	0.031
-632.551	122.048	0.065	-0.081
-631.536	475.691	-0.116	0.263
-630.522	-69.198	-0.148	-0.057
-629.507	-200.000	0.025	0.167
-628.492	-127.709	-0.217	-0.031
-627.478	225.156	0.051	-0.083
-626.463	-112.406	0.159	-0.032
-625.449	-132.507	-0.175	-0.023
-624.434	119.389	0.135	0.167
-623.419	-15.791	0.268	-0.171
-622.405	800.000	0.046	0.188
-621.390	-200.000	-0.011	0.103
-620.376	-200.000	-0.026	-0.192
-619.361	272.890	0.124	0.220
-618.346	185.721	-0.101	-0.151
-617.332	-106.654	0.283	-0.063
-616.317	785.406	0.037	0.103
-615.303	-12.220	-0.246	0.162
-614.288	207.619	-0.080	-0.126
-613.273	-18.870	-0.100	-0.062
-612.259	199.524	0.256	-0.394
-611.244	-23.462	-0.136	-0.082
-610.230	42.558	-0.041	0.037
-609.215	323.102	-0.104	0.199
-608.201	-200.000	0.001	-0.201
-607.186	182.990	-0.104	0.153
-606.171	200.778	0.089	-0.138
-605.157	800.000	-0.066	0.185
-604.142	-200.000	-0.016	0.102
-603.128	-200.000	0.096	0.472
-602.113	220.606	0.191	-0.307
-601.098	-200.000	0.026	0.361
-600.084	213.805	0.120	-0.190
-599.069	18.922	-0.119	-0.095
-598.055	-19.633	-0.273	0.169
-597.040	5.189	0.271	-0.200
-596.025	-200.000	0.014	0.250
-595.011	320.302	0.102	-0.194
-593.996	618.271	-0.075	-0.189
-592.982	-200.000	-0.012	-0.153
-591.967	-200.000	-0.041	-0.374
-590.952	211.134	0.110	-0.173
-589.938	-60.972	-0.162	0.068
-588.923	23.991	0.094	-0.078
-587.909	-66.911	-0.255	0.101
-586.894	-62.346	-0.175	0.073
-585.879	-169.434	-0.182	0.007
-584.865	-74.256	-0.175	-0.063
-583.850	-200.000	-0.018	-0.105
-582.836	-167.682	-0.464	-0.018
-581.821	59.900	-0.189	-0.187
-580.806	-157.553	-0.222	0.013
-579.792	27.446	0.148	0.124
-578.777	-75.667	-0.285	0.101
-577.763	-200.000	-0.002	-0.065
-576.748	-200.000	-0.004	-0.154
-575.733	-129.918	0.262	0.036
-574.719	-3.276	0.379	-0.264
-573.704	3.478	0.085	0.062
-572.690	231.594	-0.027	0.044
-571.675	-200.000	0.062	-0.293
-570.661	-144.692	0.190	0.017
-569.646	-62.328	0.048	0.020
-568.631	-172.748	-0.247	-0.008
-567.617	-150.903	-0.119	-0.009
-566.602	-156.181	-0.249	0.016
-565.588	-200.000	0.029	-0.387
-564.573	69.191	0.128	-0.131
-563.558	586.809	-0.076	0.187
-562.544	-111.219	-0.323	-0.066
-561.529	-39.980	0.310	0.162
-560.515	800.000	0.072	0.316
-559.500	202.486	0.035	-0.054
-558.485	-145.477	0.122	0.011
-557.471	409.737	-0.079	0.168
-556.456	186.488	-0.137	0.205
-555.442	32.673	0.147	0.127
-554.427	149.770	-0.166	0.225
-553.412	260.255	0.207	0.357
-552.398	31.085	0.095	0.082
-551.383	121.410	-0.133	0.166
-550.369	-80.391	-0.171	0.057
-549.354	492.656	0.084	-0.193
-548.339	-11.066	-0.358	0.236
-547.325	-157.679	0.326	0.019
-546.310	10.540	0.131	0.100
-545.296	-200.000	0.047	-0.236
-544.281	800.000	-0.112	-0.417
-543.266	-62.891	-0.343	0.142
-542.252	-137.866	0.097	0.011
-541.237	-129.068	0.366	0.051
-540.223	-50.897	0.224	0.105
-539.208	-134.867	-0.338	0.041
-538.193	-65.464	0.117	0.047
-537.179	-87.748	0.092	0.028
-536.164	-150.434	-0.220	0.017
-535.150	-12.581	-0.303	0.198
-534.135	-15.272	0.081	-0.052
-533.121	-120.850	-0.201	0.034
-532.106	392.284	0.028	-0.059
-531.091	547.860	0.043	-0.104
-530.077	-200.000	-0.000	-0.024
-529.062	142.828	0.119	0.158
-528.048	-189.809	-0.143	0.002
-527.033	-46.739	0.190	-0.093
-526.018	177.603	0.146	0.212
-525.004	-100.193	-0.119	0.030
-523.989	105.284	-0.015	-0.018
-522.975	1.131	0.208	0.149
-521.960	-75.721	0.131	-0.046
-520.945	291.722	-0.061	0.110
-519.931	-37.104	0.224	-0.120
-518.916	-165.981	0.400	0.017
-517.902	-166.842	-0.061	0.003
-516.887	-200.000	-0.018	-0.093
-515.872	277.694	-0.130	-0.232
-514.858	-42.133	0.181	-0.093
-513.843	89.739	0.094	0.105
-512.829	118.694	0.085	0.105
-511.814	-200.000	-0.018	-0.110
-510.799	-45.861	-0.212	0.104
-509.785	659.357	-0.072	-0.184
-508.770	-200.000	0.198	0.000
-507.756	50.154	0.174	0.164
-506.741	45.217	0.279	0.257
-505.726	-43.314	0.115	0.058
-504.712	-191.195	0.216	-0.002
-503.697	484.913	0.147	0.333
-502.683	-26.483	-0.096	0.056
-501.668	-17.415	0.251	-0.158
-500.653	132.244	0.149	-0.192
-499.639	-200.000	0.033	0.199
-498.624	-126.646	0.455	-0.067
-497.610	35.623	-0.139	0.122
-496.595	420.482	-0.120	-0.256
-495.581	-91.552	0.444	0.126
-494.566	-81.746	0.309	0.101
-493.551	61.998	0.305	-0.304
-492.537	455.198	0.084	-0.185
-491.522	-63.399	0.232	0.095
-490.508	-71.531	0.100	-0.037
-489.493	142.217	0.122	0.162
-488.478	-200.000	-0.003	-0.387
-487.464	-153.261	-0.281	-0.020
-486.449	-200.000	0.024	0.123
-485.435	163.181	-0.164	-0.231
-484.420	143.285	0.016	0.021
-483.405	-146.555	0.021	-0.002
-482.391	-200.000	-0.267	0.001
-481.376	120.245	-0.163	-0.202
-480.362	9.810	-0.162	0.122
-479.347	101.909	0.173	-0.201
-478.332	69.439	0.225	-0.231
-477.318	-200.000	-0.028	0.165
-476.303	37.878	0.151	-0.134
-475.289	-200.000	-0.001	-0.129
-474.274	386.794	0.043	-0.089
-473.259	22.799	-0.393	-0.321
-472.245	522.138	-0.112	0.263
-471.230	-177.661	-0.405	-0.010
-470.216	-77.025	-0.372	-0.129
-469.201	33.431	-0.335	-0.290
-468.186	-10.446	0.110	-0.073
-467.172	-106.570	-0.342	-0.076
-466.157	-135.615	-0.352	-0.042
-465.143	38.203	-0.108	0.096
-464.128	-82.207	0.285	0.093
-463.113	184.325	-0.285	0.421
-462.099	800.000	0.133	0.528
-461.084	575.604	0.062	0.152
-460.070	-200.000	0.016	-0.273
-459.055	800.000	-0.060	-0.259
-458.040	514.236	-0.022	-0.051
-457.026	-200.000	-0.004	-0.141
-456.011	21.186	-0.270	0.218
-454.997	321.565	0.122	-0.231
-453.982	-200.000	0.013	-0.182
-452.968	-64.333	0.099	0.040
-451.953	-200.000	-0.016	0.151
-450.938	-0.345	0.148	0.105
-449.924	-200.000	-0.011	0.128
-448.909	74.626	0.186	-0.195
-447.895	-20.275	-0.172	-0.105
-446.880	283.712	0.129	0.231
-445.865	800.000	-0.031	-0.112
-444.851	-8.269	-0.243	-0.163
-443.836	800.000	-0.072	0.261
-442.822	-200.000	0.031	-0.182
-441.807	559.350	0.188	-0.452
-440.792	-200.000	0.008	-0.136
-439.778	-33.313	0.356	-0.196
-438.763	-200.000	0.056	0.251
-437.749	800.000	0.093	0.268
-436.734	58.077	-0.154	0.151
-435.719	78.390	-0.103	0.109
-434.705	94.094	-0.187	0.211
-433.690	-200.000	-0.043	-0.204
-432.676	-37.179	0.182	-0.097
-431.661	251.264	-0.078	-0.132
-430.646	-200.000	-0.045	0.358
-429.632	800.000	-0.050	0.178
-428.617	-36.858	0.113	-0.061
-427.603	-58.961	-0.056	0.024
-426.588	-200.000	-0.008	0.123
-425.573	-200.000	-0.010	0.170
-424.559	34.925	0.181	0.157
-423.544	67.965	-0.181	0.184
-422.530	-112.811	0.205	-0.041
-421.515	800.000	0.069	-0.229
-420.500	46.969	0.129	-0.119
-419.486	-56.718	0.190	-0.084
-418.471	-61.479	0.340	0.142
-417.457	-90.075	-0.172	0.050
-416.442	36.153	-0.339	-0.297
-415.428	-90.320	0.083	-0.024
-414.413	-200.000	-0.058	-0.388
-413.398	-200.000	-0.017	-0.115
-412.384	83.351	0.133	0.144
-411.369	-104.768	-0.174	-0.040
-410.355	441.438	0.026	-0.056
-409.340	-200.000	0.061	0.441
-408.325	21.559	0.272	0.220
-407.311	-27.963	-0.255	0.147
-406.296	-200.000	-0.006	0.364
-405.282	-155.766	0.350	-0.022
-404.267	8.188	0.223	0.167
-403.252	800.000	0.122	0.435
-402.238	-109.947	-0.075	0.016
-401.223	48.839	-0.034	0.031
-400.209	645.509	-0.076	0.193
-399.194	69.615	0.155	-0.159
-398.179	800.000	0.059	0.164
-397.165	20.901	-0.109	-0.088
-396.150	-200.000	0.022	0.346
-395.136	111.188	-0.079	-0.095
-394.121	-119.279	0.299	0.052
-393.106	678.899	-0.099	-0.256
-392.092	-124.877	-0.276	0.042
-391.077	-78.027	0.023	-0.008
-390.063	154.952	-0.039	0.053
-389.048	-83.810	-0.417	0.132
-388.033	611.283	0.081	0.201
-387.019	-40.931	0.172	-0.089
-386.004	-95.013	0.245	0.066
-384.990	-120.487	0.379	0.064
-383.975	-103.835	0.261	-0.061
-382.960	-167.411	0.309	0.012
-381.946	800.000	0.067	0.254
-380.931	-82.921	-0.098	-0.031
-379.917	213.524	-0.113	0.177
-378.902	301.618	-0.066	-0.122
-377.888	143.108	0.113	-0.149
-376.873	-200.000	-0.073	-0.329
-375.858	-133.604	-0.260	0.032
-374.844	800.000	-0.084	0.248
-373.829	-32.192	-0.182	0.101
-372.815	199.406	-0.083	-0.126
-371.800	800.000	-0.087	0.290
-370.785	386.967	-0.225	-0.462
-369.771	-156.937	-0.039	0.002
-368.756	-96.951	-0.207	-0.054
-367.742	-36.034	-0.300	0.161
-366.727	356.596	-0.167	0.331
-365.712	-200.000	0.023	0.263
-364.698	-33.321	0.079	0.043
-363.683	19.005	0.228	0.182
-362.669	-135.072	0.244	0.029
-361.654	800.000	-0.020	0.075
-360.639	69.286	0.199	0.203
-359.625	-33.204	0.330	-0.182
-358.610	30.119	-0.263	0.223
-357.596	210.771	-0.144	-0.225
-356.581	-200.000	0.002	0.049
-355.566	425.849	-0.111	-0.238
-354.552	800.000	0.014	0.045
-353.537	-43.000	0.239	-0.120
-352.523	-74.665	0.121	0.043
-351.508	-9.212	-0.155	-0.103
-350.493	108.702	-0.239	-0.283
-349.479	490.203	0.053	-0.120
-348.464	31.427	-0.102	-0.087
-347.450	-181.097	-0.068	-0.001
-346.435	230.555	-0.156	0.254
-345.420	112.420	-0.259	0.311
-344.406	198.995	-0.115	-0.175
-343.391	-9.882	-0.139	0.092
-342.377	-106.820	0.373	0.082
-341.362	-92.277	-0.276	-0.077
-340.348	-28.130	0.110	-0.063
-339.333	6.735	-0.070	0.052
-338.318	-200.000	-0.058	-0.341
-337.304	225.656	0.096	0.154
-336.289	-200.000	-0.030	0.363
-335.275	218.596	0.089	-0.141
-334.260	500.824	-0.071	-0.163
-333.245	624.917	-0.070	-0.175
-332.231	477.686	-0.058	-0.131
-331.216	-11.189	0.218	-0.143
-330.202	-77.590	0.420	-0.144
-329.187	85.446	-0.141	0.153
-328.172	307.544	0.067	0.124
-327.158	-22.017	-0.086	0.052
-326.143	62.655	0.356	0.353
-325.129	55.756	-0.180	-0.173
-324.114	-27.269	0.139	-0.080
-323.099	181.471	0.034	-0.050
-322.085	127.628	-0.126	-0.158
-321.070	196.511	0.156	0.235
-320.056	167.448	-0.117	0.165
-319.041	-108.166	-0.339	0.073
-318.026	-120.774	0.082	-0.014
-317.012	-161.529	0.233	-0.012
-315.997	-89.686	-0.136	-0.040
-314.983	119.747	-0.133	-0.163
-313.968	137.921	0.221	-0.287
-312.953	244.491	0.107	-0.178
-311.939	-200.000	-0.017	-0.111
-310.924	-115.529	-0.170	-0.032
-309.910	42.367	-0.138	0.124
-308.895	-107.086	-0.139	-0.030
-307.880	290.966	-0.069	0.124
-306.866	800.000	-0.052	-0.200
-305.851	-45.694	-0.162	-0.079
-304.837	-102.465	-0.353	0.084
-303.822	134.388	-0.267	0.342
-302.807	-49.351	0.060	-0.028
-301.793	-200.000	0.007	0.114
-300.778	183.039	-0.116	-0.170
-299.764	-200.000	0.051	0.323
-298.749	-98.459	-0.066	0.017
-297.735	219.729	0.164	0.260
-296.720	-13.863	0.150	-0.096
-295.705	-28.397	-0.324	-0.185
-294.691	-200.000	0.002	0.248
-293.676	199.944	-0.125	-0.190
-292.662	8.749	-0.132	-0.099
-291.647	157.355	-0.244	-0.334
-290.632	-122.647	0.193	0.031
-289.618	474.904	-0.093	0.209
-288.603	-120.299	0.251	-0.042
-287.589	67.947	-0.069	0.070
-286.574	44.445	-0.274	0.249
-285.559	-6.363	0.226	-0.152
-284.545	-200.000	0.023	0.106
-283.530	-19.248	-0.062	0.038
-282.516	239.267	0.124	0.205
-281.501	-200.000	0.014	0.217
-280.486	-200.000	0.074	0.357
-279.472	-103.285	0.315	-0.074
-278.457	-23.802	-0.270	0.160
-277.443	800.000	0.048	0.131
-276.428	-37.821	-0.223	0.117
-275.413	2.640	0.343	0.246
-274.399	800.000	0.111	0.446
-273.384	-200.000	0.067	0.310
-272.370	-200.000	-0.025	0.179
-271.355	-64.253	-0.320	0.129
-270.340	252.183	-0.042	0.071
-269.326	-50.479	-0.210	-0.098
-268.311	31.827	0.222	-0.189
-267.297	263.495	-0.040	-0.069
-266.282	424.614	0.135	0.288
-265.267	71.219	0.147	0.150
-264.253	70.540	0.155	0.159
-263.238	176.173	-0.121	0.174
-262.224	-132.404	0.106	-0.014
-261.209	-200.000	-0.030	0.180
-260.195	800.000	0.036	-0.152
-259.180	-139.527	0.128	0.014
-258.165	-102.205	-0.429	-0.102
-257.151	1.372	0.219	-0.155
-256.136	-113.332	0.355	-0.069
-255.122	16.010	0.260	-0.202
-254.107	672.091	-0.095	0.244
-253.092	-200.000	0.004	-0.037
-252.078	616.361	-0.052	-0.130
-251.063	-32.001	0.183	-0.101
-250.049	800.000	0.076	-0.279
-249.034	-112.905	-0.215	0.042
-248.019	256.591	0.253	-0.430
-247.005	-18.926	0.116	0.071
-245.990	14.822	-0.259	0.200
-244.976	58.940	0.025	0.024
-243.961	396.737	-0.036	-0.074
-242.946	-190.645	-0.308	-0.003
-241.932	111.116	0.122	-0.145
-240.917	-171.126	0.200	0.007
-239.903	33.962	-0.093	-0.080
-238.888	-200.000	0.018	-0.105
-237.873	21.264	-0.093	-0.074
-236.859	-148.269	-0.445	0.036
-235.844	180.387	0.179	-0.259
-234.830	64.559	-0.248	0.247
-233.815	800.000	0.041	0.115
-232.800	800.000	0.054	-0.176
-231.786	535.576	0.088	-0.205
-230.771	-122.550	-0.106	0.017
-229.757	800.000	-0.015	-0.045
-228.742	-97.745	-0.086	0.022
-227.727	733.874	-0.092	0.243
-226.713	-200.000	0.026	0.295
-225.698	39.176	0.094	-0.083
-224.684	800.000	0.071	0.298
-223.669	629.703	-0.088	-0.220
-222.655	13.455	0.211	0.161
-221.640	-62.724	0.252	-0.103
-220.625	-33.719	-0.212	0.115
-219.611	-55.264	-0.197	0.087
-218.596	96.241	-0.032	-0.036
-217.582	218.919	-0.142	-0.224
-216.567	-53.796	0.306	-0.138
-215.552	-200.000	-0.004	-0.276
-214.538	-200.000	-0.052	-0.483
-213.523	-200.000	0.055	0.243
-212.509	-77.667	0.295	-0.101
-211.494	-24.984	0.063	0.037
-210.479	238.341	0.061	0.101
-209.465	137.316	-0.066	-0.085
-208.450	-200.000	0.028	-0.132
-207.436	-200.000	0.003	-0.136
-206.421	91.279	-0.321	0.355
-205.406	645.600	0.056	-0.140
-204.392	-176.778	0.166	0.004
-203.377	800.000	0.116	-0.369
-202.363	64.164	-0.108	-0.107
-201.348	128.918	0.178	0.224
-200.333	48.019	0.235	-0.217
-199.319	-44.655	-0.080	0.039
-198.304	169.061	-0.160	-0.225
-197.290	800.000	0.115	-0.337
-196.275	-105.831	-0.308	0.069
-195.260	59.918	0.349	-0.340
-194.246	800.000	0.057	0.223
-193.231	-200.000	0.039	-0.315
-192.217	603.282	-0.097	0.239
-191.202	-200.000	0.046	0.305
-190.187	-200.000	0.011	-0.063
-189.173	-153.649	0.316	0.021
-188.158	360.761	0.033	-0.064
-187.144	-200.000	0.006	-0.047
-186.129	37.528	-0.122	-0.107
-185.114	-200.000	0.030	0.167
-184.100	-200.000	-0.002	0.153
-183.085	183.686	-0.050	0.073
-182.071	-46.043	-0.169	-0.082
-181.056	417.832	-0.086	-0.181
-180.042	-200.000	-0.018	-0.178
-179.027	306.119	0.163	-0.299
-178.012	-105.065	0.095	-0.022
-176.998	68.620	-0.221	-0.223
-175.983	-178.053	0.159	0.004
-174.969	19.967	-0.168	-0.133
-173.954	-160.865	-0.285	0.015
-172.939	-62.013	0.232	-0.095
-171.925	-200.000	-0.108	-0.509
-170.910	-81.513	0.093	0.030
-169.896	-36.298	-0.201	-0.107
-168.881	-200.000	-0.029	-0.158
-167.866	121.841	0.290	-0.357
-166.852	-200.000	0.063	-0.336
-165.837	-44.067	0.082	-0.041
-164.823	-51.198	-0.208	0.096
-163.808	-44.773	-0.302	0.149
-162.793	-19.784	-0.105	-0.064
-161.779	-154.098	-0.209	-0.014
-160.764	138.043	-0.127	-0.164
-159.750	5.827	-0.325	0.237
-158.735	-90.444	0.326	-0.093
-157.720	88.066	0.130	-0.143
-156.706	800.000	0.017	-0.070
-155.691	-34.021	-0.272	-0.147
-154.677	260.132	0.237	-0.403
-153.662	7.273	-0.095	-0.070
-152.647	-23.778	-0.151	-0.089
-151.633	474.929	-0.096	0.213
-150.618	29.461	0.211	0.177
-149.604	-41.803	0.376	0.190
-148.589	-21.111	-0.151	0.091
-147.574	-80.714	-0.221	0.072
-146.560	80.380	0.136	-0.144
-145.545	-51.767	-0.281	0.129
-144.531	-54.196	-0.387	0.173
-143.516	-153.274	-0.119	0.008
-142.502	-147.201	0.203	0.017
-141.487	-39.083	-0.071	0.037
-140.472	-46.209	0.151	-0.073
-139.458	-66.998	0.223	0.087
-138.443	-154.211	-0.049	0.003
-137.429	-46.960	0.283	-0.136
-136.414	-147.928	-0.188	-0.015
-135.399	-4.555	0.205	-0.139
-134.385	10.158	0.316	-0.236
-133.370	-71.274	-0.353	0.130
-132.356	643.134	0.066	-0.166
-131.341	-200.000	-0.021	-0.146
-130.326	-200.000	-0.019	0.104
-129.312	336.849	-0.115	0.220
-128.297	-200.000	0.028	0.170
-127.283	-200.000	-0.016	0.411
-126.268	800.000	0.083	0.231
-125.253	-108.438	0.307	0.065
-124.239	-200.000	0.005	-0.203
-123.224	48.255	0.224	-0.206
-122.210	-200.000	-0.005	-0.257
-121.195	142.008	-0.077	-0.101
-120.180	36.443	-0.117	-0.102
-119.166	384.340	-0.125	-0.253
-118.151	357.384	-0.135	-0.266
-117.137	-200.000	-0.026	-0.150
-116.122	-200.000	-0.021	0.321
-115.107	-140.099	0.165	-0.017
-114.093	-78.776	0.309	0.104
-113.078	-147.592	0.176	0.015
-112.064	152.473	-0.075	0.101
-111.049	-161.072	-0.060	-0.003
-110.034	-94.705	-0.384	0.103
-109.020	144.575	0.224	0.295
-108.005	-4.954	0.059	0.040
-106.991	67.765	0.207	0.208
-105.976	-200.000	-0.008	-0.292
-104.962	-74.125	-0.291	-0.104
-103.947	199.034	0.035	-0.053
-102.932	-16.807	-0.064	-0.040
-101.918	48.687	-0.175	0.161
-100.903	75.544	0.239	0.248
-99.889	167.506	0.120	0.167
-98.874	-200.000	-0.005	0.107
-97.859	709.608	0.065	-0.169
-96.845	77.390	0.054	0.056
-95.830	-200.000	0.025	0.355
-94.816	-63.470	0.272	-0.110
-93.801	-5.642	0.072	-0.049
-92.786	800.000	-0.110	0.374
-91.772	-148.056	0.422	0.034
-90.757	117.813	0.076	-0.092
-89.743	800.000	0.037	-0.129
-88.728	631.639	0.114	0.283
-87.713	-200.000	0.017	0.316
-86.699	-77.392	0.277	0.094
-85.684	-8.894	0.223	-0.147
-84.670	800.000	0.070	0.204
-83.655	-200.000	-0.063	0.383
-82.640	106.607	-0.135	-0.157
-81.626	-42.932	-0.227	0.113
-80.611	-25.310	0.182	0.106
-79.597	-105.750	0.125	0.028
-78.582	-72.395	-0.137	-0.050
-77.567	-151.351	0.337	-0.025
-76.553	-200.000	-0.041	-0.204
-75.538	-200.000	-0.019	0.283
-74.524	374.588	0.238	0.476
-73.509	-42.160	-0.298	-0.150
-72.494	11.292	-0.173	0.130
-71.480	41.235	0.375	0.333
-70.465	-88.284	0.302	-0.089
-69.451	347.562	0.087	-0.169
-68.436	125.095	-0.062	0.077
-67.422	194.013	-0.198	0.294
-66.407	800.000	0.117	-0.317
-65.392	-29.265	0.172	0.097
-64.378	52.030	0.136	-0.127
-63.363	51.451	-0.294	0.274
-62.349	54.226	0.116	0.110
-61.334	80.289	-0.876	-0.924
-60.319	387.066	0.358	0.727
-59.305	-200.000	-0.171	-0.977
-58.290	257.143	0.717	1.210
-57.276	800.000	0.629	1.774
-56.261	-200.000	109.785	605.390
-55.246	498.625	1522.172	3439.062
-54.232	173.842	2712.507	3840.958
-53.217	108.516	2176.565	2548.613
-52.203	39.646	1613.335	1418.792
-51.188	31.397	1351.960	1138.881
-50.173	28.414	1312.095	1087.586
-49.159	52.969	1368.680	1284.077
-48.144	52.405	1383.350	1294.369
-47.130	31.579	1337.420	1127.551
-46.115	28.224	1319.517	1092.430
-45.100	27.953	1314.724	1086.805
-44.086	27.892	1312.372	1084.459
-43.071	27.823	1309.656	1081.759
-42.057	27.887	1307.697	1080.480
-41.042	27.888	1306.009	1079.048
-40.027	27.976	1304.451	1078.234
-39.013	27.939	1302.228	1076.139
-37.998	27.968	1300.669	1074.981
-36.984	27.964	1298.493	1073.114
-35.969	28.108	1296.773	1072.492
-34.954	28.066	1295.417	1071.081
-33.940	28.071	1293.842	1069.769
-32.925	28.168	1292.426	1069.124
-31.911	28.040	1291.406	1067.486
-30.896	28.075	1290.005	1066.490
-29.881	28.142	1288.402	1065.515
-28.867	28.100	1287.198	1064.231
-27.852	28.168	1285.739	1063.378
-26.838	28.110	1284.147	1061.684
-25.823	28.198	1283.087	1061.275
-24.809	28.077	1281.855	1059.514
-23.794	28.021	1280.427	1057.968
-22.779	28.223	1278.904	1057.831
-21.765	28.227	1277.455	1056.616
-20.750	28.193	1276.006	1055.182
-19.736	28.171	1274.612	1053.861
-18.721	28.054	1273.984	1052.624
-17.706	28.042	1272.537	1051.319
-16.692	28.023	1271.685	1050.462
-15.677	28.008	1270.360	1049.238
-14.663	28.049	1269.210	1048.486
-13.648	27.928	1268.617	1047.257
-12.633	28.027	1267.609	1046.955
-11.619	28.040	1266.454	1046.033
-10.604	27.894	1266.223	1044.963
-9.590	27.941	1265.008	1044.189
-8.575	27.892	1264.417	1043.382
-7.560	27.971	1262.790	1042.448
-6.546	27.921	1261.899	1041.386
-5.531	27.995	1261.355	1041.317
-4.517	27.976	1260.320	1040.310
-3.502	27.822	1260.060	1039.179
-2.487	28.027	1258.600	1039.099
-1.473	28.059	1254.779	1036.086
-0.458	27.206	1240.610	1019.565
0.556	24.843	1224.785	987.947
1.571	21.831	1230.944	976.085
2.586	21.036	1246.163	983.584
3.600	20.199	1233.772	969.045
4.615	14.916	1160.846	883.836
5.629	7.065	1087.684	789.042
6.644	3.685	1068.712	758.631
7.659	3.499	1065.955	755.694
8.673	3.633	1064.937	755.566
9.688	3.663	1063.691	754.761
10.702	3.778	1061.926	754.000
11.717	8.251	1068.162	780.272
12.731	16.025	1078.876	826.289
13.746	19.345	1083.103	845.763
14.761	19.517	1082.255	845.868
15.775	18.627	1080.662	840.192
16.790	17.532	1078.979	833.452
17.804	16.908	1076.972	828.781
18.819	16.651	1075.736	826.501
19.834	16.474	1075.232	825.179
20.848	16.271	1074.194	823.316
21.863	15.980	1073.652	821.414
22.877	15.803	1072.825	819.843
23.892	15.808	1072.182	819.305
24.907	15.937	1071.123	819.048
25.921	15.946	1070.052	818.203
26.936	15.885	1068.746	816.835
27.950	16.020	1067.664	816.591
28.965	16.088	1066.408	815.885
29.980	16.148	1064.693	814.792
30.994	16.293	1063.344	814.386
32.009	16.316	1062.339	813.658
33.023	16.284	1061.482	812.771
34.038	16.057	1060.451	810.821
35.053	16.057	1059.433	809.970
36.067	16.088	1058.579	809.394
37.082	16.035	1057.658	808.364
38.096	16.227	1057.183	808.852
39.111	16.237	1055.917	807.860
40.126	15.941	1055.341	805.928
41.140	15.891	1053.569	804.268
42.155	15.722	1052.684	802.711
43.169	15.759	1051.212	801.694
44.184	15.793	1050.469	801.222
45.199	15.707	1049.698	800.154
46.213	15.943	1048.095	799.982
47.228	15.992	1047.481	799.672
48.242	16.015	1046.578	799.021
49.257	15.971	1045.456	797.886
50.271	16.054	1045.149	797.972
51.286	16.140	1044.005	797.439
52.301	16.092	1042.608	796.071
53.315	15.968	1042.002	794.955
54.330	16.025	1040.416	793.944
55.344	15.808	1039.772	792.361
56.359	15.946	1039.128	792.448
57.374	15.798	1038.432	791.152
58.388	15.794	1037.247	790.161
59.403	15.724	1036.701	789.345
60.417	15.727	1035.888	788.670
61.432	15.770	1034.471	787.721
62.447	15.723	1033.756	786.891
63.461	15.605	1033.396	785.994
64.476	15.681	1032.135	785.320
65.490	15.678	1031.149	784.487
66.505	15.708	1030.677	784.200
67.520	15.660	1030.000	783.390
68.534	15.725	1029.680	783.379
69.549	15.648	1028.522	782.069
70.563	15.536	1027.783	780.921
71.578	15.425	1027.121	779.830
72.593	15.450	1026.376	779.315
73.607	15.426	1025.560	778.512
74.622	15.603	1025.195	778.990
75.636	15.507	1024.291	777.786
76.651	15.582	1023.693	777.611
77.666	15.556	1023.139	777.004
78.680	15.602	1022.399	776.584
79.695	15.653	1021.368	775.969
80.709	15.933	1020.603	776.607
81.724	15.846	1020.342	775.942
82.739	15.671	1019.868	774.706
83.753	15.896	1019.535	775.420
84.768	16.194	1018.294	775.776
85.782	16.340	1016.958	775.361
86.797	16.159	1016.451	774.076
87.812	16.067	1015.209	772.642
88.826	15.988	1014.708	771.828
89.841	16.015	1013.916	771.281
90.855	16.201	1012.507	770.992
91.870	16.206	1012.036	770.588
92.884	16.167	1011.025	769.572
93.899	16.245	1010.073	769.134
94.914	16.342	1009.466	769.045
95.928	16.215	1008.662	767.786
96.943	16.290	1007.691	767.320
97.957	16.205	1006.626	766.054
98.972	16.118	1005.913	765.049
99.987	16.169	1004.842	764.401
101.001	16.241	1003.752	763.827
102.016	16.087	1003.319	762.736
103.030	16.208	1002.421	762.530
104.045	16.233	1001.334	761.751
105.060	16.074	1000.932	760.658
106.074	15.938	999.635	758.993
107.089	15.713	998.870	757.331
108.103	15.733	997.468	756.294
109.118	15.738	996.542	755.545
110.133	15.726	995.341	754.518
111.147	15.731	994.579	753.895
112.162	15.938	993.820	754.179
113.176	15.807	993.552	753.322
114.191	15.887	992.873	753.098
115.206	15.898	991.945	752.376
116.220	15.863	991.073	751.491
117.235	15.842	990.218	750.686
118.249	15.890	989.430	750.232
119.264	15.817	988.134	748.861
120.279	15.726	987.864	748.183
121.293	15.719	986.737	747.232
122.308	15.808	985.671	746.755
123.322	15.560	985.119	745.173
124.337	15.689	983.672	744.581
125.352	15.665	983.020	743.916
126.366	15.629	982.160	743.042
127.381	15.511	981.104	741.654
128.395	15.669	979.884	741.363
129.410	15.730	979.084	740.960
130.424	15.746	978.363	740.420
131.439	15.938	977.437	740.498
132.454	15.847	977.090	739.771
133.468	15.832	976.244	739.001
134.483	15.900	975.133	738.391
135.497	15.766	974.547	737.297
136.512	15.875	973.403	736.841
137.527	15.955	972.413	736.376
138.541	16.007	971.793	736.067
139.556	15.887	971.138	734.982
140.570	16.022	970.773	735.233
141.585	16.242	969.454	735.127
142.600	16.191	969.148	734.604
143.614	16.204	968.457	734.074
144.629	16.214	967.325	733.193
145.643	16.179	966.674	732.485
146.658	16.015	965.575	730.876
147.673	16.014	963.942	729.569
148.687	16.011	963.330	729.029
149.702	15.945	962.451	728.014
150.716	15.923	961.748	727.322
151.731	15.955	961.107	726.913
152.746	16.073	960.121	726.611
153.760	16.007	960.220	726.337
154.775	15.986	959.180	725.397
155.789	16.151	958.460	725.499
156.804	16.167	957.898	725.075
157.819	16.131	957.222	724.348
158.833	16.220	956.963	724.469
159.848	16.419	955.562	724.194
160.862	16.205	954.539	722.442
161.877	16.008	953.805	720.977
162.892	16.062	952.586	720.225
163.906	15.941	951.702	718.974
164.921	16.050	950.774	718.673
165.935	16.225	949.779	718.607
166.950	16.030	949.750	717.689
167.964	16.105	948.461	716.969
168.979	16.077	947.369	715.963
169.994	16.064	946.822	715.430
171.008	16.269	946.252	715.804
172.023	16.181	945.807	715.032
173.037	16.375	944.437	714.756
174.052	16.276	944.054	713.984
175.067	15.989	943.571	712.341
176.081	15.945	943.080	711.723
177.096	15.956	942.318	711.132
178.110	16.215	941.643	711.649
179.125	16.224	940.767	710.963
180.140	16.265	940.558	710.916
181.154	16.258	940.433	710.729
182.169	16.413	939.759	710.808
183.183	16.367	939.189	710.121
184.198	16.460	938.345	709.810
185.213	16.379	937.828	709.018
186.227	16.307	937.482	708.389
187.242	16.561	936.231	708.446
188.256	16.661	936.241	708.808
189.271	16.442	935.322	707.134
190.286	16.272	933.938	705.316
191.300	15.970	933.360	703.554
192.315	16.109	932.316	703.288
193.329	16.009	932.249	702.759
194.344	16.122	931.397	702.525
195.359	16.330	930.293	702.494
196.373	16.407	930.151	702.644
197.388	16.598	929.893	703.183
198.402	16.594	929.746	702.992
199.417	16.675	928.955	702.667
200.432	16.710	928.574	702.463
201.446	16.774	927.766	702.056
202.461	16.980	927.065	702.314
203.475	16.809	926.659	701.236
204.490	16.651	925.609	699.728
205.504	16.483	925.348	698.775
206.519	16.461	924.486	697.969
207.534	16.615	923.342	697.680
208.548	16.727	922.722	697.609
209.563	16.579	922.388	696.685
210.577	16.721	921.369	696.441
211.592	16.784	921.021	696.373
212.607	16.861	920.295	696.078
213.621	16.750	919.331	694.836
214.636	16.774	918.891	694.539
215.650	16.735	918.293	693.864
216.665	16.787	917.591	693.485
217.680	16.951	916.654	693.388
218.694	16.926	915.823	692.595
219.709	17.033	915.102	692.425
220.723	16.859	915.055	691.620
221.738	16.937	913.949	691.040
222.753	16.764	913.840	690.192
223.767	16.926	912.990	690.147
224.782	16.996	912.507	690.007
225.796	16.999	912.216	689.735
226.811	16.971	911.211	688.800
227.826	16.962	909.969	687.766
228.840	16.916	909.347	687.049
229.855	16.994	908.359	686.557
230.869	16.890	907.907	685.732
231.884	17.003	907.061	685.489
232.899	16.827	906.463	684.269
233.913	16.768	905.951	683.584
234.928	16.820	905.140	683.121
235.942	16.840	904.376	682.565
236.957	16.884	904.191	682.541
237.972	16.804	903.817	681.876
238.986	16.896	902.867	681.468
240.001	16.815	902.709	680.963
241.015	16.887	901.816	680.518
242.030	17.062	900.585	680.229
243.045	17.009	900.278	679.728
244.059	16.907	899.989	679.042
245.074	17.062	899.384	679.145
246.088	17.096	898.346	678.433
247.103	17.219	898.004	678.607
248.117	17.225	897.779	678.402
249.132	17.442	897.024	678.636
250.147	17.562	896.729	678.830
251.161	17.495	896.299	678.181
252.176	17.538	895.351	677.573
253.190	17.697	894.450	677.463
254.205	17.598	894.060	676.716
255.220	17.666	893.333	676.376
256.234	17.638	892.789	675.793
257.249	17.757	892.033	675.632
258.263	17.607	891.313	674.430
259.278	17.612	890.475	673.760
260.293	17.747	890.164	673.999
261.307	17.812	889.663	673.816
262.322	17.895	888.885	673.493
263.336	17.762	888.241	672.422
264.351	17.931	887.436	672.418
265.366	17.950	886.645	671.836
266.380	17.937	886.267	671.436
267.395	17.758	885.687	670.235
268.409	17.624	884.672	668.883
269.424	17.792	883.848	668.859
270.439	17.549	883.743	667.765
271.453	17.636	882.681	667.246
272.468	17.748	882.126	667.206
273.482	17.690	881.553	666.484
274.497	17.760	881.177	666.419
275.512	17.648	880.773	665.615
276.526	17.757	880.086	665.461
277.541	17.566	880.038	664.622
278.555	17.941	879.535	665.645
279.570	18.106	878.113	665.154
280.585	18.113	877.566	664.704
281.599	17.879	876.675	663.063
282.614	17.828	875.747	662.103
283.628	17.770	875.663	661.757
284.643	17.701	875.173	661.061
285.657	17.815	874.587	661.003
286.672	17.969	873.756	660.910
287.687	17.991	873.099	660.442
288.701	17.984	872.425	659.846
289.716	17.957	871.834	659.234
290.730	17.919	871.470	658.757
291.745	17.924	870.856	658.252
292.760	18.133	869.705	658.128
293.774	18.184	869.639	658.216
294.789	18.200	868.744	657.542
295.803	18.013	868.060	656.251
296.818	17.934	867.382	655.376
297.833	18.057	866.781	655.335
298.847	17.913	866.109	654.218
299.862	18.010	865.878	654.357
300.876	18.113	865.344	654.289
301.891	18.202	864.819	654.174
302.906	18.303	863.909	653.815
303.920	18.517	863.362	654.159
304.935	18.517	863.002	653.830
305.949	18.324	862.447	652.614
306.964	18.160	862.332	651.843
307.979	18.261	861.221	651.331
308.993	18.342	860.564	651.084
310.008	18.442	859.950	650.942
311.022	18.306	859.405	649.957
312.037	18.237	858.755	649.147
313.052	18.189	858.401	648.638
314.066	18.220	857.160	647.760
315.081	18.126	856.779	647.061
316.095	18.114	856.662	646.871
317.110	18.225	855.890	646.649
318.125	18.260	854.997	646.047
319.139	18.176	854.664	645.423
320.154	18.303	854.551	645.757
321.168	18.207	853.938	644.879
322.183	18.239	853.549	644.647
323.197	18.300	852.722	644.196
324.212	18.336	852.531	644.127
325.227	18.206	851.845	643.066
326.241	18.331	850.929	642.786
327.256	18.321	850.196	642.136
328.270	18.147	850.090	641.349
329.285	18.193	849.557	641.063
330.300	18.260	848.550	640.496
331.314	18.303	848.141	640.289
332.329	18.385	848.057	640.478
333.343	18.490	847.627	640.489
334.358	18.445	846.974	639.769
335.373	18.457	846.964	639.752
336.387	18.531	846.288	639.461
337.402	18.502	846.215	639.242
338.416	18.650	846.134	639.675
339.431	18.822	845.523	639.798
340.446	18.721	845.157	639.086
341.460	18.820	844.849	639.165
342.475	18.890	844.249	638.914
343.489	18.992	843.605	638.750
344.504	18.862	843.683	638.271
345.519	18.959	842.635	637.781
346.533	18.902	842.181	637.168
347.548	18.643	841.878	635.924
348.562	18.753	840.890	635.530
349.577	18.644	840.439	634.729
350.592	18.463	839.835	633.547
351.606	18.653	839.133	633.661
352.621	18.624	838.442	632.977
353.635	18.789	837.601	632.894
354.650	18.774	837.391	632.625
355.665	18.739	836.777	631.975
356.679	18.850	835.970	631.719
357.694	18.952	835.243	631.489
358.708	18.885	834.605	630.706
359.723	18.818	834.199	630.095
360.738	18.931	833.535	629.952
361.752	19.017	832.683	629.570
362.767	19.043	832.130	629.189
363.781	19.119	832.059	629.359
364.796	19.238	831.484	629.302
365.810	19.223	831.478	629.188
366.825	19.111	831.357	628.630
367.840	19.129	830.584	628.057
368.854	19.198	829.874	627.716
369.869	19.198	829.470	627.353
370.883	19.060	828.981	626.426
371.898	19.259	828.760	626.927
372.913	19.381	828.307	626.975
373.927	19.233	827.728	625.942
374.942	19.132	827.570	625.401
375.956	19.401	826.679	625.649
376.971	19.493	826.232	625.586
377.986	19.553	825.941	625.529
379.000	19.489	825.339	624.787
380.015	19.401	825.065	624.207
381.029	19.524	824.424	624.108
382.044	19.613	823.482	623.662
383.059	19.493	823.065	622.859
384.073	19.414	822.412	622.024
385.088	19.385	821.836	621.430
386.102	19.323	821.185	620.657
387.117	19.385	820.775	620.518
388.132	19.387	820.315	620.123
389.146	19.374	819.673	619.535
390.161	19.460	819.442	619.614
391.175	19.618	818.622	619.506
392.190	19.360	818.279	618.267
393.205	19.422	817.840	618.104
394.219	19.477	817.161	617.731
395.234	19.276	817.105	616.914
396.248	19.233	816.505	616.255
397.263	19.211	815.943	615.695
398.278	19.252	815.412	615.386
399.292	19.105	815.297	614.722
400.307	19.241	814.856	614.821
401.321	19.260	814.354	614.453
402.336	19.355	813.840	614.351
403.350	19.518	813.351	614.507
404.365	19.560	812.950	614.299
405.380	19.747	812.162	614.314
406.394	19.797	811.815	614.174
407.409	19.822	811.471	613.951
408.423	19.762	811.632	613.803
409.438	19.724	811.414	613.448
410.453	19.862	810.668	613.321
411.467	19.859	809.814	612.611
412.482	19.884	809.881	612.695
413.496	19.986	809.545	612.747
414.511	20.060	809.046	612.577
415.526	19.931	808.478	611.636
416.540	19.932	807.867	611.125
417.555	19.972	807.406	610.863
418.569	19.995	806.998	610.580
419.584	19.922	806.643	609.999
420.599	19.912	806.276	609.635
421.613	160.123	1372.614	1794.997
422.628	139.160	1455.131	1795.105
