DTS Sentinel unit serial number:	SN413079Multiplexer serial number:	ORYXHardware model number:	OX4-SRSoftware version number:	ORYX F/W v4.00 Oryx Data Collector v3.7.2.0data status	okinstallation	princeton_trtdifferential loss correction	single-endedforward channel	channel 1reverse channel	N/Adate	2019/09/17time	05:42:35forward acquisition time	60.00reverse acquisition time	0.00gamma	496.2192k internal	0.2325k external	0.2325temperature offset calibration	0.9965default loss term (dB/km)	0.3790temperature slope calibration	1.0000multiplexer offset coefficient	1.0000multiplexer slope coefficient	1.0000fibre end	0.00T internal ref (°C)	29.06T ext. ref 1 (°C)	0.14T ext. ref 2 (°C)	22.82length (m)	temperature (°C)	Stokes	anti-Stokes-747.200	-200.000	0.003	0.220
-746.185	6.903	0.092	0.069
-745.171	60.967	-0.036	-0.036
-744.156	-109.239	-0.092	-0.020
-743.142	41.262	0.185	0.168
-742.127	-76.086	-0.070	-0.025
-741.112	-93.855	0.397	0.110
-740.098	800.000	-0.083	0.315
-739.083	-125.363	0.075	-0.012
-738.069	74.278	-0.191	0.202
-737.054	-116.218	-0.072	0.014
-736.039	-8.994	-0.181	-0.122
-735.025	-200.000	-0.003	-0.054
-734.010	800.000	-0.051	-0.175
-732.996	-200.000	0.013	-0.357
-731.981	-138.066	-0.170	-0.019
-730.966	213.945	-0.117	0.187
-729.952	800.000	0.057	-0.191
-728.937	179.643	0.114	-0.168
-727.923	275.252	0.107	0.190
-726.908	-179.897	-0.222	0.005
-725.894	654.277	0.110	-0.284
-724.879	-200.000	0.055	0.322
-723.864	1.327	0.083	0.060
-722.850	377.372	0.029	-0.060
-721.835	387.066	-0.096	0.199
-720.821	-56.667	-0.200	-0.089
-719.806	-66.202	-0.217	0.087
-718.791	492.443	0.080	-0.184
-717.777	100.467	0.139	0.163
-716.762	-140.454	0.100	-0.011
-715.748	-26.851	0.203	-0.119
-714.733	-127.062	-0.285	-0.042
-713.718	34.603	0.089	0.078
-712.704	-200.000	-0.005	0.191
-711.689	-200.000	-0.058	-0.269
-710.675	-136.958	-0.440	-0.051
-709.660	102.140	-0.169	0.199
-708.645	800.000	0.074	0.308
-707.631	-200.000	0.009	0.183
-706.616	800.000	0.154	0.579
-705.602	-113.973	0.111	-0.022
-704.587	101.324	-0.077	0.090
-703.572	91.741	0.130	-0.148
-702.558	-179.911	-0.164	-0.004
-701.543	-30.745	0.100	-0.057
-700.529	-29.336	-0.251	0.145
-699.514	-117.810	0.275	0.050
-698.499	-107.220	0.148	0.033
-697.485	800.000	-0.063	-0.235
-696.470	800.000	-0.024	0.078
-695.456	609.578	0.086	0.217
-694.441	50.584	-0.117	0.111
-693.426	-47.953	-0.145	0.071
-692.412	-175.963	0.260	-0.007
-691.397	-200.000	0.005	-0.053
-690.383	46.398	0.214	-0.200
-689.368	78.922	-0.334	-0.360
-688.354	31.144	-0.309	0.266
-687.339	293.126	-0.057	-0.104
-686.324	-200.000	-0.016	0.124
-685.310	-40.028	-0.090	-0.047
-684.295	238.356	-0.088	-0.148
-683.281	4.357	0.214	0.158
-682.266	244.927	-0.103	0.175
-681.251	-116.958	-0.248	0.046
-680.237	800.000	0.114	0.329
-679.222	-101.562	-0.300	-0.073
-678.208	-159.728	0.386	0.021
-677.193	-22.641	0.041	0.025
-676.178	800.000	-0.135	0.408
-675.164	-83.995	0.214	-0.069
-674.149	-46.177	-0.263	-0.130
-673.135	155.727	-0.307	0.425
-672.120	800.000	0.089	-0.284
-671.105	70.899	0.279	-0.290
-670.091	-149.236	-0.172	-0.014
-669.076	614.612	0.118	0.298
-668.062	-52.243	0.231	-0.108
-667.047	6.484	0.198	-0.148
-666.032	-96.665	0.081	0.021
-665.018	-70.440	-0.350	-0.134
-664.003	184.203	0.222	-0.331
-662.989	385.947	-0.026	-0.055
-661.974	800.000	-0.119	0.400
-660.959	-38.686	-0.255	0.136
-659.945	-35.273	-0.117	0.064
-658.930	156.790	-0.065	-0.090
-657.916	71.924	-0.105	-0.109
-656.901	800.000	0.011	0.043
-655.886	800.000	0.087	-0.311
-654.872	94.424	0.060	-0.069
-653.857	-200.000	-0.006	-0.074
-652.843	245.760	0.087	-0.148
-651.828	-200.000	-0.012	0.080
-650.814	501.768	-0.252	0.586
-649.799	-80.532	-0.174	-0.058
-648.784	76.153	-0.157	-0.167
-647.770	-85.794	-0.408	-0.127
-646.755	-22.575	0.138	0.084
-645.741	800.000	-0.036	-0.105
-644.726	108.670	-0.211	-0.253
-643.711	-191.762	0.102	-0.001
-642.697	-95.567	-0.180	-0.048
-641.682	405.635	0.159	-0.337
-640.668	-200.000	0.039	-0.227
-639.653	-200.000	-0.003	0.360
-638.638	-33.140	-0.133	-0.074
-637.624	545.115	0.079	-0.190
-636.609	-113.934	-0.163	-0.032
-635.595	-15.099	-0.044	-0.028
-634.580	-195.218	0.146	0.001
-633.565	800.000	-0.015	0.054
-632.551	-171.983	0.157	0.005
-631.536	618.178	-0.120	0.304
-630.522	-200.000	0.002	0.098
-629.507	72.050	-0.188	-0.197
-628.492	800.000	0.085	-0.245
-627.478	-93.288	-0.140	-0.039
-626.463	-107.542	0.272	-0.060
-625.449	-200.000	0.004	-0.320
-624.434	562.381	0.105	0.255
-623.419	-65.211	0.271	-0.110
-622.405	-63.464	-0.242	-0.100
-621.390	-76.685	0.296	0.104
-620.376	-140.222	0.149	0.016
-619.361	-93.426	-0.245	-0.068
-618.346	800.000	0.107	0.301
-617.332	105.654	0.140	0.166
-616.317	-89.569	0.236	-0.070
-615.303	-111.571	-0.161	-0.033
-614.288	-149.688	0.308	-0.024
-613.273	78.947	0.123	0.132
-612.259	-151.115	-0.236	-0.018
-611.244	-81.190	0.309	-0.102
-610.230	-5.647	-0.106	-0.073
-609.215	-41.456	-0.510	0.263
-608.201	286.678	-0.171	-0.310
-607.186	800.000	0.049	0.169
-606.171	-200.000	0.012	0.079
-605.157	800.000	0.154	-0.489
-604.142	-200.000	0.082	-0.375
-603.128	800.000	-0.024	-0.086
-602.113	-119.477	0.102	-0.018
-601.098	-106.327	-0.050	0.011
-600.084	183.911	0.178	-0.264
-599.069	800.000	0.062	-0.245
-598.055	-200.000	-0.004	0.120
-597.040	-69.916	-0.209	-0.080
-596.025	612.070	0.136	-0.342
-595.011	82.191	0.158	-0.172
-593.996	164.915	-0.123	0.174
-592.982	-24.239	0.196	-0.117
-591.967	800.000	-0.061	-0.260
-590.952	-47.423	-0.411	0.200
-589.938	-155.997	0.268	-0.017
-588.923	-161.759	0.347	0.018
-587.909	-85.502	-0.344	-0.108
-586.894	43.220	-0.080	-0.074
-585.879	131.013	-0.043	0.055
-584.865	251.228	0.158	-0.269
-583.850	7.747	-0.368	-0.276
-582.836	405.476	0.072	0.152
-581.821	52.067	-0.290	0.277
-580.806	501.344	-0.217	0.501
-579.792	104.292	-0.227	-0.268
-578.777	-89.534	0.194	-0.057
-577.763	-71.005	0.271	-0.102
-576.748	212.091	-0.058	-0.092
-575.733	-46.710	-0.225	-0.110
-574.719	-200.000	-0.043	-0.293
-573.704	182.128	0.166	-0.245
-572.690	-200.000	-0.006	0.298
-571.675	-157.761	0.393	-0.023
-570.661	267.615	0.149	0.261
-569.646	-118.116	-0.304	0.054
-568.631	800.000	-0.084	-0.308
-567.617	-149.162	-0.147	0.012
-566.602	-200.000	-0.036	-0.287
-565.588	74.756	-0.444	-0.468
-564.573	800.000	-0.041	0.143
-563.558	-200.000	-0.102	0.636
-562.544	25.792	-0.216	-0.180
-561.529	24.117	0.138	-0.114
-560.515	-200.000	0.011	-0.115
-559.500	25.644	0.289	-0.241
-558.485	-47.445	0.228	-0.111
-557.471	-200.000	-0.019	0.098
-556.456	-57.983	0.196	0.086
-555.442	177.007	-0.131	0.191
-554.427	800.000	-0.066	-0.183
-553.412	88.949	-0.278	-0.310
-552.398	287.529	0.049	-0.088
-551.383	-120.566	-0.075	-0.013
-550.369	143.116	0.087	-0.116
-549.354	-200.000	-0.045	0.000
-548.339	-38.025	0.310	0.165
-547.325	79.249	0.097	-0.104
-546.310	-36.108	0.237	0.128
-545.296	-200.000	-0.037	0.376
-544.281	-19.180	-0.196	0.122
-543.266	101.641	0.193	0.225
-542.252	286.371	0.093	0.168
-541.237	-55.408	0.090	0.041
-540.223	-200.000	-0.067	-0.426
-539.208	-200.000	-0.043	0.370
-538.193	-50.520	-0.281	-0.133
-537.179	37.107	0.142	0.126
-536.164	26.863	0.236	-0.198
-535.150	-89.526	0.124	0.036
-534.135	54.361	-0.280	-0.270
-533.121	-55.002	-0.121	0.055
-532.106	56.041	-0.201	0.195
-531.091	-45.799	0.320	-0.158
-530.077	-128.593	-0.368	0.052
-529.062	-200.000	0.070	-0.487
-528.048	726.795	-0.086	-0.231
-527.033	-137.740	0.370	0.042
-526.018	-181.067	-0.076	0.002
-525.004	-93.966	0.116	0.032
-523.989	75.917	0.168	-0.178
-522.975	144.189	0.108	0.144
-521.960	-90.595	0.247	-0.071
-520.945	-200.000	-0.097	0.453
-519.931	38.557	0.237	0.211
-518.916	-200.000	-0.000	0.099
-517.902	383.840	0.151	-0.312
-516.887	-9.174	0.208	0.139
-515.872	-90.670	0.196	-0.057
-514.858	127.659	0.201	-0.255
-513.843	800.000	0.047	0.165
-512.829	83.769	0.361	0.394
-511.814	800.000	0.081	0.311
-510.799	-200.000	-0.004	0.033
-509.785	800.000	0.083	0.294
-508.770	-80.748	-0.292	0.097
-507.756	-200.000	0.030	-0.587
-506.741	-200.000	0.003	-0.117
-505.726	235.764	-0.087	-0.144
-504.712	-78.814	-0.171	-0.058
-503.697	-49.628	-0.164	-0.078
-502.683	-200.000	0.003	-0.296
-501.668	184.317	0.167	-0.247
-500.653	-200.000	0.014	0.125
-499.639	159.768	-0.129	-0.180
-498.624	-5.005	-0.240	-0.165
-497.610	-132.785	-0.192	0.025
-496.595	-150.236	0.251	-0.019
-495.581	-187.997	-0.136	-0.002
-494.566	128.933	0.204	0.260
-493.551	800.000	-0.064	0.236
-492.537	-76.688	0.057	0.020
-491.522	325.436	0.110	-0.210
-490.508	-4.707	-0.380	0.262
-489.493	-200.000	0.020	0.411
-488.478	30.301	0.100	0.085
-487.464	-70.623	0.192	-0.073
-486.449	-137.610	-0.130	0.015
-485.435	-29.730	-0.113	0.064
-484.420	-33.505	0.122	0.067
-483.405	120.807	-0.146	0.181
-482.391	707.190	0.088	-0.232
-481.376	100.468	0.096	-0.112
-480.362	197.191	0.100	-0.152
-479.347	-200.000	0.042	0.274
-478.332	-200.000	-0.006	-0.241
-477.318	-200.000	-0.041	0.375
-476.303	800.000	0.065	0.268
-475.289	-37.407	0.191	-0.102
-474.274	-122.537	-0.108	0.017
-473.259	-200.000	0.012	-0.297
-472.245	-200.000	0.087	-0.410
-471.230	-167.166	0.131	-0.005
-470.216	-38.203	0.030	0.016
-469.201	-107.004	-0.189	0.042
-468.186	163.476	0.057	0.080
-467.172	-69.205	-0.144	0.055
-466.157	214.482	-0.153	0.242
-465.143	-184.204	-0.124	-0.002
-464.128	-200.000	-0.013	-0.071
-463.113	-200.000	-0.013	-0.091
-462.099	-76.899	-0.044	-0.015
-461.084	-121.556	0.375	0.062
-460.070	-156.711	0.107	0.007
-459.055	-200.000	-0.005	0.029
-458.040	13.481	0.251	-0.195
-457.026	-200.000	-0.008	-0.277
-456.011	-73.771	-0.312	-0.113
-454.997	-77.968	0.376	0.129
-453.982	396.824	-0.252	0.525
-452.968	-200.000	-0.314	-0.001
-451.953	-200.000	-0.029	-0.321
-450.938	-200.000	0.004	-0.050
-449.924	-200.000	-0.001	-0.007
-448.909	-102.138	0.107	0.026
-447.895	86.151	-0.096	0.105
-446.880	83.408	-0.147	-0.159
-445.865	272.262	-0.084	0.147
-444.851	-36.341	-0.129	-0.069
-443.836	-18.339	0.236	0.147
-442.822	4.602	-0.227	-0.166
-441.807	94.331	-0.141	-0.160
-440.792	-30.525	0.051	-0.029
-439.778	-38.224	-0.196	-0.104
-438.763	-88.767	0.060	-0.018
-437.749	87.042	-0.095	-0.104
-436.734	800.000	0.052	0.148
-435.719	-141.295	0.218	-0.022
-434.705	-7.122	0.183	-0.123
-433.690	233.654	0.038	-0.062
-432.676	-24.247	0.263	0.157
-431.661	435.312	0.101	0.218
-430.646	-111.088	-0.187	-0.038
-429.632	-128.164	0.054	-0.008
-428.617	-108.068	0.062	0.013
-427.603	348.882	0.076	-0.150
-426.588	-134.434	0.108	-0.013
-425.573	45.683	-0.160	0.148
-424.559	-106.478	-0.123	0.027
-423.544	-41.504	-0.167	-0.086
-422.530	-62.874	-0.187	-0.077
-421.515	209.517	-0.153	-0.238
-420.500	-29.624	0.121	-0.069
-419.486	-200.000	-0.283	0.001
-418.471	-110.231	-0.171	0.036
-417.457	800.000	0.079	0.335
-416.442	-58.574	-0.272	0.118
-415.428	-200.000	0.026	-0.167
-414.413	104.868	-0.170	-0.200
-413.398	-153.816	-0.212	-0.014
-412.384	-114.647	-0.211	0.040
-411.369	-159.435	0.135	0.007
-410.355	38.648	0.139	0.123
-409.340	-200.000	-0.042	0.263
-408.325	-200.000	-0.008	0.303
-407.311	-115.476	-0.118	0.022
-406.296	128.122	0.050	0.063
-405.282	44.877	-0.145	0.133
-404.267	-76.795	-0.030	0.010
-403.252	-83.664	0.372	0.118
-402.238	141.283	-0.346	-0.456
-401.223	68.679	0.088	-0.090
-400.209	-200.000	-0.066	0.451
-399.194	-50.378	0.269	0.126
-398.179	800.000	-0.099	0.277
-397.165	-200.000	-0.001	-0.101
-396.150	-143.902	0.061	0.006
-395.136	346.852	-0.088	-0.173
-394.121	-29.646	0.501	-0.285
-393.106	-2.450	-0.141	0.098
-392.092	-139.271	0.187	-0.020
-391.077	-88.836	0.307	0.091
-390.063	-33.544	-0.175	-0.096
-389.048	159.995	0.184	0.256
-388.033	-17.474	-0.244	0.152
-387.019	-32.411	0.413	-0.229
-386.004	-1.701	-0.281	-0.197
-384.990	-200.000	-0.045	-0.234
-383.975	-75.142	-0.177	-0.063
-382.960	284.102	0.223	0.400
-381.946	588.130	0.130	0.318
-380.931	38.785	0.197	-0.175
-379.917	474.463	0.173	-0.389
-378.902	34.540	0.323	-0.280
-377.888	-141.904	-0.616	0.061
-376.873	31.941	0.301	0.258
-375.858	-120.769	0.066	-0.011
-374.844	91.170	-0.214	0.239
-373.829	-200.000	-0.009	0.304
-372.815	111.348	-0.053	-0.064
-371.800	129.562	0.108	-0.137
-370.785	-51.596	-0.136	-0.063
-369.771	-58.887	0.437	-0.188
-368.756	-5.536	-0.020	0.014
-367.742	-200.000	-0.072	0.331
-366.727	-200.000	0.019	0.122
-365.712	-135.141	-0.193	0.023
-364.698	48.837	0.109	-0.102
-363.683	-106.835	0.419	0.092
-362.669	-112.611	-0.144	0.029
-361.654	-3.539	0.242	-0.168
-360.639	-126.185	0.172	0.026
-359.625	289.555	0.061	0.110
-358.610	-64.147	-0.373	-0.151
-357.596	29.232	0.331	0.279
-356.581	487.566	-0.101	0.229
-355.566	-60.745	-0.028	-0.012
-354.552	-149.854	-0.186	-0.014
-353.537	372.471	0.131	0.263
-352.523	-69.803	-0.207	-0.079
-351.508	69.343	0.198	0.203
-350.493	-200.000	-0.010	0.155
-349.479	562.297	-0.091	0.218
-348.464	163.963	-0.171	-0.239
-347.450	149.650	-0.026	0.035
-346.435	-65.293	0.145	0.058
-345.420	68.038	-0.229	-0.233
-344.406	59.004	0.228	-0.222
-343.391	-200.000	-0.028	-0.245
-342.377	-110.672	0.347	0.071
-341.362	-200.000	-0.071	0.382
-340.348	-36.791	0.048	-0.025
-339.333	-196.587	0.441	-0.003
-338.318	-200.000	0.036	0.264
-337.304	-200.000	0.058	0.000
-336.289	-84.641	0.148	-0.046
-335.275	-200.000	-0.018	-0.220
-334.260	-139.956	0.103	0.011
-333.245	-200.000	-0.009	0.132
-332.231	-134.946	0.272	-0.033
-331.216	-200.000	0.003	-0.153
-330.202	66.671	0.312	-0.315
-329.187	71.785	0.278	0.287
-328.172	-160.149	-0.084	0.005
-327.158	-200.000	0.044	-0.245
-326.143	-47.294	0.147	0.071
-325.129	-37.912	-0.146	0.077
-324.114	-29.635	0.281	0.159
-323.099	-99.336	0.464	-0.116
-322.085	-200.000	-0.054	-0.282
-321.070	116.517	0.029	0.035
-320.056	-62.379	-0.251	-0.104
-319.041	120.295	-0.273	0.336
-318.026	800.000	-0.056	0.217
-317.012	22.836	0.212	-0.172
-315.997	63.331	0.326	0.324
-314.983	-200.000	-0.028	0.230
-313.968	-54.963	-0.348	-0.156
-312.953	800.000	0.077	-0.237
-311.939	800.000	0.069	-0.254
-310.924	-200.000	0.008	-0.127
-309.910	-200.000	0.000	0.056
-308.895	-131.512	0.274	0.036
-307.880	-107.395	-0.327	0.071
-306.866	-79.639	0.210	-0.070
-305.851	100.607	-0.104	-0.120
-304.837	-169.961	0.282	0.010
-303.822	-146.916	0.153	-0.013
-302.807	-55.327	0.062	0.028
-301.793	-41.347	0.139	-0.071
-300.778	-40.150	0.326	-0.168
-299.764	664.399	-0.058	-0.148
-298.749	454.683	-0.101	-0.222
-297.735	-121.124	-0.019	0.003
-296.720	139.954	-0.124	-0.162
-295.705	-200.000	-0.015	-0.146
-294.691	-18.838	-0.259	0.160
-293.676	-84.201	-0.255	-0.080
-292.662	150.339	-0.094	-0.127
-291.647	-106.506	-0.134	0.030
-290.632	173.206	-0.067	0.095
-289.618	-27.355	0.278	0.160
-288.603	662.462	0.114	-0.291
-287.589	-14.608	-0.169	0.107
-286.574	-194.054	-0.377	-0.003
-285.559	-41.205	-0.292	0.149
-284.545	-131.716	0.111	-0.014
-283.530	-200.000	-0.025	0.378
-282.516	21.161	-0.365	-0.293
-281.501	90.656	0.028	-0.031
-280.486	-200.000	-0.042	-0.346
-279.472	26.379	-0.150	0.124
-278.457	-125.624	-0.262	-0.039
-277.443	-180.362	0.134	-0.003
-276.428	-200.000	0.060	-0.341
-275.413	167.554	-0.184	-0.259
-274.399	23.833	-0.212	0.173
-273.384	158.339	-0.187	0.257
-272.370	-200.000	-0.020	0.454
-271.355	256.146	0.075	0.128
-270.340	102.208	-0.070	-0.081
-269.326	-200.000	-0.001	0.246
-268.311	-200.000	0.081	0.640
-267.297	-12.212	-0.052	0.034
-266.282	362.852	0.073	0.146
-265.267	15.968	-0.074	-0.058
-264.253	800.000	0.124	0.355
-263.238	-95.001	-0.121	0.032
-262.224	-130.681	-0.446	-0.059
-261.209	73.906	0.173	-0.180
-260.195	800.000	-0.039	0.119
-259.180	76.638	0.014	-0.014
-258.165	-200.000	0.006	0.035
-257.151	-200.000	0.031	0.331
-256.136	-115.700	-0.347	-0.064
-255.122	-35.775	-0.084	-0.045
-254.107	206.299	-0.171	0.263
-253.092	-200.000	-0.321	0.001
-252.078	-42.468	0.147	0.074
-251.063	8.737	0.282	-0.210
-250.049	529.220	-0.167	0.391
-249.034	297.254	-0.100	0.182
-248.019	32.565	0.164	0.140
-247.005	-200.000	-0.034	-0.155
-245.990	97.305	-0.117	-0.133
-244.976	-200.000	0.019	0.253
-243.961	-38.784	-0.031	0.016
-242.946	20.575	-0.095	0.076
-241.932	-11.106	0.179	-0.117
-240.917	726.139	0.052	0.137
-239.903	-50.954	0.220	-0.102
-238.888	10.008	0.072	-0.054
-237.873	-129.615	0.125	0.017
-236.859	-61.332	-0.236	-0.098
-235.844	530.267	-0.102	-0.239
-234.830	-200.000	-0.033	-0.175
-233.815	236.332	-0.115	-0.189
-232.800	-155.064	-0.203	0.013
-231.786	800.000	0.116	0.327
-230.771	-54.492	0.137	-0.061
-229.757	42.710	-0.117	-0.106
-228.742	-149.990	-0.045	0.003
-227.727	-200.000	0.045	0.299
-226.713	151.493	0.174	-0.235
-225.698	48.929	-0.083	0.077
-224.684	800.000	-0.089	0.277
-223.669	358.239	0.103	-0.203
-222.655	-153.928	0.096	0.006
-221.640	694.871	-0.013	-0.035
-220.625	-62.707	0.199	0.082
-219.611	-49.504	0.168	-0.079
-218.596	266.826	-0.154	-0.266
-217.582	-200.000	-0.007	0.067
-216.567	-76.243	-0.113	0.039
-215.552	-200.000	-0.088	0.463
-214.538	-120.507	0.149	-0.025
-213.523	800.000	0.024	-0.072
-212.509	-65.422	-0.414	-0.164
-211.494	-66.453	0.020	-0.008
-210.479	-101.560	0.195	-0.047
-209.465	334.262	-0.056	0.106
-208.450	-117.076	0.279	0.050
-207.436	208.355	0.119	0.183
-206.421	-165.981	-0.016	0.001
-205.406	-77.146	-0.529	0.182
-204.392	-78.970	0.491	0.165
-203.377	800.000	0.054	-0.153
-202.363	800.000	0.055	-0.223
-201.348	-113.746	0.081	-0.016
-200.333	-12.090	-0.158	-0.102
-199.319	547.997	-0.157	0.371
-198.304	-14.570	0.174	0.111
-197.290	238.370	-0.132	0.217
-196.275	800.000	0.140	-0.466
-195.260	-153.643	0.206	0.014
-194.246	324.384	0.095	-0.180
-193.231	-16.608	0.278	-0.174
-192.217	129.117	-0.196	0.247
-191.202	-200.000	0.026	-0.185
-190.187	-111.527	-0.503	-0.101
-189.173	22.871	-0.315	-0.255
-188.158	800.000	-0.085	0.243
-187.144	-53.736	-0.190	0.085
-186.129	-63.202	0.186	0.076
-185.114	235.172	0.234	0.382
-184.100	800.000	-0.126	0.361
-183.085	-114.008	-0.375	0.072
-182.071	-33.673	0.183	0.100
-181.056	-149.284	0.368	-0.029
-180.042	-66.110	-0.103	-0.040
-179.027	-73.800	0.081	-0.029
-178.012	115.572	0.238	-0.287
-176.998	-88.035	-0.323	-0.096
-175.983	-200.000	-0.003	0.049
-174.969	-136.668	0.084	0.010
-173.954	148.367	-0.111	0.147
-172.939	66.314	-0.050	0.050
-171.925	213.776	-0.145	0.227
-170.910	-8.716	-0.284	-0.188
-169.896	19.643	-0.218	0.173
-168.881	191.887	-0.118	-0.176
-167.866	-200.000	0.021	-0.152
-166.852	800.000	0.074	0.310
-165.837	-10.655	-0.403	-0.263
-164.823	-94.472	0.240	-0.064
-163.808	-200.000	-0.030	0.440
-162.793	180.732	0.183	0.265
-161.779	-61.749	0.140	0.058
-160.764	257.257	-0.195	-0.331
-159.750	-114.965	-0.503	-0.094
-158.735	-109.083	0.136	-0.029
-157.720	508.036	-0.080	0.184
-156.706	-200.000	-0.055	-0.266
-155.691	80.059	-0.189	-0.201
-154.677	36.340	0.223	0.194
-153.662	145.270	0.140	0.185
-152.647	-200.000	0.012	0.288
-151.633	-123.877	0.138	0.021
-150.618	202.123	-0.110	-0.167
-149.604	-138.857	0.078	0.008
-148.589	-73.902	0.152	0.054
-147.574	-17.513	0.142	-0.088
-146.560	-200.000	-0.027	-0.268
-145.545	168.220	0.295	0.414
-144.531	-178.895	0.261	0.006
-143.516	-200.000	-0.001	0.216
-142.502	-183.889	0.091	0.002
-141.487	-46.128	-0.358	0.174
-140.472	800.000	0.076	-0.255
-139.458	58.225	0.218	-0.211
-138.443	-123.447	-0.225	-0.035
-137.429	-71.322	0.268	-0.099
-136.414	454.812	-0.050	0.110
-135.399	-153.060	-0.370	0.026
-134.385	-78.067	-0.262	-0.089
-133.370	29.715	0.051	-0.043
-132.356	-73.301	0.105	0.038
-131.341	-200.000	0.007	-0.071
-130.326	203.699	0.110	-0.168
-129.312	-27.899	-0.177	-0.101
-128.297	-200.000	0.033	0.185
-127.283	-106.039	-0.323	-0.072
-126.268	-56.395	0.105	0.046
-125.253	-97.461	0.180	-0.046
-124.239	15.890	-0.022	-0.017
-123.224	-200.000	-0.002	-0.173
-122.210	-139.585	0.287	0.030
-121.195	-135.924	0.108	0.013
-120.180	565.206	0.132	-0.314
-119.166	-81.269	0.144	0.047
-118.151	-34.990	0.271	0.146
-117.137	-200.000	-0.025	0.203
-116.122	233.231	0.035	0.057
-115.107	-35.976	0.278	0.148
-114.093	800.000	0.133	-0.385
-113.078	-42.520	0.141	0.070
-112.064	-63.727	0.294	0.119
-111.049	108.853	-0.222	0.261
-110.034	-200.000	-0.026	0.249
-109.020	-155.227	0.198	-0.013
-108.005	77.919	0.152	-0.160
-106.991	-157.836	-0.286	0.017
-105.976	800.000	0.089	-0.249
-104.962	-105.808	-0.188	-0.042
-103.947	177.615	-0.131	0.188
-102.932	-98.486	-0.383	0.096
-101.918	-51.907	-0.279	0.128
-100.903	-75.967	0.249	-0.087
-99.889	-200.000	-0.146	0.000
-98.874	505.080	0.070	-0.159
-97.859	27.013	0.055	0.045
-96.845	692.108	-0.125	-0.323
-95.830	370.324	0.103	0.204
-94.816	520.535	0.036	-0.084
-93.801	104.013	-0.056	-0.065
-92.786	5.342	0.115	-0.084
-91.772	-45.453	0.212	-0.104
-90.757	31.570	0.085	0.072
-89.743	152.465	-0.150	0.202
-88.728	-146.198	0.269	-0.023
-87.713	-49.964	-0.073	0.034
-86.699	7.022	-0.178	0.130
-85.684	35.630	0.155	0.134
-84.670	-200.000	0.044	0.465
-83.655	758.279	-0.077	0.206
-82.640	-6.543	0.095	-0.063
-81.626	23.804	-0.086	-0.070
-80.611	800.000	0.018	0.072
-79.597	-18.261	-0.241	-0.148
-78.582	-38.421	0.349	-0.182
-77.567	-143.258	0.432	-0.041
-76.553	-78.805	0.393	0.132
-75.538	-131.729	-0.254	0.033
-74.524	-200.000	-0.056	-0.322
-73.509	415.783	-0.088	0.184
-72.494	800.000	-0.081	0.239
-71.480	-131.477	-0.064	0.008
-70.465	-46.313	0.464	0.224
-69.451	-200.000	-0.031	-0.163
-68.436	-118.328	-0.055	0.010
-67.422	-63.481	-0.175	0.070
-66.407	800.000	0.033	-0.140
-65.392	-54.243	-0.400	0.178
-64.378	606.991	-0.099	0.242
-63.363	-200.000	-0.015	0.377
-62.349	-153.261	-0.233	0.016
-61.334	101.510	-0.896	-1.026
-60.319	66.065	0.594	0.592
-59.305	-200.000	-0.277	-1.269
-58.290	66.381	0.886	0.884
-57.276	800.000	0.441	1.590
-56.261	-200.000	110.273	608.197
-55.246	442.671	1508.231	3244.580
-54.232	144.375	2685.131	3520.053
-53.217	105.260	2160.654	2504.949
-52.203	40.565	1607.829	1422.309
-51.188	32.587	1349.564	1145.526
-50.173	29.530	1309.826	1093.675
-49.159	54.872	1364.580	1293.192
-48.144	54.777	1379.269	1306.483
-47.130	32.774	1334.469	1133.655
-46.115	29.303	1316.765	1097.943
-45.100	29.070	1311.943	1092.492
-44.086	29.043	1309.323	1090.112
-43.071	28.936	1306.868	1087.391
-42.057	28.950	1305.052	1085.917
-41.042	29.000	1303.437	1084.827
-40.027	28.983	1301.682	1083.220
-39.013	28.866	1299.875	1080.986
-37.998	28.976	1298.182	1080.182
-36.984	29.040	1296.175	1078.846
-35.969	29.051	1294.333	1077.334
-34.954	28.962	1293.331	1075.937
-33.940	29.033	1291.659	1074.916
-32.925	29.120	1290.177	1074.148
-31.911	29.083	1288.726	1072.682
-30.896	29.121	1287.615	1071.936
-29.881	29.204	1285.473	1070.595
-28.867	29.258	1284.369	1069.944
-27.852	29.204	1282.962	1068.417
-26.838	29.204	1281.397	1067.070
-25.823	29.144	1280.169	1065.660
-24.809	29.137	1278.795	1064.432
-23.794	29.138	1277.439	1063.267
-22.779	29.149	1276.355	1062.385
-21.765	29.201	1275.095	1061.596
-20.750	29.221	1273.359	1060.221
-19.736	29.042	1272.382	1058.341
-18.721	29.061	1271.328	1057.526
-17.706	28.971	1270.447	1056.236
-16.692	29.109	1269.024	1055.806
-15.677	28.889	1268.823	1054.334
-14.663	29.067	1266.866	1053.682
-13.648	29.039	1265.624	1052.451
-12.633	29.053	1264.755	1051.762
-11.619	29.004	1264.236	1051.011
-10.604	29.071	1263.279	1050.556
-9.590	28.981	1262.145	1049.059
-8.575	28.882	1261.718	1048.097
-7.560	28.977	1260.806	1047.842
-6.546	29.073	1259.238	1047.042
-5.531	29.018	1258.818	1046.339
-4.517	28.995	1258.192	1045.644
-3.502	29.056	1256.937	1044.906
-2.487	29.002	1256.217	1043.958
-1.473	28.946	1251.619	1039.783
-0.458	27.421	1236.152	1018.366
0.556	21.910	1219.314	978.887
1.571	17.984	1225.225	961.486
2.586	16.969	1239.458	966.786
3.600	16.911	1228.388	957.740
4.615	12.374	1155.886	876.967
5.629	4.363	1081.112	780.034
6.644	0.459	1061.548	746.556
7.659	0.053	1059.616	743.128
8.673	0.015	1058.290	741.943
9.688	0.034	1056.550	740.752
10.702	0.204	1055.070	740.485
11.717	5.196	1060.930	769.172
12.731	13.359	1072.054	817.659
13.746	17.220	1076.183	839.859
14.761	17.040	1075.669	838.491
15.775	16.145	1073.436	832.262
16.790	14.981	1071.596	825.028
17.804	14.395	1069.717	820.621
18.819	13.928	1069.313	817.937
19.834	13.660	1068.333	815.799
20.848	13.462	1067.228	813.908
21.863	13.238	1066.130	811.898
22.877	13.036	1065.605	810.437
23.892	13.041	1064.910	809.863
24.907	13.002	1064.387	809.200
25.921	13.125	1062.998	808.674
26.936	13.193	1062.387	808.469
27.950	13.135	1061.656	807.557
28.965	13.209	1060.559	807.014
29.980	13.287	1059.021	806.154
30.994	13.337	1058.726	806.102
32.009	13.401	1057.143	805.134
33.023	13.252	1056.339	803.729
34.038	13.240	1055.250	802.772
35.053	13.195	1054.399	801.833
36.067	13.268	1053.477	801.415
37.082	13.252	1052.539	800.551
38.096	13.212	1052.000	799.879
39.111	13.325	1051.231	799.772
40.126	13.152	1050.185	798.068
41.140	13.128	1048.746	796.790
42.155	13.067	1047.925	795.802
43.169	13.108	1046.729	795.017
44.184	13.010	1045.555	793.584
45.199	13.058	1044.332	792.817
46.213	13.085	1043.760	792.444
47.228	13.150	1042.466	791.700
48.242	13.074	1041.643	790.644
49.257	13.320	1040.047	790.537
50.271	13.229	1039.745	789.804
51.286	13.192	1039.141	789.098
52.301	13.144	1037.887	787.846
53.315	13.139	1036.642	786.806
54.330	13.133	1035.722	786.014
55.344	13.111	1035.204	785.442
56.359	13.151	1034.187	784.792
57.374	13.099	1033.333	783.830
58.388	13.042	1032.265	782.681
59.403	12.991	1031.463	781.761
60.417	13.111	1030.404	781.459
61.432	13.045	1029.650	780.502
62.447	13.095	1029.220	780.342
63.461	12.946	1028.649	779.140
64.476	13.023	1027.416	778.497
65.490	13.012	1026.696	777.833
66.505	13.070	1025.642	777.238
67.520	13.002	1025.389	776.659
68.534	13.086	1024.670	776.442
69.549	13.099	1023.607	775.627
70.563	13.058	1022.586	774.593
71.578	12.790	1022.556	773.243
72.593	12.920	1021.462	772.956
73.607	13.007	1021.118	773.037
74.622	12.997	1020.400	772.377
75.636	12.945	1019.501	771.387
76.651	12.988	1018.766	770.961
77.666	13.038	1018.220	770.711
78.680	12.963	1017.280	769.583
79.695	13.013	1016.855	769.428
80.709	13.129	1015.823	769.117
81.724	13.077	1015.254	768.379
82.739	13.065	1014.500	767.683
83.753	13.246	1013.784	767.916
84.768	13.311	1012.651	767.289
85.782	13.271	1012.046	766.580
86.797	13.080	1011.618	765.302
87.812	13.124	1010.149	764.327
88.826	13.104	1009.299	763.524
89.841	13.229	1008.034	763.075
90.855	13.199	1007.544	762.497
91.870	13.330	1006.646	762.355
92.884	13.340	1005.652	761.583
93.899	13.282	1004.903	760.678
94.914	13.431	1004.224	760.781
95.928	13.246	1003.499	759.315
96.943	13.335	1002.813	759.140
97.957	13.201	1002.165	757.966
98.972	13.352	1000.988	757.702
99.987	13.217	1000.059	756.312
101.001	13.186	999.325	755.548
102.016	13.323	998.371	755.389
103.030	13.250	997.580	754.387
104.045	13.161	996.961	753.448
105.060	13.401	995.900	753.674
106.074	13.124	995.348	751.926
107.089	13.110	994.016	750.789
108.103	13.055	992.866	749.606
109.118	13.130	991.766	749.048
110.133	13.198	991.169	748.839
111.147	13.026	990.299	747.340
112.162	13.095	989.624	747.077
113.176	13.243	988.617	746.920
114.191	13.331	987.891	746.700
115.206	13.142	987.405	745.416
116.220	13.188	986.291	744.712
117.235	13.190	984.978	743.665
118.249	13.218	984.592	743.436
119.264	13.240	983.746	742.827
120.279	13.310	983.058	742.559
121.293	13.036	982.523	740.858
122.308	13.141	980.901	740.040
123.322	13.063	980.386	739.238
124.337	13.157	979.349	738.812
125.352	13.122	978.103	737.648
126.366	13.086	977.225	736.763
127.381	13.183	976.092	736.276
128.395	13.097	975.269	735.205
129.410	13.196	974.424	734.943
130.424	13.233	973.403	734.271
131.439	13.173	972.824	733.506
132.454	13.280	971.924	733.235
133.468	13.123	971.520	732.168
134.483	13.326	969.949	731.820
135.497	13.165	969.458	730.671
136.512	13.253	968.853	730.541
137.527	13.267	968.188	730.038
138.541	13.175	967.515	729.058
139.556	13.207	966.826	728.617
140.570	13.309	966.254	728.569
141.585	13.426	964.560	727.742
142.600	13.477	963.887	727.392
143.614	13.313	963.142	726.046
144.629	13.487	962.402	726.189
145.643	13.491	961.246	725.268
146.658	13.259	960.267	723.451
147.673	13.443	959.168	723.364
148.687	13.471	958.704	723.071
149.702	13.312	957.937	721.737
150.716	13.356	956.981	721.145
151.731	13.393	956.074	720.557
152.746	13.258	956.175	719.984
153.760	13.392	955.484	719.981
154.775	13.272	955.016	719.045
155.789	13.513	953.521	718.900
156.804	13.437	953.462	718.462
157.819	13.595	952.488	718.348
158.833	13.447	951.831	717.151
159.848	13.512	951.089	716.808
160.862	13.495	950.287	716.068
161.877	13.402	949.217	714.796
162.892	13.414	948.139	713.973
163.906	13.444	947.080	713.242
164.921	13.354	946.793	712.572
165.935	13.479	945.848	712.339
166.950	13.478	944.517	711.266
167.964	13.464	943.651	710.495
168.979	13.470	942.946	709.924
169.994	13.532	941.779	709.250
171.008	13.476	941.250	708.547
172.023	13.588	940.882	708.686
173.037	13.603	939.758	707.844
174.052	13.682	938.884	707.456
175.067	13.613	938.396	706.733
176.081	13.593	937.652	706.027
177.096	13.557	937.156	705.438
178.110	13.510	936.788	704.898
179.125	13.575	936.290	704.734
180.140	13.588	935.955	704.477
181.154	13.630	935.247	704.062
182.169	13.636	934.581	703.523
183.183	13.613	934.058	702.971
184.198	13.795	933.021	702.896
185.213	13.831	932.005	702.224
186.227	13.793	931.813	701.854
187.242	13.823	931.299	701.533
188.256	13.869	930.339	700.940
189.271	13.688	930.160	699.978
190.286	13.665	928.851	698.838
191.300	13.556	928.122	697.768
192.315	13.649	927.737	697.808
193.329	13.634	927.190	697.270
194.344	13.723	926.338	696.944
195.359	13.715	925.682	696.355
196.373	13.912	925.152	696.718
197.388	13.975	924.758	696.625
198.402	13.941	924.180	695.986
199.417	13.905	923.837	695.514
200.432	14.138	922.614	695.506
201.446	14.011	922.866	695.105
202.461	13.967	922.135	694.309
203.475	13.892	921.603	693.534
204.490	14.021	920.394	693.100
205.504	13.930	920.314	692.601
206.519	13.979	919.325	691.997
207.534	14.044	918.348	691.473
208.548	13.984	917.764	690.720
209.563	14.012	917.104	690.279
210.577	14.096	916.243	689.918
211.592	14.274	915.094	689.731
212.607	14.177	915.118	689.286
213.621	14.099	914.390	688.355
214.636	14.124	913.670	687.852
215.650	14.136	912.933	687.289
216.665	14.203	912.264	686.998
217.680	14.259	911.478	686.579
218.694	14.274	911.112	686.304
219.709	14.181	910.612	685.483
220.723	14.245	909.550	684.885
221.738	14.284	908.652	684.310
222.753	14.296	908.238	683.989
223.767	14.309	907.943	683.757
224.782	14.369	906.857	683.126
225.796	14.330	906.672	682.766
226.811	14.398	905.639	682.206
227.826	14.346	904.941	681.407
228.840	14.280	904.384	680.659
229.855	14.252	903.106	679.523
230.869	14.275	902.608	679.179
231.884	14.185	902.584	678.736
232.899	14.406	901.123	678.477
233.913	14.312	900.725	677.732
234.928	14.219	900.455	677.091
235.942	14.289	899.651	676.713
236.957	14.249	899.267	676.202
237.972	14.268	898.313	675.502
238.986	14.320	897.813	675.275
240.001	14.428	897.169	675.168
241.015	14.448	896.241	674.491
242.030	14.433	895.770	674.015
243.045	14.476	895.393	673.846
244.059	14.417	895.093	673.325
245.074	14.498	894.212	672.927
246.088	14.566	893.227	672.403
247.103	14.528	892.744	671.824
248.117	14.523	892.620	671.654
249.132	14.723	891.729	671.726
250.147	14.754	891.100	671.319
251.161	14.708	890.575	670.680
252.176	14.740	890.053	670.354
253.190	14.746	889.116	669.616
254.205	14.838	888.456	669.425
255.220	14.883	887.703	668.979
256.234	14.807	887.192	668.234
257.249	14.831	886.071	667.425
258.263	14.942	885.446	667.336
259.278	14.892	885.334	666.995
260.293	14.783	884.735	666.049
261.307	15.049	883.785	666.334
262.322	15.007	883.338	665.773
263.336	15.066	882.680	665.452
264.351	15.036	881.683	664.520
265.366	15.145	880.889	664.295
266.380	15.073	880.603	663.736
267.395	14.930	879.877	662.562
268.409	14.980	879.026	662.062
269.424	15.015	878.269	661.571
270.439	14.980	877.680	660.931
271.453	14.919	877.197	660.269
272.468	15.027	876.281	659.947
273.482	14.893	876.036	659.178
274.497	14.993	875.199	658.881
275.512	14.976	874.607	658.312
276.526	15.205	874.169	658.822
277.541	14.994	874.087	657.873
278.555	15.131	873.412	657.844
279.570	15.244	872.408	657.474
280.585	15.233	871.554	656.730
281.599	15.279	870.679	656.191
282.614	15.146	870.252	655.292
283.628	15.192	869.976	655.206
284.643	15.176	869.362	654.623
285.657	15.286	868.449	654.308
286.672	15.262	868.134	653.919
287.687	15.385	867.155	653.603
288.701	15.420	866.544	653.219
289.716	15.338	865.958	652.399
290.730	15.432	865.501	652.364
291.745	15.482	864.737	651.924
292.760	15.487	864.163	651.455
293.774	15.481	863.924	651.193
294.789	15.499	863.315	650.747
295.803	15.444	862.214	649.645
296.818	15.489	861.888	649.519
297.833	15.417	860.942	648.469
298.847	15.459	860.194	648.011
299.862	15.493	859.884	647.852
300.876	15.495	859.399	647.437
301.891	15.519	859.065	647.217
302.906	15.626	858.547	647.184
303.920	15.653	857.601	646.518
304.935	15.547	857.315	645.835
305.949	15.646	856.545	645.579
306.964	15.646	856.169	645.238
307.979	15.596	855.725	644.654
308.993	15.684	855.100	644.463
310.008	15.658	854.339	643.737
311.022	15.809	853.756	643.814
312.037	15.741	853.213	643.091
313.052	15.707	852.472	642.344
314.066	15.672	851.963	641.769
315.081	15.731	851.699	641.739
316.095	15.768	850.779	641.131
317.110	15.692	850.363	640.470
318.125	15.547	850.158	639.709
319.139	15.652	849.464	639.528
320.154	15.764	848.916	639.485
321.168	15.749	848.751	639.249
322.183	15.704	847.688	638.219
323.197	15.813	847.204	638.212
324.212	15.832	846.826	637.944
325.227	15.892	845.793	637.336
326.241	15.710	845.553	636.410
327.256	15.779	845.129	636.294
328.270	15.778	844.331	635.635
329.285	15.933	843.549	635.575
330.300	15.815	843.281	634.870
331.314	15.885	842.494	634.485
332.329	15.875	842.450	634.360
333.343	16.037	841.545	634.231
334.358	15.915	841.179	633.442
335.373	15.937	841.231	633.506
336.387	15.998	840.661	633.251
337.402	15.944	840.581	632.931
338.416	15.890	840.297	632.458
339.431	15.984	839.899	632.455
340.446	16.056	838.494	631.611
341.460	16.194	838.588	632.144
342.475	16.238	838.338	632.063
343.489	16.187	837.902	631.489
344.504	16.175	837.290	630.928
345.519	16.223	837.037	630.859
346.533	16.166	836.243	629.992
347.548	16.266	835.758	629.945
348.562	16.231	835.154	629.304
349.577	16.017	834.775	628.162
350.592	16.124	834.070	627.975
351.606	16.136	833.363	627.434
352.621	16.157	832.615	626.891
353.635	16.254	832.047	626.769
354.650	16.300	831.238	626.274
355.665	16.259	830.676	625.644
356.679	16.295	830.306	625.445
357.694	16.381	829.482	625.086
358.708	16.290	829.241	624.512
359.723	16.364	828.824	624.416
360.738	16.350	827.609	623.396
361.752	16.333	827.511	623.202
362.767	16.465	826.506	622.877
363.781	16.512	825.880	622.523
364.796	16.550	825.800	622.549
365.810	16.536	825.153	621.954
366.825	16.616	824.792	621.919
367.840	16.545	824.255	621.199
368.854	16.673	824.003	621.426
369.869	16.581	823.402	620.579
370.883	16.556	823.133	620.231
371.898	16.701	823.031	620.631
372.913	16.604	822.814	620.056
373.927	16.632	822.068	619.540
374.942	16.527	821.792	618.893
375.956	16.686	821.325	619.070
376.971	16.681	820.684	618.512
377.986	16.749	820.359	618.461
379.000	16.754	819.697	617.926
380.015	16.710	819.520	617.579
381.029	16.829	818.480	617.173
382.044	16.890	817.957	616.945
383.059	16.959	817.365	616.694
384.073	16.849	817.155	616.084
385.088	16.794	816.363	615.233
386.102	16.777	815.576	614.521
387.117	16.775	815.319	614.268
388.132	16.813	814.591	613.801
389.146	16.868	814.021	613.516
390.161	17.052	813.275	613.565
391.175	17.004	813.035	613.158
392.190	17.073	812.136	612.672
393.205	16.841	811.968	611.656
394.219	16.755	812.238	611.493
395.234	16.775	811.543	610.989
396.248	16.792	811.196	610.735
397.263	16.721	810.729	610.072
398.278	16.775	810.506	610.045
399.292	16.879	809.898	609.908
400.307	16.768	809.589	609.221
401.321	17.018	808.733	609.424
402.336	16.950	808.191	608.716
403.350	17.118	807.456	608.711
404.365	17.110	807.480	608.647
405.380	17.091	807.200	608.315
406.394	17.050	806.502	607.586
407.409	17.186	806.158	607.760
408.423	17.182	805.911	607.507
409.438	17.287	805.262	607.338
410.453	17.253	805.135	607.068
411.467	17.298	804.461	606.668
412.482	17.410	804.068	606.716
413.496	17.428	804.032	606.698
414.511	17.450	802.984	605.931
415.526	17.400	802.937	605.666
416.540	17.273	802.371	604.735
417.555	17.362	801.649	604.452
418.569	17.356	801.178	604.024
419.584	17.426	801.164	604.205
420.599	17.297	800.726	603.364
421.613	109.738	1293.527	1472.208
422.628	94.452	1365.327	1472.272
