DTS Sentinel unit serial number:	SN413079Multiplexer serial number:	ORYXHardware model number:	OX4-SRSoftware version number:	ORYX F/W v4.00 Oryx Data Collector v3.7.2.0data status	okinstallation	princeton_trtdifferential loss correction	single-endedforward channel	channel 1reverse channel	N/Adate	2019/09/17time	13:14:35forward acquisition time	60.00reverse acquisition time	0.00gamma	496.2192k internal	0.2311k external	0.2311temperature offset calibration	0.9968default loss term (dB/km)	0.3790temperature slope calibration	1.0000multiplexer offset coefficient	1.0000multiplexer slope coefficient	1.0000fibre end	0.00T internal ref (°C)	33.98T ext. ref 1 (°C)	0.42T ext. ref 2 (°C)	31.64length (m)	temperature (°C)	Stokes	anti-Stokes-747.200	566.898	-0.010	0.026
-746.185	-200.000	0.031	-0.221
-745.171	800.000	-0.102	-0.296
-744.156	96.720	0.093	0.108
-743.142	153.727	0.020	-0.028
-742.127	24.386	-0.350	0.294
-741.112	181.566	-0.096	-0.144
-740.098	201.721	-0.098	0.153
-739.083	261.635	-0.152	-0.266
-738.069	75.535	-0.110	0.118
-737.054	-200.000	0.039	-0.317
-736.039	-104.600	-0.207	-0.049
-735.025	410.116	-0.092	0.199
-734.010	800.000	0.061	0.218
-732.996	148.089	-0.079	0.109
-731.981	-200.000	-0.000	0.103
-730.966	-118.930	-0.126	0.022
-729.952	220.286	-0.186	-0.302
-728.937	112.190	-0.146	-0.179
-727.923	-105.189	0.083	-0.019
-726.908	-102.538	-0.241	0.058
-725.894	-66.435	-0.262	-0.106
-724.879	-19.656	-0.179	0.112
-723.864	-200.000	-0.002	0.064
-722.850	787.082	-0.014	-0.039
-721.835	-49.632	-0.145	-0.070
-720.821	62.603	0.337	0.342
-719.806	800.000	-0.093	-0.359
-718.791	271.333	0.102	-0.183
-717.777	642.337	-0.158	0.408
-716.762	104.184	-0.402	-0.480
-715.748	176.850	0.103	-0.152
-714.733	365.127	-0.235	-0.481
-713.718	800.000	0.020	-0.056
-712.704	-53.123	-0.274	0.128
-711.689	733.727	0.032	-0.086
-710.675	37.824	0.245	-0.220
-709.660	26.453	0.239	0.202
-708.645	-113.245	-0.273	-0.054
-707.631	330.138	0.121	0.237
-706.616	-31.404	-0.204	-0.116
-705.602	89.642	-0.196	0.222
-704.587	-135.422	-0.329	-0.040
-703.572	-157.600	-0.044	0.003
-702.558	-62.616	-0.076	-0.032
-701.543	541.108	0.055	0.133
-700.529	11.158	0.091	0.071
-699.514	-173.593	0.337	-0.010
-698.499	1.880	-0.199	-0.146
-697.485	-132.733	-0.251	0.032
-696.470	627.953	-0.039	-0.100
-695.456	593.824	-0.105	-0.264
-694.441	-124.225	-0.374	-0.059
-693.426	-72.747	-0.108	-0.040
-692.412	-200.000	0.047	0.262
-691.397	-200.000	-0.012	-0.252
-690.383	-200.000	-0.029	-0.185
-689.368	577.733	0.007	0.017
-688.354	800.000	-0.034	0.108
-687.339	800.000	0.051	0.186
-686.324	-51.445	-0.286	-0.135
-685.310	-0.391	-0.263	0.190
-684.295	147.723	0.083	-0.113
-683.281	-200.000	0.003	-0.165
-682.266	-20.620	-0.301	0.187
-681.251	-178.385	-0.214	-0.005
-680.237	493.358	-0.082	-0.189
-679.222	438.459	-0.171	0.377
-678.208	-200.000	0.050	0.267
-677.193	383.459	0.078	-0.163
-676.178	-87.354	-0.334	0.102
-675.164	82.431	0.187	-0.205
-674.149	-122.399	-0.212	-0.035
-673.135	-200.000	0.103	-0.530
-672.120	218.781	0.125	-0.203
-671.105	735.045	0.033	0.091
-670.091	-44.652	-0.331	0.167
-669.076	115.953	-0.213	-0.263
-668.062	79.397	0.214	0.232
-667.047	-200.000	0.005	-0.095
-666.032	-128.926	0.036	-0.005
-665.018	100.384	-0.206	-0.242
-664.003	308.440	-0.131	-0.247
-662.989	493.748	-0.048	0.112
-661.974	261.539	0.260	0.456
-660.959	33.015	0.209	0.183
-659.945	-200.000	0.020	0.116
-658.930	-16.552	0.125	-0.080
-657.916	800.000	-0.026	-0.084
-656.901	287.783	0.115	-0.211
-655.886	79.754	-0.131	0.142
-654.872	82.989	0.059	0.065
-653.857	-200.000	0.044	-0.538
-652.843	87.337	-0.209	-0.234
-651.828	83.056	0.046	0.050
-650.814	-85.693	0.235	-0.074
-649.799	-200.000	0.008	-0.087
-648.784	513.853	0.049	-0.115
-647.770	174.306	-0.172	-0.251
-646.755	706.362	0.104	-0.277
-645.741	800.000	0.076	-0.286
-644.726	-12.169	-0.139	0.092
-643.711	-111.317	0.289	0.060
-642.697	-200.000	0.016	-0.136
-641.682	-133.651	0.188	0.024
-640.668	47.465	-0.172	0.162
-639.653	-86.954	-0.052	0.016
-638.638	-200.000	0.030	-0.576
-637.624	643.700	-0.136	0.349
-636.609	57.929	0.098	-0.097
-635.595	-49.166	0.118	0.057
-634.580	209.054	0.031	-0.048
-633.565	124.881	-0.249	-0.317
-632.551	-90.132	-0.077	0.023
-631.536	-114.980	-0.119	-0.023
-630.522	-4.960	-0.106	-0.074
-629.507	800.000	-0.058	0.238
-628.492	-200.000	-0.001	-0.021
-627.478	-200.000	-0.015	0.133
-626.463	-54.086	0.323	0.148
-625.449	194.694	-0.146	-0.223
-624.434	-92.008	0.077	-0.022
-623.419	48.310	-0.225	-0.213
-622.405	-200.000	-0.008	0.224
-621.390	-200.000	0.017	-0.256
-620.376	-138.833	0.183	-0.020
-619.361	-74.896	-0.257	0.093
-618.346	452.655	-0.029	0.065
-617.332	800.000	0.082	0.273
-616.317	800.000	0.061	-0.249
-615.303	-200.000	0.073	-0.396
-614.288	157.637	0.075	-0.105
-613.273	62.441	0.083	0.083
-612.259	-200.000	0.047	-0.318
-611.244	185.425	-0.093	-0.140
-610.230	-135.406	-0.596	-0.072
-609.215	-200.000	0.015	-0.140
-608.201	-191.376	-0.246	0.003
-607.186	-155.072	0.176	0.012
-606.171	-16.791	0.203	-0.130
-605.157	-200.000	0.001	0.259
-604.142	170.202	0.095	0.137
-603.128	29.995	-0.194	0.167
-602.113	27.626	0.192	-0.163
-601.098	397.877	0.132	0.280
-600.084	800.000	-0.058	0.218
-599.069	3.791	0.192	0.141
-598.055	296.823	0.072	0.133
-597.040	-34.752	-0.222	0.122
-596.025	-127.162	0.184	-0.027
-595.011	-167.530	0.139	-0.006
-593.996	68.633	-0.152	-0.157
-592.982	800.000	0.031	0.093
-591.967	259.300	-0.072	-0.126
-590.952	-200.000	-0.020	0.195
-589.938	-42.170	-0.198	-0.102
-588.923	-200.000	-0.004	-0.087
-587.909	76.398	-0.129	0.138
-586.894	800.000	0.076	-0.305
-585.879	159.909	-0.135	0.190
-584.865	82.389	0.014	0.015
-583.850	38.969	-0.131	0.118
-582.836	800.000	0.038	-0.136
-581.821	-49.990	-0.102	-0.049
-580.806	-115.190	-0.268	-0.051
-579.792	29.730	-0.196	-0.168
-578.777	800.000	-0.078	-0.227
-577.763	-174.652	0.104	-0.003
-576.748	-48.009	0.164	-0.080
-575.733	596.487	0.151	0.377
-574.719	-200.000	-0.022	-0.136
-573.704	-84.839	-0.096	-0.030
-572.690	-200.000	-0.020	0.253
-571.675	214.869	0.164	0.261
-570.661	-44.964	0.190	0.095
-569.646	-26.618	0.260	0.153
-568.631	176.500	-0.082	-0.121
-567.617	215.024	-0.046	-0.074
-566.602	39.661	0.170	0.154
-565.588	-25.420	-0.464	-0.276
-564.573	-8.695	-0.258	-0.174
-563.558	-15.632	0.096	0.062
-562.544	-75.084	-0.361	-0.130
-561.529	-90.202	0.218	0.064
-560.515	-200.000	0.001	-0.078
-559.500	-200.000	-0.027	0.179
-558.485	-200.000	-0.002	0.162
-557.471	-27.573	0.240	-0.141
-556.456	-106.686	-0.208	-0.047
-555.442	-200.000	0.002	-0.187
-554.427	-36.614	0.065	-0.035
-553.412	141.740	-0.238	-0.318
-552.398	173.731	-0.208	-0.303
-551.383	-200.000	0.015	-0.148
-550.369	-5.504	-0.087	-0.060
-549.354	-200.000	0.022	0.122
-548.339	-192.069	-0.327	0.003
-547.325	349.664	0.099	-0.196
-546.310	19.146	-0.142	-0.115
-545.296	-93.096	0.140	-0.039
-544.281	-120.523	-0.140	0.024
-543.266	-28.200	-0.069	-0.040
-542.252	59.073	-0.048	0.048
-541.237	-70.995	-0.394	-0.149
-540.223	-56.982	0.129	0.057
-539.208	249.018	-0.085	-0.145
-538.193	800.000	-0.039	0.129
-537.179	-200.000	0.023	-0.164
-536.164	-19.646	-0.169	0.105
-535.150	-50.681	-0.083	0.039
-534.135	-136.128	0.120	0.014
-533.121	-200.000	0.011	0.231
-532.106	76.019	0.217	-0.231
-531.091	6.217	-0.160	-0.120
-530.077	249.422	-0.076	0.130
-529.062	51.223	0.156	0.149
-528.048	323.475	0.097	-0.186
-527.033	112.404	0.139	0.169
-526.018	20.779	0.080	0.065
-525.004	711.494	-0.048	-0.127
-523.989	800.000	0.061	0.244
-522.975	-110.047	0.262	0.055
-521.960	-98.518	0.159	-0.041
-520.945	-200.000	0.016	-0.080
-519.931	163.293	-0.216	0.306
-518.916	108.584	0.136	0.164
-517.902	800.000	-0.078	0.293
-516.887	800.000	0.058	0.224
-515.872	-162.460	-0.157	-0.008
-514.858	444.302	0.125	0.275
-513.843	-127.466	0.211	0.031
-512.829	-60.296	-0.066	0.028
-511.814	800.000	0.142	-0.410
-510.799	-200.000	0.005	-0.328
-509.785	-200.000	0.011	0.187
-508.770	-2.374	-0.295	0.208
-507.756	-200.000	0.041	-0.487
-506.741	-200.000	-0.034	0.206
-505.726	155.513	-0.201	0.278
-504.712	-76.215	0.105	0.037
-503.697	-167.695	-0.159	-0.006
-502.683	-200.000	0.035	0.350
-501.668	325.176	0.070	-0.134
-500.653	397.957	0.102	0.215
-499.639	14.426	-0.104	0.082
-498.624	483.844	-0.084	0.192
-497.610	202.023	-0.121	0.187
-496.595	-200.000	-0.007	-0.074
-495.581	-200.000	0.051	0.312
-494.566	459.762	0.134	-0.299
-493.551	-89.209	0.199	0.059
-492.537	800.000	0.082	0.276
-491.522	-105.904	-0.112	0.025
-490.508	-78.175	0.231	0.080
-489.493	800.000	0.143	0.477
-488.478	136.555	0.020	-0.027
-487.464	-129.048	-0.337	0.047
-486.449	272.071	0.049	-0.087
-485.435	-95.580	-0.217	0.058
-484.420	-130.559	0.126	-0.017
-483.405	319.914	0.106	0.203
-482.391	136.320	-0.115	0.151
-481.376	-200.000	-0.005	0.205
-480.362	-90.740	-0.041	0.012
-479.347	325.598	-0.072	-0.139
-478.332	30.276	0.229	-0.197
-477.318	800.000	0.040	-0.125
-476.303	-82.381	0.072	-0.024
-475.289	252.790	0.139	-0.239
-474.274	131.203	-0.099	-0.127
-473.259	-200.000	-0.008	-0.077
-472.245	-193.534	0.223	-0.002
-471.230	327.691	-0.091	-0.176
-470.216	-139.159	-0.037	0.004
-469.201	-10.358	-0.111	-0.074
-468.186	398.725	-0.112	-0.236
-467.172	-113.843	-0.240	-0.047
-466.157	639.555	-0.004	-0.011
-465.143	67.199	0.337	0.345
-464.128	-91.223	0.226	0.065
-463.113	-60.935	0.059	-0.025
-462.099	800.000	0.043	0.136
-461.084	-78.788	-0.183	-0.063
-460.070	-35.198	0.102	-0.056
-459.055	292.702	-0.120	-0.220
-458.040	-118.142	-0.306	0.055
-457.026	361.877	0.027	-0.054
-456.011	800.000	0.055	-0.223
-454.997	-139.696	0.102	-0.011
-453.982	58.112	0.053	-0.052
-452.968	-122.362	0.246	-0.040
-451.953	-200.000	0.021	-0.387
-450.938	-1.696	0.189	-0.133
-449.924	-116.003	0.139	0.026
-448.909	-26.896	0.127	-0.075
-447.895	165.832	-0.186	-0.264
-446.880	25.470	0.240	0.201
-445.865	63.083	0.185	-0.186
-444.851	-156.030	0.185	0.012
-443.836	-78.986	-0.157	-0.053
-442.822	73.924	0.083	-0.087
-441.807	-144.194	0.288	0.027
-440.792	-60.638	-0.291	-0.124
-439.778	800.000	0.034	0.128
-438.763	-200.000	0.019	0.500
-437.749	800.000	0.087	0.296
-436.734	558.914	-0.095	-0.229
-435.719	68.391	-0.043	-0.044
-434.705	-124.713	-0.305	0.047
-433.690	800.000	-0.043	0.141
-432.676	-96.922	-0.195	0.051
-431.661	-112.678	0.434	0.087
-430.646	79.685	-0.027	0.029
-429.632	-114.811	0.225	-0.043
-428.617	-174.494	0.214	0.006
-427.603	50.149	-0.333	-0.315
-426.588	-68.482	0.250	-0.097
-425.573	122.291	-0.019	-0.024
-424.559	187.904	-0.073	-0.109
-423.544	-200.000	0.003	-0.025
-422.530	-84.096	-0.270	-0.086
-421.515	23.657	0.133	0.110
-420.500	184.882	-0.075	-0.111
-419.486	321.425	-0.123	-0.234
-418.471	-76.917	0.299	-0.105
-417.457	-9.123	-0.148	-0.099
-416.442	-117.032	-0.285	-0.052
-415.428	800.000	-0.010	-0.034
-414.413	668.414	-0.083	0.216
-413.398	491.585	0.007	-0.015
-412.384	94.623	-0.073	-0.083
-411.369	4.975	-0.255	-0.188
-410.355	230.110	0.158	0.259
-409.340	-200.000	-0.012	-0.362
-408.325	-200.000	-0.183	-0.000
-407.311	4.231	-0.061	-0.045
-406.296	115.835	0.192	0.235
-405.282	172.007	0.195	-0.281
-404.267	800.000	0.049	-0.192
-403.252	-72.008	-0.295	0.110
-402.238	-43.069	-0.292	0.148
-401.223	640.205	0.140	0.357
-400.209	-83.441	-0.127	0.041
-399.194	-151.332	-0.376	0.028
-398.179	9.068	0.174	0.131
-397.165	-70.738	-0.043	0.016
-396.150	-122.525	0.231	-0.038
-395.136	95.579	-0.104	-0.119
-394.121	666.658	-0.016	0.042
-393.106	475.606	-0.105	-0.238
-392.092	-77.308	-0.261	0.091
-391.077	253.401	0.047	-0.081
-390.063	-172.584	0.299	-0.009
-389.048	345.466	0.164	0.322
-388.033	800.000	0.109	0.341
-387.019	-200.000	0.030	0.368
-386.004	90.399	-0.209	0.234
-384.990	800.000	0.095	-0.287
-383.975	230.796	-0.040	-0.065
-382.960	94.234	0.071	-0.081
-381.946	-200.000	-0.043	0.219
-380.931	95.422	-0.257	0.293
-379.917	800.000	-0.173	-0.541
-378.902	-142.496	0.190	0.019
-377.888	800.000	0.108	0.351
-376.873	245.124	0.199	0.335
-375.858	-115.136	0.125	0.024
-374.844	130.320	-0.008	-0.011
-373.829	-200.000	-0.003	-0.072
-372.815	-189.660	0.206	0.002
-371.800	152.615	0.207	-0.282
-370.785	-200.000	-0.054	0.350
-369.771	45.372	-0.146	-0.135
-368.756	-113.669	-0.289	0.056
-367.742	375.309	-0.183	-0.374
-366.727	376.097	-0.106	-0.217
-365.712	800.000	-0.056	0.194
-364.698	800.000	0.066	0.281
-363.683	-118.891	-0.059	-0.010
-362.669	15.062	0.182	-0.143
-361.654	117.785	0.130	-0.160
-360.639	-162.760	0.182	-0.009
-359.625	-22.744	-0.199	0.120
-358.610	175.188	-0.151	0.218
-357.596	800.000	-0.080	-0.285
-356.581	-154.934	0.363	0.024
-355.566	-44.672	-0.195	-0.097
-354.552	-200.000	0.008	-0.055
-353.537	-52.987	0.347	0.160
-352.523	-200.000	-0.020	-0.225
-351.508	-200.000	-0.051	0.260
-350.493	183.797	-0.072	-0.106
-349.479	4.359	-0.059	-0.043
-348.464	97.069	-0.192	-0.220
-347.450	-200.000	-0.044	-0.361
-346.435	3.792	-0.126	0.092
-345.420	-200.000	0.006	-0.092
-344.406	800.000	0.064	-0.225
-343.391	343.050	-0.097	0.191
-342.377	12.294	0.113	-0.087
-341.362	198.956	-0.132	0.201
-340.348	-66.986	-0.290	-0.114
-339.333	154.806	0.131	0.180
-338.318	-66.755	-0.206	-0.082
-337.304	-178.466	0.375	-0.009
-336.289	-12.961	-0.184	0.119
-335.275	188.055	0.181	-0.270
-334.260	246.883	-0.124	0.209
-333.245	-85.695	-0.041	0.013
-332.231	-200.000	-0.010	0.226
-331.216	40.876	0.134	-0.120
-330.202	800.000	0.055	0.227
-329.187	-55.514	-0.219	0.098
-328.172	-171.551	-0.211	-0.007
-327.158	-200.000	0.001	-0.247
-326.143	417.793	0.089	0.190
-325.129	206.513	0.051	-0.079
-324.114	-116.446	0.190	-0.035
-323.099	-47.144	0.115	-0.056
-322.085	800.000	0.022	0.087
-321.070	447.223	0.101	-0.223
-320.056	-200.000	-0.018	-0.177
-319.041	135.615	0.073	0.095
-318.026	318.926	0.112	0.213
-317.012	-113.523	-0.294	-0.058
-315.997	-44.443	-0.143	-0.071
-314.983	-177.584	-0.187	-0.005
-313.968	-9.774	-0.281	0.187
-312.953	-130.331	-0.237	0.032
-311.939	-200.000	-0.007	-0.061
-310.924	-121.366	0.090	0.015
-309.910	-101.535	0.383	-0.093
-308.895	800.000	0.076	-0.314
-307.880	302.335	0.246	-0.455
-306.866	-75.335	0.108	-0.039
-305.851	-125.584	0.346	-0.052
-304.837	-200.000	-0.288	0.000
-303.822	164.954	0.078	0.110
-302.807	-106.543	0.448	-0.100
-301.793	-128.102	-0.025	0.004
-300.778	-10.267	-0.068	0.045
-299.764	-200.000	-0.045	-0.340
-298.749	536.889	-0.046	0.108
-297.735	527.286	-0.118	0.276
-296.720	148.342	0.077	-0.103
-295.705	-200.000	-0.001	-0.072
-294.691	-17.728	0.073	-0.046
-293.676	154.504	-0.202	0.277
-292.662	-17.044	-0.135	0.085
-291.647	-9.790	-0.304	0.202
-290.632	800.000	-0.049	0.178
-289.618	-32.081	0.399	-0.222
-288.603	800.000	0.109	-0.356
-287.589	800.000	-0.052	-0.197
-286.574	-69.889	-0.193	-0.074
-285.559	-48.896	-0.211	0.101
-284.545	-50.758	0.315	-0.148
-283.530	-200.000	0.001	0.012
-282.516	-72.703	-0.017	0.006
-281.501	5.308	-0.235	0.173
-280.486	298.747	0.143	0.262
-279.472	-179.809	-0.284	-0.006
-278.457	800.000	-0.047	-0.147
-277.443	40.809	-0.113	0.102
-276.428	800.000	-0.030	0.088
-275.413	-200.000	-0.031	-0.214
-274.399	-30.278	0.253	-0.143
-273.384	72.389	-0.189	0.196
-272.370	-81.287	0.073	-0.024
-271.355	-75.375	0.165	0.059
-270.340	800.000	-0.084	0.331
-269.326	382.530	-0.062	0.127
-268.311	-113.106	-0.140	-0.028
-267.297	168.807	0.195	0.276
-266.282	-33.935	-0.155	-0.085
-265.267	253.589	-0.127	0.216
-264.253	-200.000	-0.001	0.339
-263.238	800.000	-0.238	0.679
-262.224	-28.493	-0.137	-0.079
-261.209	609.780	0.110	0.272
-260.195	-84.497	0.106	0.033
-259.180	-59.494	0.129	-0.055
-258.165	-11.259	-0.056	-0.036
-257.151	-200.000	-0.020	-0.355
-256.136	-154.771	0.068	0.005
-255.122	-72.183	-0.442	-0.163
-254.107	658.280	-0.052	0.134
-253.092	-51.480	-0.368	0.171
-252.078	71.103	-0.056	0.057
-251.063	-116.432	0.044	0.008
-250.049	-81.050	0.216	-0.071
-249.034	-200.000	-0.013	-0.079
-248.019	-200.000	0.021	0.124
-247.005	113.194	0.210	-0.253
-245.990	-132.547	0.220	0.028
-244.976	399.524	0.100	-0.210
-243.961	-112.879	0.360	0.071
-242.946	-200.000	0.046	0.386
-241.932	-49.680	0.055	0.026
-240.917	-200.000	-0.005	0.357
-239.903	800.000	0.095	0.290
-238.888	390.396	-0.107	-0.220
-237.873	-25.580	0.138	0.081
-236.859	-136.886	0.125	0.014
-235.844	-131.691	0.246	0.032
-234.830	-200.000	-0.042	0.283
-233.815	-130.145	0.032	0.004
-232.800	622.384	-0.066	-0.164
-231.786	-124.918	0.215	-0.033
-230.771	800.000	0.015	-0.045
-229.757	-107.382	0.086	0.019
-228.742	14.015	0.219	-0.169
-227.727	-141.446	0.323	0.033
-226.713	-97.515	0.225	0.058
-225.698	-78.708	0.060	0.020
-224.684	96.746	0.224	0.255
-223.669	-131.011	-0.044	-0.006
-222.655	-200.000	-0.042	0.209
-221.640	-200.000	-0.013	-0.169
-220.625	-8.337	0.195	-0.130
-219.611	-200.000	0.011	-0.102
-218.596	-38.345	0.224	0.118
-217.582	-24.710	0.144	0.085
-216.567	90.336	0.051	-0.057
-215.552	547.008	-0.104	-0.247
-214.538	-50.775	-0.211	-0.099
-213.523	-65.331	-0.278	0.111
-212.509	-200.000	0.080	-0.374
-211.494	74.149	-0.153	0.160
-210.479	-200.000	0.053	-0.310
-209.465	20.443	-0.174	0.140
-208.450	450.094	-0.124	0.272
-207.436	-20.237	0.195	0.120
-206.421	-121.178	0.207	0.034
-205.406	181.621	0.029	-0.042
-204.392	55.538	-0.118	0.113
-203.377	-200.000	0.011	0.334
-202.363	-77.950	0.324	0.111
-201.348	-124.337	-0.109	-0.017
-200.333	83.399	-0.200	-0.216
-199.319	800.000	-0.064	-0.206
-198.304	12.673	-0.124	-0.095
-197.290	800.000	-0.077	0.222
-196.275	-46.111	-0.042	0.020
-195.260	-188.126	-0.334	-0.004
-194.246	-131.168	-0.193	0.026
-193.231	-90.699	-0.316	0.091
-192.217	705.921	-0.135	0.355
-191.202	-132.731	-0.242	0.031
-190.187	21.120	0.093	0.075
-189.173	15.688	0.431	-0.336
-188.158	13.589	-0.110	0.084
-187.144	132.514	0.268	0.343
-186.129	371.269	-0.112	0.226
-185.114	-79.312	-0.176	0.059
-184.100	275.363	-0.139	0.246
-183.085	-200.000	0.020	-0.328
-182.071	-65.289	0.323	-0.129
-181.056	-3.292	-0.103	0.072
-180.042	296.221	-0.012	0.022
-179.027	-58.495	0.170	0.073
-178.012	-119.939	-0.445	0.076
-176.998	-200.000	0.008	-0.203
-175.983	1.254	-0.255	-0.182
-174.969	-26.776	0.196	-0.114
-173.954	111.753	0.288	0.345
-172.939	-82.883	0.105	0.034
-171.925	-24.502	0.070	-0.041
-170.910	-200.000	-0.052	-0.313
-169.896	126.501	0.052	0.065
-168.881	252.524	-0.187	-0.316
-167.866	134.570	0.082	0.106
-166.852	76.034	0.033	-0.034
-165.837	800.000	0.044	-0.143
-164.823	-63.917	0.478	0.194
-163.808	227.568	0.196	-0.317
-162.793	775.803	0.080	0.217
-161.779	-200.000	-0.001	0.017
-160.764	311.957	0.081	0.151
-159.750	75.916	0.197	-0.206
-158.735	-59.867	-0.067	0.029
-157.720	45.251	-0.144	0.132
-156.706	95.357	0.125	0.141
-155.691	-200.000	0.101	-0.508
-154.677	343.164	0.121	-0.235
-153.662	-81.689	-0.144	0.047
-152.647	240.866	-0.063	-0.105
-151.633	-200.000	0.026	-0.176
-150.618	471.889	-0.207	-0.462
-149.604	-14.780	-0.207	0.132
-148.589	-200.000	-0.004	0.342
-147.574	-61.592	0.161	0.067
-146.560	-200.000	0.027	0.311
-145.545	-200.000	-0.085	-0.490
-144.531	-90.476	0.158	-0.046
-143.516	265.597	-0.191	-0.331
-142.502	-200.000	-0.028	-0.339
-141.487	-200.000	0.012	0.080
-140.472	-81.072	0.226	0.074
-139.458	76.935	0.045	0.047
-138.443	800.000	-0.100	0.434
-137.429	-166.668	0.318	-0.013
-136.414	-195.254	0.108	0.001
-135.399	-200.000	0.021	0.122
-134.385	-200.000	0.020	0.268
-133.370	-105.978	-0.199	-0.044
-132.356	-200.000	0.052	-0.231
-131.341	-108.701	0.210	-0.045
-130.326	-82.724	-0.187	0.060
-129.312	193.764	0.191	-0.286
-128.297	155.180	0.179	-0.244
-127.283	289.208	-0.079	0.143
-126.268	800.000	0.175	0.480
-125.253	-146.877	-0.197	-0.017
-124.239	-115.850	0.255	0.047
-123.224	90.393	-0.062	-0.068
-122.210	355.293	0.115	0.227
-121.195	-200.000	-0.016	-0.137
-120.180	111.958	0.206	0.247
-119.166	800.000	0.097	0.333
-118.151	140.872	-0.157	0.206
-117.137	759.254	-0.148	0.397
-116.122	-21.196	-0.185	-0.112
-115.107	-131.850	0.248	0.032
-114.093	23.472	-0.452	0.368
-113.078	26.906	-0.192	0.160
-112.064	-90.040	0.260	0.075
-111.049	57.716	0.238	-0.231
-110.034	148.794	0.194	0.260
-109.020	-200.000	-0.003	0.215
-108.005	285.354	0.150	0.268
-106.991	-69.389	0.061	0.023
-105.976	108.039	-0.332	-0.391
-104.962	-20.327	-0.399	0.243
-103.947	-123.699	0.242	-0.038
-102.932	800.000	0.010	0.028
-101.918	134.691	0.151	0.193
-100.903	-37.807	-0.293	0.154
-99.889	-29.100	0.362	-0.206
-98.874	800.000	0.109	-0.415
-97.859	-131.945	-0.180	0.023
-96.845	-87.485	0.085	-0.025
-95.830	208.554	-0.062	-0.097
-94.816	28.606	0.018	-0.015
-93.801	-179.442	0.255	0.006
-92.786	-144.754	-0.124	0.011
-91.772	-145.511	0.074	0.007
-90.757	-56.597	-0.254	-0.111
-89.743	30.913	0.177	-0.150
-88.728	-200.000	0.003	-0.020
-87.713	99.177	-0.227	0.259
-86.699	-57.600	-0.059	-0.026
-85.684	-152.583	-0.262	-0.018
-84.670	-200.000	0.018	0.248
-83.655	171.557	0.168	0.238
-82.640	-98.070	-0.096	-0.024
-81.626	98.062	0.053	0.061
-80.611	-200.000	0.001	-0.065
-79.597	800.000	0.091	-0.276
-78.582	-200.000	-0.074	-0.368
-77.567	304.692	-0.105	0.193
-76.553	-66.413	0.290	0.114
-75.538	204.819	0.152	0.233
-74.524	-200.000	0.029	0.219
-73.509	-200.000	-0.012	0.078
-72.494	-20.963	0.048	0.029
-71.480	-200.000	0.035	-0.177
-70.465	56.787	0.187	0.180
-69.451	-200.000	0.024	-0.123
-68.436	-68.289	0.170	-0.065
-67.422	-100.164	-0.126	-0.031
-66.407	-79.914	0.126	0.042
-65.392	705.533	-0.080	-0.208
-64.378	45.419	0.377	0.344
-63.363	-158.026	-0.271	0.016
-62.349	63.175	-0.030	0.030
-61.334	101.487	-0.813	-0.936
-60.319	-21.343	0.544	0.328
-59.305	219.989	-0.635	-1.005
-58.290	80.969	0.640	0.683
-57.276	800.000	0.543	1.625
-56.261	-200.000	95.583	545.476
-55.246	515.300	1404.460	3240.112
-54.232	147.576	2625.276	3493.930
-53.217	110.935	2212.003	2630.522
-52.203	45.581	1654.277	1509.384
-51.188	37.373	1385.294	1212.952
-50.173	34.173	1341.956	1155.570
-49.159	53.545	1390.281	1317.419
-48.144	57.045	1407.935	1355.753
-47.130	37.776	1362.425	1195.214
-46.115	34.110	1345.107	1157.714
-45.100	33.977	1340.025	1152.494
-44.086	33.843	1337.812	1149.732
-43.071	33.937	1335.056	1147.887
-42.057	33.799	1333.520	1145.688
-41.042	33.899	1331.448	1144.464
-40.027	33.825	1330.220	1142.916
-39.013	33.842	1328.541	1141.533
-37.998	33.850	1326.785	1140.024
-36.984	33.958	1324.711	1138.844
-35.969	33.959	1322.988	1137.322
-34.954	34.041	1320.868	1135.949
-33.940	34.053	1319.538	1134.826
-32.925	34.000	1318.613	1133.672
-31.911	34.061	1317.183	1132.761
-30.896	34.108	1315.394	1131.457
-29.881	34.060	1314.206	1130.103
-28.867	34.092	1312.384	1128.685
-27.852	34.255	1310.921	1128.349
-26.838	34.061	1309.910	1126.284
-25.823	34.041	1308.576	1124.972
-24.809	34.007	1307.014	1123.384
-23.794	34.059	1304.984	1121.903
-22.779	34.078	1304.011	1121.136
-21.765	34.013	1302.949	1119.795
-20.750	34.080	1301.399	1118.812
-19.736	34.003	1300.209	1117.290
-18.721	33.945	1298.716	1115.623
-17.706	33.943	1297.949	1114.909
-16.692	33.947	1296.911	1113.997
-15.677	33.900	1295.563	1112.521
-14.663	33.951	1294.658	1111.994
-13.648	33.875	1293.329	1110.368
-12.633	33.935	1292.561	1110.014
-11.619	33.976	1291.697	1109.468
-10.604	33.942	1290.575	1108.261
-9.590	33.913	1289.716	1107.309
-8.575	33.875	1288.173	1105.721
-7.560	33.932	1287.390	1105.338
-6.546	33.960	1286.954	1105.077
-5.531	33.991	1285.894	1104.305
-4.517	33.831	1285.124	1102.672
-3.502	33.909	1283.972	1102.092
-2.487	33.883	1283.273	1101.296
-1.473	33.917	1279.337	1098.073
-0.458	33.148	1264.829	1081.183
0.556	28.414	1247.318	1044.337
1.571	24.617	1252.989	1027.210
2.586	23.236	1267.895	1031.297
3.600	22.144	1255.979	1015.210
4.615	16.062	1179.649	920.322
5.629	5.835	1098.129	804.428
6.644	0.794	1076.334	763.009
7.659	0.352	1073.699	758.849
8.673	0.309	1072.505	757.720
9.688	0.226	1070.967	756.147
10.702	0.469	1069.521	756.279
11.717	6.256	1077.904	791.314
12.731	15.267	1089.903	845.697
13.746	18.309	1092.753	863.193
14.761	17.393	1090.744	856.917
15.775	16.284	1088.572	849.561
16.790	15.227	1086.641	842.664
17.804	14.525	1084.782	837.626
18.819	14.251	1083.152	834.916
19.834	13.829	1082.767	832.433
20.848	13.585	1081.798	830.392
21.863	13.461	1080.638	828.805
22.877	13.245	1080.278	827.373
23.892	13.247	1079.370	826.616
24.907	13.210	1078.795	825.918
25.921	13.252	1078.130	825.547
26.936	13.286	1077.108	824.858
27.950	13.295	1076.310	824.221
28.965	13.378	1074.924	823.499
29.980	13.460	1073.979	823.109
30.994	13.468	1072.998	822.326
32.009	13.590	1071.414	821.646
33.023	13.482	1070.709	820.493
34.038	13.392	1069.748	819.238
35.053	13.454	1068.560	818.564
36.067	13.410	1067.951	817.808
37.082	13.450	1067.143	817.314
38.096	13.537	1066.019	816.811
39.111	13.413	1065.804	815.963
40.126	13.406	1064.636	814.959
41.140	13.267	1063.440	813.288
42.155	13.229	1062.205	812.088
43.169	13.289	1060.722	811.176
44.184	13.248	1059.862	810.243
45.199	13.188	1059.298	809.446
46.213	13.295	1057.852	808.795
47.228	13.313	1056.442	807.734
48.242	13.237	1056.349	807.222
49.257	13.274	1054.973	806.276
50.271	13.437	1054.053	806.296
51.286	13.365	1053.279	805.284
52.301	13.382	1052.147	804.427
53.315	13.316	1051.123	803.254
54.330	13.396	1049.644	802.440
55.344	13.215	1049.283	801.218
56.359	13.309	1048.155	800.742
57.374	13.211	1047.653	799.813
58.388	13.281	1046.406	799.127
59.403	13.143	1045.762	797.896
60.417	13.224	1044.802	797.487
61.432	13.168	1043.942	796.489
62.447	13.124	1043.439	795.823
63.461	13.072	1042.197	794.552
64.476	13.218	1041.384	794.565
65.490	13.218	1040.595	793.892
66.505	13.217	1039.977	793.348
67.520	13.202	1039.288	792.681
68.534	13.247	1038.398	792.148
69.549	13.216	1037.618	791.332
70.563	13.196	1037.199	790.845
71.578	13.144	1036.257	789.811
72.593	13.182	1034.848	788.849
73.607	13.057	1034.930	788.246
74.622	13.164	1033.982	787.962
75.636	13.165	1033.458	787.499
76.651	13.158	1032.762	786.863
77.666	13.151	1032.135	786.285
78.680	13.182	1031.588	785.944
79.695	13.133	1030.895	785.114
80.709	13.225	1030.068	784.851
81.724	13.274	1029.316	784.443
82.739	13.234	1028.787	783.781
83.753	13.246	1028.011	783.179
84.768	13.346	1026.578	782.487
85.782	13.408	1026.301	782.501
86.797	13.447	1024.844	781.506
87.812	13.285	1024.165	780.155
88.826	13.335	1023.080	779.493
89.841	13.368	1021.934	778.707
90.855	13.421	1021.333	778.433
91.870	13.459	1020.316	777.766
92.884	13.368	1019.821	776.894
93.899	13.393	1018.944	776.271
94.914	13.500	1018.042	776.018
95.928	13.517	1017.067	775.287
96.943	13.473	1016.371	774.481
97.957	13.443	1015.382	773.518
98.972	13.562	1014.223	773.124
99.987	13.506	1013.603	772.322
101.001	13.422	1012.412	770.954
102.016	13.247	1011.930	769.703
103.030	13.442	1011.381	770.125
104.045	13.573	1010.034	769.641
105.060	13.429	1009.613	768.583
106.074	13.404	1008.409	767.481
107.089	13.389	1007.290	766.491
108.103	13.348	1006.501	765.634
109.118	13.327	1005.309	764.562
110.133	13.303	1004.685	763.909
111.147	13.323	1003.560	763.078
112.162	13.329	1003.069	762.663
113.176	13.399	1002.019	762.122
114.191	13.424	1001.412	761.710
115.206	13.391	1000.677	760.929
116.220	13.377	999.797	760.130
117.235	13.412	998.882	759.527
118.249	13.252	998.258	758.253
119.264	13.285	997.408	757.688
120.279	13.301	996.652	757.123
121.293	13.447	995.277	756.677
122.308	13.387	994.436	755.700
123.322	13.382	993.490	754.888
124.337	13.166	992.972	753.446
125.352	13.358	991.600	753.210
126.366	13.253	990.729	752.003
127.381	13.344	989.649	751.532
128.395	13.380	988.890	751.054
129.410	13.373	987.732	750.076
130.424	13.552	986.767	750.085
131.439	13.478	985.852	748.990
132.454	13.438	985.446	748.432
133.468	13.533	984.403	748.005
134.483	13.516	983.347	747.058
135.497	13.448	982.785	746.259
136.512	13.468	981.951	745.649
137.527	13.421	981.103	744.731
138.541	13.426	980.267	744.052
139.556	13.505	979.588	743.823
140.570	13.518	978.767	743.194
141.585	13.558	977.930	742.674
142.600	13.531	977.328	742.030
143.614	13.608	976.153	741.415
144.629	13.676	975.113	740.865
145.643	13.758	973.839	740.195
146.658	13.555	973.432	738.917
147.673	13.575	972.176	737.984
148.687	13.518	971.626	737.247
149.702	13.468	970.471	736.085
150.716	13.488	970.090	735.822
151.731	13.579	969.028	735.354
152.746	13.652	968.307	735.065
153.760	13.633	967.538	734.331
154.775	13.556	967.552	733.937
155.789	13.729	966.046	733.492
156.804	13.584	965.841	732.632
157.819	13.609	965.391	732.338
158.833	13.621	964.596	731.723
159.848	13.836	963.643	731.884
160.862	13.649	962.628	730.221
161.877	13.608	961.755	729.315
162.892	13.582	961.040	728.596
163.906	13.525	960.061	727.537
164.921	13.586	959.095	727.009
165.935	13.754	958.165	726.975
166.950	13.761	957.299	726.286
167.964	13.614	956.479	724.958
168.979	13.775	955.527	724.873
169.994	13.747	954.556	723.952
171.008	13.810	953.792	723.581
172.023	13.708	953.665	722.978
173.037	13.943	952.413	722.986
174.052	13.803	951.928	721.947
175.067	13.757	951.264	721.176
176.081	13.678	950.986	720.558
177.096	13.742	950.491	720.400
178.110	13.699	949.744	719.585
179.125	13.788	948.976	719.322
180.140	13.818	948.241	718.832
181.154	13.901	947.628	718.665
182.169	13.888	947.421	718.387
183.183	13.961	946.751	718.130
184.198	14.009	945.617	717.413
185.213	13.888	945.234	716.538
186.227	14.018	944.260	716.297
187.242	14.094	943.725	716.153
188.256	14.064	943.392	715.711
189.271	13.971	942.805	714.800
190.286	13.985	941.590	713.876
191.300	13.916	940.941	713.027
192.315	13.818	940.749	712.398
193.329	13.878	940.119	712.111
194.344	13.863	939.591	711.584
195.359	13.898	938.579	710.905
196.373	14.081	937.839	711.063
197.388	14.092	937.694	710.940
198.402	14.121	937.370	710.756
199.417	14.170	936.359	710.135
200.432	14.178	935.998	709.832
201.446	14.221	935.433	709.526
202.461	14.330	934.158	708.959
203.475	14.155	934.680	708.545
204.490	14.157	933.686	707.739
205.504	14.167	932.768	707.025
206.519	14.235	931.738	706.468
207.534	14.287	931.251	706.258
208.548	14.226	930.787	705.586
209.563	14.220	929.990	704.891
210.577	14.316	929.216	704.648
211.592	14.356	928.515	704.222
212.607	14.367	927.719	703.606
213.621	14.463	926.919	703.343
214.636	14.362	926.225	702.328
215.650	14.397	925.705	702.019
216.665	14.352	924.767	701.056
217.680	14.481	924.355	701.221
218.694	14.415	923.486	700.223
219.709	14.456	922.792	699.810
220.723	14.364	922.501	699.139
221.738	14.472	921.543	698.805
222.753	14.448	921.087	698.298
223.767	14.639	920.178	698.346
224.782	14.669	919.434	697.845
225.796	14.701	919.064	697.636
226.811	14.627	918.413	696.770
227.826	14.570	917.503	695.781
228.840	14.598	916.905	695.383
229.855	14.475	916.420	694.441
230.869	14.581	915.242	693.928
231.884	14.465	914.736	693.000
232.899	14.488	914.039	692.508
233.913	14.542	913.301	692.109
234.928	14.511	912.894	691.611
235.942	14.572	912.313	691.362
236.957	14.528	911.820	690.747
237.972	14.465	911.232	689.978
238.986	14.659	910.554	690.205
240.001	14.419	909.987	688.721
241.015	14.646	908.912	688.785
242.030	14.584	908.381	688.068
243.045	14.647	907.950	687.937
244.059	14.690	907.713	687.875
245.074	14.684	906.778	687.080
246.088	14.639	906.010	686.256
247.103	14.765	905.163	686.068
248.117	14.840	904.630	685.913
249.132	14.918	903.968	685.668
250.147	14.807	903.716	684.964
251.161	14.919	902.954	684.782
252.176	15.022	902.223	684.590
253.190	15.013	901.779	684.155
254.205	15.109	900.860	683.791
255.220	15.273	899.921	683.687
256.234	14.932	899.770	682.121
257.249	15.070	898.898	681.958
258.263	15.055	898.000	681.156
259.278	15.038	897.390	680.566
260.293	15.127	897.157	680.692
261.307	15.254	896.240	680.450
262.322	15.189	895.583	679.628
263.336	15.183	894.732	678.897
264.351	15.304	893.630	678.490
265.366	15.482	893.297	678.899
266.380	15.134	893.057	677.248
267.395	15.287	892.038	677.032
268.409	15.240	891.255	676.191
269.424	15.285	890.566	675.787
270.439	15.282	889.758	675.103
271.453	15.350	889.392	675.040
272.468	15.294	889.140	674.564
273.482	15.294	888.185	673.779
274.497	15.324	887.605	673.401
275.512	15.340	887.184	673.084
276.526	15.323	886.470	672.417
277.541	15.243	886.232	671.857
278.555	15.431	885.614	672.078
279.570	15.436	884.902	671.499
280.585	15.449	884.005	670.813
281.599	15.456	883.484	670.387
282.614	15.478	883.000	670.048
283.628	15.509	882.033	669.377
284.643	15.485	881.556	668.860
285.657	15.487	881.003	668.389
286.672	15.461	880.387	667.761
287.687	15.513	879.440	667.187
288.701	15.543	878.675	666.670
289.716	15.691	878.300	666.911
290.730	15.678	877.818	666.434
291.745	15.574	877.180	665.479
292.760	15.573	876.654	665.019
293.774	15.561	876.113	664.501
294.789	15.552	875.705	664.096
295.803	15.733	874.153	663.575
296.818	15.533	874.126	662.706
297.833	15.744	873.405	662.933
298.847	15.764	872.616	662.355
299.862	15.762	872.264	662.022
300.876	15.884	871.392	661.782
301.891	15.754	870.937	660.869
302.906	15.845	870.318	660.695
303.920	15.863	869.962	660.435
304.935	15.896	869.377	660.066
305.949	15.834	868.983	659.463
306.964	15.879	868.144	658.946
307.979	15.838	867.320	658.100
308.993	15.907	867.065	658.119
310.008	15.891	866.716	657.734
311.022	15.887	865.737	656.915
312.037	15.868	865.331	656.475
313.052	15.901	864.448	655.876
314.066	15.853	864.160	655.412
315.081	15.917	863.719	655.269
316.095	15.890	862.994	654.558
317.110	15.927	861.900	653.814
318.125	15.800	862.015	653.349
319.139	15.932	861.117	653.122
320.154	16.044	860.364	652.929
321.168	15.940	860.527	652.591
322.183	16.111	859.643	652.524
323.197	16.064	859.187	651.937
324.212	16.019	858.385	651.098
325.227	16.012	857.987	650.711
326.241	16.128	857.482	650.717
327.256	16.019	856.599	649.572
328.270	16.008	856.238	649.198
329.285	16.042	855.393	648.631
330.300	15.957	855.277	648.159
331.314	15.978	854.772	647.801
332.329	16.137	854.052	647.805
333.343	16.157	853.693	647.552
334.358	16.085	853.193	646.839
335.373	16.166	852.966	646.922
336.387	16.150	852.586	646.514
337.402	16.226	852.483	646.673
338.416	16.285	851.806	646.327
339.431	16.280	851.314	645.877
340.446	16.360	850.621	645.599
341.460	16.320	850.736	645.475
342.475	16.303	850.359	645.067
343.489	16.449	849.789	645.137
344.504	16.639	848.950	645.167
345.519	16.550	848.222	644.218
346.533	16.485	847.891	643.662
347.548	16.416	847.540	643.077
348.562	16.480	847.097	642.924
349.577	16.402	846.805	642.351
350.592	16.416	845.746	641.543
351.606	16.403	845.563	641.300
352.621	16.511	844.182	640.604
353.635	16.478	844.015	640.297
354.650	16.389	843.447	639.470
355.665	16.468	842.816	639.237
356.679	16.550	842.093	638.942
357.694	16.452	841.674	638.195
358.708	16.712	840.621	638.321
359.723	16.690	840.050	637.748
360.738	16.592	839.580	636.965
361.752	16.588	838.950	636.417
362.767	16.685	838.538	636.412
363.781	16.679	838.050	635.963
364.796	16.658	837.898	635.713
365.810	16.787	837.068	635.512
366.825	16.730	836.790	635.030
367.840	16.945	836.021	635.197
368.854	16.929	835.644	634.791
369.869	16.823	835.400	634.156
370.883	16.918	834.615	633.859
371.898	16.914	834.404	633.625
372.913	16.934	834.108	633.421
373.927	16.818	833.577	632.528
374.942	16.738	833.213	631.898
375.956	16.963	832.537	632.168
376.971	17.106	831.794	632.080
377.986	16.990	831.658	631.487
379.000	17.109	831.141	631.484
380.015	16.967	830.552	630.452
381.029	17.046	830.409	630.580
382.044	17.096	829.413	629.954
383.059	17.039	828.955	629.339
384.073	17.189	828.271	629.322
385.088	17.059	827.730	628.370
386.102	17.096	827.150	628.013
387.117	17.075	826.757	627.582
388.132	17.018	826.218	626.904
389.146	17.140	825.490	626.749
390.161	17.359	824.640	626.857
391.175	17.132	824.634	625.959
392.190	17.272	824.064	625.985
393.205	17.304	823.257	625.434
394.219	17.222	823.394	625.180
395.234	17.039	823.377	624.439
396.248	17.085	822.639	623.995
397.263	17.145	822.025	623.694
398.278	17.098	821.639	623.175
399.292	17.254	821.188	623.349
400.307	17.158	820.751	622.609
401.321	17.112	820.075	621.875
402.336	17.308	819.537	622.128
403.350	17.286	819.049	621.622
404.365	17.176	819.100	621.202
405.380	17.476	818.144	621.520
406.394	17.247	817.733	620.315
407.409	17.435	817.431	620.719
408.423	17.313	817.339	620.147
409.438	17.403	816.878	620.070
410.453	17.561	816.156	620.045
411.467	17.511	815.889	619.603
412.482	17.549	815.039	619.040
413.496	17.592	814.934	619.064
414.511	17.573	814.981	618.975
415.526	17.533	814.220	618.199
416.540	17.639	813.812	618.217
417.555	17.688	812.959	617.693
418.569	17.705	812.737	617.531
419.584	17.714	812.243	617.133
420.599	17.793	811.844	617.061
421.613	104.476	1286.182	1445.935
422.628	90.048	1355.316	1446.032
