DTS Sentinel unit serial number:	SN413079Multiplexer serial number:	ORYXHardware model number:	OX4-SRSoftware version number:	ORYX F/W v4.00 Oryx Data Collector v3.7.2.0data status	okinstallation	princeton_trtdifferential loss correction	single-endedforward channel	channel 1reverse channel	N/Adate	2019/09/13time	01:50:35forward acquisition time	60.00reverse acquisition time	0.00gamma	496.2192k internal	0.2331k external	0.2331temperature offset calibration	1.0148default loss term (dB/km)	0.3790temperature slope calibration	1.0000multiplexer offset coefficient	1.0000multiplexer slope coefficient	1.0000fibre end	0.00T internal ref (°C)	27.67T ext. ref 1 (°C)	3.81T ext. ref 2 (°C)	22.31length (m)	temperature (°C)	Stokes	anti-Stokes-747.200	800.000	0.087	0.243
-746.185	-46.706	-0.053	0.026
-745.171	-200.000	-0.025	-0.155
-744.156	29.787	0.167	-0.144
-743.142	312.601	0.112	-0.211
-742.127	-99.969	-0.583	-0.146
-741.112	-20.784	0.192	0.118
-740.098	-146.713	-0.049	-0.004
-739.083	34.082	0.207	-0.181
-738.069	-200.000	-0.068	0.326
-737.054	-40.975	0.339	-0.176
-736.039	-121.393	-0.133	-0.022
-735.025	-84.255	0.152	0.048
-734.010	142.718	0.242	-0.324
-732.996	-22.628	-0.119	-0.072
-731.981	-200.000	-0.022	0.160
-730.966	-155.958	-0.297	0.019
-729.952	-85.035	-0.443	-0.140
-728.937	124.662	0.223	-0.283
-727.923	-155.235	0.186	0.012
-726.908	-200.000	0.006	-0.222
-725.894	11.040	-0.136	0.104
-724.879	213.456	0.127	-0.202
-723.864	800.000	0.052	0.160
-722.850	543.255	0.048	0.115
-721.835	-42.209	-0.165	0.085
-720.821	-130.744	-0.422	0.057
-719.806	18.743	0.292	0.235
-718.791	764.436	-0.133	0.364
-717.777	-200.000	-0.019	-0.145
-716.762	194.701	-0.054	-0.082
-715.748	800.000	-0.045	-0.130
-714.733	-142.163	-0.215	-0.021
-713.718	21.228	0.202	-0.165
-712.704	-101.236	0.101	-0.025
-711.689	-127.667	-0.298	0.043
-710.675	178.926	0.196	0.288
-709.660	-200.000	0.011	0.100
-708.645	92.706	0.137	-0.155
-707.631	525.555	-0.133	-0.314
-706.616	-100.075	-0.155	0.039
-705.602	-95.520	0.050	-0.013
-704.587	111.618	0.163	-0.197
-703.572	-200.000	0.012	-0.306
-702.558	-2.325	0.208	-0.147
-701.543	68.701	-0.095	-0.098
-700.529	-61.525	0.215	-0.091
-699.514	115.153	-0.024	-0.030
-698.499	-116.133	0.151	-0.028
-697.485	3.913	-0.305	-0.224
-696.470	-200.000	0.056	0.278
-695.456	576.027	-0.091	0.222
-694.441	478.247	0.061	-0.139
-693.426	800.000	0.069	-0.294
-692.412	-169.812	-0.186	-0.007
-691.397	52.105	-0.364	-0.349
-690.383	570.401	-0.038	-0.094
-689.368	-34.086	-0.231	-0.127
-688.354	529.974	-0.067	-0.159
-687.339	-101.788	-0.163	-0.040
-686.324	800.000	-0.021	-0.083
-685.310	615.313	0.040	-0.101
-684.295	800.000	-0.046	0.166
-683.281	10.986	0.264	0.203
-682.266	73.672	0.393	-0.414
-681.251	302.976	-0.196	-0.365
-680.237	240.422	-0.042	0.071
-679.222	-200.000	0.007	0.126
-678.208	800.000	0.077	-0.269
-677.193	-200.000	-0.033	-0.159
-676.178	-41.087	0.151	0.078
-675.164	-7.259	-0.219	0.149
-674.149	148.944	-0.053	-0.072
-673.135	-200.000	-0.022	-0.133
-672.120	-200.000	0.034	-0.368
-671.105	279.569	-0.039	0.069
-670.091	95.494	-0.112	0.129
-669.076	-77.164	0.207	0.072
-668.062	-2.097	-0.140	0.099
-667.047	800.000	-0.021	0.074
-666.032	-100.512	0.141	-0.035
-665.018	210.899	-0.118	-0.186
-664.003	108.758	-0.038	-0.045
-662.989	46.028	0.167	0.155
-661.974	33.327	0.098	0.086
-660.959	-168.758	-0.306	-0.012
-659.945	-200.000	0.004	0.166
-658.930	-144.080	-0.362	-0.034
-657.916	-200.000	0.044	-0.297
-656.901	5.283	0.331	-0.245
-655.886	-200.000	0.013	0.063
-654.872	-104.202	-0.158	-0.037
-653.857	171.310	0.197	-0.283
-652.843	-118.854	0.222	-0.039
-651.828	-200.000	-0.015	0.279
-650.814	249.641	0.108	0.183
-649.799	188.025	-0.052	0.078
-648.784	232.303	-0.126	0.208
-647.770	800.000	-0.058	0.210
-646.755	121.641	0.149	-0.186
-645.741	701.661	0.162	-0.429
-644.726	-61.780	0.133	-0.056
-643.711	-122.701	0.173	-0.028
-642.697	57.019	-0.314	-0.307
-641.682	-14.246	0.109	0.070
-640.668	800.000	0.040	-0.169
-639.653	-49.295	-0.354	0.170
-638.638	-143.943	0.094	-0.009
-637.624	800.000	-0.113	-0.325
-636.609	800.000	0.046	0.178
-635.595	-27.209	-0.277	0.162
-634.580	-103.029	0.093	-0.022
-633.565	-69.765	0.297	-0.114
-632.551	-88.917	0.341	-0.101
-631.536	-109.172	0.145	-0.031
-630.522	-52.091	-0.111	-0.052
-629.507	-135.040	0.178	-0.022
-628.492	613.966	-0.053	-0.134
-627.478	30.485	0.100	-0.085
-626.463	-200.000	-0.000	-0.163
-625.449	257.347	-0.270	-0.464
-624.434	-119.846	0.265	-0.046
-623.419	-13.417	0.094	0.061
-622.405	800.000	-0.053	0.190
-621.390	24.724	0.174	-0.144
-620.376	574.303	-0.126	-0.308
-619.361	800.000	0.110	0.457
-618.346	256.658	0.184	0.316
-617.332	519.868	-0.145	-0.341
-616.317	-17.523	0.234	0.147
-615.303	12.790	-0.090	0.070
-614.288	800.000	-0.092	-0.256
-613.273	98.223	0.257	-0.296
-612.259	800.000	-0.058	-0.168
-611.244	293.870	-0.097	0.177
-610.230	167.472	0.205	-0.292
-609.215	-12.204	-0.333	0.218
-608.201	-95.417	0.102	-0.027
-607.186	211.579	0.133	0.209
-606.171	46.180	-0.076	-0.070
-605.157	-200.000	0.009	0.166
-604.142	34.636	-0.204	-0.179
-603.128	800.000	-0.120	-0.375
-602.113	-200.000	-0.062	-0.328
-601.098	748.557	-0.116	-0.312
-600.084	-120.535	0.246	-0.042
-599.069	-200.000	-0.013	-0.078
-598.055	12.645	0.074	-0.058
-597.040	-24.434	-0.298	0.178
-596.025	338.326	-0.088	-0.172
-595.011	-200.000	-0.001	0.141
-593.996	341.154	-0.076	0.148
-592.982	-90.066	0.213	0.062
-591.967	-120.253	-0.271	0.046
-590.952	800.000	-0.093	0.354
-589.938	-35.238	-0.223	-0.122
-588.923	-32.829	-0.231	0.128
-587.909	28.879	-0.243	-0.206
-586.894	-200.000	0.029	-0.141
-585.879	-23.419	0.133	0.080
-584.865	-181.202	0.068	-0.001
-583.850	-25.984	-0.194	0.114
-582.836	800.000	-0.113	0.371
-581.821	83.803	-0.161	0.176
-580.806	-158.244	-0.082	-0.005
-579.792	-15.242	0.401	-0.256
-578.777	-81.927	0.276	0.090
-577.763	180.162	0.053	-0.077
-576.748	800.000	-0.034	0.126
-575.733	156.090	-0.116	-0.160
-574.719	-128.021	0.098	-0.014
-573.704	253.678	-0.142	0.243
-572.690	170.273	0.198	0.283
-571.675	115.233	0.076	0.093
-570.661	800.000	-0.115	0.346
-569.646	-93.577	-0.384	-0.106
-568.631	-200.000	0.004	-0.052
-567.617	-200.000	0.030	0.184
-566.602	-110.180	0.229	-0.048
-565.588	224.372	-0.075	0.121
-564.573	-99.211	-0.284	-0.072
-563.558	481.625	-0.127	-0.288
-562.544	800.000	-0.106	-0.461
-561.529	224.537	0.052	-0.084
-560.515	-163.894	-0.319	-0.015
-559.500	203.352	-0.093	0.144
-558.485	800.000	-0.047	-0.196
-557.471	-200.000	-0.027	-0.139
-556.456	-144.657	-0.139	-0.013
-555.442	481.001	-0.161	0.364
-554.427	-93.195	0.133	-0.037
-553.412	-62.601	-0.320	-0.133
-552.398	10.574	0.177	0.134
-551.383	167.657	-0.103	0.147
-550.369	45.824	0.067	-0.062
-549.354	89.569	0.095	0.106
-548.339	349.023	-0.167	-0.329
-547.325	-200.000	0.029	0.216
-546.310	-28.925	0.099	0.057
-545.296	800.000	0.142	0.413
-544.281	12.058	0.314	0.241
-543.266	-200.000	-0.081	0.509
-542.252	194.037	-0.131	-0.197
-541.237	62.890	-0.231	0.231
-540.223	215.299	0.046	0.072
-539.208	721.216	-0.073	0.193
-538.193	186.069	0.178	0.264
-537.179	47.892	-0.240	0.224
-536.164	-126.303	-0.189	0.028
-535.150	-143.941	-0.163	-0.015
-534.135	469.372	0.078	0.175
-533.121	4.203	0.264	0.193
-532.106	-177.853	0.278	0.007
-531.091	-37.830	-0.026	-0.014
-530.077	442.564	-0.085	0.186
-529.062	-200.000	-0.010	-0.122
-528.048	175.034	-0.061	0.089
-527.033	91.065	-0.133	-0.149
-526.018	282.722	-0.151	-0.270
-525.004	153.717	0.079	0.108
-523.989	-47.689	0.305	0.148
-522.975	800.000	-0.021	-0.073
-521.960	-159.548	0.108	-0.006
-520.945	800.000	0.081	-0.247
-519.931	-8.580	-0.192	-0.129
-518.916	-200.000	0.058	0.283
-517.902	-91.739	-0.222	0.063
-516.887	-86.040	-0.063	-0.019
-515.872	800.000	0.050	0.192
-514.858	-99.431	-0.153	-0.038
-513.843	-200.000	-0.061	0.353
-512.829	-84.142	0.062	-0.019
-511.814	800.000	0.112	-0.380
-510.799	31.101	0.045	-0.039
-509.785	-86.569	-0.254	-0.078
-508.770	800.000	0.082	-0.276
-507.756	-200.000	-0.047	-0.240
-506.741	415.010	0.043	-0.092
-505.726	-200.000	0.037	0.169
-504.712	81.855	-0.128	-0.139
-503.697	180.307	0.030	0.044
-502.683	800.000	0.013	0.054
-501.668	-200.000	-0.022	0.229
-500.653	148.043	0.203	-0.274
-499.639	72.118	-0.135	-0.140
-498.624	-18.653	-0.241	0.150
-497.610	30.450	0.157	-0.134
-496.595	-200.000	0.002	-0.072
-495.581	-200.000	-0.022	-0.224
-494.566	80.647	0.022	-0.024
-493.551	-67.650	-0.027	-0.010
-492.537	-90.532	0.525	-0.152
-491.522	155.666	-0.120	-0.165
-490.508	-200.000	0.008	-0.139
-489.493	329.986	0.067	0.128
-488.478	800.000	0.061	0.190
-487.464	-96.983	-0.180	-0.047
-486.449	-117.246	-0.193	-0.035
-485.435	-4.998	0.117	-0.080
-484.420	438.992	-0.064	-0.140
-483.405	148.850	0.005	0.006
-482.391	255.916	0.120	-0.206
-481.376	-71.794	0.111	0.041
-480.362	399.174	0.065	0.136
-479.347	-21.473	-0.180	-0.110
-478.332	-145.388	-0.323	-0.029
-477.318	47.436	0.237	0.220
-476.303	-80.233	-0.044	-0.015
-475.289	-200.000	-0.045	0.284
-474.274	68.092	0.276	-0.282
-473.259	-200.000	0.001	-0.079
-472.245	800.000	0.041	-0.148
-471.230	800.000	-0.124	-0.466
-470.216	37.936	-0.205	-0.181
-469.201	-160.865	0.181	0.009
-468.186	-1.946	-0.320	-0.224
-467.172	42.843	-0.092	-0.084
-466.157	52.347	-0.154	0.147
-465.143	14.049	0.126	0.098
-464.128	-57.889	0.229	0.100
-463.113	800.000	-0.072	-0.242
-462.099	206.525	0.090	-0.140
-461.084	79.993	0.123	-0.131
-460.070	-28.268	0.063	-0.036
-459.055	-200.000	0.003	-0.396
-458.040	800.000	0.049	0.161
-457.026	664.553	0.060	0.155
-456.011	-105.906	-0.228	0.051
-454.997	-26.581	-0.549	-0.320
-453.982	800.000	0.055	-0.168
-452.968	-66.352	0.404	-0.160
-451.953	-99.312	-0.239	0.060
-450.938	-36.847	-0.391	-0.209
-449.924	-200.000	0.006	0.086
-448.909	-90.405	0.116	-0.033
-447.895	56.519	-0.101	0.098
-446.880	-62.387	0.135	-0.056
-445.865	162.139	-0.078	0.109
-444.851	-68.670	0.135	0.052
-443.836	-200.000	0.052	-0.367
-442.822	63.345	-0.089	-0.089
-441.807	62.137	-0.228	0.226
-440.792	760.829	0.077	0.207
-439.778	800.000	0.118	0.403
-438.763	-114.444	0.153	-0.029
-437.749	370.916	0.063	0.127
-436.734	-124.905	-0.196	-0.030
-435.719	-104.705	0.180	0.041
-434.705	-127.915	0.231	-0.033
-433.690	-127.358	0.126	0.018
-432.676	800.000	-0.071	-0.208
-431.661	-200.000	-0.007	-0.111
-430.646	79.757	0.278	-0.297
-429.632	48.210	-0.338	-0.314
-428.617	256.343	0.060	0.102
-427.603	800.000	0.164	-0.477
-426.588	-7.354	0.175	-0.118
-425.573	800.000	0.077	0.250
-424.559	159.120	0.191	0.264
-423.544	-200.000	-0.012	0.106
-422.530	15.686	0.061	0.048
-421.515	-70.943	0.074	-0.028
-420.500	700.737	-0.029	-0.077
-419.486	-200.000	-0.024	0.256
-418.471	753.120	0.024	0.065
-417.457	227.987	-0.117	-0.190
-416.442	176.365	0.057	0.082
-415.428	173.365	0.075	-0.108
-414.413	800.000	-0.077	0.275
-413.398	-25.128	0.108	-0.064
-412.384	-200.000	0.001	0.263
-411.369	-200.000	0.005	0.251
-410.355	-200.000	-0.123	0.555
-409.340	37.045	-0.144	0.126
-408.325	-77.013	-0.391	0.136
-407.311	-19.502	-0.116	0.071
-406.296	800.000	0.071	-0.254
-405.282	-65.344	-0.167	0.067
-404.267	-70.622	0.070	0.026
-403.252	119.595	-0.070	0.086
-402.238	470.017	0.054	-0.121
-401.223	-32.490	0.129	-0.071
-400.209	-9.600	-0.323	-0.214
-399.194	-95.725	0.152	-0.040
-398.179	216.968	-0.108	-0.170
-397.165	800.000	0.066	0.188
-396.150	-107.341	-0.084	0.018
-395.136	-200.000	-0.026	0.185
-394.121	-81.781	-0.344	-0.112
-393.106	16.046	-0.254	-0.199
-392.092	37.443	0.125	0.110
-391.077	61.201	0.330	-0.326
-390.063	-200.000	0.002	0.053
-389.048	-200.000	-0.016	-0.113
-388.033	105.258	-0.190	0.223
-387.019	-50.023	-0.222	0.104
-386.004	-200.000	-0.015	0.074
-384.990	190.011	-0.251	-0.373
-383.975	-200.000	-0.005	-0.234
-382.960	-69.298	0.438	-0.167
-381.946	-200.000	-0.027	0.179
-380.931	-158.037	-0.076	-0.004
-379.917	-200.000	0.011	-0.171
-378.902	-59.312	-0.263	-0.112
-377.888	-200.000	0.003	-0.047
-376.873	800.000	0.062	0.197
-375.858	-200.000	0.014	0.097
-374.844	-200.000	0.000	0.129
-373.829	-91.399	-0.208	-0.059
-372.815	-22.107	0.167	0.101
-371.800	-68.005	0.045	-0.018
-370.785	274.537	-0.234	0.412
-369.771	-26.882	-0.094	0.054
-368.756	-72.215	0.433	-0.159
-367.742	-8.129	-0.263	-0.176
-366.727	-97.334	0.106	-0.027
-365.712	7.496	-0.147	-0.109
-364.698	283.093	0.062	-0.111
-363.683	-137.934	-0.123	0.014
-362.669	46.633	-0.118	0.109
-361.654	-193.261	0.292	-0.003
-360.639	-200.000	0.055	0.477
-359.625	-192.834	-0.217	-0.002
-358.610	-108.753	0.135	-0.029
-357.596	-200.000	0.026	-0.227
-356.581	-30.187	-0.174	-0.098
-355.566	32.678	0.303	0.260
-354.552	-200.000	0.003	0.065
-353.537	-200.000	0.041	-0.459
-352.523	-200.000	0.001	-0.185
-351.508	-96.743	-0.229	-0.060
-350.493	363.614	0.245	-0.489
-349.479	-71.523	-0.232	-0.086
-348.464	-75.630	-0.055	-0.019
-347.450	153.087	0.190	0.257
-346.435	345.328	-0.081	-0.157
-345.420	-200.000	0.015	-0.197
-344.406	5.163	-0.223	-0.163
-343.391	5.048	0.110	0.080
-342.377	-117.512	-0.162	0.029
-341.362	138.161	-0.058	-0.076
-340.348	87.205	-0.195	0.213
-339.333	14.267	-0.188	-0.145
-338.318	102.107	-0.233	0.270
-337.304	-142.622	-0.073	0.007
-336.289	-70.402	0.378	0.142
-335.275	781.847	-0.063	-0.170
-334.260	800.000	0.035	0.115
-333.245	65.641	0.025	0.025
-332.231	-200.000	0.005	-0.228
-331.216	28.131	0.306	0.255
-330.202	307.343	-0.041	0.075
-329.187	-200.000	-0.011	-0.156
-328.172	-36.283	0.423	0.226
-327.158	16.487	0.259	0.202
-326.143	72.601	0.095	-0.098
-325.129	-9.754	0.131	-0.087
-324.114	-3.821	-0.359	-0.247
-323.099	-200.000	-0.004	-0.341
-322.085	800.000	0.066	-0.238
-321.070	-16.081	-0.187	-0.118
-320.056	-18.257	-0.213	-0.132
-319.041	174.246	0.087	-0.124
-318.026	273.645	0.064	-0.111
-317.012	113.631	-0.080	0.096
-315.997	-86.185	0.297	-0.091
-314.983	-200.000	-0.051	-0.239
-313.968	238.147	0.149	-0.244
-312.953	103.772	-0.092	0.107
-311.939	-7.670	0.092	-0.061
-310.924	-99.948	-0.322	0.080
-309.910	-200.000	-0.009	-0.196
-308.895	88.545	-0.225	0.248
-307.880	-49.164	0.118	0.056
-306.866	800.000	-0.115	0.319
-305.851	800.000	0.091	0.350
-304.837	800.000	0.057	-0.179
-303.822	-0.139	0.228	0.160
-302.807	-200.000	-0.010	-0.214
-301.793	275.011	-0.165	-0.289
-300.778	-200.000	0.092	0.441
-299.764	658.720	0.029	-0.073
-298.749	200.944	0.059	-0.090
-297.735	-133.868	0.347	-0.043
-296.720	192.632	0.053	-0.080
-295.705	800.000	-0.151	-0.416
-294.691	466.538	-0.115	0.254
-293.676	281.493	-0.177	0.313
-292.662	-200.000	0.031	0.186
-291.647	-200.000	0.056	0.255
-290.632	32.422	0.132	0.113
-289.618	-200.000	-0.018	0.196
-288.603	-155.807	0.110	0.007
-287.589	-168.962	-0.205	0.008
-286.574	622.160	-0.093	-0.231
-285.559	-158.467	0.343	0.020
-284.545	-31.626	0.145	0.080
-283.530	-200.000	-0.026	0.140
-282.516	800.000	0.049	-0.164
-281.501	-133.766	-0.212	-0.026
-280.486	-200.000	-0.003	0.171
-279.472	-86.053	-0.216	-0.066
-278.457	-90.710	-0.171	0.049
-277.443	-101.624	0.214	-0.051
-276.428	-49.115	0.280	-0.133
-275.413	288.811	-0.116	0.207
-274.399	218.228	0.096	0.151
-273.384	-200.000	-0.020	-0.131
-272.370	293.629	0.081	-0.147
-271.355	-6.373	-0.115	-0.078
-270.340	-137.272	0.296	0.033
-269.326	-200.000	0.025	0.305
-268.311	-11.113	0.174	-0.114
-267.297	277.660	0.064	0.112
-266.282	121.788	0.105	0.129
-265.267	-200.000	0.032	0.152
-264.253	-93.209	-0.041	-0.011
-263.238	-200.000	0.040	-0.240
-262.224	-200.000	0.009	0.193
-261.209	-86.333	-0.234	-0.071
-260.195	-64.190	-0.067	0.027
-259.180	-129.296	-0.043	-0.006
-258.165	208.277	-0.076	0.117
-257.151	800.000	-0.150	0.425
-256.136	79.269	0.032	0.034
-255.122	-34.168	-0.024	0.013
-254.107	166.478	0.333	0.466
-253.092	-77.374	-0.153	-0.052
-252.078	-92.277	0.164	0.046
-251.063	-109.597	-0.211	0.044
-250.049	238.041	0.138	0.226
-249.034	-22.908	-0.381	-0.227
-248.019	800.000	-0.094	-0.278
-247.005	136.757	-0.086	-0.111
-245.990	17.463	-0.123	0.097
-244.976	-94.894	-0.075	-0.020
-243.961	361.913	-0.040	0.080
-242.946	-36.537	0.309	0.164
-241.932	-74.835	-0.185	0.066
-240.917	-48.619	0.226	0.107
-239.903	-98.967	0.279	0.070
-238.888	-68.560	0.221	0.085
-237.873	30.902	0.087	0.074
-236.859	-107.289	0.413	0.090
-235.844	13.565	0.123	-0.094
-234.830	18.940	-0.157	0.124
-233.815	69.049	0.101	0.103
-232.800	22.096	-0.243	0.196
-231.786	-31.607	0.197	0.109
-230.771	-54.686	0.289	0.129
-229.757	-72.799	-0.058	-0.021
-228.742	-144.590	-0.073	0.007
-227.727	-74.137	-0.160	-0.057
-226.713	-200.000	0.010	0.226
-225.698	-6.870	-0.187	-0.126
-224.684	-45.129	0.331	0.162
-223.669	28.279	0.242	-0.202
-222.655	593.641	-0.110	0.268
-221.640	-200.000	0.057	-0.397
-220.625	3.314	0.284	-0.204
-219.611	-40.610	0.175	-0.089
-218.596	-200.000	-0.056	0.467
-217.582	691.723	0.105	0.270
-216.567	536.416	0.010	-0.023
-215.552	601.863	-0.029	0.072
-214.538	800.000	0.073	0.211
-213.523	-200.000	-0.034	-0.334
-212.509	536.557	-0.104	0.243
-211.494	-200.000	0.018	0.224
-210.479	-36.924	0.161	-0.085
-209.465	352.510	-0.163	0.319
-208.450	-200.000	-0.038	0.298
-207.436	-194.765	-0.210	0.002
-206.421	204.915	0.076	0.116
-205.406	139.097	-0.153	0.199
-204.392	62.793	0.272	-0.268
-203.377	-52.940	0.167	0.076
-202.363	-116.544	0.124	-0.023
-201.348	34.950	0.032	-0.027
-200.333	-200.000	0.016	-0.145
-199.319	61.898	-0.037	-0.036
-198.304	191.564	-0.154	0.229
-197.290	-91.451	0.194	0.055
-196.275	513.927	-0.082	-0.188
-195.260	699.384	0.115	0.297
-194.246	-66.972	-0.129	-0.050
-193.231	205.451	0.102	0.156
-192.217	-167.716	0.179	0.007
-191.202	337.500	-0.182	-0.348
-190.187	-79.733	0.221	-0.073
-189.173	-73.319	-0.160	0.058
-188.158	-73.323	-0.186	0.067
-187.144	-176.071	0.022	0.001
-186.129	196.161	0.197	0.296
-185.114	-6.460	-0.100	0.067
-184.100	-200.000	0.020	0.168
-183.085	32.782	0.051	0.043
-182.071	-31.928	0.201	0.111
-181.056	314.743	-0.157	-0.291
-180.042	-200.000	-0.004	-0.159
-179.027	90.494	-0.197	-0.217
-178.012	-189.963	0.067	-0.001
-176.998	48.947	0.085	0.079
-175.983	800.000	-0.090	-0.340
-174.969	-200.000	0.040	-0.228
-173.954	-109.406	-0.046	0.010
-172.939	198.367	-0.103	0.155
-171.925	-115.806	-0.217	-0.040
-170.910	-200.000	0.200	0.001
-169.896	800.000	-0.102	-0.423
-168.881	800.000	0.002	0.005
-167.866	-200.000	-0.006	-0.415
-166.852	-101.595	-0.133	0.032
-165.837	467.973	0.109	0.241
-164.823	494.368	-0.067	0.151
-163.808	78.632	-0.189	-0.199
-162.793	-150.724	0.147	-0.011
-161.779	613.487	-0.083	0.205
-160.764	46.879	-0.048	-0.044
-159.750	518.645	-0.106	0.245
-158.735	701.638	0.061	0.159
-157.720	-200.000	0.013	0.120
-156.706	-122.995	-0.137	-0.022
-155.691	-145.973	0.512	0.045
-154.677	800.000	0.058	0.194
-153.662	-113.077	0.507	-0.099
-152.647	55.008	0.179	-0.170
-151.633	-2.847	-0.245	-0.168
-150.618	-200.000	0.038	-0.229
-149.604	-200.000	0.006	-0.093
-148.589	46.713	0.127	-0.116
-147.574	-172.276	-0.085	-0.003
-146.560	800.000	0.066	-0.279
-145.545	-11.916	0.243	0.157
-144.531	-85.619	0.231	0.071
-143.516	-6.275	0.183	0.123
-142.502	368.117	0.134	0.266
-141.487	800.000	0.006	-0.017
-140.472	-136.124	0.433	0.050
-139.458	-200.000	0.081	0.411
-138.443	121.463	0.069	-0.085
-137.429	633.371	0.117	-0.291
-136.414	-200.000	-0.012	0.371
-135.399	17.822	0.057	0.045
-134.385	405.800	0.071	0.148
-133.370	43.903	-0.091	-0.082
-132.356	12.621	-0.173	0.131
-131.341	46.362	0.165	0.151
-130.326	51.303	-0.345	0.322
-129.312	-9.323	-0.184	0.121
-128.297	426.647	0.083	0.176
-127.283	596.506	-0.135	-0.328
-126.268	-39.864	-0.049	-0.025
-125.253	-156.004	0.119	-0.007
-124.239	-76.814	-0.402	0.138
-123.224	-174.157	-0.052	0.001
-122.210	-143.003	0.192	-0.018
-121.195	162.163	0.030	-0.041
-120.180	-11.279	-0.133	0.086
-119.166	-82.943	0.324	-0.103
-118.151	476.838	0.076	-0.170
-117.137	-92.244	-0.137	-0.038
-116.122	-66.154	-0.077	0.030
-115.107	135.818	0.110	-0.140
-114.093	-141.529	-0.150	-0.015
-113.078	-32.601	0.162	-0.089
-112.064	212.823	-0.026	-0.040
-111.049	-200.000	-0.001	0.052
-110.034	-99.131	-0.274	0.068
-109.020	-200.000	0.029	0.243
-108.005	204.478	0.112	-0.170
-106.991	800.000	0.078	-0.286
-105.976	800.000	-0.053	-0.202
-104.962	-104.903	-0.254	-0.057
-103.947	551.813	-0.052	0.123
-102.932	45.871	-0.200	0.182
-101.918	-74.122	0.159	-0.057
-100.903	289.820	-0.067	-0.120
-99.889	29.969	0.158	-0.132
-98.874	59.765	0.194	0.188
-97.859	17.134	0.080	-0.062
-96.845	-200.000	-0.006	0.557
-95.830	98.965	0.340	0.385
-94.816	-121.411	0.196	0.032
-93.801	-200.000	0.003	0.074
-92.786	-200.000	0.021	-0.134
-91.772	673.919	0.090	-0.230
-90.757	40.719	0.214	-0.189
-89.743	118.482	-0.140	-0.169
-88.728	103.176	0.146	-0.168
-87.713	78.268	0.168	0.176
-86.699	800.000	0.049	-0.135
-85.684	-14.024	0.356	0.226
-84.670	121.203	-0.134	0.164
-83.655	177.484	0.163	0.233
-82.640	28.224	0.192	-0.159
-81.626	270.375	0.102	-0.176
-80.611	-200.000	-0.022	0.186
-79.597	-103.511	-0.102	0.023
-78.582	-189.333	0.412	0.005
-77.567	-96.292	-0.265	-0.069
-76.553	550.302	-0.039	-0.092
-75.538	103.338	0.216	-0.248
-74.524	4.881	0.158	0.114
-73.509	66.997	-0.104	0.104
-72.494	40.005	0.040	-0.035
-71.480	253.272	-0.009	0.015
-70.465	-140.843	-0.246	-0.025
-69.451	-104.975	-0.027	-0.006
-68.436	15.271	0.105	-0.081
-67.422	800.000	-0.071	-0.246
-66.407	36.866	0.314	0.272
-65.392	-200.000	-0.021	-0.119
-64.378	-190.119	-0.123	-0.001
-63.363	-44.671	-0.470	0.230
-62.349	-25.344	0.259	-0.150
-61.334	132.563	-0.873	-1.103
-60.319	100.604	0.432	0.492
-59.305	800.000	-0.326	-0.991
-58.290	300.115	0.685	1.237
-57.276	362.150	0.871	1.713
-56.261	-200.000	113.933	650.850
-55.246	537.317	1520.260	3538.070
-54.232	179.007	2683.589	3844.442
-53.217	109.637	2148.331	2522.483
-52.203	39.204	1596.483	1399.347
-51.188	31.019	1343.892	1128.601
-50.173	28.038	1306.106	1079.262
-49.159	55.130	1362.261	1289.557
-48.144	53.934	1377.186	1296.444
-47.130	31.186	1331.727	1119.213
-46.115	27.859	1314.199	1084.709
-45.100	27.572	1309.631	1079.197
-44.086	27.352	1307.741	1076.300
-43.071	27.536	1304.848	1074.962
-42.057	27.485	1302.942	1073.046
-41.042	27.486	1301.590	1071.898
-40.027	27.593	1299.851	1071.050
-39.013	27.561	1298.007	1069.302
-37.998	27.566	1295.669	1067.363
-36.984	27.716	1294.034	1066.852
-35.969	27.647	1292.418	1065.073
-34.954	27.641	1290.716	1063.589
-33.940	27.781	1289.313	1063.209
-32.925	27.765	1287.867	1061.881
-31.911	27.683	1286.770	1060.460
-30.896	27.763	1285.400	1059.752
-29.881	27.853	1283.795	1058.910
-28.867	27.870	1282.447	1057.855
-27.852	27.794	1281.024	1056.199
-26.838	27.710	1279.791	1054.653
-25.823	27.721	1278.717	1053.791
-24.809	27.681	1277.609	1052.606
-23.794	27.773	1275.978	1051.750
-22.779	27.774	1274.542	1050.532
-21.765	27.740	1273.195	1049.181
-20.750	27.645	1272.021	1047.624
-19.736	27.736	1270.681	1047.003
-18.721	27.684	1269.807	1045.945
-17.706	27.600	1268.860	1044.639
-16.692	27.587	1267.494	1043.401
-15.677	27.635	1266.278	1042.630
-14.663	27.675	1265.143	1041.886
-13.648	27.603	1264.094	1040.567
-12.633	27.660	1263.217	1040.129
-11.619	27.619	1262.008	1038.860
-10.604	27.658	1261.245	1038.412
-9.590	27.604	1260.526	1037.475
-8.575	27.556	1259.204	1036.069
-7.560	27.511	1258.397	1035.111
-6.546	27.692	1257.297	1035.194
-5.531	27.557	1256.708	1033.900
-4.517	27.620	1255.995	1033.628
-3.502	27.585	1255.414	1032.915
-2.487	27.666	1254.258	1032.377
-1.473	27.617	1250.363	1028.852
-0.458	26.031	1235.018	1007.339
0.556	24.070	1217.750	969.528
1.571	20.314	1222.419	952.588
2.586	19.303	1237.219	958.419
3.600	19.036	1225.953	948.132
4.615	14.788	1154.249	870.512
5.629	7.412	1081.718	779.606
6.644	4.026	1063.661	750.140
7.659	3.805	1061.101	747.198
8.673	3.752	1059.633	745.844
9.688	3.658	1058.483	744.515
10.702	3.846	1057.020	744.327
11.717	8.860	1062.870	772.599
12.731	16.849	1074.979	820.136
13.746	21.767	1080.833	848.396
14.761	22.695	1081.529	853.360
15.775	21.814	1079.994	847.816
16.790	21.030	1077.880	842.296
17.804	20.507	1076.608	838.706
18.819	20.243	1075.915	836.820
19.834	20.223	1075.458	836.292
20.848	20.199	1075.152	835.864
21.863	20.158	1073.555	834.354
22.877	19.873	1073.568	832.915
23.892	19.837	1072.410	831.772
24.907	19.780	1071.877	831.009
25.921	19.809	1070.568	830.062
26.936	19.757	1069.385	828.824
27.950	19.730	1067.852	827.429
28.965	19.913	1066.454	827.149
29.980	20.123	1064.989	826.941
30.994	20.309	1063.914	826.922
32.009	20.213	1063.744	826.258
33.023	20.268	1062.070	825.147
34.038	19.958	1061.664	823.282
35.053	19.910	1060.859	822.357
36.067	19.958	1059.526	821.481
37.082	19.968	1058.598	820.735
38.096	20.000	1058.433	820.686
39.111	20.115	1057.193	820.198
40.126	19.932	1055.963	818.306
41.140	19.594	1054.868	815.789
42.155	19.369	1053.024	813.230
43.169	19.311	1051.993	812.085
44.184	19.384	1050.929	811.535
45.199	19.461	1050.283	811.328
46.213	19.650	1049.550	811.577
47.228	20.039	1048.575	812.577
48.242	20.060	1047.756	811.971
49.257	20.004	1047.049	811.085
50.271	20.119	1046.245	810.929
51.286	20.128	1045.567	810.377
52.301	19.946	1044.878	808.921
53.315	19.896	1043.658	807.668
54.330	19.791	1042.398	806.136
55.344	19.510	1041.856	804.335
56.359	19.681	1040.389	803.928
57.374	19.519	1039.921	802.739
58.388	19.543	1038.660	801.808
59.403	19.251	1038.455	800.222
60.417	19.272	1037.547	799.550
61.432	19.329	1036.208	798.711
62.447	19.014	1035.808	796.875
63.461	19.088	1035.088	796.592
64.476	19.086	1033.807	795.524
65.490	19.168	1032.873	795.114
66.505	19.112	1032.514	794.510
67.520	19.129	1032.104	794.204
68.534	19.202	1030.920	793.557
69.549	18.993	1030.497	792.198
70.563	19.029	1029.673	791.663
71.578	18.843	1028.156	789.569
72.593	18.713	1027.741	788.585
73.607	18.589	1027.227	787.552
74.622	18.840	1026.797	788.306
75.636	19.017	1025.938	788.385
76.651	18.871	1025.819	787.556
77.666	18.957	1024.817	787.111
78.680	19.038	1024.022	786.802
79.695	19.003	1023.485	786.159
80.709	19.330	1022.926	787.154
81.724	19.257	1022.738	786.606
82.739	19.478	1021.762	786.791
83.753	19.865	1021.420	788.221
84.768	20.170	1021.023	789.233
85.782	20.315	1020.280	789.251
86.797	20.197	1019.633	788.146
87.812	19.987	1018.213	786.026
88.826	20.243	1016.778	786.006
89.841	20.133	1016.572	785.278
90.855	20.249	1015.803	785.143
91.870	20.309	1014.906	784.649
92.884	20.325	1013.909	783.881
93.899	20.163	1013.046	782.413
94.914	20.452	1011.750	782.646
95.928	20.238	1011.122	781.126
96.943	20.110	1010.149	779.733
97.957	20.072	1009.204	778.762
98.972	20.229	1008.342	778.733
99.987	20.255	1007.218	777.913
101.001	20.092	1006.841	776.822
102.016	20.135	1005.779	776.126
103.030	20.131	1005.092	775.509
104.045	20.144	1004.478	775.024
105.060	19.951	1003.201	773.108
106.074	19.715	1001.819	770.921
107.089	19.345	1001.079	768.636
108.103	19.283	999.497	767.078
109.118	19.364	998.328	766.472
110.133	19.140	997.420	764.714
111.147	19.055	997.222	764.116
112.162	19.252	995.990	763.980
113.176	19.514	995.496	764.692
114.191	19.321	995.357	763.664
115.206	19.343	994.537	763.063
116.220	19.348	993.253	762.035
117.235	19.471	992.058	761.592
118.249	19.279	991.248	760.055
119.264	19.049	991.021	758.800
120.279	19.041	989.915	757.853
121.293	18.953	988.695	756.464
122.308	18.770	988.311	755.300
123.322	18.766	986.937	754.165
124.337	18.813	985.884	753.499
125.352	18.748	985.319	752.714
126.366	18.874	983.814	752.052
127.381	18.922	982.877	751.476
128.395	18.968	982.225	751.112
129.410	18.919	981.774	750.490
130.424	19.083	981.412	750.861
131.439	19.335	980.264	751.012
132.454	19.432	979.347	750.669
133.468	19.346	978.592	749.649
134.483	19.432	977.960	749.471
135.497	19.306	977.331	748.374
136.512	19.419	976.286	747.997
137.527	19.512	975.514	747.743
138.541	19.414	974.859	746.754
139.556	19.597	974.060	746.864
140.570	19.796	974.020	747.628
141.585	19.900	973.314	747.471
142.600	19.973	972.304	746.944
143.614	20.187	971.287	747.019
144.629	20.132	971.018	746.507
145.643	20.070	970.033	745.417
146.658	19.756	968.529	742.848
147.673	19.560	967.413	741.085
148.687	19.532	966.061	739.861
149.702	19.296	965.232	738.151
150.716	19.417	964.381	737.954
151.731	19.539	963.417	737.672
152.746	19.581	962.959	737.434
153.760	19.584	962.608	737.112
154.775	19.876	961.040	737.093
155.789	19.943	960.852	737.167
156.804	19.902	960.218	736.442
157.819	19.969	959.702	736.266
158.833	20.059	959.619	736.521
159.848	20.258	958.399	736.365
160.862	20.031	957.283	734.478
161.877	19.636	955.875	731.658
162.892	19.358	955.128	729.847
163.906	19.414	953.550	728.813
164.921	19.551	952.797	728.752
165.935	19.651	952.002	728.500
166.950	19.662	951.603	728.176
167.964	19.602	950.430	726.964
168.979	19.485	949.276	725.523
169.994	19.612	947.990	725.010
171.008	19.538	948.470	725.002
172.023	20.073	947.295	726.282
173.037	20.081	946.860	725.919
174.052	19.907	945.755	724.279
175.067	19.489	944.859	721.780
176.081	19.302	944.049	720.316
177.096	19.328	943.467	719.919
178.110	19.366	943.403	719.963
179.125	19.479	942.317	719.545
180.140	19.582	942.131	719.769
181.154	19.860	942.252	720.953
182.169	20.104	941.346	721.213
183.183	19.981	940.898	720.293
184.198	20.056	939.772	719.679
185.213	20.069	939.100	719.154
186.227	20.185	938.557	719.157
187.242	20.061	938.589	718.604
188.256	20.205	937.759	718.502
189.271	20.429	936.562	718.447
190.286	19.883	935.652	715.427
191.300	19.298	934.860	712.343
192.315	19.131	934.016	710.947
193.329	19.319	933.568	711.319
194.344	19.619	932.787	711.897
195.359	19.653	932.424	711.698
196.373	19.951	931.878	712.447
197.388	20.099	932.149	713.198
198.402	20.307	931.547	713.530
199.417	20.525	930.878	713.851
200.432	20.637	930.281	713.788
201.446	20.553	930.120	713.256
202.461	20.707	929.697	713.502
203.475	20.482	928.727	711.772
204.490	20.297	927.430	709.960
205.504	20.037	926.804	708.351
206.519	20.080	925.655	707.587
207.534	20.031	925.187	706.969
208.548	20.021	924.646	706.451
209.563	20.129	923.852	706.222
210.577	20.129	923.667	706.018
211.592	20.389	923.178	706.641
212.607	20.481	922.254	706.243
213.621	20.374	921.226	704.960
214.636	20.360	920.353	704.174
215.650	20.341	920.118	703.854
216.665	20.464	919.404	703.744
217.680	20.709	918.881	704.271
218.694	20.698	917.843	703.371
219.709	20.665	917.319	702.771
220.723	20.397	916.803	701.232
221.738	20.298	916.081	700.218
222.753	20.389	915.530	700.104
223.767	20.347	915.309	699.703
224.782	20.740	914.711	700.765
225.796	20.593	914.335	699.824
226.811	20.480	913.320	698.530
227.826	20.392	912.423	697.430
228.840	20.270	911.496	696.173
229.855	20.301	910.826	695.721
230.869	20.328	910.033	695.165
231.884	20.211	909.071	693.897
232.899	20.175	908.512	693.264
233.913	19.925	907.737	691.614
234.928	19.936	906.697	690.803
235.942	19.840	906.469	690.189
236.957	19.891	906.050	690.010
237.972	19.989	905.350	689.806
238.986	19.954	904.645	689.070
240.001	19.897	904.036	688.319
241.015	20.151	903.550	688.895
242.030	20.166	903.201	688.629
243.045	20.220	902.728	688.421
244.059	20.229	902.325	688.090
245.074	20.247	902.007	687.856
246.088	20.495	900.992	688.003
247.103	20.628	900.725	688.266
248.117	20.869	900.431	688.935
249.132	21.215	900.047	689.945
250.147	21.471	899.851	690.744
251.161	21.507	899.391	690.475
252.176	21.425	898.833	689.660
253.190	21.689	898.060	690.046
254.205	21.635	897.527	689.361
255.220	21.467	896.705	688.009
256.234	21.337	896.256	687.093
257.249	21.423	895.191	686.555
258.263	21.355	894.847	685.964
259.278	21.439	894.094	685.654
260.293	21.572	893.636	685.763
261.307	21.553	893.262	685.341
262.322	21.651	892.374	684.984
263.336	21.521	891.930	684.071
264.351	21.686	890.948	683.902
265.366	21.636	890.539	683.334
266.380	21.615	889.740	682.577
267.395	21.504	888.773	681.343
268.409	21.370	887.988	680.159
269.424	21.450	887.365	679.935
270.439	21.348	886.474	678.795
271.453	21.129	886.083	677.588
272.468	21.147	885.049	676.803
273.482	21.147	884.967	676.684
274.497	21.194	883.846	675.949
275.512	21.181	883.469	675.551
276.526	21.187	883.199	675.306
277.541	21.343	882.827	675.566
278.555	21.444	882.805	675.879
279.570	21.739	882.063	676.391
280.585	21.755	880.914	675.509
281.599	21.391	880.006	673.354
282.614	21.177	879.445	672.039
283.628	21.297	878.826	671.970
284.643	21.190	878.363	671.144
285.657	21.283	877.724	670.952
286.672	21.285	877.015	670.360
287.687	21.325	876.302	669.910
288.701	21.318	875.644	669.319
289.716	21.386	875.324	669.277
290.730	21.572	874.590	669.369
291.745	21.634	873.693	668.860
292.760	21.580	873.800	668.676
293.774	21.714	873.533	668.923
294.789	21.659	872.546	667.897
295.803	21.467	871.319	666.168
296.818	21.263	870.788	664.928
297.833	21.374	870.407	664.999
298.847	21.395	869.730	664.506
299.862	21.595	869.311	664.886
300.876	21.768	868.876	665.150
301.891	21.733	868.784	664.889
302.906	21.760	868.407	664.644
303.920	22.114	867.955	665.578
304.935	22.089	867.627	665.176
305.949	21.915	866.625	663.688
306.964	21.777	865.317	662.108
307.979	21.870	865.227	662.333
308.993	22.035	864.546	662.374
310.008	21.930	864.553	661.923
311.022	21.766	863.510	660.448
312.037	21.709	862.557	659.447
313.052	21.394	861.791	657.620
314.066	21.290	861.126	656.662
315.081	21.180	860.602	655.793
316.095	21.353	860.276	656.136
317.110	21.250	859.479	655.081
318.125	21.276	858.891	654.674
319.139	21.201	858.550	654.074
320.154	21.324	858.302	654.287
321.168	21.360	857.618	653.843
322.183	21.458	856.893	653.597
323.197	21.435	856.586	653.220
324.212	21.513	855.986	652.996
325.227	21.320	855.217	651.632
326.241	21.256	854.738	650.971
327.256	21.432	853.834	650.879
328.270	21.378	853.652	650.485
329.285	21.286	852.859	649.481
330.300	21.178	852.266	648.568
331.314	21.301	851.943	648.722
332.329	21.616	851.834	649.754
333.343	21.663	851.361	649.507
334.358	21.603	851.061	649.001
335.373	21.815	850.826	649.547
336.387	21.914	850.238	649.406
337.402	22.107	850.204	650.038
338.416	22.088	850.202	649.911
339.431	22.392	849.343	650.319
340.446	22.411	849.551	650.491
341.460	22.496	849.203	650.482
342.475	22.425	848.714	649.787
343.489	22.482	848.538	649.803
344.504	22.589	847.974	649.708
345.519	22.519	847.629	649.129
346.533	22.530	846.364	648.144
347.548	22.294	845.754	646.751
348.562	22.137	844.810	645.394
349.577	21.915	844.178	644.041
350.592	21.761	843.580	642.964
351.606	21.642	842.828	641.896
352.621	21.722	842.052	641.541
353.635	21.826	841.392	641.365
354.650	21.899	841.239	641.456
355.665	21.930	840.741	641.133
356.679	22.206	840.180	641.657
357.694	22.072	839.448	640.551
358.708	22.232	838.576	640.412
359.723	22.050	837.943	639.209
360.738	22.234	837.075	639.162
361.752	22.370	836.862	639.436
362.767	22.410	837.088	639.698
363.781	22.520	836.130	639.309
364.796	22.842	835.775	640.148
365.810	22.873	835.730	640.168
366.825	22.996	835.372	640.284
367.840	22.780	834.871	639.060
368.854	22.542	833.958	637.446
369.869	22.307	833.592	636.256
370.883	22.399	833.261	636.283
371.898	22.676	832.844	636.908
372.913	22.727	832.572	636.826
373.927	22.615	831.645	635.656
374.942	22.671	831.345	635.574
375.956	22.842	831.105	635.949
376.971	22.951	830.628	635.921
377.986	22.992	830.115	635.619
379.000	22.900	829.792	634.987
380.015	22.891	829.247	634.479
381.029	22.921	828.403	633.885
382.044	22.994	827.550	633.439
383.059	23.008	827.217	633.179
384.073	22.838	826.431	631.913
385.088	22.562	825.253	629.967
386.102	22.444	825.010	629.305
387.117	22.335	824.552	628.512
388.132	22.464	823.548	628.152
389.146	22.534	823.115	628.014
390.161	22.892	822.790	628.987
391.175	22.759	822.859	628.511
392.190	22.758	821.521	627.430
393.205	22.495	821.191	626.186
394.219	22.327	821.374	625.671
395.234	22.221	820.806	624.808
396.248	22.275	819.998	624.328
397.263	22.339	819.069	623.792
398.278	22.181	819.078	623.185
399.292	22.143	818.497	622.555
400.307	22.124	818.349	622.319
401.321	22.271	817.358	622.031
402.336	22.200	817.361	621.725
403.350	22.584	816.912	622.688
404.365	22.681	816.725	622.831
405.380	22.996	816.280	623.547
406.394	23.149	815.782	623.653
407.409	23.179	815.673	623.618
408.423	23.304	815.585	623.937
409.438	23.393	815.040	623.778
410.453	23.329	814.493	623.078
411.467	23.443	813.968	623.024
412.482	23.407	813.820	622.727
413.496	23.524	813.493	622.834
414.511	23.488	813.398	622.580
415.526	23.427	812.523	621.642
416.540	23.357	811.809	620.793
417.555	23.390	811.413	620.553
418.569	23.168	811.187	619.547
419.584	23.253	810.599	619.342
420.599	23.122	810.328	618.622
421.613	164.124	1372.647	1798.193
422.628	142.926	1454.545	1798.277
