DTS Sentinel unit serial number:	SN413079Multiplexer serial number:	ORYXHardware model number:	OX4-SRSoftware version number:	ORYX F/W v4.00 Oryx Data Collector v3.7.2.0data status	okinstallation	princeton_trtdifferential loss correction	single-endedforward channel	channel 1reverse channel	N/Adate	2019/09/12time	18:34:34forward acquisition time	15.00reverse acquisition time	0.00gamma	496.2192k internal	0.2318k external	0.2318temperature offset calibration	1.0105default loss term (dB/km)	0.3790temperature slope calibration	1.0000multiplexer offset coefficient	1.0000multiplexer slope coefficient	1.0000fibre end	0.00T internal ref (°C)	33.19T ext. ref 1 (°C)	2.96T ext. ref 2 (°C)	27.69length (m)	temperature (°C)	Stokes	anti-Stokes-747.200	-45.889	-0.293	0.146
-746.185	254.543	0.497	-0.861
-745.171	-200.000	0.010	-0.067
-744.156	-64.480	-0.371	0.153
-743.142	800.000	0.170	0.567
-742.127	-33.456	-0.702	0.393
-741.112	-93.366	0.426	0.119
-740.098	-96.126	0.393	0.106
-739.083	-200.000	0.028	-0.663
-738.069	274.769	0.583	1.045
-737.054	-94.124	-0.798	0.221
-736.039	-51.420	-0.333	0.158
-735.025	-200.000	0.015	-0.172
-734.010	-81.603	0.441	-0.147
-732.996	-78.610	0.342	-0.118
-731.981	800.000	0.187	0.524
-730.966	-44.894	0.475	0.239
-729.952	-111.421	-0.575	-0.118
-728.937	-200.000	-0.119	0.827
-727.923	-28.950	0.181	0.105
-726.908	-83.311	0.432	-0.140
-725.894	-200.000	0.066	0.436
-724.879	406.071	0.148	0.316
-723.864	-139.349	-0.391	0.042
-722.850	123.483	0.202	0.256
-721.835	800.000	0.218	0.633
-720.821	-108.777	-0.365	-0.079
-719.806	800.000	-0.085	0.370
-718.791	165.304	-0.180	0.258
-717.777	-200.000	-0.042	-0.936
-716.762	519.763	-0.052	-0.124
-715.748	-200.000	-0.088	0.431
-714.733	-53.338	-0.487	-0.226
-713.718	-135.236	-0.600	-0.073
-712.704	-4.325	-0.631	-0.441
-711.689	-170.349	-0.494	-0.018
-710.675	-200.000	-0.323	0.000
-709.660	118.634	0.338	0.421
-708.645	-64.433	-0.310	-0.128
-707.631	-109.758	-0.054	0.011
-706.616	127.059	0.447	-0.573
-705.602	243.463	-0.456	0.773
-704.587	-39.591	0.693	0.367
-703.572	-126.640	0.314	-0.047
-702.558	-200.000	-0.020	-0.268
-701.543	-200.000	-0.161	-1.034
-700.529	102.615	-0.504	-0.596
-699.514	-36.223	-0.712	-0.388
-698.499	-86.649	0.591	0.183
-697.485	-180.597	0.485	0.010
-696.470	-200.000	-0.256	1.265
-695.456	-88.933	1.003	0.300
-694.441	-200.000	0.220	0.000
-693.426	-91.926	0.691	-0.198
-692.412	112.330	0.287	-0.351
-691.397	800.000	0.243	1.040
-690.383	-58.446	-0.629	0.276
-689.368	53.337	0.222	0.215
-688.354	-44.324	-0.114	0.058
-687.339	60.181	-0.606	0.605
-686.324	-90.939	-0.694	0.202
-685.310	-131.107	0.837	0.113
-684.295	88.153	-0.537	-0.602
-683.281	-200.000	-0.027	-0.370
-682.266	800.000	0.170	-0.583
-681.251	-54.759	0.476	-0.217
-680.237	800.000	0.108	0.308
-679.222	191.825	-0.387	-0.588
-678.208	107.306	-0.483	-0.580
-677.193	800.000	-0.135	-0.556
-676.178	180.782	0.177	-0.262
-675.164	316.195	0.207	0.394
-674.149	293.475	-0.114	0.210
-673.135	0.883	0.546	-0.395
-672.120	-161.524	-0.537	-0.028
-671.105	-46.236	-0.416	-0.206
-670.091	-74.366	-0.187	-0.068
-669.076	-200.000	0.054	-0.667
-668.062	-83.046	0.374	0.121
-667.047	128.233	-0.220	0.283
-666.032	17.959	0.324	0.261
-665.018	-126.945	-1.037	0.154
-664.003	-89.541	-0.306	-0.091
-662.989	800.000	0.125	-0.488
-661.974	125.854	-0.165	0.211
-660.959	70.151	0.481	-0.501
-659.945	117.552	0.328	-0.407
-658.930	-115.914	0.531	0.100
-657.916	446.842	0.212	-0.470
-656.901	-136.010	0.344	0.041
-655.886	332.614	0.230	-0.448
-654.872	-13.943	-0.495	0.323
-653.857	63.343	-0.386	0.391
-652.843	-200.000	-0.036	-0.269
-651.828	-128.022	0.542	-0.078
-650.814	-89.845	0.411	-0.121
-649.799	-200.000	-0.002	-0.405
-648.784	-8.183	-0.486	0.330
-647.770	-145.650	-0.429	0.039
-646.755	-42.086	0.384	0.198
-645.741	-123.325	-0.909	0.146
-644.726	-128.606	-0.531	0.076
-643.711	78.706	0.170	0.184
-642.697	-146.514	0.545	0.048
-641.682	-4.083	-0.224	-0.157
-640.668	-143.095	0.512	-0.050
-639.653	-16.214	0.286	0.183
-638.638	-58.878	0.675	0.294
-637.624	59.006	0.556	0.551
-636.609	-123.255	-0.715	0.115
-635.595	228.063	-0.551	0.904
-634.580	-36.995	-0.692	0.374
-633.565	18.330	-0.048	0.039
-632.551	387.588	-0.393	-0.820
-631.536	-200.000	-0.149	0.875
-630.522	-30.963	-0.623	-0.354
-629.507	87.100	-0.187	-0.209
-628.492	83.724	0.088	-0.096
-627.478	800.000	-0.255	-0.841
-626.463	-200.000	-0.038	-0.364
-625.449	695.332	-0.086	-0.229
-624.434	745.567	0.296	-0.803
-623.419	-40.370	0.425	-0.222
-622.405	-188.111	-0.083	0.001
-621.390	-110.856	0.881	-0.183
-620.376	-200.000	0.052	0.380
-619.361	531.018	-0.121	-0.288
-618.346	-40.261	0.540	0.283
-617.332	-125.619	-0.876	-0.134
-616.317	362.869	0.507	1.026
-615.303	574.548	0.012	-0.030
-614.288	800.000	-0.165	-0.726
-613.273	-49.609	0.188	0.090
-612.259	-200.000	-0.030	-0.379
-611.244	82.071	-0.264	-0.288
-610.230	-11.936	-0.142	-0.094
-609.215	-167.313	-0.657	-0.027
-608.201	97.113	-0.205	0.237
-607.186	-129.156	-0.704	0.099
-606.171	169.836	-0.041	0.059
-605.157	535.544	0.263	0.629
-604.142	-91.079	0.751	-0.217
-603.128	404.788	-0.199	-0.423
-602.113	139.074	0.301	-0.399
-601.098	124.097	-0.344	0.435
-600.084	-134.985	-0.189	0.023
-599.069	125.453	-0.509	-0.646
-598.055	-200.000	-0.075	0.382
-597.040	-200.000	-0.086	0.655
-596.025	-65.438	0.771	-0.312
-595.011	385.832	0.111	0.232
-593.996	167.009	0.541	-0.772
-592.982	7.860	0.708	-0.534
-591.967	-75.274	-1.117	-0.401
-590.952	-13.147	1.283	0.839
-589.938	-151.944	-0.293	-0.022
-588.923	-200.000	0.091	0.668
-587.909	470.376	0.093	-0.211
-586.894	-79.781	-0.794	0.269
-585.879	211.372	0.099	-0.157
-584.865	-42.679	0.736	-0.377
-583.850	-200.000	0.058	-0.499
-582.836	324.586	-0.300	0.576
-581.821	-15.149	-0.319	-0.206
-580.806	800.000	0.063	-0.224
-579.792	-148.460	-0.202	0.017
-578.777	-200.000	0.074	-0.354
-577.763	-56.432	0.691	0.308
-576.748	-132.380	0.521	-0.068
-575.733	139.127	0.248	0.328
-574.719	-45.533	-0.264	-0.131
-573.704	45.834	-0.375	-0.349
-572.690	800.000	0.109	-0.430
-571.675	-118.322	-0.411	0.073
-570.661	389.266	-0.336	-0.699
-569.646	724.651	0.106	0.284
-568.631	112.952	-0.360	-0.438
-567.617	-87.606	0.430	0.131
-566.602	-131.390	0.563	-0.075
-565.588	25.234	-0.578	-0.482
-564.573	4.701	-0.464	0.342
-563.558	-200.000	-0.020	0.359
-562.544	325.180	0.282	0.541
-561.529	333.916	0.336	-0.653
-560.515	741.926	-0.206	0.555
-559.500	800.000	-0.152	-0.562
-558.485	32.552	0.081	-0.070
-557.471	3.131	-0.296	-0.216
-556.456	-66.791	0.115	0.046
-555.442	541.282	0.014	0.034
-554.427	-170.648	0.367	0.013
-553.412	-43.116	0.474	0.242
-552.398	-50.798	-0.322	0.152
-551.383	-62.797	0.541	0.225
-550.369	351.951	-0.318	0.633
-549.354	130.981	-0.177	-0.229
-548.339	347.971	-0.236	-0.467
-547.325	-200.000	-0.062	0.717
-546.310	53.751	0.545	-0.526
-545.296	-104.698	0.757	0.175
-544.281	800.000	0.199	0.809
-543.266	-54.482	-0.344	0.157
-542.252	-95.582	-1.131	-0.304
-541.237	-105.230	0.348	-0.080
-540.223	-77.489	0.630	-0.219
-539.208	29.910	0.506	0.433
-538.193	-160.380	-0.787	0.043
-537.179	24.783	0.362	0.301
-536.164	-67.901	0.332	0.130
-535.150	333.225	-0.400	-0.777
-534.135	-163.709	0.303	-0.014
-533.121	226.612	-0.099	0.162
-532.106	800.000	-0.076	-0.262
-531.091	-200.000	-0.089	-0.418
-530.077	-27.729	-0.151	-0.088
-529.062	531.627	0.242	-0.575
-528.048	211.993	0.327	-0.517
-527.033	-200.000	0.095	-0.494
-526.018	-106.570	-0.611	-0.137
-525.004	-200.000	-0.013	0.978
-523.989	0.475	-0.225	0.161
-522.975	800.000	0.053	-0.165
-521.960	-179.276	0.982	-0.022
-520.945	-200.000	0.019	0.403
-519.931	-72.509	-0.196	-0.073
-518.916	-128.439	-0.458	0.065
-517.902	-85.988	-0.626	0.194
-516.887	-21.899	0.693	0.423
-515.872	-83.861	-0.425	0.136
-514.858	58.882	-0.519	-0.512
-513.843	122.101	0.647	-0.811
-512.829	800.000	-0.149	0.613
-511.814	800.000	0.127	-0.380
-510.799	170.636	-0.143	-0.205
-509.785	800.000	-0.180	-0.580
-508.770	122.669	-0.506	-0.635
-507.756	-64.585	0.677	0.275
-506.741	-33.220	-0.724	-0.402
-505.726	-27.498	0.107	-0.063
-504.712	309.828	-0.338	-0.634
-503.697	55.204	0.689	0.668
-502.683	-88.658	-0.325	0.097
-501.668	-88.595	-0.683	-0.204
-500.653	707.474	0.222	-0.589
-499.639	148.562	0.784	-1.061
-498.624	-83.905	-0.553	-0.176
-497.610	103.919	-0.479	0.564
-496.595	85.236	0.708	0.778
-495.581	-129.665	-0.613	0.085
-494.566	-74.036	-0.154	-0.056
-493.551	282.452	0.441	-0.794
-492.537	336.077	-0.378	-0.735
-491.522	-5.156	-0.667	0.460
-490.508	140.485	0.377	0.499
-489.493	-61.789	0.437	-0.184
-488.478	-200.000	-0.002	0.482
-487.464	-200.000	0.018	-0.263
-486.449	149.946	0.301	-0.409
-485.435	132.690	0.219	0.284
-484.420	-39.933	-0.862	-0.451
-483.405	198.340	0.269	0.413
-482.391	-117.985	-0.133	0.024
-481.376	337.756	-0.081	0.157
-480.362	-23.121	0.442	0.267
-479.347	-13.295	0.521	-0.339
-478.332	52.098	-0.464	-0.443
-477.318	205.856	-0.388	-0.604
-476.303	-22.925	-0.385	-0.233
-475.289	800.000	-0.042	-0.166
-474.274	-0.175	0.753	-0.537
-473.259	-53.467	-0.248	0.114
-472.245	227.482	-0.661	-1.077
-471.230	168.915	0.569	0.812
-470.216	-200.000	0.060	-0.641
-469.201	-166.105	0.567	0.024
-468.186	49.485	0.149	0.140
-467.172	299.229	0.036	0.066
-466.157	-61.957	-0.158	0.066
-465.143	21.143	-0.922	-0.749
-464.128	27.095	0.590	-0.496
-463.113	-125.098	0.443	0.068
-462.099	342.823	0.293	0.574
-461.084	51.383	0.362	0.345
-460.070	398.338	-0.351	0.736
-459.055	21.575	0.283	-0.231
-458.040	158.664	-0.346	-0.480
-457.026	-117.686	0.942	0.170
-456.011	800.000	-0.092	-0.284
-454.997	-62.731	0.469	0.195
-453.982	-116.150	0.844	0.157
-452.968	3.990	-0.132	-0.097
-451.953	-200.000	0.196	0.870
-450.938	-200.000	-0.014	-0.857
-449.924	210.817	0.404	-0.635
-448.909	67.790	0.587	-0.600
-447.895	-80.429	0.370	-0.123
-446.880	795.867	0.142	-0.391
-445.865	-200.000	-0.039	-0.894
-444.851	236.636	-0.275	-0.455
-443.836	234.828	0.657	-1.085
-442.822	800.000	0.128	-0.445
-441.807	308.667	-0.224	0.419
-440.792	-144.589	-1.109	-0.102
-439.778	91.465	-0.454	-0.510
-438.763	237.778	-0.202	0.336
-437.749	177.889	0.410	-0.597
-436.734	-3.758	0.459	0.319
-435.719	-126.952	-1.167	0.172
-434.705	-109.201	-0.539	0.114
-433.690	-129.711	-0.172	-0.024
-432.676	-9.938	0.467	-0.310
-431.661	-200.000	-0.134	0.671
-430.646	-134.467	0.393	-0.048
-429.632	758.493	0.141	0.381
-428.617	-107.984	0.972	0.211
-427.603	-122.196	-0.800	-0.131
-426.588	228.445	-0.244	-0.398
-425.573	-131.717	0.783	-0.103
-424.559	-146.844	0.418	0.036
-423.544	59.453	-0.220	-0.217
-422.530	800.000	0.248	-0.824
-421.515	-200.000	0.022	0.155
-420.500	103.398	0.038	-0.045
-419.486	233.640	0.361	0.594
-418.471	-200.000	-0.098	1.343
-417.457	191.596	0.307	-0.462
-416.442	332.252	-0.234	-0.451
-415.428	-63.774	0.604	-0.247
-414.413	-200.000	-0.303	-0.000
-413.398	-21.698	-0.472	0.287
-412.384	-24.806	0.609	-0.361
-411.369	-174.193	1.477	-0.043
-410.355	156.551	0.315	0.434
-409.340	50.262	0.111	-0.105
-408.325	-200.000	-0.019	0.184
-407.311	-29.579	0.672	0.384
-406.296	-44.286	-0.282	0.141
-405.282	718.219	-0.276	0.732
-404.267	118.208	0.072	-0.089
-403.252	-96.088	0.560	0.149
-402.238	-200.000	-0.019	-0.824
-401.223	-56.258	0.150	0.066
-400.209	19.976	-0.058	0.047
-399.194	-56.050	-0.334	-0.149
-398.179	-117.970	-0.994	0.178
-397.165	112.799	-0.417	0.504
-396.150	528.311	0.226	0.533
-395.136	79.216	0.229	-0.245
-394.121	409.922	0.373	-0.788
-393.106	537.668	-0.135	-0.320
-392.092	23.602	0.839	-0.689
-391.077	23.133	-1.118	0.916
-390.063	28.458	-0.373	-0.315
-389.048	-6.480	0.480	0.326
-388.033	55.786	0.240	-0.232
-387.019	800.000	0.081	-0.320
-386.004	-200.000	-0.011	-0.252
-384.990	30.584	-0.432	-0.369
-383.975	-64.081	0.273	-0.111
-382.960	384.754	-0.366	0.754
-381.946	-86.011	-0.548	-0.169
-380.931	-200.000	-0.085	-0.383
-379.917	-41.146	-0.102	-0.053
-378.902	-200.000	-0.072	0.347
-377.888	69.314	-0.392	0.402
-376.873	-117.615	0.723	-0.130
-375.858	111.292	0.121	-0.145
-374.844	-66.618	0.217	-0.086
-373.829	528.739	-0.079	0.187
-372.815	-200.000	-0.058	1.014
-371.800	59.370	0.145	0.143
-370.785	35.698	-0.146	-0.128
-369.771	-40.269	-0.423	0.220
-368.756	800.000	0.079	0.307
-367.742	-200.000	-0.004	-0.121
-366.727	78.298	0.411	0.437
-365.712	-200.000	-0.164	-0.000
-364.698	-47.035	-0.134	0.065
-363.683	120.861	0.413	0.513
-362.669	122.848	-0.448	-0.559
-361.654	800.000	-0.262	0.946
-360.639	-52.620	0.279	0.128
-359.625	759.540	0.166	0.448
-358.610	-114.947	-0.445	0.084
-357.596	-200.000	-0.064	-0.544
-356.581	-66.349	0.334	-0.132
-355.566	49.996	-0.703	-0.661
-354.552	-92.444	-0.441	-0.124
-353.537	201.033	-0.241	-0.369
-352.523	-91.583	0.559	-0.159
-351.508	119.160	0.044	0.055
-350.493	-87.668	0.856	0.257
-349.479	-38.317	0.393	0.207
-348.464	-200.000	-0.125	0.718
-347.450	568.667	0.267	0.646
-346.435	488.494	0.354	0.807
-345.420	586.449	-0.199	0.489
-344.406	504.953	0.190	0.438
-343.391	173.282	0.462	-0.664
-342.377	-200.000	0.036	0.317
-341.362	-137.046	0.740	0.084
-340.348	46.524	-0.439	-0.405
-339.333	-200.000	0.067	-0.655
-338.318	76.198	0.249	-0.262
-337.304	-79.977	0.699	-0.234
-336.289	298.817	-0.356	-0.653
-335.275	496.585	-0.159	-0.364
-334.260	-106.377	0.468	0.104
-333.245	-200.000	-0.030	0.159
-332.231	-200.000	0.023	0.500
-331.216	-117.793	-0.366	0.065
-330.202	10.833	-0.458	0.348
-329.187	1.044	0.523	0.373
-328.172	-111.093	-0.548	0.112
-327.158	38.148	-0.458	-0.406
-326.143	-107.296	0.660	-0.145
-325.129	-103.821	-1.073	0.250
-324.114	-200.000	-0.051	0.428
-323.099	800.000	-0.090	-0.300
-322.085	584.826	0.366	-0.895
-321.070	-137.545	-1.185	0.133
-320.056	42.783	0.092	-0.083
-319.041	-77.164	0.499	0.173
-318.026	486.506	0.149	-0.338
-317.012	-200.000	-0.163	1.016
-315.997	-134.605	0.523	-0.063
-314.983	26.493	-0.578	-0.482
-313.968	-200.000	0.026	0.401
-312.953	-60.441	0.717	-0.303
-311.939	-31.607	-0.509	-0.285
-310.924	-50.389	0.205	-0.096
-309.910	-2.701	-0.471	-0.328
-308.895	64.177	-0.270	0.270
-307.880	385.986	-0.226	-0.464
-306.866	85.420	-0.782	0.855
-305.851	609.000	0.033	0.082
-304.837	158.838	0.396	0.547
-303.822	29.025	-0.158	-0.133
-302.807	-146.256	-0.718	0.063
-301.793	-30.090	-0.164	0.093
-300.778	258.852	0.448	0.769
-299.764	124.139	-0.617	0.772
-298.749	194.771	0.414	0.624
-297.735	-71.637	-0.531	-0.197
-296.720	-200.000	0.075	0.527
-295.705	-45.541	0.316	0.156
-294.691	509.865	0.396	0.916
-293.676	-91.842	-0.614	0.173
-292.662	-200.000	0.204	1.087
-291.647	582.478	-0.193	-0.471
-290.632	112.893	0.219	-0.264
-289.618	38.725	-0.206	0.183
-288.603	156.540	0.333	-0.457
-287.589	-12.135	0.704	0.458
-286.574	333.957	-0.147	-0.283
-285.559	-163.282	-0.200	-0.010
-284.545	100.030	0.702	-0.809
-283.530	-168.307	0.554	0.021
-282.516	-112.853	-0.378	-0.074
-281.501	77.530	0.372	-0.394
-280.486	32.566	0.706	-0.607
-279.472	-200.000	0.010	0.349
-278.457	-31.016	-0.399	-0.224
-277.443	310.035	-0.044	0.081
-276.428	9.356	-0.621	-0.467
-275.413	-200.000	0.115	-0.631
-274.399	800.000	0.037	-0.121
-273.384	-200.000	0.035	0.178
-272.370	68.645	-0.198	0.202
-271.355	140.999	-0.198	-0.261
-270.340	8.736	0.243	-0.182
-269.326	9.565	0.312	0.235
-268.311	-74.718	0.434	0.155
-267.297	171.107	0.537	0.766
-266.282	52.675	-0.458	-0.435
-265.267	-44.905	0.216	-0.107
-264.253	14.756	-0.357	-0.278
-263.238	-64.229	-1.102	-0.446
-262.224	-51.140	-0.507	-0.236
-261.209	-84.767	-0.863	-0.270
-260.195	-5.880	0.476	0.323
-259.180	-200.000	0.040	-0.188
-258.165	-51.126	-0.545	0.254
-257.151	-200.000	-0.012	-0.339
-256.136	148.013	0.115	-0.154
-255.122	176.254	-0.194	-0.280
-254.107	187.698	-0.198	0.294
-253.092	13.578	-0.364	-0.281
-252.078	-42.507	-0.492	0.249
-251.063	-200.000	-0.008	0.581
-250.049	-24.552	-0.508	0.300
-249.034	184.857	0.469	0.690
-248.019	-48.911	-0.301	0.143
-247.005	-89.749	0.667	0.194
-245.990	98.713	0.324	0.371
-244.976	-183.698	-0.338	-0.006
-243.961	-154.658	0.239	0.016
-242.946	563.834	-0.254	0.611
-241.932	-78.853	0.363	0.123
-240.917	-119.228	0.365	0.063
-239.903	-17.989	0.125	-0.078
-238.888	-50.183	-0.471	0.221
-237.873	64.089	0.519	-0.518
-236.859	-200.000	0.097	0.794
-235.844	-65.272	0.173	-0.069
-234.830	242.275	0.324	0.538
-233.815	111.672	-0.751	0.900
-232.800	-200.000	0.090	0.406
-231.786	-200.000	-0.099	-0.463
-230.771	-7.851	0.583	-0.391
-229.757	-200.000	0.061	-0.436
-228.742	-200.000	0.073	0.513
-227.727	265.847	-0.076	-0.132
-226.713	800.000	0.070	-0.286
-225.698	800.000	-0.269	-0.915
-224.684	800.000	-0.139	0.501
-223.669	404.520	-0.181	0.378
-222.655	300.361	0.522	0.955
-221.640	26.645	-0.447	0.371
-220.625	-4.726	0.195	0.134
-219.611	71.218	0.163	0.168
-218.596	100.860	-0.447	0.516
-217.582	-48.664	0.607	-0.289
-216.567	129.259	-0.380	-0.481
-215.552	311.207	0.330	-0.614
-214.538	-40.674	-0.336	-0.173
-213.523	120.470	0.891	-1.097
-212.509	107.544	-0.375	-0.443
-211.494	-161.410	-0.412	-0.021
-210.479	102.020	-0.359	-0.415
-209.465	69.907	-0.187	0.191
-208.450	304.733	0.032	-0.059
-207.436	1.857	0.567	0.406
-206.421	-91.849	-0.259	0.073
-205.406	-165.745	-0.339	-0.015
-204.392	51.705	0.382	-0.360
-203.377	800.000	-0.363	1.052
-202.363	-200.000	0.017	0.154
-201.348	-9.961	-0.517	-0.340
-200.333	371.755	0.047	-0.094
-199.319	581.050	-0.123	0.299
-198.304	148.751	-0.158	0.212
-197.290	800.000	0.190	-0.610
-196.275	116.721	0.292	-0.355
-195.260	600.067	0.222	-0.545
-194.246	800.000	-0.103	0.357
-193.231	364.458	-0.220	0.438
-192.217	-200.000	-0.476	0.001
-191.202	-108.527	-0.345	-0.073
-190.187	232.337	0.241	0.392
-189.173	-71.717	-0.141	-0.052
-188.158	-36.781	0.392	0.209
-187.144	501.699	-0.248	0.566
-186.129	-200.000	0.019	0.572
-185.114	-190.328	0.972	0.011
-184.100	-78.721	-0.099	-0.033
-183.085	-36.500	-0.411	-0.219
-182.071	-34.943	0.183	0.099
-181.056	-136.977	0.309	0.035
-180.042	384.605	-0.031	-0.062
-179.027	89.809	-0.456	0.504
-178.012	-167.567	0.258	0.010
-176.998	790.101	-0.119	0.323
-175.983	-85.937	-0.314	0.096
-174.969	-53.753	1.105	0.499
-173.954	-200.000	0.141	-0.658
-172.939	252.128	-0.440	-0.742
-171.925	800.000	0.081	-0.292
-170.910	283.912	-0.082	-0.146
-169.896	63.487	0.173	0.172
-168.881	184.882	-0.087	0.128
-167.866	-200.000	0.009	-0.620
-166.852	-179.827	-0.098	0.002
-165.837	133.993	-0.995	1.276
-164.823	-30.411	-0.282	0.159
-163.808	-71.898	0.368	-0.136
-162.793	-200.000	0.044	0.339
-161.779	-200.000	-0.010	-0.104
-160.764	-145.353	-0.317	-0.028
-159.750	189.673	-0.205	0.304
-158.735	-200.000	0.088	1.105
-157.720	-200.000	0.062	-0.434
-156.706	14.652	-0.901	0.697
-155.691	-134.950	-0.723	-0.086
-154.677	-151.650	0.999	-0.073
-153.662	28.427	-0.296	0.248
-152.647	-77.313	0.147	-0.051
-151.633	-1.791	0.191	-0.133
-150.618	-113.803	0.669	0.129
-149.604	92.285	-0.208	0.232
-148.589	-200.000	0.039	0.584
-147.574	-200.000	-0.078	0.457
-146.560	-20.293	0.680	-0.414
-145.545	292.424	-0.249	-0.449
-144.531	800.000	-0.086	0.298
-143.516	132.984	-0.067	-0.086
-142.502	-200.000	-0.146	-0.790
-141.487	25.693	-0.728	-0.599
-140.472	-104.620	0.854	-0.195
-139.458	-200.000	-0.013	-0.353
-138.443	324.899	0.304	0.574
-137.429	82.956	0.294	0.316
-136.414	-150.256	-0.653	0.050
-135.399	438.525	0.117	0.252
-134.385	-107.427	1.032	0.224
-133.370	-200.000	-0.055	0.308
-132.356	-200.000	0.172	-0.845
-131.341	-128.483	-0.531	-0.074
-130.326	-56.362	0.485	-0.213
-129.312	-200.000	0.048	0.207
-128.297	-142.442	-0.888	-0.086
-127.283	146.325	-0.110	-0.146
-126.268	-133.570	0.474	-0.059
-125.253	660.343	0.206	-0.524
-124.239	58.246	-0.253	-0.245
-123.224	800.000	-0.299	-0.895
-122.210	-32.911	-0.400	0.219
-121.195	-184.414	0.203	-0.003
-120.180	-113.430	-0.483	-0.093
-119.166	-73.177	0.543	-0.196
-118.151	639.517	0.163	0.410
-117.137	-83.073	-0.359	0.114
-116.122	-88.358	-0.238	-0.070
-115.107	167.866	-0.580	0.815
-114.093	-66.155	0.450	0.177
-113.078	-126.335	-0.803	0.118
-112.064	66.896	0.345	-0.347
-111.049	800.000	0.219	-0.690
-110.034	-38.054	0.338	-0.177
-109.020	-48.070	0.671	0.320
-108.005	299.764	-0.409	0.744
-106.991	-46.924	0.337	0.163
-105.976	164.341	0.164	0.228
-104.962	-200.000	-0.005	0.046
-103.947	121.877	0.542	0.668
-102.932	-68.472	0.530	0.203
-101.918	87.583	-0.625	-0.683
-100.903	418.046	-0.179	-0.378
-99.889	-28.560	-0.449	0.256
-98.874	-26.562	0.126	-0.073
-97.859	-6.010	0.149	-0.101
-96.845	-200.000	-0.017	0.108
-95.830	-121.032	-0.973	-0.161
-94.816	-59.511	0.329	0.139
-93.801	13.131	0.423	0.324
-92.786	800.000	-0.137	-0.441
-91.772	-72.110	0.359	-0.131
-90.757	439.561	-0.495	-1.066
-89.743	-155.433	0.218	0.014
-88.728	-200.000	0.019	-0.613
-87.713	-93.293	-0.075	-0.021
-86.699	-200.000	0.008	-0.394
-85.684	-200.000	0.073	-0.325
-84.670	-200.000	0.450	0.001
-83.655	418.860	-0.074	0.155
-82.640	-140.231	-0.622	-0.064
-81.626	-200.000	0.075	0.748
-80.611	315.564	-0.377	-0.701
-79.597	-71.780	0.497	0.183
-78.582	-60.529	-0.173	0.073
-77.567	-62.130	0.468	-0.192
-76.553	184.161	0.385	-0.562
-75.538	800.000	0.043	-0.161
-74.524	800.000	0.292	0.851
-73.509	98.411	-0.142	-0.161
-72.494	-200.000	-0.080	-0.781
-71.480	620.476	-0.112	0.278
-70.465	-33.227	-0.514	-0.281
-69.451	800.000	0.025	0.068
-68.436	-14.856	-0.532	0.336
-67.422	39.756	-1.020	0.903
-66.407	-8.275	0.404	-0.268
-65.392	-200.000	-0.002	0.366
-64.378	72.878	0.157	0.161
-63.363	800.000	-0.122	-0.355
-62.349	-38.325	-0.763	-0.398
-61.334	238.612	-0.812	-1.330
-60.319	-162.905	1.426	-0.068
-59.305	-200.000	0.031	-1.128
-58.290	-200.000	-0.031	0.346
-57.276	800.000	0.515	1.669
-56.261	-200.000	95.738	570.543
-55.246	642.534	1366.988	3432.594
-54.232	200.915	2532.818	3838.864
-53.217	117.787	2128.547	2582.274
-52.203	44.776	1596.509	1447.032
-51.188	36.548	1337.412	1162.909
-50.173	33.623	1295.196	1109.086
-49.159	56.665	1344.872	1289.354
-48.144	57.439	1362.661	1310.967
-47.130	36.918	1319.120	1149.016
-46.115	33.164	1302.545	1112.500
-45.100	33.261	1297.168	1108.435
-44.086	33.021	1295.675	1105.709
-43.071	32.958	1293.510	1103.448
-42.057	33.095	1289.948	1101.165
-41.042	33.011	1289.507	1100.255
-40.027	33.032	1287.589	1098.698
-39.013	33.178	1285.885	1098.049
-37.998	33.146	1283.650	1095.912
-36.984	33.268	1281.277	1094.548
-35.969	33.229	1280.791	1093.862
-34.954	33.271	1278.465	1092.076
-33.940	33.208	1277.099	1090.504
-32.925	33.184	1276.292	1089.632
-31.911	33.336	1274.598	1089.017
-30.896	33.183	1272.706	1086.476
-29.881	33.206	1271.666	1085.681
-28.867	33.435	1269.670	1085.246
-27.852	33.087	1269.182	1082.792
-26.838	33.154	1268.213	1082.304
-25.823	33.226	1267.023	1081.658
-24.809	33.038	1266.108	1079.756
-23.794	33.292	1263.999	1079.365
-22.779	33.487	1261.540	1078.334
-21.765	33.371	1260.733	1076.942
-20.750	33.151	1261.322	1076.148
-19.736	33.185	1258.602	1073.980
-18.721	33.326	1256.774	1073.175
-17.706	32.898	1256.540	1070.507
-16.692	33.403	1254.759	1071.805
-15.677	33.505	1253.068	1070.894
-14.663	33.103	1253.287	1068.768
-13.648	33.179	1252.354	1068.361
-12.633	33.081	1251.536	1067.068
-11.619	33.157	1248.857	1065.167
-10.604	32.976	1249.804	1064.913
-9.590	33.064	1248.537	1064.287
-8.575	33.041	1247.265	1063.033
-7.560	32.869	1246.948	1061.750
-6.546	33.262	1245.540	1062.717
-5.531	33.097	1244.690	1061.025
-4.517	33.083	1244.727	1060.936
-3.502	33.070	1243.879	1060.097
-2.487	33.255	1243.178	1060.491
-1.473	32.959	1238.723	1054.999
-0.458	31.614	1222.792	1033.967
0.556	28.798	1205.302	994.902
1.571	24.899	1211.410	978.590
2.586	23.873	1226.393	984.926
3.600	23.449	1214.920	973.294
4.615	17.210	1143.236	883.451
5.629	7.710	1067.029	778.177
6.644	3.180	1047.483	742.052
7.659	2.996	1045.258	739.521
8.673	2.850	1042.957	737.128
9.688	2.815	1042.122	736.303
10.702	3.274	1040.598	737.359
11.717	9.454	1047.631	771.999
12.731	18.884	1061.976	828.147
13.746	24.103	1069.003	858.797
14.761	25.059	1069.910	864.059
15.775	24.674	1069.126	861.494
16.790	24.608	1068.608	860.686
17.804	24.902	1068.554	861.980
18.819	24.838	1066.908	860.267
19.834	24.928	1067.023	860.717
20.848	25.104	1066.586	861.135
21.863	24.908	1067.184	860.598
22.877	24.957	1065.876	859.702
23.892	25.003	1064.936	859.091
24.907	24.905	1064.542	858.224
25.921	24.646	1063.039	855.700
26.936	24.754	1062.409	855.635
27.950	24.679	1060.527	853.682
28.965	24.755	1058.236	852.125
29.980	24.740	1057.566	851.439
30.994	25.143	1055.863	851.907
32.009	25.186	1054.954	851.305
33.023	24.734	1054.294	848.549
34.038	24.904	1054.098	849.126
35.053	24.906	1052.677	847.913
36.067	24.825	1052.441	847.266
37.082	25.090	1050.561	846.929
38.096	24.948	1051.184	846.684
39.111	25.001	1050.372	846.209
40.126	24.875	1049.074	844.490
41.140	24.602	1048.447	842.627
42.155	24.385	1046.692	840.120
43.169	24.427	1045.960	839.654
44.184	24.606	1043.303	838.286
45.199	24.273	1044.307	837.457
46.213	24.790	1042.019	837.972
47.228	25.131	1042.224	839.656
48.242	24.977	1041.003	837.880
49.257	24.970	1040.687	837.516
50.271	24.533	1041.338	835.920
51.286	25.002	1040.086	837.036
52.301	24.969	1038.394	835.448
53.315	24.891	1038.066	834.746
54.330	24.832	1036.549	833.174
55.344	24.994	1036.240	833.608
56.359	24.937	1035.056	832.316
57.374	24.868	1034.844	831.750
58.388	24.784	1032.860	829.692
59.403	24.462	1033.903	828.965
60.417	24.885	1030.820	828.378
61.432	24.875	1030.448	827.960
62.447	24.522	1031.123	826.795
63.461	24.997	1029.572	827.671
64.476	24.943	1028.410	826.413
65.490	24.716	1027.616	824.654
66.505	24.571	1027.948	824.180
67.520	24.591	1027.463	823.812
68.534	24.712	1026.069	823.179
69.549	24.395	1024.651	820.509
70.563	24.416	1023.684	819.761
71.578	24.259	1023.668	818.951
72.593	24.506	1021.148	817.995
73.607	24.045	1023.189	817.441
74.622	24.758	1020.701	818.649
75.636	24.742	1020.082	818.007
76.651	24.901	1019.001	817.790
77.666	24.423	1019.642	816.050
78.680	24.573	1018.171	815.484
79.695	24.659	1017.435	815.216
80.709	24.859	1017.116	815.797
81.724	24.714	1016.351	814.454
82.739	24.994	1014.886	814.482
83.753	25.195	1015.020	815.428
84.768	25.520	1014.172	816.151
85.782	25.463	1013.957	815.650
86.797	25.389	1012.753	814.269
87.812	25.254	1012.386	813.294
88.826	25.189	1011.597	812.292
89.841	25.205	1011.137	811.925
90.855	25.374	1009.359	811.189
91.870	25.404	1008.138	810.270
92.884	25.139	1007.603	808.572
93.899	24.978	1006.139	806.602
94.914	25.616	1004.801	808.326
95.928	25.455	1004.630	807.392
96.943	24.995	1003.795	804.584
97.957	25.097	1003.051	804.374
98.972	24.731	1001.793	801.655
99.987	25.238	1000.546	802.854
101.001	24.982	1000.952	801.963
102.016	25.263	998.775	801.406
103.030	25.040	999.077	800.581
104.045	25.259	997.783	800.450
105.060	24.948	997.400	798.684
106.074	25.312	994.772	798.129
107.089	25.085	995.664	797.760
108.103	25.233	993.982	797.000
109.118	24.912	993.332	794.985
110.133	24.603	992.947	793.235
111.147	24.751	990.932	792.211
112.162	24.777	990.694	792.064
113.176	24.998	990.784	793.045
114.191	24.891	988.983	791.061
115.206	24.539	988.425	788.992
116.220	24.598	987.652	788.562
117.235	24.870	986.677	788.917
118.249	24.517	986.249	786.949
119.264	24.917	985.012	787.650
120.279	24.874	984.166	786.717
121.293	24.764	983.396	785.546
122.308	24.940	982.709	785.703
123.322	24.724	982.332	784.383
124.337	24.580	981.251	782.819
125.352	24.417	979.236	780.431
126.366	24.322	977.329	778.425
127.381	24.666	977.748	780.194
128.395	25.189	977.425	782.146
129.410	25.115	977.547	781.853
130.424	25.246	976.520	781.535
131.439	24.883	976.076	779.527
132.454	25.173	975.192	780.013
133.468	25.205	974.406	779.456
134.483	25.046	973.251	777.773
135.497	25.483	972.682	779.143
136.512	25.570	970.949	778.063
137.527	25.515	970.624	777.496
138.541	25.274	969.791	775.719
139.556	25.218	970.362	775.867
140.570	25.622	968.516	776.065
141.585	25.681	967.031	775.060
142.600	25.456	966.367	773.488
143.614	25.470	966.688	773.737
144.629	25.309	965.393	771.940
145.643	25.383	964.426	771.420
146.658	25.471	962.719	770.363
147.673	25.254	961.565	768.442
148.687	24.983	961.429	767.103
149.702	25.364	959.770	767.342
150.716	25.040	959.011	765.282
151.731	25.210	958.378	765.435
152.746	25.604	956.682	765.692
153.760	25.810	957.018	766.770
154.775	25.535	956.649	765.236
155.789	25.559	955.848	764.629
156.804	24.968	956.046	762.203
157.819	25.654	954.190	763.573
158.833	25.416	954.574	762.798
159.848	25.896	952.236	762.897
160.862	25.592	951.273	760.774
161.877	25.717	949.846	760.089
162.892	25.336	949.748	758.338
163.906	25.473	948.193	757.607
164.921	25.552	947.883	757.623
165.935	25.496	946.348	756.094
166.950	25.639	946.501	756.750
167.964	25.664	945.568	756.041
168.979	25.318	944.250	753.473
169.994	25.360	943.761	753.188
171.008	25.550	943.527	753.732
172.023	25.813	942.000	753.545
173.037	25.535	940.883	751.427
174.052	25.493	939.682	750.222
175.067	25.296	939.830	749.455
176.081	25.446	938.632	749.055
177.096	25.635	937.862	749.163
178.110	25.345	936.979	747.183
179.125	25.006	936.555	745.370
180.140	25.102	936.593	745.734
181.154	24.894	937.911	745.851
182.169	25.562	936.184	747.190
183.183	25.456	935.703	746.297
184.198	25.719	933.435	745.511
185.213	25.727	933.418	745.466
186.227	25.855	932.442	745.151
187.242	25.743	932.824	744.927
188.256	25.841	932.613	745.097
189.271	25.767	931.366	743.728
190.286	25.248	931.198	741.384
191.300	25.073	928.216	738.227
192.315	24.033	928.018	733.719
193.329	24.577	926.919	735.024
194.344	25.282	926.654	737.648
195.359	25.303	928.099	738.819
196.373	25.882	926.283	739.686
197.388	25.898	926.232	739.643
198.402	25.625	926.345	738.546
199.417	25.894	924.672	738.252
200.432	25.760	923.791	736.936
201.446	25.423	924.747	736.250
202.461	25.589	922.696	735.229
203.475	25.046	920.932	731.546
204.490	24.335	920.331	728.099
205.504	24.903	920.625	730.587
206.519	25.476	919.776	732.185
207.534	25.559	919.681	732.382
208.548	25.730	918.774	732.289
209.563	25.295	919.351	730.916
210.577	25.587	918.578	731.424
211.592	25.771	918.474	732.023
212.607	26.206	916.498	732.149
213.621	25.831	916.926	730.905
214.636	25.923	916.495	730.871
215.650	25.940	915.254	729.882
216.665	25.889	914.022	728.632
217.680	25.804	913.865	728.096
218.694	25.385	912.690	725.404
219.709	25.387	912.790	725.428
220.723	25.560	911.437	724.986
221.738	25.361	910.819	723.628
222.753	25.743	910.010	724.461
223.767	25.475	910.316	723.560
224.782	25.980	909.219	724.655
225.796	26.021	909.109	724.669
226.811	25.553	908.416	722.173
227.826	24.825	907.420	718.393
228.840	25.130	905.590	718.102
229.855	24.963	905.100	716.981
230.869	25.095	904.532	716.996
231.884	25.096	904.265	716.726
232.899	25.288	904.887	717.925
233.913	25.519	903.460	717.650
234.928	25.485	903.136	717.195
235.942	25.467	902.161	716.285
236.957	25.364	900.804	714.732
237.972	25.302	901.691	715.129
238.986	25.664	898.861	714.258
240.001	25.253	899.705	713.232
241.015	25.295	899.656	713.295
242.030	25.492	898.542	713.133
243.045	25.348	899.399	713.178
244.059	25.408	898.342	712.513
245.074	25.595	897.449	712.483
246.088	25.488	895.767	710.662
247.103	25.835	895.670	711.892
248.117	26.316	895.967	713.967
249.132	26.454	896.051	714.517
250.147	26.422	895.429	713.830
251.161	26.633	894.536	713.887
252.176	26.601	893.492	712.865
253.190	26.443	893.798	712.425
254.205	26.803	892.711	712.910
255.220	26.526	893.026	712.008
256.234	26.581	891.508	710.953
257.249	26.390	891.195	709.887
258.263	26.315	890.055	708.626
259.278	26.487	889.243	708.589
260.293	26.627	888.938	708.831
261.307	26.423	888.753	707.824
262.322	26.166	888.423	706.492
263.336	25.879	886.325	703.641
264.351	24.864	885.908	699.285
265.366	25.397	884.520	700.205
266.380	26.152	884.337	702.938
267.395	26.181	884.777	703.337
268.409	26.271	883.682	702.755
269.424	26.321	882.776	702.170
270.439	26.125	882.846	701.400
271.453	26.432	882.113	701.949
272.468	26.508	880.923	701.232
273.482	26.827	880.212	701.839
274.497	26.414	879.555	699.658
275.512	26.096	878.616	697.619
276.526	26.104	879.572	698.348
277.541	26.373	878.803	698.715
278.555	26.434	877.896	698.165
279.570	26.527	877.026	697.770
280.585	26.229	876.900	696.461
281.599	26.180	875.528	695.123
282.614	26.120	874.410	693.942
283.628	25.979	873.593	692.691
284.643	26.200	873.428	693.346
285.657	25.499	873.500	690.648
286.672	25.774	872.317	690.709
287.687	26.088	871.898	691.519
288.701	26.052	871.295	690.840
289.716	25.704	871.527	689.629
290.730	25.830	870.500	689.238
291.745	25.887	869.596	688.680
292.760	26.014	869.409	688.958
293.774	26.781	868.816	691.351
294.789	26.798	868.440	691.058
295.803	26.440	868.555	689.723
296.818	26.773	867.568	690.144
297.833	26.648	866.185	688.510
298.847	26.233	864.792	685.767
299.862	26.315	865.520	686.592
300.876	26.301	865.790	686.695
301.891	26.959	864.248	687.903
302.906	26.476	864.212	685.984
303.920	26.932	862.884	686.594
304.935	26.704	862.878	685.666
305.949	26.777	862.570	685.638
306.964	26.150	862.624	683.247
307.979	26.512	861.070	683.324
308.993	26.576	861.535	683.876
310.008	26.962	860.394	684.362
311.022	26.640	859.531	682.405
312.037	26.484	859.244	681.529
313.052	26.360	858.145	680.130
314.066	25.602	856.735	676.105
315.081	25.599	856.273	675.670
316.095	25.748	856.917	676.675
317.110	26.330	856.562	678.521
318.125	26.059	854.787	676.040
319.139	25.026	853.819	671.346
320.154	25.197	853.114	671.371
321.168	25.355	854.120	672.699
322.183	26.294	853.152	675.388
323.197	26.518	852.616	675.741
324.212	26.468	852.334	675.271
325.227	26.275	851.323	673.689
326.241	26.094	851.298	672.936
327.256	26.128	850.835	672.637
328.270	25.729	850.219	670.603
329.285	25.596	850.672	670.405
330.300	25.652	848.418	668.780
331.314	25.925	848.121	669.499
332.329	26.286	848.241	670.873
333.343	26.365	848.243	671.110
334.358	26.337	847.463	670.329
335.373	26.432	846.758	670.066
336.387	26.714	846.237	670.638
337.402	26.900	846.538	671.504
338.416	27.283	845.534	672.064
339.431	26.729	845.769	670.145
340.446	26.822	845.528	670.239
341.460	26.763	845.313	669.791
342.475	26.781	844.886	669.460
343.489	26.913	843.720	668.963
344.504	27.258	843.506	670.005
345.519	27.232	843.422	669.783
346.533	26.995	843.534	668.938
347.548	27.121	842.934	668.868
348.562	26.991	841.028	666.817
349.577	26.979	840.638	666.409
350.592	26.634	841.107	665.452
351.606	26.726	839.524	664.477
352.621	26.702	839.196	664.071
353.635	26.685	838.811	663.646
354.650	26.430	837.580	661.679
355.665	25.880	836.085	658.431
356.679	26.162	835.636	659.052
357.694	26.618	835.413	660.481
358.708	26.152	835.619	658.884
359.723	26.740	834.062	659.737
360.738	26.600	833.432	658.671
361.752	26.734	832.633	658.469
362.767	26.828	832.705	658.812
363.781	27.164	832.234	659.600
364.796	27.101	832.677	659.664
365.810	27.196	831.518	659.030
366.825	27.303	830.431	658.498
367.840	27.163	829.663	657.325
368.854	26.624	830.079	655.644
369.869	26.494	829.426	654.602
370.883	26.880	828.738	655.395
371.898	27.487	828.734	657.527
372.913	27.420	827.963	656.616
373.927	26.790	827.695	654.071
374.942	27.058	826.897	654.348
375.956	27.125	826.806	654.459
376.971	27.252	826.494	654.613
377.986	27.342	825.805	654.333
379.000	27.674	826.073	655.681
380.015	27.376	825.120	653.796
381.029	27.226	824.304	652.553
382.044	27.322	822.779	651.632
383.059	26.937	823.781	650.988
384.073	27.097	823.290	651.116
385.088	27.076	821.341	649.443
386.102	26.754	821.517	648.373
387.117	26.815	819.940	647.286
388.132	26.566	819.690	646.145
389.146	26.442	819.861	645.779
390.161	26.914	819.028	646.749
391.175	27.442	818.387	648.066
392.190	27.066	818.026	646.385
393.205	26.104	816.150	641.429
394.219	25.569	814.190	637.933
395.234	25.414	814.494	637.564
396.248	25.789	815.680	639.770
397.263	26.877	815.321	643.291
398.278	26.496	815.459	641.990
399.292	26.439	813.961	640.553
400.307	26.360	813.393	639.770
401.321	26.210	813.917	639.595
402.336	26.552	814.004	640.820
403.350	26.672	814.243	641.373
404.365	26.949	812.843	641.194
405.380	27.598	812.989	643.543
406.394	27.580	811.573	642.301
407.409	27.371	811.663	641.581
408.423	27.455	811.328	641.554
409.438	27.098	811.107	640.067
410.453	27.393	810.696	640.722
411.467	27.142	809.970	639.209
412.482	27.286	809.210	639.058
413.496	27.914	808.851	640.925
414.511	27.341	808.905	638.898
415.526	27.712	808.605	639.908
416.540	27.713	807.279	638.806
417.555	27.318	807.371	637.436
418.569	27.862	805.603	637.888
419.584	27.440	806.370	636.962
420.599	27.507	805.098	636.135
421.613	159.668	1371.144	1793.139
422.628	138.715	1453.655	1793.174
