DTS Sentinel unit serial number:	SN413079Multiplexer serial number:	ORYXHardware model number:	OX4-SRSoftware version number:	ORYX F/W v4.00 Oryx Data Collector v3.7.2.0data status	okinstallation	princeton_trtdifferential loss correction	single-endedforward channel	channel 1reverse channel	N/Adate	2019/09/16time	13:58:35forward acquisition time	60.00reverse acquisition time	0.00gamma	496.2192k internal	0.2294k external	0.2294temperature offset calibration	0.9954default loss term (dB/km)	0.3790temperature slope calibration	1.0000multiplexer offset coefficient	1.0000multiplexer slope coefficient	1.0000fibre end	0.00T internal ref (°C)	42.37T ext. ref 1 (°C)	14.01T ext. ref 2 (°C)	37.80length (m)	temperature (°C)	Stokes	anti-Stokes-747.200	-71.320	0.178	0.068
-746.185	-200.000	-0.066	0.314
-745.171	-200.000	0.013	-0.067
-744.156	800.000	0.043	0.135
-743.142	-68.918	-0.432	-0.171
-742.127	-89.946	0.192	0.057
-741.112	40.731	-0.111	0.102
-740.098	156.589	-0.060	0.084
-739.083	-55.111	-0.255	0.118
-738.069	0.929	0.181	0.132
-737.054	191.400	0.078	-0.121
-736.039	-131.316	-0.069	-0.009
-735.025	-86.552	-0.295	0.092
-734.010	112.753	0.152	-0.189
-732.996	90.794	-0.139	-0.159
-731.981	-200.000	0.059	-0.274
-730.966	800.000	-0.147	-0.419
-729.952	-200.000	0.071	-0.501
-728.937	-127.408	0.492	-0.073
-727.923	132.888	-0.079	-0.105
-726.908	800.000	-0.049	-0.181
-725.894	-90.040	-0.175	-0.052
-724.879	-179.000	-0.411	-0.009
-723.864	-117.403	-0.131	-0.024
-722.850	800.000	0.026	-0.109
-721.835	-200.000	-0.017	0.257
-720.821	224.517	-0.176	0.291
-719.806	195.456	0.127	-0.197
-718.791	-195.998	0.252	0.002
-717.777	-56.356	-0.273	0.124
-716.762	-200.000	0.002	-0.431
-715.748	-29.555	-0.180	-0.105
-714.733	-61.410	-0.311	-0.134
-713.718	-26.358	-0.244	-0.147
-712.704	-133.528	0.335	0.043
-711.689	71.411	0.159	-0.169
-710.675	-200.000	0.017	0.158
-709.660	-72.528	-0.176	-0.067
-708.645	35.692	0.139	-0.124
-707.631	-159.073	-0.343	0.020
-706.616	-61.800	-0.139	-0.060
-705.602	76.498	-0.104	-0.113
-704.587	-200.000	0.040	-0.185
-703.572	109.212	-0.203	0.249
-702.558	-46.087	-0.076	-0.038
-701.543	568.498	-0.059	-0.145
-700.529	251.192	0.151	-0.262
-699.514	69.492	0.177	0.186
-698.499	32.921	0.079	-0.070
-697.485	242.858	0.037	0.064
-696.470	-95.246	0.309	-0.085
-695.456	-84.716	-0.157	0.051
-694.441	-53.640	-0.084	0.039
-693.426	-200.000	-0.047	-0.472
-692.412	-200.000	-0.015	-0.121
-691.397	-200.000	-0.028	-0.160
-690.383	5.779	-0.256	-0.193
-689.368	201.131	0.080	-0.126
-688.354	-89.780	0.108	0.032
-687.339	584.593	0.070	0.175
-686.324	-64.642	-0.195	-0.081
-685.310	-200.000	0.004	0.222
-684.295	-37.410	-0.273	0.149
-683.281	-15.562	0.217	-0.141
-682.266	-98.667	-0.377	0.098
-681.251	-200.000	-0.249	0.000
-680.237	21.095	-0.294	-0.243
-679.222	205.438	0.097	0.154
-678.208	63.295	-0.028	-0.029
-677.193	-200.000	-0.036	-0.192
-676.178	-2.859	0.076	-0.054
-675.164	800.000	-0.050	-0.173
-674.149	158.529	-0.159	-0.226
-673.135	341.795	-0.110	-0.219
-672.120	-135.517	0.130	0.016
-671.105	273.124	-0.050	-0.089
-670.091	68.642	-0.238	-0.249
-669.076	420.723	-0.113	0.247
-668.062	-67.154	-0.324	0.130
-667.047	800.000	0.102	0.311
-666.032	74.884	-0.202	-0.217
-665.018	-138.980	0.256	0.028
-664.003	-131.118	0.221	0.030
-662.989	-68.148	-0.060	-0.024
-661.974	-200.000	-0.381	-0.001
-660.959	-200.000	0.004	0.180
-659.945	-27.845	-0.144	-0.085
-658.930	97.907	0.112	0.131
-657.916	249.614	-0.290	-0.502
-656.901	128.914	-0.031	0.041
-655.886	800.000	-0.085	-0.240
-654.872	311.001	-0.159	0.304
-653.857	369.325	0.195	-0.403
-652.843	199.068	-0.135	-0.211
-651.828	74.629	0.084	0.090
-650.814	-76.270	-0.235	-0.084
-649.799	-108.458	0.089	0.020
-648.784	800.000	0.039	-0.118
-647.770	-143.127	-0.158	-0.016
-646.755	-56.457	0.112	-0.050
-645.741	-64.178	-0.412	0.171
-644.726	22.547	-0.157	-0.131
-643.711	-200.000	0.001	-0.178
-642.697	58.311	-0.084	0.084
-641.682	-105.518	0.354	0.082
-640.668	-200.000	-0.033	-0.265
-639.653	-42.428	-0.186	0.097
-638.638	-25.021	-0.186	-0.112
-637.624	-200.000	-0.034	-0.228
-636.609	-34.666	0.151	-0.084
-635.595	183.106	-0.080	-0.120
-634.580	-128.699	-0.159	-0.023
-633.565	302.901	0.053	0.100
-632.551	-36.967	-0.162	0.088
-631.536	800.000	0.139	-0.404
-630.522	-164.646	0.228	0.010
-629.507	159.657	0.022	-0.031
-628.492	-115.225	0.293	-0.056
-627.478	330.603	-0.096	-0.188
-626.463	-2.417	0.321	-0.229
-625.449	28.195	0.187	-0.161
-624.434	9.954	0.107	-0.083
-623.419	-121.357	-0.207	-0.035
-622.405	500.616	0.064	-0.151
-621.390	800.000	0.013	0.057
-620.376	76.395	-0.242	-0.261
-619.361	-35.331	0.112	0.062
-618.346	-77.086	-0.190	0.067
-617.332	-122.473	0.166	0.027
-616.317	441.770	0.136	0.303
-615.303	57.869	0.100	-0.100
-614.288	-169.288	0.132	-0.005
-613.273	-200.000	0.051	0.282
-612.259	-200.000	0.026	-0.154
-611.244	-100.403	-0.289	-0.073
-610.230	150.128	-0.151	-0.208
-609.215	-200.000	-0.004	0.122
-608.201	-73.261	-0.392	0.146
-607.186	519.941	0.037	0.089
-606.171	-36.553	0.177	-0.097
-605.157	24.841	0.134	-0.113
-604.142	-158.682	0.223	0.013
-603.128	-63.597	-0.255	0.107
-602.113	55.036	-0.136	-0.134
-601.098	342.541	-0.017	-0.034
-600.084	-41.822	-0.117	0.061
-599.069	-104.345	0.126	0.030
-598.055	-1.843	0.098	-0.070
-597.040	-200.000	-0.030	0.428
-596.025	-154.117	-0.271	0.019
-595.011	297.602	0.092	-0.173
-593.996	-200.000	-0.018	0.166
-592.982	-142.603	-0.275	0.027
-591.967	-200.000	0.023	0.213
-590.952	-69.696	-0.228	-0.089
-589.938	-200.000	0.012	-0.307
-588.923	399.237	-0.041	-0.088
-587.909	-200.000	-0.010	0.189
-586.894	146.363	-0.187	-0.255
-585.879	42.512	-0.160	-0.148
-584.865	-69.945	0.028	0.011
-583.850	-160.317	-0.205	0.011
-582.836	-151.552	0.469	-0.035
-581.821	-63.782	-0.201	-0.084
-580.806	60.928	0.083	0.084
-579.792	30.259	0.241	0.209
-578.777	-68.795	-0.154	-0.061
-577.763	-154.237	0.157	0.011
-576.748	34.320	-0.237	-0.211
-575.733	110.062	-0.173	0.211
-574.719	-175.245	-0.287	0.008
-573.704	-200.000	0.018	-0.183
-572.690	-53.043	-0.264	-0.123
-571.675	-200.000	-0.043	-0.437
-570.661	-110.839	-0.306	0.064
-569.646	55.254	-0.189	0.186
-568.631	-64.024	0.436	-0.181
-567.617	-200.000	-0.023	0.225
-566.602	1.954	-0.206	-0.151
-565.588	-192.887	-0.399	0.004
-564.573	-17.829	0.175	-0.111
-563.558	349.820	-0.155	-0.311
-562.544	800.000	0.037	-0.115
-561.529	27.287	0.028	0.024
-560.515	-15.535	-0.208	0.135
-559.500	-52.706	-0.079	-0.037
-558.485	-200.000	-0.017	0.109
-557.471	-5.790	0.112	0.078
-556.456	800.000	0.047	-0.192
-555.442	-139.871	0.108	-0.012
-554.427	145.257	0.227	0.308
-553.412	-200.000	-0.007	-0.195
-552.398	256.973	0.140	0.244
-551.383	-200.000	0.057	0.380
-550.369	800.000	-0.087	0.265
-549.354	99.986	-0.043	0.051
-548.339	-86.951	0.254	-0.079
-547.325	-200.000	0.049	0.232
-546.310	-200.000	-0.065	0.343
-545.296	52.267	0.341	0.330
-544.281	10.598	0.250	-0.194
-543.266	-134.208	-0.266	0.033
-542.252	-54.582	-0.022	-0.010
-541.237	101.885	0.127	0.151
-540.223	-52.870	-0.166	0.077
-539.208	38.720	-0.237	-0.215
-538.193	-105.750	0.278	0.064
-537.179	-22.479	-0.172	0.106
-536.164	5.747	0.028	0.021
-535.150	639.040	0.154	0.397
-534.135	-91.980	0.071	-0.020
-533.121	-4.229	0.095	-0.067
-532.106	354.313	0.189	-0.381
-531.091	-200.000	0.087	0.530
-530.077	-24.163	-0.041	0.025
-529.062	58.090	0.297	0.295
-528.048	-200.000	-0.026	-0.171
-527.033	-13.799	0.299	-0.196
-526.018	-125.613	0.174	0.027
-525.004	-57.619	0.235	-0.105
-523.989	-200.000	-0.019	0.249
-522.975	121.888	-0.182	0.230
-521.960	365.250	0.060	0.123
-520.945	225.786	0.185	0.303
-519.931	-105.653	0.058	0.013
-518.916	259.067	0.079	0.139
-517.902	-17.836	0.027	0.017
-516.887	53.561	0.354	-0.345
-515.872	-113.807	-0.202	-0.040
-514.858	3.386	-0.070	0.052
-513.843	125.125	0.081	0.103
-512.829	800.000	0.104	-0.347
-511.814	68.729	-0.215	-0.224
-510.799	-93.167	-0.232	0.065
-509.785	800.000	0.095	-0.346
-508.770	315.663	0.173	-0.331
-507.756	-22.386	0.216	-0.132
-506.741	245.473	-0.129	-0.220
-505.726	-70.836	0.216	-0.082
-504.712	-200.000	0.050	-0.302
-503.697	-200.000	-0.024	-0.124
-502.683	140.031	0.106	0.141
-501.668	-92.086	-0.158	0.045
-500.653	-58.641	-0.210	0.092
-499.639	635.535	-0.008	0.020
-498.624	-80.460	-0.030	0.010
-497.610	25.400	0.103	-0.087
-496.595	47.268	-0.160	-0.151
-495.581	8.966	0.181	0.138
-494.566	-179.369	-0.148	-0.003
-493.551	129.197	0.108	0.140
-492.537	-131.291	-0.168	-0.023
-491.522	167.234	-0.148	-0.213
-490.508	-45.568	-0.070	-0.035
-489.493	-200.000	-0.060	-0.368
-488.478	1.397	0.093	0.068
-487.464	243.794	0.217	0.369
-486.449	-114.465	0.207	0.040
-485.435	-200.000	-0.041	-0.360
-484.420	27.806	-0.187	-0.159
-483.405	123.014	-0.186	0.236
-482.391	18.067	-0.259	-0.209
-481.376	177.425	0.080	0.117
-480.362	109.870	-0.194	0.235
-479.347	800.000	-0.040	0.145
-478.332	244.723	-0.198	0.337
-477.318	361.720	-0.055	-0.111
-476.303	141.444	-0.051	-0.068
-475.289	-200.000	-0.009	0.271
-474.274	86.009	-0.014	0.015
-473.259	800.000	0.138	-0.393
-472.245	800.000	0.064	-0.262
-471.230	123.573	-0.140	-0.178
-470.216	-58.376	-0.131	0.058
-469.201	285.479	-0.050	0.092
-468.186	800.000	0.055	0.191
-467.172	-47.629	-0.214	-0.105
-466.157	800.000	0.065	-0.203
-465.143	23.680	0.095	-0.079
-464.128	-200.000	-0.062	0.300
-463.113	-200.000	-0.045	-0.245
-462.099	-148.408	0.480	0.040
-461.084	-45.796	0.268	-0.134
-460.070	-200.000	0.032	-0.212
-459.055	-200.000	-0.020	-0.104
-458.040	-98.250	0.262	0.068
-457.026	181.696	0.175	-0.261
-456.011	-200.000	0.007	0.098
-454.997	-103.358	-0.430	0.102
-453.982	-27.871	0.128	0.075
-452.968	-82.427	-0.185	-0.061
-451.953	46.888	0.195	0.183
-450.938	800.000	0.064	0.236
-449.924	-200.000	-0.028	0.309
-448.909	800.000	-0.057	0.249
-447.895	-154.915	-0.203	-0.014
-446.880	-119.807	-0.080	-0.014
-445.865	-200.000	0.043	-0.299
-444.851	-49.576	0.179	0.086
-443.836	-200.000	-0.074	-0.340
-442.822	-200.000	0.167	0.000
-441.807	-63.347	-0.109	-0.045
-440.792	103.448	-0.204	0.242
-439.778	49.529	-0.248	-0.236
-438.763	-200.000	0.044	0.574
-437.749	800.000	-0.019	-0.076
-436.734	19.908	0.099	0.080
-435.719	242.377	0.021	-0.036
-434.705	96.665	0.129	-0.150
-433.690	-112.374	-0.193	0.039
-432.676	14.203	0.259	-0.204
-431.661	-98.245	0.288	0.075
-430.646	107.242	-0.208	-0.250
-429.632	-8.509	0.031	-0.021
-428.617	-200.000	0.002	0.040
-427.603	-177.906	-0.247	-0.006
-426.588	72.195	0.215	-0.226
-425.573	8.566	0.343	-0.261
-424.559	-44.222	0.249	-0.126
-423.544	161.741	-0.020	-0.028
-422.530	-31.477	0.200	0.114
-421.515	-106.978	-0.221	0.049
-420.500	104.150	-0.257	0.305
-419.486	-29.888	0.176	-0.101
-418.471	112.853	-0.111	0.136
-417.457	-118.815	0.193	0.034
-416.442	42.468	-0.089	-0.081
-415.428	-11.061	0.322	0.215
-414.413	-69.557	0.242	0.094
-413.398	800.000	0.016	-0.045
-412.384	-74.981	-0.117	-0.042
-411.369	-99.547	0.327	0.083
-410.355	-86.667	-0.202	0.062
-409.340	-200.000	-0.008	0.298
-408.325	-200.000	-0.022	-0.126
-407.311	-26.176	0.238	-0.141
-406.296	-132.494	-0.189	-0.025
-405.282	800.000	-0.031	-0.131
-404.267	213.872	-0.144	0.230
-403.252	60.814	0.118	-0.118
-402.238	241.192	0.161	0.271
-401.223	159.197	-0.122	-0.171
-400.209	-123.025	0.038	-0.006
-399.194	-123.845	-0.232	0.037
-398.179	721.662	0.073	-0.196
-397.165	390.093	0.088	-0.185
-396.150	800.000	-0.026	0.115
-395.136	800.000	-0.034	-0.107
-394.121	249.831	0.114	-0.195
-393.106	-57.592	-0.252	0.111
-392.092	-76.259	-0.287	-0.102
-391.077	424.182	0.040	-0.087
-390.063	30.770	0.216	-0.187
-389.048	-200.000	0.001	0.338
-388.033	-200.000	-0.026	0.155
-387.019	-172.647	0.045	0.001
-386.004	800.000	0.023	-0.102
-384.990	800.000	0.031	0.089
-383.975	3.720	-0.118	-0.087
-382.960	-136.373	-0.376	-0.044
-381.946	55.334	-0.255	0.249
-380.931	-21.740	-0.070	-0.043
-379.917	-13.473	-0.149	0.097
-378.902	152.499	0.037	0.050
-377.888	39.295	-0.213	0.193
-376.873	40.529	0.194	-0.177
-375.858	742.690	0.066	0.178
-374.844	159.896	0.219	0.307
-373.829	186.146	0.020	-0.030
-372.815	-200.000	0.025	-0.237
-371.800	274.261	-0.082	0.145
-370.785	-73.250	0.415	0.153
-369.771	-11.211	0.296	0.197
-368.756	-49.662	0.337	0.162
-367.742	-200.000	0.309	0.000
-366.727	425.990	0.046	0.100
-365.712	31.943	0.205	-0.178
-364.698	-64.071	-0.120	0.049
-363.683	65.294	-0.213	-0.217
-362.669	57.942	0.098	0.097
-361.654	-51.317	0.091	0.043
-360.639	233.054	-0.143	-0.237
-359.625	800.000	-0.039	0.147
-358.610	291.947	0.140	0.258
-357.596	-200.000	-0.001	0.171
-356.581	659.189	-0.079	-0.204
-355.566	-78.340	-0.225	-0.078
-354.552	271.044	-0.034	-0.060
-353.537	-136.729	0.099	-0.012
-352.523	800.000	0.101	-0.359
-351.508	-200.000	-0.016	-0.154
-350.493	40.524	-0.130	0.118
-349.479	-52.461	-0.210	-0.098
-348.464	800.000	-0.012	-0.034
-347.450	-122.338	-0.266	0.044
-346.435	-106.898	0.147	-0.033
-345.420	155.225	-0.037	-0.051
-344.406	23.207	0.087	-0.072
-343.391	358.689	-0.146	0.293
-342.377	22.780	0.278	-0.229
-341.362	12.928	-0.023	-0.018
-340.348	-118.544	0.065	-0.012
-339.333	-39.028	-0.065	-0.035
-338.318	-200.000	0.000	-0.005
-337.304	319.117	0.144	0.275
-336.289	800.000	-0.057	-0.171
-335.275	-33.033	0.116	-0.065
-334.260	-71.427	-0.169	-0.064
-333.245	-111.926	0.288	-0.059
-332.231	44.617	0.181	0.167
-331.216	-200.000	0.001	0.290
-330.202	640.001	-0.059	-0.150
-329.187	342.041	-0.112	-0.221
-328.172	800.000	0.016	-0.055
-327.158	-40.743	0.094	0.049
-326.143	627.961	-0.073	-0.185
-325.129	574.555	-0.046	-0.112
-324.114	800.000	-0.048	0.166
-323.099	-116.216	0.123	0.023
-322.085	2.151	0.162	0.118
-321.070	-88.476	-0.257	0.077
-320.056	481.090	-0.028	-0.063
-319.041	95.059	-0.218	0.250
-318.026	452.012	-0.088	-0.196
-317.012	150.327	-0.152	-0.208
-315.997	-200.000	0.038	-0.363
-314.983	-145.540	0.083	0.007
-313.968	-86.591	-0.188	0.058
-312.953	-177.754	0.017	-0.000
-311.939	-2.015	-0.167	0.118
-310.924	62.757	-0.086	-0.087
-309.910	-200.000	0.010	0.354
-308.895	102.780	0.092	0.108
-307.880	701.575	-0.102	-0.270
-306.866	-200.000	0.035	0.192
-305.851	238.750	-0.107	-0.179
-304.837	-92.879	0.099	-0.028
-303.822	-151.650	0.243	0.018
-302.807	174.205	0.216	0.313
-301.793	-200.000	-0.022	0.216
-300.778	-132.538	0.270	0.035
-299.764	-200.000	-0.017	0.371
-298.749	-111.732	-0.309	-0.063
-297.735	-124.199	0.307	-0.048
-296.720	76.708	0.137	-0.146
-295.705	-12.674	0.136	0.089
-294.691	-81.261	-0.381	0.126
-293.676	-71.338	-0.155	0.058
-292.662	-200.000	-0.034	-0.186
-291.647	-200.000	0.031	0.206
-290.632	800.000	-0.128	0.398
-289.618	-200.000	-0.011	0.228
-288.603	197.237	-0.086	-0.132
-287.589	-90.542	-0.306	-0.089
-286.574	800.000	0.031	-0.113
-285.559	486.162	0.024	0.054
-284.545	85.208	-0.361	0.398
-283.530	117.434	0.089	0.110
-282.516	-99.644	0.118	-0.030
-281.501	-94.478	-0.134	-0.037
-280.486	484.084	0.091	-0.209
-279.472	-18.932	0.181	-0.113
-278.457	-108.728	-0.138	0.030
-277.443	-40.791	-0.345	0.179
-276.428	137.760	-0.082	0.108
-275.413	-1.847	-0.367	-0.259
-274.399	-58.983	0.338	0.147
-273.384	218.025	0.116	0.186
-272.370	-200.000	-0.009	-0.205
-271.355	339.046	0.141	0.275
-270.340	335.340	-0.148	0.288
-269.326	130.526	0.032	0.041
-268.311	-112.668	-0.293	-0.059
-267.297	-110.571	0.237	-0.049
-266.282	-117.101	0.163	-0.030
-265.267	800.000	-0.044	-0.153
-264.253	-35.894	-0.397	-0.216
-263.238	-200.000	0.011	-0.314
-262.224	-200.000	0.011	0.063
-261.209	61.399	-0.135	-0.135
-260.195	54.421	0.057	-0.055
-259.180	-163.135	-0.139	-0.007
-258.165	800.000	-0.123	0.372
-257.151	-6.364	0.230	0.157
-256.136	-98.820	-0.090	-0.023
-255.122	54.297	-0.113	-0.110
-254.107	-52.676	0.299	-0.139
-253.092	-200.000	-0.061	0.278
-252.078	800.000	0.031	0.132
-251.063	-44.470	0.484	0.243
-250.049	363.523	-0.113	0.228
-249.034	-46.638	0.100	0.049
-248.019	24.618	0.208	-0.173
-247.005	-200.000	0.007	0.204
-245.990	12.267	0.178	0.138
-244.976	183.570	-0.109	-0.162
-243.961	-18.869	-0.356	-0.222
-242.946	294.739	-0.225	0.413
-241.932	42.973	-0.414	-0.379
-240.917	-200.000	-0.001	0.137
-239.903	-200.000	-0.029	-0.237
-238.888	-200.000	-0.016	-0.084
-237.873	-138.899	0.076	-0.008
-236.859	-2.704	-0.475	-0.333
-235.844	-200.000	0.055	0.248
-234.830	394.107	0.054	0.113
-233.815	26.892	-0.232	-0.195
-232.800	-92.996	0.347	0.097
-231.786	-61.767	-0.312	-0.131
-230.771	-200.000	0.033	0.355
-229.757	288.294	0.182	0.330
-228.742	-151.435	0.163	0.012
-227.727	-59.821	0.042	0.018
-226.713	35.271	-0.158	-0.139
-225.698	-200.000	0.006	0.150
-224.684	-114.006	0.105	0.020
-223.669	800.000	0.052	-0.177
-222.655	235.280	-0.203	-0.336
-221.640	194.384	0.170	-0.258
-220.625	79.481	-0.198	-0.213
-219.611	47.159	-0.258	0.241
-218.596	128.591	-0.202	0.258
-217.582	387.056	-0.076	-0.157
-216.567	-18.373	-0.216	0.135
-215.552	25.087	-0.196	0.163
-214.538	547.424	-0.079	0.190
-213.523	800.000	0.185	0.524
-212.509	-200.000	-0.019	-0.286
-211.494	-125.984	-0.315	0.048
-210.479	-200.000	0.088	-0.446
-209.465	800.000	0.049	0.150
-208.450	-28.206	-0.178	0.103
-207.436	-143.885	0.271	-0.026
-206.421	58.045	0.166	-0.162
-205.406	-25.896	0.399	-0.235
-204.392	-162.948	0.314	0.015
-203.377	800.000	0.104	-0.315
-202.363	480.354	-0.129	0.294
-201.348	800.000	-0.089	-0.261
-200.333	522.055	-0.065	-0.154
-199.319	-37.571	0.391	-0.209
-198.304	102.149	-0.198	0.232
-197.290	-137.527	0.168	0.019
-196.275	285.636	0.014	-0.025
-195.260	-72.288	-0.183	-0.068
-194.246	800.000	-0.043	-0.171
-193.231	333.579	-0.170	0.330
-192.217	-26.181	0.158	-0.093
-191.202	380.352	0.044	-0.091
-190.187	-36.228	-0.301	-0.163
-189.173	-54.032	0.182	-0.083
-188.158	245.357	-0.070	-0.117
-187.144	-200.000	-0.060	0.346
-186.129	273.749	0.105	0.187
-185.114	-132.880	-0.157	0.020
-184.100	800.000	-0.150	0.416
-183.085	141.210	0.111	0.147
-182.071	-161.064	-0.140	-0.007
-181.056	116.663	0.131	-0.161
-180.042	-20.423	-0.111	0.069
-179.027	-200.000	0.013	0.146
-178.012	-72.217	0.207	0.077
-176.998	183.583	-0.034	-0.051
-175.983	-200.000	0.063	0.567
-174.969	-200.000	-0.115	0.000
-173.954	167.218	0.159	-0.226
-172.939	-147.291	-0.125	-0.011
-171.925	-200.000	-0.008	0.291
-170.910	174.378	-0.108	0.156
-169.896	250.588	-0.073	-0.123
-168.881	69.824	0.092	-0.094
-167.866	800.000	-0.060	-0.248
-166.852	-156.970	0.404	-0.025
-165.837	-93.229	0.117	-0.032
-164.823	157.216	0.308	-0.426
-163.808	-66.316	-0.214	-0.085
-162.793	-93.090	0.223	-0.062
-161.779	800.000	0.048	0.180
-160.764	-200.000	-0.004	-0.204
-159.750	85.360	-0.267	-0.293
-158.735	-194.231	0.040	0.000
-157.720	-34.352	0.270	0.148
-156.706	5.410	0.270	-0.199
-155.691	800.000	0.029	-0.083
-154.677	197.369	0.142	0.217
-153.662	606.765	-0.096	-0.238
-152.647	-7.796	0.112	0.075
-151.633	-126.466	0.183	0.027
-150.618	-46.826	-0.258	0.126
-149.604	-141.950	-0.011	-0.001
-148.589	800.000	0.060	-0.237
-147.574	-122.987	0.036	0.006
-146.560	27.058	0.176	0.147
-145.545	123.638	0.188	-0.236
-144.531	96.862	0.019	-0.021
-143.516	-200.000	0.003	0.182
-142.502	-166.744	-0.234	0.010
-141.487	2.909	0.028	0.020
-140.472	-63.885	0.315	-0.129
-139.458	-200.000	0.050	-0.253
-138.443	-25.078	-0.483	-0.286
-137.429	-58.080	-0.128	-0.056
-136.414	109.290	0.131	0.157
-135.399	800.000	0.090	-0.311
-134.385	800.000	0.047	0.175
-133.370	-55.824	-0.442	0.197
-132.356	-95.250	-0.319	-0.086
-131.341	-128.165	-0.467	-0.067
-130.326	-63.113	-0.264	0.109
-129.312	-79.074	-0.298	0.101
-128.297	-200.000	0.061	-0.342
-127.283	91.286	0.188	-0.211
-126.268	-139.907	0.323	-0.034
-125.253	549.335	-0.025	0.060
-124.239	-8.239	-0.134	-0.090
-123.224	-120.080	0.117	0.020
-122.210	82.661	0.205	0.222
-121.195	-46.118	0.276	0.136
-120.180	14.548	0.093	-0.072
-119.166	-86.992	0.283	-0.086
-118.151	-97.706	0.199	-0.051
-117.137	-113.014	-0.170	-0.033
-116.122	-17.007	0.218	0.138
-115.107	800.000	-0.132	0.412
-114.093	108.294	-0.252	0.300
-113.078	-140.841	0.290	0.030
-112.064	-143.912	0.382	0.036
-111.049	-200.000	-0.022	-0.115
-110.034	-200.000	-0.069	-0.302
-109.020	141.629	0.157	0.208
-108.005	567.556	-0.055	0.134
-106.991	-200.000	0.003	-0.074
-105.976	577.684	0.078	-0.189
-104.962	72.859	-0.196	-0.204
-103.947	-44.567	0.213	-0.106
-102.932	-74.981	-0.503	-0.180
-101.918	279.844	0.065	-0.115
-100.903	-86.210	0.141	-0.043
-99.889	391.359	-0.091	0.188
-98.874	154.245	-0.158	0.216
-97.859	7.375	-0.266	-0.199
-96.845	800.000	0.104	0.316
-95.830	-200.000	0.055	0.274
-94.816	24.078	-0.207	0.170
-93.801	-200.000	0.025	0.251
-92.786	313.854	0.136	0.255
-91.772	-200.000	-0.048	-0.228
-90.757	800.000	-0.052	-0.193
-89.743	89.623	0.108	0.120
-88.728	-167.748	-0.220	-0.009
-87.713	-200.000	-0.038	0.536
-86.699	268.171	0.155	0.270
-85.684	0.366	0.086	0.061
-84.670	-152.768	0.203	0.014
-83.655	-200.000	-0.004	-0.056
-82.640	33.878	0.125	-0.108
-81.626	800.000	-0.059	0.184
-80.611	105.137	0.084	0.099
-79.597	198.454	-0.118	-0.180
-78.582	-141.780	0.309	-0.031
-77.567	15.071	-0.252	0.197
-76.553	79.852	-0.126	-0.135
-75.538	800.000	-0.039	0.131
-74.524	-10.199	0.286	0.189
-73.509	-200.000	0.038	-0.290
-72.494	-200.000	-0.004	0.267
-71.480	-17.045	0.272	0.171
-70.465	-78.413	0.032	-0.011
-69.451	-31.224	0.327	0.183
-68.436	-101.131	-0.142	0.035
-67.422	-60.930	0.123	0.052
-66.407	21.720	0.136	0.110
-65.392	44.477	0.034	0.031
-64.378	-200.000	-0.028	-0.373
-63.363	600.163	-0.015	0.038
-62.349	-200.000	-0.004	0.030
-61.334	-42.991	-0.854	-0.431
-60.319	0.529	0.250	-0.178
-59.305	-200.000	0.048	-0.778
-58.290	329.052	0.339	0.648
-57.276	800.000	0.576	1.717
-56.261	-200.000	75.643	543.581
-55.246	521.640	1349.159	3152.308
-54.232	138.085	2594.896	3386.661
-53.217	119.795	2255.240	2782.500
-52.203	55.114	1684.037	1619.991
-51.188	46.362	1401.145	1293.135
-50.173	42.585	1353.951	1226.534
-49.159	60.728	1388.693	1370.104
-48.144	68.532	1407.493	1436.545
-47.130	46.841	1369.545	1266.716
-46.115	42.672	1352.977	1225.985
-45.100	42.330	1348.668	1219.949
-44.086	42.066	1346.909	1216.707
-43.071	42.285	1343.540	1214.943
-42.057	42.202	1341.660	1212.691
-41.042	42.215	1339.638	1210.896
-40.027	42.224	1338.261	1209.655
-39.013	42.378	1335.810	1208.322
-37.998	42.250	1334.128	1205.983
-36.984	42.244	1332.978	1204.856
-35.969	42.423	1330.511	1203.655
-34.954	42.456	1328.537	1202.017
-33.940	42.519	1327.229	1201.168
-32.925	42.582	1325.843	1200.239
-31.911	42.459	1324.513	1198.252
-30.896	42.497	1322.607	1196.709
-29.881	42.479	1321.019	1195.114
-28.867	42.477	1319.750	1193.908
-27.852	42.414	1318.407	1192.271
-26.838	42.488	1316.466	1190.907
-25.823	42.457	1315.146	1189.484
-24.809	42.476	1313.865	1188.390
-23.794	42.571	1311.961	1187.183
-22.779	42.520	1310.749	1185.737
-21.765	42.423	1309.694	1184.164
-20.750	42.371	1308.339	1182.584
-19.736	42.458	1306.607	1181.484
-18.721	42.252	1306.167	1179.829
-17.706	42.295	1304.721	1178.727
-16.692	42.351	1303.590	1177.986
-15.677	42.339	1302.070	1176.497
-14.663	42.301	1300.824	1175.101
-13.648	42.348	1300.299	1174.856
-12.633	42.200	1299.382	1173.114
-11.619	42.362	1297.699	1172.498
-10.604	42.272	1296.939	1171.239
-9.590	42.315	1295.870	1170.479
-8.575	42.330	1294.805	1169.554
-7.560	42.281	1293.956	1168.456
-6.546	42.234	1293.058	1167.327
-5.531	42.185	1292.373	1166.376
-4.517	42.255	1291.139	1165.623
-3.502	42.289	1290.482	1165.179
-2.487	42.244	1289.703	1164.173
-1.473	42.303	1286.073	1161.186
-0.458	41.241	1270.117	1140.658
0.556	35.166	1250.099	1095.015
1.571	30.469	1252.527	1070.065
2.586	28.660	1266.894	1071.696
3.600	27.074	1256.129	1053.307
4.615	23.188	1185.838	972.961
5.629	17.341	1111.543	881.697
6.644	14.311	1089.454	848.678
7.659	14.008	1086.511	844.771
8.673	13.903	1085.410	843.309
9.688	13.829	1084.226	841.939
10.702	14.091	1082.928	842.182
11.717	17.532	1087.997	863.532
12.731	21.385	1091.827	886.062
13.746	20.062	1088.857	876.882
14.761	17.807	1084.983	862.300
15.775	16.452	1082.610	853.501
16.790	15.404	1080.679	846.615
17.804	14.573	1079.065	841.087
18.819	14.223	1077.594	838.106
19.834	13.823	1076.787	835.391
20.848	13.521	1075.599	832.879
21.863	13.427	1075.126	831.966
22.877	13.353	1073.956	830.612
23.892	13.170	1073.637	829.375
24.907	13.189	1072.941	828.860
25.921	13.214	1071.570	827.854
26.936	13.210	1070.413	826.866
27.950	13.217	1069.016	825.750
28.965	13.456	1066.830	825.176
29.980	13.546	1065.511	824.531
30.994	13.429	1064.820	823.341
32.009	13.451	1063.627	822.456
33.023	13.565	1062.283	821.910
34.038	13.359	1061.627	820.307
35.053	13.519	1059.942	819.727
36.067	13.480	1059.280	818.950
37.082	13.333	1058.916	817.868
38.096	13.401	1058.325	817.677
39.111	13.383	1057.529	816.897
40.126	13.417	1055.538	815.458
41.140	13.322	1054.701	814.272
42.155	13.241	1053.848	813.139
43.169	13.315	1052.169	812.135
44.184	13.133	1051.419	810.594
45.199	13.224	1050.367	810.155
46.213	13.092	1049.559	808.817
47.228	13.232	1048.522	808.629
48.242	13.421	1047.357	808.581
49.257	13.367	1045.948	807.161
50.271	13.293	1045.556	806.425
51.286	13.346	1045.025	806.205
52.301	13.270	1043.961	804.938
53.315	13.272	1042.835	804.013
54.330	13.247	1041.703	802.944
55.344	13.197	1040.804	801.940
56.359	13.383	1039.711	801.928
57.374	13.274	1038.921	800.718
58.388	13.230	1037.820	799.586
59.403	13.167	1037.317	798.822
60.417	13.242	1035.763	797.918
61.432	13.149	1035.289	797.033
62.447	13.058	1034.656	796.039
63.461	13.009	1034.028	795.250
64.476	13.170	1032.707	794.937
65.490	13.088	1032.577	794.371
66.505	13.243	1031.354	794.106
67.520	13.105	1030.968	793.077
68.534	13.247	1029.788	792.778
69.549	13.104	1029.181	791.557
70.563	13.145	1028.389	791.073
71.578	13.133	1027.559	790.309
72.593	13.085	1026.750	789.387
73.607	13.012	1026.477	788.756
74.622	13.090	1025.738	788.490
75.636	13.118	1025.020	788.003
76.651	13.088	1024.296	787.232
77.666	13.145	1023.722	786.993
78.680	13.184	1023.289	786.777
79.695	13.237	1022.453	786.319
80.709	13.076	1022.504	785.519
81.724	13.220	1021.288	785.202
82.739	13.229	1020.309	784.423
83.753	13.383	1019.688	784.604
84.768	13.477	1018.686	784.212
85.782	13.446	1017.976	783.446
86.797	13.438	1016.894	782.508
87.812	13.286	1016.233	781.214
88.826	13.402	1014.980	780.729
89.841	13.464	1014.269	780.406
90.855	13.583	1013.018	779.933
91.870	13.546	1012.334	779.164
92.884	13.405	1011.395	777.706
93.899	13.401	1010.937	777.270
94.914	13.624	1009.830	777.394
95.928	13.538	1009.071	776.339
96.943	13.468	1008.091	775.187
97.957	13.405	1007.609	774.456
98.972	13.420	1006.531	773.626
99.987	13.506	1005.636	773.274
101.001	13.341	1005.042	771.977
102.016	13.387	1003.554	770.981
103.030	13.476	1002.721	770.685
104.045	13.461	1002.237	770.175
105.060	13.357	1001.253	768.868
106.074	13.453	999.925	768.228
107.089	13.299	999.102	766.815
108.103	13.098	998.859	765.628
109.118	13.286	997.711	765.551
110.133	13.268	996.500	764.470
111.147	13.160	995.922	763.457
112.162	13.319	994.925	763.361
113.176	13.265	994.039	762.365
114.191	13.382	993.118	762.132
115.206	13.437	992.431	761.791
116.220	13.388	991.529	760.804
117.235	13.395	990.752	760.170
118.249	13.332	989.898	759.161
119.264	13.382	988.928	758.577
120.279	13.313	988.055	757.526
121.293	13.273	987.247	756.655
122.308	13.273	986.229	755.807
123.322	13.293	985.159	755.012
124.337	13.275	984.506	754.365
125.352	13.276	983.457	753.500
126.366	13.359	982.252	752.884
127.381	13.356	981.142	751.956
128.395	13.341	980.206	751.102
129.410	13.382	979.455	750.647
130.424	13.400	978.729	750.106
131.439	13.456	977.949	749.697
132.454	13.364	977.375	748.773
133.468	13.436	976.591	748.433
134.483	13.513	975.592	747.946
135.497	13.410	974.960	746.932
136.512	13.439	973.980	746.248
137.527	13.561	973.044	746.013
138.541	13.526	972.455	745.338
139.556	13.551	971.653	744.767
140.570	13.625	970.542	744.183
141.585	13.575	970.118	743.569
142.600	13.688	968.840	743.027
143.614	13.686	968.089	742.381
144.629	13.633	967.692	741.772
145.643	13.740	966.753	741.462
146.658	13.648	965.900	740.336
147.673	13.663	964.261	739.078
148.687	13.650	963.571	738.426
149.702	13.448	963.055	737.066
150.716	13.367	962.351	736.102
151.731	13.452	961.645	735.873
152.746	13.441	960.654	735.002
153.760	13.490	959.917	734.589
154.775	13.602	959.391	734.619
155.789	13.607	958.645	734.006
156.804	13.475	958.295	733.090
157.819	13.790	956.845	733.307
158.833	13.741	956.759	732.960
159.848	13.706	955.900	732.080
160.862	13.829	954.688	731.631
161.877	13.638	953.636	729.918
162.892	13.502	953.089	728.838
163.906	13.616	951.956	728.408
164.921	13.537	951.268	727.472
165.935	13.586	950.370	726.934
166.950	13.573	949.375	726.051
167.964	13.801	948.115	726.020
168.979	13.571	947.382	724.389
169.994	13.645	946.469	723.953
171.008	13.750	946.312	724.226
172.023	13.671	945.411	723.127
173.037	13.865	944.399	723.136
174.052	13.878	944.007	722.826
175.067	13.762	943.042	721.522
176.081	13.744	942.706	721.122
177.096	13.755	942.234	720.745
178.110	13.784	941.435	720.196
179.125	13.720	940.836	719.396
180.140	13.772	940.250	719.108
181.154	13.756	940.335	719.040
182.169	13.963	939.081	718.913
183.183	13.881	938.884	718.344
184.198	13.854	937.858	717.380
185.213	13.917	937.493	717.308
186.227	13.991	936.329	716.675
187.242	13.952	935.794	716.032
188.256	13.935	935.332	715.544
189.271	14.015	934.453	715.152
190.286	13.860	933.572	713.750
191.300	13.674	933.149	712.560
192.315	13.649	932.205	711.668
193.329	13.767	931.837	711.834
194.344	13.933	930.377	711.364
195.359	13.875	930.333	711.023
196.373	13.866	929.909	710.597
197.388	14.106	929.362	711.141
198.402	14.143	928.729	710.753
199.417	14.102	928.523	710.355
200.432	14.213	927.967	710.340
201.446	14.301	927.121	710.008
202.461	14.166	926.527	708.914
203.475	14.333	926.287	709.378
204.490	14.187	925.398	708.012
205.504	14.224	924.319	707.280
206.519	14.158	924.011	706.705
207.534	14.135	923.293	705.994
208.548	14.252	922.314	705.678
209.563	14.214	921.818	705.078
210.577	14.293	921.036	704.751
211.592	14.263	920.596	704.225
212.607	14.369	919.523	703.788
213.621	14.293	918.978	702.988
214.636	14.327	918.079	702.384
215.650	14.302	917.719	701.939
216.665	14.296	916.959	701.271
217.680	14.406	916.100	701.014
218.694	14.457	915.601	700.783
219.709	14.305	914.929	699.571
220.723	14.463	914.099	699.539
221.738	14.418	913.490	698.819
222.753	14.549	912.689	698.695
223.767	14.330	912.570	697.623
224.782	14.519	911.735	697.714
225.796	14.585	911.196	697.516
226.811	14.564	910.246	696.638
227.826	14.616	909.368	696.122
228.840	14.433	908.906	694.945
229.855	14.560	908.020	694.737
230.869	14.380	907.597	693.599
231.884	14.465	907.109	693.520
232.899	14.594	905.511	692.774
233.913	14.506	905.059	691.999
234.928	14.478	904.362	691.289
235.942	14.429	904.269	690.954
236.957	14.353	903.824	690.239
237.972	14.550	903.271	690.571
238.986	14.536	902.157	689.598
240.001	14.471	901.589	688.838
241.015	14.579	900.989	688.764
242.030	14.531	900.383	688.041
243.045	14.515	900.156	687.740
244.059	14.548	899.355	687.202
245.074	14.641	898.772	687.080
246.088	14.766	897.682	686.700
247.103	14.670	897.571	686.160
248.117	14.694	897.038	685.789
249.132	14.866	896.437	685.976
250.147	14.935	895.408	685.410
251.161	14.913	895.241	685.131
252.176	14.935	894.437	684.545
253.190	15.027	893.552	684.184
254.205	14.876	893.275	683.294
255.220	15.015	892.209	682.985
256.234	15.087	891.692	682.825
257.249	15.258	890.816	682.790
258.263	15.212	890.379	682.207
259.278	15.036	889.922	681.079
260.293	15.035	889.368	680.589
261.307	15.100	888.829	680.381
262.322	15.193	887.892	679.981
263.336	15.301	887.059	679.723
264.351	15.173	886.221	678.501
265.366	15.159	885.889	678.130
266.380	15.258	885.019	677.806
267.395	15.198	884.540	677.136
268.409	15.205	883.546	676.342
269.424	15.248	882.957	676.008
270.439	15.333	882.173	675.690
271.453	15.224	881.646	674.785
272.468	15.327	880.913	674.580
273.482	15.010	880.886	673.225
274.497	15.229	880.076	673.425
275.512	15.285	879.401	673.077
276.526	15.318	878.936	672.792
277.541	15.309	878.316	672.220
278.555	15.465	877.889	672.459
279.570	15.294	877.227	671.210
280.585	15.328	876.662	670.852
281.599	15.359	875.641	670.136
282.614	15.315	874.972	669.388
283.628	15.404	873.941	668.897
284.643	15.475	873.348	668.667
285.657	15.399	872.877	667.943
286.672	15.416	872.369	667.562
287.687	15.452	871.720	667.152
288.701	15.391	871.473	666.662
289.716	15.543	870.613	666.545
290.730	15.498	870.035	665.869
291.745	15.478	869.312	665.174
292.760	15.616	868.781	665.257
293.774	15.610	868.318	664.818
294.789	15.560	867.327	663.806
295.803	15.577	867.096	663.637
296.818	15.549	866.513	663.021
297.833	15.610	865.583	662.490
298.847	15.570	864.988	661.817
299.862	15.658	864.336	661.609
300.876	15.714	863.678	661.265
301.891	15.837	863.259	661.373
302.906	15.756	862.749	660.604
303.920	15.898	861.995	660.523
304.935	15.791	862.133	660.152
305.949	15.998	861.119	660.127
306.964	15.814	860.636	658.980
307.979	15.714	860.206	658.199
308.993	15.944	859.366	658.398
310.008	15.872	858.620	657.486
311.022	15.836	858.132	656.916
312.037	16.090	856.787	656.816
313.052	15.951	856.569	656.048
314.066	15.793	856.169	655.073
315.081	15.732	855.962	654.617
316.095	15.815	854.965	654.120
317.110	15.743	854.436	653.376
318.125	15.737	854.316	653.203
319.139	15.682	853.866	652.588
320.154	15.809	853.144	652.473
321.168	15.900	853.009	652.663
322.183	15.835	852.108	651.664
323.197	15.877	851.422	651.244
324.212	15.853	851.013	650.781
325.227	15.985	850.279	650.673
326.241	15.914	849.660	649.869
327.256	15.950	849.471	649.804
328.270	15.994	848.896	649.478
329.285	16.010	848.132	648.897
330.300	15.937	847.418	648.010
331.314	16.023	846.795	647.808
332.329	15.996	846.447	647.380
333.343	15.997	846.485	647.358
334.358	16.029	845.918	646.989
335.373	16.189	845.565	647.275
336.387	16.162	845.149	646.797
337.402	16.008	845.173	646.168
338.416	16.271	844.562	646.650
339.431	16.298	843.910	646.198
340.446	16.225	843.546	645.581
341.460	16.237	843.178	645.289
342.475	16.372	842.939	645.565
343.489	16.301	842.477	644.883
344.504	16.298	842.097	644.524
345.519	16.499	841.406	644.702
346.533	16.501	840.791	644.183
347.548	16.374	840.162	643.162
348.562	16.423	839.439	642.735
349.577	16.342	839.107	642.118
350.592	16.305	838.445	641.415
351.606	16.389	837.823	641.200
352.621	16.342	836.958	640.303
353.635	16.351	836.609	640.012
354.650	16.446	835.753	639.661
355.665	16.483	834.939	639.120
356.679	16.486	834.470	638.719
357.694	16.510	834.004	638.393
358.708	16.582	833.254	638.035
359.723	16.536	832.594	637.302
360.738	16.597	831.894	636.940
361.752	16.537	831.534	636.381
362.767	16.635	831.080	636.347
363.781	16.701	830.658	636.213
364.796	16.774	830.060	635.975
365.810	16.752	829.638	635.512
366.825	16.614	829.698	634.984
367.840	16.666	829.140	634.696
368.854	16.778	828.429	634.513
369.869	16.780	827.953	634.100
370.883	16.753	827.626	633.695
371.898	16.772	827.329	633.483
372.913	16.839	827.221	633.592
373.927	16.874	826.573	633.172
374.942	16.890	825.548	632.389
375.956	16.811	825.214	631.783
376.971	16.973	825.091	632.238
377.986	16.959	824.524	631.694
379.000	17.065	823.960	631.600
380.015	17.075	823.610	631.312
381.029	17.153	822.737	630.878
382.044	17.010	822.347	629.995
383.059	17.047	821.627	629.523
384.073	16.984	820.798	628.600
385.088	17.072	820.555	628.682
386.102	16.934	820.115	627.780
387.117	16.960	819.436	627.301
388.132	17.011	819.121	627.191
389.146	17.045	818.486	626.776
390.161	16.934	818.330	626.191
391.175	17.083	817.486	626.040
392.190	17.174	816.552	625.603
393.205	17.084	816.445	625.135
394.219	17.108	816.252	625.021
395.234	17.065	816.036	624.643
396.248	17.145	814.892	624.003
397.263	17.060	814.540	623.368
398.278	17.108	814.257	623.271
399.292	16.953	814.466	622.807
400.307	17.118	813.424	622.562
401.321	17.078	812.973	622.015
402.336	17.239	812.495	622.184
403.350	17.067	812.072	621.174
404.365	17.260	811.473	621.367
405.380	17.287	811.147	621.161
406.394	17.268	810.788	620.762
407.409	17.305	810.397	620.542
408.423	17.455	809.803	620.581
409.438	17.433	809.551	620.253
410.453	17.518	808.924	620.024
411.467	17.545	808.662	619.867
412.482	17.443	808.355	619.207
413.496	17.545	807.599	618.944
414.511	17.701	807.442	619.336
415.526	17.613	806.722	618.410
416.540	17.392	806.701	617.537
417.555	17.509	806.142	617.477
418.569	17.489	805.839	617.118
419.584	17.607	805.246	617.036
420.599	17.521	804.760	616.298
421.613	87.357	1255.841	1338.578
422.628	74.511	1321.608	1338.703
