DTS Sentinel unit serial number:	SN413079Multiplexer serial number:	ORYXHardware model number:	OX4-SRSoftware version number:	ORYX F/W v4.00 Oryx Data Collector v3.7.2.0data status	okinstallation	princeton_trtdifferential loss correction	single-endedforward channel	channel 1reverse channel	N/Adate	2019/09/16time	16:22:35forward acquisition time	60.00reverse acquisition time	0.00gamma	496.2192k internal	0.2294k external	0.2294temperature offset calibration	0.9961default loss term (dB/km)	0.3790temperature slope calibration	1.0000multiplexer offset coefficient	1.0000multiplexer slope coefficient	1.0000fibre end	0.00T internal ref (°C)	40.44T ext. ref 1 (°C)	15.04T ext. ref 2 (°C)	34.37length (m)	temperature (°C)	Stokes	anti-Stokes-747.200	230.523	-0.065	0.108
-746.185	92.581	0.099	0.115
-745.171	-112.388	0.244	0.050
-744.156	-101.523	-0.110	0.027
-743.142	4.064	0.095	-0.071
-742.127	-70.903	-0.173	0.067
-741.112	71.776	0.037	0.039
-740.098	-62.146	-0.359	0.153
-739.083	800.000	-0.086	0.257
-738.069	-84.842	-0.063	0.020
-737.054	-129.076	-0.171	0.024
-736.039	-117.021	-0.066	-0.012
-735.025	65.422	-0.203	-0.210
-734.010	-200.000	0.043	-0.296
-732.996	683.955	-0.090	-0.241
-731.981	-200.000	-0.041	-0.201
-730.966	-200.000	-0.025	0.468
-729.952	-200.000	0.008	-0.138
-728.937	-120.744	-0.315	0.054
-727.923	43.559	0.133	-0.124
-726.908	599.190	-0.086	-0.217
-725.894	38.854	-0.105	0.096
-724.879	16.627	-0.256	-0.207
-723.864	-105.130	-0.048	-0.011
-722.850	-5.046	-0.130	0.091
-721.835	-88.194	-0.164	0.050
-720.821	107.911	-0.310	0.377
-719.806	-200.000	0.009	-0.046
-718.791	-50.912	0.055	0.026
-717.777	-36.513	-0.335	-0.184
-716.762	103.658	0.022	0.027
-715.748	-75.461	0.027	0.010
-714.733	-150.989	0.269	0.021
-713.718	49.751	-0.251	-0.242
-712.704	-23.316	0.457	-0.281
-711.689	-76.252	-0.023	0.008
-710.675	-200.000	0.052	0.000
-709.660	-114.683	0.130	0.025
-708.645	-84.531	0.227	-0.073
-707.631	-200.000	0.008	-0.123
-706.616	-53.931	-0.217	-0.101
-705.602	-200.000	-0.008	-0.157
-704.587	286.786	0.142	-0.261
-703.572	800.000	-0.013	0.057
-702.558	121.725	-0.184	-0.235
-701.543	-7.713	0.381	0.263
-700.529	-24.923	0.063	-0.038
-699.514	12.558	0.181	-0.142
-698.499	-85.925	0.237	0.075
-697.485	-200.000	0.011	-0.169
-696.470	-123.989	-0.168	0.027
-695.456	-55.148	0.295	-0.136
-694.441	-200.000	-0.015	-0.096
-693.426	274.642	-0.243	-0.440
-692.412	800.000	-0.099	-0.305
-691.397	-148.361	-0.182	0.015
-690.383	800.000	0.046	-0.174
-689.368	-51.579	0.217	0.103
-688.354	-134.963	0.078	-0.010
-687.339	800.000	0.092	0.297
-686.324	367.513	-0.047	-0.096
-685.310	294.967	0.043	0.080
-684.295	-61.300	0.024	0.010
-683.281	294.270	0.182	-0.339
-682.266	-85.878	0.352	-0.111
-681.251	-104.930	0.190	0.045
-680.237	-66.374	-0.127	-0.051
-679.222	29.564	0.071	0.061
-678.208	-200.000	0.013	-0.250
-677.193	800.000	-0.130	-0.528
-676.178	-137.495	0.185	-0.021
-675.164	124.234	0.088	-0.113
-674.149	-108.342	0.239	0.053
-673.135	-56.826	-0.234	-0.105
-672.120	800.000	-0.044	-0.185
-671.105	-200.000	0.012	-0.069
-670.091	260.972	-0.028	0.049
-669.076	140.571	-0.075	-0.102
-668.062	-172.007	-0.133	0.004
-667.047	800.000	-0.011	-0.043
-666.032	97.454	0.220	0.258
-665.018	800.000	-0.099	-0.375
-664.003	14.793	-0.297	0.237
-662.989	-200.000	0.023	0.227
-661.974	97.215	0.199	-0.233
-660.959	-127.635	-0.523	0.077
-659.945	-74.876	-0.142	0.052
-658.930	-199.103	0.235	0.001
-657.916	270.004	0.076	-0.137
-656.901	800.000	0.084	0.277
-655.886	56.495	-0.129	0.128
-654.872	560.951	0.043	-0.106
-653.857	-200.000	-0.011	-0.352
-652.843	-200.000	0.002	0.176
-651.828	800.000	0.071	0.258
-650.814	-1.862	0.220	0.158
-649.799	-98.180	-0.579	-0.152
-648.784	138.020	0.105	0.141
-647.770	217.498	-0.130	0.211
-646.755	-64.537	-0.170	-0.070
-645.741	800.000	0.047	-0.147
-644.726	800.000	-0.059	0.188
-643.711	-200.000	0.001	0.270
-642.697	-137.921	-0.232	-0.026
-641.682	-200.000	-0.020	0.181
-640.668	-200.000	-0.001	0.073
-639.653	-200.000	-0.053	0.276
-638.638	365.885	-0.113	-0.233
-637.624	10.337	0.413	-0.320
-636.609	800.000	-0.017	-0.049
-635.595	800.000	0.029	-0.124
-634.580	81.917	-0.166	-0.183
-633.565	251.872	-0.063	0.109
-632.551	800.000	0.060	-0.259
-631.536	-161.926	0.053	0.003
-630.522	-36.642	-0.098	-0.053
-629.507	241.198	-0.097	-0.165
-628.492	800.000	0.082	0.350
-627.478	378.894	0.104	-0.216
-626.463	-200.000	0.068	-0.336
-625.449	-7.056	0.160	0.111
-624.434	-181.298	0.109	0.002
-623.419	800.000	0.100	0.302
-622.405	-41.049	0.092	-0.048
-621.390	368.748	0.093	0.192
-620.376	-200.000	-0.009	-0.054
-619.361	33.818	0.146	0.129
-618.346	23.937	-0.280	-0.235
-617.332	677.508	0.129	0.341
-616.317	-100.970	0.060	-0.015
-615.303	-72.245	-0.044	-0.017
-614.288	-200.000	-0.012	-0.130
-613.273	-200.000	0.018	0.155
-612.259	-200.000	-0.001	-0.135
-611.244	-200.000	0.011	-0.234
-610.230	-200.000	0.020	-0.119
-609.215	-133.480	-0.080	-0.010
-608.201	278.469	0.053	-0.096
-607.186	-98.006	-0.303	-0.080
-606.171	-92.218	-0.429	-0.123
-605.157	-28.860	-0.079	0.046
-604.142	-133.311	0.185	-0.024
-603.128	-40.712	-0.084	-0.044
-602.113	310.073	0.170	0.323
-601.098	-28.544	-0.204	0.120
-600.084	-77.972	-0.248	-0.087
-599.069	152.372	0.101	-0.140
-598.055	-200.000	0.003	0.108
-597.040	-148.126	-0.401	-0.034
-596.025	-113.683	0.241	0.048
-595.011	800.000	0.093	-0.337
-593.996	6.906	-0.157	0.119
-592.982	116.205	0.108	0.135
-591.967	30.217	0.280	0.243
-590.952	-77.136	0.294	-0.104
-589.938	-130.126	-0.110	0.015
-588.923	-105.131	0.176	0.041
-587.909	193.024	-0.115	0.176
-586.894	-200.000	0.004	-0.065
-585.879	79.188	-0.089	0.097
-584.865	-163.180	0.096	-0.005
-583.850	-168.260	0.184	0.007
-582.836	-152.706	-0.200	0.014
-581.821	-7.953	-0.184	0.126
-580.806	443.356	0.201	-0.449
-579.792	107.937	-0.155	-0.188
-578.777	-192.822	-0.185	0.002
-577.763	-200.000	-0.007	0.081
-576.748	67.066	0.212	0.220
-575.733	-13.589	0.156	0.103
-574.719	194.251	0.079	0.122
-573.704	168.029	0.112	0.162
-572.690	296.367	-0.085	0.159
-571.675	-200.000	-0.003	-0.243
-570.661	-200.000	-0.013	0.109
-569.646	64.099	0.201	-0.206
-568.631	-144.858	-0.114	-0.011
-567.617	-142.422	-0.189	-0.019
-566.602	-100.377	-0.096	-0.024
-565.588	110.324	0.228	0.278
-564.573	173.882	-0.168	-0.246
-563.558	-137.562	-0.364	-0.042
-562.544	-200.000	0.013	-0.260
-561.529	-116.389	0.238	-0.045
-560.515	508.654	0.015	0.036
-559.500	25.447	-0.136	0.115
-558.485	-200.000	-0.013	0.063
-557.471	65.274	-0.099	-0.102
-556.456	-25.408	0.090	-0.054
-555.442	-139.367	-0.276	-0.030
-554.427	-129.896	0.189	0.026
-553.412	-92.984	-0.296	-0.084
-552.398	-200.000	-0.154	0.000
-551.383	-59.913	-0.072	0.031
-550.369	800.000	-0.032	0.100
-549.354	-156.740	-0.234	0.015
-548.339	221.132	-0.105	0.170
-547.325	113.703	0.054	-0.067
-546.310	-104.686	-0.305	-0.071
-545.296	-15.278	0.017	-0.011
-544.281	-200.000	-0.040	-0.229
-543.266	-200.000	0.022	0.135
-542.252	800.000	0.092	-0.286
-541.237	800.000	-0.019	0.084
-540.223	112.407	-0.254	-0.311
-539.208	-4.817	0.404	-0.282
-538.193	106.892	-0.124	-0.149
-537.179	362.669	-0.115	-0.234
-536.164	-104.337	0.112	0.026
-535.150	395.954	0.053	-0.113
-534.135	-24.235	-0.223	-0.135
-533.121	66.050	0.092	0.095
-532.106	179.474	-0.032	-0.048
-531.091	-182.390	0.129	-0.002
-530.077	156.667	0.123	-0.173
-529.062	-68.549	0.252	0.099
-528.048	381.268	0.027	0.056
-527.033	84.521	0.216	0.239
-526.018	337.970	0.050	0.098
-525.004	-95.496	-0.211	0.057
-523.989	87.973	-0.153	0.172
-522.975	316.089	-0.077	-0.147
-521.960	12.712	-0.193	-0.151
-520.945	800.000	0.124	0.475
-519.931	-55.038	-0.235	0.107
-518.916	125.847	0.021	-0.027
-517.902	621.836	-0.044	0.112
-516.887	-27.121	-0.073	0.043
-515.872	155.089	-0.090	-0.126
-514.858	-154.111	0.354	0.024
-513.843	-36.132	-0.056	0.031
-512.829	800.000	0.062	0.226
-511.814	163.304	-0.212	-0.303
-510.799	78.437	-0.159	0.172
-509.785	-181.008	0.113	-0.002
-508.770	21.343	-0.161	-0.132
-507.756	169.157	-0.071	0.102
-506.741	-127.282	-0.117	-0.017
-505.726	147.473	0.076	-0.104
-504.712	800.000	0.039	-0.130
-503.697	103.227	0.075	-0.089
-502.683	70.200	-0.017	0.018
-501.668	-200.000	0.026	0.173
-500.653	288.076	-0.021	-0.039
-499.639	-200.000	0.029	-0.128
-498.624	800.000	0.061	0.250
-497.610	328.259	-0.132	0.256
-496.595	96.293	-0.049	-0.056
-495.581	-200.000	-0.007	0.120
-494.566	152.052	-0.097	-0.134
-493.551	-200.000	-0.001	0.069
-492.537	81.599	-0.093	-0.102
-491.522	-200.000	0.057	0.349
-490.508	239.648	-0.041	0.069
-489.493	-60.825	0.185	-0.079
-488.478	-200.000	0.018	-0.159
-487.464	52.345	0.058	0.056
-486.449	-200.000	-0.043	-0.221
-485.435	35.592	0.127	-0.113
-484.420	-143.015	0.157	0.015
-483.405	583.087	0.098	0.244
-482.391	-200.000	0.016	0.298
-481.376	61.670	-0.142	-0.143
-480.362	-124.509	-0.175	0.028
-479.347	125.973	-0.156	-0.200
-478.332	-200.000	0.009	-0.091
-477.318	-61.190	-0.141	-0.060
-476.303	203.309	-0.081	0.127
-475.289	80.236	0.041	-0.045
-474.274	800.000	-0.068	-0.276
-473.259	-200.000	-0.035	-0.182
-472.245	-200.000	-0.027	0.121
-471.230	109.309	-0.113	0.137
-470.216	800.000	-0.037	-0.128
-469.201	374.726	0.097	-0.199
-468.186	266.205	0.045	-0.080
-467.172	68.413	-0.206	-0.214
-466.157	1.699	-0.027	0.020
-465.143	-200.000	-0.030	0.405
-464.128	-200.000	-0.026	-0.232
-463.113	68.031	0.155	-0.160
-462.099	-200.000	0.016	0.341
-461.084	118.610	0.074	-0.093
-460.070	45.923	-0.247	0.231
-459.055	-200.000	0.040	-0.279
-458.040	368.457	-0.076	0.154
-457.026	800.000	-0.110	0.322
-456.011	94.060	0.071	-0.082
-454.997	-5.545	-0.068	0.047
-453.982	-200.000	0.001	0.005
-452.968	-200.000	0.016	-0.286
-451.953	-200.000	0.061	-0.378
-450.938	-200.000	-0.101	-0.491
-449.924	67.537	-0.258	0.266
-448.909	-158.977	0.366	-0.021
-447.895	-14.490	-0.244	0.159
-446.880	-200.000	0.003	-0.112
-445.865	800.000	-0.083	0.260
-444.851	-108.324	-0.198	-0.043
-443.836	267.872	0.043	-0.076
-442.822	800.000	-0.015	0.061
-441.807	299.364	-0.130	-0.243
-440.792	-176.946	0.347	-0.009
-439.778	-171.264	0.077	0.003
-438.763	-98.933	0.322	-0.083
-437.749	-44.586	-0.014	0.007
-436.734	15.114	0.152	-0.120
-435.719	-51.295	-0.071	-0.033
-434.705	61.015	-0.170	-0.170
-433.690	800.000	-0.054	0.197
-432.676	-39.502	0.117	0.062
-431.661	-5.633	-0.189	0.131
-430.646	-81.705	0.085	0.028
-429.632	-148.638	0.067	-0.006
-428.617	355.010	0.113	0.228
-427.603	280.613	0.140	0.253
-426.588	65.740	0.275	-0.282
-425.573	19.010	0.131	-0.106
-424.559	-200.000	-0.034	0.204
-423.544	-200.000	-0.052	0.286
-422.530	98.778	-0.173	0.201
-421.515	425.497	0.052	0.114
-420.500	-160.886	-0.191	0.010
-419.486	-200.000	-0.049	0.330
-418.471	-105.913	-0.126	0.029
-417.457	77.580	0.204	0.220
-416.442	371.021	0.195	0.400
-415.428	221.824	-0.158	0.257
-414.413	-200.000	-0.028	0.203
-413.398	28.346	-0.220	0.188
-412.384	333.951	-0.082	0.161
-411.369	221.720	-0.079	0.129
-410.355	-54.882	-0.425	0.194
-409.340	800.000	-0.044	0.157
-408.325	-37.407	-0.318	0.172
-407.311	-30.803	0.316	-0.180
-406.296	800.000	0.090	0.319
-405.282	-200.000	-0.050	0.385
-404.267	800.000	0.065	-0.235
-403.252	-200.000	-0.009	-0.145
-402.238	-200.000	-0.043	0.332
-401.223	-57.272	0.228	0.101
-400.209	-18.274	0.053	0.033
-399.194	453.210	0.079	0.176
-398.179	436.241	0.065	0.143
-397.165	-83.935	-0.268	-0.086
-396.150	-200.000	0.013	0.285
-395.136	-200.000	0.052	0.332
-394.121	-200.000	-0.004	-0.286
-393.106	-200.000	0.054	-0.532
-392.092	-200.000	-0.009	0.108
-391.077	-200.000	0.003	-0.052
-390.063	57.867	0.211	-0.209
-389.048	-29.981	-0.129	-0.074
-388.033	170.835	0.061	-0.088
-387.019	-98.413	-0.335	0.086
-386.004	164.873	0.070	-0.100
-384.990	128.249	0.179	-0.229
-383.975	16.359	0.109	0.087
-382.960	800.000	0.107	0.422
-381.946	-22.768	-0.181	0.110
-380.931	160.578	0.157	0.221
-379.917	58.838	-0.095	-0.094
-378.902	245.298	-0.201	0.341
-377.888	-125.291	0.128	-0.020
-376.873	-200.000	-0.077	-0.349
-375.858	800.000	-0.016	0.044
-374.844	63.741	-0.156	0.158
-373.829	34.931	-0.056	0.050
-372.815	-22.326	-0.127	0.077
-371.800	-139.743	0.192	0.021
-370.785	-200.000	-0.034	-0.222
-369.771	342.504	0.077	-0.151
-368.756	164.614	0.185	-0.262
-367.742	133.909	-0.133	-0.174
-366.727	-127.778	-0.098	-0.014
-365.712	-116.874	0.149	-0.027
-364.698	59.364	0.039	0.039
-363.683	-63.996	-0.041	-0.017
-362.669	-140.240	-0.188	0.020
-361.654	-109.433	0.099	-0.021
-360.639	-6.884	0.194	0.133
-359.625	-76.109	0.300	0.107
-358.610	-25.684	0.581	0.345
-357.596	-115.480	0.310	-0.059
-356.581	217.389	-0.082	-0.132
-355.566	53.865	0.080	0.077
-354.552	307.498	-0.087	0.162
-353.537	78.605	-0.299	-0.322
-352.523	392.933	0.128	-0.269
-351.508	-200.000	-0.034	0.159
-350.493	254.245	-0.153	0.264
-349.479	800.000	0.090	-0.254
-348.464	-91.922	0.330	-0.094
-347.450	-57.560	0.295	-0.130
-346.435	800.000	0.068	0.295
-345.420	173.209	0.222	-0.322
-344.406	-21.325	0.200	-0.123
-343.391	-82.604	-0.229	0.075
-342.377	-200.000	-0.025	0.169
-341.362	-200.000	0.039	0.394
-340.348	-200.000	-0.044	-0.225
-339.333	-122.902	-0.286	0.046
-338.318	-200.000	-0.005	0.213
-337.304	-106.417	0.176	-0.040
-336.289	-200.000	0.006	-0.134
-335.275	-117.525	0.144	0.026
-334.260	-64.995	-0.252	-0.102
-333.245	225.821	-0.054	0.087
-332.231	338.641	-0.072	-0.141
-331.216	0.791	0.136	0.098
-330.202	-200.000	0.040	-0.515
-329.187	35.283	-0.178	-0.157
-328.172	-12.202	0.168	0.111
-327.158	-38.651	-0.301	-0.160
-326.143	109.346	0.120	-0.145
-325.129	-51.009	0.524	-0.248
-324.114	227.025	0.114	-0.187
-323.099	149.919	-0.059	0.081
-322.085	95.992	-0.123	0.141
-321.070	159.557	0.139	0.194
-320.056	800.000	0.074	0.241
-319.041	-200.000	0.006	-0.160
-318.026	83.935	0.108	0.118
-317.012	46.748	0.044	-0.041
-315.997	700.826	0.075	-0.198
-314.983	-200.000	-0.006	0.429
-313.968	375.546	-0.042	-0.087
-312.953	-200.000	0.083	0.375
-311.939	64.072	-0.242	-0.245
-310.924	753.807	0.052	-0.142
-309.910	-200.000	-0.038	-0.252
-308.895	-134.974	0.116	-0.014
-307.880	800.000	-0.014	0.062
-306.866	247.454	0.062	0.105
-305.851	-161.528	-0.208	-0.011
-304.837	-40.655	-0.080	-0.042
-303.822	-200.000	-0.044	0.233
-302.807	175.846	0.187	0.273
-301.793	-200.000	-0.019	0.202
-300.778	-200.000	0.012	-0.067
-299.764	-21.874	0.264	-0.161
-298.749	-84.272	-0.290	-0.092
-297.735	544.859	0.057	-0.137
-296.720	-70.122	-0.130	0.050
-295.705	66.992	-0.261	-0.268
-294.691	-45.307	-0.438	0.219
-293.676	125.645	0.113	0.143
-292.662	-51.780	-0.179	0.084
-291.647	124.196	-0.009	-0.011
-290.632	-80.143	0.117	0.039
-289.618	-24.515	0.236	0.141
-288.603	0.457	-0.095	0.068
-287.589	85.990	0.286	0.316
-286.574	-55.259	-0.129	-0.058
-285.559	-66.351	-0.326	0.130
-284.545	-63.776	0.384	0.158
-283.530	-159.717	-0.306	-0.017
-282.516	-134.848	0.156	0.019
-281.501	113.525	0.165	0.201
-280.486	800.000	-0.079	-0.278
-279.472	-200.000	0.005	-0.300
-278.457	-200.000	-0.054	0.612
-277.443	-139.947	-0.165	0.017
-276.428	419.090	0.081	-0.174
-275.413	-77.595	0.090	-0.031
-274.399	800.000	0.101	0.336
-273.384	-140.844	0.132	0.014
-272.370	-45.430	0.097	-0.048
-271.355	-103.462	-0.308	-0.073
-270.340	-80.298	0.225	-0.076
-269.326	-94.644	0.428	0.117
-268.311	515.410	-0.114	0.266
-267.297	-145.115	0.208	0.019
-266.282	62.612	-0.105	0.105
-265.267	43.359	-0.099	-0.091
-264.253	382.845	-0.040	0.082
-263.238	800.000	-0.064	-0.219
-262.224	204.666	0.104	0.162
-261.209	309.161	0.070	0.131
-260.195	114.118	0.094	-0.115
-259.180	-25.889	-0.026	0.015
-258.165	-105.716	0.257	-0.058
-257.151	-200.000	0.010	-0.097
-256.136	-104.290	-0.321	0.075
-255.122	-200.000	0.007	0.091
-254.107	-51.143	0.262	-0.123
-253.092	-200.000	-0.051	-0.229
-252.078	259.245	0.080	-0.138
-251.063	-29.496	0.362	-0.207
-250.049	-44.261	0.079	-0.040
-249.034	10.071	-0.291	-0.222
-248.019	-46.384	-0.237	0.117
-247.005	324.977	-0.116	-0.222
-245.990	-200.000	0.086	-0.411
-244.976	-76.187	-0.316	0.112
-243.961	-194.419	-0.193	-0.002
-242.946	800.000	0.109	-0.345
-241.932	42.772	-0.156	-0.142
-240.917	53.500	0.239	-0.230
-239.903	18.206	-0.116	-0.093
-238.888	-200.000	0.030	-0.156
-237.873	-29.389	-0.224	-0.129
-236.859	800.000	0.043	0.149
-235.844	-2.988	0.153	-0.107
-234.830	-113.131	-0.063	-0.012
-233.815	28.913	-0.048	-0.041
-232.800	-46.127	-0.013	0.006
-231.786	-98.076	-0.060	0.015
-230.771	-41.217	0.258	-0.133
-229.757	-200.000	0.052	-0.384
-228.742	66.383	0.114	0.116
-227.727	-82.409	-0.050	-0.016
-226.713	34.481	0.178	-0.155
-225.698	191.306	0.012	-0.018
-224.684	79.996	-0.179	-0.192
-223.669	-57.258	0.132	-0.058
-222.655	-74.697	0.424	0.153
-221.640	91.734	0.272	-0.307
-220.625	19.888	-0.080	-0.064
-219.611	194.484	-0.071	-0.107
-218.596	-88.951	-0.383	0.114
-217.582	-23.524	0.297	-0.179
-216.567	-200.000	-0.022	0.224
-215.552	800.000	-0.090	-0.256
-214.538	376.243	0.041	-0.083
-213.523	-7.801	-0.279	-0.188
-212.509	800.000	-0.069	-0.232
-211.494	-68.587	0.140	-0.054
-210.479	800.000	0.095	-0.282
-209.465	157.371	-0.058	0.081
-208.450	36.908	0.167	-0.148
-207.436	12.016	0.095	0.073
-206.421	-102.436	0.154	-0.037
-205.406	195.775	0.024	-0.037
-204.392	92.629	0.180	-0.204
-203.377	284.980	0.154	-0.277
-202.363	187.324	-0.076	-0.113
-201.348	-157.022	0.181	0.011
-200.333	-88.868	0.039	0.012
-199.319	-20.226	-0.073	0.045
-198.304	800.000	0.066	0.186
-197.290	-114.875	-0.595	0.113
-196.275	-91.229	0.301	0.086
-195.260	510.847	-0.066	0.155
-194.246	-200.000	-0.020	-0.270
-193.231	800.000	-0.082	0.308
-192.217	136.064	-0.104	-0.136
-191.202	-5.830	-0.133	-0.091
-190.187	22.023	-0.268	-0.219
-189.173	-162.221	-0.361	0.018
-188.158	-97.929	0.333	0.086
-187.144	90.058	0.245	-0.274
-186.129	-200.000	0.002	-0.165
-185.114	-23.427	-0.214	-0.129
-184.100	-200.000	0.020	0.256
-183.085	800.000	-0.080	0.291
-182.071	34.080	0.095	-0.083
-181.056	-200.000	0.031	0.253
-180.042	-93.931	0.311	-0.086
-179.027	800.000	0.019	0.061
-178.012	-62.973	0.173	0.071
-176.998	-155.489	0.119	0.008
-175.983	-200.000	-0.003	-0.173
-174.969	199.985	0.108	-0.165
-173.954	37.560	0.072	0.064
-172.939	1.164	0.456	0.327
-171.925	-133.986	0.120	-0.015
-170.910	-65.743	0.172	0.069
-169.896	-102.669	-0.261	0.062
-168.881	-30.647	0.043	0.024
-167.866	-99.801	0.091	-0.023
-166.852	223.049	0.142	0.229
-165.837	-70.199	-0.297	0.113
-164.823	-3.715	-0.148	0.103
-163.808	800.000	-0.091	0.265
-162.793	-32.597	0.258	0.144
-161.779	351.138	0.106	0.210
-160.764	-124.536	-0.228	0.035
-159.750	54.986	0.117	-0.113
-158.735	-110.070	0.208	-0.043
-157.720	256.323	0.124	0.212
-156.706	7.594	-0.040	0.030
-155.691	156.609	-0.268	-0.370
-154.677	12.320	0.192	-0.148
-153.662	-175.323	-0.099	-0.003
-152.647	-158.208	-0.630	0.037
-151.633	722.079	0.080	0.212
-150.618	-12.882	0.180	-0.117
-149.604	-200.000	0.028	-0.161
-148.589	110.257	-0.112	-0.134
-147.574	212.078	0.076	-0.119
-146.560	-185.524	0.171	-0.003
-145.545	-53.756	0.053	0.024
-144.531	-178.796	-0.141	0.003
-143.516	40.276	-0.140	0.126
-142.502	-124.273	0.377	0.059
-141.487	-67.088	-0.235	0.092
-140.472	-200.000	-0.019	-0.261
-139.458	582.326	0.147	-0.360
-138.443	-17.711	0.214	0.134
-137.429	-42.960	-0.421	0.213
-136.414	-82.835	0.321	0.103
-135.399	315.028	-0.100	-0.189
-134.385	800.000	0.064	-0.191
-133.370	800.000	-0.083	0.331
-132.356	66.056	0.244	0.248
-131.341	54.512	0.111	-0.107
-130.326	234.218	-0.065	0.107
-129.312	19.471	0.209	-0.168
-128.297	-72.484	0.216	0.080
-127.283	-2.571	0.061	0.043
-126.268	-84.816	0.363	0.114
-125.253	-69.200	-0.444	-0.170
-124.239	800.000	-0.034	-0.098
-123.224	800.000	-0.065	0.239
-122.210	-75.684	-0.175	0.062
-121.195	582.744	0.023	0.056
-120.180	52.303	0.168	-0.160
-119.166	56.145	0.249	0.241
-118.151	-200.000	-0.005	-0.299
-117.137	-158.147	-0.187	0.011
-116.122	-200.000	0.040	0.244
-115.107	-140.572	0.148	-0.015
-114.093	800.000	-0.101	-0.363
-113.078	-86.879	0.156	-0.048
-112.064	-200.000	-0.006	-0.067
-111.049	-102.582	-0.034	0.008
-110.034	155.960	0.075	-0.104
-109.020	-79.509	-0.073	-0.025
-108.005	800.000	0.096	0.414
-106.991	800.000	-0.059	-0.255
-105.976	301.758	0.053	-0.099
-104.962	351.699	0.039	0.077
-103.947	55.789	-0.070	0.068
-102.932	148.718	0.138	0.186
-101.918	-175.927	0.171	-0.005
-100.903	-200.000	0.022	-0.192
-99.889	94.720	-0.133	-0.151
-98.874	800.000	0.018	0.063
-97.859	-174.912	0.103	-0.003
-96.845	134.574	0.127	-0.164
-95.830	-93.497	-0.299	0.083
-94.816	-200.000	-0.031	0.172
-93.801	-200.000	0.016	0.208
-92.786	-9.345	-0.123	0.082
-91.772	-51.132	-0.194	-0.091
-90.757	-131.988	0.302	-0.039
-89.743	-127.744	-0.333	-0.048
-88.728	-82.484	0.211	0.068
-87.713	-109.968	-0.362	0.076
-86.699	25.838	0.178	0.148
-85.684	800.000	-0.067	-0.269
-84.670	-22.400	0.055	0.033
-83.655	-200.000	0.059	0.320
-82.640	55.012	0.214	0.206
-81.626	97.341	0.125	-0.143
-80.611	-44.515	-0.233	0.116
-79.597	-140.067	0.324	-0.034
-78.582	195.069	0.108	-0.164
-77.567	-86.392	0.201	-0.061
-76.553	800.000	0.137	0.386
-75.538	785.990	-0.053	-0.146
-74.524	163.280	-0.046	-0.064
-73.509	350.063	0.024	0.048
-72.494	-200.000	-0.009	-0.311
-71.480	-200.000	-0.130	0.000
-70.465	163.935	-0.183	-0.256
-69.451	167.790	0.045	0.064
-68.436	-122.795	-0.170	0.027
-67.422	-27.264	-0.127	-0.074
-66.407	-200.000	0.003	-0.072
-65.392	-29.068	0.210	-0.120
-64.378	-23.123	0.111	-0.067
-63.363	-76.386	-0.132	0.046
-62.349	800.000	0.081	-0.228
-61.334	-32.012	-0.723	-0.403
-60.319	98.914	0.334	0.384
-59.305	768.976	-0.286	-0.776
-58.290	110.213	0.501	0.599
-57.276	800.000	0.591	1.680
-56.261	-200.000	78.061	520.947
-55.246	533.361	1311.248	3091.599
-54.232	151.439	2531.803	3432.071
-53.217	115.775	2221.568	2705.359
-52.203	51.660	1679.177	1589.529
-51.188	43.969	1408.489	1284.745
-50.173	40.588	1363.102	1222.508
-49.159	58.731	1400.133	1369.070
-48.144	64.820	1419.269	1425.618
-47.130	44.497	1380.126	1261.955
-46.115	40.663	1363.966	1223.548
-45.100	40.325	1359.203	1217.150
-44.086	40.276	1356.397	1214.294
-43.071	40.244	1354.654	1212.487
-42.057	40.303	1352.279	1210.675
-41.042	40.353	1350.277	1209.139
-40.027	40.351	1348.857	1207.805
-39.013	40.241	1346.968	1205.399
-37.998	40.257	1345.435	1204.075
-36.984	40.404	1343.464	1203.155
-35.969	40.519	1341.180	1201.757
-34.954	40.421	1339.658	1199.755
-33.940	40.474	1338.283	1198.794
-32.925	40.466	1337.088	1197.633
-31.911	40.555	1335.556	1196.748
-30.896	40.509	1334.482	1195.459
-29.881	40.597	1332.372	1194.050
-28.867	40.487	1331.347	1192.425
-27.852	40.609	1329.729	1191.661
-26.838	40.531	1328.108	1189.696
-25.823	40.581	1326.448	1188.458
-24.809	40.565	1325.477	1187.447
-23.794	40.571	1324.344	1186.421
-22.779	40.471	1322.794	1184.385
-21.765	40.527	1321.205	1183.252
-20.750	40.483	1319.963	1181.828
-19.736	40.457	1318.176	1180.029
-18.721	40.469	1316.948	1178.953
-17.706	40.359	1316.167	1177.552
-16.692	40.396	1314.849	1176.549
-15.677	40.342	1314.422	1175.795
-14.663	40.404	1312.997	1174.844
-13.648	40.559	1311.837	1174.675
-12.633	40.406	1310.815	1172.812
-11.619	40.309	1310.076	1171.528
-10.604	40.325	1309.374	1170.950
-9.590	40.328	1308.011	1169.700
-8.575	40.421	1307.307	1169.575
-7.560	40.452	1306.244	1168.759
-6.546	40.326	1305.687	1167.475
-5.531	40.294	1304.889	1166.525
-4.517	40.370	1303.612	1165.781
-3.502	40.356	1302.834	1164.956
-2.487	40.420	1301.439	1164.039
-1.473	40.342	1297.764	1160.251
-0.458	38.861	1281.200	1136.823
0.556	32.619	1261.156	1089.164
1.571	27.967	1263.986	1064.487
2.586	26.417	1279.565	1068.364
3.600	25.576	1269.850	1055.229
4.615	22.871	1201.123	982.992
5.629	18.039	1128.376	898.043
6.644	15.195	1107.536	866.688
7.659	15.066	1104.295	863.413
8.673	15.006	1103.187	862.162
9.688	14.903	1101.940	860.578
10.702	15.165	1100.514	860.736
11.717	18.259	1104.252	879.506
12.731	21.154	1108.105	897.407
13.746	20.145	1104.685	889.381
14.761	17.781	1101.070	874.293
15.775	16.532	1098.898	866.099
16.790	15.456	1096.497	858.625
17.804	14.724	1094.836	853.512
18.819	14.126	1093.865	849.625
19.834	13.841	1092.423	846.974
20.848	13.501	1091.877	844.744
21.863	13.341	1091.108	843.259
22.877	13.256	1089.786	841.727
23.892	13.245	1089.612	841.461
24.907	13.190	1088.684	840.393
25.921	13.420	1087.294	840.411
26.936	13.302	1086.055	838.785
27.950	13.342	1084.453	837.676
28.965	13.500	1082.964	837.250
29.980	13.598	1081.428	836.483
30.994	13.496	1080.503	835.176
32.009	13.515	1079.466	834.397
33.023	13.410	1078.209	832.825
34.038	13.513	1076.720	832.115
35.053	13.398	1076.051	830.948
36.067	13.501	1075.092	830.651
37.082	13.370	1074.630	829.565
38.096	13.455	1074.147	829.547
39.111	13.457	1072.741	828.396
40.126	13.340	1071.762	826.980
41.140	13.233	1070.242	825.201
42.155	13.257	1069.197	824.442
43.169	13.145	1068.587	823.342
44.184	13.188	1067.459	822.614
45.199	13.242	1066.028	821.704
46.213	13.258	1065.409	821.238
47.228	13.408	1063.907	820.747
48.242	13.318	1062.835	819.402
49.257	13.403	1062.037	819.138
50.271	13.438	1061.166	818.565
51.286	13.313	1060.583	817.425
52.301	13.426	1059.090	816.762
53.315	13.306	1058.105	815.338
54.330	13.227	1057.370	814.310
55.344	13.232	1056.618	813.681
56.359	13.310	1055.174	812.882
57.374	13.244	1054.467	811.940
58.388	13.194	1053.546	810.916
59.403	13.168	1053.052	810.335
60.417	13.186	1052.108	809.626
61.432	13.168	1051.437	808.951
62.447	13.162	1050.255	807.938
63.461	13.088	1049.894	807.230
64.476	13.142	1048.799	806.579
65.490	13.139	1047.841	805.754
66.505	13.230	1046.790	805.321
67.520	13.089	1046.584	804.402
68.534	13.149	1045.806	804.028
69.549	13.110	1044.890	803.059
70.563	13.167	1044.467	802.941
71.578	13.106	1043.300	801.680
72.593	13.112	1043.164	801.532
73.607	13.153	1041.758	800.578
74.622	13.115	1041.420	800.063
75.636	13.210	1040.252	799.555
76.651	13.086	1039.596	798.383
77.666	13.149	1039.096	798.229
78.680	12.993	1038.855	797.224
79.695	13.186	1038.213	797.593
80.709	13.205	1037.521	797.079
81.724	13.373	1036.048	796.687
82.739	13.267	1035.825	795.932
83.753	13.327	1035.316	795.759
84.768	13.389	1034.152	795.095
85.782	13.497	1033.180	794.794
86.797	13.344	1032.273	793.293
87.812	13.388	1031.265	792.659
88.826	13.313	1030.455	791.610
89.841	13.368	1029.371	790.968
90.855	13.482	1028.798	791.003
91.870	13.475	1027.943	790.241
92.884	13.412	1026.992	789.138
93.899	13.505	1025.897	788.673
94.914	13.617	1024.869	788.342
95.928	13.520	1024.279	787.360
96.943	13.474	1023.503	786.477
97.957	13.484	1022.248	785.488
98.972	13.484	1021.277	784.673
99.987	13.442	1020.566	783.857
101.001	13.479	1019.764	783.350
102.016	13.421	1019.089	782.488
103.030	13.392	1018.445	781.785
104.045	13.406	1017.524	781.076
105.060	13.391	1016.344	780.030
106.074	13.317	1015.645	779.077
107.089	13.312	1014.247	777.910
108.103	13.292	1013.033	776.819
109.118	13.263	1012.419	776.142
110.133	13.360	1011.376	775.730
111.147	13.277	1010.468	774.573
112.162	13.226	1009.576	773.582
113.176	13.319	1008.949	773.471
114.191	13.385	1008.358	773.256
115.206	13.277	1007.696	772.175
116.220	13.300	1006.491	771.291
117.235	13.395	1005.053	770.564
118.249	13.201	1004.770	769.377
119.264	13.369	1003.691	769.264
120.279	13.369	1002.887	768.576
121.293	13.342	1002.254	767.899
122.308	13.283	1001.432	766.929
123.322	13.338	1000.368	766.300
124.337	13.259	999.552	765.241
125.352	13.225	998.021	763.845
126.366	13.205	997.380	763.195
127.381	13.171	996.824	762.542
128.395	13.221	995.715	761.861
129.410	13.251	994.817	761.243
130.424	13.199	994.185	760.454
131.439	13.396	993.316	760.626
132.454	13.440	992.132	759.854
133.468	13.379	991.817	759.265
134.483	13.534	990.739	759.082
135.497	13.381	989.814	757.606
136.512	13.546	988.800	757.519
137.527	13.516	988.057	756.743
138.541	13.430	987.383	755.770
139.556	13.403	986.619	754.994
140.570	13.561	986.010	755.180
141.585	13.575	985.216	754.573
142.600	13.568	984.204	753.699
143.614	13.778	982.812	753.517
144.629	13.656	982.460	752.628
145.643	13.710	981.038	751.716
146.658	13.601	980.162	750.484
147.673	13.484	979.527	749.405
148.687	13.515	978.902	749.002
149.702	13.572	977.149	747.850
150.716	13.521	976.538	747.083
151.731	13.464	975.743	746.154
152.746	13.564	974.634	745.693
153.760	13.415	974.651	744.968
154.775	13.521	974.075	744.939
155.789	13.567	973.452	744.603
156.804	13.528	972.997	744.014
157.819	13.655	971.702	743.528
158.833	13.687	971.179	743.204
159.848	13.795	970.447	743.064
160.862	13.726	969.243	741.763
161.877	13.575	967.840	739.953
162.892	13.640	967.267	739.739
163.906	13.736	966.286	739.350
164.921	13.579	965.629	738.082
165.935	13.588	964.498	737.194
166.950	13.538	963.814	736.385
167.964	13.691	963.047	736.410
168.979	13.560	962.273	735.172
169.994	13.609	961.482	734.719
171.008	13.746	960.457	734.478
172.023	13.529	960.275	733.316
173.037	13.854	958.982	733.701
174.052	13.685	958.701	732.671
175.067	13.697	957.630	731.842
176.081	13.556	957.490	731.047
177.096	13.616	956.845	730.754
178.110	13.711	955.869	730.362
179.125	13.634	955.651	729.795
180.140	13.722	954.996	729.614
181.154	13.805	954.481	729.523
182.169	13.840	953.672	728.992
183.183	13.843	953.391	728.729
184.198	13.829	952.349	727.805
185.213	13.851	951.665	727.312
186.227	13.916	950.857	726.918
187.242	13.971	950.162	726.563
188.256	14.012	949.562	726.217
189.271	14.046	948.727	725.663
190.286	13.869	948.138	724.374
191.300	13.639	947.344	722.705
192.315	13.770	946.690	722.712
193.329	13.771	946.161	722.246
194.344	13.868	945.327	721.968
195.359	13.855	944.730	721.393
196.373	13.902	944.461	721.328
197.388	13.973	944.139	721.327
198.402	14.129	943.409	721.380
199.417	14.142	942.920	720.999
200.432	14.113	942.533	720.516
201.446	14.139	941.874	720.060
202.461	14.163	941.335	719.689
203.475	14.264	940.286	719.258
204.490	14.056	939.917	718.015
205.504	14.036	939.388	717.459
206.519	14.109	938.446	716.994
207.534	14.057	937.795	716.208
208.548	14.159	936.779	715.806
209.563	14.117	936.480	715.333
210.577	14.238	935.812	715.282
211.592	14.302	935.017	714.884
212.607	14.364	934.290	714.532
213.621	14.367	933.034	713.521
214.636	14.385	932.316	712.985
215.650	14.405	931.906	712.697
216.665	14.290	931.452	711.794
217.680	14.333	930.527	711.207
218.694	14.495	929.574	711.105
219.709	14.470	928.947	710.456
220.723	14.363	928.770	709.801
221.738	14.356	927.822	708.988
222.753	14.353	927.500	708.665
223.767	14.475	926.897	708.659
224.782	14.433	926.339	707.990
225.796	14.446	925.889	707.639
226.811	14.488	924.883	706.985
227.826	14.412	924.331	706.179
228.840	14.409	923.437	705.420
229.855	14.491	922.658	705.112
230.869	14.460	921.797	704.259
231.884	14.430	921.405	703.773
232.899	14.458	920.556	703.179
233.913	14.436	919.747	702.407
234.928	14.400	919.325	701.871
235.942	14.481	918.461	701.488
236.957	14.454	917.928	700.907
237.972	14.535	917.225	700.647
238.986	14.560	916.528	700.156
240.001	14.416	916.147	699.201
241.015	14.596	915.183	699.160
242.030	14.534	914.741	698.498
243.045	14.686	913.819	698.368
244.059	14.573	913.403	697.516
245.074	14.680	912.796	697.440
246.088	14.698	911.501	696.461
247.103	14.634	911.117	695.843
248.117	14.753	911.111	696.269
249.132	14.809	910.722	696.146
250.147	14.855	909.883	695.634
251.161	15.019	908.995	695.573
252.176	14.921	908.323	694.591
253.190	15.011	907.600	694.351
254.205	14.998	906.752	693.585
255.220	15.065	906.283	693.446
256.234	15.066	905.710	692.947
257.249	15.058	905.208	692.471
258.263	14.944	904.539	691.426
259.278	14.907	903.869	690.701
260.293	15.014	903.467	690.775
261.307	15.114	902.416	690.323
262.322	15.202	901.569	689.975
263.336	15.198	900.854	689.350
264.351	15.150	900.476	688.801
265.366	15.230	899.572	688.379
266.380	15.141	899.153	687.630
267.395	15.126	898.190	686.773
268.409	15.217	897.064	686.223
269.424	15.241	896.412	685.762
270.439	15.233	895.494	684.966
271.453	15.172	895.058	684.322
272.468	15.322	894.694	684.596
273.482	15.293	894.290	684.108
274.497	15.246	893.614	683.340
275.512	15.250	893.092	682.896
276.526	15.163	892.557	682.074
277.541	15.252	892.331	682.201
278.555	15.301	891.628	681.803
279.570	15.302	890.908	681.197
280.585	15.401	890.038	680.873
281.599	15.454	888.940	680.186
282.614	15.398	888.645	679.672
283.628	15.230	888.176	678.575
284.643	15.301	887.412	678.219
285.657	15.506	886.356	678.181
286.672	15.320	885.993	677.089
287.687	15.454	885.314	677.051
288.701	15.501	884.776	676.769
289.716	15.526	884.119	676.309
290.730	15.509	883.397	675.630
291.745	15.533	882.879	675.268
292.760	15.660	882.467	675.406
293.774	15.520	882.013	674.433
294.789	15.606	881.316	674.187
295.803	15.594	880.210	673.233
296.818	15.700	879.459	673.024
297.833	15.672	878.834	672.375
298.847	15.621	878.154	671.590
299.862	15.724	877.790	671.663
300.876	15.632	877.505	671.018
301.891	15.698	876.736	670.637
302.906	15.799	875.934	670.367
303.920	15.728	875.744	669.878
304.935	15.795	875.033	669.540
305.949	15.768	874.495	668.964
306.964	15.789	873.260	668.041
307.979	15.846	873.188	668.154
308.993	15.860	872.475	667.603
310.008	15.970	871.603	667.313
311.022	15.866	871.102	666.458
312.037	15.873	870.655	666.087
313.052	15.760	870.083	665.144
314.066	15.720	869.542	664.511
315.081	15.819	869.068	664.481
316.095	15.816	868.168	663.722
317.110	15.638	867.727	662.624
318.125	15.727	867.475	662.725
319.139	15.724	867.218	662.460
320.154	15.923	866.339	662.513
321.168	15.897	865.754	661.905
322.183	15.811	865.375	661.217
323.197	15.894	864.843	661.079
324.212	15.831	864.206	660.288
325.227	15.889	863.728	660.091
326.241	15.873	863.247	659.601
327.256	15.971	862.458	659.322
328.270	16.119	861.602	659.190
329.285	15.894	861.463	658.146
330.300	15.920	860.743	657.637
331.314	16.033	859.954	657.417
332.329	16.037	859.523	657.047
333.343	16.093	858.828	656.676
334.358	16.149	858.773	656.791
335.373	16.155	858.215	656.329
336.387	15.999	858.124	655.595
337.402	16.179	857.543	655.793
338.416	16.141	857.584	655.620
339.431	16.188	857.158	655.418
340.446	16.308	856.321	655.186
341.460	16.208	856.242	654.679
342.475	16.454	855.713	655.170
343.489	16.260	855.369	654.099
344.504	16.406	854.537	653.969
345.519	16.496	854.042	653.880
346.533	16.345	853.796	653.050
347.548	16.318	853.206	652.436
348.562	16.302	852.701	651.933
349.577	16.275	851.704	651.008
350.592	16.276	851.420	650.738
351.606	16.336	850.673	650.340
352.621	16.320	850.071	649.760
353.635	16.213	849.489	648.848
354.650	16.402	848.788	648.978
355.665	16.476	848.039	648.632
356.679	16.370	847.537	647.786
357.694	16.451	847.029	647.652
358.708	16.468	846.408	647.183
359.723	16.423	845.797	646.489
360.738	16.556	845.138	646.434
361.752	16.585	844.225	645.791
362.767	16.545	843.888	645.321
363.781	16.614	843.405	645.158
364.796	16.662	843.220	645.143
365.810	16.763	842.877	645.209
366.825	16.775	842.283	644.743
367.840	16.591	842.003	643.769
368.854	16.665	841.262	643.429
369.869	16.712	840.982	643.336
370.883	16.670	840.410	642.682
371.898	16.787	839.889	642.672
372.913	16.906	839.545	642.802
373.927	16.899	838.992	642.294
374.942	16.912	838.606	641.993
375.956	16.967	838.060	641.725
376.971	16.923	837.737	641.256
377.986	17.008	837.370	641.238
379.000	17.016	836.688	640.687
380.015	17.162	836.049	640.692
381.029	17.158	835.386	640.113
382.044	17.021	835.277	639.456
383.059	16.973	834.395	638.546
384.073	16.925	833.608	637.706
385.088	17.009	833.102	637.579
386.102	16.981	832.661	637.079
387.117	16.859	832.280	636.274
388.132	17.012	831.104	635.891
389.146	17.023	831.081	635.856
390.161	17.156	830.309	635.709
391.175	17.007	830.337	635.117
392.190	17.028	829.713	634.663
393.205	16.952	829.387	634.072
394.219	17.181	828.558	634.237
395.234	17.013	828.383	633.420
396.248	16.936	828.018	632.796
397.263	17.015	827.249	632.448
398.278	16.982	826.894	631.997
399.292	17.047	826.462	631.853
400.307	17.077	825.874	631.460
401.321	17.006	825.457	630.821
402.336	16.970	825.144	630.393
403.350	17.164	824.555	630.609
404.365	17.324	824.060	630.766
405.380	17.324	823.707	630.440
406.394	17.291	822.897	629.645
407.409	17.384	822.775	629.837
408.423	17.250	822.765	629.279
409.438	17.355	821.983	629.014
410.453	17.443	821.552	628.953
411.467	17.508	821.324	628.965
412.482	17.609	820.463	628.621
413.496	17.482	820.254	627.937
414.511	17.525	819.761	627.660
415.526	17.418	819.567	627.063
416.540	17.507	819.038	626.932
417.555	17.476	818.797	626.577
418.569	17.546	818.088	626.238
419.584	17.689	817.530	626.280
420.599	17.454	817.348	625.222
421.613	93.466	1269.978	1384.010
422.628	80.289	1335.946	1384.135
