DTS Sentinel unit serial number:	SN413079Multiplexer serial number:	ORYXHardware model number:	OX4-SRSoftware version number:	ORYX F/W v4.00 Oryx Data Collector v3.7.2.0data status	okinstallation	princeton_trtdifferential loss correction	single-endedforward channel	channel 1reverse channel	N/Adate	2019/09/12time	11:52:11forward acquisition time	60.00reverse acquisition time	0.00gamma	496.2192k internal	0.2293k external	0.2293temperature offset calibration	1.0042default loss term (dB/km)	0.3790temperature slope calibration	1.0000multiplexer offset coefficient	1.0000multiplexer slope coefficient	1.0000fibre end	0.00T internal ref (°C)	40.05T ext. ref 1 (°C)	2.01T ext. ref 2 (°C)	37.53length (m)	temperature (°C)	Stokes	anti-Stokes-747.200	96.942	-0.176	-0.206
-746.185	800.000	-0.083	0.314
-745.171	165.314	-0.227	-0.328
-744.156	-86.045	-0.302	0.096
-743.142	-2.902	0.098	-0.070
-742.127	9.270	-0.337	0.261
-741.112	-53.081	0.036	0.017
-740.098	-38.967	-0.263	0.142
-739.083	-92.552	-0.580	0.167
-738.069	98.252	0.342	0.403
-737.054	259.667	0.231	-0.408
-736.039	5.551	-0.357	-0.270
-735.025	-126.077	0.306	0.047
-734.010	52.146	0.189	-0.184
-732.996	36.285	-0.201	-0.181
-731.981	-200.000	-0.011	0.259
-730.966	-117.967	0.296	0.054
-729.952	-43.947	0.153	-0.079
-728.937	-123.745	0.073	-0.012
-727.923	-35.354	0.102	0.057
-726.908	-66.283	-0.213	-0.087
-725.894	180.891	-0.030	-0.045
-724.879	600.676	-0.108	-0.274
-723.864	140.649	-0.190	-0.256
-722.850	4.323	0.217	-0.163
-721.835	-128.188	-0.328	-0.048
-720.821	-147.945	-0.104	-0.009
-719.806	-112.005	-0.178	-0.037
-718.791	-35.987	-0.250	0.138
-717.777	-115.473	-0.246	0.047
-716.762	113.885	0.049	-0.060
-715.748	-200.000	0.008	-0.274
-714.733	-53.362	-0.245	-0.115
-713.718	167.694	0.151	-0.219
-712.704	67.567	0.203	0.212
-711.689	13.775	-0.104	-0.082
-710.675	-34.294	-0.194	0.109
-709.660	-56.523	-0.253	0.115
-708.645	-200.000	-0.019	-0.344
-707.631	362.010	-0.066	0.135
-706.616	800.000	-0.109	-0.322
-705.602	47.630	0.162	-0.154
-704.587	-29.301	-0.232	-0.136
-703.572	-200.000	0.049	-0.267
-702.558	-178.646	0.305	0.007
-701.543	-200.000	-0.078	-0.418
-700.529	-124.297	-0.306	0.049
-699.514	-200.000	0.036	-0.381
-698.499	167.231	0.108	-0.156
-697.485	7.576	0.203	0.155
-696.470	-200.000	0.022	-0.303
-695.456	-57.955	-0.312	-0.139
-694.441	-83.859	0.430	0.140
-693.426	-105.354	-0.116	-0.027
-692.412	79.227	-0.077	0.084
-691.397	-177.381	-0.392	-0.010
-690.383	102.490	0.059	0.070
-689.368	13.247	-0.087	-0.069
-688.354	-57.927	0.095	0.042
-687.339	-41.903	0.117	0.061
-686.324	-72.078	-0.334	0.127
-685.310	48.555	0.185	-0.177
-684.295	-161.155	-0.120	0.006
-683.281	192.262	-0.076	-0.117
-682.266	148.432	-0.170	-0.235
-681.251	800.000	-0.054	0.176
-680.237	344.444	-0.032	0.064
-679.222	552.208	-0.095	-0.234
-678.208	83.263	-0.204	-0.226
-677.193	-124.155	-0.232	0.037
-676.178	-200.000	-0.046	-0.288
-675.164	-5.624	0.178	-0.124
-674.149	-79.102	-0.311	0.108
-673.135	-171.077	0.096	-0.003
-672.120	-167.750	-0.018	-0.001
-671.105	-47.759	0.186	-0.092
-670.091	258.864	-0.154	0.270
-669.076	12.619	-0.156	0.122
-668.062	-200.000	0.030	-0.254
-667.047	-10.527	0.206	-0.139
-666.032	7.179	-0.165	0.126
-665.018	800.000	-0.061	-0.197
-664.003	-137.401	0.094	-0.011
-662.989	-200.000	0.012	-0.192
-661.974	-131.495	-0.054	0.007
-660.959	213.207	0.111	-0.178
-659.945	-153.214	0.183	-0.013
-658.930	-200.000	0.197	-0.001
-657.916	-8.522	-0.326	-0.223
-656.901	-52.524	0.242	-0.114
-655.886	-200.000	-0.057	-0.372
-654.872	-116.739	0.309	-0.058
-653.857	-108.499	0.069	0.015
-652.843	-89.791	-0.115	-0.034
-651.828	-176.554	0.057	0.002
-650.814	2.025	0.211	0.156
-649.799	-34.993	0.160	0.089
-648.784	-100.188	-0.149	0.038
-647.770	-116.668	-0.199	0.037
-646.755	275.561	-0.233	0.420
-645.741	-110.315	-0.184	0.039
-644.726	-70.272	-0.412	0.160
-643.711	800.000	-0.007	0.024
-642.697	-87.018	0.094	-0.029
-641.682	-200.000	-0.048	-0.239
-640.668	-83.418	-0.213	-0.069
-639.653	800.000	0.105	0.353
-638.638	-39.429	-0.142	-0.076
-637.624	214.954	-0.197	-0.318
-636.609	-32.504	0.161	-0.092
-635.595	-121.011	0.035	0.006
-634.580	-18.710	0.128	-0.081
-633.565	800.000	0.121	0.357
-632.551	-200.000	0.018	-0.086
-631.536	42.839	-0.033	0.031
-630.522	-200.000	0.001	-0.055
-629.507	-200.000	0.016	-0.107
-628.492	379.159	-0.087	0.181
-627.478	72.889	-0.039	0.042
-626.463	-78.306	-0.191	0.067
-625.449	-74.190	0.050	0.019
-624.434	-131.010	0.093	0.013
-623.419	-2.452	-0.304	0.217
-622.405	-122.377	-0.337	-0.056
-621.390	26.442	-0.147	-0.125
-620.376	800.000	0.089	-0.353
-619.361	-200.000	-0.012	0.119
-618.346	-139.627	-0.202	0.022
-617.332	-200.000	0.036	0.180
-616.317	-114.182	0.175	0.034
-615.303	800.000	-0.065	0.261
-614.288	-162.857	0.172	-0.009
-613.273	575.697	-0.248	-0.616
-612.259	105.089	0.066	0.079
-611.244	141.728	-0.033	-0.045
-610.230	-135.489	-0.130	-0.016
-609.215	-146.961	-0.355	0.031
-608.201	489.039	-0.089	-0.207
-607.186	-29.268	-0.068	0.040
-606.171	800.000	0.071	-0.285
-605.157	-150.260	0.338	0.027
-604.142	38.251	0.068	-0.062
-603.128	-200.000	0.017	-0.243
-602.113	38.720	-0.160	0.145
-601.098	-93.301	-0.164	-0.046
-600.084	-34.212	0.034	-0.019
-599.069	141.899	-0.206	0.278
-598.055	44.256	0.313	-0.292
-597.040	197.632	0.069	0.106
-596.025	-200.000	-0.024	-0.406
-595.011	135.688	-0.037	0.048
-593.996	22.960	0.250	0.208
-592.982	87.558	0.074	-0.084
-591.967	38.531	0.118	-0.107
-590.952	800.000	0.020	-0.085
-589.938	-137.544	-0.068	0.008
-588.923	463.802	-0.096	0.217
-587.909	-200.000	-0.003	-0.047
-586.894	3.650	0.089	-0.066
-585.879	-146.085	0.305	-0.027
-584.865	-200.000	-0.026	0.274
-583.850	23.710	0.047	0.039
-582.836	-66.460	0.160	0.065
-581.821	155.283	-0.118	-0.166
-580.806	92.298	-0.108	-0.123
-579.792	800.000	-0.088	-0.292
-578.777	1.130	-0.091	0.067
-577.763	-120.720	-0.200	0.034
-576.748	-33.212	-0.185	0.104
-575.733	-200.000	-0.020	-0.138
-574.719	800.000	-0.080	-0.227
-573.704	593.942	0.054	0.135
-572.690	-200.000	0.047	-0.315
-571.675	81.834	-0.083	0.092
-570.661	370.734	-0.119	-0.245
-569.646	136.376	-0.294	-0.390
-568.631	432.728	-0.103	-0.226
-567.617	-157.482	-0.199	0.012
-566.602	216.823	-0.191	0.309
-565.588	-9.395	0.272	-0.184
-564.573	141.504	-0.105	0.142
-563.558	-101.447	-0.156	0.039
-562.544	405.074	0.015	-0.033
-561.529	-200.000	0.002	-0.262
-560.515	-75.419	-0.264	-0.096
-559.500	185.111	-0.253	0.381
-558.485	-27.533	0.017	-0.010
-557.471	84.397	-0.177	0.197
-556.456	-9.866	0.028	-0.019
-555.442	-12.149	-0.090	-0.060
-554.427	389.160	-0.131	0.276
-553.412	250.889	0.174	0.300
-552.398	103.582	0.155	0.185
-551.383	-200.000	-0.027	-0.130
-550.369	-200.000	-0.032	0.276
-549.354	106.374	-0.157	-0.189
-548.339	699.369	-0.111	-0.295
-547.325	-191.879	-0.278	0.003
-546.310	-72.682	-0.328	-0.123
-545.296	25.332	0.202	-0.171
-544.281	-111.419	0.128	-0.027
-543.266	-12.223	-0.199	-0.132
-542.252	-57.077	-0.249	-0.112
-541.237	-44.429	0.163	0.083
-540.223	-148.866	-0.040	-0.003
-539.208	49.204	0.249	-0.237
-538.193	-193.418	0.082	-0.001
-537.179	21.085	0.163	-0.134
-536.164	78.987	0.222	0.242
-535.150	149.107	0.079	0.109
-534.135	-44.775	-0.028	-0.014
-533.121	167.098	-0.040	-0.058
-532.106	800.000	-0.096	-0.333
-531.091	188.216	0.172	-0.260
-530.077	220.051	-0.095	0.154
-529.062	-200.000	-0.021	0.149
-528.048	249.496	-0.126	0.217
-527.033	-88.343	-0.254	0.077
-526.018	211.879	0.062	0.099
-525.004	40.129	0.115	0.104
-523.989	-200.000	-0.002	-0.184
-522.975	34.148	0.169	-0.150
-521.960	73.547	-0.118	-0.126
-520.945	35.708	-0.157	0.140
-519.931	-200.000	-0.037	-0.443
-518.916	800.000	0.093	0.314
-517.902	44.796	-0.152	-0.142
-516.887	-200.000	-0.017	0.290
-515.872	-62.905	0.331	0.139
-514.858	-130.503	0.354	-0.048
-513.843	-56.485	0.152	-0.068
-512.829	484.906	-0.099	0.229
-511.814	168.950	0.069	-0.100
-510.799	-38.054	-0.253	0.136
-509.785	-9.243	0.046	0.031
-508.770	288.375	0.097	-0.179
-507.756	468.237	-0.027	-0.061
-506.741	222.365	-0.165	0.269
-505.726	-38.399	0.240	0.129
-504.712	-32.835	-0.368	-0.207
-503.697	800.000	0.051	0.221
-502.683	-200.000	-0.003	-0.021
-501.668	-48.041	0.127	0.062
-500.653	-200.000	0.008	0.341
-499.639	-200.000	0.002	0.029
-498.624	256.871	0.171	0.298
-497.610	-200.000	0.054	0.287
-496.595	-77.497	-0.247	0.087
-495.581	13.787	-0.337	0.265
-494.566	-200.000	0.034	-0.190
-493.551	-200.000	-0.011	0.390
-492.537	-106.897	0.319	0.072
-491.522	25.067	0.118	-0.099
-490.508	-200.000	0.223	0.000
-489.493	-96.540	-0.468	-0.125
-488.478	-149.155	0.171	0.014
-487.464	79.654	-0.166	-0.180
-486.449	-200.000	0.057	-0.271
-485.435	631.739	0.103	0.263
-484.420	483.122	0.066	0.153
-483.405	-69.528	0.188	0.073
-482.391	-158.559	0.365	0.021
-481.376	-66.863	-0.498	0.199
-480.362	-8.582	-0.216	0.147
-479.347	601.122	0.041	-0.104
-478.332	-200.000	-0.058	-0.280
-477.318	-200.000	-0.037	0.198
-476.303	320.045	0.195	0.374
-475.289	-163.186	0.132	0.006
-474.274	-86.903	-0.243	0.075
-473.259	-200.000	0.027	-0.120
-472.245	504.872	-0.069	-0.162
-471.230	-75.216	0.293	0.106
-470.216	4.472	0.266	0.197
-469.201	-129.200	-0.143	0.020
-468.186	800.000	0.046	-0.147
-467.172	79.460	-0.055	-0.059
-466.157	-200.000	-0.085	-0.438
-465.143	-200.000	-0.012	-0.114
-464.128	294.278	0.068	-0.125
-463.113	3.100	-0.102	0.075
-462.099	33.140	0.229	0.201
-461.084	-70.388	0.106	0.041
-460.070	306.623	0.038	-0.072
-459.055	297.414	0.184	-0.342
-458.040	-133.365	-0.102	-0.013
-457.026	-97.526	0.192	0.050
-456.011	-125.307	-0.077	-0.012
-454.997	271.126	0.086	-0.153
-453.982	140.311	-0.083	0.111
-452.968	390.504	-0.126	0.265
-451.953	-13.178	-0.253	0.166
-450.938	74.710	0.181	0.193
-449.924	235.492	-0.275	-0.459
-448.909	96.328	0.102	-0.117
-447.895	-142.373	-0.208	0.021
-446.880	13.766	-0.376	-0.295
-445.865	-40.375	0.325	-0.171
-444.851	49.627	-0.126	-0.120
-443.836	-108.329	-0.167	0.036
-442.822	508.062	0.081	-0.191
-441.807	-117.580	0.155	-0.028
-440.792	90.569	-0.078	-0.088
-439.778	-200.000	-0.039	0.255
-438.763	-111.060	-0.293	-0.061
-437.749	-77.256	0.463	0.163
-436.734	800.000	0.142	-0.409
-435.719	-200.000	0.001	-0.061
-434.705	-29.469	0.289	-0.167
-433.690	-90.438	-0.251	0.073
-432.676	-200.000	0.017	-0.103
-431.661	166.711	-0.132	0.189
-430.646	323.243	-0.231	-0.446
-429.632	-169.553	-0.155	-0.006
-428.617	11.665	0.014	-0.011
-427.603	-28.298	0.136	-0.079
-426.588	320.521	-0.178	-0.342
-425.573	-61.841	0.278	-0.118
-424.559	-29.729	0.089	-0.051
-423.544	179.770	-0.053	-0.079
-422.530	387.778	-0.061	0.127
-421.515	-200.000	-0.031	-0.152
-420.500	-200.000	-0.177	-0.001
-419.486	111.813	0.152	-0.185
-418.471	-34.631	0.079	-0.044
-417.457	-200.000	0.001	-0.156
-416.442	73.144	-0.200	-0.212
-415.428	-200.000	0.001	0.220
-414.413	-109.753	0.093	-0.020
-413.398	-137.784	0.319	0.036
-412.384	-200.000	-0.042	0.350
-411.369	-200.000	0.003	0.155
-410.355	206.661	0.189	0.297
-409.340	800.000	-0.074	0.209
-408.325	-92.785	0.160	0.045
-407.311	-92.988	-0.230	0.065
-406.296	136.583	0.204	0.269
-405.282	-3.966	0.163	-0.114
-404.267	-53.801	0.106	0.049
-403.252	800.000	-0.096	0.281
-402.238	430.887	-0.227	0.497
-401.223	-29.124	-0.149	-0.086
-400.209	616.436	0.028	0.071
-399.194	321.881	0.013	-0.025
-398.179	-200.000	-0.003	0.088
-397.165	37.407	0.133	0.119
-396.150	-152.153	-0.106	0.008
-395.136	-200.000	0.002	-0.279
-394.121	-58.370	0.246	-0.108
-393.106	-200.000	-0.010	0.043
-392.092	56.097	0.084	0.082
-391.077	-3.559	0.091	0.064
-390.063	-104.456	0.340	-0.079
-389.048	-102.250	0.400	-0.097
-388.033	800.000	-0.088	0.291
-387.019	-74.340	0.098	0.036
-386.004	-18.335	0.363	-0.229
-384.990	604.560	-0.074	0.187
-383.975	-86.877	-0.165	-0.051
-382.960	103.154	-0.300	-0.354
-381.946	180.639	0.103	0.153
-380.931	-177.989	-0.300	0.007
-379.917	-117.382	0.219	-0.040
-378.902	89.693	-0.306	0.345
-377.888	-200.000	0.058	0.345
-376.873	-30.663	-0.177	0.101
-375.858	-200.000	0.060	-0.368
-374.844	-178.729	0.197	0.005
-373.829	2.894	-0.289	-0.212
-372.815	-128.757	0.232	-0.033
-371.800	-28.583	0.206	0.120
-370.785	454.469	-0.032	0.071
-369.771	-200.000	-0.002	0.116
-368.756	5.674	-0.098	0.073
-367.742	-200.000	0.007	0.081
-366.727	-200.000	-0.021	-0.122
-365.712	-35.162	0.024	-0.013
-364.698	-200.000	-0.006	-0.092
-363.683	-45.687	0.018	0.009
-362.669	362.505	-0.145	-0.294
-361.654	-67.199	-0.298	-0.118
-360.639	25.289	0.089	0.074
-359.625	-93.960	0.292	0.081
-358.610	-130.667	-0.128	-0.017
-357.596	113.641	-0.196	-0.241
-356.581	-200.000	0.085	-0.448
-355.566	-120.320	0.213	-0.037
-354.552	-134.974	0.120	-0.015
-353.537	800.000	0.064	0.268
-352.523	224.956	-0.129	0.210
-351.508	167.834	-0.216	0.310
-350.493	-16.164	-0.194	0.124
-349.479	215.920	0.047	0.075
-348.464	-112.457	-0.351	-0.071
-347.450	110.696	-0.255	0.309
-346.435	49.258	-0.030	0.029
-345.420	-54.041	0.226	-0.104
-344.406	800.000	0.013	0.044
-343.391	-77.212	-0.180	0.063
-342.377	-200.000	-0.027	0.374
-341.362	381.562	-0.099	-0.204
-340.348	469.209	0.035	0.079
-339.333	-150.179	-0.153	0.012
-338.318	17.260	0.046	-0.037
-337.304	77.270	-0.143	0.153
-336.289	224.744	-0.215	0.350
-335.275	-200.000	-0.036	-0.288
-334.260	-121.999	0.111	-0.018
-333.245	-97.120	0.137	-0.036
-332.231	800.000	-0.039	0.132
-331.216	390.150	0.054	0.113
-330.202	800.000	0.148	-0.412
-329.187	-200.000	-0.032	-0.309
-328.172	500.525	0.050	-0.117
-327.158	800.000	0.064	-0.178
-326.143	-69.719	0.353	0.136
-325.129	185.732	-0.219	-0.328
-324.114	120.197	-0.108	-0.135
-323.099	94.262	-0.188	-0.215
-322.085	-173.329	0.191	-0.006
-321.070	800.000	0.035	-0.132
-320.056	-89.884	0.394	-0.116
-319.041	800.000	0.068	0.221
-318.026	-200.000	0.044	-0.228
-317.012	119.134	-0.067	-0.083
-315.997	88.169	0.119	0.132
-314.983	-63.477	0.170	-0.070
-313.968	-76.651	0.320	-0.113
-312.953	-15.859	-0.230	-0.148
-311.939	-93.296	0.252	0.070
-310.924	16.058	0.240	-0.190
-309.910	56.007	-0.216	-0.211
-308.895	-60.978	0.162	-0.069
-307.880	-160.917	0.239	-0.013
-306.866	-85.974	0.140	-0.043
-305.851	113.557	0.095	0.116
-304.837	-27.950	-0.355	0.207
-303.822	194.548	0.130	-0.199
-302.807	-200.000	0.034	0.253
-301.793	-114.591	-0.099	-0.019
-300.778	-43.972	-0.027	0.014
-299.764	11.453	-0.288	0.222
-298.749	-200.000	-0.004	-0.284
-297.735	-48.995	-0.097	0.047
-296.720	800.000	0.074	-0.240
-295.705	-200.000	0.010	-0.248
-294.691	420.095	0.059	-0.126
-293.676	-200.000	-0.016	-0.177
-292.662	800.000	0.047	0.202
-291.647	565.615	-0.113	0.276
-290.632	22.404	0.183	0.150
-289.618	-140.890	-0.364	-0.038
-288.603	-200.000	-0.003	0.025
-287.589	-18.779	-0.268	-0.168
-286.574	-200.000	0.035	-0.268
-285.559	37.607	0.175	-0.156
-284.545	-155.982	0.266	0.017
-283.530	-200.000	0.031	-0.245
-282.516	-82.210	0.334	0.109
-281.501	-136.346	-0.101	-0.012
-280.486	-200.000	-0.057	-0.340
-279.472	84.931	-0.113	-0.125
-278.457	-4.332	-0.070	-0.049
-277.443	800.000	-0.068	0.270
-276.428	174.881	0.177	-0.257
-275.413	0.519	-0.163	0.117
-274.399	-132.401	0.315	-0.041
-273.384	-144.173	0.473	-0.044
-272.370	-200.000	0.058	-0.268
-271.355	545.935	0.042	-0.101
-270.340	128.898	0.094	-0.121
-269.326	-200.000	0.062	-0.284
-268.311	800.000	0.089	0.385
-267.297	-22.253	0.424	0.258
-266.282	-19.178	-0.045	0.028
-265.267	-156.361	-0.173	-0.011
-264.253	800.000	0.043	0.144
-263.238	34.090	0.162	-0.141
-262.224	-145.153	-0.304	-0.028
-261.209	459.126	-0.063	-0.141
-260.195	800.000	0.010	-0.032
-259.180	-51.153	0.171	-0.080
-258.165	306.364	-0.189	0.352
-257.151	-124.372	-0.290	-0.045
-256.136	-200.000	0.242	-0.001
-255.122	429.355	-0.043	0.093
-254.107	-53.210	-0.128	-0.059
-253.092	-200.000	-0.036	0.270
-252.078	-200.000	0.014	-0.097
-251.063	219.758	0.092	-0.149
-250.049	-200.000	0.007	-0.065
-249.034	124.336	0.071	-0.090
-248.019	545.491	-0.080	0.193
-247.005	800.000	-0.104	0.312
-245.990	3.879	0.407	0.298
-244.976	7.511	0.110	-0.083
-243.961	-57.838	-0.153	-0.067
-242.946	-167.182	0.134	0.005
-241.932	-104.761	-0.114	-0.026
-240.917	-173.079	-0.137	-0.004
-239.903	141.969	0.178	0.236
-238.888	-85.123	0.173	0.054
-237.873	-200.000	0.020	-0.246
-236.859	64.145	0.125	-0.126
-235.844	139.248	0.092	0.122
-234.830	-136.733	0.320	-0.037
-233.815	152.708	-0.256	-0.351
-232.800	116.551	0.034	-0.042
-231.786	-131.936	0.342	0.045
-230.771	127.338	0.210	0.267
-229.757	-94.321	0.080	-0.022
-228.742	-123.527	0.130	-0.021
-227.727	96.926	-0.189	0.217
-226.713	200.676	0.135	0.208
-225.698	98.850	0.136	0.157
-224.684	-63.566	-0.175	-0.072
-223.669	800.000	-0.011	-0.045
-222.655	-17.718	0.141	-0.089
-221.640	-38.468	0.154	0.082
-220.625	324.988	0.037	-0.070
-219.611	144.203	-0.111	0.148
-218.596	703.042	-0.087	0.229
-217.582	-200.000	-0.026	-0.128
-216.567	-47.387	-0.150	0.073
-215.552	-200.000	-0.001	-0.117
-214.538	408.190	-0.160	-0.339
-213.523	436.621	-0.086	-0.187
-212.509	-200.000	0.011	0.414
-211.494	-55.291	-0.376	-0.169
-210.479	-199.726	-0.192	0.001
-209.465	-200.000	-0.035	-0.173
-208.450	-200.000	-0.031	0.306
-207.436	-73.246	0.173	0.063
-206.421	72.138	0.220	-0.230
-205.406	-61.157	-0.202	0.085
-204.392	800.000	0.030	-0.107
-203.377	-86.467	0.279	0.086
-202.363	5.298	-0.129	0.095
-201.348	514.862	-0.023	0.053
-200.333	-103.871	0.226	0.053
-199.319	463.600	-0.124	-0.277
-198.304	800.000	-0.061	0.216
-197.290	88.193	-0.298	0.332
-196.275	93.348	0.148	-0.168
-195.260	360.270	0.027	0.055
-194.246	-4.574	0.099	0.068
-193.231	800.000	0.039	0.163
-192.217	315.671	0.121	0.228
-191.202	10.063	-0.148	0.112
-190.187	-36.361	-0.029	-0.016
-189.173	-186.256	0.329	0.005
-188.158	-101.606	0.216	-0.052
-187.144	-58.463	0.020	-0.009
-186.129	230.921	-0.143	-0.235
-185.114	-99.431	0.251	0.063
-184.100	800.000	0.143	0.443
-183.085	680.022	-0.029	0.074
-182.071	-200.000	0.039	0.232
-181.056	308.323	0.192	0.359
-180.042	-138.622	-0.475	0.052
-179.027	-200.000	0.048	-0.313
-178.012	-200.000	0.011	0.328
-176.998	-190.274	0.393	0.004
-175.983	27.145	-0.044	-0.037
-174.969	-200.000	0.021	-0.140
-173.954	30.445	0.201	0.172
-172.939	-174.294	-0.256	-0.007
-171.925	-200.000	-0.015	0.098
-170.910	-200.000	-0.052	0.330
-169.896	524.727	0.021	0.049
-168.881	-96.232	0.136	0.036
-167.866	17.055	-0.158	0.125
-166.852	-162.778	0.125	0.006
-165.837	-110.750	0.020	-0.004
-164.823	122.173	0.106	-0.133
-163.808	76.071	-0.279	0.295
-162.793	111.079	0.226	0.272
-161.779	307.154	0.016	-0.030
-160.764	800.000	0.088	0.281
-159.750	-124.082	-0.259	-0.041
-158.735	800.000	0.094	-0.368
-157.720	-16.905	0.170	-0.108
-156.706	732.905	0.042	0.111
-155.691	-51.310	-0.130	0.061
-154.677	-127.299	-0.167	-0.024
-153.662	56.100	-0.216	-0.209
-152.647	-200.000	0.024	-0.206
-151.633	359.738	-0.147	-0.294
-150.618	-66.030	0.120	-0.048
-149.604	-87.634	0.163	-0.049
-148.589	299.306	0.050	0.091
-147.574	365.076	0.097	-0.195
-146.560	184.095	-0.127	-0.188
-145.545	-93.307	-0.196	-0.054
-144.531	-89.955	-0.118	0.034
-143.516	-147.047	-0.136	0.012
-142.502	800.000	-0.013	-0.044
-141.487	266.171	0.068	-0.119
-140.472	-38.729	0.010	0.005
-139.458	-44.917	-0.418	-0.208
-138.443	-70.160	-0.243	0.092
-137.429	187.637	0.183	0.273
-136.414	149.198	0.258	-0.349
-135.399	56.048	0.118	-0.114
-134.385	800.000	0.068	-0.259
-133.370	54.549	-0.167	-0.161
-132.356	-53.309	-0.077	-0.035
-131.341	302.540	0.090	-0.166
-130.326	-200.000	0.015	0.282
-129.312	-33.329	0.022	0.012
-128.297	162.626	-0.088	-0.124
-127.283	23.922	-0.266	-0.219
-126.268	-90.819	-0.075	0.022
-125.253	73.026	-0.260	-0.271
-124.239	-64.754	-0.140	0.057
-123.224	-31.297	0.116	0.065
-122.210	16.536	-0.156	-0.123
-121.195	-40.818	0.199	-0.103
-120.180	-67.348	0.380	0.149
-119.166	-104.005	-0.256	0.059
-118.151	-200.000	-0.012	-0.089
-117.137	-98.122	-0.136	0.035
-116.122	-136.279	-0.422	0.049
-115.107	377.507	-0.077	-0.156
-114.093	-196.393	0.106	-0.001
-113.078	189.240	-0.069	-0.103
-112.064	-200.000	0.023	0.242
-111.049	-200.000	0.003	0.087
-110.034	233.767	-0.124	0.203
-109.020	-200.000	0.034	-0.195
-108.005	142.587	-0.062	0.082
-106.991	-200.000	0.046	0.238
-105.976	619.392	0.073	-0.183
-104.962	21.158	0.206	-0.166
-103.947	503.079	0.087	0.200
-102.932	-17.296	-0.227	-0.142
-101.918	-35.499	0.053	-0.029
-100.903	-67.152	-0.174	0.069
-99.889	241.850	0.102	-0.170
-98.874	-180.078	-0.334	0.007
-97.859	19.792	-0.169	-0.136
-96.845	475.906	-0.088	0.199
-95.830	160.040	-0.203	-0.283
-94.816	800.000	-0.081	-0.281
-93.801	-47.874	-0.278	0.134
-92.786	-95.824	0.112	0.030
-91.772	278.037	-0.167	0.296
-90.757	-35.663	-0.031	0.017
-89.743	-200.000	-0.001	0.142
-88.728	-32.413	-0.094	0.052
-87.713	-128.402	-0.200	-0.028
-86.699	104.875	0.232	0.272
-85.684	378.734	-0.191	-0.389
-84.670	267.483	-0.055	-0.097
-83.655	-140.688	-0.409	-0.042
-82.640	-200.000	0.021	-0.158
-81.626	623.682	-0.029	0.073
-80.611	-54.132	-0.316	0.143
-79.597	500.528	0.073	-0.167
-78.582	177.722	0.089	0.130
-77.567	-23.681	-0.188	-0.113
-76.553	-200.000	-0.040	-0.198
-75.538	-200.000	-0.035	-0.181
-74.524	-71.704	0.051	-0.019
-73.509	-200.000	0.004	-0.136
-72.494	-19.878	-0.207	-0.127
-71.480	76.469	0.223	-0.235
-70.465	15.669	0.392	-0.307
-69.451	800.000	-0.036	-0.103
-68.436	648.906	-0.204	-0.520
-67.422	-200.000	-0.010	0.181
-66.407	-105.503	-0.373	0.084
-65.392	-200.000	0.019	0.302
-64.378	386.817	-0.191	-0.393
-63.363	-200.000	0.058	-0.310
-62.349	-104.860	0.180	-0.041
-61.334	64.511	-0.700	-0.703
-60.319	465.498	0.185	0.412
-59.305	388.967	0.283	-0.585
-58.290	321.041	0.467	0.883
-57.276	602.352	0.730	1.807
-56.261	-200.000	76.715	507.608
-55.246	500.074	1346.874	3093.475
-54.232	143.942	2584.106	3431.129
-53.217	114.920	2240.323	2721.317
-52.203	51.577	1684.907	1594.790
-51.188	43.753	1409.698	1284.849
-50.173	40.180	1364.359	1221.466
-49.159	58.482	1399.529	1367.337
-48.144	64.740	1418.792	1425.053
-47.130	44.179	1381.336	1261.442
-46.115	40.175	1364.536	1221.398
-45.100	39.894	1359.984	1215.545
-44.086	39.851	1357.728	1213.218
-43.071	39.800	1355.557	1210.918
-42.057	39.818	1352.765	1208.485
-41.042	39.847	1351.256	1207.270
-40.027	39.890	1349.890	1206.260
-39.013	39.849	1348.121	1204.381
-37.998	40.031	1345.835	1203.399
-36.984	39.972	1343.956	1201.317
-35.969	40.074	1342.514	1200.595
-34.954	40.188	1340.087	1199.071
-33.940	40.052	1339.243	1197.443
-32.925	40.220	1337.654	1196.990
-31.911	40.246	1336.043	1195.660
-30.896	40.195	1334.407	1193.839
-29.881	40.106	1333.487	1192.436
-28.867	40.100	1332.044	1191.063
-27.852	40.115	1330.220	1189.470
-26.838	40.163	1328.915	1188.547
-25.823	40.092	1327.753	1187.033
-24.809	40.074	1326.369	1185.645
-23.794	40.213	1324.633	1184.873
-22.779	40.106	1323.467	1183.147
-21.765	40.092	1321.930	1181.642
-20.750	40.162	1320.370	1180.616
-19.736	40.079	1318.810	1178.681
-18.721	40.074	1317.543	1177.473
-17.706	40.047	1316.403	1176.248
-16.692	40.047	1315.337	1175.247
-15.677	40.003	1314.286	1174.000
-14.663	40.037	1313.150	1173.139
-13.648	39.905	1312.305	1171.554
-12.633	39.919	1311.176	1170.587
-11.619	39.895	1310.441	1169.741
-10.604	39.961	1309.641	1169.370
-9.590	39.963	1308.485	1168.302
-8.575	39.890	1307.649	1167.078
-7.560	40.034	1306.534	1166.886
-6.546	39.993	1305.469	1165.649
-5.531	39.933	1304.778	1164.633
-4.517	40.019	1303.829	1164.241
-3.502	39.954	1302.699	1162.808
-2.487	40.054	1302.001	1162.727
-1.473	39.997	1298.420	1159.145
-0.458	39.142	1283.410	1140.742
0.556	35.626	1263.389	1099.847
1.571	31.464	1267.776	1079.599
2.586	30.265	1282.869	1085.346
3.600	28.794	1271.663	1067.235
4.615	20.824	1193.056	957.545
5.629	8.284	1108.260	824.970
6.644	2.433	1083.592	776.902
7.659	1.938	1080.735	772.279
8.673	1.895	1079.010	770.761
9.688	1.766	1078.083	769.376
10.702	2.183	1076.632	770.378
11.717	8.961	1087.416	812.456
12.731	20.318	1104.181	883.013
13.746	25.246	1109.617	912.409
14.761	25.368	1109.389	912.760
15.775	25.285	1108.979	911.922
16.790	25.057	1108.035	909.909
17.804	25.067	1107.483	909.426
18.819	25.091	1107.131	909.178
19.834	25.221	1106.857	909.529
20.848	25.291	1106.356	909.391
21.863	25.259	1105.383	908.348
22.877	25.187	1104.683	907.332
23.892	25.150	1104.359	906.798
24.907	25.225	1103.581	906.458
25.921	25.163	1102.497	905.175
26.936	25.150	1101.182	903.948
27.950	25.214	1099.297	902.644
28.965	25.112	1097.592	900.650
29.980	25.053	1096.787	899.614
30.994	25.336	1095.409	899.824
32.009	25.322	1094.584	898.995
33.023	25.186	1092.803	896.775
34.038	25.146	1092.633	896.357
35.053	25.220	1091.986	896.115
36.067	25.243	1091.036	895.368
37.082	25.271	1090.354	894.869
38.096	25.337	1089.749	894.622
39.111	25.593	1088.583	894.862
40.126	25.352	1087.223	892.467
41.140	24.837	1086.041	888.862
42.155	24.718	1084.279	886.746
43.169	24.823	1083.356	886.434
44.184	24.786	1082.649	885.593
45.199	24.719	1081.895	884.571
46.213	24.816	1080.477	883.812
47.228	25.054	1079.657	884.237
48.242	25.194	1078.855	884.190
49.257	25.232	1078.077	883.661
50.271	25.379	1077.144	883.545
51.286	25.352	1076.721	882.984
52.301	25.321	1075.700	881.919
53.315	25.277	1074.931	880.993
54.330	25.129	1073.996	879.424
55.344	25.252	1073.007	879.139
56.359	25.156	1071.986	877.753
57.374	24.965	1071.271	876.154
58.388	25.040	1070.464	875.784
59.403	24.890	1069.633	874.296
60.417	24.731	1068.644	872.635
61.432	24.836	1067.964	872.511
62.447	24.940	1067.657	872.694
63.461	25.024	1066.557	872.123
64.476	24.881	1065.904	870.819
65.490	24.791	1064.958	869.529
66.505	25.024	1063.896	869.720
67.520	24.963	1063.467	868.995
68.534	24.705	1062.432	866.821
69.549	24.524	1060.748	864.494
70.563	24.444	1060.693	863.987
71.578	24.510	1059.557	863.305
72.593	24.285	1058.840	861.557
73.607	24.233	1058.680	861.097
74.622	24.687	1057.964	862.628
75.636	24.820	1057.038	862.438
76.651	24.453	1056.413	860.085
77.666	24.563	1055.503	859.797
78.680	24.575	1054.783	859.191
79.695	24.806	1054.173	859.731
80.709	24.768	1053.662	859.057
81.724	24.807	1052.438	858.167
82.739	24.886	1051.560	857.754
83.753	25.168	1051.233	858.761
84.768	25.404	1050.444	859.170
85.782	25.623	1049.984	859.766
86.797	25.554	1048.593	858.224
87.812	25.409	1048.083	857.039
88.826	25.469	1046.935	856.309
89.841	25.536	1046.131	855.894
90.855	25.530	1045.282	855.093
91.870	25.490	1044.036	853.808
92.884	25.362	1042.911	852.205
93.899	25.366	1042.057	851.453
94.914	25.461	1041.472	851.349
95.928	25.328	1040.335	849.714
96.943	24.934	1038.972	846.666
97.957	24.920	1037.529	845.349
98.972	24.842	1036.457	844.032
99.987	24.932	1035.934	843.953
101.001	25.197	1035.623	844.875
102.016	25.119	1034.556	843.561
103.030	25.097	1033.374	842.422
104.045	24.906	1032.671	840.876
105.060	24.862	1031.578	839.706
106.074	25.007	1030.940	839.790
107.089	25.182	1030.967	840.557
108.103	25.154	1029.651	839.283
109.118	24.989	1027.910	837.018
110.133	24.859	1027.022	835.614
111.147	24.759	1026.017	834.257
112.162	24.635	1025.231	832.965
113.176	24.982	1024.583	833.981
114.191	24.927	1023.644	832.887
115.206	24.430	1023.098	830.056
116.220	24.550	1022.209	829.819
117.235	24.590	1021.591	829.432
118.249	24.649	1020.410	828.674
119.264	24.616	1019.575	827.767
120.279	24.687	1019.046	827.592
121.293	24.602	1018.227	826.462
122.308	24.620	1017.595	825.958
123.322	24.562	1016.583	824.798
124.337	24.489	1015.344	823.381
125.352	23.998	1013.006	819.154
126.366	23.880	1012.408	818.054
127.381	24.565	1012.594	821.285
128.395	25.026	1011.800	822.684
129.410	25.169	1011.506	823.027
130.424	25.303	1010.169	822.481
131.439	25.115	1009.342	820.876
132.454	25.165	1008.446	820.301
133.468	25.231	1007.022	819.371
134.483	25.155	1007.116	819.029
135.497	25.223	1006.607	818.854
136.512	25.399	1005.520	818.701
137.527	25.460	1004.492	818.068
138.541	25.448	1003.957	817.506
139.556	25.490	1002.631	816.544
140.570	25.476	1002.323	816.157
141.585	25.554	1000.989	815.351
142.600	25.474	1000.275	814.337
143.614	25.650	999.458	814.397
144.629	25.721	998.920	814.208
145.643	25.606	997.553	812.501
146.658	25.559	995.923	810.891
147.673	25.414	994.869	809.305
148.687	25.252	994.014	807.810
149.702	25.221	992.898	806.694
150.716	25.113	992.017	805.419
151.731	25.411	991.478	806.250
152.746	25.548	991.245	806.604
153.760	25.544	990.356	805.788
154.775	25.622	989.570	805.430
155.789	25.546	989.147	804.671
156.804	25.435	987.873	803.068
157.819	25.547	987.379	803.099
158.833	25.630	986.633	802.789
159.848	25.660	985.406	801.854
160.862	25.496	984.256	800.118
161.877	25.639	983.182	799.808
162.892	25.596	982.149	798.707
163.906	25.515	980.902	797.262
164.921	25.354	980.535	796.179
165.935	25.559	979.606	796.261
166.950	25.532	978.494	795.168
167.964	25.521	977.767	794.460
168.979	25.468	976.216	792.894
169.994	25.316	975.569	791.628
171.008	25.653	975.134	792.689
172.023	25.475	974.417	791.257
173.037	25.300	973.458	789.638
174.052	25.251	971.990	788.159
175.067	25.261	971.569	787.795
176.081	25.437	970.867	787.925
177.096	25.312	970.477	786.990
178.110	25.071	969.254	784.875
179.125	24.931	968.301	783.422
180.140	24.976	967.763	783.113
181.154	25.189	967.618	783.859
182.169	25.385	967.745	784.746
183.183	25.555	967.502	785.226
184.198	25.431	966.817	784.057
185.213	25.334	965.853	782.784
186.227	25.459	965.288	782.799
187.242	25.473	964.552	782.194
188.256	25.615	963.910	782.225
189.271	25.704	962.789	781.633
190.286	25.387	961.665	779.276
191.300	24.658	960.205	774.865
192.315	23.932	958.550	770.317
193.329	23.917	958.226	769.923
194.344	24.755	959.004	774.109
195.359	25.306	959.011	776.431
196.373	25.397	958.453	776.302
197.388	25.300	957.941	775.400
198.402	25.523	956.695	775.286
199.417	25.499	956.217	774.724
200.432	25.223	955.586	772.957
201.446	25.063	954.596	771.399
202.461	25.171	953.766	771.125
203.475	24.310	952.135	766.040
204.490	23.433	950.574	760.954
205.504	24.272	951.314	765.081
206.519	24.936	950.963	767.581
207.534	25.108	950.497	767.872
208.548	25.494	950.421	769.394
209.563	25.220	949.481	767.396
210.577	25.157	948.710	766.435
211.592	25.638	948.348	768.127
212.607	25.666	947.807	767.741
213.621	25.675	946.914	766.990
214.636	25.655	946.148	766.215
215.650	25.545	945.559	765.203
216.665	25.668	945.236	765.397
217.680	25.702	943.898	764.389
218.694	25.155	943.027	761.293
219.709	25.084	942.603	760.583
220.723	25.314	942.286	761.237
221.738	25.494	941.439	761.246
222.753	25.320	940.992	760.083
223.767	25.399	940.658	760.081
224.782	25.874	939.942	761.441
225.796	25.797	939.673	760.830
226.811	25.036	937.908	756.122
227.826	24.408	936.236	752.062
228.840	24.663	935.913	752.813
229.855	24.796	935.138	752.681
230.869	24.280	934.524	749.949
231.884	24.769	934.547	751.958
232.899	25.372	934.663	754.521
233.913	25.219	934.098	753.356
234.928	25.321	933.058	752.878
235.942	25.336	932.114	752.112
236.957	25.036	931.250	750.094
237.972	25.052	931.198	750.049
238.986	25.075	930.716	749.694
240.001	25.269	929.853	749.741
241.015	25.275	929.266	749.225
242.030	25.469	928.997	749.752
243.045	25.395	928.712	749.146
244.059	25.711	927.806	749.667
245.074	25.400	927.054	747.697
246.088	25.076	926.151	745.557
247.103	25.269	926.092	746.247
248.117	25.992	925.490	748.697
249.132	25.882	925.603	748.266
250.147	26.230	925.226	749.339
251.161	26.284	924.483	748.894
252.176	26.244	924.179	748.418
253.190	26.313	923.527	748.108
254.205	26.455	922.951	748.162
255.220	26.339	922.412	747.178
256.234	26.489	920.951	746.549
257.249	26.293	920.378	745.209
258.263	26.114	920.117	744.194
259.278	26.156	919.412	743.731
260.293	26.465	918.487	744.190
261.307	26.348	917.736	743.036
262.322	26.106	917.085	741.448
263.336	25.458	914.775	736.858
264.351	24.316	913.473	731.065
265.366	24.424	913.101	731.144
266.380	25.508	913.434	735.789
267.395	26.015	913.119	737.543
268.409	25.754	912.666	736.044
269.424	26.149	912.259	737.265
270.439	26.092	912.016	736.769
271.453	26.149	910.910	736.046
272.468	26.363	910.910	736.850
273.482	26.536	909.980	736.737
274.497	25.998	908.708	733.455
275.512	25.574	908.169	731.232
276.526	26.110	907.824	733.066
277.541	26.136	907.539	732.877
278.555	25.951	906.807	731.472
279.570	25.874	906.111	730.533
280.585	25.959	905.553	730.364
281.599	25.912	904.858	729.546
282.614	25.341	903.435	726.027
283.628	25.397	902.820	725.694
284.643	25.742	902.533	726.795
285.657	25.290	901.464	724.044
286.672	25.043	900.607	722.296
287.687	25.684	900.744	724.925
288.701	25.780	899.935	724.600
289.716	25.447	899.106	722.528
290.730	25.402	898.227	721.577
291.745	25.188	897.144	719.785
292.760	25.381	897.235	720.568
293.774	26.392	897.492	724.766
294.789	26.733	897.223	725.850
295.803	26.643	896.656	724.968
296.818	26.757	896.233	725.017
297.833	26.244	894.731	721.688
298.847	26.151	894.122	720.760
299.862	26.617	893.623	722.154
300.876	26.828	893.284	722.657
301.891	26.659	892.843	721.562
302.906	26.072	892.133	718.591
303.920	26.287	892.079	719.337
304.935	26.607	891.612	720.170
305.949	26.620	890.624	719.362
306.964	26.407	890.174	718.090
307.979	26.390	889.451	717.373
308.993	26.786	889.555	718.966
310.008	26.820	888.676	718.324
311.022	26.548	887.714	716.406
312.037	26.395	887.270	715.383
313.052	26.252	885.986	713.716
314.066	25.180	884.447	708.184
315.081	24.875	884.164	706.689
316.095	25.776	884.087	710.120
317.110	26.368	883.740	712.111
318.125	25.495	882.300	707.455
319.139	24.287	881.321	701.856
320.154	24.348	880.800	701.616
321.168	25.217	881.515	705.547
322.183	25.981	881.148	708.191
323.197	26.143	881.008	708.651
324.212	26.511	880.344	709.497
325.227	26.400	879.882	708.626
326.241	26.247	879.275	707.476
327.256	26.135	878.604	706.436
328.270	26.108	877.860	705.668
329.285	25.982	877.023	704.441
330.300	25.748	876.171	702.781
331.314	26.018	875.575	703.297
332.329	26.301	876.043	704.712
333.343	26.612	875.645	705.543
334.358	26.500	875.426	704.866
335.373	26.539	874.885	704.522
336.387	26.863	874.635	705.516
337.402	27.031	874.668	706.134
338.416	26.918	873.913	705.023
339.431	26.991	874.042	705.349
340.446	27.094	873.699	705.412
341.460	27.064	872.840	704.537
342.475	26.869	872.116	703.135
343.489	26.915	871.817	703.012
344.504	27.283	871.463	704.086
345.519	27.503	871.209	704.669
346.533	27.465	870.638	704.001
347.548	27.370	870.347	703.336
348.562	27.292	869.529	702.312
349.577	27.192	869.221	701.615
350.592	27.159	868.704	701.005
351.606	27.001	868.139	699.881
352.621	27.148	866.786	699.293
353.635	27.034	865.741	697.950
354.650	26.434	864.352	694.464
355.665	25.486	863.011	689.692
356.679	25.853	863.045	691.067
357.694	26.306	862.586	692.373
358.708	26.170	861.873	691.217
359.723	26.678	861.565	692.854
360.738	27.093	861.111	694.011
361.752	27.104	861.156	694.028
362.767	27.267	860.889	694.377
363.781	27.556	860.242	694.895
364.796	27.719	859.987	695.247
365.810	27.838	859.572	695.306
366.825	27.752	858.884	694.357
367.840	27.360	858.167	692.229
368.854	26.958	857.006	689.703
369.869	26.906	857.050	689.478
370.883	26.962	856.469	689.165
371.898	27.063	855.900	689.027
372.913	27.036	855.924	688.884
373.927	27.234	855.066	688.881
374.942	27.401	854.543	689.031
375.956	27.520	854.300	689.224
376.971	27.557	853.671	688.798
377.986	27.651	853.863	689.245
379.000	27.543	852.974	688.058
380.015	27.479	852.419	687.311
381.029	27.477	851.801	686.744
382.044	27.586	851.447	686.806
383.059	27.699	850.522	686.424
384.073	27.652	850.286	685.997
385.088	27.636	849.603	685.327
386.102	27.515	848.787	684.154
387.117	27.346	847.945	682.781
388.132	26.957	846.755	680.304
389.146	26.569	845.996	678.181
390.161	26.936	846.164	679.629
391.175	27.181	846.160	680.482
392.190	27.058	844.700	678.789
393.205	25.690	842.423	671.796
394.219	24.407	840.456	665.390
395.234	23.996	840.483	663.819
396.248	25.603	842.153	671.081
397.263	27.093	842.851	677.135
398.278	27.082	842.468	676.724
399.292	26.913	841.462	675.230
400.307	26.854	841.423	674.918
401.321	27.064	840.619	674.993
402.336	27.358	840.825	676.192
403.350	27.706	840.647	677.282
404.365	28.078	840.741	678.679
405.380	28.251	840.283	678.891
406.394	28.492	839.366	678.981
407.409	28.387	838.725	678.014
408.423	28.254	838.734	677.471
409.438	28.440	838.250	677.707
410.453	28.435	837.775	677.246
411.467	28.289	837.183	676.165
412.482	28.259	837.022	675.867
413.496	28.405	836.619	676.021
414.511	28.503	836.176	675.962
415.526	28.424	835.444	675.019
416.540	28.323	834.702	673.990
417.555	28.008	834.195	672.362
418.569	28.092	834.012	672.465
419.584	28.046	833.548	671.861
420.599	27.923	832.529	670.528
421.613	95.569	1269.236	1383.066
422.628	82.677	1332.908	1383.202
