DTS Sentinel unit serial number:	SN413079Multiplexer serial number:	ORYXHardware model number:	OX4-SRSoftware version number:	ORYX F/W v4.00 Oryx Data Collector v3.7.2.0data status	okinstallation	princeton_trtdifferential loss correction	single-endedforward channel	channel 1reverse channel	N/Adate	2019/09/12time	14:12:11forward acquisition time	60.00reverse acquisition time	0.00gamma	496.2192k internal	0.2293k external	0.2293temperature offset calibration	1.0057default loss term (dB/km)	0.3790temperature slope calibration	1.0000multiplexer offset coefficient	1.0000multiplexer slope coefficient	1.0000fibre end	0.00T internal ref (°C)	40.31T ext. ref 1 (°C)	2.22T ext. ref 2 (°C)	35.74length (m)	temperature (°C)	Stokes	anti-Stokes-747.200	441.606	0.170	-0.381
-746.185	800.000	-0.068	0.285
-745.171	102.987	-0.130	-0.155
-744.156	79.271	0.268	0.294
-743.142	12.892	-0.274	0.217
-742.127	-200.000	-0.096	0.532
-741.112	-167.003	-0.294	0.012
-740.098	163.306	0.121	0.175
-739.083	51.707	-0.087	-0.085
-738.069	168.848	-0.195	0.284
-737.054	217.736	-0.137	-0.223
-736.039	83.932	-0.256	-0.286
-735.025	1.690	-0.144	-0.106
-734.010	-200.000	0.068	-0.337
-732.996	-200.000	0.033	-0.497
-731.981	-125.756	-0.502	0.078
-730.966	26.147	-0.015	0.012
-729.952	-200.000	-0.020	-0.093
-728.937	37.631	-0.285	0.258
-727.923	2.299	-0.294	0.217
-726.908	-186.379	-0.153	-0.002
-725.894	334.733	-0.149	-0.295
-724.879	-86.348	0.134	-0.042
-723.864	-89.650	-0.312	0.093
-722.850	339.495	0.145	-0.290
-721.835	-116.864	0.173	-0.032
-720.821	169.600	0.143	0.208
-719.806	129.422	0.145	0.190
-718.791	80.096	0.070	0.077
-717.777	-75.975	-0.360	-0.130
-716.762	-11.136	0.124	-0.084
-715.748	800.000	0.069	-0.203
-714.733	270.019	0.275	0.493
-713.718	-49.968	-0.211	0.102
-712.704	16.447	0.090	0.073
-711.689	800.000	-0.090	0.278
-710.675	-177.893	-0.347	-0.008
-709.660	-200.000	0.001	0.474
-708.645	364.797	-0.188	0.387
-707.631	-200.000	-0.000	0.031
-706.616	-45.965	-0.242	0.122
-705.602	90.683	-0.066	0.076
-704.587	-200.000	0.009	0.221
-703.572	635.086	-0.071	0.184
-702.558	-27.166	0.046	0.027
-701.543	-200.000	-0.001	0.089
-700.529	30.984	-0.064	0.056
-699.514	-37.567	-0.016	0.008
-698.499	186.939	0.171	-0.260
-697.485	-34.891	-0.161	0.090
-696.470	-35.139	0.236	-0.131
-695.456	21.594	-0.204	-0.169
-694.441	128.788	-0.057	-0.074
-693.426	-200.000	0.020	-0.289
-692.412	116.122	0.211	-0.264
-691.397	-32.158	0.089	0.051
-690.383	-49.813	0.084	0.041
-689.368	23.284	-0.067	-0.056
-688.354	51.692	0.217	-0.211
-687.339	144.442	-0.088	0.120
-686.324	551.065	0.096	0.235
-685.310	-91.242	0.138	0.040
-684.295	709.684	-0.056	-0.152
-683.281	156.925	-0.149	-0.210
-682.266	800.000	0.071	-0.205
-681.251	-200.000	-0.060	-0.306
-680.237	-31.431	0.263	-0.151
-679.222	546.938	0.023	-0.057
-678.208	-121.564	0.254	-0.043
-677.193	768.276	-0.013	0.036
-676.178	-17.374	-0.183	-0.118
-675.164	-200.000	0.001	0.155
-674.149	186.024	-0.209	-0.317
-673.135	198.005	-0.150	0.234
-672.120	86.452	0.076	0.086
-671.105	-50.752	-0.448	0.215
-670.091	374.003	-0.221	0.460
-669.076	-48.744	0.013	0.006
-668.062	-19.660	0.177	0.111
-667.047	-91.874	-0.289	-0.084
-666.032	-32.797	-0.200	0.113
-665.018	-200.000	-0.012	-0.081
-664.003	-128.875	-0.215	-0.031
-662.989	229.844	-0.099	0.166
-661.974	170.552	-0.102	0.150
-660.959	21.077	-0.138	0.114
-659.945	280.002	0.111	0.201
-658.930	-162.073	-0.170	-0.009
-657.916	363.171	0.136	0.279
-656.901	613.871	0.081	0.207
-655.886	80.562	0.429	-0.472
-654.872	-106.085	-0.354	-0.081
-653.857	-47.034	-0.205	0.102
-652.843	-200.000	-0.019	-0.206
-651.828	-15.275	-0.232	-0.151
-650.814	99.688	-0.021	-0.025
-649.799	-24.429	-0.336	-0.204
-648.784	-157.905	-0.441	-0.027
-647.770	-200.000	-0.054	0.266
-646.755	313.853	-0.155	-0.297
-645.741	-200.000	-0.001	-0.137
-644.726	312.365	0.117	-0.223
-643.711	800.000	0.046	-0.169
-642.697	47.625	-0.093	-0.089
-641.682	143.426	0.015	0.021
-640.668	303.419	0.036	-0.068
-639.653	-174.416	-0.105	0.003
-638.638	-200.000	-0.033	0.179
-637.624	198.154	-0.124	-0.192
-636.609	-200.000	0.009	-0.226
-635.595	-83.788	-0.038	-0.012
-634.580	-108.053	0.103	0.023
-633.565	-98.808	-0.149	-0.038
-632.551	-200.000	0.028	-0.129
-631.536	-176.606	-0.209	0.005
-630.522	-138.707	-0.285	-0.032
-629.507	-100.093	-0.132	0.034
-628.492	-28.322	-0.292	0.172
-627.478	-116.900	-0.346	0.064
-626.463	55.561	0.127	0.125
-625.449	-16.390	0.165	0.106
-624.434	194.990	-0.024	-0.037
-623.419	-175.368	-0.331	-0.009
-622.405	-89.509	0.279	-0.083
-621.390	-189.464	0.152	-0.002
-620.376	174.266	0.076	-0.113
-619.361	21.395	-0.171	-0.142
-618.346	328.740	0.064	0.125
-617.332	27.305	0.028	-0.024
-616.317	-86.507	-0.287	0.090
-615.303	-77.217	0.313	0.111
-614.288	800.000	0.030	0.105
-613.273	-200.000	0.002	0.097
-612.259	-172.186	0.195	-0.006
-611.244	-200.000	0.055	0.398
-610.230	90.074	-0.177	-0.201
-609.215	19.174	0.095	0.077
-608.201	-192.646	-0.192	0.002
-607.186	-200.000	0.025	0.189
-606.171	800.000	-0.071	-0.199
-605.157	-200.000	-0.080	-0.383
-604.142	800.000	-0.045	-0.169
-603.128	84.253	0.126	0.140
-602.113	234.130	0.118	0.197
-601.098	90.824	0.086	0.098
-600.084	-200.000	0.034	-0.256
-599.069	282.603	0.187	0.342
-598.055	-200.000	0.001	0.273
-597.040	-200.000	-0.004	-0.096
-596.025	-13.759	0.178	-0.117
-595.011	331.137	-0.028	0.056
-593.996	-97.804	0.162	0.042
-592.982	800.000	-0.039	-0.173
-591.967	30.605	-0.074	0.064
-590.952	107.187	0.183	-0.221
-589.938	-200.000	-0.063	0.285
-588.923	800.000	-0.079	0.229
-587.909	-81.355	0.366	0.123
-586.894	-117.539	0.279	0.051
-585.879	-97.157	-0.473	-0.126
-584.865	154.391	0.257	-0.359
-583.850	-189.245	0.393	-0.005
-582.836	-110.923	0.086	0.018
-581.821	-200.000	0.008	-0.210
-580.806	17.510	0.087	0.071
-579.792	800.000	0.021	-0.070
-578.777	543.835	-0.130	-0.316
-577.763	-46.783	0.190	0.094
-576.748	26.296	0.210	0.178
-575.733	-82.512	0.048	-0.016
-574.719	93.746	0.309	0.356
-573.704	51.913	0.173	0.168
-572.690	-200.000	-0.063	0.341
-571.675	-200.000	-0.032	0.229
-570.661	-112.284	0.228	-0.047
-569.646	-116.596	0.261	-0.049
-568.631	-109.651	0.227	-0.049
-567.617	68.508	-0.224	-0.233
-566.602	88.192	0.324	-0.366
-565.588	86.208	0.053	0.059
-564.573	-70.201	-0.196	0.076
-563.558	-130.066	0.078	-0.011
-562.544	47.417	0.118	-0.112
-561.529	-200.000	-0.008	-0.091
-560.515	-200.000	-0.000	-0.006
-559.500	-200.000	0.045	-0.297
-558.485	-156.930	0.315	-0.020
-557.471	68.403	-0.160	-0.166
-556.456	425.759	0.067	-0.146
-555.442	-200.000	0.014	0.177
-554.427	293.636	-0.150	0.278
-553.412	-200.000	0.237	0.000
-552.398	-29.787	-0.108	0.063
-551.383	-97.428	0.098	0.026
-550.369	-114.135	-0.227	0.045
-549.354	310.612	0.128	0.243
-548.339	-200.000	0.043	0.202
-547.325	-147.292	-0.208	-0.018
-546.310	34.437	-0.138	-0.123
-545.296	-200.000	-0.001	-0.126
-544.281	-4.866	0.063	-0.044
-543.266	-200.000	-0.000	0.026
-542.252	126.139	0.226	-0.289
-541.237	203.195	-0.129	-0.202
-540.223	-61.749	0.227	0.096
-539.208	411.544	-0.069	-0.149
-538.193	144.522	0.102	-0.138
-537.179	800.000	0.055	-0.217
-536.164	800.000	0.028	0.112
-535.150	-200.000	0.009	0.259
-534.135	-56.837	0.193	-0.087
-533.121	-65.744	-0.369	-0.150
-532.106	52.164	-0.194	-0.187
-531.091	-62.054	-0.460	0.195
-530.077	-147.675	0.428	0.036
-529.062	-200.000	-0.035	-0.172
-528.048	20.256	-0.151	-0.124
-527.033	65.677	-0.293	0.301
-526.018	-200.000	0.010	-0.364
-525.004	-131.766	-0.315	0.042
-523.989	799.561	0.034	0.096
-522.975	223.577	-0.133	0.218
-521.960	-18.574	-0.300	0.190
-520.945	-144.258	0.286	0.027
-519.931	-86.096	-0.467	-0.146
-518.916	-93.517	0.213	0.060
-517.902	186.699	0.110	-0.165
-516.887	-200.000	0.035	0.171
-515.872	68.252	-0.033	0.035
-514.858	61.245	-0.203	-0.204
-513.843	91.672	0.367	0.419
-512.829	34.678	-0.091	0.081
-511.814	-103.431	0.449	-0.107
-510.799	37.470	0.086	-0.077
-509.785	-155.342	-0.194	0.013
-508.770	26.428	-0.252	-0.214
-507.756	-65.603	-0.080	0.032
-506.741	344.258	0.161	0.320
-505.726	800.000	-0.089	-0.298
-504.712	489.116	0.068	-0.156
-503.697	245.653	0.128	0.219
-502.683	-200.000	0.015	0.168
-501.668	69.099	0.098	-0.102
-500.653	306.567	-0.145	-0.274
-499.639	-128.783	0.109	-0.016
-498.624	-94.683	0.418	0.115
-497.610	-200.000	0.007	0.073
-496.595	-58.759	-0.308	0.135
-495.581	229.483	0.103	-0.171
-494.566	435.627	-0.069	0.153
-493.551	-141.835	-0.262	0.027
-492.537	8.880	-0.340	-0.260
-491.522	380.131	-0.121	0.252
-490.508	-100.959	0.268	0.067
-489.493	-200.000	0.037	0.466
-488.478	800.000	0.017	0.074
-487.464	-57.231	0.174	-0.078
-486.449	779.786	0.052	0.145
-485.435	112.586	-0.190	0.233
-484.420	587.726	-0.059	0.148
-483.405	9.090	-0.114	-0.087
-482.391	-200.000	0.001	0.165
-481.376	-200.000	-0.021	-0.322
-480.362	-200.000	-0.013	-0.433
-479.347	100.011	-0.237	0.278
-478.332	-84.320	0.128	-0.041
-477.318	-36.888	0.032	0.018
-476.303	277.114	0.145	-0.261
-475.289	-121.612	0.154	0.026
-474.274	33.878	-0.099	-0.087
-473.259	329.362	-0.037	-0.071
-472.245	-200.000	0.018	0.325
-471.230	-141.619	-0.225	-0.023
-470.216	-122.201	0.490	0.081
-469.201	-66.409	-0.145	0.058
-468.186	-200.000	0.009	-0.061
-467.172	284.543	-0.035	0.064
-466.157	103.262	0.191	-0.227
-465.143	-200.000	0.002	-0.130
-464.128	174.208	0.184	-0.269
-463.113	296.466	0.211	-0.391
-462.099	-200.000	0.019	-0.481
-461.084	800.000	-0.026	-0.111
-460.070	800.000	0.041	0.124
-459.055	215.214	-0.125	0.200
-458.040	421.771	-0.060	-0.130
-457.026	-1.403	0.285	0.204
-456.011	11.755	-0.096	-0.074
-454.997	-132.874	-0.059	0.008
-453.982	-14.222	0.033	0.021
-452.968	-99.206	-0.271	0.069
-451.953	100.926	0.243	0.286
-450.938	-104.429	0.321	-0.075
-449.924	185.095	0.185	0.277
-448.909	-116.180	0.210	0.039
-447.895	42.981	0.260	-0.239
-446.880	91.986	-0.103	-0.117
-445.865	-200.000	-0.018	-0.138
-444.851	123.624	-0.031	0.039
-443.836	-168.720	-0.329	-0.013
-442.822	-2.478	0.367	0.260
-441.807	-200.000	0.005	-0.391
-440.792	-106.771	-0.166	-0.037
-439.778	558.740	-0.130	-0.317
-438.763	800.000	-0.129	0.376
-437.749	-20.364	0.087	0.054
-436.734	723.172	-0.056	-0.151
-435.719	182.356	-0.052	-0.078
-434.705	28.745	0.068	0.058
-433.690	179.462	-0.096	0.142
-432.676	-51.912	0.102	0.048
-431.661	49.933	-0.155	0.147
-430.646	-37.727	0.172	0.092
-429.632	-61.714	-0.321	-0.136
-428.617	148.432	0.048	0.066
-427.603	-200.000	0.030	-0.270
-426.588	-79.550	-0.148	-0.050
-425.573	551.871	0.080	0.195
-424.559	-200.000	0.011	0.287
-423.544	423.691	0.032	-0.069
-422.530	-10.897	-0.182	-0.121
-421.515	0.352	0.457	0.330
-420.500	73.955	-0.266	0.281
-419.486	74.317	-0.229	0.243
-418.471	800.000	-0.111	-0.377
-417.457	574.435	0.089	-0.218
-416.442	5.568	0.173	-0.129
-415.428	-200.000	0.015	0.185
-414.413	-13.207	-0.027	0.018
-413.398	-64.737	-0.350	-0.143
-412.384	81.011	-0.069	0.075
-411.369	2.294	-0.265	0.194
-410.355	800.000	-0.103	-0.334
-409.340	-7.851	-0.261	0.178
-408.325	800.000	0.074	0.224
-407.311	66.822	0.170	-0.175
-406.296	203.704	-0.051	0.080
-405.282	-63.964	-0.122	0.050
-404.267	96.545	0.186	-0.215
-403.252	-84.667	-0.236	0.075
-402.238	-30.700	-0.060	-0.034
-401.223	-9.564	0.249	-0.168
-400.209	116.457	0.184	-0.228
-399.194	-173.605	0.300	0.009
-398.179	-43.745	-0.066	0.033
-397.165	209.252	-0.260	-0.411
-396.150	-74.450	0.313	0.114
-395.136	-200.000	-0.064	0.443
-394.121	-59.105	0.114	-0.050
-393.106	-71.309	-0.287	-0.109
-392.092	94.836	-0.169	-0.194
-391.077	-23.383	-0.174	0.106
-390.063	487.859	-0.080	-0.184
-389.048	800.000	0.065	-0.187
-388.033	57.996	-0.102	0.101
-387.019	-144.765	-0.221	0.021
-386.004	20.763	0.133	-0.108
-384.990	282.916	-0.109	0.197
-383.975	-21.409	0.372	0.229
-382.960	2.016	0.084	0.061
-381.946	-101.195	0.194	0.048
-380.931	2.012	0.184	-0.134
-379.917	-7.364	0.235	-0.160
-378.902	279.220	-0.104	0.188
-377.888	-66.473	-0.353	-0.141
-376.873	800.000	0.046	0.196
-375.858	-92.985	0.284	0.080
-374.844	392.890	-0.162	-0.339
-373.829	89.587	0.107	-0.121
-372.815	-86.000	0.325	-0.101
-371.800	185.088	0.032	0.047
-370.785	-6.679	-0.169	-0.116
-369.771	-93.034	0.587	-0.165
-368.756	-191.214	0.275	0.003
-367.742	46.466	-0.034	-0.032
-366.727	-30.202	0.130	0.074
-365.712	-40.252	-0.041	0.021
-364.698	150.368	0.025	-0.034
-363.683	423.809	-0.075	-0.162
-362.669	-128.045	0.349	-0.050
-361.654	-200.000	0.012	-0.221
-360.639	495.213	0.072	-0.166
-359.625	68.690	-0.301	-0.311
-358.610	670.005	0.057	0.148
-357.596	7.771	0.179	0.135
-356.581	-200.000	-0.018	-0.189
-355.566	149.529	-0.101	-0.137
-354.552	81.860	0.182	-0.199
-353.537	358.557	-0.081	-0.164
-352.523	800.000	0.156	0.541
-351.508	41.513	0.172	0.157
-350.493	-32.599	0.240	-0.134
-349.479	-159.096	0.253	0.014
-348.464	-68.985	-0.095	0.037
-347.450	-81.390	-0.353	-0.117
-346.435	131.669	-0.034	-0.044
-345.420	39.675	-0.249	-0.225
-344.406	800.000	-0.031	0.090
-343.391	-176.960	-0.116	0.003
-342.377	-131.458	-0.264	0.035
-341.362	94.539	0.214	-0.245
-340.348	-155.763	-0.412	-0.027
-339.333	-124.208	-0.633	0.100
-338.318	115.552	-0.072	-0.089
-337.304	-200.000	-0.003	0.258
-336.289	-200.000	0.027	0.162
-335.275	-62.585	0.254	0.106
-334.260	413.023	0.130	0.279
-333.245	23.954	-0.173	0.143
-332.231	9.492	0.426	-0.325
-331.216	-96.925	-0.250	0.066
-330.202	-172.432	0.324	-0.010
-329.187	22.671	-0.141	-0.116
-328.172	-111.238	0.321	0.066
-327.158	132.112	-0.030	-0.038
-326.143	-89.713	0.342	0.101
-325.129	-169.939	-0.327	-0.012
-324.114	47.649	-0.199	-0.187
-323.099	-65.554	0.148	-0.060
-322.085	76.386	-0.230	0.245
-321.070	98.573	0.022	0.026
-320.056	800.000	0.070	0.223
-319.041	-166.729	0.290	-0.012
-318.026	-109.401	-0.223	0.047
-317.012	-3.770	0.116	-0.081
-315.997	664.889	-0.020	-0.052
-314.983	-75.779	0.192	0.068
-313.968	93.089	-0.078	0.089
-312.953	81.334	-0.105	0.114
-311.939	800.000	-0.062	0.242
-310.924	252.534	-0.224	0.384
-309.910	-200.000	-0.042	-0.272
-308.895	-146.245	-0.228	0.020
-307.880	392.342	0.068	-0.143
-306.866	-164.886	0.125	0.006
-305.851	800.000	0.027	0.086
-304.837	-20.090	0.273	-0.169
-303.822	-200.000	0.019	-0.131
-302.807	-41.721	0.301	-0.155
-301.793	-95.238	0.302	0.082
-300.778	171.059	-0.052	0.075
-299.764	147.798	0.157	-0.213
-298.749	-200.000	0.010	-0.089
-297.735	800.000	-0.008	0.028
-296.720	61.536	-0.208	-0.208
-295.705	229.791	0.084	-0.138
-294.691	-200.000	-0.041	-0.249
-293.676	-200.000	0.045	0.307
-292.662	-187.697	0.731	-0.010
-291.647	-200.000	-0.022	0.406
-290.632	258.975	0.086	0.149
-289.618	33.812	-0.271	0.237
-288.603	-200.000	0.043	0.274
-287.589	800.000	0.063	-0.234
-286.574	-66.177	-0.417	0.167
-285.559	-60.605	0.184	-0.078
-284.545	183.761	0.121	0.180
-283.530	-92.758	0.198	-0.056
-282.516	-97.641	0.232	0.060
-281.501	101.163	-0.069	0.081
-280.486	-179.518	-0.325	-0.007
-279.472	-44.467	0.133	-0.067
-278.457	800.000	-0.050	0.172
-277.443	-200.000	-0.003	-0.318
-276.428	231.401	-0.087	0.144
-275.413	-170.403	-0.136	0.005
-274.399	109.694	0.143	-0.172
-273.384	-13.812	0.415	0.270
-272.370	-181.011	-0.175	0.004
-271.355	191.622	0.047	0.071
-270.340	46.543	-0.158	0.147
-269.326	-120.603	-0.239	-0.041
-268.311	800.000	0.066	-0.209
-267.297	-150.478	0.193	0.015
-266.282	-200.000	-0.016	0.338
-265.267	-98.134	0.358	0.093
-264.253	260.173	-0.233	0.405
-263.238	133.407	-0.129	0.168
-262.224	-200.000	-0.003	0.268
-261.209	13.330	-0.204	-0.159
-260.195	-158.679	-0.237	0.014
-259.180	-98.465	0.238	0.061
-258.165	6.343	-0.227	0.169
-257.151	298.431	-0.122	-0.226
-256.136	-71.489	-0.199	-0.075
-255.122	800.000	-0.083	0.332
-254.107	-76.998	-0.393	0.138
-253.092	46.889	-0.112	0.105
-252.078	12.702	-0.137	0.106
-251.063	21.638	-0.202	0.165
-250.049	-200.000	0.003	-0.274
-249.034	193.514	0.084	-0.128
-248.019	-46.458	0.081	0.040
-247.005	66.153	0.160	-0.163
-245.990	-157.917	-0.130	0.008
-244.976	-200.000	0.003	-0.225
-243.961	356.173	-0.040	0.079
-242.946	231.729	0.175	0.287
-241.932	36.725	0.198	-0.175
-240.917	10.956	0.117	0.090
-239.903	-144.761	0.113	0.010
-238.888	32.044	0.317	-0.274
-237.873	-200.000	-0.012	-0.282
-236.859	132.854	-0.200	0.259
-235.844	-62.820	-0.327	-0.136
-234.830	-181.244	0.046	0.001
-233.815	69.998	0.160	-0.166
-232.800	-200.000	0.026	-0.323
-231.786	481.273	-0.083	-0.190
-230.771	-64.051	-0.170	0.070
-229.757	-133.084	0.041	-0.005
-228.742	569.329	0.029	0.070
-227.727	-158.438	0.153	0.009
-226.713	800.000	-0.066	0.227
-225.698	-200.000	-0.016	0.315
-224.684	-144.468	-0.277	0.026
-223.669	-169.748	0.173	-0.006
-222.655	-90.672	0.106	0.031
-221.640	738.242	0.041	-0.109
-220.625	-6.632	-0.125	0.085
-219.611	-200.000	0.021	0.152
-218.596	-200.000	-0.037	-0.176
-217.582	60.301	0.149	-0.148
-216.567	-200.000	-0.057	-0.350
-215.552	36.821	-0.184	-0.163
-214.538	-114.074	0.382	0.074
-213.523	800.000	0.067	-0.279
-212.509	383.688	-0.119	-0.245
-211.494	-151.567	-0.060	-0.004
-210.479	414.297	-0.146	0.311
-209.465	37.134	-0.275	0.244
-208.450	-200.000	0.013	-0.222
-207.436	160.968	0.250	0.350
-206.421	-200.000	-0.006	0.196
-205.406	343.190	0.081	0.159
-204.392	-34.638	-0.068	-0.037
-203.377	-200.000	-0.018	0.162
-202.363	-200.000	0.035	-0.236
-201.348	-200.000	-0.023	0.162
-200.333	800.000	0.022	-0.065
-199.319	800.000	-0.138	0.383
-198.304	-200.000	-0.023	-0.153
-197.290	67.255	0.205	-0.210
-196.275	-111.742	-0.430	-0.087
-195.260	-113.689	-0.432	-0.084
-194.246	-106.366	0.110	0.025
-193.231	-200.000	-0.025	0.146
-192.217	-200.000	-0.032	-0.241
-191.202	-91.029	-0.145	-0.042
-190.187	-155.337	-0.219	-0.014
-189.173	87.007	0.046	0.051
-188.158	-43.235	0.241	-0.122
-187.144	800.000	0.031	0.096
-186.129	162.045	-0.001	0.002
-185.114	-44.059	-0.418	-0.210
-184.100	-200.000	0.015	0.265
-183.085	-200.000	0.020	-0.138
-182.071	-200.000	-0.016	0.102
-181.056	800.000	0.049	-0.150
-180.042	-200.000	-0.006	0.412
-179.027	155.036	0.211	0.290
-178.012	248.959	0.118	-0.201
-176.998	800.000	-0.055	0.202
-175.983	-35.676	-0.373	0.202
-174.969	129.351	0.281	-0.360
-173.954	-200.000	-0.032	-0.239
-172.939	-85.340	-0.125	-0.039
-171.925	-200.000	-0.045	0.430
-170.910	19.509	-0.287	-0.231
-169.896	534.774	-0.050	0.120
-168.881	-200.000	-0.013	-0.274
-167.866	-180.148	0.163	0.003
-166.852	3.761	0.178	-0.130
-165.837	51.854	0.232	-0.221
-164.823	-200.000	-0.015	-0.232
-163.808	104.260	-0.167	0.197
-162.793	-196.450	-0.354	-0.002
-161.779	-81.241	0.191	-0.063
-160.764	-200.000	-0.016	0.258
-159.750	-200.000	0.009	0.291
-158.735	-68.935	0.066	-0.025
-157.720	-65.018	-0.450	0.182
-156.706	-121.865	-0.042	-0.007
-155.691	19.685	-0.219	0.177
-154.677	94.143	-0.063	-0.071
-153.662	-200.000	0.028	0.174
-152.647	-15.516	0.105	-0.067
-151.633	-41.394	-0.085	-0.044
-150.618	800.000	-0.048	0.188
-149.604	0.034	0.051	-0.036
-148.589	117.598	-0.108	0.133
-147.574	800.000	-0.103	-0.313
-146.560	5.426	-0.192	-0.142
-145.545	26.851	0.243	-0.204
-144.531	-67.133	-0.188	0.074
-143.516	-148.833	-0.169	-0.014
-142.502	-200.000	-0.093	-0.518
-141.487	42.930	0.129	-0.117
-140.472	-21.373	0.109	0.067
-139.458	-200.000	-0.048	-0.224
-138.443	576.465	-0.130	-0.318
-137.429	96.998	0.176	-0.202
-136.414	151.380	0.075	0.102
-135.399	-200.000	-0.002	-0.107
-134.385	800.000	0.083	0.300
-133.370	-200.000	-0.033	0.196
-132.356	16.414	0.141	0.111
-131.341	-79.318	0.276	-0.093
-130.326	-146.005	0.313	-0.028
-129.312	800.000	0.014	-0.040
-128.297	800.000	0.100	0.322
-127.283	800.000	-0.045	0.139
-126.268	126.308	0.119	-0.151
-125.253	25.905	0.116	-0.097
-124.239	70.100	0.089	-0.092
-123.224	-23.552	-0.252	0.151
-122.210	694.535	0.053	0.138
-121.195	-76.561	-0.068	-0.024
-120.180	-106.089	-0.233	0.052
-119.166	394.603	0.139	0.288
-118.151	-52.410	0.132	-0.061
-117.137	-137.878	-0.240	0.027
-116.122	800.000	-0.057	-0.203
-115.107	750.630	-0.002	-0.005
-114.093	135.811	-0.109	0.142
-113.078	240.417	0.183	0.304
-112.064	41.484	-0.083	0.075
-111.049	230.330	0.219	0.358
-110.034	-200.000	-0.036	-0.210
-109.020	256.900	0.139	0.238
-108.005	508.666	-0.085	0.197
-106.991	137.983	0.098	0.128
-105.976	-54.064	0.180	-0.082
-104.962	402.493	-0.091	-0.192
-103.947	43.647	-0.099	0.091
-102.932	-65.585	-0.270	-0.108
-101.918	158.290	0.188	0.261
-100.903	-131.980	0.207	-0.027
-99.889	-117.502	0.307	0.055
-98.874	203.813	-0.104	-0.160
-97.859	-200.000	0.028	0.133
-96.845	342.308	0.082	0.161
-95.830	-182.319	0.071	0.001
-94.816	235.926	0.129	-0.212
-93.801	-116.281	-0.080	0.015
-92.786	-200.000	-0.022	-0.207
-91.772	276.571	-0.134	-0.238
-90.757	117.902	0.121	0.149
-89.743	-45.559	0.336	-0.166
-88.728	118.677	0.281	0.346
-87.713	0.685	0.207	0.148
-86.699	-53.314	-0.156	-0.071
-85.684	161.446	-0.161	-0.224
-84.670	800.000	-0.135	0.408
-83.655	54.018	0.232	0.223
-82.640	172.683	-0.184	0.264
-81.626	-200.000	-0.033	0.160
-80.611	653.248	0.011	-0.028
-79.597	-94.510	-0.212	0.058
-78.582	-200.000	-0.007	0.106
-77.567	161.086	-0.063	0.088
-76.553	-13.999	0.147	0.095
-75.538	800.000	-0.024	0.099
-74.524	181.493	-0.225	-0.329
-73.509	157.812	-0.048	-0.066
-72.494	470.530	0.088	-0.198
-71.480	711.461	0.066	-0.174
-70.465	217.602	-0.099	-0.158
-69.451	-200.000	-0.004	0.124
-68.436	82.498	0.167	-0.181
-67.422	-200.000	0.094	-0.000
-66.407	16.873	0.157	0.124
-65.392	-200.000	0.023	0.413
-64.378	-146.386	-0.269	-0.023
-63.363	-88.057	-0.571	-0.171
-62.349	73.332	-0.077	-0.080
-61.334	8.712	-1.097	-0.823
-60.319	-200.000	-0.025	0.241
-59.305	220.844	0.294	-0.470
-58.290	308.416	0.510	0.948
-57.276	-200.000	0.263	1.590
-56.261	-200.000	77.677	509.134
-55.246	508.033	1332.432	3080.127
-54.232	147.844	2558.205	3434.126
-53.217	115.437	2224.812	2706.860
-52.203	51.735	1677.601	1588.920
-51.188	43.814	1406.190	1281.932
-50.173	40.525	1359.756	1219.369
-49.159	58.695	1395.969	1365.055
-48.144	65.442	1415.192	1425.653
-47.130	44.334	1377.770	1259.048
-46.115	40.406	1360.725	1219.314
-45.100	40.232	1355.968	1213.931
-44.086	40.184	1353.747	1211.601
-43.071	40.072	1351.606	1208.951
-42.057	40.064	1349.157	1206.669
-41.042	40.176	1347.330	1205.665
-40.027	40.170	1346.055	1204.442
-39.013	40.125	1344.413	1202.650
-37.998	40.267	1341.847	1201.171
-36.984	40.254	1340.469	1199.807
-35.969	40.279	1338.373	1198.039
-34.954	40.377	1336.258	1196.686
-33.940	40.317	1335.588	1195.679
-32.925	40.431	1334.278	1195.146
-31.911	40.547	1332.178	1193.917
-30.896	40.460	1331.058	1192.343
-29.881	40.413	1329.576	1190.684
-28.867	40.369	1328.284	1189.217
-27.852	40.485	1326.850	1188.578
-26.838	40.449	1325.285	1186.917
-25.823	40.440	1323.548	1185.259
-24.809	40.373	1322.344	1183.736
-23.794	40.320	1321.384	1182.512
-22.779	40.418	1319.486	1181.348
-21.765	40.272	1318.753	1179.777
-20.750	40.373	1317.070	1178.823
-19.736	40.295	1315.794	1177.173
-18.721	40.252	1314.277	1175.511
-17.706	40.301	1312.996	1174.613
-16.692	40.233	1311.938	1173.219
-15.677	40.354	1310.631	1172.716
-14.663	40.339	1309.654	1171.706
-13.648	40.126	1308.825	1169.657
-12.633	40.362	1307.742	1170.037
-11.619	40.321	1306.594	1168.727
-10.604	40.271	1306.020	1167.872
-9.590	40.251	1304.948	1166.749
-8.575	40.130	1304.424	1165.520
-7.560	40.203	1303.075	1164.699
-6.546	40.234	1302.095	1163.958
-5.531	40.220	1301.827	1163.586
-4.517	40.289	1300.430	1162.699
-3.502	40.288	1299.024	1161.392
-2.487	40.351	1298.473	1161.222
-1.473	40.262	1294.398	1157.011
-0.458	38.855	1279.202	1135.247
0.556	35.095	1258.717	1091.032
1.571	30.924	1262.743	1070.523
2.586	29.726	1278.081	1076.462
3.600	28.385	1266.765	1059.086
4.615	20.482	1188.616	950.614
5.629	8.232	1104.809	820.842
6.644	2.727	1080.821	775.182
7.659	2.229	1078.189	770.716
8.673	1.974	1076.790	768.366
9.688	1.973	1075.088	767.076
10.702	2.357	1074.017	768.172
11.717	9.202	1084.510	810.224
12.731	20.225	1100.066	877.870
13.746	25.222	1106.471	908.272
14.761	25.529	1106.418	909.701
15.775	25.589	1106.322	909.847
16.790	25.412	1105.307	908.036
17.804	25.195	1104.814	906.455
18.819	25.346	1104.185	906.618
19.834	25.593	1103.600	907.308
20.848	25.682	1103.200	907.348
21.863	25.524	1102.907	906.228
22.877	25.447	1102.268	905.236
23.892	25.394	1101.470	904.230
24.907	25.472	1100.715	903.924
25.921	25.550	1099.463	903.210
26.936	25.465	1098.401	901.832
27.950	25.515	1096.435	900.388
28.965	25.279	1095.091	898.024
29.980	25.339	1093.658	897.069
30.994	25.665	1092.418	897.599
32.009	25.503	1091.820	896.218
33.023	25.340	1090.327	894.103
34.038	25.359	1090.036	893.877
35.053	25.526	1088.753	893.579
36.067	25.465	1088.388	892.898
37.082	25.496	1087.464	892.213
38.096	25.671	1087.087	892.691
39.111	25.715	1086.042	891.973
40.126	25.631	1084.495	890.210
41.140	25.175	1083.003	886.651
42.155	25.053	1081.411	884.667
43.169	25.187	1080.485	884.491
44.184	25.053	1079.898	883.273
45.199	24.972	1079.401	882.390
46.213	25.077	1078.296	881.926
47.228	25.195	1077.516	881.792
48.242	25.447	1076.160	881.841
49.257	25.297	1075.622	880.583
50.271	25.584	1074.783	881.228
51.286	25.557	1073.790	880.200
52.301	25.519	1073.399	879.616
53.315	25.430	1072.015	877.970
54.330	25.342	1071.410	876.968
55.344	25.445	1070.440	876.601
56.359	25.407	1069.426	875.506
57.374	25.291	1068.419	874.041
58.388	25.262	1068.052	873.521
59.403	25.228	1067.030	872.442
60.417	25.010	1066.323	870.729
61.432	25.028	1065.682	870.214
62.447	25.257	1064.523	870.300
63.461	25.144	1064.188	869.404
64.476	25.169	1063.382	868.787
65.490	25.057	1062.264	867.255
66.505	25.030	1062.138	866.946
67.520	25.102	1061.696	866.857
68.534	25.071	1059.847	865.122
69.549	24.752	1058.335	862.271
70.563	24.735	1057.727	861.619
71.578	24.736	1057.312	861.210
72.593	24.480	1055.769	858.643
73.607	24.711	1055.577	859.526
74.622	24.942	1055.125	860.190
75.636	25.116	1054.446	860.395
76.651	24.920	1053.332	858.469
77.666	24.876	1052.857	857.795
78.680	24.898	1052.039	857.159
79.695	25.083	1051.358	857.412
80.709	25.197	1050.517	857.199
81.724	25.017	1049.979	855.824
82.739	25.069	1049.256	855.403
83.753	25.464	1049.076	857.067
84.768	25.731	1047.846	857.259
85.782	25.888	1047.154	857.364
86.797	25.863	1045.999	856.223
87.812	25.667	1045.106	854.487
88.826	25.674	1044.346	853.823
89.841	25.761	1043.353	853.344
90.855	25.858	1042.172	852.766
91.870	25.708	1041.906	851.760
92.884	25.639	1040.263	850.015
93.899	25.506	1039.493	848.684
94.914	25.696	1038.957	849.067
95.928	25.435	1037.743	846.772
96.943	25.365	1036.534	845.380
97.957	25.037	1035.303	842.760
98.972	25.034	1033.996	841.606
99.987	25.284	1033.270	842.112
101.001	25.466	1032.471	842.242
102.016	25.413	1031.768	841.343
103.030	25.273	1031.119	840.085
104.045	25.138	1029.930	838.412
105.060	25.016	1028.712	836.776
106.074	25.199	1028.533	837.413
107.089	25.520	1027.858	838.284
108.103	25.391	1026.523	836.522
109.118	25.145	1025.394	834.381
110.133	25.041	1024.864	833.392
111.147	25.053	1023.326	832.124
112.162	24.769	1022.766	830.278
113.176	25.066	1021.820	830.816
114.191	24.963	1021.031	829.621
115.206	24.618	1020.463	827.492
116.220	24.694	1018.965	826.554
117.235	24.812	1018.131	826.349
118.249	24.904	1017.234	825.970
119.264	24.671	1016.814	824.484
120.279	24.776	1015.671	823.965
121.293	24.844	1015.070	823.718
122.308	24.972	1013.924	823.305
123.322	24.723	1013.152	821.463
124.337	24.707	1011.766	820.194
125.352	24.177	1010.437	816.613
126.366	24.110	1009.168	815.209
127.381	24.888	1009.456	818.932
128.395	25.252	1009.224	820.335
129.410	25.355	1008.179	819.882
130.424	25.432	1007.103	819.288
131.439	25.495	1005.994	818.600
132.454	25.278	1005.833	817.404
133.468	25.428	1004.084	816.595
134.483	25.524	1003.815	816.741
135.497	25.725	1002.969	816.892
136.512	25.735	1002.082	816.140
137.527	25.896	1000.767	815.727
138.541	25.682	1000.608	814.556
139.556	25.728	999.589	813.864
140.570	25.734	999.044	813.375
141.585	25.829	998.021	812.899
142.600	25.754	996.975	811.638
143.614	26.003	996.319	812.154
144.629	26.013	995.447	811.415
145.643	25.765	994.643	809.573
146.658	25.665	992.702	807.474
147.673	25.594	991.614	806.196
148.687	25.545	990.853	805.291
149.702	25.421	989.939	803.918
150.716	25.490	988.783	803.216
151.731	25.619	988.090	803.161
152.746	25.788	987.889	803.677
153.760	25.847	987.094	803.225
154.775	26.013	986.420	803.347
155.789	25.790	985.824	801.794
156.804	25.781	984.918	800.950
157.819	25.891	984.036	800.651
158.833	25.991	983.228	800.366
159.848	26.039	982.095	799.582
160.862	25.719	980.898	797.122
161.877	25.826	979.810	796.643
162.892	25.887	978.936	796.127
163.906	25.683	977.747	794.192
164.921	25.686	977.004	793.533
165.935	25.821	976.002	793.243
166.950	25.787	974.965	792.179
167.964	25.771	974.085	791.325
168.979	25.560	973.098	789.527
169.994	25.526	972.261	788.625
171.008	25.895	971.356	789.440
172.023	25.806	970.997	788.690
173.037	25.658	969.600	786.838
174.052	25.400	969.004	785.159
175.067	25.506	968.368	785.033
176.081	25.627	967.639	784.900
177.096	25.561	967.182	784.175
178.110	25.302	965.591	781.688
179.125	25.071	965.098	780.212
180.140	25.144	964.979	780.365
181.154	25.498	964.199	781.207
182.169	25.709	964.268	782.110
183.183	25.731	964.392	782.235
184.198	25.605	963.337	780.763
185.213	25.606	962.252	779.821
186.227	25.656	961.871	779.661
187.242	25.788	961.116	779.550
188.256	25.867	960.464	779.294
189.271	25.858	959.798	778.644
190.286	25.586	958.261	776.154
191.300	24.913	957.163	772.296
192.315	24.194	955.188	767.537
193.329	24.040	954.463	766.224
194.344	25.117	955.132	771.329
195.359	25.475	955.427	773.040
196.373	25.646	954.775	773.181
197.388	25.679	954.128	772.728
198.402	25.653	953.684	772.187
199.417	25.719	952.388	771.355
200.432	25.443	951.788	769.618
201.446	25.236	951.106	768.112
202.461	25.316	950.505	767.902
203.475	24.472	948.755	762.816
204.490	23.708	947.116	758.171
205.504	24.564	947.552	762.105
206.519	25.282	947.669	765.194
207.534	25.295	947.123	764.742
208.548	25.700	947.089	766.372
209.563	25.424	946.087	764.316
210.577	25.393	945.856	763.933
211.592	25.892	944.937	765.242
212.607	25.880	944.178	764.508
213.621	25.856	943.690	763.944
214.636	25.895	942.925	763.424
215.650	25.724	942.097	761.960
216.665	25.932	941.419	762.223
217.680	25.973	940.537	761.617
218.694	25.297	939.751	758.058
219.709	25.216	938.953	757.005
220.723	25.515	938.894	758.151
221.738	25.640	938.139	758.003
222.753	25.597	937.641	757.351
223.767	25.620	937.107	756.950
224.782	26.030	936.494	758.109
225.796	25.940	936.183	757.415
226.811	25.416	934.404	753.711
227.826	24.720	932.972	749.573
228.840	24.859	932.782	749.935
229.855	24.936	932.008	749.568
230.869	24.469	930.986	746.728
231.884	24.967	930.968	748.730
232.899	25.673	930.871	751.536
233.913	25.517	930.422	750.454
234.928	25.503	929.907	749.916
235.942	25.528	929.245	749.420
236.957	25.287	927.991	747.340
237.972	25.259	927.395	746.674
238.986	25.400	927.144	746.995
240.001	25.213	926.724	745.813
241.015	25.499	925.964	746.322
242.030	25.586	925.672	746.380
243.045	25.780	925.004	746.583
244.059	25.718	925.014	746.267
245.074	25.671	923.655	744.910
246.088	25.332	922.514	742.521
247.103	25.624	922.511	743.658
248.117	26.099	922.567	745.601
249.132	26.375	922.119	746.313
250.147	26.472	921.641	746.262
251.161	26.651	921.438	746.769
252.176	26.491	920.684	745.432
253.190	26.634	919.966	745.374
254.205	26.758	919.652	745.565
255.220	26.764	918.901	744.914
256.234	26.688	918.241	744.002
257.249	26.422	917.503	742.244
258.263	26.558	916.427	741.866
259.278	26.550	916.068	741.479
260.293	26.611	915.420	741.138
261.307	26.409	914.811	739.750
262.322	26.357	913.451	738.375
263.336	25.675	912.037	734.384
264.351	24.539	910.112	728.141
265.366	24.749	909.692	728.598
266.380	25.797	910.442	733.401
267.395	26.130	910.340	734.609
268.409	26.156	909.537	734.002
269.424	26.351	908.876	734.199
270.439	26.347	908.423	733.749
271.453	26.377	907.754	733.266
272.468	26.567	907.488	733.757
273.482	26.601	907.098	733.513
274.497	26.301	905.764	731.156
275.512	25.974	904.655	728.877
276.526	26.162	905.124	729.951
277.541	26.407	904.723	730.550
278.555	26.216	903.798	728.969
279.570	26.064	902.937	727.597
280.585	26.210	902.590	727.840
281.599	26.227	901.396	726.881
282.614	25.657	900.370	723.697
283.628	25.545	899.669	722.623
284.643	25.990	899.396	724.124
285.657	25.599	898.367	721.665
286.672	25.381	897.521	720.048
287.687	26.007	897.662	722.607
288.701	26.003	896.854	721.877
289.716	25.775	896.159	720.342
290.730	25.649	895.323	719.102
291.745	25.202	894.813	716.843
292.760	25.490	894.843	717.951
293.774	26.579	894.954	722.327
294.789	26.828	894.638	723.002
295.803	26.942	894.070	722.930
296.818	26.967	893.416	722.439
297.833	26.554	892.094	719.662
298.847	26.277	891.807	718.266
299.862	26.675	891.452	719.498
300.876	26.956	890.765	719.995
301.891	26.819	890.445	719.130
302.906	26.374	889.484	716.526
303.920	26.522	888.991	716.650
304.935	26.875	889.001	717.993
305.949	26.776	887.985	716.719
306.964	26.560	887.412	715.339
307.979	26.762	886.714	715.513
308.993	26.869	887.076	716.163
310.008	27.070	886.143	716.138
311.022	26.804	885.027	714.125
312.037	26.517	884.891	712.822
313.052	26.338	883.345	710.811
314.066	25.418	881.676	705.790
315.081	25.130	881.188	704.206
316.095	25.973	881.506	707.709
317.110	26.357	881.524	709.169
318.125	25.657	879.735	704.925
319.139	24.686	878.077	699.735
320.154	24.565	877.853	699.022
321.168	25.514	878.338	703.061
322.183	26.250	878.294	705.838
323.197	26.457	878.205	706.513
324.212	26.625	878.037	706.973
325.227	26.782	876.968	706.660
326.241	26.601	876.295	705.352
327.256	26.452	875.728	704.251
328.270	26.212	875.131	702.775
329.285	26.073	874.444	701.623
330.300	25.908	873.714	700.333
331.314	26.122	873.657	701.058
332.329	26.486	873.224	702.059
333.343	26.831	872.622	702.852
334.358	26.785	872.525	702.531
335.373	26.821	872.038	702.218
336.387	27.097	871.972	703.171
337.402	27.089	872.035	703.129
338.416	27.119	871.322	702.608
339.431	27.159	871.407	702.766
340.446	27.284	871.001	702.861
341.460	27.148	870.485	701.856
342.475	26.994	869.704	700.571
343.489	27.137	869.163	700.625
344.504	27.340	869.157	701.341
345.519	27.555	868.664	701.709
346.533	27.702	867.881	701.581
347.548	27.759	867.357	701.314
348.562	27.489	867.199	700.088
349.577	27.396	866.342	698.976
350.592	27.474	865.505	698.539
351.606	27.525	864.798	698.099
352.621	27.292	864.275	696.725
353.635	27.291	862.978	695.611
354.650	26.697	861.318	691.947
355.665	25.696	860.160	687.136
356.679	26.068	859.962	688.336
357.694	26.504	859.459	689.532
358.708	26.478	859.186	689.154
359.723	26.733	859.146	690.032
360.738	27.214	858.696	691.439
361.752	27.236	858.204	691.066
362.767	27.469	857.724	691.503
363.781	27.789	857.515	692.487
364.796	28.061	856.871	692.938
365.810	27.897	856.743	692.150
366.825	27.934	856.290	691.863
367.840	27.625	855.352	689.875
368.854	27.209	854.411	687.483
369.869	27.174	854.076	687.020
370.883	27.260	853.721	686.998
371.898	27.269	853.183	686.538
372.913	27.325	852.921	686.477
373.927	27.404	852.526	686.399
374.942	27.458	852.117	686.211
375.956	27.486	851.814	686.011
376.971	27.887	851.390	687.120
377.986	27.861	851.042	686.680
379.000	27.883	850.194	686.017
380.015	27.762	849.831	685.209
381.029	27.810	848.940	684.609
382.044	27.977	848.252	684.621
383.059	27.944	847.995	684.228
384.073	27.889	847.300	683.401
385.088	27.840	846.979	682.898
386.102	27.533	846.473	681.282
387.117	27.551	845.632	680.614
388.132	27.294	843.964	678.251
389.146	26.634	843.562	675.409
390.161	27.102	843.353	676.924
391.175	27.562	843.243	678.492
392.190	27.373	841.486	676.315
393.205	25.937	839.739	669.522
394.219	24.459	837.959	662.563
395.234	24.173	837.926	661.417
396.248	25.709	839.404	668.233
397.263	27.371	840.299	675.054
398.278	27.362	839.884	674.629
399.292	26.951	839.211	672.505
400.307	27.139	838.558	672.619
401.321	27.214	838.268	672.603
402.336	27.601	837.959	673.728
403.350	28.045	837.914	675.272
404.365	28.333	837.653	676.066
405.380	28.613	837.312	676.761
406.394	28.712	836.816	676.668
407.409	28.571	836.406	675.757
408.423	28.511	835.955	675.111
409.438	28.654	835.579	675.274
410.453	28.621	835.371	674.925
411.467	28.540	834.919	674.203
412.482	28.427	834.511	673.399
413.496	28.488	834.146	673.267
414.511	28.611	833.438	673.086
415.526	28.666	833.023	672.896
416.540	28.358	832.350	671.162
417.555	28.276	831.499	670.118
418.569	28.311	831.252	669.986
419.584	28.308	830.571	669.367
420.599	28.091	830.148	668.176
421.613	96.466	1269.875	1386.108
422.628	83.434	1333.955	1386.214
