DTS Sentinel unit serial number:	SN413079Multiplexer serial number:	ORYXHardware model number:	OX4-SRSoftware version number:	ORYX F/W v4.00 Oryx Data Collector v3.7.2.0data status	okinstallation	princeton_trtdifferential loss correction	single-endedforward channel	channel 1reverse channel	N/Adate	2019/09/16time	11:50:35forward acquisition time	60.00reverse acquisition time	0.00gamma	496.2192k internal	0.2296k external	0.2296temperature offset calibration	0.9963default loss term (dB/km)	0.3790temperature slope calibration	1.0000multiplexer offset coefficient	1.0000multiplexer slope coefficient	1.0000fibre end	0.00T internal ref (°C)	38.33T ext. ref 1 (°C)	13.09T ext. ref 2 (°C)	35.74length (m)	temperature (°C)	Stokes	anti-Stokes-747.200	-139.673	0.143	0.016
-746.185	-200.000	0.035	0.330
-745.171	87.399	-0.212	0.240
-744.156	247.442	0.094	0.163
-743.142	-56.714	-0.157	0.071
-742.127	800.000	0.019	0.074
-741.112	800.000	-0.040	-0.161
-740.098	-200.000	0.004	0.054
-739.083	-56.273	-0.150	0.068
-738.069	226.124	-0.119	0.198
-737.054	-140.269	-0.062	0.007
-736.039	16.519	-0.188	-0.152
-735.025	-200.000	0.013	-0.065
-734.010	228.365	-0.022	-0.037
-732.996	-145.367	-0.459	0.042
-731.981	530.917	-0.183	-0.442
-730.966	-12.452	-0.310	0.207
-729.952	674.555	0.171	0.453
-728.937	800.000	0.042	0.169
-727.923	559.874	-0.097	0.239
-726.908	-9.197	0.151	-0.103
-725.894	187.896	-0.152	-0.232
-724.879	11.360	-0.325	-0.254
-723.864	-155.812	0.159	-0.010
-722.850	-14.096	-0.094	-0.062
-721.835	-200.000	0.048	0.238
-720.821	-0.181	0.100	-0.072
-719.806	165.355	0.097	-0.140
-718.791	800.000	-0.007	-0.026
-717.777	-200.000	-0.016	0.102
-716.762	177.095	0.086	0.127
-715.748	-52.475	-0.213	-0.101
-714.733	-14.561	-0.272	-0.178
-713.718	-137.062	0.220	0.026
-712.704	764.918	0.030	-0.083
-711.689	543.605	0.085	-0.207
-710.675	-42.030	-0.237	0.124
-709.660	24.250	-0.090	0.076
-708.645	-46.708	0.256	0.128
-707.631	-107.655	-0.062	0.014
-706.616	-126.799	-0.368	0.055
-705.602	35.427	0.163	-0.146
-704.587	-95.957	-0.314	-0.085
-703.572	77.976	-0.069	-0.075
-702.558	-108.882	0.127	-0.028
-701.543	-0.317	0.187	-0.135
-700.529	-137.138	-0.192	0.022
-699.514	5.017	0.208	0.156
-698.499	280.556	0.107	0.195
-697.485	-155.479	0.021	0.001
-696.470	24.909	0.045	-0.038
-695.456	-162.075	-0.273	0.014
-694.441	-125.817	-0.261	-0.040
-693.426	221.823	-0.225	0.369
-692.412	-47.218	-0.204	0.102
-691.397	32.230	0.335	-0.294
-690.383	-75.551	0.241	0.087
-689.368	217.680	-0.057	-0.092
-688.354	357.614	0.059	-0.120
-687.339	-200.000	0.015	0.136
-686.324	-192.316	-0.228	0.002
-685.310	131.743	0.185	-0.243
-684.295	129.662	-0.105	-0.137
-683.281	-62.721	0.263	-0.111
-682.266	-200.000	0.013	-0.264
-681.251	-59.844	-0.205	0.089
-680.237	-89.036	-0.151	-0.045
-679.222	206.684	-0.137	0.218
-678.208	-80.790	-0.195	-0.066
-677.193	800.000	0.112	0.453
-676.178	-200.000	0.021	-0.174
-675.164	16.840	-0.070	0.056
-674.149	752.229	0.102	-0.280
-673.135	-200.000	0.041	0.194
-672.120	-150.252	0.156	0.012
-671.105	-200.000	0.053	-0.456
-670.091	60.543	0.220	-0.222
-669.076	288.442	0.254	-0.469
-668.062	-46.583	-0.226	0.113
-667.047	235.837	-0.019	-0.033
-666.032	-57.503	-0.133	-0.059
-665.018	-200.000	-0.042	-0.190
-664.003	578.728	-0.075	0.186
-662.989	-74.754	-0.189	0.069
-661.974	-107.225	-0.266	-0.060
-660.959	586.978	0.168	-0.422
-659.945	-200.000	0.031	-0.309
-658.930	-200.000	-0.040	-0.334
-657.916	58.597	-0.038	-0.038
-656.901	64.884	0.092	0.095
-655.886	-109.152	0.247	0.054
-654.872	-44.403	-0.018	0.009
-653.857	800.000	-0.074	-0.328
-652.843	800.000	0.067	0.250
-651.828	-77.014	-0.212	-0.075
-650.814	294.731	0.130	0.243
-649.799	-15.718	0.252	0.164
-648.784	-21.334	-0.145	0.090
-647.770	-16.177	-0.305	-0.197
-646.755	327.080	0.067	-0.130
-645.741	-17.468	-0.218	-0.140
-644.726	800.000	-0.026	0.080
-643.711	22.010	0.209	0.173
-642.697	-108.664	0.248	-0.054
-641.682	74.404	0.112	-0.120
-640.668	310.748	0.044	-0.084
-639.653	-5.228	-0.146	-0.102
-638.638	122.687	-0.121	-0.154
-637.624	-200.000	0.019	-0.157
-636.609	-106.577	-0.173	-0.039
-635.595	252.597	-0.177	-0.308
-634.580	334.975	-0.230	-0.453
-633.565	-128.257	0.242	0.035
-632.551	-61.791	0.069	0.029
-631.536	189.508	0.080	-0.122
-630.522	800.000	0.076	-0.273
-629.507	-93.666	-0.207	-0.058
-628.492	569.667	-0.087	-0.216
-627.478	-87.353	-0.378	-0.117
-626.463	-200.000	-0.026	-0.132
-625.449	662.356	-0.095	0.250
-624.434	193.463	-0.116	-0.178
-623.419	-20.730	0.097	0.061
-622.405	281.022	-0.094	0.171
-621.390	248.278	0.077	-0.133
-620.376	-200.000	-0.023	-0.194
-619.361	-43.305	-0.059	0.030
-618.346	800.000	0.046	-0.186
-617.332	-68.469	-0.093	-0.037
-616.317	398.112	0.187	-0.398
-615.303	-108.878	0.155	-0.034
-614.288	-200.000	0.026	-0.304
-613.273	604.829	-0.079	-0.201
-612.259	800.000	0.051	-0.151
-611.244	-97.492	0.237	0.063
-610.230	-200.000	-0.006	0.250
-609.215	39.745	0.030	0.028
-608.201	-128.702	0.161	0.023
-607.186	-129.827	0.215	-0.030
-606.171	800.000	-0.068	-0.239
-605.157	-136.308	0.376	-0.045
-604.142	-200.000	0.015	-0.134
-603.128	-132.656	-0.263	-0.034
-602.113	-59.710	0.384	-0.167
-601.098	93.584	-0.250	-0.288
-600.084	-113.824	0.328	0.065
-599.069	-110.089	0.110	0.023
-598.055	-200.000	-0.018	-0.136
-597.040	-106.287	-0.091	0.021
-596.025	-58.371	0.257	-0.114
-595.011	403.632	0.053	0.113
-593.996	-200.000	-0.015	0.193
-592.982	-162.589	0.187	-0.009
-591.967	-7.329	0.112	-0.077
-590.952	88.785	-0.121	0.136
-589.938	9.477	-0.115	0.088
-588.923	160.548	0.118	0.167
-587.909	174.211	-0.084	-0.124
-586.894	-200.000	-0.004	-0.084
-585.879	800.000	-0.017	-0.065
-584.865	800.000	-0.052	-0.220
-583.850	58.901	-0.202	-0.202
-582.836	183.985	0.274	0.411
-581.821	-117.693	-0.295	-0.054
-580.806	-32.283	0.264	0.150
-579.792	-89.395	-0.057	-0.017
-578.777	800.000	-0.024	-0.082
-577.763	259.723	0.128	0.224
-576.748	74.884	0.088	0.094
-575.733	20.806	0.230	0.189
-574.719	-67.423	-0.355	0.142
-573.704	-200.000	-0.004	-0.153
-572.690	-47.243	-0.168	0.083
-571.675	-23.799	-0.165	0.100
-570.661	-134.835	0.144	-0.018
-569.646	582.293	0.035	0.086
-568.631	-38.324	-0.151	-0.081
-567.617	-200.000	0.011	-0.192
-566.602	501.632	-0.079	-0.186
-565.588	188.541	-0.118	-0.179
-564.573	-200.000	-0.003	-0.395
-563.558	-74.599	-0.111	0.041
-562.544	257.532	-0.183	0.319
-561.529	-160.576	0.104	-0.006
-560.515	221.401	0.081	0.132
-559.500	-104.912	0.303	-0.070
-558.485	-200.000	-0.051	0.365
-557.471	800.000	-0.097	0.350
-556.456	-200.000	-0.007	0.300
-555.442	99.570	-0.214	0.251
-554.427	-69.566	0.367	0.143
-553.412	245.363	0.162	-0.277
-552.398	97.126	-0.334	-0.389
-551.383	-53.915	-0.113	-0.052
-550.369	-19.412	-0.187	-0.118
-549.354	-146.852	-0.215	-0.019
-548.339	307.305	-0.033	0.063
-547.325	-200.000	-0.002	-0.317
-546.310	1.723	0.104	-0.076
-545.296	-99.645	0.210	0.053
-544.281	188.809	0.198	0.300
-543.266	-137.246	0.382	-0.044
-542.252	-200.000	-0.029	-0.169
-541.237	-200.000	-0.018	0.155
-540.223	-136.983	-0.297	0.035
-539.208	-63.460	-0.195	-0.081
-538.193	45.936	-0.185	0.173
-537.179	-86.021	0.146	0.046
-536.164	431.013	-0.044	-0.096
-535.150	-41.287	0.287	-0.150
-534.135	94.833	0.327	0.377
-533.121	-75.955	0.140	-0.050
-532.106	-49.779	-0.103	0.049
-531.091	12.711	0.230	-0.180
-530.077	575.802	-0.145	-0.360
-529.062	800.000	-0.041	-0.128
-528.048	-56.347	0.200	-0.090
-527.033	800.000	0.087	-0.350
-526.018	84.227	0.140	0.155
-525.004	-10.020	-0.192	-0.129
-523.989	800.000	0.078	-0.345
-522.975	185.113	-0.226	-0.339
-521.960	28.770	-0.155	0.133
-520.945	-99.406	0.244	0.062
-519.931	90.210	0.205	-0.232
-518.916	-112.336	-0.307	0.062
-517.902	-153.392	-0.456	-0.032
-516.887	246.615	-0.246	-0.420
-515.872	0.563	0.139	0.100
-514.858	800.000	-0.021	0.080
-513.843	164.946	-0.112	0.161
-512.829	49.631	-0.027	-0.025
-511.814	800.000	0.072	0.313
-510.799	203.935	0.031	-0.048
-509.785	-154.963	-0.116	-0.008
-508.770	-200.000	-0.025	0.189
-507.756	84.736	-0.168	-0.186
-506.741	-154.732	-0.377	-0.025
-505.726	127.392	-0.143	-0.183
-504.712	800.000	0.019	-0.081
-503.697	-200.000	-0.001	-0.112
-502.683	-151.278	-0.261	-0.020
-501.668	100.527	0.042	0.049
-500.653	-32.238	0.035	-0.020
-499.639	-200.000	0.012	0.190
-498.624	51.785	0.076	-0.074
-497.610	125.239	-0.184	0.235
-496.595	-200.000	-0.011	-0.238
-495.581	455.141	-0.050	-0.113
-494.566	-109.852	-0.242	-0.051
-493.551	634.424	0.051	-0.131
-492.537	-200.000	-0.017	-0.137
-491.522	250.921	0.090	0.155
-490.508	-162.219	-0.232	0.012
-489.493	232.908	0.017	-0.028
-488.478	6.454	0.161	0.121
-487.464	166.673	-0.116	0.167
-486.449	-190.122	0.142	-0.002
-485.435	-48.401	-0.371	-0.181
-484.420	-57.249	0.261	-0.116
-483.405	-87.927	0.258	0.078
-482.391	494.612	-0.127	0.294
-481.376	93.469	0.305	-0.349
-480.362	-95.236	-0.116	-0.032
-479.347	-200.000	0.026	-0.203
-478.332	257.290	0.118	0.205
-477.318	550.260	-0.110	0.268
-476.303	112.259	0.249	-0.305
-475.289	4.400	0.164	-0.121
-474.274	654.812	0.083	-0.215
-473.259	-22.342	-0.107	-0.065
-472.245	-200.000	0.035	0.287
-471.230	112.474	0.231	0.282
-470.216	316.011	0.044	0.085
-469.201	13.502	0.321	0.251
-468.186	90.116	-0.212	0.240
-467.172	-182.523	0.247	0.005
-466.157	-200.000	-0.014	0.084
-465.143	-143.244	-0.165	0.016
-464.128	-179.381	-0.172	-0.004
-463.113	800.000	0.096	0.372
-462.099	-200.000	0.017	0.310
-461.084	-107.790	0.293	-0.065
-460.070	800.000	0.125	0.488
-459.055	-26.456	-0.204	0.121
-458.040	1.985	-0.253	0.184
-457.026	191.744	0.059	-0.091
-456.011	800.000	-0.035	0.100
-454.997	-155.040	-0.364	0.024
-453.982	800.000	-0.057	0.166
-452.968	-107.471	0.133	0.029
-451.953	-81.153	-0.112	-0.037
-450.938	-121.337	-0.178	-0.030
-449.924	113.875	0.146	-0.180
-448.909	800.000	-0.089	-0.324
-447.895	7.158	0.325	-0.245
-446.880	-59.377	0.275	-0.119
-445.865	136.418	-0.147	-0.194
-444.851	250.094	-0.111	0.190
-443.836	-200.000	0.031	-0.340
-442.822	800.000	-0.147	0.425
-441.807	205.270	0.086	-0.135
-440.792	-39.179	0.327	0.174
-439.778	203.294	0.154	-0.240
-438.763	-78.520	0.391	0.135
-437.749	800.000	-0.028	-0.110
-436.734	-92.443	-0.416	-0.118
-435.719	-5.616	0.190	0.131
-434.705	17.836	0.158	0.127
-433.690	-32.833	0.193	-0.108
-432.676	164.275	0.124	0.176
-431.661	431.041	-0.134	0.293
-430.646	60.024	-0.003	-0.003
-429.632	-200.000	0.009	-0.156
-428.617	87.633	-0.206	-0.230
-427.603	508.956	0.086	0.201
-426.588	-8.615	0.164	-0.111
-425.573	-87.600	0.204	-0.062
-424.559	641.463	-0.086	-0.221
-423.544	-44.587	0.148	0.075
-422.530	-181.101	0.428	-0.009
-421.515	75.969	-0.108	0.116
-420.500	-200.000	-0.041	0.264
-419.486	20.920	-0.158	0.129
-418.471	-99.648	0.030	0.008
-417.457	-88.753	-0.348	0.104
-416.442	-200.000	0.027	-0.178
-415.428	-200.000	0.014	0.076
-414.413	800.000	-0.061	-0.172
-413.398	171.573	-0.093	0.134
-412.384	53.033	0.229	-0.221
-411.369	-200.000	-0.007	0.262
-410.355	170.999	0.041	0.059
-409.340	-200.000	0.026	0.207
-408.325	-57.669	0.096	0.042
-407.311	-36.962	0.299	0.162
-406.296	-141.770	0.324	-0.033
-405.282	-136.071	-0.255	-0.030
-404.267	-102.907	0.334	0.080
-403.252	383.001	-0.107	0.221
-402.238	-200.000	0.081	-0.630
-401.223	-136.243	-0.138	-0.016
-400.209	-43.902	-0.057	0.029
-399.194	558.765	-0.142	-0.346
-398.179	244.965	0.130	0.221
-397.165	54.515	0.223	-0.217
-396.150	11.088	-0.066	0.051
-395.136	6.708	0.293	0.220
-394.121	-105.691	0.154	-0.035
-393.106	59.029	-0.120	0.119
-392.092	-58.728	-0.129	0.056
-391.077	-4.122	0.201	-0.140
-390.063	313.512	0.030	-0.057
-389.048	-56.941	0.271	-0.120
-388.033	376.169	-0.086	0.176
-387.019	-18.939	-0.155	-0.097
-386.004	86.892	-0.233	-0.259
-384.990	469.492	0.043	0.096
-383.975	83.685	0.214	-0.235
-382.960	-200.000	-0.055	-0.451
-381.946	373.069	-0.072	0.148
-380.931	275.370	0.090	0.161
-379.917	-66.426	-0.177	-0.071
-378.902	-98.689	-0.214	-0.055
-377.888	800.000	0.053	-0.217
-376.873	800.000	0.036	0.115
-375.858	-60.148	0.402	-0.173
-374.844	-154.088	0.082	-0.006
-373.829	557.177	0.123	0.298
-372.815	470.794	-0.151	0.343
-371.800	171.464	-0.109	-0.157
-370.785	592.442	-0.058	0.145
-369.771	9.309	0.139	0.106
-368.756	-200.000	-0.008	0.234
-367.742	-200.000	0.003	-0.218
-366.727	-189.042	-0.125	0.002
-365.712	581.097	0.159	0.392
-364.698	150.800	-0.064	0.087
-363.683	365.313	-0.101	-0.204
-362.669	374.856	-0.098	-0.201
-361.654	-158.019	0.148	-0.009
-360.639	-95.793	0.192	0.052
-359.625	800.000	-0.058	0.167
-358.610	-106.721	-0.218	-0.049
-357.596	-176.103	-0.169	-0.004
-356.581	-98.800	-0.121	0.031
-355.566	-200.000	0.045	-0.380
-354.552	-9.731	0.104	-0.070
-353.537	191.604	-0.131	0.199
-352.523	16.341	0.088	0.070
-351.508	68.199	-0.184	0.189
-350.493	-55.151	0.035	0.016
-349.479	-68.893	-0.400	0.155
-348.464	-200.000	0.006	0.403
-347.450	453.730	-0.023	-0.052
-346.435	188.276	0.116	-0.175
-345.420	-125.235	-0.334	-0.051
-344.406	-40.858	-0.127	0.066
-343.391	800.000	0.033	0.112
-342.377	123.984	0.100	-0.126
-341.362	260.691	-0.092	-0.161
-340.348	800.000	0.103	0.305
-339.333	110.291	-0.150	-0.181
-338.318	102.444	0.270	0.317
-337.304	-110.374	0.344	0.072
-336.289	-200.000	0.058	-0.258
-335.275	327.778	-0.057	-0.111
-334.260	800.000	0.137	-0.543
-333.245	-17.081	0.138	0.088
-332.231	-150.950	0.163	0.012
-331.216	-52.161	-0.165	-0.077
-330.202	-113.003	0.163	-0.032
-329.187	58.494	0.172	-0.170
-328.172	-117.057	-0.282	0.052
-327.158	160.559	-0.234	0.329
-326.143	800.000	0.084	-0.326
-325.129	550.703	-0.101	-0.244
-324.114	515.384	-0.113	0.266
-323.099	11.481	0.151	0.116
-322.085	744.459	-0.094	0.255
-321.070	32.241	-0.152	0.132
-320.056	-24.883	-0.237	-0.141
-319.041	-131.735	0.229	-0.030
-318.026	351.441	0.049	0.098
-317.012	342.488	-0.153	0.301
-315.997	210.890	-0.163	0.257
-314.983	800.000	0.083	-0.338
-313.968	583.506	-0.118	-0.291
-312.953	216.979	0.272	0.435
-311.939	-89.512	0.116	0.034
-310.924	212.471	-0.227	-0.360
-309.910	58.924	0.243	-0.240
-308.895	-66.499	0.115	-0.046
-307.880	800.000	0.056	0.173
-306.866	151.266	-0.152	-0.208
-305.851	-171.417	-0.260	-0.009
-304.837	-200.000	0.009	0.098
-303.822	-114.163	0.265	0.052
-302.807	-200.000	-0.010	0.098
-301.793	-154.627	0.044	-0.003
-300.778	-107.491	0.229	-0.050
-299.764	-90.797	-0.181	0.052
-298.749	800.000	0.045	-0.184
-297.735	125.191	0.074	-0.094
-296.720	140.587	0.124	0.164
-295.705	-25.108	-0.277	0.165
-294.691	800.000	-0.109	0.351
-293.676	-66.941	0.448	0.177
-292.662	-200.000	0.018	-0.095
-291.647	-200.000	0.017	0.435
-290.632	21.600	0.169	0.138
-289.618	564.291	-0.114	-0.278
-288.603	290.587	-0.079	-0.143
-287.589	109.466	0.182	-0.219
-286.574	-139.355	0.387	0.042
-285.559	146.670	-0.169	0.229
-284.545	327.402	-0.155	0.298
-283.530	-85.527	-0.227	0.071
-282.516	638.822	-0.180	-0.458
-281.501	-49.876	0.402	-0.192
-280.486	800.000	-0.054	-0.182
-279.472	584.984	0.093	0.230
-278.457	-26.430	-0.126	0.074
-277.443	-2.611	0.133	0.094
-276.428	34.537	-0.132	0.116
-275.413	-40.968	0.106	-0.055
-274.399	-200.000	0.010	0.226
-273.384	60.066	-0.205	0.203
-272.370	-50.636	-0.124	-0.059
-271.355	717.844	-0.057	0.151
-270.340	-100.861	-0.250	-0.062
-269.326	800.000	0.018	0.057
-268.311	94.880	-0.185	0.211
-267.297	-56.104	0.101	-0.045
-266.282	-151.502	-0.269	0.020
-265.267	210.346	0.070	0.110
-264.253	-133.333	0.176	-0.022
-263.238	800.000	-0.007	-0.021
-262.224	-200.000	0.049	0.255
-261.209	800.000	0.053	-0.199
-260.195	194.311	0.094	-0.143
-259.180	-82.091	-0.205	0.067
-258.165	800.000	0.074	0.316
-257.151	767.296	0.068	-0.186
-256.136	179.852	0.007	-0.010
-255.122	-175.641	0.262	-0.007
-254.107	-171.052	-0.287	0.010
-253.092	800.000	0.077	0.217
-252.078	-4.652	-0.148	0.102
-251.063	29.704	0.041	0.035
-250.049	-113.250	-0.085	0.017
-249.034	800.000	0.042	0.174
-248.019	-200.000	-0.008	-0.294
-247.005	-15.290	0.336	0.215
-245.990	-136.887	0.070	-0.008
-244.976	-2.258	0.171	-0.120
-243.961	730.371	0.070	-0.186
-242.946	-136.559	-0.425	0.049
-241.932	55.641	-0.156	-0.152
-240.917	597.611	-0.056	-0.140
-239.903	40.954	-0.057	-0.052
-238.888	99.136	0.046	0.053
-237.873	-76.241	0.456	-0.161
-236.859	800.000	-0.061	0.176
-235.844	154.903	-0.189	0.260
-234.830	28.540	-0.236	0.200
-233.815	184.442	-0.033	-0.050
-232.800	21.521	-0.310	0.252
-231.786	-200.000	-0.015	-0.068
-230.771	108.075	-0.305	0.364
-229.757	526.194	0.037	0.088
-228.742	-106.406	-0.338	0.076
-227.727	132.145	0.241	-0.311
-226.713	-170.897	0.144	0.005
-225.698	-144.192	-0.076	0.007
-224.684	-200.000	0.292	0.001
-223.669	800.000	0.022	0.086
-222.655	362.504	0.023	0.046
-221.640	264.090	-0.176	0.306
-220.625	-200.000	0.046	-0.298
-219.611	-133.320	0.223	0.028
-218.596	-65.699	-0.325	0.130
-217.582	568.696	-0.138	-0.336
-216.567	-76.715	0.275	0.097
-215.552	-63.062	-0.026	0.011
-214.538	-39.129	0.039	-0.020
-213.523	-31.522	-0.216	-0.122
-212.509	-65.660	-0.072	0.029
-211.494	-50.091	0.132	0.062
-210.479	175.085	-0.060	0.087
-209.465	-76.700	0.187	0.066
-208.450	-84.354	0.210	0.066
-207.436	-200.000	0.035	0.156
-206.421	-29.079	0.242	0.139
-205.406	8.074	-0.095	-0.071
-204.392	-200.000	-0.008	0.190
-203.377	-38.134	-0.182	-0.096
-202.363	129.449	-0.086	-0.110
-201.348	-109.468	-0.408	0.086
-200.333	66.129	-0.045	-0.046
-199.319	-0.767	0.123	-0.087
-198.304	-119.029	-0.330	0.058
-197.290	-149.442	0.102	0.008
-196.275	-16.937	-0.139	-0.088
-195.260	800.000	-0.049	-0.151
-194.246	190.591	-0.158	-0.237
-193.231	80.556	0.068	-0.073
-192.217	-200.000	-0.019	-0.155
-191.202	-9.802	0.154	0.102
-190.187	-91.527	-0.311	-0.089
-189.173	-72.124	-0.044	0.016
-188.158	210.283	0.230	0.362
-187.144	47.869	0.102	-0.095
-186.129	375.791	-0.042	0.085
-185.114	716.894	-0.121	-0.321
-184.100	172.823	0.138	0.198
-183.085	-200.000	0.007	0.255
-182.071	-137.590	-0.343	0.039
-181.056	-25.277	0.142	-0.084
-180.042	-99.657	0.197	0.049
-179.027	299.691	0.116	0.213
-178.012	140.361	-0.068	0.090
-176.998	-125.713	-0.424	0.064
-175.983	-177.733	-0.189	-0.005
-174.969	536.321	0.131	-0.311
-173.954	281.612	0.091	-0.163
-172.939	468.426	-0.027	0.061
-171.925	-200.000	0.021	0.203
-170.910	-151.152	-0.052	-0.004
-169.896	75.025	0.249	0.262
-168.881	-200.000	0.036	0.265
-167.866	72.909	-0.088	-0.092
-166.852	-200.000	0.065	0.292
-165.837	207.874	0.116	-0.181
-164.823	-200.000	0.006	0.340
-163.808	-200.000	0.003	0.167
-162.793	16.636	0.175	0.138
-161.779	-200.000	-0.037	-0.179
-160.764	-200.000	-0.008	-0.162
-159.750	-168.516	0.059	0.002
-158.735	-74.983	-0.134	-0.048
-157.720	-8.885	-0.265	0.178
-156.706	-8.708	0.238	0.159
-155.691	131.180	0.083	0.107
-154.677	-200.000	-0.056	-0.250
-153.662	800.000	-0.094	-0.260
-152.647	31.837	-0.318	-0.274
-151.633	-58.887	-0.111	0.048
-150.618	-15.002	0.210	0.135
-149.604	-200.000	-0.021	-0.112
-148.589	-119.311	0.313	-0.054
-147.574	487.630	0.166	-0.379
-146.560	123.357	-0.287	0.359
-145.545	-200.000	-0.026	-0.139
-144.531	537.917	0.042	0.101
-143.516	124.461	0.024	0.030
-142.502	-73.673	-0.124	-0.045
-141.487	-179.992	-0.406	0.009
-140.472	-74.709	0.052	0.019
-139.458	-128.167	-0.067	-0.010
-138.443	800.000	0.021	-0.089
-137.429	-47.290	0.070	-0.034
-136.414	-91.340	-0.118	-0.034
-135.399	-82.529	0.119	0.038
-134.385	-16.188	-0.140	0.089
-133.370	29.235	-0.146	-0.124
-132.356	-25.168	-0.192	0.113
-131.341	-154.948	-0.510	-0.033
-130.326	90.119	-0.125	0.139
-129.312	658.569	0.173	0.445
-128.297	-200.000	-0.002	0.155
-127.283	3.654	-0.199	0.145
-126.268	666.148	-0.072	0.186
-125.253	-138.839	-0.073	-0.008
-124.239	800.000	-0.037	-0.157
-123.224	-35.355	0.073	-0.040
-122.210	15.051	0.133	-0.104
-121.195	800.000	-0.041	-0.116
-120.180	175.167	0.161	-0.233
-119.166	107.840	0.194	-0.231
-118.151	-200.000	-0.029	0.127
-117.137	123.184	-0.229	0.286
-116.122	461.566	-0.200	0.444
-115.107	-200.000	-0.015	0.095
-114.093	-136.794	0.147	0.017
-113.078	108.032	-0.116	-0.137
-112.064	-101.261	-0.102	0.025
-111.049	4.784	0.229	-0.167
-110.034	125.542	-0.084	0.106
-109.020	6.517	0.149	-0.110
-108.005	55.613	0.179	0.173
-106.991	135.195	0.089	-0.115
-105.976	-6.091	-0.155	-0.106
-104.962	98.357	-0.112	-0.128
-103.947	-68.857	0.155	-0.060
-102.932	-200.000	0.013	0.412
-101.918	-145.235	0.210	0.019
-100.903	-200.000	0.034	-0.188
-99.889	-26.085	0.086	0.051
-98.874	-200.000	0.023	0.276
-97.859	28.234	0.224	-0.188
-96.845	154.531	0.174	-0.238
-95.830	-200.000	-0.027	0.237
-94.816	-95.505	0.117	-0.031
-93.801	-138.088	0.288	0.032
-92.786	-140.318	-0.144	0.015
-91.772	-189.420	-0.189	0.002
-90.757	18.337	-0.117	0.093
-89.743	592.286	-0.119	-0.292
-88.728	-200.000	-0.010	0.137
-87.713	262.655	0.043	0.074
-86.699	-72.627	0.105	-0.039
-85.684	12.128	0.062	0.047
-84.670	247.053	0.152	0.255
-83.655	46.874	0.115	-0.106
-82.640	-48.570	0.138	-0.066
-81.626	-200.000	-0.004	-0.216
-80.611	252.964	-0.142	-0.241
-79.597	-200.000	-0.026	0.242
-78.582	48.330	-0.110	-0.102
-77.567	-200.000	-0.060	0.302
-76.553	-146.705	-0.334	-0.029
-75.538	329.736	0.161	-0.309
-74.524	-102.622	-0.375	0.089
-73.509	-82.406	-0.363	-0.117
-72.494	152.819	-0.022	-0.029
-71.480	518.364	0.053	0.123
-70.465	501.203	0.074	0.169
-69.451	-200.000	-0.044	-0.213
-68.436	45.786	0.098	-0.091
-67.422	153.753	0.104	0.141
-66.407	-200.000	-0.016	0.112
-65.392	-105.081	0.180	0.041
-64.378	-200.000	-0.042	-0.293
-63.363	-125.338	-0.234	0.036
-62.349	800.000	0.111	-0.373
-61.334	251.544	-0.418	-0.707
-60.319	214.796	0.293	0.463
-59.305	614.399	-0.228	-0.569
-58.290	122.000	0.624	0.774
-57.276	363.750	0.680	1.360
-56.261	-200.000	82.014	503.715
-55.246	472.989	1378.133	3088.469
-54.232	142.555	2615.206	3454.291
-53.217	110.118	2261.177	2699.576
-52.203	49.139	1703.859	1592.170
-51.188	41.708	1431.232	1289.639
-50.173	38.553	1386.637	1229.634
-49.159	56.125	1427.477	1378.039
-48.144	61.085	1446.070	1427.501
-47.130	42.216	1405.477	1269.452
-46.115	38.504	1388.497	1230.783
-45.100	38.204	1383.778	1224.669
-44.086	38.219	1381.062	1222.307
-43.071	38.129	1378.714	1219.622
-42.057	38.129	1376.220	1217.364
-41.042	38.223	1374.659	1216.525
-40.027	38.199	1373.519	1215.313
-39.013	38.257	1371.018	1213.418
-37.998	38.264	1369.299	1211.892
-36.984	38.309	1367.721	1210.723
-35.969	38.338	1365.756	1209.116
-34.954	38.387	1363.709	1207.554
-33.940	38.402	1363.092	1207.057
-32.925	38.412	1361.213	1205.407
-31.911	38.393	1359.547	1203.765
-30.896	38.492	1357.819	1202.796
-29.881	38.490	1356.543	1201.607
-28.867	38.369	1355.588	1199.970
-27.852	38.574	1353.580	1199.398
-26.838	38.397	1352.658	1197.453
-25.823	38.378	1351.386	1196.162
-24.809	38.418	1349.817	1194.972
-23.794	38.446	1348.152	1193.621
-22.779	38.472	1346.638	1192.388
-21.765	38.377	1345.775	1190.998
-20.750	38.435	1343.883	1189.630
-19.736	38.231	1343.009	1187.574
-18.721	38.192	1341.927	1186.329
-17.706	38.319	1340.314	1185.626
-16.692	38.288	1338.849	1184.099
-15.677	38.304	1338.334	1183.691
-14.663	38.361	1336.458	1182.329
-13.648	38.229	1335.669	1180.788
-12.633	38.285	1334.775	1180.286
-11.619	38.274	1333.849	1179.357
-10.604	38.267	1333.033	1178.546
-9.590	38.275	1331.712	1177.381
-8.575	38.169	1331.066	1176.125
-7.560	38.190	1329.990	1175.252
-6.546	38.198	1328.957	1174.338
-5.531	38.197	1328.236	1173.650
-4.517	38.280	1326.898	1172.922
-3.502	38.262	1326.131	1172.088
-2.487	38.232	1325.425	1171.240
-1.473	38.389	1321.196	1168.390
-0.458	37.511	1306.231	1149.921
0.556	32.630	1287.381	1110.517
1.571	28.503	1291.787	1089.758
2.586	27.082	1306.658	1093.655
3.600	26.035	1295.408	1077.890
4.615	22.255	1223.440	996.541
5.629	16.427	1145.989	902.344
6.644	13.333	1124.904	869.424
7.659	13.070	1122.100	865.802
8.673	12.976	1120.475	863.978
9.688	12.981	1119.421	863.115
10.702	13.244	1118.158	863.438
11.717	17.064	1123.628	887.599
12.731	21.041	1128.465	912.184
13.746	19.980	1125.195	903.927
14.761	17.785	1121.987	889.833
15.775	16.525	1119.752	881.418
16.790	15.456	1117.468	873.976
17.804	14.688	1115.709	868.529
18.819	14.246	1114.260	865.029
19.834	14.036	1112.819	862.744
20.848	13.648	1112.384	860.315
21.863	13.517	1110.778	858.319
22.877	13.467	1110.488	857.760
23.892	13.255	1109.902	856.134
24.907	13.260	1109.206	855.546
25.921	13.293	1107.869	854.611
26.936	13.304	1106.646	853.649
27.950	13.241	1105.386	852.276
28.965	13.504	1103.173	851.846
29.980	13.449	1101.991	850.579
30.994	13.625	1100.672	850.389
32.009	13.586	1099.553	849.249
33.023	13.595	1098.319	848.264
34.038	13.469	1097.501	846.912
35.053	13.447	1096.428	845.901
36.067	13.497	1095.315	845.218
37.082	13.477	1094.735	844.597
38.096	13.528	1094.033	844.239
39.111	13.508	1093.123	843.359
40.126	13.478	1091.951	842.232
41.140	13.352	1090.609	840.480
42.155	13.217	1089.683	839.007
43.169	13.263	1088.403	838.178
44.184	13.235	1087.087	836.951
45.199	13.245	1086.163	836.218
46.213	13.415	1084.445	835.679
47.228	13.358	1083.906	834.899
48.242	13.433	1082.882	834.415
49.257	13.346	1082.198	833.377
50.271	13.232	1081.778	832.406
51.286	13.484	1079.585	831.909
52.301	13.239	1079.686	830.685
53.315	13.289	1078.366	829.845
54.330	13.230	1077.111	828.509
55.344	13.428	1076.038	828.603
56.359	13.282	1074.961	826.969
57.374	13.257	1074.088	826.100
58.388	13.276	1073.158	825.407
59.403	13.203	1072.753	824.660
60.417	13.205	1071.289	823.472
61.432	13.212	1070.667	822.956
62.447	13.194	1069.791	822.119
63.461	13.104	1068.865	820.890
64.476	13.190	1067.383	820.106
65.490	13.138	1067.258	819.675
66.505	13.171	1066.473	819.165
67.520	13.173	1065.774	818.568
68.534	13.177	1065.047	817.956
69.549	13.100	1064.339	816.955
70.563	13.076	1063.380	816.030
71.578	13.143	1062.538	815.645
72.593	13.046	1061.873	814.580
73.607	13.069	1061.442	814.294
74.622	13.172	1060.598	814.078
75.636	13.101	1059.850	813.084
76.651	13.088	1059.261	812.495
77.666	13.119	1058.408	811.925
78.680	13.191	1057.521	811.526
79.695	13.078	1057.262	810.700
80.709	13.269	1055.972	810.574
81.724	13.260	1055.237	809.897
82.739	13.290	1054.694	809.552
83.753	13.463	1053.681	809.548
84.768	13.465	1052.934	808.914
85.782	13.441	1052.108	808.092
86.797	13.452	1051.245	807.411
87.812	13.411	1050.249	806.372
88.826	13.391	1049.187	805.389
89.841	13.482	1047.885	804.762
90.855	13.557	1047.323	804.621
91.870	13.533	1046.320	803.665
92.884	13.503	1045.435	802.769
93.899	13.449	1044.315	801.578
94.914	13.543	1043.931	801.668
95.928	13.520	1043.229	800.947
96.943	13.382	1042.243	799.451
97.957	13.482	1041.445	799.251
98.972	13.516	1040.229	798.411
99.987	13.496	1039.347	797.567
101.001	13.519	1038.252	796.766
102.016	13.398	1037.758	795.732
103.030	13.510	1036.874	795.525
104.045	13.430	1036.203	794.554
105.060	13.389	1034.722	793.153
106.074	13.387	1033.446	792.096
107.089	13.354	1032.623	791.235
108.103	13.316	1031.958	790.477
109.118	13.249	1031.031	789.372
110.133	13.305	1029.934	788.734
111.147	13.202	1029.232	787.633
112.162	13.339	1028.422	787.597
113.176	13.383	1027.319	786.891
114.191	13.415	1026.369	786.248
115.206	13.257	1026.131	785.244
116.220	13.390	1024.662	784.679
117.235	13.282	1024.252	783.786
118.249	13.312	1023.500	783.285
119.264	13.375	1022.602	782.824
120.279	13.306	1021.600	781.663
121.293	13.340	1020.754	781.104
122.308	13.323	1020.057	780.422
123.322	13.335	1018.836	779.475
124.337	13.320	1017.631	778.417
125.352	13.262	1016.725	777.379
126.366	13.273	1015.417	776.365
127.381	13.291	1014.459	775.645
128.395	13.349	1013.810	775.352
129.410	13.308	1012.902	774.397
130.424	13.320	1011.944	773.654
131.439	13.538	1010.974	773.862
132.454	13.510	1010.438	773.253
133.468	13.517	1009.367	772.397
134.483	13.416	1008.855	771.466
135.497	13.464	1008.057	771.011
136.512	13.460	1007.096	770.190
137.527	13.500	1006.132	769.571
138.541	13.461	1005.520	768.852
139.556	13.495	1005.182	768.683
140.570	13.633	1003.861	768.245
141.585	13.635	1002.810	767.385
142.600	13.701	1002.165	767.125
143.614	13.800	1000.930	766.572
144.629	13.655	1000.333	765.375
145.643	13.746	998.983	764.697
146.658	13.644	997.896	763.326
147.673	13.622	997.334	762.730
148.687	13.482	996.627	761.474
149.702	13.460	995.588	760.512
150.716	13.493	995.200	760.304
151.731	13.520	994.135	759.546
152.746	13.482	993.382	758.727
153.760	13.738	992.273	758.985
154.775	13.522	991.979	757.705
155.789	13.670	991.249	757.755
156.804	13.668	990.166	756.852
157.819	13.681	989.664	756.462
158.833	13.753	989.156	756.333
159.848	13.783	988.435	755.853
160.862	13.653	987.302	754.326
161.877	13.575	986.440	753.248
162.892	13.638	985.464	752.721
163.906	13.563	983.950	751.157
164.921	13.531	983.240	750.404
165.935	13.627	982.386	750.122
166.950	13.655	981.307	749.360
167.964	13.782	980.428	749.194
168.979	13.633	979.721	747.914
169.994	13.629	978.669	747.028
171.008	13.653	977.882	746.470
172.023	13.776	977.261	746.485
173.037	13.856	976.459	746.165
174.052	13.841	975.730	745.474
175.067	13.690	975.046	744.207
176.081	13.653	974.706	743.716
177.096	13.731	974.213	743.622
178.110	13.764	973.665	743.287
179.125	13.690	972.909	742.314
180.140	13.797	972.234	742.212
181.154	13.677	972.402	741.738
182.169	13.790	971.492	741.481
183.183	13.842	971.137	741.377
184.198	13.886	969.806	740.492
185.213	14.034	969.088	740.537
186.227	13.865	968.680	739.410
187.242	13.943	968.300	739.400
188.256	14.130	967.070	739.228
189.271	13.969	966.461	737.981
190.286	13.800	965.658	736.551
191.300	13.720	965.013	735.641
192.315	13.747	964.276	735.132
193.329	13.615	964.028	734.292
194.344	13.761	963.150	734.205
195.359	13.742	962.552	733.603
196.373	13.881	961.856	733.620
197.388	14.079	961.384	734.069
198.402	14.127	960.674	733.674
199.417	14.154	960.287	733.431
200.432	14.211	959.396	732.938
201.446	14.341	958.744	732.948
202.461	14.271	958.572	732.446
203.475	14.199	958.029	731.648
204.490	14.102	957.646	730.864
205.504	14.233	955.953	730.080
206.519	14.130	955.422	729.158
207.534	14.119	954.560	728.391
208.548	14.095	953.940	727.745
209.563	14.080	953.474	727.263
210.577	14.224	952.787	727.302
211.592	14.244	952.217	726.891
212.607	14.308	951.083	726.237
213.621	14.241	950.515	725.450
214.636	14.354	949.329	724.974
215.650	14.246	948.719	723.974
216.665	14.409	948.010	724.076
217.680	14.313	947.687	723.349
218.694	14.453	946.987	723.359
219.709	14.329	946.333	722.254
220.723	14.459	945.249	721.925
221.738	14.362	944.824	721.117
222.753	14.393	944.003	720.565
223.767	14.377	943.672	720.177
224.782	14.564	942.840	720.285
225.796	14.560	942.525	719.962
226.811	14.511	942.012	719.299
227.826	14.525	941.093	718.591
228.840	14.538	940.068	717.800
229.855	14.638	938.994	717.348
230.869	14.457	938.650	716.243
231.884	14.571	937.918	716.111
232.899	14.428	937.348	714.999
233.913	14.545	936.161	714.533
234.928	14.502	935.475	713.763
235.942	14.388	935.722	713.400
236.957	14.550	934.387	713.011
237.972	14.445	933.828	712.072
238.986	14.676	933.063	712.411
240.001	14.592	932.807	711.796
241.015	14.543	932.106	710.987
242.030	14.638	931.169	710.615
243.045	14.694	930.419	710.220
244.059	14.601	930.206	709.596
245.074	14.706	929.283	709.277
246.088	14.610	929.178	708.725
247.103	14.778	927.980	708.462
248.117	14.804	927.824	708.389
249.132	14.795	927.019	707.676
250.147	15.057	926.474	708.305
251.161	14.925	925.851	707.209
252.176	15.014	925.122	706.965
253.190	15.015	924.585	706.494
254.205	15.071	923.485	705.827
255.220	14.989	923.008	705.055
256.234	14.908	922.612	704.352
257.249	15.067	921.764	704.309
258.263	15.017	921.391	703.753
259.278	15.258	920.144	703.751
260.293	15.164	919.629	702.897
261.307	15.306	919.004	702.955
262.322	15.128	918.687	701.904
263.336	15.198	917.697	701.379
264.351	15.213	916.755	700.659
265.366	15.272	916.467	700.621
266.380	15.244	915.862	699.981
267.395	15.218	914.703	698.924
268.409	15.205	914.157	698.390
269.424	15.075	913.821	697.534
270.439	15.265	912.487	697.241
271.453	15.209	912.227	696.748
272.468	15.130	911.661	695.929
273.482	15.202	910.808	695.513
274.497	15.320	909.828	695.194
275.512	15.204	909.612	694.485
276.526	15.303	909.402	694.674
277.541	15.287	909.135	694.343
278.555	15.350	908.279	693.888
279.570	15.287	907.758	693.169
280.585	15.379	906.903	692.833
281.599	15.447	906.010	692.369
282.614	15.599	904.570	691.836
283.628	15.441	904.671	691.199
284.643	15.393	904.052	690.467
285.657	15.488	903.119	690.085
286.672	15.390	902.580	689.209
287.687	15.428	902.158	688.984
288.701	15.494	901.894	688.992
289.716	15.451	901.219	688.238
290.730	15.472	900.423	687.655
291.745	15.376	900.004	686.883
292.760	15.547	898.980	686.736
293.774	15.493	898.521	686.104
294.789	15.607	897.732	685.908
295.803	15.579	897.246	685.362
296.818	15.559	896.067	684.319
297.833	15.597	895.424	683.923
298.847	15.647	894.803	683.591
299.862	15.660	894.334	683.225
300.876	15.666	893.724	682.723
301.891	15.825	892.948	682.716
302.906	15.793	892.552	682.223
303.920	15.898	891.947	682.126
304.935	15.997	891.609	682.205
305.949	15.834	891.032	681.046
306.964	15.891	890.231	680.604
307.979	15.883	889.512	679.959
308.993	15.904	889.062	679.643
310.008	15.956	888.183	679.121
311.022	15.974	887.982	678.979
312.037	15.918	887.035	677.967
313.052	15.799	886.864	677.298
314.066	15.622	886.354	676.137
315.081	15.750	885.749	676.129
316.095	15.848	884.801	675.741
317.110	15.777	884.345	675.048
318.125	15.756	883.825	674.508
319.139	15.808	883.440	674.362
320.154	15.946	882.671	674.267
321.168	15.797	882.370	673.381
322.183	15.831	882.324	673.421
323.197	16.071	881.205	673.467
324.212	15.930	880.814	672.546
325.227	15.890	880.090	671.774
326.241	15.900	879.612	671.389
327.256	15.860	878.943	670.660
328.270	15.886	878.709	670.524
329.285	15.988	877.743	670.136
330.300	15.884	877.157	669.217
331.314	16.095	876.473	669.473
332.329	15.988	876.259	668.825
333.343	16.094	875.733	668.785
334.358	16.135	875.141	668.438
335.373	16.120	874.556	667.870
336.387	16.029	874.748	667.597
337.402	16.165	874.264	667.708
338.416	16.169	873.676	667.215
339.431	16.230	873.019	666.895
340.446	16.276	872.974	666.984
341.460	16.351	872.319	666.722
342.475	16.420	872.059	666.736
343.489	16.298	871.517	665.780
344.504	16.314	871.382	665.682
345.519	16.400	870.456	665.255
346.533	16.458	869.938	665.026
347.548	16.577	869.398	665.023
348.562	16.371	868.596	663.542
349.577	16.376	867.960	663.015
350.592	16.271	867.469	662.172
351.606	16.482	866.435	662.149
352.621	16.300	866.442	661.384
353.635	16.471	865.474	661.255
354.650	16.463	864.693	660.571
355.665	16.443	864.197	660.055
356.679	16.377	863.410	659.135
357.694	16.597	862.633	659.344
358.708	16.489	862.309	658.617
359.723	16.525	861.830	658.332
360.738	16.540	861.267	657.901
361.752	16.570	860.164	657.117
362.767	16.680	859.798	657.206
363.781	16.530	859.378	656.247
364.796	16.871	858.730	657.015
365.810	16.708	858.548	656.187
366.825	16.846	857.913	656.176
367.840	16.721	857.825	655.567
368.854	16.615	857.455	654.816
369.869	16.693	856.882	654.622
370.883	16.818	856.216	654.540
371.898	16.809	856.036	654.308
372.913	16.925	855.185	654.048
373.927	16.721	855.234	653.241
374.942	16.866	854.552	653.220
375.956	16.904	854.182	653.027
376.971	17.022	853.507	652.904
377.986	17.115	852.738	652.617
379.000	16.974	852.675	651.971
380.015	16.943	852.042	651.311
381.029	17.194	851.125	651.514
382.044	17.012	850.799	650.509
383.059	17.084	850.150	650.233
384.073	17.000	849.740	649.537
385.088	16.981	848.940	648.795
386.102	17.002	848.501	648.485
387.117	17.037	847.889	648.091
388.132	16.967	846.964	647.061
389.146	16.981	846.766	646.904
390.161	17.091	846.139	646.789
391.175	17.046	845.663	646.197
392.190	17.030	845.339	645.832
393.205	16.918	844.951	645.052
394.219	16.988	844.489	644.907
395.234	17.049	844.067	644.761
396.248	17.079	843.249	644.193
397.263	16.870	843.207	643.310
398.278	16.744	843.084	642.679
399.292	17.007	842.189	642.938
400.307	17.046	841.606	642.582
401.321	17.026	841.310	642.226
402.336	17.136	840.801	642.197
403.350	17.088	840.460	641.697
404.365	17.303	839.459	641.689
405.380	17.295	839.011	641.258
406.394	17.308	838.494	640.855
407.409	17.277	837.994	640.301
408.423	17.457	837.889	640.839
409.438	17.363	837.882	640.425
410.453	17.473	837.285	640.327
411.467	17.411	837.002	639.818
412.482	17.454	836.375	639.446
413.496	17.584	835.804	639.440
414.511	17.594	835.371	639.088
415.526	17.472	834.942	638.245
416.540	17.501	834.567	638.014
417.555	17.629	833.875	637.906
418.569	17.512	833.665	637.253
419.584	17.486	833.278	636.801
420.599	17.614	832.870	636.914
421.613	96.348	1278.407	1406.254
422.628	83.247	1343.332	1406.372
