DTS Sentinel unit serial number:	SN413079Multiplexer serial number:	ORYXHardware model number:	OX4-SRSoftware version number:	ORYX F/W v4.00 Oryx Data Collector v3.7.2.0data status	okinstallation	princeton_trtdifferential loss correction	single-endedforward channel	channel 1reverse channel	N/Adate	2019/09/16time	05:10:35forward acquisition time	60.00reverse acquisition time	0.00gamma	496.2192k internal	0.2332k external	0.2332temperature offset calibration	0.9985default loss term (dB/km)	0.3790temperature slope calibration	1.0000multiplexer offset coefficient	1.0000multiplexer slope coefficient	1.0000fibre end	0.00T internal ref (°C)	27.19T ext. ref 1 (°C)	11.03T ext. ref 2 (°C)	22.20length (m)	temperature (°C)	Stokes	anti-Stokes-747.200	-200.000	0.034	0.183
-746.185	428.021	-0.133	0.288
-745.171	800.000	0.080	0.224
-744.156	-200.000	-0.064	0.321
-743.142	135.411	0.073	0.095
-742.127	-200.000	0.002	0.073
-741.112	800.000	-0.037	-0.155
-740.098	-123.652	-0.338	-0.054
-739.083	-200.000	0.029	0.246
-738.069	472.857	-0.173	0.393
-737.054	-75.832	0.404	0.144
-736.039	55.939	-0.223	0.218
-735.025	-19.766	-0.153	-0.095
-734.010	-3.379	0.107	0.075
-732.996	252.009	-0.122	0.208
-731.981	-17.901	-0.212	0.133
-730.966	800.000	0.107	-0.366
-729.952	800.000	0.066	-0.258
-728.937	800.000	0.048	0.153
-727.923	-200.000	-0.063	0.315
-726.908	-39.219	0.251	-0.133
-725.894	50.763	-0.077	0.073
-724.879	450.829	0.046	0.101
-723.864	-200.000	-0.020	0.100
-722.850	800.000	0.130	-0.448
-721.835	-18.794	-0.122	-0.076
-720.821	-200.000	0.020	0.350
-719.806	-131.027	0.227	0.030
-718.791	357.786	0.050	-0.101
-717.777	26.118	-0.266	0.223
-716.762	-21.271	-0.295	-0.181
-715.748	-16.644	0.057	-0.036
-714.733	-150.169	-0.201	-0.016
-713.718	15.186	0.155	-0.122
-712.704	-107.133	-0.083	0.018
-711.689	-159.852	0.196	-0.011
-710.675	-155.742	0.171	-0.011
-709.660	-90.659	-0.234	-0.068
-708.645	24.550	0.226	-0.188
-707.631	260.663	0.090	-0.157
-706.616	-37.608	-0.082	0.044
-705.602	-200.000	0.001	-0.237
-704.587	800.000	-0.057	0.170
-703.572	441.605	0.110	-0.241
-702.558	101.267	-0.076	-0.089
-701.543	800.000	0.071	0.224
-700.529	-150.545	0.379	-0.029
-699.514	300.281	0.033	0.061
-698.499	-22.987	0.046	-0.028
-697.485	-200.000	-0.065	-0.394
-696.470	89.234	0.123	-0.138
-695.456	-5.561	-0.453	-0.312
-694.441	-8.195	0.225	0.152
-693.426	403.616	-0.089	0.188
-692.412	-75.037	-0.353	0.127
-691.397	158.911	0.201	-0.280
-690.383	-52.764	-0.153	-0.071
-689.368	-75.362	-0.360	0.129
-688.354	-161.128	-0.386	-0.020
-687.339	-37.973	-0.275	-0.147
-686.324	439.630	-0.058	-0.127
-685.310	-67.912	-0.366	-0.143
-684.295	-1.965	0.305	-0.215
-683.281	3.177	0.187	-0.136
-682.266	111.636	-0.046	-0.056
-681.251	168.994	-0.105	-0.150
-680.237	160.547	0.048	0.067
-679.222	20.497	0.319	0.259
-678.208	89.498	-0.034	-0.038
-677.193	-79.641	-0.235	-0.079
-676.178	-110.342	-0.145	-0.030
-675.164	35.405	-0.081	-0.071
-674.149	423.115	-0.126	-0.272
-673.135	800.000	0.010	-0.036
-672.120	83.464	0.229	0.251
-671.105	-15.266	0.216	-0.138
-670.091	-94.917	0.235	-0.064
-669.076	-125.116	-0.007	0.001
-668.062	-200.000	-0.003	-0.265
-667.047	-98.949	-0.276	0.070
-666.032	-119.455	-0.234	0.041
-665.018	-76.663	0.017	0.006
-664.003	43.516	-0.143	-0.131
-662.989	-91.990	0.195	-0.055
-661.974	-39.687	-0.080	-0.042
-660.959	696.490	0.089	0.234
-659.945	-97.622	0.137	0.036
-658.930	5.861	0.110	0.082
-657.916	-200.000	-0.033	0.201
-656.901	-3.204	0.430	-0.300
-655.886	800.000	-0.178	0.526
-654.872	155.039	-0.238	-0.328
-653.857	155.974	-0.051	0.071
-652.843	135.606	0.169	-0.220
-651.828	800.000	0.169	-0.483
-650.814	124.979	-0.031	0.039
-649.799	-134.900	-0.258	-0.031
-648.784	-200.000	0.036	-0.256
-647.770	-75.733	0.078	-0.028
-646.755	-129.131	0.057	-0.008
-645.741	-112.956	-0.184	-0.037
-644.726	-61.587	-0.180	-0.076
-643.711	638.865	-0.093	-0.238
-642.697	-33.945	-0.211	-0.116
-641.682	800.000	-0.048	-0.192
-640.668	-116.191	-0.333	-0.062
-639.653	65.127	0.114	-0.116
-638.638	543.805	-0.201	0.480
-637.624	-200.000	-0.006	0.342
-636.609	29.239	0.065	0.055
-635.595	-130.324	0.064	0.009
-634.580	78.392	0.151	-0.162
-633.565	800.000	0.046	-0.154
-632.551	87.283	-0.119	-0.132
-631.536	-95.190	-0.383	-0.103
-630.522	800.000	0.075	-0.294
-629.507	460.619	0.045	0.101
-628.492	-57.496	0.341	-0.150
-627.478	800.000	0.036	0.122
-626.463	150.393	0.167	-0.227
-625.449	13.527	0.083	0.065
-624.434	-200.000	0.052	0.265
-623.419	-36.926	-0.365	-0.196
-622.405	800.000	0.037	-0.110
-621.390	-5.241	0.084	0.058
-620.376	89.739	-0.134	-0.150
-619.361	-120.009	0.098	-0.017
-618.346	52.931	0.120	0.115
-617.332	2.228	0.198	0.143
-616.317	-57.658	0.203	0.089
-615.303	65.427	-0.029	0.029
-614.288	-143.790	0.229	0.022
-613.273	-130.666	-0.204	-0.027
-612.259	-126.736	-0.220	0.033
-611.244	-18.873	-0.233	0.145
-610.230	-87.155	-0.201	0.061
-609.215	-200.000	0.007	-0.156
-608.201	-7.365	-0.276	-0.187
-607.186	800.000	-0.077	0.334
-606.171	365.799	-0.029	-0.058
-605.157	-200.000	-0.022	0.164
-604.142	-51.139	0.315	0.148
-603.128	-141.263	-0.434	0.044
-602.113	-200.000	-0.012	-0.400
-601.098	-77.503	0.172	0.060
-600.084	-63.385	0.108	0.045
-599.069	-200.000	0.033	-0.157
-598.055	9.514	0.247	0.187
-597.040	-14.044	-0.077	-0.049
-596.025	784.150	-0.040	0.109
-595.011	274.834	0.160	0.284
-593.996	-153.853	0.144	0.010
-592.982	-90.559	0.168	0.049
-591.967	-113.522	-0.273	-0.053
-590.952	537.169	-0.029	0.069
-589.938	-200.000	0.006	0.201
-588.923	-53.617	-0.363	0.166
-587.909	-149.137	0.167	0.013
-586.894	-54.523	-0.163	0.074
-585.879	-54.966	-0.189	-0.085
-584.865	59.955	-0.184	0.182
-583.850	-155.450	0.281	0.018
-582.836	-39.810	-0.288	-0.150
-581.821	2.170	-0.114	-0.082
-580.806	308.975	-0.022	0.041
-579.792	-83.820	0.119	-0.038
-578.777	233.015	0.016	-0.027
-577.763	-53.397	-0.221	0.101
-576.748	-50.939	0.121	-0.057
-575.733	109.870	0.210	0.251
-574.719	-88.898	-0.226	-0.067
-573.704	-44.377	-0.236	-0.118
-572.690	-200.000	-0.021	-0.171
-571.675	-200.000	0.072	-0.415
-570.661	-104.639	0.116	-0.027
-569.646	800.000	-0.036	-0.115
-568.631	84.044	-0.105	0.114
-567.617	46.689	0.094	-0.087
-566.602	-169.781	0.403	0.014
-565.588	-200.000	0.008	0.333
-564.573	-179.443	-0.097	-0.002
-563.558	82.351	-0.147	0.159
-562.544	29.937	-0.092	0.079
-561.529	-66.650	-0.107	0.042
-560.515	-60.616	0.198	-0.084
-559.500	-124.884	0.214	-0.033
-558.485	-31.655	-0.249	0.139
-557.471	86.492	0.316	-0.348
-556.456	-200.000	-0.124	0.604
-555.442	-76.661	-0.034	0.012
-554.427	800.000	-0.040	0.146
-553.412	-200.000	-0.023	0.155
-552.398	-81.247	-0.290	0.096
-551.383	-160.711	0.086	-0.005
-550.369	-39.569	-0.111	0.058
-549.354	-56.880	-0.146	-0.064
-548.339	-144.233	-0.063	0.006
-547.325	-200.000	-0.008	-0.276
-546.310	-43.383	0.240	0.121
-545.296	261.204	0.109	0.188
-544.281	-44.309	-0.107	0.054
-543.266	-51.070	0.410	0.192
-542.252	-8.102	-0.124	0.084
-541.237	-44.886	0.253	0.126
-540.223	150.041	-0.181	0.245
-539.208	-76.558	-0.417	0.146
-538.193	98.702	0.255	0.294
-537.179	-142.738	-0.157	0.015
-536.164	800.000	0.051	-0.155
-535.150	-46.673	0.205	0.100
-534.135	-110.527	-0.137	-0.028
-533.121	-200.000	-0.025	0.487
-532.106	575.901	0.047	-0.114
-531.091	269.918	-0.120	0.210
-530.077	127.381	0.092	0.116
-529.062	229.439	-0.106	-0.173
-528.048	-200.000	-0.004	-0.085
-527.033	176.587	0.084	-0.121
-526.018	-200.000	0.010	0.104
-525.004	64.724	-0.133	-0.133
-523.989	-200.000	0.017	-0.139
-522.975	313.274	0.091	0.171
-521.960	280.691	0.103	0.184
-520.945	166.376	-0.138	-0.195
-519.931	-87.040	-0.403	-0.122
-518.916	-200.000	0.013	-0.073
-517.902	-75.116	-0.132	0.047
-516.887	74.540	-0.106	-0.111
-515.872	120.008	-0.159	-0.196
-514.858	93.953	0.276	0.312
-513.843	-154.775	0.251	0.017
-512.829	-137.612	-0.274	0.031
-511.814	101.097	0.253	0.294
-510.799	-65.871	-0.025	0.010
-509.785	-83.754	-0.232	0.074
-508.770	649.156	-0.039	-0.098
-507.756	353.942	-0.188	-0.372
-506.741	97.514	-0.136	-0.155
-505.726	-17.932	0.449	0.281
-504.712	61.939	-0.119	-0.119
-503.697	-107.016	-0.325	-0.072
-502.683	800.000	0.052	-0.188
-501.668	-34.206	0.271	0.148
-500.653	108.741	0.197	0.234
-499.639	203.273	0.187	-0.288
-498.624	92.859	-0.181	0.204
-497.610	-120.631	0.266	0.045
-496.595	-29.805	0.331	0.188
-495.581	800.000	0.060	-0.198
-494.566	-111.626	-0.096	0.019
-493.551	-77.202	-0.442	-0.153
-492.537	-200.000	0.026	-0.162
-491.522	-200.000	-0.033	0.331
-490.508	316.741	-0.047	0.088
-489.493	-200.000	-0.014	-0.069
-488.478	800.000	-0.102	0.402
-487.464	321.561	-0.073	0.138
-486.449	-22.103	0.088	0.053
-485.435	-109.169	0.216	-0.046
-484.420	107.379	0.210	-0.249
-483.405	-106.095	-0.260	0.058
-482.391	-71.317	0.236	-0.088
-481.376	43.478	0.237	-0.215
-480.362	-200.000	-0.004	-0.155
-479.347	-68.471	0.157	0.060
-478.332	88.025	-0.286	-0.315
-477.318	107.108	-0.066	-0.078
-476.303	671.862	-0.040	-0.103
-475.289	-200.000	0.004	0.109
-474.274	-84.686	0.151	0.047
-473.259	15.741	0.082	-0.064
-472.245	800.000	0.019	-0.068
-471.230	-200.000	0.024	-0.155
-470.216	-28.326	0.125	0.072
-469.201	99.726	0.196	0.226
-468.186	110.721	0.107	0.129
-467.172	-122.696	-0.109	-0.018
-466.157	-1.031	0.087	0.061
-465.143	-47.855	-0.199	0.096
-464.128	1.162	0.114	0.081
-463.113	20.081	0.122	-0.098
-462.099	-158.511	0.254	0.015
-461.084	-137.511	-0.072	-0.008
-460.070	-31.346	0.132	0.074
-459.055	-200.000	0.005	-0.215
-458.040	204.096	0.126	0.194
-457.026	254.748	-0.100	-0.171
-456.011	61.793	-0.047	0.047
-454.997	469.777	-0.119	0.266
-453.982	-200.000	-0.038	0.430
-452.968	-67.514	0.078	-0.031
-451.953	-119.658	0.288	-0.050
-450.938	-96.474	-0.242	0.063
-449.924	-63.051	0.287	0.118
-448.909	-200.000	0.007	0.079
-447.895	426.677	-0.150	0.322
-446.880	113.569	0.239	-0.289
-445.865	-33.644	-0.151	-0.083
-444.851	-57.541	0.326	-0.142
-443.836	-32.524	0.052	-0.029
-442.822	800.000	-0.065	-0.195
-441.807	274.926	0.137	-0.242
-440.792	-48.469	-0.041	0.020
-439.778	49.272	-0.165	-0.154
-438.763	-200.000	0.089	0.514
-437.749	800.000	-0.166	0.518
-436.734	166.235	0.219	0.308
-435.719	1.570	-0.284	-0.203
-434.705	71.041	0.265	-0.273
-433.690	-68.342	0.094	0.036
-432.676	126.879	0.146	0.184
-431.661	407.052	0.083	-0.174
-430.646	800.000	-0.073	0.273
-429.632	800.000	-0.076	0.319
-428.617	122.011	-0.246	0.305
-427.603	-157.763	-0.406	-0.024
-426.588	-100.617	0.519	-0.127
-425.573	-99.888	-0.112	0.028
-424.559	-32.735	0.186	-0.103
-423.544	20.010	-0.187	0.150
-422.530	-102.585	0.141	-0.034
-421.515	-200.000	0.019	0.279
-420.500	-200.000	0.034	-0.188
-419.486	108.675	0.063	0.075
-418.471	-200.000	-0.026	0.331
-417.457	-200.000	0.053	-0.252
-416.442	-27.812	-0.074	0.042
-415.428	800.000	0.024	0.075
-414.413	-97.907	-0.120	0.031
-413.398	-34.147	-0.202	0.110
-412.384	-200.000	0.006	-0.048
-411.369	-148.647	0.309	0.025
-410.355	105.997	0.138	-0.162
-409.340	79.448	-0.154	-0.164
-408.325	130.503	-0.045	-0.057
-407.311	800.000	0.011	0.044
-406.296	-152.919	0.303	-0.021
-405.282	-169.457	0.215	-0.008
-404.267	-48.883	-0.371	-0.176
-403.252	-20.872	-0.126	0.077
-402.238	241.966	0.238	-0.394
-401.223	-200.000	-0.008	-0.078
-400.209	800.000	-0.118	0.383
-399.194	0.245	0.097	0.069
-398.179	-73.855	-0.161	-0.058
-397.165	318.909	-0.112	0.211
-396.150	800.000	0.068	-0.284
-395.136	-13.585	-0.352	0.226
-394.121	293.812	0.047	0.085
-393.106	-2.858	0.177	0.123
-392.092	356.859	-0.005	0.011
-391.077	54.197	0.204	0.195
-390.063	-49.482	0.382	-0.181
-389.048	181.717	0.053	0.077
-388.033	-200.000	-0.000	-0.036
-387.019	81.388	0.145	0.156
-386.004	-200.000	0.028	0.403
-384.990	173.165	-0.182	-0.260
-383.975	-200.000	-0.028	0.141
-382.960	142.259	0.114	0.150
-381.946	-200.000	-0.007	0.039
-380.931	-200.000	-0.054	-0.267
-379.917	87.647	-0.150	-0.164
-378.902	107.408	-0.074	-0.087
-377.888	59.238	-0.263	-0.257
-376.873	-75.408	-0.327	-0.116
-375.858	-91.396	0.161	-0.046
-374.844	800.000	-0.017	0.067
-373.829	-200.000	0.081	0.374
-372.815	409.859	-0.085	0.179
-371.800	-19.530	0.054	0.033
-370.785	106.811	0.127	-0.149
-369.771	639.633	0.108	0.271
-368.756	-27.115	-0.230	-0.133
-367.742	-200.000	-0.048	0.234
-366.727	-2.509	-0.274	-0.190
-365.712	800.000	-0.084	0.258
-364.698	-124.478	0.179	0.028
-363.683	194.689	0.160	-0.241
-362.669	55.321	-0.278	-0.266
-361.654	-23.972	-0.123	0.073
-360.639	-106.000	-0.120	-0.027
-359.625	456.178	-0.143	0.315
-358.610	-24.935	-0.150	0.088
-357.596	-200.000	-0.004	-0.082
-356.581	16.126	0.259	-0.202
-355.566	-3.877	-0.218	0.150
-354.552	591.500	-0.125	-0.305
-353.537	-83.208	-0.372	-0.118
-352.523	378.579	0.082	0.165
-351.508	105.700	-0.237	0.277
-350.493	-146.170	0.132	-0.012
-349.479	-200.000	-0.311	0.000
-348.464	15.172	-0.312	-0.242
-347.450	-28.058	-0.121	-0.069
-346.435	-176.219	-0.265	0.007
-345.420	-60.181	0.067	-0.028
-344.406	99.200	0.082	-0.094
-343.391	409.945	0.117	-0.246
-342.377	234.979	-0.075	-0.122
-341.362	287.201	-0.139	-0.249
-340.348	-200.000	-0.011	0.117
-339.333	-200.000	0.011	-0.075
-338.318	-200.000	-0.026	0.184
-337.304	-200.000	-0.065	0.000
-336.289	274.694	0.154	0.270
-335.275	800.000	-0.112	-0.324
-334.260	-41.091	-0.061	-0.031
-333.245	-72.554	0.438	-0.160
-332.231	56.168	0.309	-0.297
-331.216	-42.695	0.060	-0.030
-330.202	-44.680	0.093	-0.046
-329.187	-200.000	0.037	-0.205
-328.172	-133.944	0.073	-0.009
-327.158	-1.901	0.215	0.150
-326.143	800.000	-0.081	-0.224
-325.129	506.645	-0.055	-0.126
-324.114	800.000	-0.098	-0.347
-323.099	-39.348	-0.233	0.121
-322.085	-200.000	-0.004	0.261
-321.070	-20.982	0.077	-0.047
-320.056	-150.781	-0.082	-0.006
-319.041	-168.265	-0.162	0.006
-318.026	43.307	-0.367	-0.332
-317.012	122.374	0.120	0.148
-315.997	45.440	0.034	-0.031
-314.983	-112.906	0.327	0.064
-313.968	-0.035	0.098	0.069
-312.953	800.000	-0.170	-0.519
-311.939	-95.722	0.445	0.118
-310.924	232.560	0.064	-0.104
-309.910	800.000	0.039	-0.168
-308.895	-167.275	-0.222	0.009
-307.880	0.474	0.197	0.139
-306.866	81.249	-0.115	-0.123
-305.851	34.230	-0.163	-0.141
-304.837	295.550	-0.177	0.321
-303.822	-130.041	-0.072	-0.010
-302.807	-200.000	0.037	0.180
-301.793	-200.000	-0.011	-0.190
-300.778	-22.733	-0.148	-0.088
-299.764	28.612	0.117	0.098
-298.749	33.105	-0.146	0.125
-297.735	-200.000	0.030	0.184
-296.720	-200.000	0.083	0.365
-295.705	-200.000	-0.010	-0.198
-294.691	-106.137	0.280	0.062
-293.676	800.000	-0.028	-0.114
-292.662	283.131	-0.186	-0.330
-291.647	112.789	-0.121	-0.145
-290.632	-200.000	0.391	-0.001
-289.618	-200.000	-0.010	-0.050
-288.603	-81.411	-0.220	0.072
-287.589	542.573	0.045	0.106
-286.574	62.302	-0.290	-0.286
-285.559	-200.000	0.005	0.036
-284.545	-96.414	0.106	0.028
-283.530	78.835	-0.057	0.060
-282.516	800.000	0.029	-0.122
-281.501	-34.088	0.296	0.161
-280.486	141.979	-0.084	0.109
-279.472	327.953	-0.139	-0.264
-278.457	-200.000	0.014	0.128
-277.443	4.828	0.042	-0.031
-276.428	0.699	0.118	-0.083
-275.413	800.000	-0.041	0.165
-274.399	-111.193	-0.088	-0.018
-273.384	17.541	-0.192	0.151
-272.370	-113.478	-0.129	0.025
-271.355	47.985	0.128	0.118
-270.340	-125.656	0.107	-0.016
-269.326	339.699	-0.100	0.192
-268.311	247.029	-0.128	-0.213
-267.297	-105.169	-0.235	-0.053
-266.282	-65.554	-0.158	-0.063
-265.267	-164.983	0.070	-0.003
-264.253	-200.000	0.002	-0.175
-263.238	156.464	-0.101	0.137
-262.224	169.178	-0.213	-0.300
-261.209	-65.918	-0.183	-0.072
-260.195	-102.661	0.474	0.112
-259.180	800.000	-0.082	-0.315
-258.165	-61.028	0.407	-0.170
-257.151	800.000	0.044	0.172
-256.136	-27.258	-0.108	0.062
-255.122	-65.762	-0.263	0.104
-254.107	-69.759	0.023	0.009
-253.092	212.947	0.229	-0.357
-252.078	60.427	0.169	-0.165
-251.063	-106.880	0.146	0.032
-250.049	-76.882	-0.225	0.078
-249.034	113.994	-0.023	-0.027
-248.019	-200.000	0.054	-0.244
-247.005	-200.000	-0.026	0.187
-245.990	-37.443	0.441	-0.232
-244.976	-186.505	-0.471	-0.007
-243.961	-0.860	0.214	-0.150
-242.946	23.512	-0.254	-0.206
-241.932	800.000	-0.083	-0.293
-240.917	-80.271	-0.158	-0.052
-239.903	502.123	0.072	-0.165
-238.888	-200.000	-0.063	0.357
-237.873	-24.938	0.426	0.249
-236.859	-106.561	0.413	0.091
-235.844	800.000	0.073	-0.302
-234.830	-200.000	0.021	0.113
-233.815	229.428	-0.277	0.446
-232.800	-54.579	-0.098	0.044
-231.786	65.118	-0.079	-0.079
-230.771	-63.753	0.288	0.116
-229.757	-58.177	0.267	0.114
-228.742	-200.000	-0.011	-0.430
-227.727	636.884	0.132	0.330
-226.713	72.032	0.147	0.151
-225.698	579.219	-0.132	-0.318
-224.684	295.728	0.109	-0.198
-223.669	-124.498	0.233	-0.036
-222.655	314.850	-0.142	0.265
-221.640	397.181	0.029	-0.060
-220.625	-200.000	0.042	-0.243
-219.611	190.868	0.142	-0.211
-218.596	200.568	0.103	0.156
-217.582	-200.000	0.052	-0.582
-216.567	-91.410	-0.182	-0.051
-215.552	800.000	-0.082	0.240
-214.538	56.220	-0.196	0.188
-213.523	-200.000	-0.029	0.184
-212.509	7.288	0.212	0.156
-211.494	-200.000	-0.014	0.224
-210.479	250.195	-0.110	-0.185
-209.465	-200.000	-0.025	-0.202
-208.450	12.148	-0.125	0.095
-207.436	270.031	-0.088	0.153
-206.421	679.213	0.042	-0.108
-205.406	181.991	0.137	-0.199
-204.392	-109.927	-0.130	0.027
-203.377	143.322	0.048	-0.064
-202.363	604.815	0.157	0.386
-201.348	800.000	0.162	-0.464
-200.333	24.382	-0.157	0.128
-199.319	-200.000	-0.030	0.157
-198.304	239.858	0.088	0.145
-197.290	-19.341	-0.252	-0.154
-196.275	204.704	0.080	0.123
-195.260	-200.000	-0.012	0.053
-194.246	16.957	0.150	-0.117
-193.231	-200.000	-0.061	0.332
-192.217	-40.752	0.402	-0.205
-191.202	-117.230	0.096	0.017
-190.187	506.525	-0.114	-0.260
-189.173	-200.000	0.051	-0.330
-188.158	-200.000	-0.012	0.062
-187.144	441.164	0.177	-0.382
-186.129	119.339	-0.076	-0.092
-185.114	164.931	0.007	0.010
-184.100	300.286	0.132	-0.240
-183.085	-200.000	-0.038	-0.258
-182.071	800.000	0.033	0.091
-181.056	216.846	0.095	-0.148
-180.042	376.228	-0.040	-0.081
-179.027	-77.605	-0.163	-0.056
-178.012	-127.575	0.149	-0.021
-176.998	161.869	0.190	0.261
-175.983	800.000	-0.061	-0.169
-174.969	800.000	0.066	0.201
-173.954	-200.000	0.003	-0.019
-172.939	800.000	-0.060	-0.191
-171.925	319.500	-0.078	0.145
-170.910	-17.268	0.111	-0.069
-169.896	-96.865	0.331	-0.086
-168.881	-16.431	-0.055	-0.034
-167.866	-25.715	0.203	0.118
-166.852	800.000	0.086	0.365
-165.837	159.861	-0.023	-0.032
-164.823	254.688	0.138	0.233
-163.808	-200.000	0.023	-0.129
-162.793	800.000	-0.075	0.241
-161.779	-22.016	-0.240	-0.144
-160.764	800.000	-0.100	-0.383
-159.750	-200.000	0.049	-0.318
-158.735	337.203	-0.073	-0.140
-157.720	-200.000	0.023	0.190
-156.706	-200.000	-0.069	0.410
-155.691	-200.000	-0.005	0.036
-154.677	161.390	0.137	-0.189
-153.662	41.907	-0.196	0.174
-152.647	745.284	0.152	0.403
-151.633	59.290	0.176	-0.170
-150.618	800.000	0.014	0.041
-149.604	-104.887	0.098	-0.022
-148.589	198.789	0.051	0.077
-147.574	800.000	0.058	0.199
-146.560	-200.000	-0.048	-0.230
-145.545	132.118	0.208	0.263
-144.531	-200.000	0.008	0.133
-143.516	-200.000	-0.009	0.200
-142.502	404.323	0.136	-0.282
-141.487	-126.070	-0.242	0.036
-140.472	-200.000	-0.059	0.373
-139.458	179.304	-0.183	0.263
-138.443	64.538	0.151	0.150
-137.429	14.417	-0.107	0.082
-136.414	177.621	-0.040	-0.058
-135.399	649.883	-0.043	0.108
-134.385	16.425	-0.062	0.048
-133.370	-31.255	-0.155	0.086
-132.356	202.442	-0.190	0.288
-131.341	7.898	-0.247	-0.182
-130.326	132.458	-0.231	0.292
-129.312	-141.588	-0.233	0.023
-128.297	-200.000	-0.001	0.028
-127.283	560.717	-0.070	0.166
-126.268	-200.000	-0.003	0.163
-125.253	-75.540	0.445	0.156
-124.239	-200.000	0.024	0.114
-123.224	230.253	0.136	-0.219
-122.210	-150.537	0.321	0.024
-121.195	-23.481	0.187	0.110
-120.180	800.000	-0.028	0.117
-119.166	677.545	-0.140	-0.357
-118.151	378.920	0.147	0.295
-117.137	800.000	-0.039	-0.165
-116.122	226.183	-0.149	0.237
-115.107	-56.698	0.091	0.039
-114.093	-29.524	-0.062	-0.035
-113.078	-159.485	0.168	-0.009
-112.064	-122.662	-0.210	0.033
-111.049	-200.000	-0.034	-0.289
-110.034	-34.365	-0.145	-0.078
-109.020	-200.000	0.063	-0.333
-108.005	-27.234	0.236	-0.135
-106.991	23.304	0.017	0.014
-105.976	-76.898	-0.363	-0.125
-104.962	69.381	0.178	0.180
-103.947	-46.879	-0.185	0.089
-102.932	623.467	-0.052	0.127
-101.918	-200.000	0.029	-0.318
-100.903	386.916	-0.062	-0.126
-99.889	-163.810	-0.153	-0.007
-98.874	-117.209	-0.270	0.048
-97.859	67.501	-0.116	-0.117
-96.845	-37.101	0.115	-0.060
-95.830	141.774	-0.135	-0.175
-94.816	-200.000	0.036	-0.367
-93.801	579.964	0.046	0.111
-92.786	-106.157	-0.372	0.082
-91.772	-200.000	0.013	0.076
-90.757	-50.349	0.206	-0.096
-89.743	98.002	-0.084	-0.095
-88.728	0.224	0.303	0.212
-87.713	30.925	-0.112	-0.094
-86.699	379.204	-0.152	0.305
-85.684	-83.603	-0.338	-0.106
-84.670	-200.000	-0.056	0.256
-83.655	-200.000	0.000	-0.007
-82.640	32.296	0.134	0.114
-81.626	212.783	0.016	-0.025
-80.611	268.560	0.078	-0.135
-79.597	-56.725	-0.210	-0.091
-78.582	-200.000	0.051	0.222
-77.567	194.858	-0.159	0.237
-76.553	-15.338	0.344	-0.215
-75.538	-184.038	-0.034	0.001
-74.524	-52.450	0.329	0.149
-73.509	-166.002	-0.178	-0.007
-72.494	75.002	-0.108	-0.111
-71.480	-72.312	0.242	0.088
-70.465	27.098	0.217	0.179
-69.451	352.614	0.123	0.239
-68.436	61.280	0.086	0.084
-67.422	189.843	-0.052	0.077
-66.407	-40.626	-0.132	0.067
-65.392	192.476	-0.111	-0.164
-64.378	-25.703	0.162	0.094
-63.363	-37.874	0.170	0.089
-62.349	5.097	-0.303	0.218
-61.334	9.053	-1.278	-0.945
-60.319	219.299	0.463	0.725
-59.305	299.584	-0.532	-0.960
-58.290	166.741	0.755	1.049
-57.276	388.167	0.612	1.240
-56.261	-200.000	114.673	646.231
-55.246	467.003	1511.711	3317.264
-54.232	146.870	2677.831	3524.987
-53.217	103.181	2152.971	2470.756
-52.203	38.548	1598.979	1395.967
-51.188	30.471	1344.265	1124.880
-50.173	27.603	1306.141	1076.035
-49.159	55.387	1361.842	1289.863
-48.144	53.577	1376.161	1292.514
-47.130	30.827	1331.365	1116.044
-46.115	27.363	1313.969	1080.888
-45.100	27.131	1309.109	1075.471
-44.086	26.984	1306.385	1072.321
-43.071	26.983	1304.068	1070.374
-42.057	27.063	1302.211	1069.276
-41.042	27.096	1300.214	1067.788
-40.027	27.036	1299.221	1066.578
-39.013	27.070	1297.035	1064.945
-37.998	27.092	1295.114	1063.448
-36.984	27.098	1293.440	1062.069
-35.969	27.161	1291.696	1060.964
-34.954	27.250	1290.293	1060.286
-33.940	27.269	1288.506	1058.886
-32.925	27.164	1287.962	1057.789
-31.911	27.137	1286.271	1056.197
-30.896	27.207	1284.338	1054.979
-29.881	27.296	1282.894	1054.266
-28.867	27.225	1282.114	1053.168
-27.852	27.304	1280.117	1051.945
-26.838	27.344	1278.729	1050.991
-25.823	27.285	1277.899	1049.927
-24.809	27.268	1276.653	1048.765
-23.794	27.256	1275.017	1047.313
-22.779	27.228	1273.743	1046.060
-21.765	27.333	1272.390	1045.513
-20.750	27.317	1271.190	1044.391
-19.736	27.175	1270.048	1042.599
-18.721	27.015	1269.209	1040.951
-17.706	27.238	1267.426	1040.723
-16.692	27.349	1266.055	1040.194
-15.677	27.242	1265.027	1038.697
-14.663	26.979	1264.901	1037.048
-13.648	27.101	1263.171	1036.285
-12.633	27.126	1262.118	1035.522
-11.619	27.140	1261.082	1034.709
-10.604	27.173	1260.351	1034.256
-9.590	27.096	1259.444	1033.037
-8.575	27.273	1258.201	1032.980
-7.560	27.122	1257.643	1031.624
-6.546	27.169	1256.669	1031.049
-5.531	27.095	1255.891	1029.950
-4.517	27.149	1254.967	1029.457
-3.502	27.152	1253.819	1028.490
-2.487	27.136	1252.999	1027.687
-1.473	27.108	1249.145	1024.327
-0.458	25.768	1234.053	1004.444
0.556	21.254	1217.919	969.308
1.571	17.738	1224.717	954.973
2.586	16.951	1239.786	962.177
3.600	17.182	1228.508	954.636
4.615	15.707	1162.542	895.450
5.629	12.699	1096.397	829.299
6.644	11.150	1080.029	809.155
7.659	11.013	1077.543	806.542
8.673	10.959	1076.590	805.490
9.688	10.999	1075.077	804.486
10.702	11.207	1072.552	803.553
11.717	13.099	1074.181	814.035
12.731	16.002	1078.440	831.536
13.746	17.569	1080.700	840.948
14.761	17.633	1079.639	840.367
15.775	16.586	1077.551	833.509
16.790	15.545	1075.369	826.628
17.804	14.911	1073.604	822.079
18.819	14.558	1072.422	819.370
19.834	14.152	1071.690	816.747
20.848	14.039	1070.272	815.037
21.863	13.732	1069.805	813.106
22.877	13.661	1069.077	812.135
23.892	13.615	1068.267	811.223
24.907	13.605	1067.254	810.331
25.921	13.658	1066.328	809.816
26.936	13.721	1065.464	809.392
27.950	13.673	1063.911	807.909
28.965	13.620	1062.738	806.691
29.980	13.858	1060.452	806.039
30.994	13.753	1059.483	804.721
32.009	13.929	1058.657	804.874
33.023	13.892	1057.619	803.837
34.038	13.865	1056.443	802.741
35.053	13.642	1056.021	801.273
36.067	13.635	1055.560	800.818
37.082	13.735	1054.018	800.057
38.096	13.838	1052.916	799.650
39.111	13.786	1052.190	798.773
40.126	13.687	1051.523	797.721
41.140	13.534	1050.243	795.943
42.155	13.601	1048.896	795.174
43.169	13.624	1047.444	794.112
44.184	13.516	1046.880	793.100
45.199	13.610	1045.740	792.615
46.213	13.657	1044.601	791.904
47.228	13.701	1043.330	791.083
48.242	13.679	1042.645	790.386
49.257	13.666	1041.822	789.632
50.271	13.616	1040.972	788.681
51.286	13.855	1039.688	788.775
52.301	13.623	1039.169	787.209
53.315	13.699	1037.874	786.520
54.330	13.603	1036.687	785.095
55.344	13.533	1035.929	784.118
56.359	13.583	1034.653	783.322
57.374	13.656	1033.728	782.895
58.388	13.546	1033.138	781.862
59.403	13.496	1032.065	780.742
60.417	13.556	1031.527	780.551
61.432	13.404	1031.103	779.445
62.447	13.418	1030.059	778.654
63.461	13.500	1028.687	777.930
64.476	13.512	1027.983	777.385
65.490	13.490	1027.210	776.631
66.505	13.424	1026.825	775.963
67.520	13.682	1025.453	776.064
68.534	13.505	1025.236	775.000
69.549	13.450	1024.653	774.235
70.563	13.508	1023.667	773.694
71.578	13.307	1023.200	772.332
72.593	13.578	1021.693	772.389
73.607	13.382	1021.839	771.520
74.622	13.461	1020.843	771.066
75.636	13.503	1020.209	770.716
76.651	13.278	1020.143	769.549
77.666	13.422	1019.262	769.485
78.680	13.466	1018.390	768.965
79.695	13.497	1017.236	768.168
80.709	13.548	1016.659	767.903
81.724	13.583	1016.156	767.617
82.739	13.626	1015.641	767.358
83.753	13.739	1014.458	766.920
84.768	13.801	1013.794	766.637
85.782	13.833	1012.867	766.012
86.797	13.787	1011.956	765.047
87.812	13.746	1010.942	764.021
88.826	13.585	1009.805	762.354
89.841	13.757	1009.263	762.668
90.855	13.739	1008.482	761.930
91.870	13.797	1007.435	761.338
92.884	13.805	1006.984	760.967
93.899	13.933	1005.648	760.474
94.914	13.874	1004.883	759.557
95.928	13.836	1004.293	758.870
96.943	13.701	1003.452	757.551
97.957	13.704	1002.522	756.797
98.972	13.884	1001.592	756.848
99.987	13.896	1000.843	756.270
101.001	13.877	999.679	755.238
102.016	13.841	998.676	754.247
103.030	13.876	998.179	753.968
104.045	13.845	997.421	753.187
105.060	13.779	996.511	752.135
106.074	13.714	995.430	750.955
107.089	13.554	994.536	749.493
108.103	13.595	993.505	748.835
109.118	13.608	992.581	748.129
110.133	13.529	992.092	747.338
111.147	13.584	991.180	746.833
112.162	13.744	989.971	746.575
113.176	13.721	989.120	745.765
114.191	13.702	988.674	745.276
115.206	13.783	987.316	744.551
116.220	13.584	986.909	743.286
117.235	13.764	985.724	743.133
118.249	13.717	984.999	742.311
119.264	13.674	984.223	741.469
120.279	13.610	983.418	740.509
121.293	13.650	982.461	739.903
122.308	13.669	981.389	739.117
123.322	13.675	980.509	738.414
124.337	13.614	979.555	737.359
125.352	13.519	978.523	736.096
126.366	13.736	977.268	736.049
127.381	13.574	976.696	734.833
128.395	13.638	975.576	734.212
129.410	13.609	975.016	733.595
130.424	13.635	974.052	732.918
131.439	13.611	973.449	732.293
132.454	13.628	972.516	731.603
133.468	13.904	971.457	731.958
134.483	13.689	971.051	730.642
135.497	13.884	969.646	730.377
136.512	13.797	968.843	729.326
137.527	13.708	967.937	728.185
138.541	13.790	967.411	728.089
139.556	13.744	966.826	727.380
140.570	13.943	966.003	727.570
141.585	13.965	965.094	726.914
142.600	13.728	964.656	725.487
143.614	13.975	963.185	725.394
144.629	13.957	963.095	725.182
145.643	13.959	961.884	724.214
146.658	14.017	960.394	723.283
147.673	13.867	959.748	722.081
148.687	13.826	959.242	721.454
149.702	13.715	958.754	720.545
150.716	13.839	957.333	719.951
151.731	13.836	956.761	719.443
152.746	13.928	955.907	719.135
153.760	13.814	955.419	718.212
154.775	14.023	955.017	718.750
155.789	13.947	954.185	717.731
156.804	14.055	953.209	717.398
157.819	14.032	952.799	716.929
158.833	14.044	952.199	716.466
159.848	14.005	951.494	715.703
160.862	14.098	950.077	714.974
161.877	13.889	949.458	713.549
162.892	13.883	948.204	712.517
163.906	13.922	947.251	711.905
164.921	13.954	946.531	711.436
165.935	13.963	945.579	710.696
166.950	13.969	944.658	709.968
167.964	14.070	943.986	709.831
168.979	14.032	942.934	708.816
169.994	14.012	942.254	708.158
171.008	14.046	941.044	707.328
172.023	14.141	940.884	707.550
173.037	14.139	939.905	706.743
174.052	14.166	939.567	706.540
175.067	14.070	939.208	705.801
176.081	13.956	938.284	704.562
177.096	14.044	937.741	704.462
178.110	14.207	936.825	704.403
179.125	14.082	936.529	703.590
180.140	14.095	936.166	703.309
181.154	14.270	935.627	703.579
182.169	14.193	934.985	702.710
183.183	14.235	934.512	702.469
184.198	14.166	933.923	701.672
185.213	14.245	933.052	701.293
186.227	14.176	932.191	700.290
187.242	14.333	931.536	700.400
188.256	14.379	931.050	700.165
189.271	14.394	930.150	699.487
190.286	14.125	929.699	697.960
191.300	14.080	928.965	697.155
192.315	14.064	928.312	696.538
193.329	13.972	927.952	695.821
194.344	13.924	927.368	695.121
195.359	14.239	926.458	695.695
196.373	14.256	925.676	695.116
197.388	14.398	925.749	695.703
198.402	14.504	924.850	695.407
199.417	14.404	924.422	694.606
200.432	14.556	923.320	694.352
201.446	14.516	923.139	693.987
202.461	14.578	922.615	693.786
203.475	14.636	921.936	693.459
204.490	14.517	921.377	692.480
205.504	14.398	920.571	691.320
206.519	14.450	919.859	690.942
207.534	14.509	919.177	690.612
208.548	14.458	918.283	689.668
209.563	14.507	917.779	689.430
210.577	14.521	917.026	688.863
211.592	14.667	916.298	688.857
212.607	14.672	915.657	688.332
213.621	14.673	914.983	687.773
214.636	14.627	914.176	686.914
215.650	14.729	913.799	686.992
216.665	14.710	913.246	686.434
217.680	14.905	912.000	686.238
218.694	14.710	911.628	685.096
219.709	14.743	911.429	685.021
220.723	14.775	910.174	684.152
221.738	14.756	909.727	683.678
222.753	14.723	909.297	683.159
223.767	14.821	908.330	682.771
224.782	14.954	907.772	682.832
225.796	14.960	907.433	682.541
226.811	14.813	906.585	681.244
227.826	14.853	905.889	680.826
228.840	14.774	905.731	680.325
229.855	14.778	904.482	679.341
230.869	14.861	903.813	679.118
231.884	14.879	902.890	678.435
232.899	14.841	902.384	677.842
233.913	14.735	901.680	676.822
234.928	14.813	900.903	676.498
235.942	14.907	900.183	676.275
236.957	14.719	900.045	675.353
237.972	14.777	899.451	675.080
238.986	14.816	898.414	674.400
240.001	14.875	897.742	674.074
241.015	14.836	897.205	673.453
242.030	14.869	896.948	673.333
243.045	14.957	896.484	673.282
244.059	14.958	895.818	672.724
245.074	15.023	894.720	672.104
246.088	14.988	894.229	671.534
247.103	14.924	894.064	671.093
248.117	15.137	893.211	671.249
249.132	15.235	892.216	670.832
250.147	15.349	891.923	671.009
251.161	15.331	891.406	670.489
252.176	15.282	890.360	669.448
253.190	15.352	889.783	669.232
254.205	15.457	889.337	669.258
255.220	15.286	888.705	668.043
256.234	15.357	888.027	667.754
257.249	15.372	887.312	667.216
258.263	15.362	886.598	666.583
259.278	15.393	886.245	666.380
260.293	15.346	885.991	665.943
261.307	15.515	884.801	665.662
262.322	15.443	884.617	665.177
263.336	15.621	883.794	665.204
264.351	15.497	883.127	664.155
265.366	15.581	882.147	663.691
266.380	15.639	881.507	663.378
267.395	15.541	881.058	662.597
268.409	15.580	880.297	662.119
269.424	15.562	879.334	661.265
270.439	15.655	878.281	660.781
271.453	15.585	877.817	660.097
272.468	15.531	877.363	659.484
273.482	15.565	877.111	659.371
274.497	15.569	876.123	658.585
275.512	15.676	875.491	658.471
276.526	15.565	875.099	657.685
277.541	15.727	874.588	657.875
278.555	15.698	874.721	657.803
279.570	15.805	873.748	657.433
280.585	15.773	873.056	656.727
281.599	15.735	872.102	655.806
282.614	15.776	871.413	655.387
283.628	15.844	870.631	655.005
284.643	15.760	870.205	654.302
285.657	15.759	869.581	653.769
286.672	15.819	869.217	653.671
287.687	15.794	868.211	652.760
288.701	15.778	867.506	652.113
289.716	15.864	867.246	652.190
290.730	15.793	866.772	651.503
291.745	16.022	865.890	651.667
292.760	15.925	865.608	651.022
293.774	16.053	864.901	650.927
294.789	15.910	864.234	649.814
295.803	15.903	863.323	649.045
296.818	15.918	862.679	648.562
297.833	15.931	862.124	648.136
298.847	16.033	861.404	647.930
299.862	16.022	860.725	647.322
300.876	15.903	860.413	646.571
301.891	16.302	859.414	647.295
302.906	16.068	859.167	646.152
303.920	16.214	858.775	646.360
304.935	16.136	858.228	645.595
305.949	16.298	857.421	645.548
306.964	16.192	856.832	644.644
307.979	16.211	856.757	644.601
308.993	16.217	855.808	643.853
310.008	16.358	855.228	643.900
311.022	16.172	854.779	642.796
312.037	16.236	853.754	642.212
313.052	16.157	853.284	641.499
314.066	16.212	853.036	641.467
315.081	16.201	852.554	641.003
316.095	16.174	852.061	640.474
317.110	16.202	851.050	639.763
318.125	16.182	850.660	639.338
319.139	16.198	850.348	639.110
320.154	16.219	849.824	638.739
321.168	16.216	849.226	638.220
322.183	16.287	848.385	637.800
323.197	16.251	847.794	637.164
324.212	16.466	847.129	637.418
325.227	16.378	846.728	636.727
326.241	16.351	846.270	636.224
327.256	16.383	845.661	635.833
328.270	16.282	845.509	635.282
329.285	16.274	844.639	634.541
330.300	16.237	844.039	633.895
331.314	16.412	843.240	633.898
332.329	16.316	843.270	633.501
333.343	16.273	842.914	633.017
334.358	16.471	842.207	633.173
335.373	16.534	841.922	633.139
336.387	16.490	841.489	632.590
337.402	16.632	841.362	632.971
338.416	16.541	840.764	632.124
339.431	16.621	840.396	632.090
340.446	16.665	840.174	632.031
341.460	16.675	839.599	631.582
342.475	16.665	839.312	631.271
343.489	16.669	838.778	630.831
344.504	16.922	837.944	631.091
345.519	16.773	837.992	630.516
346.533	16.838	837.235	630.132
347.548	16.757	836.990	629.591
348.562	16.603	836.536	628.622
349.577	16.753	835.664	628.465
350.592	16.825	834.711	627.962
351.606	16.691	834.245	627.060
352.621	16.658	833.808	626.553
353.635	16.876	832.673	626.449
354.650	16.791	832.459	625.918
355.665	16.680	831.803	624.959
356.679	16.822	831.211	624.985
357.694	16.922	830.463	624.735
358.708	16.810	830.101	623.996
359.723	17.015	829.184	624.005
360.738	17.020	828.741	623.636
361.752	16.910	828.337	622.871
362.767	17.019	827.288	622.425
363.781	17.178	827.179	622.873
364.796	17.186	826.467	622.313
365.810	17.276	826.063	622.281
366.825	17.195	825.834	621.759
367.840	17.105	825.536	621.148
368.854	17.174	825.018	620.954
369.869	17.174	824.426	620.454
370.883	17.139	824.075	620.009
371.898	17.103	823.956	619.731
372.913	17.216	823.486	619.737
373.927	17.147	823.054	619.105
374.942	17.144	822.406	618.554
375.956	17.258	821.846	618.492
376.971	17.312	821.520	618.389
377.986	17.293	821.218	618.037
379.000	17.371	820.805	617.955
380.015	17.289	820.266	617.195
381.029	17.453	819.602	617.238
382.044	17.570	818.807	617.007
383.059	17.438	818.280	616.078
384.073	17.399	817.570	615.347
385.088	17.295	816.929	614.436
386.102	17.392	816.538	614.436
387.117	17.414	816.042	614.089
388.132	17.387	815.403	613.457
389.146	17.338	815.150	613.034
390.161	17.294	814.604	612.410
391.175	17.434	814.078	612.467
392.190	17.526	813.782	612.519
393.205	17.492	813.073	611.810
394.219	17.327	813.105	611.186
395.234	17.339	812.598	610.796
396.248	17.347	811.961	610.291
397.263	17.379	811.452	609.968
398.278	17.518	810.946	610.032
399.292	17.405	810.706	609.393
400.307	17.529	809.903	609.179
401.321	17.484	809.606	608.742
402.336	17.398	809.409	608.230
403.350	17.503	808.968	608.221
404.365	17.548	808.439	607.932
405.380	17.568	808.085	607.681
406.394	17.759	807.422	607.811
407.409	17.749	806.892	607.321
408.423	17.750	806.368	606.879
409.438	17.795	806.186	606.847
410.453	17.832	805.961	606.757
411.467	17.742	805.405	605.963
412.482	17.939	804.879	606.214
413.496	17.909	804.541	605.797
414.511	17.946	803.970	605.446
415.526	17.873	803.735	604.955
416.540	18.020	802.913	604.803
417.555	17.985	802.558	604.360
418.569	17.999	802.180	604.071
419.584	17.812	802.014	603.233
420.599	17.997	801.242	603.252
421.613	111.890	1295.004	1477.291
422.628	96.433	1366.916	1477.374
