DTS Sentinel unit serial number:	SN413079Multiplexer serial number:	ORYXHardware model number:	OX4-SRSoftware version number:	ORYX F/W v4.00 Oryx Data Collector v3.7.2.0data status	okinstallation	princeton_trtdifferential loss correction	single-endedforward channel	channel 1reverse channel	N/Adate	2019/09/12time	01:04:11forward acquisition time	60.00reverse acquisition time	0.00gamma	496.2192k internal	0.2320k external	0.2320temperature offset calibration	1.0079default loss term (dB/km)	0.3790temperature slope calibration	1.0000multiplexer offset coefficient	1.0000multiplexer slope coefficient	1.0000fibre end	0.00T internal ref (°C)	33.12T ext. ref 1 (°C)	2.07T ext. ref 2 (°C)	27.06length (m)	temperature (°C)	Stokes	anti-Stokes-747.200	168.835	-0.115	-0.165
-746.185	-136.275	-0.068	0.008
-745.171	-200.000	0.041	0.473
-744.156	800.000	-0.057	0.216
-743.142	702.579	-0.116	0.310
-742.127	-107.245	0.282	-0.063
-741.112	-200.000	-0.007	0.251
-740.098	-104.095	-0.205	-0.048
-739.083	149.701	-0.246	-0.338
-738.069	318.869	-0.051	-0.097
-737.054	223.253	-0.122	-0.198
-736.039	476.704	0.201	-0.459
-735.025	25.619	0.065	0.055
-734.010	126.243	-0.282	-0.360
-732.996	-50.671	-0.207	0.099
-731.981	80.844	0.051	0.056
-730.966	-200.000	0.009	-0.134
-729.952	-147.238	0.240	-0.021
-728.937	-200.000	-0.059	-0.336
-727.923	-47.058	0.071	-0.035
-726.908	-39.186	-0.273	-0.145
-725.894	-97.330	-0.117	0.031
-724.879	-69.735	0.266	-0.103
-723.864	457.250	-0.083	-0.187
-722.850	-200.000	-0.030	-0.178
-721.835	-33.860	0.101	0.056
-720.821	-136.824	-0.361	0.042
-719.806	-54.700	-0.344	0.157
-718.791	-42.635	-0.219	0.113
-717.777	306.775	0.069	-0.130
-716.762	-4.258	0.324	-0.227
-715.748	-77.773	-0.066	-0.023
-714.733	-139.230	0.164	0.018
-713.718	529.037	-0.082	0.196
-712.704	-80.538	0.150	0.050
-711.689	389.335	0.036	0.076
-710.675	192.528	0.090	0.138
-709.660	-200.000	-0.003	-0.617
-708.645	422.649	0.172	-0.372
-707.631	330.602	0.041	-0.080
-706.616	204.875	-0.012	-0.019
-705.602	446.022	0.066	0.147
-704.587	127.375	0.141	-0.181
-703.572	-174.260	0.330	-0.010
-702.558	-79.247	-0.308	-0.105
-701.543	800.000	-0.049	-0.150
-700.529	-200.000	-0.193	-0.001
-699.514	-82.658	0.220	-0.072
-698.499	-88.190	0.055	-0.017
-697.485	-7.793	0.348	0.238
-696.470	-200.000	-0.034	-0.150
-695.456	627.289	0.145	-0.369
-694.441	459.425	0.101	-0.226
-693.426	800.000	-0.038	0.134
-692.412	-200.000	-0.004	0.095
-691.397	39.900	-0.105	0.095
-690.383	109.795	-0.119	-0.144
-689.368	-101.724	0.222	-0.054
-688.354	800.000	0.066	0.248
-687.339	-156.495	-0.206	-0.013
-686.324	800.000	-0.028	0.108
-685.310	-110.763	0.145	-0.030
-684.295	-89.655	0.118	-0.035
-683.281	-108.565	-0.018	0.004
-682.266	42.973	0.198	0.182
-681.251	92.083	0.178	0.202
-680.237	-200.000	0.001	-0.455
-679.222	47.638	0.135	-0.127
-678.208	754.964	-0.016	0.044
-677.193	41.111	-0.173	-0.158
-676.178	-144.534	-0.152	-0.014
-675.164	203.369	-0.087	0.136
-674.149	30.425	-0.065	-0.056
-673.135	348.084	0.090	-0.179
-672.120	-200.000	-0.058	-0.482
-671.105	53.272	-0.156	0.151
-670.091	127.061	-0.032	0.041
-669.076	-170.860	0.214	0.007
-668.062	79.442	0.324	-0.350
-667.047	74.806	-0.074	-0.079
-666.032	800.000	0.037	0.121
-665.018	430.356	0.069	-0.151
-664.003	168.539	-0.317	-0.455
-662.989	-128.679	0.501	-0.071
-661.974	-39.927	-0.140	-0.073
-660.959	198.886	0.141	-0.218
-659.945	-69.316	0.265	-0.103
-658.930	-17.553	-0.175	0.111
-657.916	-200.000	0.088	-0.481
-656.901	-3.714	-0.231	-0.162
-655.886	-89.745	0.193	-0.057
-654.872	-200.000	0.003	-0.421
-653.857	-156.186	0.126	-0.008
-652.843	202.187	-0.058	0.090
-651.828	-51.066	-0.157	-0.074
-650.814	-2.955	0.087	-0.061
-649.799	-77.903	-0.047	0.016
-648.784	313.292	0.117	0.222
-647.770	108.944	0.128	0.154
-646.755	-44.326	0.404	0.204
-645.741	38.036	-0.102	-0.092
-644.726	100.040	-0.115	0.135
-643.711	2.146	-0.167	-0.122
-642.697	-58.069	0.152	-0.067
-641.682	-71.252	0.074	0.028
-640.668	55.567	0.148	-0.145
-639.653	-86.745	0.074	-0.023
-638.638	-156.366	0.311	-0.020
-637.624	737.836	0.062	0.168
-636.609	-5.045	-0.196	-0.136
-635.595	15.700	-0.281	-0.223
-634.580	-200.000	0.013	-0.275
-633.565	250.426	-0.075	0.129
-632.551	-60.213	-0.333	0.143
-631.536	153.828	0.078	0.108
-630.522	224.876	0.106	0.172
-629.507	-53.028	0.109	-0.050
-628.492	-25.338	-0.112	-0.067
-627.478	800.000	-0.084	-0.333
-626.463	-127.534	0.095	0.014
-625.449	-56.926	-0.120	0.053
-624.434	-105.522	-0.074	0.017
-623.419	152.228	0.036	-0.049
-622.405	800.000	0.017	0.067
-621.390	-106.844	0.257	0.057
-620.376	800.000	-0.030	-0.083
-619.361	1.237	0.238	0.172
-618.346	-18.580	-0.104	-0.065
-617.332	235.307	0.107	-0.178
-616.317	-200.000	0.037	0.182
-615.303	-33.588	-0.274	-0.152
-614.288	-124.975	-0.121	-0.019
-613.273	-200.000	0.034	0.367
-612.259	-97.149	-0.284	-0.075
-611.244	-200.000	0.048	-0.493
-610.230	-60.860	0.208	0.088
-609.215	29.747	0.032	0.027
-608.201	219.273	-0.218	-0.351
-607.186	-200.000	0.152	-0.000
-606.171	51.083	-0.118	0.112
-605.157	677.413	0.111	0.290
-604.142	-200.000	-0.050	-0.269
-603.128	-200.000	0.005	0.178
-602.113	-79.591	0.289	-0.098
-601.098	61.095	-0.207	0.206
-600.084	-200.000	-0.020	0.264
-599.069	-200.000	-0.075	-0.342
-598.055	661.534	0.031	0.079
-597.040	125.333	-0.078	-0.099
-596.025	596.488	-0.057	-0.143
-595.011	314.550	0.142	0.268
-593.996	11.172	-0.099	-0.076
-592.982	-41.857	-0.159	-0.082
-591.967	800.000	0.066	-0.243
-590.952	284.106	0.174	-0.315
-589.938	-1.021	0.233	-0.166
-588.923	-4.916	-0.458	0.317
-587.909	153.746	0.066	-0.091
-586.894	-177.012	0.113	0.003
-585.879	225.517	-0.088	-0.143
-584.865	-57.116	-0.024	-0.011
-583.850	-90.466	-0.161	0.047
-582.836	6.125	-0.080	-0.060
-581.821	-200.000	0.029	-0.269
-580.806	390.877	0.079	0.165
-579.792	-36.995	0.163	-0.088
-578.777	12.559	-0.269	0.209
-577.763	545.337	-0.190	0.455
-576.748	-6.307	-0.128	0.088
-575.733	-200.000	0.040	-0.229
-574.719	-37.512	0.041	0.022
-573.704	-57.512	0.154	-0.068
-572.690	-119.930	-0.167	0.029
-571.675	64.078	0.216	-0.219
-570.661	345.748	0.088	0.174
-569.646	56.254	0.237	-0.231
-568.631	-2.056	0.091	-0.064
-567.617	-32.068	-0.110	0.062
-566.602	800.000	-0.044	0.182
-565.588	-157.293	0.230	-0.014
-564.573	-129.889	-0.090	0.012
-563.558	145.566	0.050	0.067
-562.544	-112.547	-0.158	-0.032
-561.529	-200.000	0.014	0.243
-560.515	-200.000	-0.030	0.212
-559.500	-116.513	0.164	-0.030
-558.485	-200.000	-0.046	0.592
-557.471	-49.454	-0.193	0.092
-556.456	425.091	0.073	-0.158
-555.442	138.860	0.101	0.133
-554.427	-97.687	-0.312	-0.081
-553.412	-200.000	-0.020	-0.132
-552.398	1.427	0.057	-0.041
-551.383	125.167	0.082	0.104
-550.369	-102.128	0.043	0.010
-549.354	262.943	-0.047	0.081
-548.339	-199.676	0.166	-0.001
-547.325	138.782	-0.107	-0.141
-546.310	173.063	0.087	0.125
-545.296	-156.770	-0.051	-0.003
-544.281	-60.220	0.139	-0.059
-543.266	52.094	0.125	0.119
-542.252	-154.818	0.252	-0.017
-541.237	800.000	0.048	0.144
-540.223	-106.379	-0.410	-0.092
-539.208	-87.424	0.254	0.077
-538.193	800.000	-0.049	-0.173
-537.179	-49.344	0.189	0.090
-536.164	-54.560	-0.090	-0.041
-535.150	-200.000	-0.017	-0.089
-534.135	137.786	0.144	0.189
-533.121	-200.000	0.002	-0.386
-532.106	-200.000	0.036	-0.189
-531.091	356.530	-0.081	0.162
-530.077	687.353	-0.091	0.239
-529.062	-200.000	-0.012	0.091
-528.048	-102.139	0.150	0.036
-527.033	800.000	0.066	0.205
-526.018	800.000	-0.008	-0.026
-525.004	800.000	-0.058	0.200
-523.989	-49.927	-0.134	0.064
-522.975	-175.277	-0.505	0.014
-521.960	126.063	-0.097	-0.123
-520.945	770.741	-0.056	-0.152
-519.931	-57.010	-0.081	0.036
-518.916	800.000	-0.020	-0.086
-517.902	800.000	-0.071	0.220
-516.887	800.000	-0.066	-0.238
-515.872	51.188	-0.278	-0.264
-514.858	128.887	-0.103	0.132
-513.843	-140.619	-0.276	0.029
-512.829	69.292	-0.042	-0.043
-511.814	329.254	0.033	0.064
-510.799	-200.000	-0.046	-0.222
-509.785	116.489	0.145	-0.179
-508.770	-83.211	-0.352	-0.113
-507.756	-195.973	-0.099	-0.001
-506.741	-176.884	0.363	0.009
-505.726	-200.000	0.045	0.309
-504.712	800.000	-0.071	0.227
-503.697	246.590	0.129	-0.218
-502.683	149.607	-0.070	0.096
-501.668	97.854	-0.159	0.183
-500.653	-200.000	-0.004	0.320
-499.639	34.206	-0.070	-0.061
-498.624	453.640	-0.163	-0.362
-497.610	800.000	0.146	-0.475
-496.595	-32.935	-0.111	-0.062
-495.581	391.238	-0.095	0.197
-494.566	14.157	-0.083	0.065
-493.551	-26.057	-0.089	-0.053
-492.537	45.266	0.169	0.156
-491.522	-101.744	-0.259	-0.063
-490.508	-200.000	0.053	-0.333
-489.493	222.857	-0.156	-0.252
-488.478	-157.416	-0.257	-0.015
-487.464	-44.947	0.129	0.064
-486.449	78.548	-0.185	0.198
-485.435	-122.542	0.106	0.017
-484.420	-200.000	0.037	-0.221
-483.405	584.779	-0.152	-0.373
-482.391	223.497	0.076	-0.122
-481.376	345.141	0.060	-0.118
-480.362	-149.687	-0.437	0.034
-479.347	532.747	0.100	-0.236
-478.332	800.000	0.067	0.196
-477.318	-157.380	0.295	-0.018
-476.303	55.977	-0.264	0.256
-475.289	-200.000	-0.026	-0.155
-474.274	-136.543	0.255	0.030
-473.259	28.346	0.086	0.073
-472.245	-200.000	0.002	0.180
-471.230	-200.000	-0.041	0.222
-470.216	-200.000	0.055	-0.281
-469.201	90.119	-0.234	-0.261
-468.186	253.179	-0.105	-0.180
-467.172	-200.000	-0.016	-0.217
-466.157	571.489	-0.047	-0.115
-465.143	53.610	-0.331	0.318
-464.128	69.902	0.080	0.083
-463.113	473.375	0.163	0.368
-462.099	9.230	-0.184	-0.139
-461.084	-200.000	0.048	-0.255
-460.070	800.000	0.092	0.342
-459.055	62.683	-0.098	0.098
-458.040	-69.462	0.238	-0.091
-457.026	-166.492	-0.166	-0.007
-456.011	-200.000	-0.018	-0.085
-454.997	113.309	0.069	-0.084
-453.982	800.000	-0.076	0.232
-452.968	-9.909	0.282	-0.187
-451.953	-200.000	0.023	-0.202
-450.938	704.253	-0.075	0.198
-449.924	516.243	-0.096	0.225
-448.909	-60.752	0.298	0.126
-447.895	210.168	-0.061	0.096
-446.880	56.720	-0.166	0.162
-445.865	-120.821	-0.221	0.037
-444.851	-25.170	-0.061	-0.036
-443.836	47.097	0.316	-0.293
-442.822	800.000	0.103	0.306
-441.807	180.744	-0.211	-0.310
-440.792	-98.930	-0.155	-0.039
-439.778	774.546	-0.074	0.201
-438.763	-151.168	-0.189	0.014
-437.749	51.204	0.165	-0.157
-436.734	-173.649	0.240	0.007
-435.719	800.000	-0.018	-0.057
-434.705	135.562	-0.148	0.193
-433.690	-50.608	0.176	0.083
-432.676	-200.000	0.026	-0.158
-431.661	-110.824	-0.157	-0.032
-430.646	-103.881	0.214	0.050
-429.632	-200.000	-0.005	-0.046
-428.617	-35.071	-0.154	0.084
-427.603	477.951	-0.124	-0.281
-426.588	301.114	0.231	0.427
-425.573	-200.000	0.016	0.331
-424.559	509.064	-0.055	0.127
-423.544	800.000	-0.057	-0.184
-422.530	-56.934	-0.206	0.091
-421.515	-9.410	0.036	-0.024
-420.500	800.000	0.051	0.154
-419.486	-69.748	-0.176	0.067
-418.471	380.430	-0.041	-0.084
-417.457	800.000	-0.041	-0.164
-416.442	-22.813	0.113	-0.068
-415.428	-200.000	0.001	-0.211
-414.413	-79.880	-0.244	0.082
-413.398	-105.339	0.230	0.052
-412.384	-97.661	-0.139	0.036
-411.369	-74.725	-0.167	-0.060
-410.355	24.703	-0.126	0.104
-409.340	-200.000	0.010	-0.137
-408.325	181.759	-0.143	-0.211
-407.311	44.008	0.413	0.378
-406.296	392.012	0.026	0.053
-405.282	-108.074	-0.216	-0.047
-404.267	243.327	0.172	-0.287
-403.252	800.000	-0.036	0.146
-402.238	19.681	0.220	-0.177
-401.223	-92.023	0.353	-0.100
-400.209	800.000	0.032	0.097
-399.194	-109.203	-0.170	-0.036
-398.179	-135.377	0.238	0.028
-397.165	-45.597	-0.450	-0.222
-396.150	-66.576	-0.103	-0.041
-395.136	-78.334	-0.319	-0.109
-394.121	482.685	-0.069	0.156
-393.106	800.000	-0.037	0.156
-392.092	-81.960	-0.203	0.066
-391.077	111.928	0.213	0.256
-390.063	-200.000	0.026	-0.202
-389.048	-50.113	-0.103	-0.048
-388.033	800.000	-0.116	-0.382
-387.019	12.906	0.145	-0.112
-386.004	2.171	-0.268	0.193
-384.990	-67.915	-0.118	-0.046
-383.975	363.240	-0.260	-0.521
-382.960	-200.000	0.068	0.379
-381.946	-200.000	-0.022	0.146
-380.931	224.015	0.219	0.352
-379.917	-68.204	0.181	-0.070
-378.902	-116.367	-0.257	-0.047
-377.888	114.113	0.128	-0.156
-376.873	-39.546	-0.100	-0.052
-375.858	676.643	-0.098	0.253
-374.844	-200.000	-0.045	0.401
-373.829	-186.690	0.341	0.005
-372.815	-169.928	0.162	0.006
-371.800	193.304	0.062	-0.094
-370.785	3.458	0.258	0.187
-369.771	262.594	-0.160	-0.276
-368.756	800.000	-0.061	-0.184
-367.742	-101.073	-0.278	-0.068
-366.727	148.790	0.122	0.165
-365.712	-200.000	-0.000	0.132
-364.698	-41.707	-0.139	-0.071
-363.683	91.119	-0.462	-0.517
-362.669	-32.476	-0.132	-0.074
-361.654	519.731	-0.068	0.159
-360.639	-67.548	-0.578	0.226
-359.625	41.973	0.179	0.161
-358.610	800.000	0.054	-0.187
-357.596	92.860	-0.123	-0.138
-356.581	194.786	-0.126	0.191
-355.566	232.786	-0.081	-0.133
-354.552	-200.000	-0.019	-0.091
-353.537	-200.000	0.001	0.027
-352.523	329.864	0.191	0.366
-351.508	800.000	-0.031	-0.096
-350.493	-200.000	0.003	-0.179
-349.479	47.558	0.111	0.104
-348.464	223.321	-0.042	0.067
-347.450	99.371	0.290	-0.334
-346.435	-59.587	0.242	0.103
-345.420	404.776	0.052	0.110
-344.406	-87.720	0.229	0.069
-343.391	-86.262	0.312	0.096
-342.377	-200.000	0.007	0.268
-341.362	800.000	0.145	-0.521
-340.348	2.897	-0.345	0.249
-339.333	800.000	0.067	-0.224
-338.318	-0.306	0.174	-0.123
-337.304	387.435	-0.070	-0.144
-336.289	18.023	0.109	0.087
-335.275	-5.548	-0.156	-0.106
-334.260	490.564	0.122	-0.278
-333.245	781.414	-0.068	-0.186
-332.231	-200.000	-0.021	-0.174
-331.216	56.069	0.192	-0.185
-330.202	800.000	-0.073	-0.304
-329.187	-155.882	0.221	0.014
-328.172	72.817	0.199	0.207
-327.158	-200.000	0.037	-0.233
-326.143	71.401	-0.107	0.110
-325.129	-130.694	0.235	-0.031
-324.114	37.437	0.143	0.127
-323.099	-106.873	-0.149	-0.033
-322.085	-200.000	0.002	-0.069
-321.070	800.000	0.031	-0.115
-320.056	62.817	-0.046	0.045
-319.041	97.837	-0.148	-0.169
-318.026	-200.000	0.025	-0.359
-317.012	163.836	-0.030	-0.042
-315.997	106.599	0.250	-0.295
-314.983	244.954	-0.084	0.140
-313.968	-108.420	0.299	0.064
-312.953	-200.000	0.007	-0.217
-311.939	343.893	0.081	0.158
-310.924	-98.578	-0.167	-0.042
-309.910	-11.907	0.165	-0.108
-308.895	441.045	0.041	0.090
-307.880	-21.574	0.071	0.043
-306.866	-200.000	0.021	-0.130
-305.851	-200.000	-0.020	-0.122
-304.837	-128.968	-0.339	0.047
-303.822	-61.060	0.050	0.021
-302.807	161.120	-0.185	0.258
-301.793	-126.461	-0.129	-0.019
-300.778	205.675	-0.238	0.368
-299.764	-96.177	0.344	0.091
-298.749	-200.000	-0.010	0.125
-297.735	-11.482	-0.387	0.253
-296.720	12.337	-0.194	0.149
-295.705	-196.170	-0.513	0.004
-294.691	33.306	0.162	0.140
-293.676	-200.000	-0.039	-0.186
-292.662	-5.651	0.345	0.235
-291.647	-200.000	-0.027	0.127
-290.632	-154.326	-0.280	0.019
-289.618	690.124	0.077	-0.199
-288.603	-155.047	0.351	0.023
-287.589	-19.983	0.182	-0.112
-286.574	-200.000	-0.002	0.206
-285.559	-127.921	-0.371	0.053
-284.545	74.182	0.204	-0.212
-283.530	78.728	0.198	0.210
-282.516	100.720	-0.136	0.157
-281.501	-200.000	0.296	0.001
-280.486	-23.362	0.214	0.127
-279.472	88.637	0.090	0.100
-278.457	121.555	0.219	-0.271
-277.443	383.549	0.216	-0.441
-276.428	112.283	0.177	-0.213
-275.413	92.061	0.256	-0.286
-274.399	203.232	0.106	0.162
-273.384	-158.464	0.036	-0.002
-272.370	41.332	0.165	0.148
-271.355	800.000	-0.051	-0.150
-270.340	-52.575	-0.255	0.117
-269.326	174.888	-0.232	0.333
-268.311	170.889	0.099	0.141
-267.297	-74.883	-0.050	-0.018
-266.282	-165.724	0.217	-0.009
-265.267	50.523	0.276	-0.259
-264.253	800.000	0.063	0.200
-263.238	89.003	-0.246	-0.272
-262.224	615.731	-0.114	-0.283
-261.209	451.603	0.111	0.242
-260.195	800.000	0.155	0.434
-259.180	-68.454	0.484	-0.186
-258.165	-119.594	-0.104	0.018
-257.151	594.366	-0.071	0.174
-256.136	800.000	-0.003	0.015
-255.122	71.719	-0.184	-0.190
-254.107	-30.812	0.266	-0.149
-253.092	98.434	-0.316	0.361
-252.078	-116.761	0.077	0.014
-251.063	345.356	0.074	0.143
-250.049	90.338	0.141	0.157
-249.034	-101.174	-0.212	0.052
-248.019	-16.235	-0.183	0.115
-247.005	-29.229	0.182	0.103
-245.990	68.117	0.140	0.142
-244.976	-200.000	0.004	-0.082
-243.961	-19.338	0.241	0.148
-242.946	-98.953	-0.350	0.088
-241.932	213.898	0.068	0.107
-240.917	-80.892	0.236	0.078
-239.903	-23.794	0.121	-0.072
-238.888	-86.497	-0.065	-0.020
-237.873	110.905	0.206	-0.245
-236.859	186.781	-0.167	-0.247
-235.844	-32.676	0.144	-0.080
-234.830	-59.704	0.127	-0.054
-233.815	79.331	-0.139	0.148
-232.800	231.228	-0.112	0.181
-231.786	-61.439	-0.353	0.147
-230.771	-45.900	-0.277	-0.135
-229.757	-84.740	0.134	0.042
-228.742	322.570	0.096	0.182
-227.727	87.267	0.072	0.079
-226.713	-36.045	-0.073	-0.039
-225.698	33.175	0.142	-0.122
-224.684	199.174	-0.098	0.149
-223.669	45.312	-0.136	-0.124
-222.655	-22.234	0.110	0.066
-221.640	-78.175	0.117	-0.040
-220.625	322.105	-0.125	-0.236
-219.611	142.932	0.171	0.226
-218.596	800.000	0.013	-0.047
-217.582	-200.000	-0.028	0.131
-216.567	483.821	-0.221	0.499
-215.552	-114.353	-0.218	0.042
-214.538	800.000	-0.103	0.366
-213.523	400.283	0.118	0.246
-212.509	-102.719	0.150	-0.035
-211.494	135.512	-0.196	-0.253
-210.479	81.382	0.237	-0.253
-209.465	-103.693	-0.123	0.029
-208.450	41.125	-0.101	-0.090
-207.436	146.493	0.075	-0.100
-206.421	22.688	0.106	0.086
-205.406	800.000	-0.042	-0.175
-204.392	-29.657	0.185	-0.104
-203.377	55.967	0.283	-0.272
-202.363	-53.525	-0.107	0.048
-201.348	252.578	0.070	-0.118
-200.333	7.326	-0.034	0.025
-199.319	-200.000	0.026	-0.143
-198.304	-158.360	0.160	0.009
-197.290	800.000	0.026	-0.089
-196.275	141.870	-0.205	0.269
-195.260	800.000	0.079	-0.230
-194.246	-68.137	-0.162	-0.063
-193.231	-200.000	0.047	0.252
-192.217	-114.018	0.306	0.059
-191.202	189.172	-0.099	-0.147
-190.187	-64.946	0.173	0.069
-189.173	71.306	0.235	0.242
-188.158	-131.966	0.448	-0.058
-187.144	-18.241	0.145	-0.090
-186.129	-99.750	-0.296	0.073
-185.114	105.647	-0.060	-0.070
-184.100	72.717	0.210	0.217
-183.085	-200.000	-0.000	-0.153
-182.071	-132.129	-0.329	0.042
-181.056	133.587	-0.076	-0.097
-180.042	-200.000	0.009	-0.123
-179.027	-40.690	-0.182	-0.093
-178.012	320.942	-0.149	-0.281
-176.998	82.675	0.164	0.176
-175.983	-135.074	0.177	-0.021
-174.969	343.488	-0.057	-0.111
-173.954	-101.295	0.406	-0.098
-172.939	-39.820	-0.157	-0.081
-171.925	-29.387	-0.306	0.173
-170.910	26.943	0.287	0.238
-169.896	-76.608	-0.121	0.042
-168.881	-30.647	0.142	0.080
-167.866	-200.000	-0.010	-0.369
-166.852	-108.073	0.082	-0.018
-165.837	700.806	0.031	0.080
-164.823	-121.434	0.037	0.006
-163.808	-200.000	0.000	0.184
-162.793	-200.000	0.102	0.484
-161.779	348.101	0.172	-0.335
-160.764	-180.720	0.241	-0.005
-159.750	-75.539	-0.233	0.082
-158.735	-37.947	-0.404	-0.212
-157.720	800.000	-0.063	0.185
-156.706	-200.000	-0.020	-0.253
-155.691	82.681	0.057	0.061
-154.677	249.486	0.180	0.302
-153.662	-83.152	0.161	-0.051
-152.647	78.543	-0.259	0.274
-151.633	99.328	0.153	-0.175
-150.618	-200.000	0.003	-0.122
-149.604	-150.017	0.243	0.019
-148.589	401.897	-0.064	0.133
-147.574	90.502	0.078	-0.086
-146.560	208.700	-0.030	0.047
-145.545	402.019	0.142	0.295
-144.531	-175.835	-0.260	0.007
-143.516	800.000	0.037	-0.108
-142.502	800.000	-0.045	0.186
-141.487	-118.878	-0.212	0.037
-140.472	800.000	0.045	-0.141
-139.458	-95.725	-0.352	-0.093
-138.443	800.000	0.026	0.079
-137.429	-80.976	0.408	-0.133
-136.414	-33.931	-0.282	0.154
-135.399	5.206	-0.227	0.165
-134.385	800.000	0.045	0.141
-133.370	19.927	-0.305	0.243
-132.356	-200.000	-0.010	-0.317
-131.341	-200.000	-0.013	0.182
-130.326	-200.000	-0.017	-0.286
-129.312	-200.000	0.024	0.127
-128.297	72.171	-0.082	-0.084
-127.283	-67.484	-0.107	-0.041
-126.268	-136.302	-0.298	0.034
-125.253	-39.086	-0.079	0.041
-124.239	49.406	-0.133	0.124
-123.224	-40.029	-0.055	-0.028
-122.210	-87.423	0.143	0.043
-121.195	800.000	0.103	0.286
-120.180	-40.045	-0.180	0.092
-119.166	-90.141	0.183	0.053
-118.151	-142.262	0.231	-0.023
-117.137	76.894	0.300	-0.314
-116.122	-119.099	0.284	0.049
-115.107	-117.260	0.095	-0.017
-114.093	-200.000	0.001	-0.165
-113.078	-200.000	0.013	-0.454
-112.064	36.451	0.063	-0.055
-111.049	-108.222	-0.331	-0.071
-110.034	-200.000	0.101	-0.498
-109.020	71.404	0.089	-0.092
-108.005	88.831	-0.072	-0.079
-106.991	-84.672	0.197	-0.061
-105.976	89.512	0.075	0.082
-104.962	395.862	0.194	0.399
-103.947	68.225	0.189	-0.191
-102.932	-171.361	0.356	-0.012
-101.918	-24.091	-0.159	-0.094
-100.903	-200.000	0.013	-0.109
-99.889	515.095	0.086	0.199
-98.874	-175.264	-0.125	0.003
-97.859	-200.000	0.017	0.251
-96.845	-198.974	-0.114	-0.001
-95.830	2.802	0.078	-0.056
-94.816	-200.000	0.025	0.403
-93.801	800.000	-0.081	0.276
-92.786	732.847	-0.061	0.160
-91.772	-87.141	0.187	-0.056
-90.757	-82.772	0.290	-0.092
-89.743	-68.989	-0.020	0.007
-88.728	-200.000	-0.023	0.125
-87.713	-190.023	-0.178	0.002
-86.699	362.943	-0.070	-0.139
-85.684	-8.107	-0.014	0.009
-84.670	-200.000	-0.015	0.167
-83.655	-168.822	-0.481	0.018
-82.640	130.563	-0.080	-0.101
-81.626	-200.000	0.035	0.185
-80.611	-200.000	0.007	0.155
-79.597	11.296	0.098	0.074
-78.582	637.447	0.060	-0.150
-77.567	-200.000	-0.014	-0.365
-76.553	26.183	0.179	-0.147
-75.538	-50.314	-0.067	-0.031
-74.524	137.413	0.170	-0.220
-73.509	71.599	0.168	0.172
-72.494	800.000	0.021	-0.080
-71.480	-200.000	-0.018	-0.264
-70.465	-160.809	-0.242	0.013
-69.451	-200.000	-0.041	-0.177
-68.436	739.609	-0.076	-0.201
-67.422	-93.957	0.414	0.112
-66.407	399.097	0.252	0.519
-65.392	103.720	0.205	-0.237
-64.378	16.645	0.226	0.176
-63.363	203.819	-0.084	-0.128
-62.349	-200.000	-0.029	0.281
-61.334	252.032	-0.669	-1.123
-60.319	149.204	0.126	0.169
-59.305	333.710	-0.517	-0.984
-58.290	-200.000	0.237	1.090
-57.276	800.000	0.497	1.484
-56.261	-200.000	96.082	571.918
-55.246	548.073	1379.353	3251.708
-54.232	159.589	2555.853	3502.443
-53.217	111.789	2143.038	2546.879
-52.203	44.637	1606.278	1453.718
-51.188	36.705	1344.000	1168.644
-50.173	33.308	1302.835	1112.875
-49.159	54.964	1348.434	1281.688
-48.144	57.130	1366.256	1311.520
-47.130	36.829	1324.068	1151.870
-46.115	33.278	1307.192	1116.239
-45.100	33.223	1302.271	1111.670
-44.086	33.122	1299.669	1108.813
-43.071	32.872	1297.674	1105.605
-42.057	33.024	1295.506	1104.604
-41.042	33.027	1294.162	1103.428
-40.027	33.034	1292.541	1102.044
-39.013	33.032	1290.705	1100.425
-37.998	33.069	1289.043	1099.179
-36.984	33.132	1287.259	1097.981
-35.969	33.214	1284.972	1096.461
-34.954	33.099	1283.764	1094.721
-33.940	33.129	1282.718	1093.959
-32.925	33.155	1281.100	1092.686
-31.911	33.309	1279.289	1091.986
-30.896	33.315	1278.178	1091.027
-29.881	33.155	1277.433	1089.425
-28.867	33.212	1275.549	1088.107
-27.852	33.195	1274.015	1086.654
-26.838	33.257	1272.645	1085.800
-25.823	33.227	1271.292	1084.429
-24.809	33.166	1269.787	1082.755
-23.794	33.098	1268.893	1081.559
-22.779	33.210	1267.297	1080.798
-21.765	33.246	1266.009	1079.861
-20.750	33.171	1264.915	1078.457
-19.736	33.235	1263.301	1077.406
-18.721	33.048	1262.976	1076.019
-17.706	33.118	1261.206	1074.867
-16.692	33.080	1260.527	1074.029
-15.677	33.003	1259.293	1072.499
-14.663	33.075	1257.942	1071.711
-13.648	33.068	1256.935	1070.770
-12.633	33.091	1255.937	1070.008
-11.619	33.025	1255.289	1069.040
-10.604	33.174	1254.188	1068.907
-9.590	33.039	1253.210	1067.266
-8.575	32.968	1252.255	1066.008
-7.560	32.971	1251.877	1065.663
-6.546	33.086	1250.696	1065.266
-5.531	33.118	1249.680	1064.536
-4.517	33.095	1248.774	1063.590
-3.502	33.196	1247.946	1063.411
-2.487	32.962	1247.447	1061.630
-1.473	33.025	1242.919	1058.090
-0.458	31.627	1228.237	1037.801
0.556	28.665	1211.620	1001.102
1.571	25.300	1217.736	987.589
2.586	24.731	1233.833	997.378
3.600	24.323	1223.483	986.672
4.615	18.003	1149.872	894.248
5.629	7.175	1072.816	781.097
6.644	2.365	1051.299	742.075
7.659	2.065	1048.749	738.758
8.673	1.921	1047.123	736.849
9.688	1.929	1045.877	735.948
10.702	2.615	1044.275	738.058
11.717	9.339	1054.345	777.717
12.731	19.510	1069.247	838.286
13.746	24.364	1074.781	866.184
14.761	25.185	1075.531	870.698
15.775	25.186	1075.512	870.608
16.790	24.980	1074.466	868.684
17.804	24.999	1073.176	867.657
18.819	25.188	1073.289	868.587
19.834	25.264	1072.579	868.305
20.848	25.271	1072.574	868.257
21.863	25.388	1071.789	868.113
22.877	25.147	1071.305	866.475
23.892	25.107	1070.463	865.525
24.907	25.239	1070.016	865.724
25.921	25.159	1068.593	864.112
26.936	25.139	1067.114	862.744
27.950	25.044	1066.077	861.372
28.965	25.056	1063.900	859.594
29.980	25.063	1062.472	858.400
30.994	25.324	1061.893	859.104
32.009	25.242	1060.586	857.580
33.023	25.034	1059.530	855.657
34.038	25.082	1059.153	855.503
35.053	25.288	1058.193	855.637
36.067	25.240	1057.587	854.841
37.082	25.414	1056.649	854.835
38.096	25.450	1055.821	854.259
39.111	25.523	1055.507	854.280
40.126	25.398	1053.791	852.220
41.140	24.988	1052.122	848.856
42.155	24.753	1050.753	846.564
43.169	24.814	1050.048	846.209
44.184	24.905	1048.939	845.667
45.199	24.819	1047.911	844.362
46.213	24.780	1047.101	843.447
47.228	24.995	1046.550	843.943
48.242	25.003	1046.068	843.519
49.257	25.144	1044.979	843.226
50.271	25.197	1044.620	843.114
51.286	25.342	1043.520	842.831
52.301	25.280	1042.483	841.626
53.315	25.202	1041.609	840.480
54.330	25.202	1040.452	839.476
55.344	25.167	1039.829	838.735
56.359	25.192	1038.796	837.941
57.374	24.996	1037.466	835.883
58.388	24.931	1037.285	835.360
59.403	24.864	1036.329	834.202
60.417	24.713	1035.657	832.884
61.432	24.871	1034.978	832.999
62.447	24.982	1034.306	832.902
63.461	24.981	1033.504	832.177
64.476	24.988	1032.484	831.313
65.490	24.842	1031.892	830.088
66.505	24.943	1030.958	829.732
67.520	24.911	1030.512	829.149
68.534	24.654	1029.627	827.174
69.549	24.437	1028.275	825.012
70.563	24.586	1027.162	824.734
71.578	24.522	1026.606	823.921
72.593	24.289	1025.654	822.011
73.607	24.512	1024.874	822.337
74.622	24.748	1025.010	823.463
75.636	24.701	1024.420	822.700
76.651	24.435	1023.471	820.642
77.666	24.478	1022.556	820.033
78.680	24.573	1021.893	819.865
79.695	24.752	1021.312	820.146
80.709	24.759	1020.535	819.484
81.724	24.786	1019.503	818.705
82.739	24.836	1018.966	818.430
83.753	25.294	1018.470	820.053
84.768	25.534	1017.207	820.056
85.782	25.634	1017.020	820.290
86.797	25.427	1015.627	818.149
87.812	25.325	1014.736	816.896
88.826	25.388	1014.043	816.554
89.841	25.527	1013.133	816.380
90.855	25.521	1012.090	815.441
91.870	25.456	1011.349	814.474
92.884	25.287	1010.363	812.845
93.899	25.235	1009.169	811.576
94.914	25.531	1008.236	812.094
95.928	25.390	1007.277	810.610
96.943	25.058	1006.584	808.483
97.957	24.753	1005.213	805.935
98.972	24.694	1004.100	804.706
99.987	25.005	1003.622	805.651
101.001	25.151	1002.725	805.517
102.016	25.119	1001.857	804.607
103.030	24.934	1001.214	803.187
104.045	24.913	1000.324	802.310
105.060	24.695	999.506	800.605
106.074	25.026	998.448	801.166
107.089	25.346	997.744	801.963
108.103	25.135	996.742	800.144
109.118	24.826	995.611	797.786
110.133	24.884	994.861	797.374
111.147	24.662	993.418	795.162
112.162	24.651	992.497	794.304
113.176	24.992	991.578	795.012
114.191	24.616	990.998	792.808
115.206	24.412	989.791	790.870
116.220	24.442	989.165	790.432
117.235	24.680	988.174	790.623
118.249	24.610	987.446	789.661
119.264	24.512	986.667	788.533
120.279	24.539	985.916	787.984
121.293	24.617	985.074	787.583
122.308	24.618	983.764	786.473
123.322	24.567	982.854	785.451
124.337	24.496	981.873	784.285
125.352	23.965	979.955	780.356
126.366	23.963	979.396	779.833
127.381	24.597	979.538	782.654
128.395	25.109	978.937	784.347
129.410	25.212	977.947	783.934
130.424	25.122	977.063	782.764
131.439	25.199	976.210	782.346
132.454	25.159	975.609	781.620
133.468	24.984	975.063	780.350
134.483	25.159	974.307	780.439
135.497	25.383	973.159	780.426
136.512	25.337	972.613	779.717
137.527	25.404	971.514	779.058
138.541	25.443	970.913	778.677
139.556	25.285	970.168	777.326
140.570	25.443	969.312	777.253
141.585	25.523	967.837	776.350
142.600	25.324	967.490	775.141
143.614	25.457	967.207	775.423
144.629	25.675	965.817	775.179
145.643	25.345	964.850	772.914
146.658	25.394	963.242	771.765
147.673	25.237	961.896	769.946
148.687	25.112	961.269	768.842
149.702	25.125	960.193	767.968
150.716	25.292	959.017	767.674
151.731	25.251	958.920	767.352
152.746	25.422	958.304	767.524
153.760	25.673	957.107	767.566
154.775	25.620	956.907	767.113
155.789	25.483	956.225	765.914
156.804	25.532	955.049	765.113
157.819	25.569	954.686	764.909
158.833	25.689	953.870	764.698
159.848	25.709	952.653	763.742
160.862	25.604	951.198	762.064
161.877	25.562	950.290	761.091
162.892	25.532	949.788	760.492
163.906	25.483	948.534	759.216
164.921	25.458	947.774	758.433
165.935	25.552	947.111	758.231
166.950	25.765	945.480	757.758
167.964	25.598	945.051	756.645
168.979	25.460	944.303	755.397
169.994	25.431	943.077	754.230
171.008	25.732	942.643	755.077
172.023	25.578	942.053	753.893
173.037	25.384	940.842	752.045
174.052	25.270	939.426	750.369
175.067	25.296	939.134	750.178
176.081	25.338	939.063	750.230
177.096	25.404	938.057	749.638
178.110	25.024	937.375	747.442
179.125	24.869	936.327	745.894
180.140	25.093	935.603	746.182
181.154	25.083	935.676	746.132
182.169	25.323	935.527	746.947
183.183	25.504	935.490	747.606
184.198	25.268	934.620	745.864
185.213	25.485	933.610	745.890
186.227	25.476	932.608	744.988
187.242	25.589	931.978	744.885
188.256	25.605	931.725	744.682
189.271	25.646	930.793	744.043
190.286	25.303	929.564	741.577
191.300	24.730	928.418	738.233
192.315	23.942	927.004	733.793
193.329	23.816	926.370	732.708
194.344	24.783	927.227	737.308
195.359	25.305	927.040	739.243
196.373	25.460	926.313	739.239
197.388	25.430	925.773	738.616
198.402	25.390	924.987	737.760
199.417	25.417	924.398	737.338
200.432	25.179	923.239	735.369
201.446	25.008	922.824	734.275
202.461	25.120	921.907	733.940
203.475	24.203	920.527	729.026
204.490	23.474	918.758	724.584
205.504	24.355	919.274	728.524
206.519	24.987	919.776	731.441
207.534	25.134	918.664	731.089
208.548	25.531	918.398	732.434
209.563	25.223	917.941	730.750
210.577	25.158	917.230	729.853
211.592	25.733	916.789	731.776
212.607	25.547	915.977	730.306
213.621	25.664	915.431	730.280
214.636	25.693	914.769	729.809
215.650	25.565	914.043	728.643
216.665	25.660	913.451	728.492
217.680	25.705	912.376	727.755
218.694	25.160	911.482	724.773
219.709	25.090	910.673	723.785
220.723	25.278	910.894	724.654
221.738	25.381	909.886	724.204
222.753	25.409	909.393	723.860
223.767	25.589	909.179	724.350
224.782	25.679	908.681	724.251
225.796	25.630	908.396	723.764
226.811	25.076	906.752	720.163
227.826	24.395	905.629	716.474
228.840	24.701	904.740	716.934
229.855	24.655	904.389	716.411
230.869	24.209	903.076	713.522
231.884	24.806	903.191	715.938
232.899	25.476	903.034	718.431
233.913	25.347	902.600	717.505
234.928	25.377	901.871	716.981
235.942	25.400	900.813	716.170
236.957	24.884	900.371	713.698
237.972	25.044	899.914	713.910
238.986	25.053	899.446	713.512
240.001	25.035	898.776	712.847
241.015	25.212	898.315	713.119
242.030	25.312	898.026	713.226
243.045	25.475	897.448	713.349
244.059	25.618	897.004	713.502
245.074	25.374	896.002	711.676
246.088	25.023	895.004	709.429
247.103	25.403	894.380	710.373
248.117	25.890	894.899	712.652
249.132	26.088	894.592	713.124
250.147	26.228	893.670	712.881
251.161	26.352	893.276	712.993
252.176	26.392	892.431	712.414
253.190	26.456	892.026	712.276
254.205	26.511	891.622	712.107
255.220	26.343	891.046	710.925
256.234	26.475	889.855	710.430
257.249	26.400	889.354	709.673
258.263	26.264	888.928	708.738
259.278	26.427	888.369	708.868
260.293	26.401	887.682	708.156
261.307	26.311	887.298	707.434
262.322	25.949	886.681	705.462
263.336	25.268	884.665	701.135
264.351	24.349	882.450	695.734
265.366	24.368	882.432	695.735
266.380	25.461	882.873	700.284
267.395	25.961	882.521	701.888
268.409	25.976	881.855	701.357
269.424	26.058	881.585	701.399
270.439	26.056	881.063	700.910
271.453	26.128	880.512	700.692
272.468	26.406	880.135	701.407
273.482	26.376	879.566	700.777
274.497	26.106	877.965	698.393
275.512	25.633	877.328	695.997
276.526	26.098	877.657	697.995
277.541	26.184	876.810	697.592
278.555	26.133	875.232	696.077
279.570	25.888	875.569	695.339
280.585	26.099	874.736	695.431
281.599	25.946	874.318	694.444
282.614	25.449	872.847	691.302
283.628	25.342	872.397	690.473
284.643	25.764	872.043	691.757
285.657	25.350	870.664	689.010
286.672	25.027	870.164	687.316
287.687	25.687	870.440	690.007
288.701	25.682	869.495	689.175
289.716	25.382	869.054	687.617
290.730	25.389	868.145	686.863
291.745	24.971	867.036	684.328
292.760	25.372	867.046	685.809
293.774	26.310	867.588	689.758
294.789	26.877	866.996	691.388
295.803	26.872	866.364	690.805
296.818	26.701	865.997	689.800
297.833	26.330	864.708	687.299
298.847	26.015	864.140	685.591
299.862	26.517	863.858	687.214
300.876	26.719	863.480	687.617
301.891	26.517	862.692	686.166
302.906	26.065	861.925	683.783
303.920	26.280	861.847	684.473
304.935	26.685	860.996	685.270
305.949	26.688	860.520	684.840
306.964	26.370	860.037	683.195
307.979	26.497	859.261	682.998
308.993	26.889	859.310	684.455
310.008	26.817	858.585	683.544
311.022	26.458	857.734	681.454
312.037	26.456	857.161	680.933
313.052	26.123	856.457	679.059
314.066	25.329	854.899	674.781
315.081	25.003	854.056	672.832
316.095	25.835	854.593	676.322
317.110	26.297	854.327	677.785
318.125	25.499	852.409	673.214
319.139	24.515	850.637	668.076
320.154	24.445	850.683	667.791
321.168	25.373	851.534	671.876
322.183	26.062	851.579	674.426
323.197	26.247	851.252	674.798
324.212	26.524	850.691	675.328
325.227	26.346	850.461	674.422
326.241	26.368	849.274	673.502
327.256	26.285	848.819	672.774
328.270	26.179	848.168	671.803
329.285	25.916	847.123	669.938
330.300	25.692	846.610	668.644
331.314	25.878	846.701	669.345
332.329	26.332	846.393	670.728
333.343	26.533	845.822	670.962
334.358	26.553	845.185	670.470
335.373	26.557	845.081	670.343
336.387	26.960	844.832	671.580
337.402	26.974	844.919	671.641
338.416	27.008	844.134	671.081
339.431	27.011	844.001	670.929
340.446	27.119	843.869	671.163
341.460	27.078	843.299	670.499
342.475	26.894	842.458	669.093
343.489	27.023	841.980	669.127
344.504	27.227	842.166	669.972
345.519	27.410	841.627	670.154
346.533	27.404	840.874	669.473
347.548	27.330	840.797	669.082
348.562	27.316	840.439	668.686
349.577	27.251	839.457	667.606
350.592	27.238	838.703	666.899
351.606	27.366	838.215	666.923
352.621	27.184	837.281	665.456
353.635	27.047	836.347	664.150
354.650	26.303	835.118	660.400
355.665	25.475	833.200	655.802
356.679	25.957	833.188	657.496
357.694	26.242	833.043	658.362
358.708	26.467	832.186	658.444
359.723	26.667	832.186	659.116
360.738	26.974	831.790	659.860
361.752	27.052	831.353	659.737
362.767	27.289	831.338	660.527
363.781	27.629	831.091	661.508
364.796	27.767	830.563	661.529
365.810	27.679	830.359	660.987
366.825	27.717	830.004	660.787
367.840	27.469	828.838	658.902
368.854	27.002	827.884	656.396
369.869	27.051	827.490	656.202
370.883	27.039	827.102	655.792
371.898	27.049	826.460	655.264
372.913	27.128	826.335	655.390
373.927	27.139	826.006	655.111
374.942	27.261	825.682	655.235
375.956	27.343	825.430	655.274
376.971	27.500	824.824	655.298
377.986	27.753	824.452	655.856
379.000	27.676	823.606	654.848
380.015	27.490	823.188	653.792
381.029	27.526	822.607	653.400
382.044	27.786	821.890	653.702
383.059	27.656	821.415	652.802
384.073	27.603	821.371	652.521
385.088	27.561	820.509	651.627
386.102	27.448	819.792	650.598
387.117	27.280	819.005	649.314
388.132	27.028	817.763	647.374
389.146	26.719	817.195	645.768
390.161	27.147	816.609	646.772
391.175	27.273	816.787	647.300
392.190	27.012	815.526	645.317
393.205	25.680	813.799	639.168
394.219	24.205	811.954	632.431
395.234	24.075	811.923	631.888
396.248	25.712	813.412	638.806
397.263	27.177	814.462	644.776
398.278	27.237	813.544	644.206
399.292	26.990	812.827	642.706
400.307	26.943	812.465	642.197
401.321	27.131	811.826	642.299
402.336	27.512	811.973	643.707
403.350	27.908	812.061	645.116
404.365	28.233	811.870	646.056
405.380	28.338	811.711	646.241
406.394	28.399	811.087	645.904
407.409	28.314	810.703	645.241
408.423	28.267	810.231	644.642
409.438	28.372	809.740	644.565
410.453	28.408	809.261	644.254
411.467	28.467	808.310	643.647
412.482	28.305	808.264	642.985
413.496	28.310	808.178	642.874
414.511	28.334	807.753	642.566
415.526	28.410	807.469	642.549
416.540	28.337	805.938	641.019
417.555	28.179	805.318	639.917
418.569	27.901	805.437	638.981
419.584	28.106	804.620	638.993
420.599	27.782	804.748	637.908
421.613	110.710	1285.163	1454.541
422.628	95.633	1355.134	1454.655
