DTS Sentinel unit serial number:	SN413079Multiplexer serial number:	ORYXHardware model number:	OX4-SRSoftware version number:	ORYX F/W v4.00 Oryx Data Collector v3.7.2.0data status	okinstallation	princeton_trtdifferential loss correction	single-endedforward channel	channel 1reverse channel	N/Adate	2019/09/12time	07:28:11forward acquisition time	60.00reverse acquisition time	0.00gamma	496.2192k internal	0.2318k external	0.2318temperature offset calibration	1.0046default loss term (dB/km)	0.3790temperature slope calibration	1.0000multiplexer offset coefficient	1.0000multiplexer slope coefficient	1.0000fibre end	0.00T internal ref (°C)	32.44T ext. ref 1 (°C)	1.62T ext. ref 2 (°C)	29.01length (m)	temperature (°C)	Stokes	anti-Stokes-747.200	397.232	-0.168	0.355
-746.185	185.843	0.090	0.135
-745.171	800.000	-0.059	0.227
-744.156	-35.230	-0.323	0.178
-743.142	-200.000	0.001	0.021
-742.127	137.999	-0.042	-0.055
-741.112	-130.150	-0.202	0.028
-740.098	151.703	-0.336	0.463
-739.083	174.274	0.059	-0.086
-738.069	-200.000	0.028	0.151
-737.054	-80.476	-0.084	0.028
-736.039	-63.857	-0.217	0.090
-735.025	-200.000	-0.062	0.392
-734.010	-76.329	0.151	-0.054
-732.996	800.000	0.060	-0.192
-731.981	189.923	-0.095	0.144
-730.966	-200.000	0.003	-0.205
-729.952	-44.195	0.084	-0.043
-728.937	635.826	0.023	-0.059
-727.923	-58.475	-0.096	0.042
-726.908	-190.101	0.291	0.003
-725.894	-200.000	-0.014	0.093
-724.879	-4.131	0.111	-0.078
-723.864	-42.052	-0.131	-0.068
-722.850	-14.211	-0.114	-0.074
-721.835	-200.000	-0.000	-0.008
-720.821	-105.469	0.499	0.115
-719.806	42.523	0.111	0.102
-718.791	-200.000	0.020	0.143
-717.777	-51.143	-0.058	0.028
-716.762	97.580	-0.170	-0.198
-715.748	-42.421	-0.277	0.143
-714.733	800.000	0.086	-0.263
-713.718	-200.000	0.017	-0.101
-712.704	180.351	0.107	-0.159
-711.689	-200.000	0.014	-0.190
-710.675	-0.851	-0.302	0.216
-709.660	-118.234	0.303	-0.055
-708.645	-9.545	-0.132	0.089
-707.631	696.475	-0.048	0.128
-706.616	-100.794	0.415	-0.103
-705.602	98.886	-0.063	-0.073
-704.587	-107.076	-0.324	-0.072
-703.572	800.000	-0.078	-0.247
-702.558	262.010	-0.111	-0.194
-701.543	44.311	0.432	-0.401
-700.529	-32.826	-0.485	0.272
-699.514	-200.000	0.023	-0.334
-698.499	253.805	0.112	0.193
-697.485	54.471	0.173	-0.168
-696.470	333.327	0.027	0.053
-695.456	-108.247	-0.142	-0.031
-694.441	-127.784	-0.320	-0.047
-693.426	62.969	-0.140	-0.142
-692.412	-200.000	-0.019	-0.399
-691.397	735.727	-0.069	0.187
-690.383	300.271	-0.091	-0.170
-689.368	-65.479	-0.170	0.069
-688.354	292.865	0.008	0.015
-687.339	24.787	-0.091	-0.076
-686.324	-84.228	0.433	0.139
-685.310	-200.000	0.030	0.249
-684.295	-200.000	0.036	0.301
-683.281	-57.625	0.054	0.024
-682.266	-200.000	0.023	0.160
-681.251	-54.305	-0.333	0.153
-680.237	-200.000	-0.009	0.162
-679.222	-45.286	-0.222	0.111
-678.208	-0.418	-0.221	-0.159
-677.193	507.706	0.031	0.072
-676.178	-125.998	-0.338	0.051
-675.164	62.922	-0.129	0.130
-674.149	800.000	-0.021	-0.090
-673.135	9.839	0.280	-0.215
-672.120	-48.474	0.230	-0.112
-671.105	-9.564	-0.160	-0.108
-670.091	-184.966	-0.066	0.001
-669.076	-116.905	0.322	-0.059
-668.062	-200.000	0.026	0.198
-667.047	436.939	-0.062	0.135
-666.032	-158.305	0.298	-0.018
-665.018	171.598	0.041	-0.059
-664.003	171.351	0.154	-0.223
-662.989	80.737	0.113	-0.123
-661.974	96.524	-0.092	-0.106
-660.959	132.447	-0.214	-0.279
-659.945	216.102	0.030	-0.048
-658.930	-125.817	0.274	-0.042
-657.916	-200.000	-0.054	0.242
-656.901	-200.000	0.004	0.323
-655.886	800.000	-0.065	-0.202
-654.872	-137.858	-0.077	0.009
-653.857	530.632	-0.054	0.129
-652.843	-54.098	-0.116	0.053
-651.828	186.409	-0.123	0.184
-650.814	291.525	-0.163	-0.299
-649.799	-104.033	-0.261	0.061
-648.784	-174.732	-0.196	0.006
-647.770	-27.909	0.086	-0.050
-646.755	-115.346	-0.429	0.082
-645.741	-61.573	0.265	-0.112
-644.726	40.700	-0.184	0.168
-643.711	-103.510	-0.094	0.022
-642.697	-200.000	0.020	-0.482
-641.682	79.079	-0.141	0.153
-640.668	57.004	-0.259	-0.254
-639.653	800.000	-0.181	0.519
-638.638	-87.072	-0.239	0.073
-637.624	508.591	-0.123	0.287
-636.609	-200.000	-0.013	0.136
-635.595	-200.000	0.043	0.257
-634.580	-127.800	-0.367	-0.053
-633.565	-72.850	-0.205	0.076
-632.551	-53.504	0.089	-0.041
-631.536	800.000	0.103	-0.366
-630.522	35.456	0.147	0.130
-629.507	-200.000	0.036	-0.268
-628.492	-12.554	0.258	-0.170
-627.478	800.000	0.054	-0.225
-626.463	-200.000	-0.153	-0.680
-625.449	-200.000	-0.004	-0.440
-624.434	-149.941	-0.182	0.014
-623.419	-147.463	0.117	-0.010
-622.405	487.278	-0.104	-0.240
-621.390	-158.088	0.158	0.009
-620.376	149.513	-0.051	0.070
-619.361	328.943	-0.135	0.260
-618.346	-48.051	-0.203	-0.099
-617.332	-200.000	-0.000	-0.145
-616.317	132.911	0.104	-0.136
-615.303	-200.000	-0.034	-0.388
-614.288	24.320	0.112	-0.093
-613.273	-200.000	0.022	-0.216
-612.259	9.792	-0.060	0.046
-611.244	800.000	-0.011	-0.044
-610.230	800.000	-0.012	0.037
-609.215	254.016	0.201	-0.346
-608.201	-106.281	0.189	0.043
-607.186	800.000	-0.056	0.165
-606.171	22.599	-0.025	0.021
-605.157	98.155	0.157	0.182
-604.142	-32.629	-0.249	0.139
-603.128	545.527	-0.058	-0.140
-602.113	200.067	0.116	-0.179
-601.098	-31.017	-0.167	-0.095
-600.084	-200.000	-0.009	-0.089
-599.069	-34.791	-0.154	-0.085
-598.055	-130.780	0.238	-0.032
-597.040	210.791	-0.085	-0.134
-596.025	-200.000	0.061	-0.325
-595.011	-24.422	-0.104	0.063
-593.996	-129.850	0.249	-0.034
-592.982	-13.517	-0.088	0.058
-591.967	-37.222	0.140	0.076
-590.952	126.620	0.067	-0.086
-589.938	800.000	0.019	-0.064
-588.923	264.852	0.087	-0.153
-587.909	302.129	0.076	0.142
-586.894	-200.000	0.011	0.243
-585.879	28.619	0.080	-0.068
-584.865	-200.000	0.053	0.525
-583.850	299.594	-0.087	0.161
-582.836	-140.065	0.076	0.008
-581.821	-143.342	-0.426	0.041
-580.806	-111.293	0.119	-0.024
-579.792	-106.599	0.464	-0.104
-578.777	-200.000	0.001	-0.156
-577.763	-200.000	0.037	-0.185
-576.748	144.137	0.170	0.228
-575.733	463.571	-0.092	0.207
-574.719	-141.837	-0.044	-0.004
-573.704	-200.000	0.030	-0.240
-572.690	-200.000	-0.013	-0.134
-571.675	-200.000	-0.014	-0.332
-570.661	-32.298	-0.076	-0.043
-569.646	123.608	-0.130	-0.164
-568.631	73.993	-0.117	0.123
-567.617	58.246	-0.257	-0.253
-566.602	-200.000	-0.044	-0.246
-565.588	400.938	-0.041	-0.086
-564.573	65.010	-0.193	-0.196
-563.558	800.000	0.039	-0.138
-562.544	-78.761	0.147	0.050
-561.529	-52.336	-0.114	-0.053
-560.515	800.000	-0.016	0.053
-559.500	428.494	0.118	0.257
-558.485	202.927	-0.257	-0.399
-557.471	174.995	-0.115	0.167
-556.456	234.715	-0.169	0.281
-555.442	-10.036	0.159	-0.106
-554.427	-83.308	-0.139	-0.045
-553.412	-66.639	0.242	-0.096
-552.398	85.143	0.110	0.121
-551.383	-142.285	-0.311	0.031
-550.369	-83.309	-0.434	0.140
-549.354	22.289	0.261	0.214
-548.339	-97.242	-0.105	0.027
-547.325	474.135	-0.036	0.083
-546.310	777.282	-0.063	-0.173
-545.296	-141.792	-0.238	0.024
-544.281	-200.000	-0.032	0.155
-543.266	41.023	0.070	0.063
-542.252	-111.082	-0.067	-0.014
-541.237	546.802	0.032	-0.078
-540.223	800.000	0.074	-0.212
-539.208	-132.831	0.254	-0.033
-538.193	-200.000	0.023	0.264
-537.179	-99.666	-0.135	-0.034
-536.164	-122.544	0.182	-0.030
-535.150	-171.386	-0.161	-0.005
-534.135	469.139	0.081	0.184
-533.121	-200.000	0.030	-0.301
-532.106	302.496	-0.076	-0.142
-531.091	-136.196	0.166	0.020
-530.077	800.000	-0.055	-0.152
-529.062	-25.015	0.092	0.055
-528.048	800.000	0.028	0.088
-527.033	-145.066	-0.201	0.018
-526.018	800.000	-0.057	0.163
-525.004	-200.000	0.017	0.130
-523.989	-114.419	0.279	-0.054
-522.975	161.010	0.063	0.089
-521.960	-200.000	0.056	-0.429
-520.945	-132.845	-0.328	0.042
-519.931	456.904	-0.072	-0.160
-518.916	800.000	-0.142	0.422
-517.902	0.911	-0.231	0.166
-516.887	325.720	-0.097	0.187
-515.872	59.049	-0.162	-0.160
-514.858	86.093	-0.126	-0.139
-513.843	-93.176	-0.122	-0.034
-512.829	800.000	-0.019	-0.079
-511.814	-143.926	0.270	0.026
-510.799	800.000	0.067	0.219
-509.785	122.249	-0.185	-0.232
-508.770	53.902	-0.022	-0.021
-507.756	31.300	-0.084	-0.072
-506.741	800.000	0.046	0.201
-505.726	14.892	0.092	0.072
-504.712	-108.375	-0.070	-0.015
-503.697	-200.000	0.034	-0.285
-502.683	-32.789	-0.223	0.124
-501.668	488.881	-0.075	-0.171
-500.653	-200.000	0.028	-0.207
-499.639	-161.802	-0.530	-0.027
-498.624	199.310	0.214	0.328
-497.610	-200.000	0.000	0.040
-496.595	124.489	0.099	0.124
-495.581	-58.975	0.222	-0.096
-494.566	378.871	-0.098	0.202
-493.551	13.243	-0.110	0.086
-492.537	-44.770	0.118	0.059
-491.522	800.000	-0.078	-0.282
-490.508	78.225	0.295	0.315
-489.493	-90.684	-0.215	0.062
-488.478	-11.568	0.164	-0.108
-487.464	-172.068	-0.390	0.013
-486.449	36.920	-0.209	-0.185
-485.435	800.000	-0.087	-0.316
-484.420	-110.601	0.322	-0.067
-483.405	-142.651	-0.279	0.027
-482.391	-200.000	0.030	0.316
-481.376	51.601	-0.150	0.143
-480.362	47.169	-0.148	-0.138
-479.347	-200.000	-0.002	-0.215
-478.332	-17.976	-0.230	0.144
-477.318	386.794	-0.109	0.225
-476.303	-95.647	0.225	0.060
-475.289	-200.000	-0.079	0.349
-474.274	-200.000	-0.047	-0.213
-473.259	2.656	0.075	-0.055
-472.245	-200.000	-0.020	-0.114
-471.230	-42.415	-0.259	-0.132
-470.216	-5.992	0.061	0.042
-469.201	233.684	-0.109	0.180
-468.186	-114.682	-0.077	-0.015
-467.172	-98.905	0.317	-0.081
-466.157	99.955	-0.105	0.121
-465.143	-79.053	0.128	-0.043
-464.128	282.525	-0.063	-0.114
-463.113	45.329	0.118	-0.109
-462.099	-91.971	-0.302	0.086
-461.084	-125.275	0.133	-0.020
-460.070	-62.539	0.088	0.037
-459.055	-200.000	-0.008	-0.051
-458.040	314.634	0.173	0.327
-457.026	147.718	0.120	-0.162
-456.011	-97.397	0.238	0.062
-454.997	311.676	0.190	0.357
-453.982	500.269	0.099	0.229
-452.968	-7.495	0.125	0.085
-451.953	-80.520	0.150	0.050
-450.938	-122.785	0.076	-0.012
-449.924	-200.000	0.008	0.209
-448.909	52.719	-0.207	0.198
-447.895	800.000	0.075	-0.241
-446.880	-200.000	0.005	0.069
-445.865	-129.802	0.183	-0.025
-444.851	-150.418	-0.033	0.003
-443.836	30.066	-0.411	-0.351
-442.822	39.254	0.197	0.176
-441.807	-127.129	-0.149	-0.022
-440.792	-139.994	-0.224	-0.024
-439.778	-49.976	-0.327	-0.155
-438.763	24.977	0.197	0.164
-437.749	800.000	0.034	0.116
-436.734	-29.069	-0.152	-0.087
-435.719	-124.156	-0.247	0.039
-434.705	195.674	0.127	0.193
-433.690	275.954	-0.050	-0.089
-432.676	348.424	0.045	0.089
-431.661	-200.000	-0.033	0.193
-430.646	265.372	-0.100	0.174
-429.632	800.000	0.045	-0.182
-428.617	398.705	0.165	-0.345
-427.603	-109.860	0.178	-0.037
-426.588	72.228	-0.223	-0.232
-425.573	-200.000	-0.024	-0.339
-424.559	235.800	-0.178	0.294
-423.544	443.197	-0.076	0.166
-422.530	-200.000	0.023	0.120
-421.515	-200.000	0.032	-0.163
-420.500	317.720	0.061	0.114
-419.486	28.096	0.126	-0.106
-418.471	214.398	0.126	-0.200
-417.457	-200.000	-0.072	-0.391
-416.442	25.356	-0.040	0.033
-415.428	184.161	-0.139	0.206
-414.413	33.258	-0.204	0.177
-413.398	-200.000	-0.005	0.147
-412.384	-200.000	0.014	0.118
-411.369	-200.000	-0.001	0.024
-410.355	103.212	0.138	0.162
-409.340	266.949	-0.186	0.325
-408.325	41.338	0.063	0.057
-407.311	127.473	-0.233	-0.295
-406.296	-136.455	0.288	0.033
-405.282	-200.000	-0.021	-0.146
-404.267	-116.364	0.084	0.016
-403.252	-200.000	0.113	0.528
-402.238	-200.000	-0.019	-0.153
-401.223	132.880	-0.057	0.073
-400.209	-124.279	0.294	-0.046
-399.194	139.409	-0.092	-0.121
-398.179	-17.796	0.190	-0.119
-397.165	431.287	-0.102	-0.220
-396.150	499.762	0.032	-0.073
-395.136	149.832	-0.057	-0.077
-394.121	144.626	0.057	-0.076
-393.106	256.277	-0.001	0.002
-392.092	111.305	0.136	-0.164
-391.077	-61.539	0.215	-0.090
-390.063	-74.582	0.195	0.070
-389.048	14.645	-0.151	-0.117
-388.033	-34.028	0.258	0.142
-387.019	91.399	0.241	0.270
-386.004	800.000	-0.083	-0.263
-384.990	91.208	-0.133	0.149
-383.975	238.462	-0.152	-0.251
-382.960	-10.304	0.396	-0.262
-381.946	-18.636	0.344	0.214
-380.931	-200.000	0.005	0.065
-379.917	-200.000	-0.002	0.159
-378.902	800.000	0.041	-0.123
-377.888	120.947	-0.074	0.092
-376.873	-9.636	0.137	0.091
-375.858	-155.724	0.160	-0.010
-374.844	800.000	-0.033	0.140
-373.829	-13.822	-0.148	-0.095
-372.815	732.017	0.027	0.072
-371.800	-15.116	0.068	0.044
-370.785	22.089	0.068	0.056
-369.771	-200.000	-0.017	-0.146
-368.756	-129.720	-0.121	-0.017
-367.742	-40.831	0.207	0.107
-366.727	-114.095	-0.203	-0.039
-365.712	800.000	-0.030	-0.109
-364.698	4.733	0.343	0.251
-363.683	-200.000	-0.019	0.142
-362.669	-200.000	0.052	0.368
-361.654	478.146	-0.068	-0.155
-360.639	95.407	0.300	0.341
-359.625	800.000	-0.061	0.222
-358.610	24.114	-0.261	0.215
-357.596	-83.487	-0.219	-0.070
-356.581	14.995	0.170	-0.132
-355.566	-123.910	0.273	0.043
-354.552	-95.828	-0.203	0.054
-353.537	-125.279	-0.407	0.062
-352.523	182.998	-0.056	-0.082
-351.508	-140.945	0.286	-0.029
-350.493	646.830	-0.093	-0.237
-349.479	-10.322	-0.093	-0.062
-348.464	3.269	0.206	0.150
-347.450	144.138	0.213	-0.283
-346.435	800.000	0.067	-0.243
-345.420	-59.859	-0.103	0.044
-344.406	328.383	-0.070	-0.135
-343.391	-89.785	0.234	-0.068
-342.377	635.686	0.036	0.090
-341.362	93.950	-0.170	-0.192
-340.348	-93.979	0.162	0.044
-339.333	-200.000	0.011	-0.170
-338.318	-112.927	0.118	0.023
-337.304	116.547	0.212	0.259
-336.289	-200.000	-0.008	-0.337
-335.275	-148.699	0.552	-0.045
-334.260	-119.012	-0.226	-0.039
-333.245	250.901	-0.141	0.239
-332.231	-150.182	-0.134	0.010
-331.216	52.336	0.214	-0.203
-330.202	800.000	-0.023	0.064
-329.187	-92.393	-0.124	0.035
-328.172	-48.353	0.190	-0.091
-327.158	-12.347	-0.193	-0.125
-326.143	-126.278	0.375	0.056
-325.129	274.295	-0.106	-0.187
-324.114	800.000	-0.044	-0.174
-323.099	103.020	-0.067	-0.078
-322.085	291.343	-0.175	-0.317
-321.070	-200.000	-0.014	0.243
-320.056	2.326	0.221	0.159
-319.041	45.649	-0.117	0.107
-318.026	205.373	0.171	-0.265
-317.012	-127.131	0.280	0.041
-315.997	-161.542	0.162	0.008
-314.983	-52.333	-0.118	-0.055
-313.968	148.969	0.141	-0.189
-312.953	124.017	0.262	-0.328
-311.939	61.373	-0.102	-0.101
-310.924	81.143	0.202	0.217
-309.910	152.901	0.118	0.161
-308.895	-200.000	-0.040	0.364
-307.880	800.000	0.087	0.370
-306.866	21.794	-0.086	0.070
-305.851	106.534	0.011	0.013
-304.837	800.000	-0.031	0.124
-303.822	91.938	-0.019	0.021
-302.807	97.787	0.217	-0.248
-301.793	-66.863	0.144	-0.057
-300.778	97.923	-0.124	0.142
-299.764	473.543	-0.068	0.151
-298.749	678.752	0.063	0.162
-297.735	245.952	0.115	0.193
-296.720	-101.443	-0.185	0.045
-295.705	460.870	-0.141	0.313
-294.691	88.932	-0.421	0.466
-293.676	65.170	-0.113	0.114
-292.662	-200.000	0.050	0.350
-291.647	-69.564	-0.316	0.120
-290.632	668.291	-0.081	-0.209
-289.618	-170.249	-0.243	-0.009
-288.603	-200.000	-0.022	-0.176
-287.589	129.022	0.163	-0.207
-286.574	800.000	0.056	0.240
-285.559	-200.000	0.011	-0.196
-284.545	-200.000	-0.040	0.187
-283.530	431.974	0.075	-0.161
-282.516	-24.998	0.450	-0.265
-281.501	-62.919	-0.267	0.110
-280.486	800.000	0.134	-0.470
-279.472	800.000	-0.039	0.132
-278.457	-84.429	0.221	-0.069
-277.443	-4.645	-0.188	-0.129
-276.428	800.000	0.080	0.259
-275.413	499.790	0.131	0.300
-274.399	-131.897	0.531	0.069
-273.384	572.136	-0.082	0.198
-272.370	188.626	-0.057	0.085
-271.355	26.513	0.063	0.052
-270.340	82.734	-0.149	-0.160
-269.326	-72.097	-0.217	-0.080
-268.311	-82.501	0.125	0.040
-267.297	800.000	-0.045	0.165
-266.282	188.260	0.072	-0.106
-265.267	-142.621	0.372	-0.036
-264.253	43.471	-0.220	0.199
-263.238	-200.000	0.031	-0.225
-262.224	-159.410	0.115	-0.006
-261.209	-145.551	-0.166	0.015
-260.195	-120.948	0.413	-0.069
-259.180	87.815	-0.125	0.138
-258.165	26.574	0.059	-0.049
-257.151	800.000	0.059	0.207
-256.136	-8.826	-0.135	-0.090
-255.122	800.000	0.009	-0.027
-254.107	-113.185	0.109	-0.021
-253.092	-97.185	-0.055	-0.014
-252.078	-200.000	0.011	0.303
-251.063	73.130	0.229	0.237
-250.049	16.448	-0.112	0.088
-249.034	-200.000	-0.206	0.001
-248.019	-200.000	-0.030	0.259
-247.005	-94.186	0.479	-0.130
-245.990	66.532	-0.047	0.047
-244.976	-63.524	0.456	-0.186
-243.961	-106.853	-0.211	-0.046
-242.946	164.436	0.080	-0.111
-241.932	-33.198	-0.144	0.079
-240.917	-9.966	-0.370	0.244
-239.903	-117.612	0.527	-0.094
-238.888	-200.000	-0.036	-0.276
-237.873	-115.368	-0.111	-0.021
-236.859	350.806	-0.176	-0.345
-235.844	519.097	0.096	0.224
-234.830	800.000	0.091	-0.253
-233.815	34.833	0.074	-0.064
-232.800	-138.920	-0.620	0.067
-231.786	-147.027	-0.190	-0.016
-230.771	28.691	0.098	-0.082
-229.757	800.000	-0.060	-0.229
-228.742	-128.785	-0.329	-0.046
-227.727	-81.010	0.133	-0.044
-226.713	151.705	0.073	-0.099
-225.698	347.175	0.184	0.359
-224.684	458.977	0.139	0.306
-223.669	522.637	0.047	-0.111
-222.655	-200.000	-0.016	-0.158
-221.640	-200.000	-0.064	0.317
-220.625	-98.204	-0.178	0.045
-219.611	-104.233	-0.178	0.041
-218.596	447.884	0.037	0.080
-217.582	-161.120	-0.232	-0.012
-216.567	34.810	-0.207	0.179
-215.552	748.259	-0.122	-0.327
-214.538	800.000	0.020	0.078
-213.523	-172.057	0.240	-0.008
-212.509	-91.559	0.454	0.128
-211.494	-75.256	0.416	0.147
-210.479	-53.424	0.333	-0.151
-209.465	-200.000	0.030	-0.254
-208.450	-145.431	-0.102	-0.009
-207.436	256.118	-0.164	0.279
-206.421	277.986	0.121	0.214
-205.406	165.780	0.072	0.101
-204.392	-91.133	0.176	0.050
-203.377	87.628	-0.261	0.286
-202.363	284.091	0.044	-0.079
-201.348	13.322	0.087	-0.067
-200.333	123.017	-0.032	-0.040
-199.319	-100.976	-0.374	-0.091
-198.304	163.735	0.096	0.134
-197.290	-160.942	0.140	0.007
-196.275	-124.118	-0.050	0.008
-195.260	-200.000	0.061	-0.273
-194.246	291.521	-0.092	0.165
-193.231	176.691	0.155	-0.223
-192.217	-114.897	0.062	-0.012
-191.202	298.292	-0.154	-0.280
-190.187	-133.496	0.086	-0.011
-189.173	-200.000	-0.068	-0.395
-188.158	108.920	-0.135	-0.160
-187.144	22.181	0.168	-0.136
-186.129	-56.207	0.183	-0.081
-185.114	90.840	-0.147	0.163
-184.100	-138.187	0.156	0.017
-183.085	800.000	-0.052	0.216
-182.071	-200.000	-0.002	-0.097
-181.056	800.000	-0.074	0.216
-180.042	568.753	-0.105	0.253
-179.027	-124.411	0.259	0.040
-178.012	319.375	0.075	-0.141
-176.998	671.074	0.022	-0.056
-175.983	-125.441	-0.048	0.007
-174.969	-34.953	-0.194	0.105
-173.954	167.996	-0.097	-0.136
-172.939	-200.000	-0.041	0.227
-171.925	-200.000	-0.015	0.206
-170.910	-127.570	0.196	0.028
-169.896	22.592	-0.127	0.103
-168.881	-34.356	-0.147	-0.080
-167.866	65.762	0.073	0.073
-166.852	-35.557	-0.182	0.098
-165.837	713.336	-0.090	0.236
-164.823	-11.401	0.027	0.017
-163.808	113.521	-0.162	-0.195
-162.793	-200.000	-0.045	0.250
-161.779	626.713	0.021	-0.051
-160.764	-23.674	-0.189	-0.112
-159.750	-89.278	0.306	0.089
-158.735	-200.000	-0.004	-0.170
-157.720	-200.000	-0.006	0.040
-156.706	147.446	0.111	0.148
-155.691	-63.206	-0.076	0.031
-154.677	-131.079	-0.235	0.031
-153.662	-94.441	0.388	-0.105
-152.647	128.973	-0.147	-0.185
-151.633	-46.241	0.409	-0.199
-150.618	251.571	-0.055	0.093
-149.604	-43.879	-0.162	0.081
-148.589	-6.042	-0.280	0.190
-147.574	202.050	0.097	0.148
-146.560	-200.000	0.013	0.462
-145.545	-161.713	0.113	-0.006
-144.531	414.205	0.092	0.193
-143.516	27.083	-0.204	0.169
-142.502	118.606	-0.077	-0.094
-141.487	224.824	-0.158	-0.253
-140.472	-21.730	-0.128	0.077
-139.458	-66.075	0.293	-0.116
-138.443	-26.524	0.269	0.156
-137.429	343.524	-0.066	-0.128
-136.414	26.280	-0.115	0.095
-135.399	148.651	0.070	-0.093
-134.385	-200.000	0.044	0.348
-133.370	-146.812	0.225	-0.019
-132.356	-200.000	-0.036	0.236
-131.341	-190.094	-0.090	0.001
-130.326	-47.421	-0.333	-0.160
-129.312	800.000	0.088	-0.269
-128.297	-88.160	0.318	-0.094
-127.283	-34.477	-0.161	0.087
-126.268	-118.454	-0.453	-0.079
-125.253	-164.212	0.177	-0.008
-124.239	-200.000	0.005	-0.285
-123.224	800.000	0.106	0.359
-122.210	-77.504	0.403	0.138
-121.195	20.341	0.214	-0.171
-120.180	-45.489	0.392	-0.192
-119.166	-71.021	0.289	-0.108
-118.151	34.519	0.097	0.084
-117.137	625.093	-0.109	-0.272
-116.122	753.481	0.021	0.055
-115.107	-200.000	0.009	-0.064
-114.093	800.000	0.068	-0.250
-113.078	84.974	0.145	0.157
-112.064	-126.123	0.027	-0.004
-111.049	-77.795	-0.153	0.052
-110.034	565.425	0.113	0.271
-109.020	-200.000	-0.010	0.268
-108.005	-200.000	0.021	0.178
-106.991	36.886	-0.042	0.037
-105.976	-83.604	-0.421	-0.133
-104.962	71.772	0.325	0.334
-103.947	-62.297	0.270	-0.111
-102.932	-77.531	-0.196	0.067
-101.918	-36.554	0.192	0.102
-100.903	-91.938	-0.197	0.055
-99.889	-0.594	0.142	0.100
-98.874	-105.357	-0.292	0.066
-97.859	-79.251	0.161	-0.054
-96.845	-200.000	-0.027	-0.269
-95.830	800.000	-0.093	-0.335
-94.816	-149.897	0.353	0.027
-93.801	-67.013	0.048	-0.019
-92.786	191.005	-0.164	0.244
-91.772	643.035	0.121	-0.305
-90.757	106.244	0.036	-0.042
-89.743	800.000	-0.070	0.196
-88.728	800.000	-0.083	0.231
-87.713	800.000	-0.068	-0.192
-86.699	134.967	-0.082	-0.105
-85.684	496.429	0.142	0.322
-84.670	-67.597	0.410	0.159
-83.655	-8.695	0.055	0.036
-82.640	-122.022	-0.122	0.020
-81.626	224.760	0.048	-0.076
-80.611	-200.000	-0.008	-0.220
-79.597	-81.423	-0.274	-0.089
-78.582	-200.000	0.013	0.068
-77.567	-200.000	-0.001	-0.106
-76.553	-126.964	-0.048	0.007
-75.538	-193.951	0.143	-0.001
-74.524	-92.800	0.314	-0.087
-73.509	-200.000	-0.027	-0.156
-72.494	800.000	0.052	-0.182
-71.480	-172.520	-0.128	-0.004
-70.465	108.654	-0.293	-0.345
-69.451	-83.638	0.304	-0.096
-68.436	-200.000	-0.001	0.266
-67.422	65.216	0.038	-0.038
-66.407	145.120	-0.081	0.106
-65.392	-86.229	0.220	0.067
-64.378	446.797	0.062	-0.134
-63.363	72.610	0.229	0.235
-62.349	-101.589	0.248	0.059
-61.334	39.453	-0.919	-0.811
-60.319	-200.000	0.056	0.436
-59.305	425.898	-0.465	-0.988
-58.290	330.699	0.619	1.176
-57.276	800.000	0.611	1.704
-56.261	-200.000	96.777	587.362
-55.246	550.631	1393.107	3292.649
-54.232	156.724	2575.594	3505.135
-53.217	113.528	2154.106	2576.762
-52.203	44.322	1610.939	1456.721
-51.188	36.044	1346.665	1167.791
-50.173	32.825	1304.742	1112.451
-49.159	55.572	1351.373	1289.002
-48.144	57.708	1368.125	1317.707
-47.130	36.255	1326.907	1151.735
-46.115	32.602	1309.600	1115.097
-45.100	32.583	1304.516	1110.610
-44.086	32.361	1302.483	1107.529
-43.071	32.217	1300.268	1104.755
-42.057	32.147	1298.557	1102.845
-41.042	32.364	1296.562	1102.381
-40.027	32.431	1294.673	1101.125
-39.013	32.418	1292.629	1099.268
-37.998	32.402	1290.951	1097.701
-36.984	32.337	1289.807	1096.305
-35.969	32.528	1287.445	1095.367
-34.954	32.466	1286.518	1094.173
-33.940	32.487	1284.819	1092.809
-32.925	32.529	1283.443	1091.838
-31.911	32.564	1281.819	1090.614
-30.896	32.577	1280.124	1089.203
-29.881	32.625	1278.864	1088.368
-28.867	32.601	1276.993	1086.594
-27.852	32.540	1276.274	1085.585
-26.838	32.576	1274.546	1084.281
-25.823	32.503	1273.710	1083.106
-24.809	32.554	1272.006	1081.910
-23.794	32.499	1271.014	1080.707
-22.779	32.594	1268.697	1079.238
-21.765	32.493	1268.051	1078.065
-20.750	32.513	1266.558	1076.868
-19.736	32.473	1265.324	1075.550
-18.721	32.379	1264.825	1074.542
-17.706	32.360	1263.295	1073.091
-16.692	32.419	1262.225	1072.479
-15.677	32.371	1260.950	1071.081
-14.663	32.331	1259.862	1069.884
-13.648	32.339	1258.936	1069.102
-12.633	32.382	1257.906	1068.428
-11.619	32.306	1257.126	1067.294
-10.604	32.370	1255.982	1066.644
-9.590	32.307	1255.125	1065.516
-8.575	32.345	1254.090	1064.808
-7.560	32.266	1253.613	1063.915
-6.546	32.220	1252.998	1063.092
-5.531	32.416	1251.567	1062.940
-4.517	32.348	1250.584	1061.681
-3.502	32.309	1250.261	1061.146
-2.487	32.436	1248.485	1060.308
-1.473	32.351	1244.926	1056.765
-0.458	31.236	1230.800	1038.535
0.556	27.957	1212.823	1002.305
1.571	24.600	1217.711	987.735
2.586	23.689	1232.644	994.655
3.600	22.840	1221.566	980.914
4.615	16.291	1146.417	886.225
5.629	6.070	1069.935	776.725
6.644	2.030	1049.408	742.138
7.659	1.598	1047.448	738.589
8.673	1.453	1045.636	736.540
9.688	1.420	1044.911	735.808
10.702	1.652	1043.162	735.633
11.717	7.743	1051.311	770.917
12.731	18.102	1066.627	832.792
13.746	23.681	1073.730	865.541
14.761	25.032	1074.303	872.509
15.775	24.958	1074.341	872.105
16.790	24.760	1073.731	870.569
17.804	24.585	1073.037	869.079
18.819	24.872	1072.316	869.811
19.834	25.097	1071.648	870.286
20.848	24.970	1072.003	869.878
21.863	25.010	1070.763	868.989
22.877	24.894	1070.100	867.813
23.892	24.982	1069.396	867.591
24.907	24.943	1069.049	867.044
25.921	24.982	1067.719	866.078
26.936	24.949	1066.610	864.940
27.950	24.841	1064.668	862.769
28.965	24.874	1062.851	861.379
29.980	24.755	1061.703	859.801
30.994	24.941	1061.190	860.203
32.009	24.974	1060.272	859.544
33.023	24.830	1058.138	857.046
34.038	24.875	1058.165	857.210
35.053	25.002	1057.608	857.289
36.067	24.972	1056.560	856.222
37.082	24.954	1055.926	855.545
38.096	25.130	1055.412	855.894
39.111	25.206	1055.025	855.863
40.126	25.123	1052.752	853.548
41.140	24.758	1051.499	850.724
42.155	24.468	1050.150	848.181
43.169	24.548	1049.287	847.787
44.184	24.508	1048.624	846.988
45.199	24.516	1047.521	846.058
46.213	24.535	1046.574	845.308
47.228	24.597	1046.134	845.174
48.242	24.825	1044.834	845.122
49.257	24.841	1044.084	844.517
50.271	24.944	1043.750	844.660
51.286	25.001	1043.070	844.300
52.301	25.036	1041.637	843.233
53.315	24.920	1040.789	841.928
54.330	24.924	1039.620	840.924
55.344	24.939	1039.040	840.453
56.359	24.764	1038.427	839.062
57.374	24.712	1036.930	837.534
58.388	24.864	1035.855	837.300
59.403	24.667	1035.452	835.982
60.417	24.422	1035.094	834.471
61.432	24.699	1034.032	834.835
62.447	24.730	1033.453	834.441
63.461	24.733	1032.708	833.779
64.476	24.587	1031.600	832.131
65.490	24.549	1030.620	831.090
66.505	24.669	1030.273	831.293
67.520	24.629	1029.579	830.473
68.534	24.482	1028.387	828.757
69.549	24.146	1027.444	826.366
70.563	24.133	1026.792	825.708
71.578	24.061	1025.840	824.537
72.593	24.058	1024.466	823.342
73.607	24.082	1024.194	823.162
74.622	24.555	1023.646	824.833
75.636	24.541	1023.127	824.281
76.651	24.297	1022.508	822.585
77.666	24.338	1021.213	821.658
78.680	24.343	1021.172	821.574
79.695	24.385	1020.346	821.027
80.709	24.300	1019.813	820.135
81.724	24.466	1018.800	820.014
82.739	24.665	1017.993	820.203
83.753	24.925	1017.587	820.994
84.768	25.261	1016.714	821.758
85.782	25.318	1016.176	821.511
86.797	25.104	1014.993	819.506
87.812	24.994	1014.015	818.141
88.826	25.086	1013.353	817.953
89.841	25.190	1012.559	817.715
90.855	25.133	1011.496	816.524
91.870	25.113	1010.718	815.733
92.884	25.075	1009.100	814.184
93.899	24.924	1008.344	812.816
94.914	25.082	1007.547	812.817
95.928	25.011	1006.442	811.530
96.943	24.810	1004.731	809.170
97.957	24.533	1003.765	807.069
98.972	24.353	1003.030	805.597
99.987	24.692	1002.203	806.390
101.001	24.937	1001.619	806.954
102.016	24.877	1000.582	805.775
103.030	24.841	999.514	804.682
104.045	24.504	999.015	802.694
105.060	24.527	997.825	801.770
106.074	24.652	997.289	801.827
107.089	24.861	997.211	802.635
108.103	24.826	995.802	801.270
109.118	24.614	994.668	799.341
110.133	24.864	993.061	799.094
111.147	24.468	992.211	796.572
112.162	24.317	991.473	795.236
113.176	24.550	991.234	796.012
114.191	24.492	990.549	795.134
115.206	24.244	989.092	792.791
116.220	24.273	988.274	792.193
117.235	24.257	987.764	791.644
118.249	24.146	987.023	790.490
119.264	24.326	985.991	790.389
120.279	24.166	985.657	789.344
121.293	24.445	984.343	789.456
122.308	24.355	983.600	788.391
123.322	24.342	982.364	787.271
124.337	24.191	981.015	785.459
125.352	23.671	979.499	781.885
126.366	23.729	978.440	781.225
127.381	24.279	979.194	784.180
128.395	24.795	978.461	785.788
129.410	24.880	977.624	785.421
130.424	24.727	976.939	784.132
131.439	24.916	975.429	783.676
132.454	24.813	974.801	782.653
133.468	24.794	973.335	781.323
134.483	24.800	973.071	781.066
135.497	25.092	972.740	782.005
136.512	25.081	971.879	781.197
137.527	25.075	970.743	780.188
138.541	25.198	969.851	779.939
139.556	25.109	969.307	779.044
140.570	25.114	968.524	778.366
141.585	25.246	967.532	778.074
142.600	25.114	966.151	776.324
143.614	25.367	965.792	777.060
144.629	25.311	965.345	776.392
145.643	25.060	963.931	774.102
146.658	25.091	962.366	772.909
147.673	25.025	961.300	771.701
148.687	24.904	960.573	770.528
149.702	24.826	959.302	769.107
150.716	24.785	958.715	768.391
151.731	24.986	958.122	768.711
152.746	25.209	957.399	769.019
153.760	25.353	956.728	769.027
154.775	25.323	956.421	768.583
155.789	25.317	955.451	767.708
156.804	25.294	954.203	766.543
157.819	25.268	953.394	765.712
158.833	25.394	953.116	765.960
159.848	25.499	951.768	765.253
160.862	25.288	951.101	763.755
161.877	25.253	949.900	762.573
162.892	25.212	949.371	761.909
163.906	25.135	948.065	760.465
164.921	25.244	946.885	759.911
165.935	25.205	946.199	759.130
166.950	25.253	945.473	758.681
167.964	25.239	944.853	758.060
168.979	25.076	943.313	756.069
169.994	25.041	942.629	755.307
171.008	25.354	942.040	756.088
172.023	25.321	941.460	755.416
173.037	25.092	940.171	753.351
174.052	24.922	939.457	751.999
175.067	25.046	939.090	752.159
176.081	25.058	938.483	751.655
177.096	25.132	937.449	751.074
178.110	24.806	936.727	749.063
179.125	24.575	936.060	747.495
180.140	24.717	935.998	747.976
181.154	24.794	935.637	747.940
182.169	24.982	935.843	748.826
183.183	25.326	934.619	749.214
184.198	25.214	934.178	748.330
185.213	25.174	933.014	747.163
186.227	25.214	932.477	746.834
187.242	25.376	931.514	746.670
188.256	25.420	931.084	746.445
189.271	25.355	930.773	745.858
190.286	24.915	929.646	743.063
191.300	24.421	927.740	739.428
192.315	23.681	926.033	734.940
193.329	23.613	926.168	734.702
194.344	24.553	926.245	738.584
195.359	24.982	926.597	740.573
196.373	25.179	925.712	740.616
197.388	25.102	925.035	739.692
198.402	25.044	924.990	739.350
199.417	25.212	923.987	739.177
200.432	24.915	922.926	737.037
201.446	24.773	922.366	735.940
202.461	24.942	921.378	735.784
203.475	24.052	919.508	730.572
204.490	23.160	918.515	726.064
205.504	23.970	919.201	729.865
206.519	24.749	918.897	732.754
207.534	24.788	918.671	732.666
208.548	25.234	918.145	734.007
209.563	24.984	916.957	731.972
210.577	24.956	916.918	731.761
211.592	25.390	916.587	733.203
212.607	25.373	915.481	732.186
213.621	25.184	915.228	731.146
214.636	25.424	914.019	731.095
215.650	25.219	913.367	729.673
216.665	25.398	912.920	729.978
217.680	25.337	912.015	728.944
218.694	24.987	910.820	726.505
219.709	24.787	910.347	725.253
220.723	24.998	909.954	725.730
221.738	25.122	909.361	725.696
222.753	25.042	908.979	725.001
223.767	25.190	908.328	725.017
224.782	25.424	908.068	725.690
225.796	25.489	907.518	725.450
226.811	24.721	905.984	721.064
227.826	24.090	904.701	717.437
228.840	24.358	904.526	718.312
229.855	24.362	903.746	717.648
230.869	23.916	902.974	715.179
231.884	24.314	902.799	716.576
232.899	25.175	902.920	720.068
233.913	25.153	901.756	718.986
234.928	25.085	901.352	718.327
235.942	24.993	900.933	717.562
236.957	24.712	899.688	715.383
237.972	24.718	899.395	715.109
238.986	24.909	898.616	715.190
240.001	24.958	898.064	714.882
241.015	24.963	897.806	714.636
242.030	25.015	897.668	714.668
243.045	25.224	897.127	715.007
244.059	25.219	896.724	714.604
245.074	24.881	895.862	712.511
246.088	24.676	894.897	710.864
247.103	25.085	894.307	711.958
248.117	25.596	894.500	714.076
249.132	25.886	894.030	714.790
250.147	25.991	893.391	714.632
251.161	25.989	893.401	714.569
252.176	25.951	892.637	713.743
253.190	25.994	892.095	713.416
254.205	26.358	891.393	714.229
255.220	26.199	890.621	712.919
256.234	25.987	890.135	711.632
257.249	25.892	889.131	710.392
258.263	25.943	888.707	710.191
259.278	25.926	888.153	709.619
260.293	26.047	887.577	709.572
261.307	25.994	886.843	708.712
262.322	25.851	885.887	707.326
263.336	24.952	884.244	702.426
264.351	24.104	882.163	697.393
265.366	24.117	881.865	697.146
266.380	25.276	882.592	702.197
267.395	25.701	882.306	703.567
268.409	25.640	881.501	702.625
269.424	25.821	881.052	702.914
270.439	25.905	880.129	702.443
271.453	25.860	880.014	702.112
272.468	26.060	879.766	702.631
273.482	26.089	879.137	702.178
274.497	25.717	877.891	699.676
275.512	25.406	877.047	697.735
276.526	25.728	876.943	698.841
277.541	25.840	876.977	699.239
278.555	25.618	875.920	697.473
279.570	25.612	874.748	696.457
280.585	25.650	874.478	696.325
281.599	25.753	873.225	695.667
282.614	25.137	872.109	692.336
283.628	25.011	872.065	691.754
284.643	25.375	871.501	692.648
285.657	25.060	870.281	690.404
286.672	24.809	869.399	688.678
287.687	25.408	869.728	691.184
288.701	25.335	869.124	690.362
289.716	25.141	868.273	688.878
290.730	25.193	867.564	688.455
291.745	24.811	866.588	686.155
292.760	25.032	866.905	687.194
293.774	26.179	866.843	691.478
294.789	26.424	866.602	692.164
295.803	26.368	866.665	691.936
296.818	26.373	865.524	690.984
297.833	25.875	864.262	688.016
298.847	25.864	863.958	687.671
299.862	26.146	863.656	688.447
300.876	26.400	863.458	689.193
301.891	26.411	862.350	688.292
302.906	25.845	861.630	685.503
303.920	26.009	861.813	686.213
304.935	26.318	861.141	686.791
305.949	26.207	860.507	685.803
306.964	25.955	860.144	684.495
307.979	26.118	859.442	684.493
308.993	26.578	858.914	685.756
310.008	26.547	858.442	685.202
311.022	26.310	857.493	683.486
312.037	26.182	856.904	682.475
313.052	25.820	855.949	680.285
314.066	25.011	854.270	675.840
315.081	24.662	853.919	674.187
316.095	25.557	854.184	677.713
317.110	26.054	853.947	679.337
318.125	25.282	852.015	674.839
319.139	24.039	850.974	669.282
320.154	24.126	850.458	669.145
321.168	25.110	851.160	673.336
322.183	25.791	851.276	675.926
323.197	25.848	850.928	675.804
324.212	26.133	850.673	676.607
325.227	26.102	849.790	675.729
326.241	26.000	849.161	674.786
327.256	25.960	848.401	673.974
328.270	25.832	847.711	672.888
329.285	25.647	846.890	671.489
330.300	25.435	846.209	670.098
331.314	25.656	846.296	670.932
332.329	26.225	845.887	672.668
333.343	26.292	845.691	672.704
334.358	26.129	845.312	671.734
335.373	26.206	844.833	671.581
336.387	26.664	844.636	673.068
337.402	26.809	844.352	673.318
338.416	26.519	844.240	672.094
339.431	26.771	843.912	672.709
340.446	26.849	843.885	672.915
341.460	26.763	843.117	671.927
342.475	26.497	842.515	670.399
343.489	26.660	842.443	670.888
344.504	26.913	841.890	671.326
345.519	26.920	842.013	671.391
346.533	27.087	841.158	671.266
347.548	27.197	839.973	670.666
348.562	27.057	839.889	670.024
349.577	26.978	839.377	669.264
350.592	26.941	838.829	668.633
351.606	27.035	838.083	668.322
352.621	26.866	837.326	667.039
353.635	26.744	836.489	665.865
354.650	26.057	834.720	661.878
355.665	25.204	833.260	657.539
356.679	25.716	833.258	659.356
357.694	26.137	832.831	660.500
358.708	26.036	832.338	659.682
359.723	26.294	832.437	660.646
360.738	26.647	831.795	661.365
361.752	26.705	831.713	661.454
362.767	27.074	831.205	662.337
363.781	27.455	830.564	663.156
364.796	27.542	830.427	663.302
365.810	27.382	830.321	662.576
366.825	27.418	829.431	661.938
367.840	27.123	828.695	660.223
368.854	26.597	827.929	657.644
369.869	26.625	827.644	657.459
370.883	26.770	827.276	657.636
371.898	26.567	827.096	656.698
372.913	26.763	826.277	656.701
373.927	26.993	825.807	657.101
374.942	27.177	825.352	657.345
375.956	27.130	825.166	656.968
376.971	27.265	824.892	657.183
377.986	27.352	824.360	657.015
379.000	27.341	823.493	656.225
380.015	27.171	823.248	655.357
381.029	27.124	822.646	654.652
382.044	27.382	822.031	655.035
383.059	27.546	821.529	655.164
384.073	27.490	820.838	654.355
385.088	27.324	820.138	653.143
386.102	27.124	819.796	652.097
387.117	26.954	819.032	650.821
388.132	26.742	818.123	649.283
389.146	26.188	817.109	646.438
390.161	26.678	816.920	647.983
391.175	27.045	816.950	649.263
392.190	26.896	815.782	647.743
393.205	25.264	813.947	640.413
394.219	23.898	812.096	634.033
395.234	23.890	811.872	633.773
396.248	25.421	813.176	640.194
397.263	27.040	814.112	646.645
398.278	26.861	813.814	645.713
399.292	26.574	812.822	643.847
400.307	26.438	812.773	643.270
401.321	26.566	812.355	643.337
402.336	27.129	812.202	645.157
403.350	27.588	811.863	646.461
404.365	27.934	812.069	647.793
405.380	28.087	811.585	647.893
406.394	28.172	810.675	647.411
407.409	27.976	810.503	646.524
408.423	28.000	810.223	646.325
409.438	28.030	810.063	646.248
410.453	28.180	809.359	646.159
411.467	28.178	808.546	645.445
412.482	28.013	808.335	644.636
413.496	28.176	808.162	645.018
414.511	28.161	807.741	644.572
415.526	28.128	807.394	644.123
416.540	28.121	806.367	643.221
417.555	27.770	805.631	641.344
418.569	27.927	805.149	641.455
419.584	27.729	805.075	640.644
420.599	27.664	804.216	639.674
421.613	109.821	1286.113	1457.187
422.628	94.768	1356.334	1457.274
