DTS Sentinel unit serial number:	SN413079Multiplexer serial number:	ORYXHardware model number:	OX4-SRSoftware version number:	ORYX F/W v4.00 Oryx Data Collector v3.7.2.0data status	okinstallation	princeton_trtdifferential loss correction	single-endedforward channel	channel 1reverse channel	N/Adate	2019/09/13time	08:38:35forward acquisition time	60.00reverse acquisition time	0.00gamma	496.2192k internal	0.2328k external	0.2328temperature offset calibration	1.0163default loss term (dB/km)	0.3790temperature slope calibration	1.0000multiplexer offset coefficient	1.0000multiplexer slope coefficient	1.0000fibre end	0.00T internal ref (°C)	27.72T ext. ref 1 (°C)	4.28T ext. ref 2 (°C)	24.69length (m)	temperature (°C)	Stokes	anti-Stokes-747.200	-200.000	0.025	-0.136
-746.185	-200.000	0.005	0.159
-745.171	-90.719	0.197	-0.057
-744.156	370.160	-0.052	0.106
-743.142	800.000	-0.014	0.049
-742.127	-0.227	0.164	0.118
-741.112	144.545	0.052	0.071
-740.098	-163.651	-0.094	-0.004
-739.083	-93.880	-0.178	-0.049
-738.069	74.120	-0.046	0.048
-737.054	410.331	-0.097	-0.207
-736.039	-8.852	-0.135	-0.091
-735.025	-200.000	0.022	0.449
-734.010	77.107	-0.046	0.049
-732.996	800.000	-0.028	0.097
-731.981	-200.000	0.008	0.258
-730.966	800.000	0.133	0.401
-729.952	-5.272	-0.060	0.042
-728.937	-77.310	0.130	-0.045
-727.923	-200.000	0.013	-0.387
-726.908	-57.269	0.075	0.033
-725.894	65.810	0.256	-0.261
-724.879	-100.594	0.093	0.023
-723.864	-99.507	-0.237	-0.060
-722.850	-200.000	-0.142	0.001
-721.835	305.695	0.171	0.320
-720.821	182.593	-0.072	0.106
-719.806	-52.927	0.297	-0.138
-718.791	-90.220	0.152	0.044
-717.777	222.524	0.021	0.034
-716.762	45.696	-0.085	0.079
-715.748	-93.567	0.185	-0.052
-714.733	101.878	-0.209	-0.246
-713.718	800.000	-0.093	-0.369
-712.704	-200.000	-0.002	-0.183
-711.689	-36.811	0.214	-0.115
-710.675	24.835	0.091	0.076
-709.660	244.056	-0.067	-0.114
-708.645	-119.673	0.567	-0.099
-707.631	327.376	-0.076	-0.147
-706.616	-105.045	-0.169	-0.039
-705.602	32.381	-0.065	0.056
-704.587	53.494	-0.186	0.180
-703.572	-116.166	-0.088	0.016
-702.558	195.743	0.090	0.137
-701.543	-102.001	0.274	-0.067
-700.529	-154.817	-0.050	-0.003
-699.514	-91.900	-0.090	-0.026
-698.499	-90.255	-0.201	0.059
-697.485	-83.456	-0.038	-0.012
-696.470	261.162	-0.232	0.405
-695.456	100.797	0.136	-0.159
-694.441	58.457	-0.046	-0.046
-693.426	-53.092	0.230	-0.106
-692.412	79.484	-0.068	0.073
-691.397	239.723	0.087	0.146
-690.383	-157.811	0.175	-0.010
-689.368	-96.485	-0.336	-0.089
-688.354	800.000	0.020	-0.061
-687.339	-200.000	-0.034	-0.299
-686.324	366.748	-0.106	-0.215
-685.310	-36.668	0.211	-0.114
-684.295	-200.000	0.010	-0.167
-683.281	-54.754	0.083	0.038
-682.266	-132.272	0.202	0.026
-681.251	184.719	-0.194	-0.289
-680.237	134.267	0.134	0.175
-679.222	486.212	-0.053	-0.123
-678.208	-3.073	0.217	-0.152
-677.193	71.807	0.027	0.028
-676.178	-200.000	0.029	-0.173
-675.164	62.780	0.155	-0.156
-674.149	266.772	0.092	0.161
-673.135	-15.329	-0.133	0.085
-672.120	-54.309	0.038	0.017
-671.105	-63.397	0.117	-0.048
-670.091	-0.893	-0.206	0.147
-669.076	215.999	-0.087	0.139
-668.062	-79.973	0.214	0.072
-667.047	257.310	0.081	-0.140
-666.032	781.432	0.093	-0.255
-665.018	417.290	0.020	-0.043
-664.003	-200.000	-0.009	-0.095
-662.989	-106.113	0.107	-0.024
-661.974	89.873	0.176	0.197
-660.959	-64.589	-0.155	-0.063
-659.945	514.069	0.155	-0.364
-658.930	4.375	-0.280	-0.206
-657.916	800.000	0.053	0.154
-656.901	-16.572	-0.115	-0.073
-655.886	-7.997	0.070	0.048
-654.872	161.565	0.177	0.249
-653.857	800.000	-0.048	-0.194
-652.843	-20.344	0.036	-0.022
-651.828	-97.239	0.461	0.121
-650.814	179.547	0.052	-0.076
-649.799	-200.000	0.047	0.324
-648.784	-98.811	-0.305	0.078
-647.770	-94.041	0.127	-0.035
-646.755	800.000	0.134	-0.429
-645.741	-200.000	0.017	-0.139
-644.726	114.947	0.190	0.232
-643.711	-115.062	0.195	-0.037
-642.697	60.359	-0.073	0.072
-641.682	150.850	-0.270	-0.369
-640.668	800.000	0.016	-0.057
-639.653	-200.000	-0.018	-0.417
-638.638	-170.176	0.146	0.005
-637.624	291.651	0.049	0.089
-636.609	-200.000	0.066	0.298
-635.595	584.508	-0.023	0.057
-634.580	160.279	-0.039	0.054
-633.565	-44.368	-0.224	-0.113
-632.551	142.387	0.112	0.150
-631.536	-200.000	0.012	0.075
-630.522	26.754	0.190	0.159
-629.507	-175.152	-0.307	-0.009
-628.492	-56.955	0.064	-0.028
-627.478	-200.000	-0.058	0.323
-626.463	-200.000	0.080	0.387
-625.449	485.324	-0.234	0.535
-624.434	112.672	0.225	0.273
-623.419	264.803	-0.194	-0.339
-622.405	-40.718	0.180	-0.094
-621.390	91.393	-0.251	0.283
-620.376	-200.000	0.026	-0.177
-619.361	-1.403	-0.073	0.052
-618.346	560.326	0.070	0.170
-617.332	800.000	-0.059	0.190
-616.317	-18.183	0.152	-0.096
-615.303	800.000	0.088	0.263
-614.288	800.000	0.026	-0.083
-613.273	-200.000	0.084	0.566
-612.259	-46.662	-0.404	0.199
-611.244	-14.133	0.062	0.040
-610.230	-200.000	-0.003	-0.019
-609.215	134.560	0.060	0.078
-608.201	124.311	0.102	-0.128
-607.186	74.806	0.195	0.206
-606.171	422.725	-0.049	-0.105
-605.157	108.243	-0.034	-0.041
-604.142	-3.677	0.147	0.102
-603.128	-200.000	-0.040	-0.184
-602.113	-123.481	0.256	-0.041
-601.098	265.201	0.039	0.068
-600.084	-93.130	-0.041	-0.011
-599.069	-36.280	-0.122	-0.066
-598.055	135.996	0.093	-0.121
-597.040	-110.588	0.076	-0.016
-596.025	32.092	0.236	-0.204
-595.011	-200.000	-0.009	-0.133
-593.996	489.384	0.083	0.189
-592.982	800.000	-0.009	0.036
-591.967	118.600	-0.048	-0.059
-590.952	31.571	0.231	-0.199
-589.938	165.703	0.157	-0.222
-588.923	-20.798	0.472	-0.290
-587.909	46.055	-0.159	-0.147
-586.894	-120.853	0.327	-0.055
-585.879	-200.000	0.034	0.345
-584.865	-36.203	-0.297	-0.160
-583.850	-200.000	0.035	-0.208
-582.836	786.687	0.061	0.169
-581.821	-126.079	-0.397	0.060
-580.806	604.762	0.041	-0.103
-579.792	800.000	0.114	-0.442
-578.777	-114.883	0.153	0.029
-577.763	-1.826	0.449	0.316
-576.748	-20.735	0.239	-0.147
-575.733	10.382	0.355	-0.271
-574.719	461.066	0.123	-0.275
-573.704	36.994	-0.297	-0.263
-572.690	-77.501	-0.078	-0.027
-571.675	353.488	-0.134	-0.266
-570.661	359.441	0.091	0.182
-569.646	-200.000	0.027	0.170
-568.631	-200.000	-0.020	-0.307
-567.617	113.884	0.222	-0.270
-566.602	-22.021	-0.312	0.190
-565.588	-60.937	0.146	-0.062
-564.573	202.567	0.197	-0.304
-563.558	-120.755	0.144	-0.024
-562.544	-200.000	0.011	0.310
-561.529	18.573	0.148	0.119
-560.515	-200.000	-0.007	-0.041
-559.500	800.000	-0.080	0.320
-558.485	447.397	-0.049	0.108
-557.471	313.140	0.101	0.190
-556.456	-36.685	0.033	-0.018
-555.442	-68.069	-0.253	-0.098
-554.427	-200.000	-0.022	-0.297
-553.412	-200.000	-0.025	-0.299
-552.398	386.607	-0.101	0.208
-551.383	348.329	0.092	-0.181
-550.369	-63.632	0.132	-0.054
-549.354	356.325	-0.058	-0.116
-548.339	21.356	-0.280	-0.227
-547.325	-5.478	0.304	-0.208
-546.310	166.070	-0.120	0.170
-545.296	-65.312	0.152	-0.061
-544.281	223.996	0.231	0.373
-543.266	117.887	0.053	0.066
-542.252	305.349	0.071	0.132
-541.237	-163.265	-0.235	0.011
-540.223	-23.341	-0.241	0.145
-539.208	-84.315	0.065	0.021
-538.193	-40.402	-0.189	0.098
-537.179	9.398	0.165	0.125
-536.164	100.429	-0.250	0.290
-535.150	-109.593	-0.254	0.054
-534.135	106.819	0.179	0.212
-533.121	11.907	0.283	0.218
-532.106	172.208	0.041	-0.060
-531.091	99.939	0.270	0.313
-530.077	-75.859	-0.108	0.038
-529.062	-200.000	-0.041	-0.599
-528.048	-78.595	-0.102	0.035
-527.033	148.639	0.136	-0.183
-526.018	-200.000	-0.018	0.220
-525.004	-24.587	0.188	-0.112
-523.989	-16.688	0.048	-0.030
-522.975	-102.381	0.194	-0.046
-521.960	-81.529	0.089	0.029
-520.945	57.206	-0.113	0.110
-519.931	-200.000	0.025	0.138
-518.916	-13.791	0.417	-0.270
-517.902	120.261	-0.032	0.039
-516.887	140.152	-0.120	-0.158
-515.872	-45.312	-0.298	0.148
-514.858	-200.000	-0.007	0.182
-513.843	378.480	-0.029	0.059
-512.829	800.000	0.100	0.283
-511.814	-200.000	0.035	0.315
-510.799	6.747	0.022	0.016
-509.785	-87.936	0.278	-0.083
-508.770	299.847	0.123	0.227
-507.756	244.849	0.045	0.076
-506.741	-2.422	0.111	-0.078
-505.726	-14.907	0.233	-0.149
-504.712	61.957	-0.058	-0.058
-503.697	35.267	-0.060	-0.052
-502.683	-68.238	-0.577	0.224
-501.668	460.575	0.132	0.293
-500.653	-43.797	0.231	0.116
-499.639	339.053	-0.095	-0.185
-498.624	-200.000	0.020	0.160
-497.610	-35.235	0.108	0.059
-496.595	-32.577	0.100	0.055
-495.581	18.386	0.083	-0.066
-494.566	-200.000	0.026	0.142
-493.551	-34.537	-0.078	0.042
-492.537	-37.533	0.145	0.077
-491.522	-103.552	-0.089	0.021
-490.508	29.756	0.292	-0.248
-489.493	-21.084	0.168	-0.103
-488.478	-200.000	0.037	-0.291
-487.464	-30.795	0.224	0.127
-486.449	-85.625	0.143	0.044
-485.435	-200.000	-0.059	0.448
-484.420	800.000	-0.037	-0.106
-483.405	-200.000	-0.016	0.330
-482.391	-200.000	0.491	-0.000
-481.376	-200.000	-0.001	-0.089
-480.362	55.259	-0.287	-0.277
-479.347	-200.000	-0.035	-0.259
-478.332	152.210	0.028	0.038
-477.318	800.000	-0.047	0.150
-476.303	800.000	-0.074	0.206
-475.289	-200.000	0.032	-0.338
-474.274	-200.000	0.003	-0.149
-473.259	1.703	0.032	0.023
-472.245	189.537	0.166	-0.248
-471.230	287.937	-0.147	-0.266
-470.216	-101.473	0.184	0.045
-469.201	271.150	0.131	-0.229
-468.186	-126.983	0.204	0.030
-467.172	-200.000	-0.213	-0.001
-466.157	530.619	-0.135	0.317
-465.143	-171.230	-0.299	-0.010
-464.128	-200.000	0.042	-0.365
-463.113	127.595	-0.157	0.199
-462.099	-67.376	-0.213	0.083
-461.084	308.371	-0.085	-0.157
-460.070	192.620	0.036	0.055
-459.055	-17.683	0.238	0.149
-458.040	41.042	0.189	-0.170
-457.026	-200.000	0.017	-0.158
-456.011	746.099	0.059	-0.157
-454.997	30.049	0.209	-0.178
-453.982	78.646	-0.194	-0.206
-452.968	800.000	-0.043	-0.128
-451.953	-188.900	-0.367	0.004
-450.938	403.958	0.032	-0.066
-449.924	-148.279	-0.252	-0.021
-448.909	-50.627	0.103	-0.048
-447.895	254.313	-0.123	0.210
-446.880	-198.388	0.040	0.000
-445.865	-200.000	-0.001	0.291
-444.851	787.705	0.038	0.104
-443.836	114.984	0.085	-0.104
-442.822	44.647	0.118	-0.108
-441.807	-50.821	0.176	-0.083
-440.792	-84.320	-0.525	0.165
-439.778	-9.768	0.137	0.091
-438.763	-200.000	-0.016	-0.493
-437.749	-143.157	-0.441	-0.042
-436.734	321.936	0.068	0.129
-435.719	-38.172	0.379	-0.200
-434.705	-200.000	0.020	-0.147
-433.690	280.185	-0.211	0.376
-432.676	424.217	0.062	-0.132
-431.661	99.583	0.184	-0.212
-430.646	9.312	-0.205	-0.155
-429.632	-77.001	-0.296	0.103
-428.617	800.000	-0.073	-0.221
-427.603	-148.586	-0.157	0.013
-426.588	106.085	0.265	0.312
-425.573	-40.010	0.183	0.095
-424.559	-200.000	0.065	-0.326
-423.544	86.819	-0.173	0.190
-422.530	398.877	0.160	0.333
-421.515	206.196	-0.066	0.103
-420.500	8.263	-0.218	0.163
-419.486	800.000	-0.045	-0.132
-418.471	-200.000	-0.011	-0.218
-417.457	120.729	-0.149	0.184
-416.442	37.743	-0.288	-0.254
-415.428	34.985	0.055	-0.048
-414.413	214.199	0.039	0.061
-413.398	-73.382	-0.073	0.026
-412.384	228.174	0.108	-0.175
-411.369	-170.042	0.364	0.013
-410.355	-200.000	-0.020	-0.116
-409.340	-182.073	0.410	0.008
-408.325	240.427	0.111	0.184
-407.311	66.535	0.113	-0.114
-406.296	-136.365	-0.312	-0.036
-405.282	-114.460	-0.124	-0.024
-404.267	800.000	-0.129	0.391
-403.252	461.090	-0.103	0.227
-402.238	-165.681	-0.119	0.005
-401.223	-20.282	-0.266	0.163
-400.209	8.898	0.116	-0.087
-399.194	-40.153	-0.270	0.140
-398.179	-35.979	-0.110	0.059
-397.165	74.078	0.201	-0.209
-396.150	-15.411	-0.067	-0.043
-395.136	800.000	-0.063	-0.185
-394.121	-187.335	-0.327	0.004
-393.106	-85.834	-0.376	0.116
-392.092	-51.147	-0.229	0.107
-391.077	-145.761	-0.172	0.015
-390.063	3.094	-0.248	0.179
-389.048	224.874	-0.088	-0.142
-388.033	800.000	0.071	-0.280
-387.019	-200.000	0.019	-0.092
-386.004	-200.000	-0.034	-0.264
-384.990	-25.160	0.433	-0.255
-383.975	-39.915	0.331	0.171
-382.960	-102.688	-0.249	0.059
-381.946	800.000	0.106	0.303
-380.931	-102.694	-0.301	0.071
-379.917	-25.001	-0.091	0.054
-378.902	77.595	0.210	-0.222
-377.888	68.072	0.172	0.175
-376.873	388.157	-0.080	0.164
-375.858	-0.332	-0.096	0.068
-374.844	95.791	-0.169	0.192
-373.829	800.000	-0.036	-0.123
-372.815	-33.215	0.360	0.198
-371.800	76.849	0.088	-0.093
-370.785	-164.014	0.286	0.013
-369.771	560.122	-0.028	0.068
-368.756	-125.856	-0.232	0.035
-367.742	409.093	0.103	0.216
-366.727	-112.459	0.300	-0.060
-365.712	800.000	-0.237	-0.730
-364.698	-134.635	0.125	0.015
-363.683	431.702	0.072	0.156
-362.669	-40.451	-0.143	-0.074
-361.654	384.068	-0.072	0.147
-360.639	144.219	0.178	0.236
-359.625	-89.148	-0.269	-0.079
-358.610	-200.000	-0.053	-0.249
-357.596	403.101	-0.075	0.157
-356.581	121.451	-0.160	-0.198
-355.566	119.995	0.055	0.068
-354.552	35.237	0.366	-0.318
-353.537	47.385	-0.211	-0.195
-352.523	230.889	-0.223	0.363
-351.508	-200.000	-0.028	0.144
-350.493	551.173	-0.105	-0.249
-349.479	-200.000	0.014	0.096
-348.464	-93.747	-0.114	0.031
-347.450	185.480	0.297	0.438
-346.435	-200.000	0.038	0.378
-345.420	-14.256	0.160	0.102
-344.406	24.401	-0.202	0.165
-343.391	542.785	0.140	0.331
-342.377	-96.152	0.053	-0.014
-341.362	36.775	-0.156	0.137
-340.348	800.000	-0.021	0.081
-339.333	-57.927	-0.148	-0.064
-338.318	-39.662	-0.317	0.164
-337.304	276.475	0.229	0.403
-336.289	482.523	-0.221	-0.498
-335.275	311.923	0.106	0.197
-334.260	5.081	-0.150	0.109
-333.245	367.027	-0.031	-0.062
-332.231	800.000	-0.057	-0.168
-331.216	-2.696	0.106	-0.074
-330.202	115.128	-0.172	0.208
-329.187	23.369	0.289	-0.236
-328.172	281.198	-0.079	-0.140
-327.158	-50.974	0.093	0.043
-326.143	-73.116	0.172	0.062
-325.129	-29.890	0.146	0.083
-324.114	10.681	0.086	0.065
-323.099	800.000	0.068	0.273
-322.085	-200.000	-0.000	-0.048
-321.070	6.149	0.090	0.066
-320.056	-138.695	-0.244	-0.026
-319.041	447.333	-0.082	-0.178
-318.026	139.271	-0.097	-0.126
-317.012	-33.728	0.159	-0.087
-315.997	800.000	-0.017	0.065
-314.983	-200.000	-0.027	-0.170
-313.968	-68.711	-0.268	0.103
-312.953	-88.758	-0.319	0.094
-311.939	-39.325	-0.158	0.082
-310.924	-14.392	-0.266	-0.169
-309.910	183.434	-0.084	0.124
-308.895	211.288	0.075	-0.116
-307.880	-182.128	0.334	0.006
-306.866	220.830	0.272	0.432
-305.851	81.745	-0.173	-0.185
-304.837	-137.642	-0.218	-0.024
-303.822	-94.374	0.118	-0.032
-302.807	-24.959	0.163	-0.096
-301.793	-200.000	0.009	-0.140
-300.778	230.642	-0.102	0.165
-299.764	-114.579	-0.170	-0.032
-298.749	21.475	0.182	-0.147
-297.735	-200.000	-0.049	0.249
-296.720	199.470	0.085	-0.128
-295.705	259.533	0.196	-0.335
-294.691	-200.000	0.075	-0.391
-293.676	-147.781	-0.181	-0.015
-292.662	-94.405	0.355	0.096
-291.647	-33.068	0.307	0.169
-290.632	-121.286	-0.198	0.033
-289.618	-200.000	-0.003	-0.211
-288.603	-200.000	0.003	0.061
-287.589	207.124	0.141	-0.217
-286.574	-30.852	0.068	0.038
-285.559	-138.457	-0.042	-0.005
-284.545	2.582	0.232	0.166
-283.530	-200.000	0.027	0.438
-282.516	99.084	-0.063	0.072
-281.501	-45.136	0.057	0.028
-280.486	246.126	-0.103	-0.171
-279.472	-71.882	-0.221	0.081
-278.457	-200.000	-0.019	-0.264
-277.443	791.275	-0.049	-0.135
-276.428	208.208	-0.034	-0.052
-275.413	323.881	-0.097	-0.183
-274.399	176.989	-0.155	-0.224
-273.384	44.943	-0.184	0.167
-272.370	41.336	0.479	-0.428
-271.355	-200.000	0.050	-0.310
-270.340	72.833	0.109	-0.113
-269.326	138.936	0.138	-0.180
-268.311	79.098	-0.177	-0.188
-267.297	800.000	0.035	0.098
-266.282	26.909	-0.094	-0.078
-265.267	66.657	-0.290	0.292
-264.253	-25.538	0.160	-0.093
-263.238	-74.802	-0.181	-0.064
-262.224	-10.370	0.228	0.150
-261.209	-37.715	0.154	0.081
-260.195	-102.390	0.294	0.070
-259.180	380.442	0.099	0.200
-258.165	-200.000	-0.014	-0.134
-257.151	-132.367	-0.407	-0.052
-256.136	-73.314	0.240	-0.087
-255.122	-200.000	-0.008	-0.195
-254.107	800.000	-0.016	-0.057
-253.092	4.216	0.275	0.199
-252.078	21.263	-0.173	-0.139
-251.063	759.143	-0.161	0.430
-250.049	-200.000	-0.043	0.187
-249.034	193.619	-0.182	0.273
-248.019	-51.241	0.272	0.126
-247.005	-171.708	-0.177	0.006
-245.990	213.268	0.084	-0.131
-244.976	800.000	-0.066	-0.266
-243.961	800.000	0.014	-0.049
-242.946	-200.000	0.042	-0.268
-241.932	239.494	-0.125	0.206
-240.917	-89.921	-0.374	-0.108
-239.903	-48.067	-0.229	-0.109
-238.888	104.493	0.236	0.274
-237.873	87.292	0.164	0.179
-236.859	-5.944	0.087	0.058
-235.844	-108.398	-0.135	-0.029
-234.830	-142.409	0.228	-0.022
-233.815	235.875	-0.156	0.254
-232.800	88.301	0.079	0.086
-231.786	-76.776	-0.108	0.037
-230.771	-48.768	0.113	-0.053
-229.757	-200.000	-0.009	-0.289
-228.742	132.430	0.192	0.244
-227.727	-200.000	0.001	0.270
-226.713	-45.593	-0.144	-0.070
-225.698	-73.977	0.137	-0.049
-224.684	84.120	-0.047	0.050
-223.669	-114.748	-0.413	-0.078
-222.655	800.000	0.067	0.251
-221.640	76.961	0.258	-0.271
-220.625	326.624	-0.033	-0.062
-219.611	-117.025	-0.067	0.012
-218.596	-44.732	-0.217	0.107
-217.582	581.800	0.072	-0.174
-216.567	27.484	-0.212	0.176
-215.552	-20.909	0.235	0.142
-214.538	-137.404	-0.130	0.015
-213.523	-148.638	-0.101	-0.008
-212.509	-79.761	0.110	0.037
-211.494	389.287	-0.068	-0.139
-210.479	195.078	-0.179	-0.269
-209.465	-102.043	-0.266	-0.063
-208.450	-200.000	0.017	-0.108
-207.436	-14.761	-0.214	0.136
-206.421	-88.285	-0.163	0.048
-205.406	-81.149	0.144	-0.047
-204.392	-106.259	-0.384	-0.085
-203.377	269.924	-0.083	0.144
-202.363	569.295	0.061	0.146
-201.348	517.856	0.067	-0.155
-200.333	-88.445	-0.294	0.087
-199.319	304.450	0.153	0.281
-198.304	103.678	-0.099	0.115
-197.290	64.340	-0.069	-0.069
-196.275	-50.694	-0.435	-0.202
-195.260	-200.000	-0.017	-0.179
-194.246	800.000	0.056	-0.187
-193.231	-200.000	-0.038	0.231
-192.217	-200.000	-0.015	0.280
-191.202	-200.000	0.038	-0.389
-190.187	464.807	0.028	-0.061
-189.173	-77.706	0.238	0.081
-188.158	-54.473	-0.215	-0.096
-187.144	-200.000	0.022	-0.125
-186.129	-21.106	-0.194	-0.117
-185.114	170.127	0.046	-0.064
-184.100	166.375	0.119	0.166
-183.085	304.015	0.078	-0.143
-182.071	-173.900	-0.292	-0.008
-181.056	635.009	-0.114	-0.286
-180.042	88.479	-0.142	-0.156
-179.027	-47.851	-0.041	0.020
-178.012	82.051	0.086	-0.092
-176.998	84.709	0.102	0.110
-175.983	-9.537	0.196	0.129
-174.969	-137.561	-0.216	0.024
-173.954	-72.372	0.117	-0.042
-172.939	156.610	-0.118	0.161
-171.925	-134.595	0.340	-0.041
-170.910	800.000	0.049	-0.177
-169.896	800.000	-0.101	-0.342
-168.881	14.133	-0.266	-0.204
-167.866	-200.000	-0.024	0.108
-166.852	220.069	0.239	0.377
-165.837	-139.005	0.346	0.037
-164.823	110.212	0.077	0.091
-163.808	-75.449	0.198	0.069
-162.793	-80.010	-0.217	-0.072
-161.779	557.802	0.033	-0.079
-160.764	800.000	-0.130	-0.368
-159.750	800.000	0.061	-0.180
-158.735	-146.273	-0.357	0.031
-157.720	-113.113	-0.300	0.058
-156.706	-200.000	0.006	0.170
-155.691	92.005	0.137	0.152
-154.677	335.425	0.212	-0.405
-153.662	-133.962	-0.409	-0.050
-152.647	-33.781	0.192	-0.104
-151.633	266.627	0.089	0.153
-150.618	-82.371	0.157	-0.050
-149.604	113.963	-0.141	0.168
-148.589	800.000	0.055	0.180
-147.574	501.926	-0.130	-0.296
-146.560	-112.391	-0.256	0.050
-145.545	74.441	-0.155	-0.160
-144.531	113.081	0.176	0.210
-143.516	131.904	0.384	0.486
-142.502	9.350	0.228	0.169
-141.487	-200.000	-0.017	0.135
-140.472	-156.006	-0.092	-0.006
-139.458	10.501	-0.150	0.113
-138.443	78.675	0.137	-0.144
-137.429	137.019	0.072	0.092
-136.414	3.644	0.161	0.116
-135.399	198.103	0.109	-0.163
-134.385	245.114	0.044	-0.073
-133.370	-43.943	0.141	0.070
-132.356	-200.000	0.021	0.185
-131.341	-185.202	0.134	0.002
-130.326	-200.000	0.020	-0.210
-129.312	800.000	-0.092	0.385
-128.297	-112.794	0.222	0.043
-127.283	-200.000	-0.039	0.257
-126.268	377.786	0.080	0.161
-125.253	1.368	-0.297	0.210
-124.239	-10.474	0.132	0.086
-123.224	114.277	0.332	-0.397
-122.210	-38.829	0.228	-0.118
-121.195	295.118	-0.222	0.400
-120.180	-97.754	0.198	0.050
-119.166	133.639	0.199	-0.254
-118.151	800.000	0.042	-0.159
-117.137	-74.520	0.210	0.074
-116.122	-200.000	-0.064	-0.369
-115.107	490.404	-0.036	-0.082
-114.093	-11.998	0.137	-0.088
-113.078	-200.000	-0.047	-0.373
-112.064	60.053	-0.104	0.101
-111.049	-200.000	-0.008	-0.064
-110.034	33.347	0.149	-0.127
-109.020	-62.440	-0.139	-0.057
-108.005	-8.567	0.249	0.164
-106.991	400.614	0.077	0.160
-105.976	12.860	-0.114	0.086
-104.962	11.767	-0.330	-0.249
-103.947	-8.968	-0.050	0.033
-102.932	-11.878	-0.347	-0.224
-101.918	-200.000	0.064	-0.296
-100.903	-137.169	0.128	-0.014
-99.889	-123.155	-0.150	-0.024
-98.874	-200.000	-0.021	-0.229
-97.859	122.333	0.074	0.091
-96.845	-35.600	0.247	-0.131
-95.830	14.482	0.295	0.226
-94.816	800.000	0.090	0.280
-93.801	-141.840	0.167	-0.016
-92.786	-94.936	-0.240	0.064
-91.772	-37.165	0.266	-0.140
-90.757	-102.587	-0.196	-0.046
-89.743	-142.625	0.319	-0.031
-88.728	-104.080	0.520	0.119
-87.713	212.179	-0.165	0.255
-86.699	-24.631	0.059	0.034
-85.684	3.613	-0.307	-0.220
-84.670	-200.000	-0.071	-0.000
-83.655	-200.000	-0.025	-0.187
-82.640	221.654	0.100	-0.157
-81.626	800.000	-0.034	0.094
-80.611	94.787	-0.139	-0.155
-79.597	-97.191	-0.184	0.047
-78.582	800.000	0.114	0.340
-77.567	-110.156	-0.234	0.048
-76.553	-151.363	0.412	0.030
-75.538	-52.684	-0.093	-0.042
-74.524	510.413	0.055	0.126
-73.509	185.012	0.277	-0.403
-72.494	800.000	0.056	-0.214
-71.480	112.795	-0.127	0.150
-70.465	-100.214	0.279	0.068
-69.451	298.562	0.240	0.433
-68.436	-0.298	-0.309	0.216
-67.422	471.513	-0.155	0.342
-66.407	179.154	-0.009	0.013
-65.392	-200.000	0.009	0.202
-64.378	800.000	0.022	-0.063
-63.363	236.155	0.068	0.110
-62.349	800.000	0.074	0.225
-61.334	-24.741	-1.004	-0.586
-60.319	79.484	0.400	0.421
-59.305	800.000	-0.286	-1.150
-58.290	174.432	0.700	0.993
-57.276	301.363	0.771	1.396
-56.261	-200.000	111.901	616.137
-55.246	503.712	1530.288	3471.932
-54.232	174.719	2706.585	3840.858
-53.217	108.128	2168.225	2535.448
-52.203	39.497	1608.227	1413.206
-51.188	31.205	1351.066	1136.940
-50.173	28.140	1312.087	1085.938
-49.159	53.105	1369.423	1285.568
-48.144	52.744	1383.805	1296.828
-47.130	31.268	1337.885	1126.049
-46.115	27.826	1320.660	1090.981
-45.100	27.658	1315.314	1085.522
-44.086	27.595	1313.022	1083.214
-43.071	27.416	1310.900	1080.357
-42.057	27.437	1308.619	1078.557
-41.042	27.585	1306.663	1077.778
-40.027	27.634	1305.450	1077.024
-39.013	27.599	1303.509	1075.173
-37.998	27.667	1301.008	1073.469
-36.984	27.676	1299.676	1072.382
-35.969	27.855	1297.927	1071.945
-34.954	27.710	1296.197	1069.626
-33.940	27.736	1294.770	1068.559
-32.925	27.759	1293.325	1067.456
-31.911	27.896	1291.412	1066.638
-30.896	27.851	1290.597	1065.659
-29.881	27.699	1289.562	1063.876
-28.867	27.724	1287.978	1062.669
-27.852	27.844	1286.654	1062.233
-26.838	27.856	1284.881	1060.797
-25.823	27.859	1284.253	1060.255
-24.809	27.794	1282.900	1058.717
-23.794	27.816	1281.449	1057.606
-22.779	27.787	1280.031	1056.229
-21.765	27.806	1278.369	1054.922
-20.750	27.752	1277.567	1053.911
-19.736	27.688	1276.123	1052.305
-18.721	27.740	1275.024	1051.656
-17.706	27.566	1274.040	1049.804
-16.692	27.697	1272.219	1049.016
-15.677	27.639	1271.553	1048.092
-14.663	27.793	1269.995	1047.647
-13.648	27.692	1269.187	1046.359
-12.633	27.731	1268.487	1045.964
-11.619	27.620	1267.976	1044.867
-10.604	27.546	1266.901	1043.514
-9.590	27.634	1265.725	1043.008
-8.575	27.568	1264.991	1041.982
-7.560	27.646	1263.508	1041.167
-6.546	27.733	1262.231	1040.571
-5.531	27.684	1261.915	1039.988
-4.517	27.638	1261.172	1039.071
-3.502	27.650	1260.735	1038.742
-2.487	27.691	1259.154	1037.630
-1.473	27.708	1255.163	1034.395
-0.458	26.495	1240.755	1015.679
0.556	25.239	1223.268	979.959
1.571	21.556	1229.602	964.688
2.586	20.603	1243.551	970.233
3.600	19.864	1231.232	956.451
4.615	15.051	1159.516	875.549
5.629	7.885	1086.638	785.204
6.644	4.581	1068.132	755.723
7.659	4.383	1065.821	753.056
8.673	4.033	1064.389	750.283
9.688	4.114	1062.746	749.453
10.702	4.549	1061.439	750.567
11.717	9.342	1067.749	778.199
12.731	17.234	1078.721	824.565
13.746	21.366	1083.870	848.531
14.761	21.875	1084.626	851.515
15.775	21.316	1082.549	847.101
16.790	20.349	1080.487	840.735
17.804	19.726	1078.700	836.257
18.819	19.402	1078.027	834.093
19.834	19.432	1077.529	833.781
20.848	19.259	1076.939	832.411
21.863	19.163	1076.096	831.226
22.877	19.012	1074.990	829.567
23.892	18.865	1074.618	828.501
24.907	18.907	1073.788	827.991
25.921	18.924	1072.679	827.141
26.936	18.930	1071.269	826.011
27.950	19.003	1070.192	825.458
28.965	18.995	1068.974	824.407
29.980	19.241	1067.204	824.146
30.994	19.371	1066.242	823.953
32.009	19.285	1065.623	822.989
33.023	19.218	1064.293	821.569
34.038	19.059	1063.353	820.016
35.053	18.877	1062.615	818.503
36.067	19.043	1061.373	818.268
37.082	19.073	1060.612	817.748
38.096	19.096	1060.506	817.703
39.111	19.147	1059.573	817.154
40.126	19.004	1057.767	815.013
41.140	18.771	1056.138	812.584
42.155	18.552	1055.056	810.644
43.169	18.482	1054.066	809.479
44.184	18.375	1053.575	808.528
45.199	18.499	1052.424	808.154
46.213	18.625	1051.617	808.060
47.228	18.873	1050.746	808.484
48.242	19.111	1049.131	808.286
49.257	18.988	1048.540	807.183
50.271	19.228	1047.666	807.564
51.286	19.104	1046.941	806.356
52.301	19.065	1045.948	805.336
53.315	18.795	1045.089	803.342
54.330	18.763	1043.836	802.154
55.344	18.750	1043.259	801.582
56.359	18.727	1042.257	800.633
57.374	18.644	1041.578	799.654
58.388	18.606	1040.349	798.462
59.403	18.468	1039.900	797.406
60.417	18.491	1038.544	796.402
61.432	18.444	1038.087	795.762
62.447	18.502	1037.095	795.203
63.461	18.263	1036.614	793.653
64.476	18.306	1035.269	792.754
65.490	18.235	1034.648	791.877
66.505	18.394	1033.745	791.854
67.520	18.456	1033.200	791.652
68.534	18.496	1032.354	791.120
69.549	18.365	1031.777	790.000
70.563	18.209	1030.445	788.193
71.578	18.059	1029.685	786.852
72.593	18.014	1029.084	786.117
73.607	18.137	1028.396	786.086
74.622	18.167	1027.437	785.423
75.636	18.322	1026.879	785.637
76.651	18.246	1026.433	784.878
77.666	18.455	1025.786	785.272
78.680	18.275	1025.112	783.859
79.695	18.273	1024.906	783.625
80.709	18.442	1024.546	784.052
81.724	18.441	1023.739	783.362
82.739	18.657	1022.894	783.631
83.753	19.055	1022.045	784.728
84.768	19.390	1021.309	785.618
85.782	19.403	1020.804	785.220
86.797	19.242	1020.329	784.054
87.812	19.075	1018.913	782.138
88.826	19.075	1018.052	781.408
89.841	19.248	1016.868	781.212
90.855	19.185	1016.245	780.378
91.870	19.297	1015.739	780.432
92.884	19.294	1014.288	779.232
93.899	19.295	1013.553	778.606
94.914	19.293	1013.018	778.115
95.928	19.323	1012.014	777.410
96.943	19.177	1010.914	775.839
97.957	19.147	1010.224	775.103
98.972	19.179	1009.200	774.395
99.987	19.212	1008.531	773.961
101.001	19.149	1007.267	772.642
102.016	19.108	1006.692	771.948
103.030	19.218	1006.018	771.854
104.045	19.209	1005.312	771.206
105.060	19.114	1004.138	769.811
106.074	18.805	1002.738	767.287
107.089	18.587	1001.793	765.524
108.103	18.429	1001.156	764.267
109.118	18.317	1000.180	762.955
110.133	18.327	999.139	762.139
111.147	18.364	998.008	761.370
112.162	18.454	997.574	761.371
113.176	18.547	997.102	761.358
114.191	18.644	996.295	761.107
115.206	18.714	995.474	760.721
116.220	18.632	994.603	759.626
117.235	18.537	993.332	758.170
118.249	18.556	992.985	757.919
119.264	18.448	991.931	756.570
120.279	18.428	991.323	755.952
121.293	18.139	990.837	754.239
122.308	18.106	989.622	753.103
123.322	18.287	987.930	752.544
124.337	18.182	987.175	751.444
125.352	17.999	986.660	750.181
126.366	18.191	985.100	749.769
127.381	18.217	984.031	749.003
128.395	18.118	983.465	748.070
129.410	18.200	982.613	747.717
130.424	18.463	981.803	748.180
131.439	18.566	981.127	748.049
132.454	18.627	980.114	747.476
133.468	18.572	979.731	746.880
134.483	18.550	978.881	746.070
135.497	18.610	978.141	745.702
136.512	18.675	976.748	744.858
137.527	18.785	975.789	744.537
138.541	18.736	975.123	743.747
139.556	18.758	974.930	743.632
140.570	18.876	974.218	743.534
141.585	19.039	973.765	743.826
142.600	19.112	972.874	743.392
143.614	19.145	972.139	742.910
144.629	19.260	971.498	742.851
145.643	19.167	970.397	741.540
146.658	18.966	969.273	739.752
147.673	18.891	968.166	738.520
148.687	18.721	967.413	737.150
149.702	18.749	965.946	736.088
150.716	18.767	965.251	735.569
151.731	18.685	964.563	734.632
152.746	18.703	964.147	734.327
153.760	18.897	963.403	734.524
154.775	18.981	962.795	734.353
155.789	18.965	962.397	733.913
156.804	19.019	961.520	733.411
157.819	18.981	961.085	732.851
158.833	19.115	960.290	732.752
159.848	19.391	959.383	733.169
160.862	19.162	958.310	731.312
161.877	18.961	956.660	729.135
162.892	18.706	955.764	727.308
163.906	18.581	955.043	726.166
164.921	18.590	954.158	725.465
165.935	18.695	953.254	725.161
166.950	18.927	952.308	725.353
167.964	18.923	951.557	724.701
168.979	18.739	950.376	722.964
169.994	18.694	949.834	722.297
171.008	18.730	949.414	722.064
172.023	19.093	948.806	723.065
173.037	19.218	948.229	723.084
174.052	18.897	947.312	720.976
175.067	18.727	946.304	719.434
176.081	18.581	945.859	718.420
177.096	18.671	945.282	718.293
178.110	18.713	944.709	717.970
179.125	18.794	943.806	717.558
180.140	18.847	943.678	717.620
181.154	19.056	943.513	718.303
182.169	18.950	943.310	717.642
183.183	19.242	941.681	717.556
184.198	19.145	941.855	717.221
185.213	19.364	940.570	717.090
186.227	19.392	939.944	716.666
187.242	19.337	939.783	716.252
188.256	19.516	939.001	716.335
189.271	19.349	938.234	714.992
190.286	19.172	936.995	713.255
191.300	18.536	936.355	710.069
192.315	18.527	935.300	709.171
193.329	18.541	935.037	708.966
194.344	18.859	934.153	709.544
195.359	18.859	933.690	709.132
196.373	19.053	933.594	709.798
197.388	19.269	932.943	710.128
198.402	19.568	932.341	710.838
199.417	19.545	932.223	710.593
200.432	19.743	931.537	710.819
201.446	19.757	931.365	710.683
202.461	19.750	931.109	710.398
203.475	19.626	930.003	708.981
204.490	19.551	928.630	707.566
205.504	19.287	927.937	705.890
206.519	19.277	927.366	705.353
207.534	19.241	926.568	704.536
208.548	19.365	925.832	704.423
209.563	19.389	925.128	703.924
210.577	19.267	924.782	703.099
211.592	19.521	924.131	703.578
212.607	19.798	923.064	703.830
213.621	19.528	922.587	702.306
214.636	19.595	921.639	701.795
215.650	19.575	921.636	701.648
216.665	19.667	921.104	701.554
217.680	19.811	920.094	701.310
218.694	19.761	919.530	700.615
219.709	19.720	918.535	699.626
220.723	19.647	918.270	699.068
221.738	19.718	917.321	698.570
222.753	19.733	916.978	698.308
223.767	19.780	916.329	697.944
224.782	19.932	916.069	698.294
225.796	19.890	915.460	697.600
226.811	19.789	914.828	696.652
227.826	19.534	913.807	694.784
228.840	19.627	913.010	694.492
229.855	19.531	912.287	693.496
230.869	19.474	911.387	692.519
231.884	19.462	910.989	692.108
232.899	19.362	910.253	691.085
233.913	19.343	909.022	690.015
234.928	19.298	908.343	689.260
235.942	19.069	908.071	688.078
236.957	19.269	907.454	688.348
237.972	19.251	907.034	687.894
238.986	19.170	906.628	687.203
240.001	19.302	905.932	687.141
241.015	19.589	905.104	687.596
242.030	19.558	904.731	687.127
243.045	19.568	904.174	686.684
244.059	19.587	903.565	686.236
245.074	19.756	902.643	686.147
246.088	19.864	902.447	686.364
247.103	19.941	901.502	685.890
248.117	20.153	901.488	686.657
249.132	20.375	901.298	687.330
250.147	20.558	900.768	687.590
251.161	20.517	900.233	686.961
252.176	20.639	899.279	686.653
253.190	20.712	898.384	686.198
254.205	20.707	898.254	686.016
255.220	20.727	897.163	685.200
256.234	20.458	896.960	683.928
257.249	20.599	895.829	683.558
258.263	20.507	895.080	682.564
259.278	20.524	894.662	682.253
260.293	20.539	894.132	681.847
261.307	20.705	893.571	682.008
262.322	20.628	893.457	681.560
263.336	20.724	892.459	681.114
264.351	20.747	891.645	680.522
265.366	20.822	890.587	679.949
266.380	20.711	890.263	679.206
267.395	20.556	889.767	678.164
268.409	20.437	888.884	676.966
269.424	20.546	888.021	676.674
270.439	20.394	887.414	675.560
271.453	20.409	886.368	674.761
272.468	20.423	885.891	674.393
273.482	20.339	885.800	673.940
274.497	20.378	884.874	673.328
275.512	20.372	884.290	672.798
276.526	20.595	883.663	673.125
277.541	20.473	883.582	672.534
278.555	20.663	883.231	672.940
279.570	20.791	882.527	672.841
280.585	20.791	881.452	671.960
281.599	20.678	880.309	670.595
282.614	20.421	880.034	669.335
283.628	20.453	879.459	668.960
284.643	20.476	878.967	668.618
285.657	20.589	877.848	668.141
286.672	20.600	877.382	667.768
287.687	20.602	876.668	667.173
288.701	20.629	876.109	666.794
289.716	20.641	875.834	666.572
290.730	20.715	875.075	666.218
291.745	20.645	874.625	665.550
292.760	20.829	874.048	665.753
293.774	21.038	873.502	666.077
294.789	20.941	872.599	664.959
295.803	20.713	871.772	663.401
296.818	20.554	871.286	662.368
297.833	20.636	870.496	662.020
298.847	20.683	870.096	661.836
299.862	20.728	869.467	661.471
300.876	20.904	868.931	661.674
301.891	20.996	868.616	661.724
302.906	21.066	868.131	661.560
303.920	21.344	867.799	662.304
304.935	21.394	867.221	661.993
305.949	21.079	866.248	659.998
306.964	20.957	865.606	658.990
307.979	21.005	865.145	658.764
308.993	21.231	864.471	659.046
310.008	21.105	864.413	658.467
311.022	20.975	863.739	657.406
312.037	20.801	863.072	656.182
313.052	20.639	862.325	654.948
314.066	20.461	861.924	653.913
315.081	20.566	860.883	653.461
316.095	20.678	860.269	653.359
317.110	20.682	859.403	652.658
318.125	20.696	859.056	652.390
319.139	20.640	858.947	652.040
320.154	20.646	858.444	651.621
321.168	20.708	858.021	651.476
322.183	20.743	857.236	650.952
323.197	20.806	856.979	650.935
324.212	20.811	855.932	650.102
325.227	20.862	855.380	649.813
326.241	20.781	854.581	648.850
327.256	20.812	854.133	648.567
328.270	20.781	853.848	648.176
329.285	20.751	852.923	647.304
330.300	20.784	852.422	646.991
331.314	20.729	852.369	646.689
332.329	20.971	852.018	647.263
333.343	21.295	851.249	647.824
334.358	21.073	851.282	646.970
335.373	21.054	850.853	646.515
336.387	21.193	850.330	646.575
337.402	21.235	850.438	646.754
338.416	21.444	850.004	647.142
339.431	21.598	849.525	647.290
340.446	21.652	849.081	647.094
341.460	21.635	848.623	646.626
342.475	21.667	848.382	646.501
343.489	21.777	847.886	646.470
344.504	21.920	847.467	646.621
345.519	21.890	846.779	645.928
346.533	21.873	846.136	645.320
347.548	21.484	845.249	643.156
348.562	21.365	844.520	642.108
349.577	21.195	844.144	641.141
350.592	21.061	843.491	640.095
351.606	21.022	842.479	639.130
352.621	21.227	841.728	639.252
353.635	21.295	841.375	639.177
354.650	21.234	841.054	638.654
355.665	21.353	840.392	638.529
356.679	21.448	839.900	638.444
357.694	21.642	838.823	638.275
358.708	21.378	838.717	637.178
359.723	21.377	838.058	636.617
360.738	21.551	837.388	636.684
361.752	21.370	836.995	635.673
362.767	21.663	836.577	636.364
363.781	21.776	836.185	636.418
364.796	21.963	835.852	636.788
365.810	21.999	835.547	636.628
366.825	22.061	835.432	636.708
367.840	21.948	834.561	635.582
368.854	21.992	833.060	634.540
369.869	21.859	833.248	634.146
370.883	21.796	832.704	633.450
371.898	21.924	832.820	633.945
372.913	22.016	832.329	633.845
373.927	21.836	831.679	632.646
374.942	21.968	830.907	632.479
375.956	22.180	830.482	632.860
376.971	22.302	830.104	632.959
377.986	22.286	830.133	632.866
379.000	22.184	829.532	631.984
380.015	22.206	828.820	631.466
381.029	22.254	827.888	630.871
382.044	22.296	827.716	630.836
383.059	22.437	826.968	630.713
384.073	22.084	826.561	629.084
385.088	21.776	825.841	627.378
386.102	21.919	824.949	627.155
387.117	22.001	824.003	626.676
388.132	21.822	823.908	625.907
389.146	22.013	823.251	626.032
390.161	22.170	823.271	626.555
391.175	22.209	822.494	626.044
392.190	22.042	821.922	624.960
393.205	21.953	821.428	624.213
394.219	21.928	821.080	623.806
395.234	21.945	820.371	623.273
396.248	21.789	819.934	622.330
397.263	21.704	819.159	621.385
398.278	21.658	819.170	621.176
399.292	21.725	818.866	621.128
400.307	21.633	818.333	620.343
401.321	21.680	817.642	619.930
402.336	21.826	817.181	620.042
403.350	21.889	816.892	619.992
404.365	22.120	816.671	620.583
405.380	22.250	816.317	620.718
406.394	22.415	815.399	620.548
407.409	22.458	815.344	620.603
408.423	22.551	814.918	620.553
409.438	22.589	814.660	620.433
410.453	22.520	814.491	620.009
411.467	22.659	813.595	619.758
412.482	22.863	813.273	620.174
413.496	22.881	813.023	619.992
414.511	22.787	813.108	619.674
415.526	22.709	812.367	618.779
416.540	22.455	811.939	617.508
417.555	22.594	811.155	617.343
418.569	22.720	810.809	617.468
419.584	22.562	810.472	616.604
420.599	22.611	809.900	616.286
421.613	163.857	1371.685	1795.037
422.628	142.678	1453.531	1795.101
