DTS Sentinel unit serial number:	SN413079Multiplexer serial number:	ORYXHardware model number:	OX4-SRSoftware version number:	ORYX F/W v4.00 Oryx Data Collector v3.7.2.0data status	okinstallation	princeton_trtdifferential loss correction	single-endedforward channel	channel 1reverse channel	N/Adate	2019/09/13time	12:02:35forward acquisition time	60.00reverse acquisition time	0.00gamma	496.2192k internal	0.2311k external	0.2311temperature offset calibration	1.0168default loss term (dB/km)	0.3790temperature slope calibration	1.0000multiplexer offset coefficient	1.0000multiplexer slope coefficient	1.0000fibre end	0.00T internal ref (°C)	33.62T ext. ref 1 (°C)	4.60T ext. ref 2 (°C)	31.17length (m)	temperature (°C)	Stokes	anti-Stokes-747.200	-200.000	0.008	-0.273
-746.185	800.000	-0.034	-0.098
-745.171	800.000	-0.015	-0.043
-744.156	800.000	-0.051	0.215
-743.142	-200.000	-0.019	-0.263
-742.127	107.657	-0.269	0.325
-741.112	-77.841	0.092	0.032
-740.098	-53.209	-0.240	-0.112
-739.083	735.315	0.042	0.113
-738.069	-200.000	-0.087	0.456
-737.054	-24.084	-0.263	-0.160
-736.039	715.211	0.125	0.338
-735.025	490.420	-0.104	0.241
-734.010	226.307	-0.200	-0.329
-732.996	84.689	0.258	-0.287
-731.981	-39.449	0.083	0.044
-730.966	-200.000	-0.318	0.001
-729.952	-83.017	0.315	-0.103
-728.937	13.634	0.120	-0.094
-727.923	-178.474	-0.116	0.003
-726.908	317.710	-0.170	-0.326
-725.894	75.724	0.151	-0.162
-724.879	63.638	-0.148	0.150
-723.864	800.000	0.129	0.395
-722.850	1.073	0.184	-0.134
-721.835	-65.521	-0.229	-0.093
-720.821	33.050	0.119	0.105
-719.806	-200.000	-0.035	-0.196
-718.791	-200.000	-0.050	-0.327
-717.777	-128.418	-0.073	-0.010
-716.762	-200.000	-0.047	0.418
-715.748	100.652	-0.285	-0.335
-714.733	-56.406	0.225	0.101
-713.718	22.960	0.042	0.035
-712.704	-200.000	0.016	-0.350
-711.689	-101.304	-0.263	0.065
-710.675	-49.950	0.265	0.128
-709.660	-75.407	-0.112	-0.040
-708.645	-14.936	0.043	-0.028
-707.631	30.911	-0.154	-0.134
-706.616	317.764	0.091	-0.175
-705.602	-200.000	0.005	-0.130
-704.587	-4.340	-0.289	-0.202
-703.572	143.437	-0.022	-0.030
-702.558	-37.756	-0.144	0.078
-701.543	789.316	-0.100	0.278
-700.529	573.948	0.040	0.100
-699.514	800.000	-0.058	-0.175
-698.499	108.258	0.171	-0.206
-697.485	-200.000	-0.003	0.095
-696.470	-200.000	-0.010	0.296
-695.456	157.083	0.236	-0.331
-694.441	441.579	-0.030	-0.066
-693.426	36.818	0.172	0.154
-692.412	-96.535	0.205	0.055
-691.397	-102.632	-0.094	0.023
-690.383	-104.384	-0.035	-0.008
-689.368	165.623	-0.104	-0.149
-688.354	-199.061	-0.108	-0.001
-687.339	-1.243	-0.333	0.238
-686.324	-95.830	0.197	0.053
-685.310	313.121	0.065	0.124
-684.295	-200.000	-0.055	0.291
-683.281	-195.282	0.362	0.003
-682.266	537.003	0.065	-0.157
-681.251	-198.333	-0.443	0.003
-680.237	-62.558	-0.089	-0.038
-679.222	21.617	-0.159	-0.131
-678.208	-200.000	-0.041	-0.250
-677.193	-23.829	-0.188	0.114
-676.178	-153.156	-0.038	0.003
-675.164	355.589	-0.123	0.248
-674.149	-84.375	-0.175	0.056
-673.135	-134.489	-0.173	-0.021
-672.120	-105.380	0.131	0.030
-671.105	6.400	0.164	-0.123
-670.091	210.105	0.044	0.070
-669.076	-45.700	-0.077	-0.039
-668.062	42.589	0.204	0.188
-667.047	-200.000	0.018	0.149
-666.032	18.162	-0.131	0.106
-665.018	-19.123	-0.309	-0.194
-664.003	-200.000	-0.012	0.178
-662.989	467.874	0.100	0.226
-661.974	-59.681	0.054	-0.023
-660.959	-160.981	-0.376	0.020
-659.945	-90.555	0.204	0.060
-658.930	-115.708	-0.228	0.043
-657.916	-68.698	0.171	-0.067
-656.901	800.000	0.022	-0.096
-655.886	-21.449	0.123	0.076
-654.872	-198.328	-0.164	0.001
-653.857	740.569	0.043	0.118
-652.843	177.739	-0.169	0.249
-651.828	-169.201	0.187	0.007
-650.814	-112.922	-0.311	0.062
-649.799	-200.000	-0.040	-0.394
-648.784	800.000	-0.070	0.258
-647.770	-1.860	0.293	0.208
-646.755	-24.634	-0.153	0.092
-645.741	-174.235	-0.223	0.007
-644.726	-200.000	0.085	0.453
-643.711	-115.864	-0.214	-0.040
-642.697	71.836	-0.179	-0.188
-641.682	4.857	0.146	-0.108
-640.668	-132.712	-0.182	0.024
-639.653	-200.000	0.008	0.087
-638.638	-200.000	-0.041	-0.374
-637.624	-167.881	-0.236	0.009
-636.609	179.476	-0.179	-0.265
-635.595	-23.907	-0.091	0.055
-634.580	-118.767	0.153	-0.027
-633.565	24.319	0.034	-0.028
-632.551	313.956	0.068	-0.130
-631.536	43.821	0.056	-0.052
-630.522	-73.397	0.090	0.033
-629.507	-200.000	0.036	0.330
-628.492	74.519	0.096	-0.102
-627.478	8.957	-0.172	0.131
-626.463	800.000	-0.053	-0.221
-625.449	163.035	0.015	0.022
-624.434	-200.000	-0.017	0.347
-623.419	120.301	-0.066	0.083
-622.405	-130.538	-0.307	-0.042
-621.390	170.645	0.152	-0.221
-620.376	-200.000	0.017	-0.107
-619.361	-31.987	0.157	-0.089
-618.346	199.579	0.211	0.327
-617.332	-134.352	-0.157	0.019
-616.317	133.384	-0.174	-0.227
-615.303	800.000	-0.041	-0.125
-614.288	-20.235	0.072	-0.045
-613.273	144.968	-0.098	0.133
-612.259	800.000	0.177	-0.535
-611.244	-0.354	0.163	-0.117
-610.230	272.533	-0.049	0.087
-609.215	32.850	0.065	-0.057
-608.201	332.423	-0.106	0.206
-607.186	-126.261	0.216	-0.033
-606.171	-154.308	-0.314	-0.021
-605.157	52.097	0.032	-0.031
-604.142	81.954	0.151	-0.165
-603.128	-58.071	0.228	0.100
-602.113	-113.714	-0.163	0.032
-601.098	-147.744	-0.102	-0.009
-600.084	-62.286	-0.255	0.107
-599.069	-106.695	-0.050	0.011
-598.055	15.368	-0.106	-0.084
-597.040	800.000	0.161	-0.463
-596.025	560.241	-0.082	-0.199
-595.011	-80.168	0.317	-0.107
-593.996	-153.897	-0.104	0.007
-592.982	-186.530	-0.165	-0.002
-591.967	-107.939	0.246	0.054
-590.952	288.505	0.126	0.231
-589.938	-122.078	0.245	0.041
-588.923	-63.828	-0.168	-0.069
-587.909	-200.000	-0.005	-0.343
-586.894	-16.876	-0.033	0.021
-585.879	-121.136	-0.054	0.009
-584.865	-200.000	0.022	-0.335
-583.850	27.699	-0.133	-0.113
-582.836	48.052	0.159	-0.150
-581.821	-200.000	-0.005	-0.167
-580.806	800.000	-0.055	0.174
-579.792	92.392	-0.202	0.230
-578.777	-95.305	-0.320	0.087
-577.763	800.000	0.041	-0.121
-576.748	-99.695	-0.030	0.008
-575.733	-21.178	-0.402	0.248
-574.719	625.578	-0.070	0.179
-573.704	-73.346	0.140	0.052
-572.690	661.113	0.044	0.114
-571.675	133.070	-0.113	0.148
-570.661	172.397	0.210	0.304
-569.646	-200.000	0.024	-0.420
-568.631	112.671	-0.188	0.230
-567.617	-152.243	-0.119	0.009
-566.602	-83.194	-0.298	-0.096
-565.588	26.280	-0.263	0.221
-564.573	-29.672	0.148	-0.085
-563.558	-163.295	-0.399	0.019
-562.544	244.202	0.271	0.458
-561.529	39.076	-0.175	-0.157
-560.515	-93.820	-0.149	-0.041
-559.500	72.467	-0.263	0.277
-558.485	-152.428	-0.088	-0.006
-557.471	137.824	-0.139	0.183
-556.456	-200.000	0.027	-0.213
-555.442	-29.781	-0.173	-0.099
-554.427	699.552	0.063	0.167
-553.412	-142.719	-0.283	-0.028
-552.398	565.229	0.011	-0.027
-551.383	-127.481	-0.172	0.025
-550.369	797.385	0.100	0.277
-549.354	317.353	0.152	0.290
-548.339	-60.777	-0.233	-0.099
-547.325	-200.000	-0.022	0.190
-546.310	-63.313	-0.138	-0.057
-545.296	800.000	-0.037	0.115
-544.281	-18.430	0.117	-0.073
-543.266	393.383	-0.044	-0.092
-542.252	217.879	0.060	0.097
-541.237	-20.806	-0.106	-0.066
-540.223	-200.000	-0.044	0.336
-539.208	85.382	0.186	-0.206
-538.193	800.000	-0.108	-0.399
-537.179	-165.028	-0.406	-0.018
-536.164	273.189	-0.140	-0.249
-535.150	-200.000	-0.018	-0.236
-534.135	-175.663	-0.093	-0.003
-533.121	288.661	-0.081	0.147
-532.106	-7.250	-0.178	-0.121
-531.091	171.327	0.111	-0.160
-530.077	-82.528	-0.232	-0.076
-529.062	263.885	-0.136	0.239
-528.048	602.556	0.076	-0.191
-527.033	155.159	0.040	-0.055
-526.018	-18.033	0.106	0.067
-525.004	12.771	0.206	0.160
-523.989	-200.000	-0.033	-0.272
-522.975	121.067	0.319	0.400
-521.960	800.000	-0.049	-0.146
-520.945	-120.092	-0.288	-0.050
-519.931	800.000	0.084	0.304
-518.916	-101.032	0.155	0.038
-517.902	800.000	0.082	-0.336
-516.887	97.827	0.130	-0.150
-515.872	297.327	-0.115	-0.213
-514.858	-200.000	0.001	-0.101
-513.843	57.450	0.096	0.095
-512.829	800.000	0.086	-0.260
-511.814	800.000	0.041	0.166
-510.799	800.000	-0.064	0.252
-509.785	-124.300	-0.247	0.039
-508.770	-9.682	-0.227	0.152
-507.756	-4.826	-0.070	-0.048
-506.741	-80.923	0.479	0.160
-505.726	47.027	-0.271	0.253
-504.712	-200.000	0.020	0.097
-503.697	88.646	-0.158	-0.177
-502.683	-26.715	0.135	-0.079
-501.668	-45.377	0.136	-0.068
-500.653	357.267	-0.091	0.183
-499.639	-146.382	-0.592	-0.052
-498.624	-73.926	-0.252	-0.092
-497.610	91.693	-0.235	-0.266
-496.595	93.490	0.157	0.179
-495.581	-140.734	0.092	0.010
-494.566	-200.000	-0.050	0.313
-493.551	4.136	0.101	-0.074
-492.537	-200.000	-0.049	0.330
-491.522	-15.723	-0.058	-0.037
-490.508	-68.112	-0.195	-0.076
-489.493	-200.000	-0.035	-0.279
-488.478	-174.032	0.158	0.005
-487.464	-75.831	0.277	-0.099
-486.449	87.238	0.109	-0.121
-485.435	-153.196	-0.201	0.014
-484.420	-200.000	0.026	-0.159
-483.405	800.000	0.039	-0.109
-482.391	10.662	-0.274	0.210
-481.376	-123.865	-0.224	0.036
-480.362	-87.077	0.198	-0.060
-479.347	-200.000	-0.007	-0.239
-478.332	-123.070	0.246	-0.040
-477.318	-72.943	0.152	-0.056
-476.303	800.000	-0.067	0.206
-475.289	20.045	-0.215	0.174
-474.274	-155.777	-0.128	0.008
-473.259	229.955	0.159	0.261
-472.245	51.804	0.107	-0.102
-471.230	-200.000	-0.004	0.062
-470.216	-200.000	0.011	0.224
-469.201	120.468	0.047	0.058
-468.186	127.196	0.111	-0.141
-467.172	-200.000	-0.009	-0.161
-466.157	-21.764	-0.269	-0.164
-465.143	130.630	0.154	0.198
-464.128	-121.575	-0.072	-0.012
-463.113	-95.779	-0.216	-0.058
-462.099	6.642	0.059	0.044
-461.084	-200.000	0.018	0.116
-460.070	-170.689	0.036	0.001
-459.055	-200.000	-0.017	0.112
-458.040	800.000	0.097	-0.299
-457.026	-171.240	0.088	0.003
-456.011	-78.490	0.210	0.072
-454.997	57.984	-0.195	0.192
-453.982	-58.830	0.072	0.031
-452.968	5.806	0.073	-0.054
-451.953	-109.687	-0.472	0.100
-450.938	-200.000	-0.002	-0.190
-449.924	-200.000	0.043	-0.255
-448.909	-116.010	0.162	0.030
-447.895	-136.504	-0.175	0.020
-446.880	250.851	0.139	0.237
-445.865	310.084	-0.137	0.257
-444.851	49.296	-0.188	-0.178
-443.836	-122.654	0.144	0.023
-442.822	19.631	0.286	-0.231
-441.807	-200.000	-0.066	0.318
-440.792	-48.097	-0.047	0.023
-439.778	219.000	-0.077	0.123
-438.763	-200.000	-0.025	-0.223
-437.749	-93.567	0.178	0.049
-436.734	800.000	0.027	0.091
-435.719	-60.230	0.103	0.044
-434.705	-82.540	-0.355	0.116
-433.690	763.415	0.065	0.177
-432.676	86.469	-0.176	-0.195
-431.661	110.424	0.178	0.214
-430.646	-88.456	-0.230	0.069
-429.632	110.063	0.103	0.124
-428.617	185.813	0.135	0.200
-427.603	61.379	-0.048	-0.048
-426.588	-200.000	-0.063	0.448
-425.573	-183.859	-0.284	0.005
-424.559	188.126	0.032	-0.048
-423.544	609.267	0.177	-0.444
-422.530	221.340	0.161	0.259
-421.515	4.995	0.373	-0.275
-420.500	706.780	-0.101	0.268
-419.486	-200.000	0.017	0.213
-418.471	-149.984	0.241	0.019
-417.457	115.326	0.016	0.020
-416.442	295.976	0.227	0.417
-415.428	-143.688	-0.054	-0.005
-414.413	-102.878	-0.150	0.036
-413.398	-53.808	0.148	0.068
-412.384	270.035	-0.142	0.250
-411.369	-200.000	-0.004	-0.092
-410.355	71.445	-0.027	0.028
-409.340	800.000	-0.024	-0.080
-408.325	800.000	-0.128	0.365
-407.311	1.972	-0.088	0.064
-406.296	-14.899	-0.087	0.056
-405.282	4.854	0.122	0.090
-404.267	800.000	0.080	0.265
-403.252	160.821	0.109	0.152
-402.238	-200.000	0.016	-0.486
-401.223	800.000	0.038	0.162
-400.209	38.086	0.163	0.145
-399.194	398.737	-0.062	0.129
-398.179	147.795	0.140	-0.189
-397.165	43.994	0.094	0.086
-396.150	369.136	-0.071	0.144
-395.136	67.301	0.250	0.255
-394.121	146.976	-0.053	0.071
-393.106	-103.244	0.265	0.063
-392.092	610.664	-0.014	-0.035
-391.077	71.125	-0.113	-0.118
-390.063	-186.178	0.092	-0.001
-389.048	197.503	-0.145	-0.221
-388.033	-17.500	0.157	0.099
-387.019	410.783	-0.041	0.088
-386.004	-87.078	0.168	0.051
-384.990	-137.030	0.212	-0.024
-383.975	800.000	-0.014	-0.053
-382.960	800.000	0.034	-0.116
-381.946	-61.661	-0.070	0.029
-380.931	-200.000	0.005	0.102
-379.917	77.681	0.076	-0.081
-378.902	-200.000	-0.035	0.205
-377.888	-80.172	-0.092	0.031
-376.873	-200.000	0.054	0.284
-375.858	-101.855	-0.332	0.080
-374.844	800.000	-0.087	-0.301
-373.829	800.000	-0.115	0.336
-372.815	-56.215	-0.254	0.113
-371.800	-200.000	-0.039	-0.251
-370.785	-163.124	0.239	0.012
-369.771	-60.523	0.176	-0.075
-368.756	-200.000	-0.053	0.286
-367.742	151.903	-0.152	-0.207
-366.727	-162.947	-0.255	0.012
-365.712	-200.000	0.040	-0.177
-364.698	-10.587	0.199	0.132
-363.683	800.000	-0.073	0.279
-362.669	-117.198	0.236	0.043
-361.654	-200.000	-0.030	0.171
-360.639	-139.958	0.336	-0.035
-359.625	259.267	-0.036	0.062
-358.610	132.023	-0.134	0.172
-357.596	-72.083	-0.107	-0.040
-356.581	142.478	-0.101	-0.134
-355.566	-53.953	0.187	0.085
-354.552	357.012	-0.080	-0.159
-353.537	-55.462	0.147	0.066
-352.523	-200.000	-0.038	0.195
-351.508	317.500	0.097	0.184
-350.493	62.140	-0.153	-0.153
-349.479	11.783	-0.142	0.109
-348.464	-95.853	0.244	0.065
-347.450	21.065	0.313	-0.254
-346.435	241.910	0.017	0.028
-345.420	-200.000	-0.003	-0.402
-344.406	57.406	0.030	-0.029
-343.391	-197.230	0.140	-0.001
-342.377	0.375	0.260	-0.185
-341.362	417.155	0.081	-0.172
-340.348	-60.822	-0.136	0.057
-339.333	-200.000	0.030	0.262
-338.318	800.000	-0.034	-0.144
-337.304	90.159	-0.089	-0.100
-336.289	-200.000	-0.007	-0.150
-335.275	162.872	-0.079	-0.111
-334.260	9.214	-0.366	-0.276
-333.245	-31.543	-0.134	0.075
-332.231	32.718	-0.205	-0.177
-331.216	63.242	0.229	0.230
-330.202	-200.000	0.006	-0.097
-329.187	800.000	0.031	0.100
-328.172	-104.939	0.240	0.055
-327.158	281.088	0.164	0.293
-326.143	-200.000	-0.064	0.291
-325.129	35.619	0.226	0.199
-324.114	-191.664	0.201	0.002
-323.099	51.815	-0.190	-0.181
-322.085	-200.000	0.016	0.386
-321.070	800.000	0.065	0.222
-320.056	-120.014	0.313	-0.054
-319.041	-54.752	-0.351	-0.158
-318.026	32.516	-0.344	-0.297
-317.012	-200.000	0.023	-0.128
-315.997	-200.000	-0.001	-0.305
-314.983	271.321	-0.138	-0.242
-313.968	-161.722	-0.083	0.004
-312.953	-200.000	0.021	0.287
-311.939	-150.676	-0.232	-0.018
-310.924	800.000	-0.031	0.090
-309.910	515.313	-0.053	0.123
-308.895	177.846	-0.106	-0.155
-307.880	-37.120	0.182	-0.097
-306.866	-93.570	0.253	0.070
-305.851	-200.000	0.007	-0.065
-304.837	542.798	-0.112	-0.266
-303.822	-4.516	0.304	-0.209
-302.807	-84.096	-0.062	-0.020
-301.793	-200.000	-0.060	-0.287
-300.778	-78.206	-0.079	-0.027
-299.764	557.796	0.117	-0.282
-298.749	-13.138	-0.090	0.058
-297.735	66.966	0.187	-0.190
-296.720	800.000	-0.056	0.158
-295.705	372.611	0.066	-0.133
-294.691	118.790	-0.130	-0.160
-293.676	800.000	0.072	0.294
-292.662	-173.648	0.030	0.001
-291.647	-200.000	-0.011	-0.267
-290.632	-67.421	-0.212	0.083
-289.618	-200.000	-0.009	0.063
-288.603	-78.589	0.334	-0.114
-287.589	32.175	-0.180	-0.154
-286.574	126.432	0.170	0.215
-285.559	-33.078	0.188	-0.104
-284.545	-32.308	0.365	0.203
-283.530	120.586	0.114	-0.141
-282.516	-107.512	0.231	0.050
-281.501	-62.267	0.213	0.088
-280.486	-162.381	-0.165	-0.008
-279.472	337.227	-0.106	-0.205
-278.457	283.815	0.180	-0.323
-277.443	14.525	-0.228	0.177
-276.428	-8.845	-0.161	-0.107
-275.413	346.913	0.152	0.299
-274.399	-170.777	-0.117	0.004
-273.384	-34.095	0.248	0.136
-272.370	341.004	0.121	-0.235
-271.355	77.098	0.033	-0.035
-270.340	134.011	-0.232	-0.299
-269.326	-178.138	-0.294	-0.007
-268.311	-56.446	0.074	-0.033
-267.297	728.355	-0.046	-0.122
-266.282	121.421	-0.277	-0.344
-265.267	-200.000	-0.051	-0.309
-264.253	800.000	-0.027	0.111
-263.238	-94.198	0.257	0.070
-262.224	-54.417	-0.282	0.127
-261.209	800.000	0.092	-0.306
-260.195	-107.220	0.245	-0.054
-259.180	800.000	-0.053	-0.190
-258.165	-174.686	0.116	-0.003
-257.151	-114.797	0.283	-0.054
-256.136	-200.000	0.058	0.333
-255.122	50.159	0.154	0.145
-254.107	676.095	-0.069	0.178
-253.092	15.932	-0.153	0.120
-252.078	421.393	0.078	-0.167
-251.063	274.574	0.131	-0.231
-250.049	-200.000	0.041	0.220
-249.034	176.271	0.178	0.258
-248.019	-82.837	-0.100	-0.032
-247.005	94.052	-0.181	0.205
-245.990	-106.911	-0.256	-0.056
-244.976	16.677	0.041	-0.032
-243.961	-80.473	-0.026	0.009
-242.946	-109.802	-0.357	-0.075
-241.932	-0.228	0.088	-0.062
-240.917	62.132	0.078	-0.077
-239.903	-48.660	-0.224	0.107
-238.888	-15.040	-0.109	-0.069
-237.873	384.748	0.106	0.218
-236.859	800.000	0.041	-0.152
-235.844	473.275	-0.079	-0.178
-234.830	-55.334	-0.089	-0.040
-233.815	-141.078	-0.159	-0.016
-232.800	-120.857	0.229	-0.038
-231.786	800.000	-0.100	-0.331
-230.771	800.000	0.087	0.256
-229.757	-24.679	0.103	0.061
-228.742	-74.465	-0.398	0.143
-227.727	223.799	-0.017	0.027
-226.713	-39.455	0.085	0.044
-225.698	178.166	0.150	-0.218
-224.684	4.932	-0.082	0.060
-223.669	32.998	0.048	-0.041
-222.655	97.452	-0.073	0.083
-221.640	-200.000	-0.091	-0.500
-220.625	-75.310	0.406	0.144
-219.611	-165.863	0.271	0.012
-218.596	-62.588	0.127	0.052
-217.582	-71.974	0.131	0.049
-216.567	265.664	0.053	0.092
-215.552	36.717	-0.160	-0.140
-214.538	800.000	0.063	0.224
-213.523	83.931	0.233	0.252
-212.509	800.000	0.025	-0.083
-211.494	238.128	-0.105	-0.174
-210.479	-200.000	-0.043	-0.213
-209.465	800.000	0.020	-0.054
-208.450	153.807	0.077	-0.105
-207.436	-13.582	-0.083	0.054
-206.421	553.640	-0.108	0.258
-205.406	55.091	0.185	0.177
-204.392	461.289	0.037	-0.082
-203.377	-147.819	0.254	-0.021
-202.363	800.000	-0.017	-0.074
-201.348	-16.861	0.200	0.126
-200.333	-35.562	0.103	-0.056
-199.319	800.000	0.050	0.147
-198.304	399.118	0.031	-0.064
-197.290	147.741	0.144	-0.193
-196.275	67.509	-0.144	-0.146
-195.260	206.009	-0.098	0.151
-194.246	-79.221	-0.152	-0.051
-193.231	-77.713	0.124	-0.042
-192.217	-109.061	0.246	-0.052
-191.202	205.085	-0.121	0.187
-190.187	-132.829	0.055	-0.007
-189.173	-179.762	-0.083	-0.002
-188.158	-149.533	-0.039	-0.003
-187.144	-200.000	0.002	0.127
-186.129	85.452	0.092	0.100
-185.114	-44.670	0.115	-0.057
-184.100	-21.431	-0.113	-0.069
-183.085	-57.041	-0.174	-0.076
-182.071	18.625	0.189	0.150
-181.056	504.803	0.201	-0.462
-180.042	759.224	0.050	-0.134
-179.027	800.000	-0.046	-0.166
-178.012	102.630	0.149	0.173
-176.998	-200.000	-0.018	-0.181
-175.983	-200.000	0.051	-0.262
-174.969	63.358	-0.289	-0.288
-173.954	249.961	0.069	-0.116
-172.939	-95.641	0.205	-0.055
-171.925	-106.662	0.216	-0.048
-170.910	160.186	0.103	-0.142
-169.896	-200.000	0.038	-0.306
-168.881	46.014	0.232	0.214
-167.866	19.828	0.035	-0.028
-166.852	-136.689	0.084	-0.010
-165.837	-65.360	-0.053	-0.021
-164.823	179.875	0.191	0.277
-163.808	-140.178	-0.305	0.032
-162.793	-163.155	0.093	0.004
-161.779	394.062	0.077	0.160
-160.764	129.724	0.109	0.139
-159.750	-22.103	0.194	-0.117
-158.735	-68.230	0.185	0.071
-157.720	-200.000	0.003	0.055
-156.706	800.000	-0.020	0.072
-155.691	-132.624	-0.183	0.023
-154.677	800.000	0.039	-0.167
-153.662	124.509	-0.181	0.226
-152.647	-39.500	0.184	0.096
-151.633	-97.434	0.204	-0.053
-150.618	-111.100	-0.065	-0.013
-149.604	-90.633	-0.090	0.026
-148.589	-159.893	0.085	-0.005
-147.574	-200.000	0.046	-0.336
-146.560	184.631	0.078	-0.115
-145.545	-13.468	-0.118	0.076
-144.531	82.913	-0.124	-0.134
-143.516	-131.788	-0.099	-0.013
-142.502	37.137	-0.477	-0.419
-141.487	433.403	-0.108	-0.232
-140.472	-17.934	0.077	0.048
-139.458	-26.937	0.375	0.217
-138.443	-40.778	-0.257	0.132
-137.429	326.207	0.128	-0.243
-136.414	-110.401	0.039	0.008
-135.399	778.861	0.043	-0.117
-134.385	21.255	0.131	0.106
-133.370	123.413	0.213	-0.265
-132.356	-65.877	-0.108	-0.043
-131.341	800.000	0.161	-0.476
-130.326	-83.641	0.125	-0.040
-129.312	-95.197	0.281	0.075
-128.297	41.380	-0.121	0.109
-127.283	-200.000	-0.029	-0.136
-126.268	11.161	0.197	-0.149
-125.253	-151.886	-0.306	0.022
-124.239	190.048	-0.220	0.327
-123.224	-149.883	0.066	0.005
-122.210	666.653	0.147	-0.375
-121.195	-188.377	-0.162	-0.002
-120.180	-200.000	-0.036	0.210
-119.166	-152.736	-0.223	-0.016
-118.151	-142.101	-0.100	0.010
-117.137	-149.640	-0.185	0.014
-116.122	-64.041	0.230	0.093
-115.107	-102.166	-0.167	0.040
-114.093	800.000	0.084	-0.275
-113.078	-5.668	-0.145	-0.098
-112.064	-87.949	-0.162	-0.048
-111.049	-174.258	0.236	-0.007
-110.034	-130.739	0.211	0.028
-109.020	176.088	0.184	-0.265
-108.005	578.012	-0.032	-0.077
-106.991	-200.000	-0.043	0.277
-105.976	226.145	-0.038	0.061
-104.962	106.215	0.056	-0.066
-103.947	211.577	-0.047	-0.073
-102.932	-120.337	-0.312	0.053
-101.918	147.216	-0.209	-0.278
-100.903	-200.000	0.029	0.158
-99.889	-84.283	-0.213	0.067
-98.874	-197.528	-0.011	0.000
-97.859	800.000	-0.111	-0.414
-96.845	-59.378	0.245	0.104
-95.830	96.709	0.085	-0.097
-94.816	67.419	-0.190	0.192
-93.801	-200.000	-0.072	-0.330
-92.786	472.911	-0.042	0.093
-91.772	204.294	-0.111	0.170
-90.757	-118.821	-0.138	0.024
-89.743	800.000	-0.075	-0.243
-88.728	800.000	0.076	-0.264
-87.713	162.436	-0.195	0.270
-86.699	-200.000	-0.005	-0.224
-85.684	35.262	0.315	0.273
-84.670	-96.723	-0.149	0.039
-83.655	-200.000	-0.033	-0.151
-82.640	-59.110	-0.118	0.050
-81.626	800.000	0.082	0.238
-80.611	800.000	-0.089	-0.251
-79.597	-34.537	0.189	-0.102
-78.582	800.000	0.195	-0.543
-77.567	17.288	-0.472	0.370
-76.553	-200.000	-0.030	0.422
-75.538	91.492	0.111	0.123
-74.524	-9.054	-0.160	-0.106
-73.509	-113.193	0.301	0.059
-72.494	-38.305	-0.161	0.084
-71.480	102.300	0.074	0.086
-70.465	-50.030	0.259	-0.121
-69.451	800.000	-0.038	-0.131
-68.436	692.064	-0.073	-0.189
-67.422	-46.086	0.099	0.048
-66.407	756.521	0.097	0.260
-65.392	-149.451	-0.269	-0.021
-64.378	-70.900	-0.039	0.014
-63.363	187.580	0.199	-0.294
-62.349	800.000	0.017	0.064
-61.334	-29.358	-1.009	-0.571
-60.319	-142.759	0.672	0.065
-59.305	-200.000	-0.112	-0.632
-58.290	43.181	0.980	0.884
-57.276	800.000	0.460	1.816
-56.261	-200.000	98.098	580.787
-55.246	612.192	1423.545	3518.727
-54.232	181.610	2639.209	3837.051
-53.217	119.841	2197.957	2691.796
-52.203	45.497	1640.153	1496.056
-51.188	36.980	1372.904	1199.811
-50.173	33.833	1329.695	1143.098
-49.159	56.693	1379.604	1326.549
-48.144	59.963	1396.976	1363.181
-47.130	37.493	1350.969	1183.580
-46.115	33.741	1333.279	1145.447
-45.100	33.580	1328.451	1140.280
-44.086	33.540	1325.868	1137.780
-43.071	33.430	1323.796	1135.297
-42.057	33.459	1321.795	1133.713
-41.042	33.420	1319.969	1131.867
-40.027	33.486	1318.686	1131.116
-39.013	33.441	1317.104	1129.447
-37.998	33.649	1314.760	1128.627
-36.984	33.725	1313.107	1127.614
-35.969	33.556	1311.186	1124.917
-34.954	33.753	1309.221	1124.357
-33.940	33.750	1307.860	1123.124
-32.925	33.706	1306.902	1121.997
-31.911	33.707	1305.126	1120.435
-30.896	33.696	1303.724	1119.120
-29.881	33.727	1302.441	1118.155
-28.867	33.780	1300.551	1116.803
-27.852	33.784	1299.398	1115.791
-26.838	33.807	1297.794	1114.505
-25.823	33.608	1297.149	1112.739
-24.809	33.717	1295.179	1111.646
-23.794	33.810	1293.287	1110.518
-22.779	33.722	1292.892	1109.622
-21.765	33.754	1291.091	1108.217
-20.750	33.757	1289.807	1107.092
-19.736	33.614	1289.055	1105.566
-18.721	33.553	1287.992	1104.260
-17.706	33.518	1286.703	1102.902
-16.692	33.605	1284.809	1101.743
-15.677	33.561	1284.133	1100.865
-14.663	33.554	1283.179	1099.961
-13.648	33.509	1282.276	1098.880
-12.633	33.562	1281.253	1098.269
-11.619	33.523	1280.087	1097.003
-10.604	33.569	1279.773	1096.955
-9.590	33.489	1278.377	1095.252
-8.575	33.483	1277.734	1094.624
-7.560	33.511	1276.473	1093.660
-6.546	33.549	1275.972	1093.409
-5.531	33.439	1274.647	1091.593
-4.517	33.517	1273.957	1091.411
-3.502	33.654	1272.213	1090.658
-2.487	33.578	1271.972	1089.971
-1.473	33.616	1268.010	1086.752
-0.458	32.569	1253.473	1068.316
0.556	31.155	1234.882	1028.893
1.571	27.250	1240.049	1011.435
2.586	25.826	1254.803	1015.359
3.600	24.080	1242.326	995.419
4.615	17.911	1168.701	903.793
5.629	9.123	1091.922	800.697
6.644	4.999	1071.442	765.396
7.659	4.661	1068.353	761.469
8.673	4.318	1067.137	758.855
9.688	4.424	1065.499	758.142
10.702	4.993	1064.392	760.061
11.717	10.952	1073.321	795.589
12.731	19.622	1085.024	846.884
13.746	22.632	1087.978	863.889
14.761	22.249	1086.806	861.005
15.775	21.398	1085.224	855.513
16.790	20.302	1083.281	848.550
17.804	19.612	1081.941	844.055
18.819	19.415	1080.767	842.103
19.834	19.245	1080.093	840.672
20.848	19.126	1079.382	839.464
21.863	18.781	1078.772	837.234
22.877	18.698	1077.643	835.881
23.892	18.719	1076.876	835.317
24.907	18.675	1076.203	834.503
25.921	18.779	1074.806	833.852
26.936	18.726	1073.877	832.804
27.950	18.747	1072.352	831.646
28.965	18.823	1071.265	831.096
29.980	19.010	1069.399	830.479
30.994	19.238	1068.668	830.938
32.009	19.144	1067.483	829.489
33.023	19.093	1066.531	828.432
34.038	19.117	1064.867	827.181
35.053	18.894	1064.093	825.438
36.067	18.859	1063.610	824.822
37.082	18.827	1063.198	824.275
38.096	19.106	1062.306	824.848
39.111	19.109	1061.454	824.127
40.126	18.930	1059.763	821.885
41.140	18.540	1058.358	818.862
42.155	18.409	1057.233	817.294
43.169	18.291	1056.379	816.000
44.184	18.400	1055.101	815.459
45.199	18.488	1054.169	815.082
46.213	18.646	1053.286	815.079
47.228	18.723	1053.273	815.365
48.242	18.948	1051.999	815.371
49.257	18.815	1051.135	814.000
50.271	18.806	1050.185	813.152
51.286	18.968	1049.465	813.288
52.301	18.890	1048.286	811.935
53.315	18.724	1047.009	810.088
54.330	18.620	1046.016	808.760
55.344	18.546	1045.326	807.805
56.359	18.646	1044.615	807.653
57.374	18.546	1043.551	806.288
58.388	18.323	1042.484	804.346
59.403	18.305	1041.672	803.564
60.417	18.417	1040.620	803.206
61.432	18.364	1040.058	802.456
62.447	18.191	1039.777	801.357
63.461	18.179	1038.561	800.290
64.476	18.208	1037.513	799.550
65.490	18.220	1037.063	799.188
66.505	18.288	1035.741	798.417
67.520	18.242	1035.250	797.750
68.534	18.337	1034.589	797.612
69.549	18.285	1033.807	796.697
70.563	18.187	1033.031	795.576
71.578	18.030	1032.092	794.050
72.593	17.953	1031.429	793.114
73.607	17.921	1031.027	792.587
74.622	18.097	1030.146	792.654
75.636	18.008	1029.777	791.887
76.651	18.120	1028.839	791.614
77.666	18.173	1028.163	791.268
78.680	18.133	1027.385	790.416
79.695	18.209	1026.826	790.268
80.709	18.268	1026.807	790.454
81.724	18.419	1025.953	790.423
82.739	18.591	1025.127	790.509
83.753	18.803	1024.816	791.178
84.768	19.045	1023.722	791.377
85.782	19.127	1023.389	791.428
86.797	19.077	1022.034	790.078
87.812	18.864	1020.986	788.220
88.826	18.900	1020.350	787.826
89.841	19.094	1019.371	787.888
90.855	19.080	1018.802	787.314
91.870	19.162	1017.686	786.757
92.884	19.128	1017.302	786.234
93.899	19.048	1016.160	784.921
94.914	19.134	1015.070	784.398
95.928	19.132	1014.523	783.900
96.943	18.986	1013.473	782.355
97.957	18.913	1012.397	781.122
98.972	19.016	1011.675	780.965
99.987	19.032	1010.638	780.166
101.001	18.971	1009.673	779.076
102.016	19.071	1008.565	778.603
103.030	19.015	1008.421	778.171
104.045	19.008	1007.746	777.551
105.060	18.948	1006.440	776.201
106.074	18.637	1005.106	773.703
107.089	18.386	1004.196	771.805
108.103	18.299	1003.365	770.705
109.118	18.316	1002.029	769.685
110.133	18.165	1001.261	768.349
111.147	18.120	1000.379	767.404
112.162	18.347	999.651	767.797
113.176	18.583	998.837	768.158
114.191	18.576	998.493	767.795
115.206	18.610	997.804	767.347
116.220	18.493	996.814	766.000
117.235	18.551	995.686	765.323
118.249	18.416	995.190	764.272
119.264	18.361	994.318	763.290
120.279	18.287	993.555	762.306
121.293	18.203	992.508	761.061
122.308	18.090	991.473	759.698
123.322	18.043	990.716	758.840
124.337	18.084	989.285	757.861
125.352	18.206	987.984	757.335
126.366	18.075	987.055	755.977
127.381	18.049	986.280	755.203
128.395	18.291	985.478	755.591
129.410	18.369	984.433	755.068
130.424	18.464	983.900	755.008
131.439	18.466	983.357	754.535
132.454	18.541	982.521	754.156
133.468	18.594	981.791	753.761
134.483	18.620	980.813	753.058
135.497	18.601	980.168	752.414
136.512	18.582	979.281	751.582
137.527	18.632	978.263	750.954
138.541	18.715	977.355	750.555
139.556	18.706	976.846	750.056
140.570	18.761	976.515	749.979
141.585	18.919	975.995	750.199
142.600	19.075	974.687	749.809
143.614	19.011	974.139	749.039
144.629	19.099	973.599	748.942
145.643	19.028	972.771	747.934
146.658	18.933	971.211	746.251
147.673	18.796	970.312	744.903
148.687	18.624	969.541	743.498
149.702	18.515	967.949	741.741
150.716	18.419	967.684	741.058
151.731	18.531	966.930	740.900
152.746	18.621	966.224	740.679
153.760	18.645	965.866	740.445
154.775	18.845	965.244	740.762
155.789	18.788	964.556	739.923
156.804	18.874	963.642	739.530
157.819	18.935	963.114	739.318
158.833	19.270	961.732	739.632
159.848	19.193	961.259	738.874
160.862	18.948	960.564	737.221
161.877	18.709	959.344	735.198
162.892	18.515	958.131	733.375
163.906	18.648	956.711	732.788
164.921	18.501	956.433	731.884
165.935	18.623	955.783	731.843
166.950	18.693	954.868	731.374
167.964	18.760	953.548	730.586
168.979	18.765	952.480	729.724
169.994	18.665	951.821	728.730
171.008	18.615	951.871	728.491
172.023	18.998	950.897	729.304
173.037	19.047	950.235	728.939
174.052	18.938	949.433	727.798
175.067	18.832	947.954	726.153
176.081	18.621	947.570	724.904
177.096	18.670	947.276	724.822
178.110	18.756	946.640	724.635
179.125	18.669	946.115	723.801
180.140	18.733	946.002	723.921
181.154	18.989	945.554	724.593
182.169	19.117	944.936	724.591
183.183	19.232	944.313	724.533
184.198	19.172	943.727	723.767
185.213	19.317	942.293	723.212
186.227	19.103	942.345	722.291
187.242	19.255	941.889	722.517
188.256	19.498	941.001	722.788
189.271	19.370	940.127	721.517
190.286	19.035	939.448	719.532
191.300	18.520	938.299	716.435
192.315	18.595	937.062	715.741
193.329	18.565	936.815	715.362
194.344	18.690	936.437	715.534
195.359	18.799	936.063	715.637
196.373	19.145	934.959	716.169
197.388	19.253	935.189	716.732
198.402	19.308	934.549	716.408
199.417	19.469	934.120	716.682
200.432	19.513	934.073	716.766
201.446	19.674	933.190	716.693
202.461	19.731	932.709	716.497
203.475	19.677	932.185	715.807
204.490	19.465	930.909	713.888
205.504	19.206	930.129	712.157
206.519	19.199	929.456	711.546
207.534	19.200	928.663	710.883
208.548	19.385	927.555	710.735
209.563	19.137	927.916	709.923
210.577	19.404	926.832	710.133
211.592	19.523	926.260	710.123
212.607	19.630	925.468	709.892
213.621	19.542	925.065	709.158
214.636	19.488	924.161	708.179
215.650	19.511	923.281	707.539
216.665	19.647	922.705	707.589
217.680	19.783	921.899	707.466
218.694	19.751	921.331	706.837
219.709	19.707	920.413	705.891
220.723	19.482	920.702	705.130
221.738	19.618	919.524	704.722
222.753	19.605	919.241	704.387
223.767	19.616	918.735	703.983
224.782	19.723	918.460	704.146
225.796	19.793	917.302	703.480
226.811	19.791	916.632	702.896
227.826	19.730	915.661	701.841
228.840	19.428	915.042	700.079
229.855	19.530	914.280	699.849
230.869	19.451	913.094	698.559
231.884	19.556	912.714	698.631
232.899	19.568	911.638	697.795
233.913	19.385	911.202	696.658
234.928	19.297	909.864	695.218
235.942	19.198	909.828	694.733
236.957	19.328	909.281	694.776
237.972	19.326	908.585	694.175
238.986	19.321	908.383	693.940
240.001	19.349	907.352	693.204
241.015	19.504	906.699	693.267
242.030	19.571	906.479	693.303
243.045	19.457	905.965	692.393
244.059	19.628	905.237	692.459
245.074	19.650	904.683	692.063
246.088	19.719	903.961	691.728
247.103	19.770	903.862	691.795
248.117	20.070	903.525	692.673
249.132	20.230	903.286	693.066
250.147	20.556	902.342	693.585
251.161	20.441	902.150	692.916
252.176	20.394	901.427	692.112
253.190	20.452	900.914	691.886
254.205	20.550	899.948	691.476
255.220	20.391	899.354	690.327
256.234	20.463	898.490	689.888
257.249	20.380	898.105	689.200
258.263	20.481	896.836	688.568
259.278	20.429	896.433	687.989
260.293	20.585	895.677	687.968
261.307	20.681	895.210	687.924
262.322	20.667	894.471	687.243
263.336	20.752	893.758	686.968
264.351	20.636	893.235	686.049
265.366	20.518	892.938	685.296
266.380	20.593	892.277	685.021
267.395	20.574	891.309	684.142
268.409	20.401	890.601	682.861
269.424	20.469	889.774	682.430
270.439	20.387	889.163	681.580
271.453	20.427	888.164	680.910
272.468	20.326	887.737	680.129
273.482	20.381	887.305	679.952
274.497	20.382	886.731	679.458
275.512	20.324	886.302	678.840
276.526	20.447	885.564	678.698
277.541	20.477	885.077	678.382
278.555	20.627	884.729	678.637
279.570	20.785	884.395	678.940
280.585	20.722	883.152	677.679
281.599	20.557	882.512	676.486
282.614	20.443	881.519	675.221
283.628	20.466	881.232	675.033
284.643	20.462	880.360	674.288
285.657	20.435	880.009	673.856
286.672	20.555	879.095	673.561
287.687	20.566	878.331	672.957
288.701	20.450	878.131	672.297
289.716	20.537	877.668	672.217
290.730	20.542	876.998	671.666
291.745	20.644	876.419	671.556
292.760	20.827	876.010	671.889
293.774	20.855	875.316	671.405
294.789	20.689	874.536	670.111
295.803	20.599	873.718	669.077
296.818	20.475	873.120	668.082
297.833	20.556	872.413	667.792
298.847	20.600	872.116	667.676
299.862	20.729	871.474	667.620
300.876	20.846	870.872	667.548
301.891	20.974	870.284	667.528
302.906	21.130	869.823	667.713
303.920	21.226	869.661	667.896
304.935	21.213	869.050	667.319
305.949	21.138	868.277	666.379
306.964	20.967	867.622	665.167
307.979	21.012	866.724	664.592
308.993	21.075	866.450	664.561
310.008	21.074	866.147	664.268
311.022	21.004	865.295	663.288
312.037	20.950	864.463	662.387
313.052	20.675	864.059	660.974
314.066	20.739	863.153	660.466
315.081	20.665	862.478	659.609
316.095	20.718	862.119	659.476
317.110	20.769	861.439	659.091
318.125	20.634	861.091	658.256
319.139	20.679	860.362	657.812
320.154	20.752	859.837	657.625
321.168	20.807	859.110	657.222
322.183	20.959	858.934	657.600
323.197	20.946	858.055	656.820
324.212	20.888	857.794	656.344
325.227	20.821	857.070	655.481
326.241	20.811	856.439	654.901
327.256	20.922	855.833	654.796
328.270	20.864	855.423	654.209
329.285	20.685	854.902	653.081
330.300	20.715	854.123	652.539
331.314	20.736	853.839	652.345
332.329	21.054	853.592	653.289
333.343	21.175	852.782	653.062
334.358	21.129	852.229	652.411
335.373	21.047	852.492	652.246
336.387	21.113	852.117	652.149
337.402	21.292	851.768	652.495
338.416	21.267	851.484	652.124
339.431	21.429	851.142	652.408
340.446	21.530	850.555	652.279
341.460	21.689	850.471	652.751
342.475	21.723	849.740	652.256
343.489	21.506	849.720	651.377
344.504	21.688	849.044	651.475
345.519	21.550	849.180	651.010
346.533	21.867	848.092	651.298
347.548	21.342	847.622	648.928
348.562	21.203	846.880	647.789
349.577	21.259	845.762	647.084
350.592	21.274	845.152	646.614
351.606	21.161	844.358	645.533
352.621	21.257	843.816	645.416
353.635	21.288	843.161	644.971
354.650	21.157	843.289	644.529
355.665	21.441	841.789	644.371
356.679	21.584	841.386	644.533
357.694	21.464	841.068	643.791
358.708	21.373	840.467	642.939
359.723	21.361	839.934	642.428
360.738	21.630	838.587	642.330
361.752	21.550	838.382	641.823
362.767	21.563	838.272	641.730
363.781	21.815	837.858	642.278
364.796	21.960	837.221	642.265
365.810	21.883	836.974	641.735
366.825	22.150	836.471	642.270
367.840	22.040	836.250	641.640
368.854	21.852	835.502	640.323
369.869	21.789	834.895	639.572
370.883	21.719	834.751	639.148
371.898	21.929	834.474	639.648
372.913	21.940	834.332	639.521
373.927	21.789	833.398	638.201
374.942	21.900	832.902	638.168
375.956	22.168	832.495	638.773
376.971	22.275	831.739	638.525
377.986	22.154	831.879	638.134
379.000	22.164	831.382	637.733
380.015	22.038	830.877	636.833
381.029	22.163	829.911	636.488
382.044	22.199	829.753	636.442
383.059	22.301	828.929	636.124
384.073	22.292	827.693	635.086
385.088	22.030	827.047	633.587
386.102	21.929	826.558	632.793
387.117	21.915	825.932	632.209
388.132	21.838	825.522	631.560
389.146	22.007	825.079	631.775
390.161	22.188	824.926	632.252
391.175	22.110	824.537	631.618
392.190	22.154	823.499	630.925
393.205	22.096	822.961	630.249
394.219	21.877	822.989	629.428
395.234	21.779	822.482	628.635
396.248	21.644	821.828	627.594
397.263	21.667	821.445	627.331
398.278	21.677	821.029	626.994
399.292	21.806	820.618	627.083
400.307	21.728	819.747	626.084
401.321	21.806	819.545	626.153
402.336	21.781	819.023	625.611
403.350	21.983	818.896	626.179
404.365	22.129	818.253	626.149
405.380	22.283	818.027	626.471
406.394	22.362	817.694	626.443
407.409	22.544	816.987	626.491
408.423	22.603	817.147	626.770
409.438	22.548	816.585	626.086
410.453	22.549	816.185	625.730
411.467	22.569	815.531	625.241
412.482	22.802	815.299	625.838
413.496	22.836	815.104	625.753
414.511	22.602	814.727	624.577
415.526	22.587	814.291	624.135
416.540	22.529	813.586	623.335
417.555	22.735	812.951	623.519
418.569	22.573	812.644	622.658
419.584	22.615	812.007	622.263
420.599	22.594	811.797	621.971
421.613	160.412	1370.448	1789.696
422.628	139.657	1451.837	1789.798
