DTS Sentinel unit serial number:	SN413079Multiplexer serial number:	ORYXHardware model number:	OX4-SRSoftware version number:	ORYX F/W v4.00 Oryx Data Collector v3.7.2.0data status	okinstallation	princeton_trtdifferential loss correction	single-endedforward channel	channel 1reverse channel	N/Adate	2019/09/18time	10:14:35forward acquisition time	60.00reverse acquisition time	0.00gamma	496.2192k internal	0.2330k external	0.2330temperature offset calibration	0.9976default loss term (dB/km)	0.3790temperature slope calibration	1.0000multiplexer offset coefficient	1.0000multiplexer slope coefficient	1.0000fibre end	0.00T internal ref (°C)	27.89T ext. ref 1 (°C)	0.34T ext. ref 2 (°C)	24.22length (m)	temperature (°C)	Stokes	anti-Stokes-747.200	-200.000	0.025	-0.143
-746.185	-200.000	-0.043	0.290
-745.171	237.680	0.040	-0.067
-744.156	-35.620	-0.336	-0.184
-743.142	-34.276	-0.136	-0.075
-742.127	-200.000	0.025	0.120
-741.112	1.127	-0.023	-0.016
-740.098	140.431	-0.074	0.098
-739.083	-125.213	-0.368	0.057
-738.069	-119.227	-0.242	0.043
-737.054	800.000	-0.077	0.334
-736.039	317.515	-0.212	-0.403
-735.025	-29.101	0.140	-0.081
-734.010	-200.000	0.028	-0.393
-732.996	-200.000	0.002	-0.297
-731.981	-200.000	-0.074	0.494
-730.966	-200.000	0.013	-0.220
-729.952	800.000	-0.059	-0.254
-728.937	-94.719	-0.222	-0.061
-727.923	-71.595	-0.143	0.054
-726.908	-200.000	0.004	-0.035
-725.894	441.452	0.097	-0.213
-724.879	-129.648	-0.247	0.034
-723.864	-23.601	-0.136	-0.082
-722.850	-135.868	-0.158	0.019
-721.835	-49.595	-0.379	-0.182
-720.821	-200.000	-0.007	0.153
-719.806	-200.000	-0.009	-0.186
-718.791	593.819	0.103	-0.256
-717.777	-30.271	-0.182	0.104
-716.762	62.097	-0.174	-0.174
-715.748	-200.000	0.064	-0.378
-714.733	-200.000	-0.043	0.267
-713.718	-200.000	0.010	-0.162
-712.704	-52.396	-0.278	-0.130
-711.689	-95.481	0.090	-0.024
-710.675	46.759	0.280	0.261
-709.660	324.744	-0.060	-0.115
-708.645	-38.425	-0.208	0.111
-707.631	205.308	0.155	-0.242
-706.616	-62.875	-0.056	-0.023
-705.602	-135.418	0.379	-0.046
-704.587	61.793	-0.188	-0.188
-703.572	-149.544	-0.139	0.011
-702.558	192.820	-0.105	-0.159
-701.543	387.326	0.022	0.045
-700.529	86.584	-0.082	0.091
-699.514	387.219	-0.128	0.266
-698.499	-168.846	-0.122	0.005
-697.485	-200.000	-0.026	0.143
-696.470	100.382	0.169	0.198
-695.456	51.724	-0.140	0.134
-694.441	211.501	-0.040	0.063
-693.426	37.129	0.081	0.072
-692.412	-68.753	-0.168	-0.065
-691.397	80.065	0.031	0.034
-690.383	141.074	-0.069	0.092
-689.368	-8.289	0.367	0.248
-688.354	-9.297	-0.131	-0.088
-687.339	649.647	-0.130	0.335
-686.324	-112.496	0.385	0.077
-685.310	-63.720	0.280	-0.115
-684.295	13.716	-0.060	0.046
-683.281	-200.000	-0.050	-0.393
-682.266	-69.098	-0.035	0.014
-681.251	307.371	0.044	-0.083
-680.237	-38.719	0.018	0.010
-679.222	293.985	0.131	-0.240
-678.208	-200.000	-0.111	0.508
-677.193	155.880	-0.100	0.138
-676.178	40.885	0.205	-0.185
-675.164	-24.695	-0.119	0.071
-674.149	405.407	0.086	-0.181
-673.135	-10.368	-0.266	0.177
-672.120	-143.664	-0.080	0.008
-671.105	-200.000	0.047	-0.282
-670.091	-200.000	-0.003	0.050
-669.076	-99.362	-0.155	-0.039
-668.062	228.296	0.083	0.136
-667.047	800.000	-0.090	-0.302
-666.032	-200.000	-0.026	0.172
-665.018	-148.902	0.189	0.015
-664.003	88.087	-0.040	-0.045
-662.989	-116.406	-0.284	-0.053
-661.974	-5.485	0.139	0.096
-660.959	342.053	-0.165	0.324
-659.945	-200.000	-0.041	0.194
-658.930	-157.719	-0.028	0.002
-657.916	-84.305	0.235	-0.075
-656.901	-64.588	0.274	-0.112
-655.886	-200.000	-0.085	-0.424
-654.872	-35.993	-0.208	0.113
-653.857	-76.908	0.153	-0.054
-652.843	-149.154	0.328	-0.026
-651.828	-163.246	-0.099	0.005
-650.814	42.976	-0.149	0.136
-649.799	-7.840	0.124	-0.084
-648.784	-200.000	0.058	0.357
-647.770	-200.000	0.004	-0.220
-646.755	-106.237	-0.280	-0.063
-645.741	335.099	-0.126	-0.244
-644.726	65.193	-0.208	0.211
-643.711	92.879	0.246	-0.278
-642.697	-200.000	-0.039	-0.349
-641.682	-200.000	-0.015	-0.163
-640.668	-43.792	0.175	-0.088
-639.653	439.379	0.005	0.011
-638.638	-33.961	-0.184	0.102
-637.624	-51.879	-0.180	0.084
-636.609	-47.418	-0.177	-0.086
-635.595	800.000	0.099	0.278
-634.580	-184.611	0.392	-0.006
-633.565	160.414	-0.054	0.075
-632.551	175.074	-0.087	0.126
-631.536	207.760	-0.071	-0.111
-630.522	185.405	-0.092	0.137
-629.507	92.087	-0.030	-0.034
-628.492	221.769	0.181	-0.292
-627.478	145.560	0.097	0.130
-626.463	-33.651	-0.112	0.062
-625.449	-107.226	0.088	0.019
-624.434	74.524	-0.163	-0.171
-623.419	-172.772	0.294	-0.009
-622.405	-200.000	-0.009	0.166
-621.390	800.000	-0.042	0.119
-620.376	-179.370	-0.116	0.003
-619.361	45.360	0.063	-0.058
-618.346	-200.000	-0.047	-0.229
-617.332	-200.000	-0.026	-0.158
-616.317	459.067	-0.033	-0.074
-615.303	95.648	-0.075	-0.086
-614.288	-97.966	0.343	0.089
-613.273	16.611	-0.466	-0.369
-612.259	-200.000	0.040	-0.434
-611.244	-55.966	0.296	-0.132
-610.230	-50.082	-0.091	-0.043
-609.215	-200.000	-0.042	0.317
-608.201	-200.000	0.053	-0.541
-607.186	285.004	0.095	-0.171
-606.171	800.000	-0.056	0.242
-605.157	682.634	0.067	-0.174
-604.142	54.922	0.184	-0.178
-603.128	800.000	-0.040	-0.131
-602.113	331.721	0.080	0.154
-601.098	101.109	0.091	0.106
-600.084	116.026	-0.107	-0.131
-599.069	58.280	-0.164	-0.161
-598.055	800.000	-0.071	-0.199
-597.040	2.105	0.068	-0.049
-596.025	13.883	0.175	-0.136
-595.011	-54.636	0.138	0.063
-593.996	-93.477	0.111	0.031
-592.982	110.563	0.097	0.117
-591.967	-94.950	-0.286	0.077
-590.952	20.582	0.207	0.167
-589.938	-200.000	0.010	0.101
-588.923	-29.577	0.174	-0.100
-587.909	800.000	0.008	-0.033
-586.894	190.955	-0.129	-0.194
-585.879	-178.872	-0.148	-0.003
-584.865	63.809	-0.132	0.133
-583.850	-17.600	-0.027	0.017
-582.836	-123.008	0.295	-0.047
-581.821	-139.878	0.036	-0.004
-580.806	328.703	-0.062	-0.119
-579.792	134.894	0.197	-0.256
-578.777	-7.064	-0.420	0.285
-577.763	35.082	0.138	0.121
-576.748	-83.021	-0.255	-0.082
-575.733	-52.774	0.178	0.082
-574.719	306.210	-0.095	-0.176
-573.704	-14.669	-0.106	-0.068
-572.690	-140.101	-0.333	0.035
-571.675	-92.158	-0.119	0.034
-570.661	800.000	-0.030	-0.121
-569.646	-200.000	0.011	0.092
-568.631	33.551	0.186	-0.162
-567.617	-173.273	-0.120	-0.004
-566.602	313.104	0.053	-0.100
-565.588	449.220	-0.129	-0.284
-564.573	183.719	0.166	-0.245
-563.558	800.000	0.051	0.141
-562.544	-101.716	0.266	0.065
-561.529	-72.109	-0.089	0.033
-560.515	647.111	-0.070	0.178
-559.500	36.529	0.169	0.149
-558.485	-64.640	-0.120	-0.049
-557.471	800.000	-0.057	0.245
-556.456	214.556	-0.065	-0.103
-555.442	-126.755	0.333	-0.049
-554.427	-131.806	-0.031	0.004
-553.412	-200.000	0.009	0.238
-552.398	494.923	0.023	-0.053
-551.383	-83.932	-0.378	-0.120
-550.369	1.605	0.362	-0.261
-549.354	279.345	0.251	-0.448
-548.339	-80.775	-0.252	0.084
-547.325	-165.178	0.206	0.009
-546.310	93.813	-0.066	0.075
-545.296	-53.559	-0.113	-0.051
-544.281	-71.574	-0.330	-0.123
-543.266	-6.657	-0.183	-0.124
-542.252	-145.590	0.171	0.015
-541.237	-200.000	-0.045	0.301
-540.223	124.262	-0.327	-0.410
-539.208	5.296	-0.214	-0.158
-538.193	-33.540	-0.338	-0.186
-537.179	270.830	-0.122	0.214
-536.164	-200.000	0.005	-0.235
-535.150	-73.930	0.248	-0.090
-534.135	548.645	-0.088	0.211
-533.121	4.303	0.051	0.037
-532.106	-200.000	0.023	-0.411
-531.091	28.246	0.083	0.070
-530.077	-77.100	0.171	0.060
-529.062	-112.453	0.188	-0.038
-528.048	-115.219	0.128	0.024
-527.033	-61.457	-0.265	-0.111
-526.018	-104.642	0.209	0.048
-525.004	399.331	0.237	-0.497
-523.989	198.729	-0.113	-0.173
-522.975	-96.077	-0.275	-0.073
-521.960	-87.999	-0.201	0.060
-520.945	800.000	-0.072	0.235
-519.931	-111.532	-0.342	-0.069
-518.916	12.238	0.158	-0.121
-517.902	-200.000	0.004	-0.133
-516.887	75.510	0.241	-0.254
-515.872	-165.227	0.256	-0.011
-514.858	-113.388	0.143	-0.028
-513.843	178.540	0.090	-0.130
-512.829	-58.212	-0.145	0.063
-511.814	21.238	-0.154	-0.125
-510.799	-136.702	-0.355	0.041
-509.785	800.000	0.029	0.120
-508.770	31.709	-0.199	0.171
-507.756	73.441	0.188	0.196
-506.741	-141.036	0.201	0.021
-505.726	-11.373	0.223	0.146
-504.712	34.842	0.184	-0.161
-503.697	112.403	0.151	0.182
-502.683	-165.722	0.139	0.006
-501.668	-51.077	0.488	-0.228
-500.653	-200.000	0.006	0.063
-499.639	-127.242	0.175	0.026
-498.624	502.275	0.121	0.279
-497.610	800.000	0.054	-0.173
-496.595	-200.000	0.015	0.139
-495.581	-200.000	-0.049	0.237
-494.566	-74.816	0.103	0.037
-493.551	-200.000	0.000	-0.177
-492.537	-200.000	0.008	-0.153
-491.522	94.215	0.121	0.137
-490.508	-200.000	0.020	0.154
-489.493	-200.000	-0.047	-0.241
-488.478	-6.000	0.177	-0.121
-487.464	-162.345	0.107	-0.005
-486.449	-129.721	0.280	-0.038
-485.435	0.404	0.173	-0.123
-484.420	-200.000	-0.022	0.183
-483.405	-46.012	-0.216	0.106
-482.391	-200.000	0.040	-0.435
-481.376	-134.202	0.244	-0.030
-480.362	479.251	-0.096	-0.216
-479.347	-169.944	0.141	-0.005
-478.332	-94.917	0.170	0.046
-477.318	800.000	0.042	0.116
-476.303	296.040	0.254	0.464
-475.289	800.000	-0.084	0.314
-474.274	-68.342	-0.242	-0.094
-473.259	-200.000	-0.042	-0.257
-472.245	-200.000	0.016	0.126
-471.230	-43.719	-0.206	-0.103
-470.216	143.363	-0.080	0.105
-469.201	-146.123	-0.357	-0.031
-468.186	1.369	-0.121	0.087
-467.172	-90.174	-0.094	0.027
-466.157	-200.000	-0.017	-0.239
-465.143	83.554	-0.084	-0.092
-464.128	16.889	0.090	-0.071
-463.113	800.000	-0.046	0.183
-462.099	-200.000	-0.022	-0.431
-461.084	706.359	0.053	-0.139
-460.070	-122.285	-0.335	-0.054
-459.055	20.710	0.287	0.231
-458.040	60.311	0.250	-0.247
-457.026	-200.000	0.024	0.406
-456.011	8.743	0.256	0.192
-454.997	7.598	0.092	0.069
-453.982	-59.920	0.115	-0.049
-452.968	278.671	0.152	0.270
-451.953	240.316	-0.112	-0.186
-450.938	660.619	0.081	-0.209
-449.924	-45.485	-0.099	0.049
-448.909	-6.448	0.053	-0.036
-447.895	-24.706	-0.078	-0.046
-446.880	-200.000	-0.017	0.111
-445.865	800.000	0.003	0.008
-444.851	-200.000	0.000	0.138
-443.836	94.855	-0.362	-0.410
-442.822	-200.000	-0.062	-0.313
-441.807	-131.240	-0.187	-0.025
-440.792	-103.055	-0.250	-0.059
-439.778	-90.408	-0.183	-0.053
-438.763	-200.000	0.012	-0.290
-437.749	526.037	0.049	-0.115
-436.734	-82.240	0.252	-0.082
-435.719	42.198	0.099	0.089
-434.705	-137.756	0.585	-0.065
-433.690	-93.538	-0.131	-0.036
-432.676	-200.000	0.067	0.302
-431.661	78.573	-0.185	-0.197
-430.646	44.464	0.145	-0.132
-429.632	-200.000	0.032	-0.187
-428.617	-40.298	-0.107	0.055
-427.603	-86.191	0.251	-0.077
-426.588	-63.365	0.117	-0.048
-425.573	-109.948	0.168	0.035
-424.559	-200.000	-0.007	0.084
-423.544	22.692	-0.249	-0.202
-422.530	68.470	-0.227	-0.231
-421.515	397.948	0.046	-0.096
-420.500	800.000	-0.065	-0.200
-419.486	800.000	-0.025	0.102
-418.471	-200.000	0.081	0.355
-417.457	249.102	0.165	-0.278
-416.442	-200.000	-0.000	-0.102
-415.428	-129.278	0.120	0.017
-414.413	-173.235	0.166	-0.005
-413.398	-142.776	-0.148	0.014
-412.384	615.569	-0.059	0.147
-411.369	82.617	0.287	-0.310
-410.355	-32.855	-0.524	0.289
-409.340	787.768	0.089	-0.242
-408.325	48.827	-0.278	-0.259
-407.311	-53.124	-0.255	-0.117
-406.296	-22.407	0.251	-0.151
-405.282	-98.525	0.280	-0.071
-404.267	-200.000	-0.038	-0.178
-403.252	77.334	0.201	0.212
-402.238	789.536	-0.188	-0.513
-401.223	-200.000	-0.019	-0.326
-400.209	-36.973	-0.106	-0.057
-399.194	-200.000	-0.008	-0.044
-398.179	-200.000	-0.011	0.234
-397.165	-11.641	0.156	-0.102
-396.150	-91.242	-0.349	-0.099
-395.136	-200.000	-0.021	0.293
-394.121	-115.622	-0.345	0.064
-393.106	49.396	0.252	0.236
-392.092	596.600	-0.140	0.344
-391.077	-157.906	-0.161	-0.009
-390.063	-12.265	0.106	0.069
-389.048	-200.000	0.010	-0.113
-388.033	800.000	-0.084	0.233
-387.019	800.000	-0.089	0.303
-386.004	74.318	-0.071	-0.075
-384.990	800.000	-0.017	-0.073
-383.975	800.000	0.021	0.071
-382.960	800.000	0.086	0.356
-381.946	5.635	-0.244	0.179
-380.931	-9.211	-0.295	-0.196
-379.917	-57.438	-0.330	0.144
-378.902	16.333	-0.066	-0.052
-377.888	-35.823	0.040	0.022
-376.873	-148.818	-0.027	-0.002
-375.858	800.000	0.098	0.284
-374.844	-17.538	-0.454	0.283
-373.829	35.770	0.257	0.225
-372.815	800.000	0.104	0.343
-371.800	800.000	0.037	0.153
-370.785	-78.494	-0.255	0.087
-369.771	180.573	0.090	0.131
-368.756	-56.499	0.196	0.086
-367.742	-200.000	-0.026	-0.289
-366.727	71.989	0.143	-0.147
-365.712	74.757	-0.221	0.231
-364.698	-66.202	-0.179	0.071
-363.683	-71.134	0.260	0.097
-362.669	-113.156	-0.200	0.039
-361.654	-53.783	0.274	0.124
-360.639	-52.656	0.104	-0.048
-359.625	-114.282	0.073	-0.014
-358.610	475.313	-0.075	-0.167
-357.596	25.288	0.314	-0.259
-356.581	-200.000	0.023	0.172
-355.566	800.000	-0.075	0.287
-354.552	-79.440	-0.154	-0.052
-353.537	-51.635	-0.024	-0.011
-352.523	-41.527	-0.094	-0.048
-351.508	-63.856	-0.103	-0.042
-350.493	21.767	-0.150	-0.121
-349.479	-200.000	0.037	0.189
-348.464	-200.000	0.047	0.434
-347.450	-0.285	-0.398	0.281
-346.435	593.566	-0.078	-0.190
-345.420	139.037	-0.073	0.095
-344.406	235.694	-0.066	0.108
-343.391	-200.000	0.018	0.166
-342.377	-200.000	-0.010	0.144
-341.362	-34.607	-0.202	-0.110
-340.348	181.222	-0.105	-0.153
-339.333	-200.000	0.023	-0.185
-338.318	-54.532	-0.329	-0.148
-337.304	-168.559	0.240	0.009
-336.289	-76.609	-0.413	0.144
-335.275	-200.000	0.014	0.076
-334.260	800.000	0.034	0.122
-333.245	-200.000	0.008	-0.394
-332.231	126.451	-0.220	0.276
-331.216	289.709	0.090	0.161
-330.202	-135.768	-0.074	0.009
-329.187	-200.000	0.008	0.052
-328.172	-29.784	0.206	0.116
-327.158	-11.461	0.188	0.123
-326.143	800.000	-0.196	0.634
-325.129	-126.666	-0.173	-0.025
-324.114	506.156	-0.093	-0.215
-323.099	201.943	0.069	0.105
-322.085	54.611	0.232	0.221
-321.070	-100.093	-0.201	0.050
-320.056	800.000	0.006	0.021
-319.041	-200.000	0.055	-0.331
-318.026	-200.000	0.010	-0.449
-317.012	-30.321	-0.146	0.082
-315.997	385.372	0.131	0.267
-314.983	-65.787	0.069	-0.027
-313.968	-200.000	0.069	-0.432
-312.953	-200.000	-0.017	-0.125
-311.939	8.952	-0.211	-0.158
-310.924	151.306	0.314	0.423
-309.910	-200.000	0.102	0.574
-308.895	217.152	-0.071	0.111
-307.880	262.380	-0.067	-0.116
-306.866	77.075	-0.100	-0.105
-305.851	-186.927	-0.202	-0.003
-304.837	800.000	-0.124	0.347
-303.822	457.225	-0.130	-0.285
-302.807	30.726	0.172	-0.146
-301.793	-2.709	-0.239	-0.165
-300.778	31.727	0.223	0.190
-299.764	-23.841	-0.072	0.043
-298.749	-94.986	-0.176	-0.047
-297.735	68.642	-0.269	0.273
-296.720	-52.184	-0.035	-0.016
-295.705	800.000	0.137	0.410
-294.691	-200.000	-0.001	-0.030
-293.676	-200.000	-0.020	0.144
-292.662	800.000	0.051	-0.160
-291.647	-133.805	0.049	0.006
-290.632	-77.627	0.130	0.045
-289.618	591.578	0.066	-0.162
-288.603	3.494	0.113	0.082
-287.589	-200.000	-0.016	0.120
-286.574	83.471	-0.126	0.135
-285.559	329.213	-0.048	0.091
-284.545	628.437	0.067	0.167
-283.530	800.000	-0.101	0.279
-282.516	800.000	-0.080	0.236
-281.501	-95.849	0.164	-0.043
-280.486	480.915	-0.189	0.425
-279.472	88.613	-0.129	-0.142
-278.457	648.573	-0.152	0.385
-277.443	-161.548	0.217	0.011
-276.428	-74.308	0.234	-0.083
-275.413	-21.132	-0.117	0.071
-274.399	185.726	0.048	-0.071
-273.384	800.000	-0.022	-0.090
-272.370	-60.768	-0.108	-0.045
-271.355	-200.000	0.020	0.134
-270.340	-20.078	0.039	-0.024
-269.326	18.124	0.077	0.061
-268.311	-12.873	0.154	0.099
-267.297	710.648	-0.119	-0.312
-266.282	432.628	-0.019	-0.041
-265.267	-200.000	-0.059	0.271
-264.253	227.712	0.105	0.169
-263.238	71.518	-0.130	-0.134
-262.224	-89.967	0.115	0.033
-261.209	199.350	-0.149	0.225
-260.195	-135.563	-0.269	0.032
-259.180	475.983	-0.056	-0.125
-258.165	96.279	-0.214	0.241
-257.151	-166.235	-0.042	-0.002
-256.136	68.229	-0.238	0.240
-255.122	101.512	0.105	0.121
-254.107	-200.000	0.049	0.331
-253.092	434.070	0.088	-0.189
-252.078	-55.589	-0.137	-0.061
-251.063	-20.434	0.380	0.231
-250.049	-69.385	-0.206	-0.078
-249.034	-49.733	-0.351	0.165
-248.019	800.000	-0.072	0.211
-247.005	-110.551	0.226	-0.046
-245.990	-200.000	-0.009	-0.207
-244.976	-78.945	-0.235	0.079
-243.961	8.356	0.114	-0.084
-242.946	247.324	0.175	0.292
-241.932	10.458	-0.141	0.106
-240.917	286.291	-0.190	-0.339
-239.903	800.000	-0.035	-0.144
-238.888	-200.000	0.023	0.255
-237.873	-39.053	-0.056	-0.029
-236.859	150.886	0.056	0.076
-235.844	-123.769	-0.324	0.051
-234.830	-33.609	0.261	0.142
-233.815	-200.000	0.075	0.330
-232.800	-185.789	-0.174	0.003
-231.786	-1.465	0.022	-0.015
-230.771	-183.088	0.376	0.007
-229.757	528.173	0.046	-0.106
-228.742	-200.000	0.004	0.189
-227.727	62.799	0.138	0.136
-226.713	-56.615	-0.346	0.151
-225.698	30.812	0.402	-0.339
-224.684	320.652	0.078	0.146
-223.669	-200.000	-0.011	-0.245
-222.655	-76.570	0.377	-0.131
-221.640	118.937	-0.254	-0.310
-220.625	261.667	-0.160	0.273
-219.611	800.000	0.053	-0.207
-218.596	-34.104	0.030	0.016
-217.582	-70.287	0.199	-0.075
-216.567	-73.914	-0.433	-0.155
-215.552	59.583	0.097	0.095
-214.538	438.279	-0.131	0.283
-213.523	-90.827	-0.151	0.043
-212.509	4.709	-0.139	0.101
-211.494	3.324	-0.262	-0.188
-210.479	45.040	0.198	-0.180
-209.465	800.000	0.092	-0.259
-208.450	-151.003	0.436	0.032
-207.436	72.140	0.033	-0.034
-206.421	9.287	-0.257	-0.191
-205.406	367.261	-0.114	0.228
-204.392	-115.672	0.184	-0.034
-203.377	-200.000	0.040	0.368
-202.363	-36.907	0.242	-0.128
-201.348	240.004	-0.117	0.192
-200.333	2.745	0.247	0.176
-199.319	-135.300	0.185	0.022
-198.304	255.689	-0.292	-0.493
-197.290	575.376	-0.099	0.238
-196.275	800.000	0.103	0.319
-195.260	-44.990	-0.335	0.165
-194.246	172.170	0.134	0.190
-193.231	-78.151	-0.159	0.054
-192.217	-200.000	0.032	0.264
-191.202	63.211	-0.084	0.083
-190.187	-32.896	0.305	-0.167
-189.173	392.749	0.147	-0.302
-188.158	-129.134	0.246	0.034
-187.144	-200.000	0.017	-0.079
-186.129	118.094	-0.244	0.297
-185.114	-89.357	0.232	0.067
-184.100	-123.349	0.174	-0.027
-183.085	-106.156	0.133	-0.029
-182.071	-104.353	-0.246	-0.056
-181.056	5.069	0.297	-0.215
-180.042	129.514	0.293	-0.369
-179.027	-72.478	-0.177	-0.064
-178.012	211.469	-0.104	-0.162
-176.998	800.000	0.085	-0.284
-175.983	-142.702	0.339	-0.033
-174.969	547.990	0.221	-0.522
-173.954	-106.190	0.267	0.059
-172.939	4.186	0.318	-0.229
-171.925	-52.398	0.126	0.057
-170.910	-67.741	-0.080	0.031
-169.896	-31.538	0.113	-0.062
-168.881	67.477	-0.166	-0.167
-167.866	800.000	-0.034	-0.095
-166.852	104.133	0.099	0.114
-165.837	-200.000	0.010	0.047
-164.823	484.116	-0.091	-0.203
-163.808	-200.000	0.026	0.146
-162.793	-43.548	0.158	0.079
-161.779	-200.000	-0.034	0.157
-160.764	60.918	0.290	0.283
-159.750	-43.131	0.298	-0.149
-158.735	75.112	-0.210	0.218
-157.720	242.765	-0.094	0.154
-156.706	-76.431	-0.041	-0.014
-155.691	-119.648	-0.104	-0.018
-154.677	-200.000	0.026	0.219
-153.662	-68.388	0.238	0.091
-152.647	573.576	-0.032	-0.077
-151.633	-51.058	0.081	0.037
-150.618	-105.282	0.129	-0.029
-149.604	-193.097	0.062	-0.001
-148.589	326.504	-0.077	0.146
-147.574	-55.116	0.096	0.042
-146.560	345.644	0.009	-0.017
-145.545	622.218	0.056	-0.140
-144.531	-0.845	-0.114	0.079
-143.516	194.039	-0.100	-0.149
-142.502	-93.371	0.293	0.080
-141.487	260.369	-0.102	-0.173
-140.472	7.251	0.195	0.143
-139.458	169.126	-0.102	-0.143
-138.443	-200.000	-0.030	-0.242
-137.429	-87.156	-0.092	-0.027
-136.414	200.153	0.256	0.387
-135.399	492.716	0.080	-0.180
-134.385	-200.000	-0.070	0.394
-133.370	-177.068	0.183	0.005
-132.356	-200.000	0.020	-0.293
-131.341	-89.174	0.238	-0.069
-130.326	-200.000	0.022	0.308
-129.312	127.708	0.236	0.295
-128.297	-200.000	0.001	0.143
-127.283	39.919	0.101	0.090
-126.268	-72.312	0.332	0.121
-125.253	246.934	0.052	-0.086
-124.239	-3.139	-0.106	-0.073
-123.224	-20.009	-0.063	-0.038
-122.210	-200.000	-0.030	-0.331
-121.195	-200.000	-0.009	-0.133
-120.180	6.710	-0.275	0.201
-119.166	-45.919	-0.223	-0.108
-118.151	-0.012	0.113	-0.079
-117.137	-127.338	0.485	0.070
-116.122	-77.351	0.366	0.125
-115.107	-79.371	0.030	0.010
-114.093	-122.589	-0.140	-0.022
-113.078	74.413	0.273	0.282
-112.064	-200.000	0.041	-0.175
-111.049	-85.089	0.390	0.120
-110.034	282.934	-0.060	-0.107
-109.020	-114.142	-0.520	-0.099
-108.005	642.158	0.056	-0.141
-106.991	800.000	0.094	0.280
-105.976	-15.456	0.138	0.087
-104.962	-100.091	-0.243	-0.059
-103.947	-64.175	-0.211	-0.084
-102.932	75.109	0.200	-0.207
-101.918	-133.356	-0.191	-0.024
-100.903	-200.000	-0.004	0.071
-99.889	800.000	-0.084	-0.325
-98.874	-135.490	0.088	0.010
-97.859	800.000	-0.020	0.076
-96.845	-10.060	0.251	-0.164
-95.830	-168.145	0.183	0.007
-94.816	142.811	-0.182	0.237
-93.801	186.090	0.105	0.154
-92.786	26.170	-0.210	0.172
-91.772	69.639	0.221	-0.223
-90.757	-26.208	-0.258	-0.149
-89.743	169.611	-0.267	0.374
-88.728	-128.979	0.078	0.011
-87.713	538.507	-0.023	-0.053
-86.699	326.890	0.065	-0.122
-85.684	-111.066	-0.142	0.029
-84.670	800.000	-0.100	0.300
-83.655	800.000	-0.093	0.319
-82.640	-68.163	0.135	0.051
-81.626	290.944	0.219	0.391
-80.611	320.595	-0.195	0.364
-79.597	-200.000	0.050	-0.261
-78.582	-200.000	0.040	-0.263
-77.567	45.348	-0.152	-0.138
-76.553	-39.575	0.218	0.112
-75.538	-38.274	-0.094	0.049
-74.524	-200.000	-0.083	0.447
-73.509	197.518	-0.100	0.149
-72.494	339.184	-0.133	-0.254
-71.480	800.000	-0.049	-0.192
-70.465	378.773	-0.043	0.086
-69.451	-37.495	-0.338	0.177
-68.436	-91.628	-0.297	-0.083
-67.422	338.515	0.103	-0.197
-66.407	-122.702	-0.121	0.019
-65.392	-200.000	0.037	0.226
-64.378	-200.000	-0.001	0.322
-63.363	273.835	0.090	0.157
-62.349	-108.405	-0.141	0.030
-61.334	85.046	-0.958	-1.030
-60.319	-63.440	0.804	0.324
-59.305	214.532	-0.654	-1.015
-58.290	708.742	0.420	1.089
-57.276	454.770	0.720	1.565
-56.261	-200.000	110.944	601.183
-55.246	425.807	1525.461	3221.598
-54.232	142.196	2709.034	3523.177
-53.217	102.141	2188.250	2505.077
-52.203	39.170	1628.024	1427.545
-51.188	31.144	1370.277	1152.179
-50.173	28.241	1332.097	1102.575
-49.159	53.171	1385.612	1300.542
-48.144	52.948	1400.687	1313.270
-47.130	31.458	1356.922	1142.687
-46.115	28.145	1339.125	1107.632
-45.100	27.788	1334.533	1101.638
-44.086	27.877	1331.357	1099.511
-43.071	27.774	1329.302	1097.150
-42.057	27.728	1327.262	1095.144
-41.042	27.799	1325.318	1093.927
-40.027	27.804	1323.947	1092.779
-39.013	27.846	1322.053	1091.424
-37.998	27.861	1319.975	1089.752
-36.984	27.913	1318.351	1088.682
-35.969	28.015	1316.445	1087.672
-34.954	27.905	1315.088	1085.851
-33.940	27.861	1313.522	1084.257
-32.925	27.947	1312.385	1083.783
-31.911	28.038	1310.809	1082.976
-30.896	27.990	1309.313	1081.417
-29.881	28.017	1308.312	1080.705
-28.867	27.958	1306.956	1079.194
-27.852	27.892	1305.409	1077.482
-26.838	28.003	1303.623	1076.621
-25.823	28.028	1302.368	1075.691
-24.809	27.953	1301.528	1074.511
-23.794	27.901	1299.818	1072.752
-22.779	27.966	1298.604	1072.090
-21.765	28.124	1296.662	1071.370
-20.750	27.932	1295.688	1069.398
-19.736	27.862	1294.640	1068.079
-18.721	27.725	1293.821	1066.564
-17.706	27.845	1291.883	1065.623
-16.692	27.863	1291.123	1065.054
-15.677	27.814	1290.259	1064.014
-14.663	27.872	1288.438	1062.811
-13.648	27.846	1287.396	1061.756
-12.633	27.910	1286.322	1061.202
-11.619	27.772	1286.159	1060.222
-10.604	27.885	1284.798	1059.716
-9.590	27.794	1284.227	1058.672
-8.575	27.729	1282.825	1057.099
-7.560	27.900	1282.236	1057.565
-6.546	27.786	1281.423	1056.189
-5.531	27.751	1280.530	1055.207
-4.517	27.734	1279.686	1054.377
-3.502	27.898	1278.688	1054.455
-2.487	27.920	1277.778	1053.793
-1.473	27.927	1273.527	1050.284
-0.458	26.715	1259.047	1031.407
0.556	22.209	1242.357	996.224
1.571	18.795	1249.202	982.136
2.586	17.949	1263.942	988.739
3.600	17.479	1251.981	976.601
4.615	12.720	1178.007	893.070
5.629	4.589	1101.081	793.321
6.644	0.616	1081.783	759.400
7.659	0.285	1079.612	756.149
8.673	0.196	1078.357	754.755
9.688	0.243	1077.044	754.006
10.702	0.467	1075.322	753.849
11.717	5.356	1081.332	782.517
12.731	13.269	1091.154	829.394
13.746	16.666	1095.626	849.802
14.761	16.877	1095.623	850.783
15.775	16.028	1093.967	845.165
16.790	15.119	1091.579	838.696
17.804	14.522	1089.980	834.405
18.819	14.050	1089.166	831.350
19.834	13.831	1088.115	829.379
20.848	13.599	1087.232	827.477
21.863	13.507	1086.035	826.034
22.877	13.232	1085.201	823.956
23.892	13.140	1084.678	823.027
24.907	13.262	1083.858	822.935
25.921	13.198	1083.035	821.920
26.936	13.256	1081.976	821.331
27.950	13.294	1081.320	820.952
28.965	13.338	1080.067	820.145
29.980	13.523	1078.161	819.542
30.994	13.393	1077.679	818.458
32.009	13.540	1076.775	818.425
33.023	13.370	1075.613	816.631
34.038	13.447	1074.052	815.756
35.053	13.407	1073.705	815.224
36.067	13.442	1072.440	814.360
37.082	13.366	1071.606	813.284
38.096	13.456	1071.061	813.239
39.111	13.410	1070.510	812.525
40.126	13.275	1069.059	810.689
41.140	13.179	1068.174	809.476
42.155	13.150	1066.810	808.226
43.169	13.141	1066.005	807.504
44.184	13.135	1064.858	806.532
45.199	13.229	1064.031	806.293
46.213	13.171	1062.776	804.988
47.228	13.297	1061.433	804.513
48.242	13.299	1060.388	803.660
49.257	13.255	1059.527	802.721
50.271	13.216	1058.588	801.750
51.286	13.364	1057.672	801.705
52.301	13.418	1056.414	800.941
53.315	13.317	1055.569	799.739
54.330	13.244	1054.942	798.840
55.344	13.252	1053.869	797.995
56.359	13.359	1052.478	797.389
57.374	13.252	1052.085	796.506
58.388	13.212	1051.091	795.490
59.403	13.250	1050.311	795.013
60.417	13.120	1050.064	794.131
61.432	13.109	1049.362	793.475
62.447	13.121	1048.362	792.705
63.461	13.164	1047.256	792.008
64.476	13.095	1046.508	791.039
65.490	13.083	1045.572	790.204
66.505	13.042	1044.956	789.475
67.520	13.190	1044.266	789.589
68.534	13.115	1043.436	788.532
69.549	13.077	1043.111	788.038
70.563	13.338	1041.265	787.816
71.578	12.991	1040.954	785.858
72.593	13.072	1040.442	785.790
73.607	13.069	1039.589	785.061
74.622	13.197	1038.843	785.036
75.636	13.228	1037.627	784.197
76.651	13.105	1037.473	783.424
77.666	13.123	1036.440	782.660
78.680	13.035	1036.012	781.853
79.695	13.164	1035.242	781.813
80.709	13.142	1034.677	781.214
81.724	13.120	1034.180	780.663
82.739	13.287	1033.127	780.587
83.753	13.343	1032.474	780.290
84.768	13.421	1031.259	779.671
85.782	13.379	1030.534	778.854
86.797	13.222	1030.103	777.721
87.812	13.238	1028.691	776.662
88.826	13.310	1028.125	776.503
89.841	13.336	1026.937	775.660
90.855	13.310	1026.068	774.812
91.870	13.460	1024.770	774.468
92.884	13.355	1024.666	773.830
93.899	13.441	1023.081	772.964
94.914	13.475	1022.663	772.740
95.928	13.303	1022.180	771.503
96.943	13.564	1021.003	771.762
97.957	13.347	1019.818	769.791
98.972	13.480	1019.149	769.832
99.987	13.397	1018.511	768.901
101.001	13.374	1017.257	767.776
102.016	13.452	1016.393	767.421
103.030	13.464	1015.258	766.551
104.045	13.365	1014.947	765.787
105.060	13.463	1013.901	765.385
106.074	13.392	1013.037	764.336
107.089	13.360	1011.696	763.111
108.103	13.398	1011.320	762.933
109.118	13.238	1010.183	761.274
110.133	13.177	1009.184	760.171
111.147	13.211	1008.770	759.947
112.162	13.316	1007.563	759.454
113.176	13.361	1006.868	759.068
114.191	13.356	1006.328	758.573
115.206	13.328	1005.483	757.741
116.220	13.362	1004.243	756.896
117.235	13.368	1003.387	756.210
118.249	13.346	1002.569	755.427
119.264	13.387	1001.999	755.114
120.279	13.312	1000.890	753.873
121.293	13.347	1000.107	753.374
122.308	13.324	999.392	752.665
123.322	13.248	998.400	751.504
124.337	13.219	997.296	750.479
125.352	13.173	996.591	749.671
126.366	13.299	994.755	748.794
127.381	13.375	993.742	748.310
128.395	13.332	992.973	747.467
129.410	13.405	991.957	746.969
130.424	13.527	991.254	746.924
131.439	13.348	990.471	745.463
132.454	13.432	989.597	745.113
133.468	13.309	989.088	744.112
134.483	13.405	987.939	743.613
135.497	13.415	987.501	743.264
136.512	13.311	986.612	742.062
137.527	13.341	985.779	741.504
138.541	13.519	984.869	741.551
139.556	13.314	984.589	740.357
140.570	13.462	983.523	740.152
141.585	13.520	982.207	739.353
142.600	13.550	981.814	739.128
143.614	13.575	980.982	738.548
144.629	13.490	980.336	737.619
145.643	13.469	979.134	736.552
146.658	13.448	978.237	735.719
147.673	13.509	977.170	735.124
148.687	13.519	976.125	734.318
149.702	13.515	975.394	733.685
150.716	13.348	975.068	732.632
151.731	13.469	973.803	732.155
152.746	13.641	972.964	732.217
153.760	13.621	972.110	731.421
154.775	13.606	971.941	731.165
155.789	13.640	971.314	730.779
156.804	13.578	970.514	729.840
157.819	13.661	969.731	729.548
158.833	13.766	969.211	729.556
159.848	13.736	968.049	728.484
160.862	13.585	967.425	727.287
161.877	13.583	966.461	726.489
162.892	13.601	965.496	725.779
163.906	13.598	964.641	725.060
164.921	13.638	963.687	724.452
165.935	13.562	962.807	723.398
166.950	13.630	961.974	723.004
167.964	13.613	961.085	722.196
168.979	13.703	960.066	721.759
169.994	13.673	959.124	720.858
171.008	13.686	958.657	720.497
172.023	13.612	958.002	719.623
173.037	13.736	957.278	719.550
174.052	13.781	956.118	718.810
175.067	13.681	955.701	718.002
176.081	13.658	955.396	717.609
177.096	13.686	954.559	717.036
178.110	13.700	953.998	716.611
179.125	13.790	953.338	716.441
180.140	13.852	952.559	716.061
181.154	13.748	952.536	715.532
182.169	13.829	952.300	715.638
183.183	13.939	951.095	715.146
184.198	13.964	950.144	714.473
185.213	13.850	949.624	713.529
186.227	13.853	949.041	713.042
187.242	13.991	948.132	712.889
188.256	13.946	947.940	712.487
189.271	14.001	946.870	711.856
190.286	13.983	945.860	710.954
191.300	13.814	945.559	709.946
192.315	13.824	944.711	709.286
193.329	13.742	944.796	708.939
194.344	13.813	943.807	708.435
195.359	13.911	942.944	708.145
196.373	13.974	942.198	707.791
197.388	14.083	941.862	707.939
198.402	14.027	941.593	707.434
199.417	14.053	940.714	706.822
200.432	14.111	940.381	706.756
201.446	14.129	939.697	706.257
202.461	14.201	939.214	706.136
203.475	14.021	939.153	705.263
204.490	14.041	937.755	704.236
205.504	14.201	936.444	703.864
206.519	14.147	936.374	703.525
207.534	14.007	935.501	702.212
208.548	14.123	934.920	702.204
209.563	14.163	933.913	701.555
210.577	14.369	933.140	701.780
211.592	14.185	933.021	700.852
212.607	14.226	932.214	700.359
213.621	14.399	930.893	700.032
214.636	14.313	929.893	698.855
215.650	14.430	929.573	699.044
216.665	14.403	929.195	698.587
217.680	14.270	928.848	697.705
218.694	14.389	928.098	697.579
219.709	14.366	926.961	696.566
220.723	14.304	926.716	696.061
221.738	14.381	925.821	695.650
222.753	14.535	925.083	695.676
223.767	14.516	924.331	694.969
224.782	14.333	924.209	694.053
225.796	14.636	923.094	694.415
226.811	14.553	922.721	693.726
227.826	14.425	921.931	692.541
228.840	14.513	921.124	692.238
229.855	14.451	920.405	691.378
230.869	14.557	919.540	691.109
231.884	14.607	918.456	690.437
232.899	14.585	917.859	689.837
233.913	14.524	917.289	689.095
234.928	14.468	916.836	688.465
235.942	14.491	916.251	688.060
236.957	14.499	915.622	687.560
237.972	14.419	914.997	686.698
238.986	14.551	914.097	686.505
240.001	14.633	913.332	686.208
241.015	14.599	912.940	685.713
242.030	14.597	912.241	685.119
243.045	14.661	911.667	684.890
244.059	14.550	911.349	684.136
245.074	14.779	910.439	684.331
246.088	14.702	909.658	683.367
247.103	14.754	908.776	682.858
248.117	14.744	909.159	683.042
249.132	14.753	907.797	681.997
250.147	14.850	907.163	681.854
251.161	14.905	906.709	681.679
252.176	14.940	906.093	681.295
253.190	14.954	905.476	680.831
254.205	15.002	904.671	680.357
255.220	15.064	903.865	679.946
256.234	14.990	903.348	679.196
257.249	15.070	902.251	678.634
258.263	15.001	901.508	677.737
259.278	15.020	901.144	677.481
260.293	15.161	900.467	677.480
261.307	15.173	900.013	677.130
262.322	15.157	899.469	676.595
263.336	15.241	898.591	676.211
264.351	15.194	897.941	675.475
265.366	15.132	897.476	674.814
266.380	15.288	896.693	674.795
267.395	15.146	896.181	673.780
268.409	15.251	894.904	673.182
269.424	15.292	894.335	672.857
270.439	15.201	893.843	672.064
271.453	15.231	893.099	671.562
272.468	15.188	892.724	671.050
273.482	15.282	891.890	670.740
274.497	15.212	891.296	669.953
275.512	15.175	891.087	669.589
276.526	15.278	890.600	669.576
277.541	15.273	890.026	669.064
278.555	15.270	889.575	668.654
279.570	15.320	888.903	668.289
280.585	15.525	887.757	668.185
281.599	15.404	886.979	667.058
282.614	15.408	886.709	666.814
283.628	15.548	886.054	666.816
284.643	15.460	885.359	665.887
285.657	15.423	884.674	665.166
286.672	15.461	883.873	664.656
287.687	15.444	883.467	664.223
288.701	15.571	882.544	663.972
289.716	15.528	882.451	663.676
290.730	15.497	881.585	662.840
291.745	15.643	880.909	662.850
292.760	15.617	880.266	662.206
293.774	15.651	879.520	661.720
294.789	15.588	879.108	661.104
295.803	15.661	878.236	660.677
296.818	15.539	877.374	659.488
297.833	15.667	876.772	659.480
298.847	15.625	876.313	658.914
299.862	15.742	875.517	658.715
300.876	15.481	875.376	657.530
301.891	15.640	874.921	657.749
302.906	15.779	873.894	657.462
303.920	15.801	873.501	657.196
304.935	15.817	872.702	656.601
305.949	15.894	872.044	656.345
306.964	15.841	871.519	655.687
307.979	15.816	870.635	654.866
308.993	15.847	870.480	654.813
310.008	15.927	869.453	654.293
311.022	15.923	869.331	654.128
312.037	15.691	868.985	652.908
313.052	15.974	867.559	652.877
314.066	15.933	867.064	652.287
315.081	16.010	866.727	652.272
316.095	15.736	866.865	651.261
317.110	15.952	865.809	651.241
318.125	15.888	865.255	650.520
319.139	15.900	864.736	650.119
320.154	15.862	864.494	649.734
321.168	15.914	863.183	648.892
322.183	16.059	862.829	649.126
323.197	15.909	862.606	648.325
324.212	16.008	862.084	648.256
325.227	16.022	861.490	647.806
326.241	16.013	860.972	647.324
327.256	16.009	860.221	646.686
328.270	16.106	859.762	646.657
329.285	16.100	858.769	645.831
330.300	15.951	858.472	644.980
331.314	16.055	857.974	644.945
332.329	16.132	857.666	644.952
333.343	16.023	857.114	644.060
334.358	16.198	856.544	644.246
335.373	16.114	856.481	643.820
336.387	16.165	855.992	643.591
337.402	16.118	855.940	643.315
338.416	16.067	855.703	642.883
339.431	16.292	854.755	642.973
340.446	16.396	854.236	642.920
341.460	16.349	853.862	642.403
342.475	16.394	853.598	642.319
343.489	16.425	853.174	642.063
344.504	16.308	852.463	641.025
345.519	16.465	852.177	641.350
346.533	16.375	851.301	640.293
347.548	16.488	850.888	640.353
348.562	16.446	850.486	639.837
349.577	16.392	849.874	639.112
350.592	16.370	849.001	638.315
351.606	16.389	848.315	637.816
352.621	16.353	847.953	637.352
353.635	16.486	847.037	637.110
354.650	16.586	846.373	636.928
355.665	16.443	846.388	636.346
356.679	16.457	845.684	635.812
357.694	16.584	844.850	635.608
358.708	16.538	844.326	634.983
359.723	16.436	843.691	634.065
360.738	16.599	843.038	634.132
361.752	16.643	842.359	633.729
362.767	16.562	841.671	632.852
363.781	16.708	840.993	632.834
364.796	16.682	841.134	632.787
365.810	16.712	840.801	632.591
366.825	16.755	840.207	632.248
367.840	16.741	839.983	631.972
368.854	16.730	839.309	631.366
369.869	16.777	838.644	630.989
370.883	16.710	838.200	630.347
371.898	16.903	837.908	630.792
372.913	16.869	837.406	630.229
373.927	16.776	837.265	629.721
374.942	16.870	836.552	629.481
375.956	16.908	836.123	629.244
376.971	16.989	835.331	628.892
377.986	16.944	835.236	628.596
379.000	17.128	834.273	628.498
380.015	16.928	834.028	627.517
381.029	16.981	833.244	627.067
382.044	16.985	832.961	626.815
383.059	17.218	832.043	626.926
384.073	16.880	831.685	625.355
385.088	17.037	830.900	625.289
386.102	17.014	830.622	624.941
387.117	17.167	829.837	624.857
388.132	17.154	829.132	624.221
389.146	17.101	828.957	623.842
390.161	16.911	828.819	622.982
391.175	17.000	828.019	622.656
392.190	17.111	827.575	622.673
393.205	17.036	827.140	622.014
394.219	17.222	826.253	621.974
395.234	17.084	826.147	621.335
396.248	16.970	826.096	620.823
397.263	17.161	825.464	620.991
398.278	16.972	825.251	620.086
399.292	17.135	824.520	620.076
400.307	17.133	823.953	619.587
401.321	17.184	823.762	619.577
402.336	17.053	823.400	618.771
403.350	17.244	822.873	619.018
404.365	17.189	822.502	618.480
405.380	17.344	821.354	618.127
406.394	17.287	821.085	617.663
407.409	17.329	820.489	617.313
408.423	17.362	820.541	617.417
409.438	17.499	820.165	617.578
410.453	17.561	819.181	617.006
411.467	17.465	819.027	616.486
412.482	17.516	818.299	616.069
413.496	17.678	818.006	616.380
414.511	17.545	818.027	615.859
415.526	17.619	817.357	615.568
416.540	17.700	816.658	615.279
417.555	17.603	816.310	614.614
418.569	17.746	815.910	614.772
419.584	17.685	815.460	614.159
420.599	17.586	815.047	613.437
421.613	110.414	1297.116	1475.434
422.628	95.432	1367.338	1475.505
