DTS Sentinel unit serial number:	SN413079Multiplexer serial number:	ORYXHardware model number:	OX4-SRSoftware version number:	ORYX F/W v4.00 Oryx Data Collector v3.7.2.0data status	okinstallation	princeton_trtdifferential loss correction	single-endedforward channel	channel 1reverse channel	N/Adate	2019/09/13time	11:54:35forward acquisition time	60.00reverse acquisition time	0.00gamma	496.2192k internal	0.2312k external	0.2312temperature offset calibration	1.0164default loss term (dB/km)	0.3790temperature slope calibration	1.0000multiplexer offset coefficient	1.0000multiplexer slope coefficient	1.0000fibre end	0.00T internal ref (°C)	33.44T ext. ref 1 (°C)	4.57T ext. ref 2 (°C)	30.35length (m)	temperature (°C)	Stokes	anti-Stokes-747.200	110.428	-0.251	0.306
-746.185	305.217	0.111	0.209
-745.171	-200.000	-0.340	0.000
-744.156	151.806	-0.156	-0.215
-743.142	60.245	-0.151	0.152
-742.127	800.000	-0.025	0.089
-741.112	800.000	0.077	0.330
-740.098	0.345	0.081	0.058
-739.083	-9.983	0.177	0.119
-738.069	-94.698	-0.333	0.092
-737.054	649.531	-0.060	0.156
-736.039	379.646	-0.102	0.212
-735.025	-137.466	0.085	0.010
-734.010	-200.000	0.012	-0.306
-732.996	-162.469	-0.233	0.012
-731.981	-199.378	-0.089	0.000
-730.966	-107.919	-0.116	-0.026
-729.952	209.069	-0.088	-0.139
-728.937	27.231	-0.030	0.026
-727.923	-32.949	-0.339	0.191
-726.908	-59.829	-0.290	-0.126
-725.894	9.223	-0.240	-0.184
-724.879	-5.135	-0.141	0.099
-723.864	-63.334	-0.360	-0.150
-722.850	241.655	-0.025	0.042
-721.835	187.909	-0.141	-0.213
-720.821	686.700	0.076	-0.201
-719.806	-122.947	0.135	0.022
-718.791	-27.823	0.130	-0.076
-717.777	-200.000	0.012	0.186
-716.762	-200.000	0.039	-0.188
-715.748	279.444	0.145	0.263
-714.733	40.877	-0.122	-0.111
-713.718	-26.118	-0.103	-0.061
-712.704	-27.018	-0.412	-0.244
-711.689	800.000	-0.072	-0.253
-710.675	63.037	0.291	0.296
-709.660	503.612	-0.037	-0.087
-708.645	-200.000	-0.005	0.082
-707.631	333.809	-0.129	-0.253
-706.616	-18.292	-0.073	0.046
-705.602	-200.000	0.026	-0.159
-704.587	70.624	-0.036	0.038
-703.572	625.137	0.026	0.067
-702.558	276.670	0.062	0.112
-701.543	-101.852	0.090	0.022
-700.529	-87.516	-0.198	0.061
-699.514	-126.796	0.059	0.009
-698.499	-80.586	-0.106	0.036
-697.485	673.988	0.061	-0.159
-696.470	800.000	-0.067	-0.282
-695.456	650.694	0.112	-0.291
-694.441	-22.730	-0.200	0.122
-693.426	-82.237	0.233	-0.077
-692.412	-18.954	0.233	0.147
-691.397	-200.000	0.046	-0.298
-690.383	-200.000	-0.027	-0.142
-689.368	195.065	0.159	-0.245
-688.354	31.756	0.080	0.069
-687.339	225.285	-0.180	-0.295
-686.324	747.804	-0.032	0.088
-685.310	77.007	0.113	0.122
-684.295	0.351	0.056	-0.041
-683.281	64.097	0.113	-0.115
-682.266	76.639	-0.229	0.246
-681.251	-200.000	0.012	0.064
-680.237	-17.962	-0.187	0.119
-679.222	-110.707	-0.118	-0.025
-678.208	-200.000	0.008	-0.050
-677.193	-16.722	-0.271	0.173
-676.178	235.054	-0.071	-0.119
-675.164	-50.704	0.240	-0.114
-674.149	-125.527	-0.384	-0.059
-673.135	-112.867	-0.046	-0.009
-672.120	-200.000	0.002	0.238
-671.105	800.000	0.046	-0.181
-670.091	149.210	0.179	-0.245
-669.076	592.531	0.050	0.126
-668.062	-85.627	0.446	-0.140
-667.047	-124.088	-0.190	-0.030
-666.032	53.093	0.225	-0.218
-665.018	153.119	0.163	0.225
-664.003	-200.000	0.014	0.276
-662.989	284.116	-0.178	0.323
-661.974	-54.490	-0.245	-0.112
-660.959	-200.000	0.070	0.327
-659.945	272.646	-0.138	-0.247
-658.930	35.657	-0.108	-0.096
-657.916	-83.423	-0.080	-0.026
-656.901	-49.186	0.170	-0.082
-655.886	-200.000	-0.005	-0.279
-654.872	800.000	-0.113	0.327
-653.857	-200.000	-0.033	-0.170
-652.843	-23.508	0.032	-0.020
-651.828	800.000	0.012	0.038
-650.814	-80.189	-0.069	-0.023
-649.799	-62.752	-0.117	0.049
-648.784	-200.000	-0.040	-0.195
-647.770	-22.686	-0.266	0.162
-646.755	-200.000	-0.053	0.284
-645.741	-53.400	0.317	0.147
-644.726	10.913	0.329	-0.254
-643.711	106.132	0.130	0.155
-642.697	-16.909	-0.201	-0.128
-641.682	-200.000	-0.023	-0.291
-640.668	-200.000	-0.015	-0.146
-639.653	-81.775	-0.175	0.058
-638.638	-6.207	0.142	0.098
-637.624	345.142	-0.137	-0.271
-636.609	-200.000	0.039	0.402
-635.595	-81.118	0.089	-0.030
-634.580	-18.195	0.269	-0.170
-633.565	-73.132	-0.117	-0.043
-632.551	-155.592	0.253	-0.016
-631.536	-118.982	-0.259	-0.046
-630.522	-132.392	0.100	-0.013
-629.507	316.758	0.025	-0.048
-628.492	-200.000	-0.082	-0.369
-627.478	-59.619	-0.157	0.068
-626.463	-123.396	-0.022	0.004
-625.449	-14.860	-0.354	-0.230
-624.434	125.457	-0.098	0.125
-623.419	440.013	-0.059	0.129
-622.405	190.246	0.125	0.190
-621.390	800.000	-0.015	0.051
-620.376	-30.781	-0.100	0.057
-619.361	-38.158	-0.068	0.036
-618.346	263.321	-0.157	-0.275
-617.332	65.697	0.215	0.219
-616.317	-200.000	0.025	0.335
-615.303	30.762	-0.200	-0.173
-614.288	-200.000	-0.001	0.008
-613.273	800.000	-0.047	0.188
-612.259	248.797	-0.100	-0.171
-611.244	-103.204	-0.107	-0.026
-610.230	-71.019	-0.181	0.069
-609.215	-41.266	0.158	-0.082
-608.201	300.888	0.081	-0.151
-607.186	717.345	-0.112	-0.300
-606.171	-95.762	-0.281	0.076
-605.157	-94.146	0.106	0.029
-604.142	800.000	0.068	-0.240
-603.128	800.000	0.046	0.195
-602.113	235.824	-0.105	0.175
-601.098	-45.872	0.266	-0.133
-600.084	-33.037	-0.088	0.049
-599.069	6.172	-0.079	0.059
-598.055	-200.000	-0.055	-0.300
-597.040	-195.835	-0.166	-0.001
-596.025	144.819	0.309	-0.417
-595.011	74.492	0.145	0.154
-593.996	53.315	-0.131	-0.127
-592.982	-101.076	-0.262	-0.065
-591.967	226.477	0.175	-0.286
-590.952	-186.014	0.249	0.004
-589.938	800.000	0.030	-0.085
-588.923	46.972	0.208	0.195
-587.909	-200.000	0.019	0.168
-586.894	-52.080	-0.295	-0.138
-585.879	-200.000	-0.013	0.062
-584.865	-57.239	0.285	-0.126
-583.850	145.222	-0.162	0.218
-582.836	-200.000	-0.030	0.136
-581.821	-94.302	-0.133	-0.037
-580.806	-140.427	-0.199	0.021
-579.792	-200.000	-0.059	0.269
-578.777	200.083	0.089	-0.138
-577.763	-200.000	-0.024	-0.179
-576.748	800.000	0.097	-0.319
-575.733	800.000	0.107	-0.315
-574.719	83.931	0.147	-0.161
-573.704	-200.000	-0.074	-0.362
-572.690	547.812	0.084	-0.202
-571.675	21.806	0.240	0.197
-570.661	-40.638	-0.064	0.034
-569.646	-200.000	-0.002	-0.258
-568.631	-31.690	0.296	0.168
-567.617	15.936	-0.203	0.161
-566.602	-182.240	0.283	0.005
-565.588	-74.011	0.135	-0.049
-564.573	-71.720	-0.207	-0.078
-563.558	800.000	0.052	0.186
-562.544	-124.329	0.126	-0.020
-561.529	-181.278	-0.203	0.004
-560.515	16.102	-0.047	-0.037
-559.500	10.024	0.103	0.079
-558.485	-200.000	0.039	-0.279
-557.471	-152.504	-0.222	-0.016
-556.456	-117.589	0.316	-0.057
-555.442	36.737	0.189	-0.168
-554.427	-138.961	0.153	0.017
-553.412	-132.916	-0.340	0.044
-552.398	489.283	-0.040	-0.091
-551.383	-181.761	-0.285	0.006
-550.369	278.084	0.101	0.181
-549.354	-200.000	0.041	-0.215
-548.339	-200.000	0.038	0.340
-547.325	183.892	-0.052	0.078
-546.310	800.000	0.035	-0.126
-545.296	-46.757	-0.192	-0.095
-544.281	-101.286	-0.401	-0.099
-543.266	-52.277	0.347	0.162
-542.252	208.575	0.050	-0.079
-541.237	77.767	0.136	0.146
-540.223	125.783	-0.130	0.166
-539.208	-75.368	-0.317	0.114
-538.193	191.635	-0.255	-0.387
-537.179	183.799	-0.086	-0.129
-536.164	136.415	-0.146	0.192
-535.150	189.378	0.070	0.106
-534.135	-98.769	-0.060	-0.015
-533.121	-200.000	-0.002	-0.080
-532.106	38.773	0.244	-0.219
-531.091	304.815	0.065	0.121
-530.077	-116.084	-0.164	-0.031
-529.062	-109.267	-0.185	-0.039
-528.048	-35.826	0.419	0.228
-527.033	-190.134	0.157	-0.002
-526.018	-86.527	-0.071	0.022
-525.004	800.000	0.069	0.208
-523.989	800.000	0.059	0.188
-522.975	-43.217	-0.179	-0.091
-521.960	-72.008	-0.074	0.028
-520.945	-25.701	-0.149	-0.088
-519.931	170.925	-0.215	-0.309
-518.916	62.850	0.139	-0.140
-517.902	11.806	0.021	-0.016
-516.887	-11.423	0.195	-0.129
-515.872	800.000	-0.080	-0.267
-514.858	-200.000	-0.024	-0.121
-513.843	-200.000	0.010	-0.118
-512.829	-69.711	-0.255	0.098
-511.814	156.276	-0.087	-0.121
-510.799	-200.000	0.004	0.135
-509.785	-96.262	0.237	-0.063
-508.770	93.710	0.168	-0.191
-507.756	-141.780	0.118	0.012
-506.741	-2.799	-0.095	-0.066
-505.726	-90.383	0.226	-0.066
-504.712	-200.000	0.049	-0.293
-503.697	-68.241	-0.214	0.084
-502.683	35.717	0.039	-0.035
-501.668	-200.000	0.051	0.433
-500.653	146.631	0.108	-0.145
-499.639	800.000	0.037	0.123
-498.624	-200.000	-0.002	0.220
-497.610	-83.647	-0.230	-0.074
-496.595	-87.459	0.125	-0.038
-495.581	138.771	0.059	-0.079
-494.566	123.232	0.058	-0.073
-493.551	-200.000	-0.012	0.107
-492.537	-123.854	0.195	-0.031
-491.522	-46.002	0.580	0.287
-490.508	-200.000	0.031	-0.154
-489.493	334.390	-0.050	-0.096
-488.478	-200.000	0.034	-0.249
-487.464	75.296	-0.206	0.218
-486.449	204.191	0.097	0.151
-485.435	-9.209	0.203	0.136
-484.420	386.147	-0.136	-0.282
-483.405	-5.953	0.176	-0.121
-482.391	-42.269	0.198	-0.102
-481.376	-6.639	-0.108	0.074
-480.362	-200.000	0.029	0.171
-479.347	-176.342	0.114	-0.003
-478.332	-92.804	0.317	0.089
-477.318	-200.000	-0.015	-0.322
-476.303	-200.000	0.040	0.193
-475.289	122.796	-0.223	0.280
-474.274	222.409	-0.088	0.142
-473.259	-15.001	0.137	0.088
-472.245	-88.891	-0.076	0.023
-471.230	82.506	0.164	0.178
-470.216	-22.047	0.314	0.192
-469.201	800.000	-0.028	0.094
-468.186	-105.688	0.368	0.084
-467.172	-159.711	-0.048	-0.003
-466.157	-148.230	-0.167	0.014
-465.143	-135.897	0.243	0.029
-464.128	-21.977	-0.110	-0.067
-463.113	74.603	-0.098	0.103
-462.099	-56.658	0.230	-0.102
-461.084	-33.812	0.192	-0.106
-460.070	-200.000	0.024	0.325
-459.055	-126.941	0.496	0.073
-458.040	-28.445	-0.151	-0.088
-457.026	77.184	0.175	-0.186
-456.011	139.775	-0.110	-0.145
-454.997	-154.411	-0.166	-0.011
-453.982	508.018	0.049	-0.114
-452.968	217.444	-0.161	0.257
-451.953	-200.000	-0.007	-0.035
-450.938	800.000	-0.084	-0.251
-449.924	10.195	-0.210	-0.161
-448.909	96.070	-0.141	0.161
-447.895	-162.629	-0.186	-0.009
-446.880	-71.519	-0.175	0.066
-445.865	296.355	-0.132	-0.243
-444.851	-97.934	-0.245	-0.063
-443.836	-164.207	-0.267	0.012
-442.822	-200.000	-0.007	-0.301
-441.807	596.514	0.066	0.163
-440.792	-14.122	0.137	0.089
-439.778	179.563	0.093	-0.136
-438.763	-181.034	-0.296	-0.006
-437.749	-200.000	-0.016	-0.101
-436.734	-89.944	-0.121	0.035
-435.719	-87.417	0.346	0.105
-434.705	144.991	0.167	-0.224
-433.690	-165.512	0.181	0.008
-432.676	-190.388	0.515	0.006
-431.661	131.891	-0.121	-0.156
-430.646	-200.000	0.062	-0.379
-429.632	-200.000	0.011	0.196
-428.617	300.294	-0.219	0.405
-427.603	-49.803	0.119	0.057
-426.588	-57.903	0.073	0.032
-425.573	23.588	0.049	0.040
-424.559	-200.000	-0.012	-0.415
-423.544	-182.929	-0.288	-0.005
-422.530	-90.172	0.130	-0.038
-421.515	727.390	0.064	0.171
-420.500	-200.000	0.017	-0.161
-419.486	-200.000	0.020	0.152
-418.471	65.821	0.318	-0.323
-417.457	800.000	0.034	-0.130
-416.442	-10.087	-0.514	-0.342
-415.428	41.076	-0.178	0.161
-414.413	-200.000	0.002	0.100
-413.398	110.947	-0.201	0.243
-412.384	-165.123	0.157	0.007
-411.369	-200.000	0.016	-0.123
-410.355	232.494	0.123	0.202
-409.340	-108.474	-0.243	0.052
-408.325	-200.000	-0.014	0.303
-407.311	-200.000	-0.312	0.001
-406.296	-183.998	-0.107	-0.002
-405.282	-66.463	-0.252	0.100
-404.267	49.639	0.222	0.209
-403.252	-111.841	0.162	0.033
-402.238	135.829	0.161	-0.210
-401.223	-55.551	0.269	0.121
-400.209	-143.765	-0.041	-0.004
-399.194	31.662	-0.167	0.144
-398.179	-200.000	-0.014	-0.157
-397.165	-86.214	0.283	0.087
-396.150	550.369	0.095	0.227
-395.136	-200.000	-0.024	0.288
-394.121	800.000	0.107	-0.368
-393.106	273.292	-0.262	-0.464
-392.092	-13.918	-0.228	-0.148
-391.077	-109.204	0.166	0.035
-390.063	72.733	-0.166	-0.174
-389.048	236.211	-0.119	0.197
-388.033	-200.000	0.094	0.461
-387.019	-44.894	0.349	0.174
-386.004	110.123	-0.105	0.126
-384.990	190.144	0.032	0.049
-383.975	-107.002	-0.256	-0.057
-382.960	-3.391	-0.085	0.059
-381.946	-20.751	0.144	-0.089
-380.931	-200.000	-0.008	-0.102
-379.917	-52.549	0.143	-0.066
-378.902	-200.000	0.017	-0.237
-377.888	-78.414	-0.211	0.072
-376.873	800.000	0.051	-0.212
-375.858	223.475	-0.174	-0.281
-374.844	-106.863	-0.387	0.086
-373.829	-200.000	0.163	0.000
-372.815	89.603	0.074	-0.083
-371.800	74.029	-0.116	0.122
-370.785	741.611	0.054	0.144
-369.771	-135.542	0.150	0.018
-368.756	88.980	-0.118	0.132
-367.742	-7.514	-0.286	0.194
-366.727	-10.396	-0.049	0.033
-365.712	-149.612	0.312	0.025
-364.698	112.764	-0.160	-0.194
-363.683	48.309	-0.199	-0.186
-362.669	7.213	0.356	0.266
-361.654	175.160	-0.036	-0.053
-360.639	14.880	0.407	0.318
-359.625	-200.000	0.003	-0.269
-358.610	-200.000	0.013	-0.369
-357.596	338.310	-0.142	-0.276
-356.581	-200.000	-0.000	-0.039
-355.566	-200.000	-0.006	0.047
-354.552	-28.192	-0.395	0.228
-353.537	449.480	0.074	0.163
-352.523	59.969	0.185	-0.183
-351.508	-122.666	0.235	0.038
-350.493	-126.904	-0.211	-0.031
-349.479	-200.000	0.038	-0.221
-348.464	-200.000	0.042	0.209
-347.450	154.302	0.103	0.141
-346.435	735.291	0.042	0.112
-345.420	30.587	0.138	0.118
-344.406	-117.447	0.226	-0.041
-343.391	91.001	0.310	-0.347
-342.377	-168.755	0.127	0.005
-341.362	-200.000	-0.007	0.078
-340.348	-21.848	-0.274	-0.166
-339.333	-200.000	0.002	-0.056
-338.318	534.491	0.106	0.251
-337.304	-39.600	0.213	-0.111
-336.289	637.046	0.029	0.073
-335.275	-60.124	0.262	-0.112
-334.260	-42.220	0.237	-0.121
-333.245	22.643	0.128	-0.105
-332.231	-186.302	-0.300	0.004
-331.216	-73.740	-0.343	0.125
-330.202	227.472	-0.067	0.109
-329.187	488.407	0.141	0.322
-328.172	33.763	-0.062	0.054
-327.158	281.311	0.112	0.200
-326.143	-200.000	0.018	-0.248
-325.129	-103.872	-0.127	0.030
-324.114	-20.008	0.210	0.129
-323.099	800.000	0.115	0.454
-322.085	262.369	-0.040	-0.069
-321.070	730.469	-0.121	-0.323
-320.056	-13.014	-0.333	0.216
-319.041	800.000	-0.054	0.215
-318.026	800.000	-0.161	0.459
-317.012	-200.000	-0.007	0.484
-315.997	-200.000	-0.010	-0.114
-314.983	-200.000	-0.038	-0.190
-313.968	458.908	0.240	0.532
-312.953	-39.423	-0.211	-0.111
-311.939	116.822	-0.354	-0.434
-310.924	-76.822	0.240	-0.084
-309.910	-80.282	0.290	-0.097
-308.895	-162.472	-0.126	-0.006
-307.880	-182.739	-0.204	-0.004
-306.866	-14.419	-0.072	0.046
-305.851	-146.529	0.279	0.024
-304.837	792.927	-0.083	0.229
-303.822	682.976	0.158	0.412
-302.807	800.000	-0.114	0.422
-301.793	-15.122	0.249	0.159
-300.778	78.217	0.123	-0.131
-299.764	115.269	-0.232	-0.283
-298.749	-200.000	0.056	-0.263
-297.735	-200.000	0.008	-0.049
-296.720	577.758	0.111	0.271
-295.705	-25.491	-0.062	0.036
-294.691	-73.435	0.156	0.057
-293.676	1.003	0.110	0.078
-292.662	260.810	-0.083	0.144
-291.647	-48.600	-0.260	-0.124
-290.632	-59.759	-0.250	0.107
-289.618	-88.843	0.126	0.037
-288.603	272.736	-0.031	0.055
-287.589	-98.485	-0.354	-0.090
-286.574	108.817	0.137	0.163
-285.559	-97.054	0.304	0.079
-284.545	136.194	0.044	0.057
-283.530	94.141	-0.160	0.181
-282.516	8.093	0.031	0.023
-281.501	-45.451	-0.228	-0.112
-280.486	200.000	0.277	0.424
-279.472	76.966	-0.145	0.154
-278.457	-122.954	-0.157	-0.025
-277.443	800.000	-0.043	-0.123
-276.428	-200.000	0.019	-0.246
-275.413	434.962	0.063	0.137
-274.399	-93.838	-0.213	-0.058
-273.384	-200.000	-0.038	0.269
-272.370	-200.000	0.025	0.217
-271.355	-200.000	0.001	0.283
-270.340	26.119	0.110	0.091
-269.326	-119.412	0.322	-0.056
-268.311	37.270	0.153	0.135
-267.297	415.299	0.047	0.099
-266.282	-163.075	-0.333	0.016
-265.267	-73.143	-0.079	0.029
-264.253	92.914	0.196	0.221
-263.238	796.268	-0.039	-0.108
-262.224	-200.000	0.019	-0.168
-261.209	-143.973	0.198	0.019
-260.195	-148.381	-0.262	-0.021
-259.180	6.198	-0.199	-0.147
-258.165	97.439	0.116	0.133
-257.151	435.383	-0.135	0.293
-256.136	-67.258	-0.255	0.100
-255.122	-56.717	0.078	0.034
-254.107	24.874	0.287	-0.237
-253.092	-94.361	0.199	0.054
-252.078	-65.455	0.183	-0.073
-251.063	84.442	-0.086	-0.094
-250.049	45.450	0.111	0.102
-249.034	-43.609	0.434	-0.218
-248.019	-200.000	-0.018	-0.237
-247.005	-158.960	0.292	0.017
-245.990	-200.000	-0.014	0.081
-244.976	-22.377	0.231	0.140
-243.961	800.000	-0.030	-0.108
-242.946	-200.000	-0.081	-0.364
-241.932	-34.190	0.190	-0.104
-240.917	-164.707	-0.208	-0.009
-239.903	457.295	-0.033	-0.073
-238.888	-200.000	-0.024	0.158
-237.873	753.135	-0.113	0.302
-236.859	-117.606	0.313	0.056
-235.844	-200.000	0.026	-0.385
-234.830	591.912	-0.046	-0.113
-233.815	800.000	-0.057	-0.215
-232.800	-200.000	-0.012	-0.078
-231.786	115.234	0.022	0.027
-230.771	-98.903	-0.233	0.059
-229.757	-163.829	0.306	-0.014
-228.742	105.586	-0.268	-0.315
-227.727	46.582	-0.054	0.050
-226.713	118.234	-0.132	-0.162
-225.698	42.636	0.023	0.021
-224.684	432.719	-0.050	-0.109
-223.669	220.275	-0.053	-0.084
-222.655	-200.000	-0.027	-0.291
-221.640	523.368	-0.156	-0.366
-220.625	-162.066	-0.038	-0.002
-219.611	223.564	-0.176	0.283
-218.596	-120.445	0.240	0.041
-217.582	-200.000	-0.037	0.206
-216.567	-200.000	0.044	0.550
-215.552	71.672	0.077	0.080
-214.538	260.693	0.049	-0.083
-213.523	-200.000	0.017	-0.194
-212.509	-89.481	-0.102	0.030
-211.494	26.661	-0.197	0.164
-210.479	23.877	-0.124	-0.102
-209.465	441.115	-0.095	0.207
-208.450	-69.950	-0.059	0.022
-207.436	-93.098	-0.288	-0.080
-206.421	368.587	0.131	-0.264
-205.406	-200.000	-0.005	-0.238
-204.392	-200.000	0.021	0.102
-203.377	-97.714	-0.242	0.062
-202.363	99.426	0.183	0.210
-201.348	-157.690	-0.166	-0.010
-200.333	-40.262	-0.331	0.171
-199.319	800.000	0.128	-0.418
-198.304	690.576	-0.101	-0.264
-197.290	117.599	-0.285	-0.348
-196.275	-200.000	-0.001	0.100
-195.260	800.000	-0.068	0.281
-194.246	-200.000	-0.007	-0.113
-193.231	-200.000	0.041	-0.216
-192.217	-200.000	-0.005	0.069
-191.202	-53.500	0.128	-0.058
-190.187	-146.453	-0.388	0.034
-189.173	-46.044	0.118	0.058
-188.158	209.128	0.118	-0.183
-187.144	-200.000	0.032	0.453
-186.129	143.405	-0.211	-0.279
-185.114	440.515	0.063	0.137
-184.100	137.972	-0.169	-0.220
-183.085	-105.347	-0.477	-0.108
-182.071	99.961	-0.174	0.200
-181.056	122.578	0.125	-0.155
-180.042	-200.000	0.061	0.354
-179.027	-56.104	-0.336	0.149
-178.012	61.057	0.070	-0.069
-176.998	76.989	-0.117	0.124
-175.983	105.053	-0.028	0.033
-174.969	-83.416	0.155	0.049
-173.954	130.597	-0.085	0.108
-172.939	-200.000	0.022	0.173
-171.925	93.051	0.165	0.186
-170.910	800.000	0.044	-0.163
-169.896	800.000	0.103	-0.414
-168.881	800.000	0.047	0.197
-167.866	147.680	0.116	0.155
-166.852	-122.513	0.051	0.008
-165.837	-200.000	-0.002	-0.405
-164.823	-200.000	0.021	0.170
-163.808	800.000	0.042	0.129
-162.793	-91.593	-0.107	-0.030
-161.779	-106.225	0.084	-0.019
-160.764	-200.000	-0.019	0.108
-159.750	71.462	0.182	0.187
-158.735	-2.094	-0.125	-0.087
-157.720	-126.761	-0.107	-0.016
-156.706	-27.076	0.074	0.043
-155.691	-69.786	0.442	-0.168
-154.677	-69.559	-0.165	-0.063
-153.662	-172.791	0.058	0.002
-152.647	-32.506	-0.236	-0.130
-151.633	668.113	0.099	0.253
-150.618	14.364	0.254	-0.197
-149.604	9.723	-0.201	0.151
-148.589	-38.671	-0.117	-0.061
-147.574	27.684	-0.285	-0.238
-146.560	-200.000	0.030	-0.432
-145.545	2.335	0.275	-0.197
-144.531	-200.000	-0.016	0.282
-143.516	-25.882	0.290	-0.169
-142.502	800.000	0.089	-0.274
-141.487	278.997	-0.147	-0.261
-140.472	-174.714	0.228	-0.006
-139.458	-111.116	0.232	-0.047
-138.443	800.000	0.154	0.510
-137.429	70.748	-0.107	-0.110
-136.414	-83.701	-0.267	-0.085
-135.399	32.610	0.195	-0.167
-134.385	-95.620	-0.581	0.154
-133.370	-29.628	0.149	-0.084
-132.356	800.000	0.068	0.208
-131.341	800.000	0.105	-0.296
-130.326	414.048	-0.065	0.137
-129.312	-34.073	-0.175	0.095
-128.297	-65.881	-0.279	0.110
-127.283	753.852	0.057	-0.152
-126.268	-112.643	-0.163	0.032
-125.253	179.664	-0.107	-0.155
-124.239	-100.820	-0.044	0.011
-123.224	-134.846	0.094	0.011
-122.210	800.000	0.101	0.289
-121.195	-45.363	-0.523	-0.257
-120.180	-200.000	-0.073	0.348
-119.166	800.000	-0.080	0.277
-118.151	-200.000	0.017	0.269
-117.137	-100.293	-0.261	0.064
-116.122	800.000	-0.037	0.156
-115.107	800.000	0.115	-0.335
-114.093	-170.417	0.240	-0.008
-113.078	360.172	0.046	-0.092
-112.064	151.146	0.148	0.199
-111.049	-200.000	-0.017	-0.192
-110.034	-200.000	-0.001	-0.100
-109.020	22.465	-0.227	0.183
-108.005	43.582	-0.091	0.083
-106.991	422.407	0.024	0.052
-105.976	-106.038	-0.249	0.055
-104.962	-146.036	0.237	-0.021
-103.947	-160.605	-0.214	0.011
-102.932	-200.000	0.041	0.254
-101.918	19.300	0.082	-0.065
-100.903	-42.155	0.281	0.142
-99.889	67.890	-0.061	-0.061
-98.874	800.000	-0.063	0.216
-97.859	-200.000	0.058	0.306
-96.845	647.787	-0.103	-0.261
-95.830	52.254	0.094	0.089
-94.816	53.389	-0.145	-0.137
-93.801	-38.512	-0.235	0.123
-92.786	-140.728	0.277	-0.028
-91.772	97.596	0.088	-0.100
-90.757	-13.896	0.431	0.275
-89.743	81.734	-0.075	0.080
-88.728	269.499	-0.214	-0.372
-87.713	317.003	0.095	0.177
-86.699	-175.129	0.161	-0.004
-85.684	-200.000	0.045	0.378
-84.670	32.437	0.221	0.188
-83.655	800.000	-0.073	-0.316
-82.640	61.093	-0.187	0.183
-81.626	-200.000	0.040	0.186
-80.611	-168.299	-0.019	-0.001
-79.597	20.098	0.183	0.146
-78.582	475.359	-0.048	0.108
-77.567	-38.964	-0.188	-0.098
-76.553	-200.000	-0.001	0.124
-75.538	-25.088	0.139	0.081
-74.524	83.515	-0.133	-0.144
-73.509	140.353	-0.181	-0.236
-72.494	-37.585	0.153	0.081
-71.480	-200.000	0.012	-0.084
-70.465	246.920	-0.183	-0.305
-69.451	-200.000	-0.011	-0.112
-68.436	-200.000	-0.014	0.258
-67.422	-85.649	0.231	0.071
-66.407	-0.773	0.228	0.160
-65.392	-29.032	0.356	0.202
-64.378	-63.630	0.277	0.112
-63.363	-200.000	0.015	0.159
-62.349	197.836	0.078	0.117
-61.334	18.284	-0.872	-0.688
-60.319	-200.000	0.055	0.266
-59.305	194.060	-0.419	-0.627
-58.290	88.994	0.747	0.821
-57.276	800.000	0.491	1.509
-56.261	-200.000	98.242	584.860
-55.246	602.971	1431.237	3515.738
-54.232	181.541	2641.291	3838.138
-53.217	118.419	2195.587	2675.683
-52.203	45.124	1638.456	1491.280
-51.188	36.901	1370.798	1197.077
-50.173	33.589	1328.422	1140.152
-49.159	56.142	1377.671	1320.911
-48.144	59.271	1394.797	1356.384
-47.130	37.202	1350.055	1180.607
-46.115	33.549	1331.999	1142.799
-45.100	33.363	1327.690	1137.937
-44.086	33.352	1324.583	1135.166
-43.071	33.255	1322.907	1133.105
-42.057	33.262	1320.502	1131.040
-41.042	33.217	1319.091	1129.516
-40.027	33.453	1317.472	1129.495
-39.013	33.260	1316.307	1127.300
-37.998	33.419	1313.875	1126.120
-36.984	33.397	1312.324	1124.613
-35.969	33.517	1310.337	1123.578
-34.954	33.611	1308.293	1122.335
-33.940	33.563	1307.563	1121.383
-32.925	33.534	1306.125	1119.936
-31.911	33.487	1304.497	1118.212
-30.896	33.612	1302.752	1117.415
-29.881	33.460	1301.715	1115.582
-28.867	33.539	1300.236	1114.738
-27.852	33.463	1298.784	1113.001
-26.838	33.548	1297.080	1111.995
-25.823	33.537	1295.647	1110.659
-24.809	33.540	1294.617	1109.746
-23.794	33.633	1292.714	1108.617
-22.779	33.458	1291.942	1106.886
-21.765	33.555	1290.189	1105.908
-20.750	33.492	1289.405	1104.823
-19.736	33.436	1288.548	1103.722
-18.721	33.424	1286.647	1101.980
-17.706	33.438	1285.532	1101.059
-16.692	33.372	1284.166	1099.464
-15.677	33.371	1283.161	1098.552
-14.663	33.402	1282.202	1097.872
-13.648	33.306	1281.528	1096.694
-12.633	33.397	1280.333	1096.156
-11.619	33.280	1279.522	1094.741
-10.604	33.422	1278.358	1094.522
-9.590	33.314	1277.405	1093.037
-8.575	33.333	1276.286	1092.146
-7.560	33.347	1275.698	1091.677
-6.546	33.265	1274.852	1090.439
-5.531	33.363	1273.706	1089.979
-4.517	33.265	1273.262	1088.995
-3.502	33.288	1272.260	1088.228
-2.487	33.434	1271.192	1088.108
-1.473	33.475	1266.818	1084.554
-0.458	32.234	1252.490	1065.217
0.556	30.546	1234.045	1024.805
1.571	26.518	1238.796	1006.311
2.586	25.209	1253.191	1010.544
3.600	23.542	1240.871	991.220
4.615	17.525	1167.422	900.735
5.629	8.907	1090.802	798.773
6.644	4.934	1070.349	764.270
7.659	4.507	1067.352	759.973
8.673	4.388	1065.781	758.209
9.688	4.463	1064.847	757.843
10.702	5.022	1063.357	759.440
11.717	10.614	1071.668	792.686
12.731	18.955	1083.233	842.195
13.746	22.285	1086.829	861.246
14.761	22.062	1086.443	859.775
15.775	21.085	1084.845	853.658
16.790	20.138	1082.732	847.291
17.804	19.580	1080.695	842.899
18.819	19.244	1080.003	840.644
19.834	19.163	1079.131	839.498
20.848	19.090	1078.265	838.396
21.863	18.849	1077.334	836.422
22.877	18.646	1076.831	834.972
23.892	18.589	1076.267	834.184
24.907	18.626	1075.009	833.314
25.921	18.796	1074.190	833.432
26.936	18.736	1072.838	832.016
27.950	18.673	1071.388	830.514
28.965	18.760	1070.100	829.861
29.980	19.111	1067.995	829.847
30.994	19.063	1067.478	829.145
32.009	19.063	1066.210	828.086
33.023	19.087	1065.224	827.363
34.038	18.905	1064.852	826.122
35.053	18.785	1063.465	824.398
36.067	18.710	1063.183	823.747
37.082	18.752	1061.825	822.823
38.096	19.025	1061.407	823.732
39.111	18.996	1060.227	822.605
40.126	18.823	1059.174	820.888
41.140	18.509	1057.787	818.245
42.155	18.352	1056.637	816.536
43.169	18.383	1055.343	815.611
44.184	18.445	1054.149	814.910
45.199	18.397	1053.254	813.916
46.213	18.593	1052.656	814.313
47.228	18.755	1051.870	814.401
48.242	18.845	1050.802	813.932
49.257	18.696	1050.470	812.894
50.271	18.977	1048.755	812.825
51.286	18.918	1048.285	812.110
52.301	18.842	1047.272	810.896
53.315	18.720	1046.369	809.547
54.330	18.468	1044.954	807.193
55.344	18.480	1044.320	806.689
56.359	18.520	1043.745	806.363
57.374	18.477	1042.431	805.075
58.388	18.444	1041.353	804.017
59.403	18.388	1040.754	803.221
60.417	18.399	1040.003	802.619
61.432	18.323	1038.868	801.318
62.447	18.257	1037.891	800.185
63.461	18.172	1037.438	799.366
64.476	18.252	1036.821	799.195
65.490	18.086	1035.987	797.705
66.505	18.378	1034.537	797.881
67.520	18.232	1034.483	797.085
68.534	18.326	1033.263	796.515
69.549	18.149	1032.832	795.287
70.563	18.117	1031.798	794.273
71.578	18.000	1030.934	792.997
72.593	17.853	1030.420	791.848
73.607	17.904	1029.515	791.317
74.622	17.942	1029.022	791.047
75.636	18.105	1028.058	790.988
76.651	17.993	1027.898	790.279
77.666	18.111	1026.925	790.003
78.680	18.139	1026.425	789.679
79.695	17.991	1026.257	788.796
80.709	18.412	1025.128	789.800
81.724	18.344	1024.745	789.123
82.739	18.495	1023.915	789.108
83.753	18.704	1023.356	789.570
84.768	18.972	1022.562	790.117
85.782	19.185	1021.501	790.205
86.797	19.010	1020.719	788.730
87.812	18.740	1019.913	786.800
88.826	18.877	1018.642	786.378
89.841	18.909	1017.944	785.915
90.855	19.148	1016.702	785.979
91.870	19.046	1015.772	784.725
92.884	19.048	1015.110	784.154
93.899	19.067	1014.327	783.563
94.914	19.117	1013.360	782.977
95.928	19.095	1012.495	782.139
96.943	19.147	1011.466	781.509
97.957	18.956	1010.456	779.792
98.972	19.008	1009.968	779.582
99.987	19.067	1009.199	779.189
101.001	19.087	1007.814	778.139
102.016	18.875	1007.375	776.775
103.030	19.054	1006.580	776.901
104.045	18.961	1005.452	775.543
105.060	18.819	1004.937	774.436
106.074	18.382	1003.766	771.498
107.089	18.239	1002.578	769.873
108.103	18.289	1001.620	769.295
109.118	18.254	1000.555	768.250
110.133	18.221	999.673	767.358
111.147	18.114	999.138	766.401
112.162	18.268	997.808	766.002
113.176	18.491	997.321	766.555
114.191	18.467	996.881	766.041
115.206	18.415	996.188	765.210
116.220	18.527	995.179	764.867
117.235	18.323	994.287	763.205
118.249	18.451	992.960	762.688
119.264	18.245	992.641	761.461
120.279	18.147	992.072	760.518
121.293	18.230	991.047	760.034
122.308	18.114	989.858	758.541
123.322	18.102	988.725	757.555
124.337	18.001	987.946	756.442
125.352	18.121	986.618	755.888
126.366	17.946	985.608	754.278
127.381	18.105	984.525	754.082
128.395	18.258	983.760	754.103
129.410	18.238	983.250	753.556
130.424	18.361	982.310	753.309
131.439	18.519	981.594	753.392
132.454	18.419	980.993	752.423
133.468	18.502	980.302	752.191
134.483	18.460	979.457	751.293
135.497	18.504	978.326	750.552
136.512	18.507	977.667	749.990
137.527	18.567	976.771	749.500
138.541	18.504	975.947	748.526
139.556	18.570	975.573	748.460
140.570	18.785	974.779	748.722
141.585	18.897	974.518	748.944
142.600	18.977	973.377	748.347
143.614	19.010	972.998	748.135
144.629	18.994	972.051	747.272
145.643	19.015	970.307	745.958
146.658	18.894	968.995	744.357
147.673	18.696	968.035	742.697
148.687	18.484	967.355	741.192
149.702	18.496	966.494	740.520
150.716	18.494	965.891	739.986
151.731	18.606	964.632	739.438
152.746	18.650	964.200	739.228
153.760	18.723	963.458	738.910
154.775	18.770	963.299	738.927
155.789	18.902	962.041	738.463
156.804	18.700	962.131	737.595
157.819	18.926	961.300	737.864
158.833	19.003	960.726	737.691
159.848	19.139	960.073	737.707
160.862	19.038	958.638	736.104
161.877	18.631	957.268	733.250
162.892	18.464	956.577	731.940
163.906	18.380	955.368	730.594
164.921	18.605	954.556	730.867
165.935	18.646	953.694	730.315
166.950	18.736	953.125	730.199
167.964	18.708	952.369	729.435
168.979	18.549	951.087	727.715
169.994	18.639	950.400	727.505
171.008	18.823	950.039	727.948
172.023	18.827	949.653	727.602
173.037	19.064	948.727	727.833
174.052	18.933	947.693	726.419
175.067	18.531	947.074	724.183
176.081	18.457	946.267	723.190
177.096	18.560	945.748	723.163
178.110	18.731	944.956	723.216
179.125	18.624	944.514	722.362
180.140	18.802	944.139	722.758
181.154	18.825	944.126	722.785
182.169	19.091	943.639	723.466
183.183	19.103	942.719	722.747
184.198	18.956	942.170	721.644
185.213	19.056	941.308	721.341
186.227	19.024	940.829	720.774
187.242	19.113	940.050	720.486
188.256	19.368	939.688	721.210
189.271	19.325	938.828	720.308
190.286	18.898	937.911	717.757
191.300	18.464	936.713	714.969
192.315	18.367	935.624	713.669
193.329	18.479	935.527	713.997
194.344	18.635	935.008	714.188
195.359	18.696	934.208	713.767
196.373	18.963	933.556	714.318
197.388	19.206	933.498	715.216
198.402	19.411	932.852	715.509
199.417	19.455	932.405	715.287
200.432	19.564	931.625	715.078
201.446	19.548	931.726	715.025
202.461	19.712	930.797	714.925
203.475	19.623	930.347	714.149
204.490	19.358	929.121	712.050
205.504	19.074	928.609	710.425
206.519	19.192	927.522	710.015
207.534	19.234	926.953	709.692
208.548	19.309	926.458	709.557
209.563	19.219	925.603	708.471
210.577	19.332	924.969	708.386
211.592	19.465	924.483	708.499
212.607	19.466	924.070	708.121
213.621	19.513	923.031	707.456
214.636	19.371	922.754	706.598
215.650	19.452	921.640	706.016
216.665	19.600	921.257	706.265
217.680	19.582	920.549	705.586
218.694	19.658	919.915	705.347
219.709	19.623	919.110	704.523
220.723	19.515	918.779	703.768
221.738	19.472	918.104	703.012
222.753	19.555	917.479	702.813
223.767	19.650	917.009	702.776
224.782	19.866	916.178	702.955
225.796	19.801	916.039	702.521
226.811	19.708	915.201	701.438
227.826	19.639	914.137	700.281
228.840	19.485	913.534	699.133
229.855	19.451	912.582	698.205
230.869	19.579	911.817	698.076
231.884	19.364	911.566	696.954
232.899	19.334	910.580	696.018
233.913	19.307	909.656	695.141
234.928	19.243	909.048	694.356
235.942	19.335	908.417	694.182
236.957	19.244	908.125	693.530
237.972	19.249	907.763	693.215
238.986	19.137	907.016	692.132
240.001	19.270	906.448	692.171
241.015	19.336	905.827	691.900
242.030	19.528	904.951	691.940
243.045	19.576	904.813	691.967
244.059	19.493	904.269	691.158
245.074	19.568	903.354	690.697
246.088	19.663	903.054	690.786
247.103	19.777	902.632	690.856
248.117	19.933	902.295	691.161
249.132	20.287	901.623	691.995
250.147	20.346	901.446	692.035
251.161	20.401	900.633	691.567
252.176	20.545	899.986	691.583
253.190	20.723	898.631	691.187
254.205	20.594	898.300	690.362
255.220	20.500	897.640	689.419
256.234	20.443	897.213	688.802
257.249	20.392	896.859	688.268
258.263	20.478	895.987	687.879
259.278	20.406	895.032	686.801
260.293	20.422	894.896	686.699
261.307	20.591	894.354	686.890
262.322	20.749	893.413	686.729
263.336	20.583	893.053	685.737
264.351	20.499	892.053	684.579
265.366	20.651	891.558	684.736
266.380	20.610	890.882	683.993
267.395	20.534	890.041	682.991
268.409	20.475	889.305	682.133
269.424	20.426	888.341	681.142
270.439	20.375	887.560	680.283
271.453	20.231	887.029	679.250
272.468	20.132	886.594	678.473
273.482	20.322	886.085	678.764
274.497	20.358	885.230	678.191
275.512	20.466	884.668	678.121
276.526	20.330	884.431	677.348
277.541	20.484	883.897	677.482
278.555	20.541	883.349	677.222
279.570	20.715	882.547	677.223
280.585	20.706	882.196	676.862
281.599	20.504	881.452	675.446
282.614	20.478	880.204	674.326
283.628	20.426	879.638	673.634
284.643	20.542	878.930	673.482
285.657	20.582	878.381	673.157
286.672	20.535	877.815	672.481
287.687	20.529	877.235	671.955
288.701	20.502	876.837	671.486
289.716	20.520	876.403	671.162
290.730	20.521	875.926	670.740
291.745	20.595	875.148	670.372
292.760	20.539	874.803	669.833
293.774	20.990	873.554	670.551
294.789	20.672	873.238	669.028
295.803	20.532	872.429	667.809
296.818	20.458	872.053	667.177
297.833	20.714	870.532	666.937
298.847	20.601	870.625	666.518
299.862	20.653	870.163	666.305
300.876	20.542	869.648	665.425
301.891	20.837	868.889	665.913
302.906	20.958	868.332	665.888
303.920	21.144	867.915	666.222
304.935	21.158	867.853	666.167
305.949	21.064	866.989	665.089
306.964	20.885	866.250	663.782
307.979	21.030	865.557	663.743
308.993	21.038	865.017	663.302
310.008	21.106	864.415	663.038
311.022	21.026	863.835	662.231
312.037	20.861	863.359	661.182
313.052	20.687	862.227	659.598
314.066	20.687	861.559	659.027
315.081	20.502	861.315	658.081
316.095	20.592	860.751	657.931
317.110	20.510	860.284	657.207
318.125	20.684	859.323	657.073
319.139	20.662	858.854	656.571
320.154	20.574	858.800	656.140
321.168	20.705	857.995	655.961
322.183	20.883	857.083	655.878
323.197	20.689	857.360	655.299
324.212	20.851	856.422	655.134
325.227	20.870	855.566	654.494
326.241	20.741	855.092	653.587
327.256	20.591	855.048	652.935
328.270	20.896	853.919	653.157
329.285	20.736	853.322	652.045
330.300	20.786	852.437	651.497
331.314	20.709	852.549	651.238
332.329	20.915	852.021	651.544
333.343	20.752	851.867	650.759
334.358	21.155	850.719	651.331
335.373	20.944	851.065	650.751
336.387	21.134	850.470	650.946
337.402	21.120	850.373	650.762
338.416	21.297	850.072	651.133
339.431	21.418	849.987	651.463
340.446	21.553	849.334	651.405
341.460	21.546	848.910	650.996
342.475	21.558	848.557	650.715
343.489	21.689	848.306	650.949
344.504	21.696	847.708	650.462
345.519	21.720	847.371	650.233
346.533	21.691	846.653	649.519
347.548	21.410	845.737	647.715
348.562	21.270	844.985	646.564
349.577	21.312	844.246	646.097
350.592	21.105	843.630	644.805
351.606	21.213	842.923	644.606
352.621	21.125	842.542	643.932
353.635	21.151	841.929	643.502
354.650	21.271	841.454	643.525
355.665	21.317	840.923	643.232
356.679	21.429	840.248	643.070
357.694	21.432	839.340	642.327
358.708	21.285	838.973	641.450
359.723	21.450	837.992	641.248
360.738	21.479	837.711	641.084
361.752	21.385	837.350	640.405
362.767	21.579	836.540	640.439
363.781	21.819	836.468	641.205
364.796	21.834	835.983	640.832
365.810	21.927	835.920	641.068
366.825	21.872	835.522	640.504
367.840	21.884	834.549	639.746
368.854	21.869	834.217	639.380
369.869	21.773	833.789	638.647
370.883	21.890	832.675	638.163
371.898	21.999	832.618	638.456
372.913	22.069	832.382	638.475
373.927	21.835	831.826	637.142
374.942	21.855	831.442	636.864
375.956	21.962	831.080	636.919
376.971	22.008	830.885	636.881
377.986	22.157	830.553	637.110
379.000	22.335	829.744	637.075
380.015	22.109	829.366	635.914
381.029	22.225	828.275	635.439
382.044	22.164	827.589	634.637
383.059	22.244	827.173	634.550
384.073	22.204	826.463	633.805
385.088	21.817	826.046	632.032
386.102	21.797	825.215	631.271
387.117	21.781	824.840	630.869
388.132	21.782	824.170	630.304
389.146	21.852	823.944	630.327
390.161	21.973	823.782	630.581
391.175	22.085	823.023	630.348
392.190	21.967	822.081	629.148
393.205	21.839	821.678	628.326
394.219	21.820	821.445	628.023
395.234	21.797	820.912	627.479
396.248	21.654	820.294	626.438
397.263	21.575	820.125	625.970
398.278	21.610	819.319	625.425
399.292	21.690	818.936	625.363
400.307	21.670	818.603	624.984
401.321	21.640	818.266	624.564
402.336	21.720	817.707	624.365
403.350	22.023	817.137	624.953
404.365	21.894	817.519	624.731
405.380	22.173	816.732	625.068
406.394	22.336	815.994	625.027
407.409	22.339	815.652	624.721
408.423	22.399	815.637	624.866
409.438	22.622	814.973	625.092
410.453	22.482	814.775	624.391
411.467	22.568	814.410	624.359
412.482	22.623	814.106	624.265
413.496	22.785	813.445	624.279
414.511	22.771	813.089	623.898
415.526	22.552	812.647	622.731
416.540	22.470	812.124	621.984
417.555	22.553	811.858	622.021
418.569	22.489	811.169	621.210
419.584	22.788	810.396	621.617
420.599	22.755	810.341	621.405
421.613	160.895	1369.767	1791.028
422.628	140.047	1451.294	1791.104
