DTS Sentinel unit serial number:	SN413079Multiplexer serial number:	ORYXHardware model number:	OX4-SRSoftware version number:	ORYX F/W v4.00 Oryx Data Collector v3.7.2.0data status	okinstallation	princeton_trtdifferential loss correction	single-endedforward channel	channel 1reverse channel	N/Adate	2019/09/18time	13:18:35forward acquisition time	60.00reverse acquisition time	0.00gamma	496.2192k internal	0.2313k external	0.2313temperature offset calibration	0.9987default loss term (dB/km)	0.3790temperature slope calibration	1.0000multiplexer offset coefficient	1.0000multiplexer slope coefficient	1.0000fibre end	0.00T internal ref (°C)	34.06T ext. ref 1 (°C)	0.61T ext. ref 2 (°C)	29.84length (m)	temperature (°C)	Stokes	anti-Stokes-747.200	606.702	0.069	-0.175
-746.185	18.373	-0.101	0.081
-745.171	131.386	-0.015	-0.019
-744.156	22.033	-0.216	0.178
-743.142	-53.635	0.487	0.226
-742.127	356.066	0.035	0.070
-741.112	-123.062	0.133	0.022
-740.098	390.836	0.118	0.249
-739.083	314.754	0.023	-0.044
-738.069	-41.626	-0.181	0.094
-737.054	94.585	-0.323	-0.372
-736.039	41.132	-0.082	-0.075
-735.025	73.767	0.338	-0.359
-734.010	-200.000	-0.007	0.089
-732.996	-93.069	-0.158	0.045
-731.981	211.738	-0.111	0.177
-730.966	313.139	-0.063	0.120
-729.952	85.031	-0.075	-0.084
-728.937	-12.531	-0.213	-0.141
-727.923	355.847	0.056	-0.113
-726.908	-200.000	-0.016	-0.259
-725.894	61.217	-0.228	-0.229
-724.879	6.118	0.147	0.110
-723.864	800.000	0.071	0.243
-722.850	800.000	0.011	-0.036
-721.835	113.157	-0.234	-0.288
-720.821	-106.788	-0.290	0.065
-719.806	-200.000	0.030	-0.224
-718.791	98.550	-0.347	0.405
-717.777	800.000	0.032	0.133
-716.762	-63.743	-0.347	-0.144
-715.748	-42.769	-0.171	-0.088
-714.733	22.538	-0.193	0.160
-713.718	55.556	0.067	-0.066
-712.704	-200.000	0.116	0.000
-711.689	675.700	0.047	0.123
-710.675	-105.453	-0.171	-0.039
-709.660	91.558	0.105	-0.120
-708.645	1.294	0.211	-0.154
-707.631	-146.474	0.422	-0.037
-706.616	262.293	-0.153	-0.269
-705.602	-50.490	0.275	0.131
-704.587	-56.746	0.080	0.036
-703.572	-97.755	0.248	0.065
-702.558	-200.000	-0.011	-0.094
-701.543	116.487	-0.209	-0.260
-700.529	-89.520	-0.176	-0.052
-699.514	69.255	0.169	0.176
-698.499	-50.660	0.261	-0.125
-697.485	261.384	0.033	-0.058
-696.470	-151.311	-0.068	-0.005
-695.456	-45.065	-0.117	-0.059
-694.441	-149.316	-0.161	-0.013
-693.426	-200.000	-0.066	0.302
-692.412	-52.821	-0.166	0.077
-691.397	57.876	-0.119	0.118
-690.383	-22.746	-0.253	-0.155
-689.368	-200.000	-0.049	-0.325
-688.354	184.433	-0.070	0.105
-687.339	379.384	-0.090	-0.187
-686.324	134.156	-0.127	0.166
-685.310	-38.771	-0.341	0.182
-684.295	36.975	-0.169	-0.151
-683.281	-200.000	-0.016	-0.401
-682.266	3.740	0.170	0.126
-681.251	-58.737	-0.144	-0.063
-680.237	-200.000	0.055	-0.287
-679.222	-118.023	0.192	0.035
-678.208	-200.000	0.025	0.246
-677.193	-42.951	-0.304	0.156
-676.178	800.000	-0.027	-0.111
-675.164	8.410	0.146	0.111
-674.149	753.231	0.053	-0.146
-673.135	87.005	-0.176	-0.197
-672.120	-155.843	0.082	0.005
-671.105	-200.000	-0.022	0.254
-670.091	-115.372	-0.212	-0.040
-669.076	-152.336	0.143	-0.010
-668.062	-34.411	-0.194	0.107
-667.047	-103.306	0.264	0.063
-666.032	236.874	-0.086	0.145
-665.018	11.102	-0.295	0.228
-664.003	-27.795	-0.157	0.092
-662.989	-64.296	0.190	-0.078
-661.974	-200.000	-0.033	0.149
-660.959	-168.860	0.203	-0.008
-659.945	-169.128	0.346	-0.013
-658.930	-69.826	0.065	0.025
-657.916	-200.000	0.021	-0.138
-656.901	-200.000	-0.005	0.092
-655.886	23.593	0.311	-0.258
-654.872	-48.597	-0.207	-0.101
-653.857	53.882	-0.229	-0.222
-652.843	-57.351	-0.057	0.025
-651.828	737.934	0.012	-0.033
-650.814	140.798	-0.108	-0.144
-649.799	-46.890	0.053	0.026
-648.784	565.012	0.076	0.186
-647.770	-117.639	-0.230	0.042
-646.755	800.000	-0.034	-0.129
-645.741	-2.406	-0.038	0.027
-644.726	-11.886	-0.129	-0.086
-643.711	-200.000	0.042	-0.293
-642.697	27.720	0.252	0.214
-641.682	207.133	0.102	0.160
-640.668	-112.142	0.047	0.009
-639.653	401.508	0.059	-0.125
-638.638	196.456	-0.182	-0.281
-637.624	-16.171	0.205	-0.132
-636.609	84.317	-0.121	0.134
-635.595	-90.659	0.101	0.029
-634.580	195.355	-0.204	-0.313
-633.565	417.752	-0.076	-0.164
-632.551	10.536	-0.288	-0.221
-631.536	-59.928	0.087	-0.038
-630.522	391.127	-0.043	0.091
-629.507	130.016	-0.170	0.220
-628.492	80.076	0.156	-0.170
-627.478	-78.032	-0.125	-0.044
-626.463	-182.763	0.300	0.005
-625.449	111.168	-0.095	-0.116
-624.434	17.828	0.114	0.092
-623.419	-200.000	-0.013	0.079
-622.405	109.400	0.049	-0.059
-621.390	-146.071	0.149	0.013
-620.376	-121.189	0.264	0.045
-619.361	-106.310	0.257	-0.058
-618.346	161.269	-0.242	0.342
-617.332	-200.000	0.067	0.424
-616.317	-11.850	-0.110	0.073
-615.303	-16.820	0.255	0.163
-614.288	-200.000	-0.033	-0.170
-613.273	-200.000	0.071	0.370
-612.259	-200.000	0.047	-0.311
-611.244	160.845	0.086	0.121
-610.230	-200.000	0.066	-0.384
-609.215	-24.842	0.176	-0.106
-608.201	262.448	0.135	-0.237
-607.186	-78.033	-0.215	-0.075
-606.171	-142.039	-0.300	0.030
-605.157	-95.200	-0.097	-0.026
-604.142	19.248	-0.245	0.198
-603.128	-26.112	-0.210	0.124
-602.113	258.006	0.219	-0.381
-601.098	12.611	0.246	-0.192
-600.084	254.771	0.152	-0.263
-599.069	-107.032	0.124	0.028
-598.055	303.040	0.074	-0.139
-597.040	226.567	-0.124	0.202
-596.025	65.870	0.259	0.265
-595.011	288.990	-0.169	0.309
-593.996	196.508	0.242	0.371
-592.982	800.000	0.116	0.324
-591.967	-57.752	-0.380	-0.168
-590.952	800.000	-0.051	-0.153
-589.938	-200.000	0.020	-0.303
-588.923	-49.646	0.209	-0.100
-587.909	23.217	-0.201	-0.167
-586.894	800.000	0.085	-0.326
-585.879	316.995	-0.109	-0.208
-584.865	-61.994	0.140	0.059
-583.850	-200.000	-0.010	0.286
-582.836	68.903	0.052	0.054
-581.821	-200.000	-0.028	-0.186
-580.806	-125.424	-0.328	0.050
-579.792	9.080	-0.167	0.127
-578.777	2.251	-0.272	-0.198
-577.763	-200.000	0.018	-0.088
-576.748	-110.407	-0.404	-0.085
-575.733	-22.167	0.160	-0.098
-574.719	-200.000	0.002	-0.151
-573.704	-200.000	-0.023	-0.286
-572.690	75.416	-0.145	-0.154
-571.675	-200.000	0.003	0.332
-570.661	800.000	0.073	0.249
-569.646	565.319	0.175	-0.427
-568.631	32.198	-0.072	-0.062
-567.617	-94.115	0.330	0.091
-566.602	-98.104	-0.193	0.050
-565.588	-108.232	0.143	0.031
-564.573	-106.400	0.114	0.026
-563.558	-110.815	0.140	-0.029
-562.544	-104.797	-0.287	-0.067
-561.529	82.635	-0.160	0.175
-560.515	-81.763	-0.286	0.094
-559.500	800.000	0.047	0.152
-558.485	266.179	-0.063	0.110
-557.471	800.000	-0.039	-0.156
-556.456	-100.748	0.103	0.026
-555.442	530.851	-0.067	-0.160
-554.427	15.542	-0.307	-0.243
-553.412	27.374	0.062	0.052
-552.398	-200.000	0.033	-0.400
-551.383	33.315	-0.140	0.123
-550.369	-47.114	0.326	0.160
-549.354	755.527	-0.037	0.100
-548.339	425.470	0.051	-0.111
-547.325	-200.000	0.036	0.375
-546.310	132.245	-0.211	-0.274
-545.296	-116.771	-0.282	-0.052
-544.281	6.396	-0.078	0.059
-543.266	100.235	-0.366	-0.427
-542.252	116.825	-0.280	-0.346
-541.237	-200.000	-0.007	-0.082
-540.223	193.784	-0.090	-0.137
-539.208	-183.951	-0.174	0.003
-538.193	-154.335	0.155	0.010
-537.179	242.040	-0.044	-0.075
-536.164	721.008	0.010	0.027
-535.150	800.000	-0.089	-0.387
-534.135	32.950	0.326	-0.284
-533.121	176.914	-0.110	-0.161
-532.106	-200.000	0.015	0.387
-531.091	-72.357	0.118	0.044
-530.077	-25.789	0.315	-0.187
-529.062	-200.000	0.018	0.240
-528.048	-79.763	-0.182	-0.062
-527.033	78.039	0.164	-0.176
-526.018	800.000	-0.066	-0.191
-525.004	88.579	0.068	0.076
-523.989	800.000	-0.068	-0.227
-522.975	800.000	0.031	-0.131
-521.960	800.000	-0.086	-0.317
-520.945	96.184	-0.125	0.144
-519.931	40.511	-0.126	0.115
-518.916	0.565	-0.072	-0.052
-517.902	-200.000	0.033	0.154
-516.887	800.000	0.081	-0.333
-515.872	175.166	-0.093	-0.135
-514.858	-32.536	-0.058	-0.032
-513.843	94.760	-0.077	0.088
-512.829	-83.089	0.476	-0.154
-511.814	800.000	-0.094	-0.363
-510.799	544.988	-0.101	-0.242
-509.785	-200.000	0.001	0.054
-508.770	612.662	-0.141	0.355
-507.756	-200.000	0.085	-0.421
-506.741	-192.293	-0.111	-0.001
-505.726	-175.524	0.111	-0.003
-504.712	-200.000	0.053	0.310
-503.697	-200.000	0.059	-0.352
-502.683	-200.000	0.010	-0.106
-501.668	-125.106	-0.404	-0.062
-500.653	-56.854	0.343	0.152
-499.639	302.449	0.132	0.245
-498.624	31.923	-0.169	0.147
-497.610	39.678	-0.011	-0.010
-496.595	-52.374	-0.204	-0.095
-495.581	800.000	-0.070	0.209
-494.566	-123.417	0.046	0.007
-493.551	178.986	-0.158	-0.232
-492.537	172.398	0.154	-0.222
-491.522	55.652	0.120	0.116
-490.508	-67.762	0.112	0.044
-489.493	-30.615	0.277	-0.158
-488.478	-45.158	0.079	0.040
-487.464	582.875	0.092	0.227
-486.449	-69.437	-0.152	0.059
-485.435	476.151	0.045	0.103
-484.420	-7.731	-0.104	-0.070
-483.405	510.762	-0.081	0.190
-482.391	-127.515	0.388	-0.057
-481.376	211.847	-0.043	0.068
-480.362	800.000	-0.038	0.164
-479.347	435.432	0.120	0.263
-478.332	-200.000	0.017	0.317
-477.318	-54.713	0.117	0.053
-476.303	23.718	0.172	0.142
-475.289	42.161	-0.091	0.083
-474.274	800.000	-0.039	-0.133
-473.259	-200.000	-0.028	-0.229
-472.245	656.733	0.062	-0.160
-471.230	230.577	0.170	0.279
-470.216	54.935	-0.170	0.165
-469.201	294.858	-0.185	0.340
-468.186	-9.365	0.213	-0.143
-467.172	156.226	-0.018	0.024
-466.157	23.598	-0.328	-0.271
-465.143	20.142	0.100	-0.081
-464.128	284.677	0.120	-0.216
-463.113	748.920	0.045	-0.121
-462.099	-38.104	-0.269	0.143
-461.084	193.993	0.082	-0.124
-460.070	23.845	0.094	0.078
-459.055	29.815	0.116	0.099
-458.040	-137.562	0.207	0.023
-457.026	66.850	0.177	0.180
-456.011	414.302	-0.151	0.323
-454.997	347.731	-0.126	0.249
-453.982	-200.000	-0.065	-0.319
-452.968	446.280	-0.091	0.200
-451.953	-200.000	0.052	0.239
-450.938	-27.412	0.237	0.138
-449.924	-13.806	0.162	0.105
-448.909	-84.551	0.209	0.066
-447.895	328.755	0.111	-0.215
-446.880	17.780	0.096	-0.077
-445.865	73.355	-0.029	0.030
-444.851	-15.807	-0.183	0.117
-443.836	-101.264	0.095	0.023
-442.822	-200.000	-0.029	-0.334
-441.807	-2.899	0.324	-0.227
-440.792	140.231	0.182	-0.241
-439.778	-200.000	0.014	0.221
-438.763	-178.136	0.141	0.003
-437.749	-129.968	-0.388	-0.053
-436.734	-40.624	0.037	0.019
-435.719	-162.045	-0.192	-0.010
-434.705	-200.000	-0.043	-0.292
-433.690	616.390	-0.024	-0.059
-432.676	-145.074	0.154	0.014
-431.661	-200.000	-0.046	-0.215
-430.646	-40.486	-0.318	0.166
-429.632	800.000	-0.036	0.141
-428.617	-6.672	-0.261	0.178
-427.603	-113.261	-0.120	-0.024
-426.588	254.967	0.111	-0.191
-425.573	-96.607	-0.264	-0.070
-424.559	-50.489	-0.382	-0.181
-423.544	77.248	-0.027	-0.029
-422.530	38.607	-0.208	-0.186
-421.515	-86.891	0.204	0.062
-420.500	-200.000	-0.000	-0.586
-419.486	-200.000	-0.076	-0.528
-418.471	543.364	-0.127	-0.305
-417.457	-62.845	0.080	-0.033
-416.442	81.605	-0.231	0.250
-415.428	-164.409	0.221	-0.010
-414.413	-200.000	0.029	0.203
-413.398	-83.065	0.132	0.043
-412.384	176.374	0.218	0.317
-411.369	-200.000	-0.019	-0.399
-410.355	-200.000	-0.009	-0.170
-409.340	37.096	-0.240	-0.213
-408.325	48.508	-0.190	0.178
-407.311	108.492	-0.141	-0.169
-406.296	800.000	0.082	-0.351
-405.282	-42.533	-0.169	-0.086
-404.267	-81.145	-0.208	-0.069
-403.252	37.729	-0.044	-0.039
-402.238	800.000	0.096	-0.302
-401.223	234.295	-0.111	-0.183
-400.209	-44.158	-0.338	0.170
-399.194	106.604	0.017	0.020
-398.179	-142.203	-0.269	-0.027
-397.165	16.976	0.131	-0.104
-396.150	800.000	-0.104	0.312
-395.136	-78.481	-0.250	0.086
-394.121	117.336	0.105	-0.130
-393.106	-165.066	-0.177	0.008
-392.092	-131.457	0.106	0.014
-391.077	340.259	-0.095	-0.186
-390.063	-90.200	0.201	0.058
-389.048	-61.522	-0.479	-0.201
-388.033	37.114	0.337	0.298
-387.019	-74.774	-0.137	-0.049
-386.004	78.717	0.033	0.035
-384.990	144.969	0.067	-0.090
-383.975	68.123	-0.284	-0.291
-382.960	-62.144	-0.187	0.078
-381.946	211.846	0.151	0.238
-380.931	-156.196	0.174	0.011
-379.917	69.342	-0.182	0.188
-378.902	800.000	-0.120	0.476
-377.888	-82.775	-0.372	-0.120
-376.873	18.926	-0.331	-0.265
-375.858	553.696	-0.098	0.235
-374.844	-99.884	0.075	-0.019
-373.829	-200.000	0.001	-0.025
-372.815	26.714	0.096	0.080
-371.800	-113.599	0.267	0.052
-370.785	800.000	0.032	-0.117
-369.771	9.364	0.085	0.064
-368.756	14.534	0.210	0.164
-367.742	-56.069	0.285	-0.127
-366.727	-200.000	-0.012	-0.118
-365.712	-200.000	0.039	-0.233
-364.698	-200.000	-0.013	-0.311
-363.683	282.484	-0.198	0.355
-362.669	-200.000	0.002	-0.145
-361.654	120.006	-0.014	-0.017
-360.639	-60.076	-0.246	0.105
-359.625	-38.850	-0.215	-0.113
-358.610	-200.000	0.061	-0.273
-357.596	318.445	-0.075	-0.141
-356.581	-200.000	0.008	0.318
-355.566	-200.000	0.022	-0.164
-354.552	800.000	0.118	0.410
-353.537	-200.000	0.054	-0.458
-352.523	-163.654	0.249	-0.012
-351.508	36.111	-0.186	0.163
-350.493	-1.230	0.180	0.127
-349.479	-107.194	-0.031	-0.007
-348.464	-27.386	-0.144	0.084
-347.450	-137.599	-0.146	0.016
-346.435	-200.000	-0.044	0.222
-345.420	-34.885	0.165	-0.090
-344.406	-93.572	0.115	-0.032
-343.391	-114.340	-0.369	-0.071
-342.377	800.000	-0.084	0.254
-341.362	593.013	0.084	0.206
-340.348	-129.843	0.178	-0.024
-339.333	365.817	-0.154	0.311
-338.318	-200.000	0.019	-0.099
-337.304	800.000	-0.081	0.275
-336.289	800.000	-0.032	0.127
-335.275	-200.000	-0.061	0.288
-334.260	-200.000	-0.032	0.178
-333.245	686.422	0.038	0.099
-332.231	-14.643	0.078	-0.050
-331.216	179.282	-0.206	0.301
-330.202	-78.786	0.293	0.100
-329.187	-49.208	-0.083	0.040
-328.172	43.338	-0.069	-0.063
-327.158	214.033	0.057	-0.090
-326.143	-108.847	0.244	-0.052
-325.129	18.970	0.244	0.196
-324.114	91.765	-0.031	0.035
-323.099	-4.437	-0.152	-0.105
-322.085	242.473	0.110	0.184
-321.070	-169.857	0.056	-0.002
-320.056	-48.598	0.151	-0.072
-319.041	7.219	0.332	-0.248
-318.026	-200.000	0.038	-0.479
-317.012	-23.516	-0.201	-0.121
-315.997	-200.000	0.040	-0.178
-314.983	1.372	0.375	-0.269
-313.968	204.093	0.190	0.294
-312.953	-77.056	0.065	-0.023
-311.939	-200.000	-0.043	0.310
-310.924	-32.028	-0.175	0.098
-309.910	116.028	-0.072	0.088
-308.895	13.228	0.198	-0.153
-307.880	78.320	0.278	-0.296
-306.866	74.537	0.080	-0.084
-305.851	-7.546	-0.135	-0.091
-304.837	-89.236	-0.019	0.006
-303.822	-200.000	-0.003	0.269
-302.807	351.620	0.022	0.044
-301.793	-59.063	-0.064	0.028
-300.778	138.953	0.205	0.268
-299.764	346.204	-0.093	0.183
-298.749	-99.650	0.236	-0.059
-297.735	108.099	-0.274	0.325
-296.720	96.786	-0.276	-0.316
-295.705	-32.888	-0.186	0.103
-294.691	-60.323	0.418	-0.177
-293.676	-124.774	-0.083	0.013
-292.662	-119.084	-0.146	-0.025
-291.647	-80.128	-0.422	0.141
-290.632	-108.612	0.118	-0.025
-289.618	-60.765	-0.133	-0.056
-288.603	-151.143	-0.354	0.026
-287.589	68.313	0.082	-0.083
-286.574	-30.756	0.211	0.119
-285.559	261.100	0.185	0.319
-284.545	62.932	0.147	0.147
-283.530	5.260	0.139	-0.102
-282.516	-200.000	-0.053	0.336
-281.501	-87.507	-0.114	0.034
-280.486	-20.276	0.186	0.114
-279.472	289.087	-0.140	-0.253
-278.457	10.005	0.268	-0.203
-277.443	-58.411	-0.132	-0.057
-276.428	800.000	-0.103	-0.317
-275.413	76.452	0.108	-0.114
-274.399	-78.711	0.327	0.111
-273.384	-98.379	0.179	-0.046
-272.370	165.389	0.282	-0.397
-271.355	-200.000	0.008	-0.190
-270.340	-71.620	-0.183	-0.068
-269.326	523.040	0.002	0.006
-268.311	800.000	0.060	-0.191
-267.297	-16.967	0.135	0.085
-266.282	181.718	-0.033	-0.048
-265.267	-200.000	0.004	-0.026
-264.253	-200.000	-0.009	-0.117
-263.238	19.559	-0.136	0.109
-262.224	-38.776	0.136	0.071
-261.209	-83.362	-0.049	-0.016
-260.195	26.883	-0.192	-0.160
-259.180	85.736	0.322	0.352
-258.165	-128.928	0.297	-0.041
-257.151	-11.194	-0.169	-0.111
-256.136	-200.000	0.004	0.113
-255.122	43.507	0.148	0.134
-254.107	6.429	0.053	-0.039
-253.092	237.934	0.131	0.216
-252.078	-53.892	-0.191	-0.087
-251.063	-163.163	-0.062	0.003
-250.049	97.881	0.088	0.100
-249.034	-200.000	0.037	0.303
-248.019	800.000	0.061	0.206
-247.005	-200.000	0.047	0.423
-245.990	410.698	0.154	-0.325
-244.976	-39.245	0.177	-0.093
-243.961	-163.597	-0.362	-0.017
-242.946	8.839	-0.162	-0.122
-241.932	-199.346	-0.099	0.001
-240.917	-200.000	0.042	0.329
-239.903	-200.000	0.033	-0.184
-238.888	21.671	0.046	-0.038
-237.873	800.000	0.106	0.401
-236.859	349.732	-0.136	-0.268
-235.844	-24.127	0.099	-0.059
-234.830	-45.213	-0.250	-0.123
-233.815	-60.749	-0.058	0.025
-232.800	4.112	-0.304	0.221
-231.786	-116.306	-0.173	0.032
-230.771	-200.000	0.012	-0.107
-229.757	-91.774	0.208	0.059
-228.742	273.546	0.129	0.227
-227.727	-7.154	-0.224	-0.151
-226.713	-67.288	-0.067	-0.026
-225.698	-66.030	0.240	0.095
-224.684	-7.370	0.221	0.149
-223.669	-1.604	-0.101	0.071
-222.655	-200.000	0.053	0.285
-221.640	311.600	-0.087	-0.163
-220.625	-200.000	0.013	0.218
-219.611	41.189	-0.069	0.062
-218.596	-165.838	0.080	0.003
-217.582	-16.488	0.195	-0.123
-216.567	-200.000	0.012	0.321
-215.552	-200.000	-0.033	0.172
-214.538	104.065	0.306	0.358
-213.523	86.567	-0.074	-0.081
-212.509	800.000	0.070	-0.217
-211.494	73.860	-0.152	0.158
-210.479	-15.308	0.135	0.086
-209.465	350.458	0.037	0.072
-208.450	800.000	0.044	0.147
-207.436	-87.424	-0.243	0.073
-206.421	-62.888	0.142	-0.058
-205.406	31.537	-0.301	-0.257
-204.392	800.000	0.079	-0.259
-203.377	-200.000	-0.001	-0.049
-202.363	123.559	-0.210	0.262
-201.348	77.623	0.218	-0.230
-200.333	800.000	-0.051	0.144
-199.319	300.222	0.118	0.216
-198.304	333.072	-0.145	0.278
-197.290	-162.439	0.201	0.010
-196.275	-107.483	-0.125	0.027
-195.260	34.337	0.135	0.117
-194.246	-104.838	-0.293	0.067
-193.231	-7.291	-0.152	0.102
-192.217	210.799	0.191	0.298
-191.202	246.901	0.061	0.102
-190.187	197.558	-0.119	-0.180
-189.173	13.066	0.239	0.184
-188.158	-34.755	-0.426	0.231
-187.144	800.000	0.068	0.194
-186.129	328.098	0.041	-0.078
-185.114	800.000	0.031	0.097
-184.100	-200.000	0.060	-0.472
-183.085	-44.011	0.177	-0.088
-182.071	-200.000	0.032	0.215
-181.056	-200.000	-0.046	-0.307
-180.042	-60.888	0.444	0.186
-179.027	800.000	0.090	0.323
-178.012	-8.961	-0.232	0.154
-176.998	-200.000	-0.011	0.220
-175.983	-200.000	0.039	0.173
-174.969	101.656	-0.108	-0.125
-173.954	62.414	0.088	-0.087
-172.939	-39.278	0.377	-0.197
-171.925	90.675	-0.208	-0.231
-170.910	-3.106	0.075	0.052
-169.896	34.281	-0.154	-0.134
-168.881	-39.531	-0.210	0.109
-167.866	-200.000	-0.009	-0.216
-166.852	445.045	-0.148	0.322
-165.837	36.386	-0.115	0.101
-164.823	196.275	0.072	-0.108
-163.808	-200.000	0.077	-0.354
-162.793	174.442	0.127	0.183
-161.779	-31.478	0.324	0.181
-160.764	235.034	-0.130	0.212
-159.750	680.472	0.166	0.430
-158.735	800.000	0.052	0.184
-157.720	-111.761	0.285	0.057
-156.706	39.830	-0.066	0.059
-155.691	-70.786	0.323	0.121
-154.677	-200.000	0.017	0.079
-153.662	800.000	0.068	-0.263
-152.647	-200.000	0.013	0.189
-151.633	-200.000	0.002	-0.036
-150.618	-87.354	0.153	0.046
-149.604	800.000	-0.049	0.170
-148.589	65.300	0.215	0.215
-147.574	-79.509	-0.143	0.048
-146.560	180.951	-0.125	0.182
-145.545	-200.000	0.046	0.202
-144.531	35.088	0.394	-0.342
-143.516	-77.832	-0.180	0.062
-142.502	121.634	-0.118	0.146
-141.487	111.137	-0.190	-0.227
-140.472	800.000	0.021	0.087
-139.458	65.984	0.281	0.283
-138.443	305.816	0.257	0.473
-137.429	-200.000	0.036	0.179
-136.414	409.455	0.106	0.223
-135.399	212.220	-0.087	-0.136
-134.385	-132.178	0.191	0.025
-133.370	70.265	-0.016	0.016
-132.356	298.690	0.113	0.207
-131.341	72.009	-0.086	-0.089
-130.326	-24.518	0.029	-0.017
-129.312	193.411	0.133	-0.199
-128.297	66.948	-0.184	0.185
-127.283	342.359	-0.089	-0.173
-126.268	-200.000	0.061	0.288
-125.253	351.373	-0.122	0.239
-124.239	514.457	0.034	-0.079
-123.224	-93.420	0.365	0.100
-122.210	-200.000	-0.024	-0.141
-121.195	-40.175	0.115	0.060
-120.180	-104.491	0.265	0.061
-119.166	-168.636	-0.276	0.010
-118.151	800.000	0.094	0.274
-117.137	655.247	0.059	0.149
-116.122	251.507	0.024	0.040
-115.107	106.198	-0.025	0.029
-114.093	-18.339	-0.104	-0.064
-113.078	-200.000	-0.013	-0.072
-112.064	11.936	0.180	-0.137
-111.049	800.000	-0.077	-0.301
-110.034	-161.676	-0.301	0.015
-109.020	309.437	-0.166	0.307
-108.005	161.014	-0.131	-0.181
-106.991	224.070	-0.241	-0.386
-105.976	-200.000	-0.007	-0.294
-104.962	-103.824	0.131	0.030
-103.947	201.746	0.098	-0.149
-102.932	-200.000	-0.043	-0.229
-101.918	-86.229	0.122	-0.037
-100.903	55.934	-0.174	0.167
-99.889	-81.093	0.070	-0.023
-98.874	-5.813	0.192	-0.130
-97.859	318.594	-0.217	-0.407
-96.845	82.718	0.194	-0.208
-95.830	-86.535	0.352	-0.107
-94.816	45.643	0.187	-0.171
-93.801	399.228	-0.066	-0.137
-92.786	253.466	0.179	0.301
-91.772	-106.938	0.044	0.010
-90.757	29.685	0.178	-0.149
-89.743	-85.892	0.343	0.105
-88.728	63.088	0.300	-0.297
-87.713	-6.121	0.185	-0.125
-86.699	594.262	0.072	0.175
-85.684	800.000	0.067	0.263
-84.670	-55.760	-0.326	-0.144
-83.655	28.636	0.220	-0.184
-82.640	-185.728	0.459	0.007
-81.626	-200.000	-0.070	0.518
-80.611	-35.240	0.382	0.205
-79.597	373.976	-0.088	-0.177
-78.582	568.952	0.051	0.123
-77.567	-105.715	-0.203	0.045
-76.553	48.710	0.226	0.210
-75.538	-200.000	0.041	-0.202
-74.524	800.000	0.075	-0.217
-73.509	-70.395	0.217	0.081
-72.494	57.486	0.238	0.230
-71.480	99.839	0.210	0.240
-70.465	-200.000	-0.012	-0.348
-69.451	202.141	0.160	-0.243
-68.436	145.778	0.161	0.214
-67.422	27.603	-0.091	0.076
-66.407	-21.882	0.233	0.140
-65.392	-146.235	0.103	0.009
-64.378	-200.000	0.011	0.112
-63.363	615.219	-0.052	-0.129
-62.349	-200.000	0.107	0.508
-61.334	51.722	-1.033	-0.971
-60.319	153.816	0.296	0.400
-59.305	382.164	-0.500	-1.015
-58.290	230.413	0.496	0.801
-57.276	531.011	0.565	1.320
-56.261	-200.000	94.806	534.492
-55.246	486.767	1425.273	3209.609
-54.232	144.271	2652.081	3494.909
-53.217	108.829	2228.384	2629.782
-52.203	45.333	1665.685	1517.135
-51.188	37.452	1395.832	1222.016
-50.173	34.189	1352.805	1164.384
-49.159	54.358	1400.294	1331.207
-48.144	57.392	1417.842	1366.707
-47.130	37.719	1374.051	1204.414
-46.115	34.249	1356.402	1167.662
-45.100	34.040	1351.361	1162.002
-44.086	33.882	1349.039	1158.995
-43.071	33.871	1346.936	1157.072
-42.057	34.079	1344.281	1156.013
-41.042	33.953	1342.614	1153.768
-40.027	33.972	1341.166	1152.593
-39.013	34.025	1339.061	1151.058
-37.998	34.027	1337.644	1149.809
-36.984	34.107	1335.249	1148.183
-35.969	34.166	1333.637	1147.108
-34.954	34.111	1332.247	1145.537
-33.940	34.123	1331.033	1144.519
-32.925	34.135	1329.879	1143.557
-31.911	34.158	1328.118	1142.130
-30.896	34.146	1326.478	1140.605
-29.881	34.128	1325.250	1139.396
-28.867	34.177	1324.077	1138.634
-27.852	34.188	1322.044	1136.910
-26.838	34.139	1321.025	1135.694
-25.823	34.112	1319.564	1134.235
-24.809	34.120	1318.027	1132.912
-23.794	34.143	1316.918	1132.051
-22.779	34.240	1314.981	1130.919
-21.765	34.105	1314.468	1129.632
-20.750	34.059	1312.990	1128.044
-19.736	34.039	1311.464	1126.569
-18.721	33.997	1310.145	1125.144
-17.706	34.080	1308.983	1124.592
-16.692	34.059	1307.693	1123.311
-15.677	34.049	1306.478	1122.169
-14.663	34.029	1305.127	1120.842
-13.648	33.944	1304.367	1119.648
-12.633	33.962	1303.412	1118.888
-11.619	33.979	1302.619	1118.264
-10.604	33.915	1301.798	1117.137
-9.590	34.002	1300.378	1116.385
-8.575	34.017	1299.358	1115.550
-7.560	33.931	1298.824	1114.544
-6.546	34.032	1297.853	1114.258
-5.531	33.901	1297.407	1113.068
-4.517	33.870	1296.599	1112.148
-3.502	33.982	1295.268	1111.615
-2.487	33.990	1294.290	1110.777
-1.473	33.992	1290.096	1107.147
-0.458	32.814	1274.915	1087.289
0.556	27.732	1255.533	1044.748
1.571	22.991	1260.737	1021.650
2.586	21.407	1274.975	1023.831
3.600	20.336	1263.391	1008.221
4.615	14.962	1187.354	918.044
5.629	5.736	1107.326	808.678
6.644	0.904	1086.096	768.607
7.659	0.501	1083.427	764.612
8.673	0.533	1082.084	763.755
9.688	0.493	1081.158	762.834
10.702	0.704	1079.287	762.512
11.717	5.968	1086.456	794.190
12.731	14.379	1097.439	844.965
13.746	17.597	1101.104	864.062
14.761	17.297	1099.624	861.304
15.775	16.428	1098.405	855.874
16.790	15.519	1095.702	849.098
17.804	14.661	1094.383	843.664
18.819	14.322	1093.342	841.077
19.834	14.126	1092.118	839.071
20.848	13.828	1091.417	836.954
21.863	13.520	1090.201	834.400
22.877	13.417	1089.775	833.479
23.892	13.405	1088.661	832.493
24.907	13.448	1088.337	832.387
25.921	13.385	1087.232	831.151
26.936	13.475	1086.828	831.224
27.950	13.455	1085.682	830.171
28.965	13.574	1084.108	829.489
29.980	13.663	1082.405	828.561
30.994	13.667	1082.254	828.390
32.009	13.662	1080.863	827.228
33.023	13.584	1080.137	826.210
34.038	13.537	1078.966	825.006
35.053	13.526	1078.384	824.433
36.067	13.526	1077.313	823.543
37.082	13.564	1076.341	822.918
38.096	13.613	1075.791	822.666
39.111	13.606	1075.137	822.058
40.126	13.518	1073.634	820.398
41.140	13.373	1072.975	819.108
42.155	13.377	1071.447	817.887
43.169	13.543	1070.478	817.895
44.184	13.385	1069.595	816.368
45.199	13.438	1068.684	815.862
46.213	13.455	1067.419	814.906
47.228	13.410	1066.938	814.246
48.242	13.451	1065.372	813.181
49.257	13.673	1063.952	813.113
50.271	13.460	1063.496	811.648
51.286	13.363	1062.781	810.556
52.301	13.447	1061.628	810.016
53.315	13.491	1060.567	809.350
54.330	13.456	1059.632	808.394
55.344	13.424	1059.013	807.697
56.359	13.392	1057.769	806.518
57.374	13.446	1056.639	805.847
58.388	13.325	1056.286	804.918
59.403	13.407	1055.201	804.421
60.417	13.380	1053.882	803.215
61.432	13.335	1053.716	802.798
62.447	13.459	1052.828	802.652
63.461	13.396	1051.762	801.462
64.476	13.222	1051.207	800.124
65.490	13.214	1050.486	799.467
66.505	13.276	1049.753	799.135
67.520	13.369	1048.625	798.658
68.534	13.377	1047.834	798.023
69.549	13.410	1047.194	797.623
70.563	13.365	1046.116	796.516
71.578	13.347	1045.583	795.952
72.593	13.194	1044.991	794.695
73.607	13.279	1044.047	794.315
74.622	13.331	1043.366	793.976
75.636	13.303	1042.407	793.045
76.651	13.364	1041.491	792.569
77.666	13.241	1041.342	791.796
78.680	13.245	1040.419	791.045
79.695	13.395	1039.771	791.199
80.709	13.312	1039.093	790.216
81.724	13.483	1038.274	790.340
82.739	13.426	1037.300	789.254
83.753	13.504	1036.101	788.643
84.768	13.522	1035.957	788.551
85.782	13.518	1034.537	787.379
86.797	13.533	1033.772	786.799
87.812	13.455	1032.719	785.560
88.826	13.526	1031.761	785.100
89.841	13.472	1030.797	784.038
90.855	13.548	1030.283	783.939
91.870	13.556	1028.965	782.905
92.884	13.642	1027.957	782.475
93.899	13.577	1027.041	781.403
94.914	13.550	1026.688	780.935
95.928	13.573	1025.825	780.318
96.943	13.652	1024.641	779.723
97.957	13.583	1023.956	778.807
98.972	13.733	1022.785	778.552
99.987	13.684	1021.933	777.602
101.001	13.524	1021.458	776.425
102.016	13.505	1020.213	775.320
103.030	13.593	1019.448	775.082
104.045	13.590	1018.421	774.218
105.060	13.589	1017.619	773.533
106.074	13.498	1016.886	772.484
107.089	13.501	1016.046	771.794
108.103	13.604	1014.989	771.403
109.118	13.525	1014.425	770.538
110.133	13.520	1013.518	769.755
111.147	13.555	1012.352	768.962
112.162	13.469	1011.838	768.107
113.176	13.498	1010.624	767.251
114.191	13.487	1010.427	766.984
115.206	13.525	1009.574	766.445
116.220	13.519	1008.655	765.651
117.235	13.582	1007.887	765.292
118.249	13.623	1006.539	764.387
119.264	13.471	1006.496	763.586
120.279	13.477	1005.224	762.584
121.293	13.548	1004.366	762.192
122.308	13.594	1003.515	761.688
123.322	13.565	1002.340	760.595
124.337	13.463	1001.377	759.331
125.352	13.561	1000.267	758.873
126.366	13.518	999.213	757.807
127.381	13.616	997.914	757.202
128.395	13.484	997.342	756.099
129.410	13.613	996.150	755.718
130.424	13.582	995.302	754.867
131.439	13.574	994.793	754.377
132.454	13.617	993.673	753.655
133.468	13.682	993.022	753.394
134.483	13.641	992.201	752.516
135.497	13.597	991.269	751.541
136.512	13.611	990.259	750.772
137.527	13.608	989.349	750.002
138.541	13.625	988.922	749.690
139.556	13.704	987.930	749.231
140.570	13.648	987.127	748.301
141.585	13.748	986.470	748.187
142.600	13.754	985.458	747.379
143.614	13.672	984.650	746.332
144.629	13.836	983.568	746.184
145.643	13.768	983.030	745.406
146.658	13.840	981.524	744.518
147.673	13.661	981.047	743.291
148.687	13.656	980.127	742.505
149.702	13.707	979.119	741.901
150.716	13.817	978.419	741.799
151.731	13.819	977.998	741.424
152.746	13.787	977.037	740.485
153.760	13.765	976.707	740.073
154.775	13.837	975.494	739.410
155.789	13.784	975.450	739.073
156.804	13.841	973.893	738.082
157.819	13.760	973.881	737.648
158.833	13.970	972.766	737.669
159.848	13.989	971.918	737.046
160.862	13.849	971.148	735.776
161.877	13.853	970.416	735.174
162.892	13.888	968.800	734.040
163.906	13.898	968.178	733.548
164.921	13.871	967.503	732.854
165.935	13.865	966.743	732.187
166.950	13.881	965.717	731.415
167.964	13.783	964.939	730.328
168.979	13.907	963.986	730.088
169.994	13.923	963.052	729.387
171.008	13.852	962.533	728.616
172.023	14.109	961.384	728.809
173.037	13.934	961.065	727.736
174.052	13.984	960.244	727.270
175.067	13.880	960.044	726.599
176.081	13.869	959.491	726.069
177.096	14.015	958.391	725.808
178.110	14.075	957.692	725.476
179.125	13.961	957.353	724.659
180.140	13.922	956.986	724.147
181.154	14.124	956.137	724.321
182.169	14.095	955.678	723.782
183.183	14.052	955.267	723.217
184.198	14.143	954.432	722.918
185.213	14.163	953.174	721.987
186.227	14.115	952.811	721.442
187.242	14.204	952.100	721.225
188.256	14.097	951.748	720.432
189.271	14.172	950.830	719.996
190.286	14.085	949.681	718.686
191.300	14.026	948.843	717.734
192.315	13.971	948.910	717.485
193.329	13.990	948.398	717.114
194.344	14.122	947.226	716.735
195.359	14.262	946.389	716.639
196.373	14.177	945.756	715.734
197.388	14.210	946.197	716.145
198.402	14.297	945.243	715.734
199.417	14.313	944.404	715.103
200.432	14.416	943.686	714.940
201.446	14.476	943.173	714.746
202.461	14.346	942.952	713.958
203.475	14.416	942.388	713.767
204.490	14.430	941.190	712.854
205.504	14.381	940.449	712.023
206.519	14.446	939.468	711.492
207.534	14.405	939.103	710.978
208.548	14.458	938.557	710.731
209.563	14.521	937.871	710.414
210.577	14.515	937.401	709.968
211.592	14.446	936.500	708.932
212.607	14.474	935.318	708.094
213.621	14.424	934.920	707.516
214.636	14.551	934.061	707.343
215.650	14.605	933.341	706.965
216.665	14.566	932.999	706.478
217.680	14.667	931.965	706.058
218.694	14.720	931.069	705.541
219.709	14.709	930.821	705.245
220.723	14.587	930.232	704.222
221.738	14.644	929.672	703.976
222.753	14.655	928.905	703.379
223.767	14.719	928.274	703.107
224.782	14.793	927.854	703.038
225.796	14.734	927.459	702.428
226.811	14.795	926.470	701.873
227.826	14.881	925.364	701.333
228.840	14.632	925.109	700.034
229.855	14.714	924.184	699.618
230.869	14.758	923.284	699.057
231.884	14.842	922.509	698.759
232.899	14.805	921.892	698.079
233.913	14.736	921.369	697.329
234.928	14.706	920.279	696.318
235.942	14.828	919.914	696.490
236.957	14.768	919.708	696.025
237.972	14.804	918.850	695.461
238.986	14.891	918.177	695.253
240.001	14.816	917.584	694.428
241.015	14.946	916.899	694.391
242.030	14.760	916.547	693.290
243.045	14.829	915.616	692.810
244.059	14.912	915.008	692.631
245.074	14.933	914.713	692.434
246.088	14.935	913.303	691.314
247.103	15.032	912.624	691.139
248.117	14.935	912.780	690.796
249.132	15.014	911.655	690.211
250.147	15.191	910.981	690.369
251.161	15.106	910.357	689.483
252.176	15.143	909.942	689.259
253.190	15.230	908.857	688.736
254.205	15.307	908.374	688.625
255.220	15.248	908.007	688.042
256.234	15.304	907.081	687.512
257.249	15.246	906.327	686.642
258.263	15.334	905.552	686.352
259.278	15.215	905.326	685.634
260.293	15.201	904.626	684.985
261.307	15.440	903.934	685.377
262.322	15.393	903.359	684.687
263.336	15.372	902.589	683.961
264.351	15.488	901.835	683.801
265.366	15.428	901.431	683.190
266.380	15.442	900.568	682.532
267.395	15.518	899.815	682.209
268.409	15.474	899.005	681.354
269.424	15.523	898.502	681.114
270.439	15.403	897.906	680.117
271.453	15.453	897.238	679.752
272.468	15.436	897.065	679.492
273.482	15.374	896.316	678.614
274.497	15.467	895.696	678.458
275.512	15.507	895.067	678.085
276.526	15.441	894.684	677.469
277.541	15.521	894.060	677.259
278.555	15.745	893.004	677.300
279.570	15.643	892.460	676.418
280.585	15.683	891.625	675.887
281.599	15.781	890.715	675.528
282.614	15.577	890.263	674.307
283.628	15.518	889.687	673.577
284.643	15.702	889.019	673.748
285.657	15.753	888.168	673.247
286.672	15.816	887.653	673.051
287.687	15.794	886.702	672.181
288.701	15.629	887.072	671.742
289.716	15.678	886.372	671.347
290.730	15.834	885.613	671.338
291.745	15.664	884.893	670.055
292.760	15.740	884.252	669.812
293.774	15.776	883.859	669.600
294.789	15.785	882.656	668.662
295.803	15.802	882.279	668.387
296.818	15.893	881.351	667.986
297.833	15.734	881.084	667.092
298.847	15.843	880.558	667.067
299.862	15.831	879.775	666.369
300.876	15.863	879.094	665.920
301.891	15.875	878.481	665.445
302.906	15.972	877.776	665.234
303.920	15.930	877.367	664.701
304.935	15.980	876.914	664.494
305.949	16.108	875.761	664.065
306.964	16.038	875.621	663.626
307.979	16.110	874.736	663.180
308.993	16.117	874.010	662.596
310.008	16.179	873.438	662.349
311.022	16.029	873.313	661.608
312.037	15.980	872.852	661.009
313.052	15.986	871.958	660.296
314.066	15.932	871.211	659.459
315.081	16.092	870.718	659.656
316.095	16.190	869.884	659.347
317.110	16.139	869.594	658.869
318.125	16.015	869.228	658.051
319.139	16.127	868.473	657.858
320.154	16.238	868.101	657.951
321.168	16.228	867.590	657.464
322.183	16.212	866.792	656.740
323.197	16.326	866.333	656.776
324.212	16.174	865.945	655.835
325.227	16.189	865.391	655.413
326.241	16.225	864.426	654.764
327.256	16.148	864.137	654.191
328.270	16.143	863.931	653.958
329.285	16.225	863.058	653.555
330.300	16.248	862.300	653.014
331.314	16.163	861.924	652.342
332.329	16.315	861.713	652.711
333.343	16.261	861.335	652.157
334.358	16.326	860.332	651.593
335.373	16.350	859.879	651.287
336.387	16.344	859.823	651.161
337.402	16.511	859.666	651.629
338.416	16.322	859.603	650.797
339.431	16.508	858.923	650.938
340.446	16.478	858.723	650.615
341.460	16.499	857.889	650.005
342.475	16.489	857.606	649.695
343.489	16.721	856.544	649.724
344.504	16.633	856.366	649.192
345.519	16.602	855.823	648.605
346.533	16.754	855.294	648.730
347.548	16.778	854.714	648.325
348.562	16.633	853.950	647.132
349.577	16.576	853.593	646.585
350.592	16.647	852.852	646.239
351.606	16.560	852.359	645.478
352.621	16.637	851.602	645.141
353.635	16.586	851.206	644.589
354.650	16.708	850.202	644.234
355.665	16.661	849.562	643.516
356.679	16.713	848.969	643.207
357.694	16.739	848.688	643.037
358.708	16.774	847.675	642.344
359.723	16.870	847.106	642.220
360.738	16.725	846.800	641.383
361.752	16.798	846.002	640.997
362.767	16.765	845.469	640.411
363.781	16.937	844.733	640.445
364.796	16.964	844.289	640.153
365.810	16.899	844.038	639.662
366.825	17.000	844.028	639.980
367.840	16.782	843.328	638.569
368.854	16.903	842.822	638.585
369.869	16.919	842.576	638.405
370.883	17.094	842.146	638.681
371.898	17.021	841.424	637.801
372.913	16.984	841.290	637.505
373.927	17.064	840.284	636.986
374.942	17.092	839.834	636.694
375.956	17.123	839.785	636.715
376.971	17.170	839.295	636.463
377.986	17.248	838.595	636.170
379.000	17.296	838.357	636.111
380.015	17.235	837.911	635.489
381.029	17.206	837.100	634.709
382.044	17.209	836.550	634.247
383.059	17.229	835.570	633.523
384.073	17.318	835.264	633.567
385.088	17.238	834.756	632.829
386.102	17.307	834.001	632.454
387.117	17.310	833.485	632.022
388.132	17.213	833.141	631.342
389.146	17.251	832.546	630.976
390.161	17.277	832.007	630.607
391.175	17.332	831.915	630.689
392.190	17.358	831.319	630.277
393.205	17.451	830.516	629.956
394.219	17.419	830.035	629.416
395.234	17.312	829.822	628.804
396.248	17.396	829.108	628.518
397.263	17.322	828.717	627.893
398.278	17.439	828.508	628.110
399.292	17.437	827.973	627.641
400.307	17.321	827.522	626.815
401.321	17.400	827.228	626.831
402.336	17.267	826.712	625.894
403.350	17.345	826.118	625.675
404.365	17.334	826.052	625.530
405.380	17.441	825.327	625.318
406.394	17.559	824.444	625.027
407.409	17.591	824.028	624.773
408.423	17.757	823.645	625.037
409.438	17.612	823.405	624.267
410.453	17.568	822.958	623.712
411.467	17.654	822.432	623.572
412.482	17.738	822.530	623.899
413.496	17.738	821.949	623.404
414.511	17.634	821.791	622.849
415.526	17.754	821.207	622.791
416.540	17.775	820.493	622.270
417.555	17.921	819.925	622.316
418.569	17.882	819.610	621.879
419.584	17.903	819.113	621.523
420.599	17.909	818.340	620.905
421.613	105.183	1287.038	1446.915
422.628	90.879	1355.323	1447.020
