DTS Sentinel unit serial number:	SN413079Multiplexer serial number:	ORYXHardware model number:	OX4-SRSoftware version number:	ORYX F/W v4.00 Oryx Data Collector v3.7.2.0data status	okinstallation	princeton_trtdifferential loss correction	single-endedforward channel	channel 1reverse channel	N/Adate	2019/09/15time	20:38:36forward acquisition time	60.00reverse acquisition time	0.00gamma	496.2192k internal	0.2325k external	0.2325temperature offset calibration	0.9958default loss term (dB/km)	0.3790temperature slope calibration	1.0000multiplexer offset coefficient	1.0000multiplexer slope coefficient	1.0000fibre end	0.00T internal ref (°C)	32.94T ext. ref 1 (°C)	7.87T ext. ref 2 (°C)	24.68length (m)	temperature (°C)	Stokes	anti-Stokes-747.200	-25.654	-0.132	-0.079
-746.185	-28.668	0.133	0.077
-745.171	-200.000	0.021	-0.171
-744.156	98.390	-0.153	0.178
-743.142	-88.193	-0.188	-0.057
-742.127	-89.052	-0.041	-0.012
-741.112	-6.310	-0.087	0.060
-740.098	-200.000	0.006	0.448
-739.083	-124.179	0.241	-0.038
-738.069	178.277	-0.135	0.199
-737.054	-90.731	-0.450	0.131
-736.039	-119.684	-0.428	-0.075
-735.025	-200.000	0.035	0.239
-734.010	800.000	-0.078	-0.221
-732.996	759.697	0.081	-0.223
-731.981	662.023	0.094	-0.243
-730.966	251.690	-0.075	0.128
-729.952	529.957	-0.090	0.214
-728.937	-33.641	0.201	0.112
-727.923	-200.000	-0.048	-0.304
-726.908	-200.000	0.033	0.264
-725.894	800.000	0.009	-0.034
-724.879	-200.000	0.015	0.205
-723.864	206.215	-0.034	-0.053
-722.850	-4.095	-0.016	0.011
-721.835	-40.700	0.084	-0.044
-720.821	-200.000	0.005	-0.203
-719.806	-200.000	0.058	0.561
-718.791	-200.000	-0.005	0.127
-717.777	-200.000	0.032	-0.198
-716.762	800.000	0.111	-0.365
-715.748	-4.832	0.170	-0.118
-714.733	212.228	0.105	-0.167
-713.718	15.520	-0.182	0.144
-712.704	-14.845	0.249	0.161
-711.689	-134.080	0.138	0.017
-710.675	-37.525	-0.134	-0.072
-709.660	-200.000	-0.024	0.319
-708.645	-95.773	-0.738	-0.199
-707.631	-91.603	-0.325	-0.093
-706.616	354.637	0.104	0.208
-705.602	35.705	-0.161	-0.143
-704.587	222.009	-0.070	0.114
-703.572	89.501	-0.221	0.248
-702.558	-90.688	-0.285	-0.083
-701.543	155.281	0.044	0.061
-700.529	-157.115	0.084	0.005
-699.514	-200.000	0.048	-0.234
-698.499	-7.861	0.167	-0.113
-697.485	64.776	0.183	0.186
-696.470	64.608	-0.101	-0.102
-695.456	-48.172	0.268	-0.130
-694.441	-26.323	-0.111	0.066
-693.426	-53.578	-0.270	0.124
-692.412	225.438	0.144	-0.235
-691.397	47.322	-0.051	-0.048
-690.383	147.646	-0.093	-0.126
-689.368	-146.568	0.295	-0.026
-688.354	4.854	-0.159	0.118
-687.339	24.205	-0.146	0.121
-686.324	19.516	-0.188	-0.152
-685.310	108.356	-0.119	-0.143
-684.295	-66.186	-0.226	-0.091
-683.281	800.000	0.073	-0.281
-682.266	-126.229	-0.109	-0.016
-681.251	-200.000	0.021	0.243
-680.237	-23.372	0.069	-0.042
-679.222	-200.000	0.009	0.099
-678.208	800.000	-0.030	-0.112
-677.193	37.433	0.102	0.091
-676.178	-200.000	-0.066	-0.326
-675.164	-99.812	0.202	0.051
-674.149	-123.120	-0.348	-0.056
-673.135	255.657	0.109	-0.188
-672.120	-66.965	-0.187	0.074
-671.105	-200.000	-0.394	0.000
-670.091	-41.022	0.438	0.227
-669.076	-155.054	0.083	0.005
-668.062	108.897	-0.066	-0.080
-667.047	-49.078	0.235	0.113
-666.032	246.925	0.115	0.196
-665.018	-61.184	-0.146	-0.062
-664.003	-34.153	-0.067	-0.037
-662.989	241.934	0.064	-0.107
-661.974	-200.000	-0.118	0.000
-660.959	75.437	0.184	0.195
-659.945	-200.000	-0.015	0.265
-658.930	800.000	0.101	0.385
-657.916	-174.368	0.241	-0.007
-656.901	-65.966	0.205	-0.082
-655.886	-102.538	-0.151	-0.036
-654.872	-191.785	-0.209	0.002
-653.857	-110.117	-0.073	0.015
-652.843	43.767	0.276	-0.254
-651.828	235.791	-0.164	0.272
-650.814	-85.084	-0.269	0.085
-649.799	69.223	0.121	-0.125
-648.784	800.000	-0.040	-0.146
-647.770	68.877	-0.166	0.172
-646.755	297.655	0.024	0.044
-645.741	-18.411	0.195	0.122
-644.726	398.990	-0.075	0.159
-643.711	-89.696	-0.278	-0.082
-642.697	-200.000	-0.000	-0.048
-641.682	-200.000	-0.253	-0.001
-640.668	775.070	-0.057	-0.157
-639.653	-200.000	-0.004	0.022
-638.638	-200.000	-0.011	-0.220
-637.624	-96.420	-0.215	0.057
-636.609	502.349	0.043	-0.099
-635.595	-89.893	-0.107	-0.032
-634.580	-2.928	-0.171	0.120
-633.565	-145.881	-0.150	-0.013
-632.551	-200.000	0.032	0.174
-631.536	-116.898	0.258	0.047
-630.522	-36.016	-0.270	-0.147
-629.507	153.650	-0.043	-0.059
-628.492	85.878	-0.203	0.225
-627.478	800.000	0.029	0.081
-626.463	277.183	-0.138	-0.247
-625.449	258.686	0.192	-0.333
-624.434	800.000	0.067	-0.195
-623.419	-197.965	-0.103	-0.001
-622.405	-17.818	-0.347	-0.218
-621.390	-40.765	0.261	-0.136
-620.376	110.683	-0.110	0.133
-619.361	-173.035	-0.389	-0.012
-618.346	-158.735	-0.441	0.025
-617.332	302.596	0.104	-0.194
-616.317	-200.000	-0.001	0.117
-615.303	-133.341	0.120	0.015
-614.288	50.170	0.179	-0.170
-613.273	82.251	0.149	0.163
-612.259	-6.830	-0.021	-0.014
-611.244	319.898	-0.172	-0.328
-610.230	-45.722	-0.282	-0.140
-609.215	-200.000	-0.010	0.211
-608.201	62.300	-0.062	-0.062
-607.186	-200.000	-0.020	0.250
-606.171	-200.000	-0.026	-0.285
-605.157	111.310	0.182	-0.220
-604.142	-82.749	-0.119	-0.039
-603.128	-200.000	-0.004	-0.088
-602.113	-112.485	-0.247	-0.049
-601.098	230.794	-0.120	-0.196
-600.084	-117.232	-0.067	0.012
-599.069	290.665	-0.195	-0.356
-598.055	-27.498	-0.149	0.087
-597.040	112.622	-0.173	-0.211
-596.025	-130.532	0.084	0.011
-595.011	-76.876	0.224	-0.079
-593.996	-200.000	-0.000	0.091
-592.982	800.000	0.133	0.502
-591.967	-127.134	-0.476	-0.070
-590.952	800.000	-0.051	0.186
-589.938	366.754	0.059	0.120
-588.923	-200.000	0.047	0.210
-587.909	-131.596	-0.120	0.016
-586.894	-23.701	-0.145	0.087
-585.879	-83.940	0.325	-0.104
-584.865	75.539	0.059	0.063
-583.850	-85.014	0.114	0.036
-582.836	-32.021	0.210	0.118
-581.821	-48.895	-0.009	0.004
-580.806	116.068	-0.076	0.093
-579.792	32.006	0.217	-0.188
-578.777	377.508	0.185	0.379
-577.763	-66.816	-0.094	0.037
-576.748	-41.611	0.202	0.104
-575.733	228.811	-0.031	-0.051
-574.719	-91.766	0.376	-0.107
-573.704	-56.730	-0.153	0.068
-572.690	-200.000	-0.011	-0.135
-571.675	79.400	0.403	0.433
-570.661	-200.000	-0.026	-0.265
-569.646	6.879	0.147	-0.110
-568.631	54.002	-0.373	0.360
-567.617	177.434	-0.216	0.315
-566.602	-76.946	-0.239	-0.084
-565.588	-97.014	0.294	-0.077
-564.573	-200.000	-0.088	0.398
-563.558	-82.215	-0.212	0.069
-562.544	41.614	-0.150	-0.136
-561.529	-116.241	0.147	-0.027
-560.515	8.636	-0.294	0.222
-559.500	-200.000	0.109	-0.515
-558.485	62.462	0.162	-0.162
-557.471	-90.160	-0.178	0.052
-556.456	146.203	0.113	0.152
-555.442	375.202	0.074	-0.150
-554.427	-200.000	-0.031	-0.309
-553.412	-148.443	-0.380	-0.031
-552.398	-156.350	-0.241	0.015
-551.383	164.540	0.127	0.180
-550.369	-190.235	-0.110	-0.001
-549.354	71.637	0.185	-0.192
-548.339	-200.000	-0.042	-0.237
-547.325	-135.047	0.178	-0.022
-546.310	352.390	-0.129	0.256
-545.296	717.444	0.094	-0.251
-544.281	116.801	-0.064	-0.079
-543.266	-46.512	-0.147	0.072
-542.252	-200.000	-0.065	-0.343
-541.237	2.609	0.256	-0.185
-540.223	-40.092	-0.349	0.182
-539.208	153.515	0.141	0.193
-538.193	-200.000	0.032	-0.469
-537.179	800.000	-0.034	-0.102
-536.164	159.034	0.078	-0.109
-535.150	52.501	0.259	-0.248
-534.135	165.992	0.169	-0.240
-533.121	66.502	-0.227	0.231
-532.106	116.021	-0.156	0.192
-531.091	-65.648	0.486	-0.195
-530.077	-116.674	0.022	0.004
-529.062	107.942	-0.201	-0.239
-528.048	564.177	-0.082	-0.198
-527.033	-9.749	0.272	0.181
-526.018	497.149	0.037	0.085
-525.004	33.375	-0.220	0.191
-523.989	800.000	0.057	0.181
-522.975	800.000	0.020	-0.063
-521.960	283.520	-0.163	0.293
-520.945	-52.026	-0.127	-0.059
-519.931	-141.079	0.338	0.035
-518.916	169.142	0.137	0.196
-517.902	-160.570	-0.156	-0.008
-516.887	-200.000	0.018	0.086
-515.872	-191.101	-0.041	0.000
-514.858	-44.315	-0.058	-0.029
-513.843	141.402	-0.267	0.354
-512.829	25.071	0.092	0.077
-511.814	1.122	-0.365	0.262
-510.799	-200.000	-0.004	0.209
-509.785	-9.959	-0.219	-0.145
-508.770	-79.890	0.385	-0.129
-507.756	232.696	0.028	0.046
-506.741	98.023	-0.258	0.297
-505.726	661.974	0.050	0.129
-504.712	-111.067	0.214	-0.044
-503.697	-26.817	0.172	0.101
-502.683	-34.278	-0.157	-0.086
-501.668	-76.750	0.177	-0.062
-500.653	-27.362	0.326	-0.190
-499.639	-157.897	-0.158	0.009
-498.624	800.000	0.067	-0.279
-497.610	-200.000	-0.011	-0.205
-496.595	8.984	0.197	0.148
-495.581	21.475	-0.012	0.009
-494.566	22.337	-0.126	-0.103
-493.551	437.133	-0.060	0.131
-492.537	-90.709	0.233	-0.067
-491.522	-36.603	-0.131	-0.070
-490.508	-131.826	-0.393	-0.051
-489.493	182.437	0.068	0.100
-488.478	-30.086	-0.107	-0.061
-487.464	-200.000	0.007	-0.044
-486.449	-4.278	-0.053	-0.037
-485.435	-86.663	0.081	-0.025
-484.420	52.452	0.149	-0.142
-483.405	236.206	0.234	-0.386
-482.391	25.248	-0.060	0.049
-481.376	-99.891	-0.208	0.052
-480.362	-74.730	-0.021	-0.008
-479.347	-111.467	-0.167	0.034
-478.332	-200.000	0.028	0.258
-477.318	431.613	0.113	0.245
-476.303	165.838	0.015	-0.021
-475.289	800.000	0.039	0.130
-474.274	-133.636	-0.397	0.050
-473.259	-200.000	-0.006	-0.089
-472.245	69.980	-0.186	-0.192
-471.230	-2.806	-0.172	-0.120
-470.216	-153.748	-0.255	0.018
-469.201	-121.892	-0.281	-0.046
-468.186	53.303	0.119	0.114
-467.172	58.209	0.208	-0.203
-466.157	-92.382	-0.045	0.013
-465.143	-200.000	-0.039	-0.174
-464.128	29.235	0.037	0.031
-463.113	-29.116	-0.300	-0.172
-462.099	80.487	-0.224	-0.240
-461.084	454.388	-0.151	0.334
-460.070	15.827	0.229	0.180
-459.055	-137.723	-0.580	0.065
-458.040	177.581	-0.077	-0.112
-457.026	800.000	0.115	-0.438
-456.011	-123.941	-0.226	0.035
-454.997	44.601	-0.221	-0.203
-453.982	-200.000	0.040	0.305
-452.968	13.911	-0.309	0.240
-451.953	-200.000	-0.011	0.323
-450.938	108.879	0.270	-0.323
-449.924	132.791	-0.170	-0.219
-448.909	2.278	-0.079	-0.057
-447.895	-122.915	0.309	0.050
-446.880	95.721	0.049	-0.056
-445.865	162.726	0.138	-0.193
-444.851	50.146	-0.131	-0.123
-443.836	439.319	0.113	0.247
-442.822	390.693	-0.072	0.150
-441.807	-150.979	-0.057	-0.004
-440.792	-22.467	-0.265	-0.160
-439.778	395.550	0.064	0.133
-438.763	800.000	-0.072	0.264
-437.749	-200.000	0.009	0.104
-436.734	298.458	0.100	0.183
-435.719	88.802	0.154	0.171
-434.705	177.910	0.045	-0.066
-433.690	-30.996	-0.112	0.063
-432.676	162.938	-0.091	-0.127
-431.661	800.000	-0.051	-0.143
-430.646	-200.000	-0.024	0.310
-429.632	28.992	0.183	-0.155
-428.617	48.905	-0.132	-0.124
-427.603	-200.000	-0.016	0.276
-426.588	-200.000	0.008	0.235
-425.573	-139.781	0.164	0.017
-424.559	-142.624	-0.198	-0.019
-423.544	-200.000	-0.024	0.190
-422.530	-51.543	0.288	-0.134
-421.515	420.090	0.037	-0.079
-420.500	-200.000	-0.027	-0.160
-419.486	-58.248	-0.228	0.099
-418.471	172.535	0.153	-0.219
-417.457	443.266	-0.059	0.129
-416.442	-96.991	-0.303	0.079
-415.428	-73.380	0.260	-0.095
-414.413	800.000	-0.066	-0.218
-413.398	-128.559	0.183	-0.026
-412.384	-158.408	-0.226	0.013
-411.369	115.668	0.301	0.366
-410.355	-200.000	0.025	0.261
-409.340	800.000	-0.085	0.263
-408.325	-70.718	0.325	-0.122
-407.311	-106.127	-0.104	-0.023
-406.296	-92.013	-0.162	-0.046
-405.282	718.218	0.159	-0.421
-404.267	-5.630	-0.171	0.117
-403.252	-200.000	0.005	-0.035
-402.238	211.316	-0.014	0.023
-401.223	-114.070	0.095	0.018
-400.209	-8.800	-0.236	-0.157
-399.194	-145.619	0.175	0.016
-398.179	-200.000	0.003	0.051
-397.165	54.057	0.055	0.053
-396.150	-35.852	0.109	-0.059
-395.136	-199.453	0.113	0.001
-394.121	33.986	-0.154	0.133
-393.106	-200.000	0.014	0.068
-392.092	-40.033	-0.087	0.045
-391.077	-41.874	-0.217	-0.111
-390.063	-30.044	0.245	-0.139
-389.048	-138.359	0.260	-0.029
-388.033	-11.767	0.155	0.101
-387.019	-112.885	-0.219	-0.043
-386.004	161.014	0.099	-0.137
-384.990	-1.671	-0.107	0.075
-383.975	800.000	0.047	0.197
-382.960	-89.752	-0.288	0.084
-381.946	-200.000	-0.009	0.103
-380.931	240.029	-0.071	-0.118
-379.917	401.995	-0.016	0.033
-378.902	-172.587	-0.247	-0.008
-377.888	-8.818	0.151	0.101
-376.873	47.126	-0.268	0.248
-375.858	800.000	0.072	-0.226
-374.844	32.253	-0.122	-0.105
-373.829	800.000	0.056	-0.214
-372.815	-104.186	-0.138	-0.032
-371.800	-44.566	-0.110	-0.055
-370.785	293.745	-0.017	-0.030
-369.771	-200.000	-0.046	-0.212
-368.756	-83.624	0.171	0.054
-367.742	-28.923	-0.028	0.016
-366.727	-61.714	0.241	-0.100
-365.712	106.954	0.093	0.110
-364.698	-200.000	-0.063	-0.290
-363.683	-200.000	-0.035	-0.312
-362.669	-180.463	0.338	0.007
-361.654	-26.206	0.105	0.062
-360.639	-200.000	0.010	-0.125
-359.625	800.000	-0.089	0.311
-358.610	800.000	0.086	0.352
-357.596	564.147	-0.112	0.270
-356.581	229.977	0.166	-0.270
-355.566	126.266	-0.229	0.288
-354.552	800.000	-0.077	-0.325
-353.537	-79.255	-0.223	0.075
-352.523	83.004	-0.161	0.174
-351.508	-106.338	-0.185	-0.041
-350.493	-194.391	-0.333	0.003
-349.479	-41.295	0.048	-0.025
-348.464	800.000	0.079	-0.259
-347.450	-74.848	-0.301	0.107
-346.435	-68.304	0.090	-0.035
-345.420	-143.661	0.307	-0.029
-344.406	2.925	-0.114	-0.082
-343.391	-63.116	0.202	0.083
-342.377	127.994	-0.072	-0.091
-341.362	800.000	-0.047	-0.180
-340.348	-200.000	0.041	0.276
-339.333	198.456	0.055	0.083
-338.318	81.975	0.334	0.360
-337.304	-171.517	-0.086	-0.003
-336.289	98.592	-0.159	0.182
-335.275	-126.539	0.306	0.045
-334.260	391.213	-0.095	0.195
-333.245	197.188	-0.261	-0.396
-332.231	-90.690	-0.357	-0.102
-331.216	360.867	0.095	0.189
-330.202	-53.307	-0.261	0.119
-329.187	-200.000	-0.009	-0.046
-328.172	-63.832	0.461	0.188
-327.158	-129.691	0.143	0.020
-326.143	227.369	0.106	0.171
-325.129	-200.000	0.055	-0.459
-324.114	800.000	-0.103	-0.365
-323.099	-35.478	-0.107	0.057
-322.085	-13.471	-0.213	0.137
-321.070	98.149	-0.209	-0.238
-320.056	-200.000	-0.009	-0.318
-319.041	800.000	0.065	0.215
-318.026	-163.729	0.299	0.014
-317.012	24.370	-0.207	-0.170
-315.997	-109.993	0.187	-0.039
-314.983	80.602	-0.221	0.237
-313.968	190.056	-0.040	-0.060
-312.953	800.000	0.085	0.261
-311.939	127.170	0.124	-0.156
-310.924	-143.028	-0.348	-0.033
-309.910	-41.802	0.028	-0.014
-308.895	-102.015	0.215	0.051
-307.880	297.961	-0.178	0.324
-306.866	249.395	0.177	0.298
-305.851	167.553	0.225	-0.317
-304.837	291.613	-0.181	-0.327
-303.822	-162.689	-0.254	-0.012
-302.807	-98.850	-0.362	-0.091
-301.793	58.063	-0.230	0.224
-300.778	-129.916	0.026	0.004
-299.764	116.514	0.052	0.064
-298.749	-145.060	0.381	0.034
-297.735	797.684	-0.061	-0.166
-296.720	-55.268	-0.128	0.057
-295.705	459.953	0.025	0.056
-294.691	-67.887	0.414	-0.160
-293.676	-184.773	-0.169	-0.003
-292.662	800.000	0.019	0.067
-291.647	131.153	-0.195	-0.248
-290.632	-30.923	-0.290	0.162
-289.618	-200.000	0.036	0.202
-288.603	74.051	0.268	-0.279
-287.589	-200.000	0.029	0.146
-286.574	142.278	-0.107	0.140
-285.559	-1.027	0.083	-0.058
-284.545	182.052	0.206	-0.300
-283.530	-69.840	0.255	0.096
-282.516	-152.552	0.197	0.014
-281.501	593.087	-0.092	0.225
-280.486	20.179	0.170	-0.136
-279.472	-161.940	-0.252	0.013
-278.457	47.904	-0.083	0.077
-277.443	800.000	0.042	-0.173
-276.428	-200.000	0.000	-0.178
-275.413	-200.000	-0.034	0.260
-274.399	123.319	-0.105	0.131
-273.384	752.353	0.034	0.090
-272.370	-1.520	-0.145	-0.101
-271.355	133.854	0.071	0.091
-270.340	249.020	0.111	0.186
-269.326	-141.367	-0.245	-0.025
-268.311	800.000	0.096	0.304
-267.297	-67.704	0.106	0.041
-266.282	800.000	-0.047	-0.148
-265.267	-200.000	-0.007	-0.239
-264.253	-69.072	-0.021	-0.008
-263.238	127.909	-0.118	-0.149
-262.224	-116.781	0.161	-0.029
-261.209	-107.883	-0.181	-0.039
-260.195	260.352	-0.015	-0.026
-259.180	188.159	-0.014	-0.020
-258.165	26.701	-0.093	-0.077
-257.151	-142.464	0.179	-0.017
-256.136	74.854	-0.083	-0.086
-255.122	40.426	0.187	-0.166
-254.107	-111.400	0.320	-0.065
-253.092	-95.719	0.261	0.069
-252.078	-124.900	0.446	0.068
-251.063	-200.000	-0.007	-0.102
-250.049	-127.027	0.349	-0.051
-249.034	-84.799	-0.468	0.146
-248.019	168.442	-0.081	0.114
-247.005	603.302	0.081	0.199
-245.990	800.000	-0.061	0.221
-244.976	-200.000	0.002	0.044
-243.961	603.991	-0.112	-0.276
-242.946	-51.670	0.207	-0.095
-241.932	-200.000	-0.004	0.267
-240.917	85.704	-0.296	0.322
-239.903	-169.384	0.249	0.009
-238.888	-43.247	-0.390	-0.195
-237.873	-76.519	0.203	0.071
-236.859	35.942	0.176	-0.153
-235.844	800.000	0.065	-0.244
-234.830	-115.412	0.159	-0.030
-233.815	-200.000	-0.002	-0.019
-232.800	159.948	-0.181	0.249
-231.786	92.901	-0.145	-0.162
-230.771	269.997	-0.079	0.137
-229.757	-51.595	-0.220	-0.102
-228.742	184.254	0.126	0.184
-227.727	-200.000	-0.013	-0.135
-226.713	-11.583	0.082	0.053
-225.698	-147.986	0.291	0.024
-224.684	125.415	0.300	-0.375
-223.669	-200.000	-0.009	-0.273
-222.655	-126.028	-0.042	0.006
-221.640	-91.122	0.244	-0.069
-220.625	-87.402	0.377	-0.113
-219.611	101.395	0.273	-0.315
-218.596	-4.546	-0.187	0.128
-217.582	48.428	-0.105	0.098
-216.567	-34.686	0.209	0.113
-215.552	102.829	-0.032	-0.037
-214.538	800.000	0.018	-0.052
-213.523	-124.963	0.154	-0.023
-212.509	800.000	0.036	-0.104
-211.494	1.260	0.471	0.334
-210.479	89.275	0.118	-0.130
-209.465	-47.941	0.140	-0.067
-208.450	115.131	0.090	-0.109
-207.436	-200.000	-0.008	-0.140
-206.421	800.000	-0.029	0.099
-205.406	192.123	0.113	-0.168
-204.392	68.890	0.044	-0.045
-203.377	-126.786	-0.221	-0.032
-202.363	289.276	0.052	-0.094
-201.348	282.033	-0.151	0.267
-200.333	12.682	-0.122	0.093
-199.319	238.667	-0.082	-0.134
-198.304	-50.666	0.164	0.076
-197.290	-99.352	0.230	-0.057
-196.275	-50.307	-0.209	-0.097
-195.260	-106.963	0.228	0.050
-194.246	-91.488	0.151	0.042
-193.231	-200.000	0.023	0.198
-192.217	-26.252	0.293	0.170
-191.202	283.051	0.080	0.141
-190.187	-92.940	-0.592	0.163
-189.173	345.403	0.167	0.325
-188.158	-109.148	-0.031	0.007
-187.144	-11.096	0.277	0.180
-186.129	-1.658	0.363	0.252
-185.114	-161.784	0.145	-0.007
-184.100	404.462	0.124	0.257
-183.085	-79.554	-0.065	0.022
-182.071	-200.000	0.042	-0.249
-181.056	38.439	0.165	-0.145
-180.042	-200.000	0.029	-0.255
-179.027	78.063	-0.026	0.027
-178.012	193.869	-0.094	0.141
-176.998	-200.000	0.064	-0.364
-175.983	343.993	-0.081	-0.157
-174.969	-195.794	0.402	-0.003
-173.954	-166.494	-0.097	-0.004
-172.939	98.288	-0.134	-0.153
-171.925	-139.772	0.143	0.015
-170.910	270.834	0.075	0.131
-169.896	61.540	-0.067	0.066
-168.881	800.000	0.065	0.268
-167.866	-53.160	0.349	0.158
-166.852	-163.066	0.128	-0.006
-165.837	6.802	0.265	0.195
-164.823	512.576	0.141	0.325
-163.808	223.938	-0.098	0.155
-162.793	56.145	0.135	0.130
-161.779	155.703	-0.113	-0.153
-160.764	65.003	0.140	0.139
-159.750	-141.520	0.414	-0.041
-158.735	230.162	-0.144	0.232
-157.720	-33.440	-0.115	-0.063
-156.706	-108.534	0.244	0.052
-155.691	-29.778	-0.200	-0.112
-154.677	-84.592	0.172	0.053
-153.662	122.042	0.249	-0.307
-152.647	800.000	0.061	0.217
-151.633	-128.528	0.076	0.011
-150.618	800.000	0.026	0.092
-149.604	331.130	0.130	-0.247
-148.589	-60.526	-0.384	-0.161
-147.574	-40.306	-0.143	0.073
-146.560	33.797	-0.144	-0.124
-145.545	-80.143	0.136	-0.045
-144.531	-37.273	0.176	-0.093
-143.516	-200.000	0.041	-0.319
-142.502	-79.788	0.216	0.072
-141.487	255.047	0.140	-0.236
-140.472	-200.000	-0.001	-0.277
-139.458	-200.000	0.015	0.301
-138.443	-84.743	-0.134	0.042
-137.429	-200.000	0.011	-0.079
-136.414	613.115	-0.133	0.329
-135.399	-56.562	0.292	-0.127
-134.385	-200.000	0.068	0.446
-133.370	34.923	-0.151	-0.130
-132.356	-57.888	-0.141	0.061
-131.341	-200.000	0.107	0.463
-130.326	-54.553	-0.176	-0.079
-129.312	-72.500	-0.316	0.115
-128.297	-50.756	0.193	0.089
-127.283	-10.556	0.282	-0.184
-126.268	-200.000	0.038	-0.268
-125.253	-61.346	0.323	0.134
-124.239	-67.893	0.164	0.063
-123.224	-55.980	-0.157	0.069
-122.210	-12.644	0.208	0.133
-121.195	800.000	0.055	0.202
-120.180	-200.000	0.000	0.086
-119.166	-129.593	-0.262	-0.036
-118.151	-200.000	0.031	0.389
-117.137	58.981	0.069	-0.067
-116.122	-190.542	0.058	-0.001
-115.107	39.893	0.139	-0.123
-114.093	487.855	-0.081	0.183
-113.078	-200.000	-0.011	0.200
-112.064	-66.312	-0.096	0.038
-111.049	800.000	0.035	-0.113
-110.034	62.561	0.269	0.265
-109.020	227.867	0.186	0.297
-108.005	-6.813	0.089	0.060
-106.991	800.000	0.054	-0.189
-105.976	-200.000	0.005	0.078
-104.962	474.835	0.130	0.289
-103.947	433.017	-0.133	-0.283
-102.932	24.691	0.245	0.199
-101.918	-95.543	-0.207	-0.055
-100.903	-125.080	-0.147	-0.022
-99.889	21.485	-0.240	-0.192
-98.874	-200.000	-0.084	-0.433
-97.859	377.852	-0.102	-0.205
-96.845	-200.000	0.065	-0.282
-95.830	52.384	0.180	-0.169
-94.816	-60.428	-0.441	0.184
-93.801	224.900	0.021	0.034
-92.786	800.000	0.042	0.135
-91.772	62.822	-0.153	-0.151
-90.757	800.000	-0.112	-0.401
-89.743	8.400	0.082	0.061
-88.728	-16.452	0.067	0.042
-87.713	-200.000	-0.056	0.340
-86.699	-96.298	0.141	0.037
-85.684	36.803	0.213	0.185
-84.670	-116.520	0.187	-0.034
-83.655	37.085	0.182	-0.159
-82.640	278.223	0.068	-0.120
-81.626	261.689	0.096	-0.163
-80.611	-120.809	0.069	-0.011
-79.597	106.255	0.187	0.218
-78.582	533.690	0.048	0.111
-77.567	-200.000	-0.026	0.250
-76.553	-76.685	0.110	0.038
-75.538	-79.223	0.170	0.057
-74.524	-11.128	-0.205	-0.133
-73.509	-60.899	0.025	0.011
-72.494	136.401	0.235	-0.301
-71.480	-200.000	0.079	-0.488
-70.465	-40.238	0.145	-0.074
-69.451	800.000	-0.121	0.399
-68.436	32.873	-0.055	-0.047
-67.422	-200.000	-0.020	-0.221
-66.407	-140.724	0.200	-0.020
-65.392	351.080	-0.196	0.381
-64.378	-129.790	-0.140	-0.019
-63.363	189.957	0.060	0.088
-62.349	67.303	0.080	0.080
-61.334	9.755	-0.861	-0.642
-60.319	256.958	0.134	0.226
-59.305	-200.000	0.051	-0.962
-58.290	530.290	0.468	1.086
-57.276	705.099	0.650	1.685
-56.261	-200.000	93.346	571.871
-55.246	565.252	1350.790	3216.646
-54.232	167.269	2512.391	3504.370
-53.217	113.804	2125.783	2537.557
-52.203	44.581	1598.242	1442.731
-51.188	36.528	1338.399	1160.045
-50.173	33.187	1297.613	1105.162
-49.159	55.884	1343.190	1279.170
-48.144	57.691	1360.955	1306.759
-47.130	36.566	1320.356	1144.446
-46.115	33.068	1303.320	1109.150
-45.100	32.840	1298.482	1103.653
-44.086	32.786	1295.761	1100.985
-43.071	32.815	1293.594	1099.269
-42.057	32.749	1291.270	1096.865
-41.042	32.768	1289.544	1095.464
-40.027	32.790	1288.150	1094.366
-39.013	32.791	1286.068	1092.562
-37.998	32.860	1284.433	1091.526
-36.984	32.843	1282.689	1089.905
-35.969	33.036	1280.247	1088.899
-34.954	32.906	1279.215	1087.229
-33.940	32.960	1277.388	1085.943
-32.925	33.003	1276.595	1085.474
-31.911	32.992	1275.070	1084.071
-30.896	33.085	1273.564	1083.279
-29.881	33.041	1272.123	1081.761
-28.867	33.051	1270.579	1080.461
-27.852	33.098	1269.615	1079.865
-26.838	33.088	1267.919	1078.320
-25.823	33.081	1266.491	1077.024
-24.809	33.033	1265.522	1075.886
-23.794	32.962	1264.587	1074.644
-22.779	33.063	1262.763	1073.623
-21.765	33.023	1261.415	1072.207
-20.750	32.948	1260.019	1070.553
-19.736	32.917	1259.025	1069.493
-18.721	32.870	1257.936	1068.261
-17.706	32.892	1257.049	1067.585
-16.692	32.846	1255.651	1066.098
-15.677	32.840	1254.704	1065.216
-14.663	32.882	1253.360	1064.271
-13.648	32.965	1252.305	1063.803
-12.633	32.915	1251.100	1062.454
-11.619	32.893	1250.824	1062.055
-10.604	32.884	1249.639	1060.954
-9.590	32.907	1248.445	1060.030
-8.575	32.908	1247.522	1059.206
-7.560	32.872	1247.243	1058.726
-6.546	32.815	1246.326	1057.589
-5.531	32.829	1244.808	1056.334
-4.517	32.806	1244.673	1056.049
-3.502	32.919	1243.480	1055.628
-2.487	32.915	1242.562	1054.785
-1.473	32.670	1238.629	1050.038
-0.458	30.630	1223.201	1025.681
0.556	24.350	1203.224	980.302
1.571	19.738	1208.024	958.616
2.586	18.539	1222.650	963.405
3.600	18.295	1212.186	953.716
4.615	15.561	1145.338	886.631
5.629	10.454	1077.010	808.256
6.644	8.034	1058.364	782.323
7.659	7.867	1055.931	779.636
8.673	7.856	1054.526	778.477
9.688	7.743	1053.337	776.977
10.702	8.036	1051.960	777.321
11.717	11.018	1055.428	794.394
12.731	15.558	1061.871	821.421
13.746	17.594	1063.557	832.614
14.761	17.343	1062.585	830.552
15.775	16.382	1060.398	824.081
16.790	15.187	1058.710	816.874
17.804	14.425	1057.307	812.009
18.819	14.021	1055.892	808.886
19.834	13.841	1054.797	807.098
20.848	13.701	1053.401	805.277
21.863	13.459	1052.688	803.491
22.877	13.133	1052.665	801.818
23.892	13.167	1051.943	801.363
24.907	13.253	1050.812	800.847
25.921	13.329	1049.797	800.370
26.936	13.272	1049.069	799.469
27.950	13.356	1047.381	798.516
28.965	13.462	1045.749	797.711
29.980	13.473	1044.412	796.674
30.994	13.479	1043.351	795.824
32.009	13.544	1042.335	795.291
33.023	13.402	1041.668	794.029
34.038	13.462	1040.159	793.100
35.053	13.486	1038.914	792.192
36.067	13.405	1038.429	791.366
37.082	13.305	1037.814	790.351
38.096	13.480	1037.047	790.528
39.111	13.373	1036.479	789.518
40.126	13.386	1034.838	788.259
41.140	13.210	1033.854	786.603
42.155	13.231	1032.473	785.580
43.169	13.067	1031.951	784.337
44.184	12.989	1030.758	782.990
45.199	13.138	1029.725	782.842
46.213	13.173	1028.597	782.079
47.228	13.184	1027.684	781.371
48.242	13.341	1026.485	781.129
49.257	13.184	1025.460	779.542
50.271	13.283	1024.817	779.451
51.286	13.299	1023.974	778.815
52.301	13.348	1022.812	778.095
53.315	13.258	1021.961	776.953
54.330	13.242	1021.026	776.101
55.344	13.281	1019.798	775.278
56.359	13.372	1018.847	774.913
57.374	13.218	1018.145	773.590
58.388	13.149	1017.423	772.650
59.403	13.161	1016.854	772.208
60.417	13.187	1015.540	771.262
61.432	13.114	1014.595	770.138
62.447	13.010	1014.041	769.162
63.461	12.978	1013.091	768.223
64.476	13.093	1012.147	767.977
65.490	12.991	1011.576	767.001
66.505	13.113	1010.420	766.621
67.520	12.993	1010.345	765.941
68.534	13.209	1008.917	765.789
69.549	13.119	1008.516	765.004
70.563	13.105	1007.358	763.989
71.578	13.040	1006.394	762.892
72.593	12.956	1006.032	762.161
73.607	13.016	1005.113	761.674
74.622	12.969	1004.680	761.065
75.636	13.081	1003.856	760.890
76.651	13.025	1002.898	759.839
77.666	12.968	1002.796	759.428
78.680	13.153	1001.868	759.513
79.695	13.063	1001.198	758.521
80.709	13.160	1000.701	758.525
81.724	13.219	1000.362	758.469
82.739	13.192	999.769	757.828
83.753	13.216	998.806	757.144
84.768	13.385	997.682	756.996
85.782	13.488	996.792	756.726
86.797	13.485	995.897	755.966
87.812	13.328	995.029	754.522
88.826	13.344	994.094	753.823
89.841	13.348	993.096	753.016
90.855	13.443	992.291	752.771
91.870	13.429	991.649	752.155
92.884	13.478	990.734	751.614
93.899	13.431	989.862	750.677
94.914	13.543	989.188	750.603
95.928	13.509	988.248	749.670
96.943	13.428	987.362	748.565
97.957	13.396	986.846	747.963
98.972	13.457	985.634	747.255
99.987	13.539	984.666	746.824
101.001	13.484	983.759	745.824
102.016	13.320	983.278	744.653
103.030	13.534	982.122	744.673
104.045	13.473	981.581	743.926
105.060	13.340	980.608	742.522
106.074	13.296	979.598	741.497
107.089	13.210	978.666	740.340
108.103	13.152	977.792	739.355
109.118	13.236	976.687	738.829
110.133	13.216	976.346	738.416
111.147	13.153	975.581	737.492
112.162	13.212	974.616	736.958
113.176	13.380	973.588	736.864
114.191	13.317	973.059	736.118
115.206	13.308	972.036	735.237
116.220	13.177	971.487	734.176
117.235	13.283	970.273	733.666
118.249	13.300	969.302	732.941
119.264	13.260	968.723	732.260
120.279	13.220	967.807	731.327
121.293	13.295	967.009	730.993
122.308	13.222	966.501	730.221
123.322	13.200	965.155	729.043
124.337	13.096	964.659	728.142
125.352	13.144	963.294	727.261
126.366	13.219	962.294	726.772
127.381	13.203	961.564	726.085
128.395	13.210	960.604	725.327
129.410	13.291	959.497	724.782
130.424	13.308	958.584	724.102
131.439	13.411	958.059	724.091
132.454	13.449	957.263	723.592
133.468	13.445	956.588	723.000
134.483	13.373	955.861	722.074
135.497	13.449	954.534	721.338
136.512	13.310	954.389	720.559
137.527	13.397	953.355	720.093
138.541	13.438	951.965	719.158
139.556	13.422	951.962	719.022
140.570	13.509	951.160	718.729
141.585	13.668	950.014	718.488
142.600	13.506	949.717	717.501
143.614	13.628	948.892	717.341
144.629	13.633	947.876	716.534
145.643	13.626	946.719	715.562
146.658	13.635	945.661	714.741
147.673	13.326	944.921	712.787
148.687	13.438	944.284	712.725
149.702	13.543	943.018	712.159
150.716	13.392	942.747	711.239
151.731	13.414	942.057	710.751
152.746	13.525	941.320	710.610
153.760	13.550	940.524	710.050
154.775	13.437	940.517	709.498
155.789	13.585	939.244	709.110
156.804	13.473	938.795	708.227
157.819	13.561	938.209	708.102
158.833	13.697	937.440	708.038
159.848	13.686	936.493	707.213
160.862	13.709	935.761	706.696
161.877	13.580	934.700	705.284
162.892	13.642	933.329	704.448
163.906	13.496	932.579	703.200
164.921	13.473	932.014	702.613
165.935	13.531	931.083	702.099
166.950	13.591	930.321	701.713
167.964	13.669	929.036	701.015
168.979	13.522	928.162	699.671
169.994	13.653	927.703	699.815
171.008	13.629	927.072	699.176
172.023	13.692	926.418	698.887
173.037	13.757	925.822	698.648
174.052	13.703	925.060	697.785
175.067	13.622	924.219	696.749
176.081	13.595	923.764	696.232
177.096	13.698	922.879	695.935
178.110	13.795	922.150	695.728
179.125	13.708	921.953	695.156
180.140	13.710	921.439	694.716
181.154	13.685	921.032	694.242
182.169	13.713	920.788	694.113
183.183	13.904	919.823	694.122
184.198	13.953	919.017	693.656
185.213	13.817	918.521	692.655
186.227	13.831	917.911	692.191
187.242	13.914	917.318	692.027
188.256	14.009	916.196	691.518
189.271	13.975	915.715	690.952
190.286	13.812	914.947	689.633
191.300	13.664	914.063	688.290
192.315	13.754	913.344	688.063
193.329	13.615	913.423	687.484
194.344	13.948	912.030	687.755
195.359	13.897	911.966	687.434
196.373	13.894	911.407	686.939
197.388	14.007	911.084	687.104
198.402	13.966	910.506	686.437
199.417	14.209	909.564	686.670
200.432	14.119	909.248	685.996
201.446	14.141	908.931	685.790
202.461	14.342	908.108	685.932
203.475	14.067	908.096	684.733
204.490	14.069	907.012	683.863
205.504	14.145	905.702	683.125
206.519	14.148	904.965	682.522
207.534	14.033	904.745	681.825
208.548	14.162	904.038	681.758
209.563	14.084	903.635	681.075
210.577	14.157	902.765	680.659
211.592	14.235	901.879	680.251
212.607	14.270	901.152	679.783
213.621	14.253	900.999	679.540
214.636	14.230	899.718	678.419
215.650	14.250	899.306	678.130
216.665	14.261	898.540	677.537
217.680	14.326	897.970	677.314
218.694	14.466	897.127	677.183
219.709	14.370	896.790	676.482
220.723	14.376	896.320	676.089
221.738	14.486	895.481	675.845
222.753	14.332	894.795	674.641
223.767	14.471	894.102	674.623
224.782	14.595	893.596	674.683
225.796	14.486	893.170	673.860
226.811	14.514	892.487	673.399
227.826	14.614	891.391	672.915
228.840	14.433	891.061	671.876
229.855	14.463	890.138	671.241
230.869	14.460	889.397	670.610
231.884	14.424	889.009	670.114
232.899	14.364	888.485	669.419
233.913	14.371	887.565	668.699
234.928	14.551	886.431	668.505
235.942	14.377	886.242	667.606
236.957	14.494	885.339	667.336
237.972	14.311	885.152	666.404
238.986	14.591	884.677	667.106
240.001	14.621	883.699	666.427
241.015	14.549	883.201	665.709
242.030	14.636	882.274	665.296
243.045	14.658	881.844	665.002
244.059	14.570	881.437	664.285
245.074	14.562	881.223	664.032
246.088	14.701	880.236	663.781
247.103	14.692	879.912	663.445
248.117	14.645	879.549	662.924
249.132	14.888	878.679	663.174
250.147	14.958	878.118	662.969
251.161	14.992	877.375	662.485
252.176	14.953	877.305	662.218
253.190	15.062	876.241	661.786
254.205	15.112	875.423	661.308
255.220	15.053	874.861	660.592
256.234	15.184	874.005	660.403
257.249	14.991	873.732	659.379
258.263	14.900	872.978	658.395
259.278	15.066	872.310	658.486
260.293	15.145	871.498	658.124
261.307	15.128	871.118	657.713
262.322	15.233	870.204	657.377
263.336	15.130	869.945	656.719
264.351	15.250	869.055	656.460
265.366	15.211	868.384	655.742
266.380	15.342	867.883	655.817
267.395	15.339	866.779	654.913
268.409	15.249	866.395	654.214
269.424	15.159	865.612	653.213
270.439	15.281	865.026	653.189
271.453	15.202	864.105	652.126
272.468	15.267	863.808	652.100
273.482	15.238	863.230	651.493
274.497	15.314	862.414	651.113
275.512	15.134	862.087	650.112
276.526	15.239	861.624	650.112
277.541	15.307	860.844	649.729
278.555	15.390	860.366	649.630
279.570	15.457	860.208	649.716
280.585	15.377	859.463	648.786
281.599	15.407	858.257	647.934
282.614	15.379	857.574	647.250
283.628	15.406	857.158	646.984
284.643	15.492	856.376	646.668
285.657	15.451	855.607	645.872
286.672	15.498	854.965	645.512
287.687	15.328	854.751	644.642
288.701	15.386	854.341	644.496
289.716	15.312	853.672	643.652
290.730	15.549	853.181	644.132
291.745	15.671	852.487	644.017
292.760	15.636	851.965	643.433
293.774	15.617	851.082	642.638
294.789	15.562	850.588	641.996
295.803	15.541	849.912	641.350
296.818	15.653	849.157	641.148
297.833	15.553	848.377	640.124
298.847	15.599	848.125	640.052
299.862	15.572	847.442	639.377
300.876	15.615	846.671	638.904
301.891	15.621	846.475	638.720
302.906	15.771	846.062	638.923
303.920	15.863	845.208	638.570
304.935	15.804	844.832	638.007
305.949	15.842	844.011	637.473
306.964	15.675	843.884	636.690
307.979	15.811	842.897	636.402
308.993	15.941	842.454	636.502
310.008	15.806	842.264	635.792
311.022	15.762	841.723	635.163
312.037	15.825	840.375	634.327
313.052	15.942	840.004	634.431
314.066	15.820	839.683	633.670
315.081	15.799	839.163	633.146
316.095	15.755	838.326	632.293
317.110	15.716	838.177	631.977
318.125	15.720	837.556	631.467
319.139	15.870	837.069	631.608
320.154	15.977	836.277	631.354
321.168	15.909	835.894	630.754
322.183	15.890	835.196	630.101
323.197	15.949	834.867	630.020
324.212	15.985	834.436	629.773
325.227	15.845	834.145	628.972
326.241	15.890	833.212	628.383
327.256	15.903	832.719	628.002
328.270	15.869	832.316	627.517
329.285	16.017	831.735	627.576
330.300	15.882	830.991	626.456
331.314	15.842	830.756	626.075
332.329	15.930	830.469	626.131
333.343	15.999	829.583	625.661
334.358	16.048	829.323	625.595
335.373	16.018	828.850	625.069
336.387	16.087	828.870	625.286
337.402	16.232	828.642	625.596
338.416	16.218	828.041	625.034
339.431	16.338	827.505	625.019
340.446	16.260	827.369	624.573
341.460	16.263	827.116	624.338
342.475	16.382	826.458	624.224
343.489	16.379	826.072	623.866
344.504	16.495	825.478	623.792
345.519	16.588	824.485	623.327
346.533	16.414	824.397	622.564
347.548	16.461	823.859	622.276
348.562	16.353	823.154	621.291
349.577	16.315	822.832	620.855
350.592	16.354	822.116	620.402
351.606	16.361	821.233	619.708
352.621	16.258	820.726	618.893
353.635	16.276	820.217	618.519
354.650	16.325	819.575	618.160
355.665	16.545	818.909	618.409
356.679	16.509	818.268	617.736
357.694	16.637	817.471	617.547
358.708	16.563	816.846	616.751
359.723	16.557	816.684	616.554
360.738	16.372	816.004	615.309
361.752	16.431	815.676	615.226
362.767	16.704	815.112	615.736
363.781	16.577	814.417	614.695
364.796	16.666	813.997	614.649
365.810	16.692	813.838	614.567
366.825	16.749	813.770	614.668
367.840	16.663	812.985	613.712
368.854	16.628	812.534	613.190
369.869	16.788	811.868	613.212
370.883	16.708	811.825	612.834
371.898	16.801	811.474	612.850
372.913	16.905	810.797	612.663
373.927	16.770	810.147	611.628
374.942	16.847	810.048	611.780
375.956	16.954	809.140	611.425
376.971	17.000	808.871	611.334
377.986	16.971	808.765	611.093
379.000	17.087	807.997	610.876
380.015	17.015	807.516	610.201
381.029	16.933	807.187	609.603
382.044	16.915	806.487	608.955
383.059	17.115	805.663	608.996
384.073	17.119	805.230	608.631
385.088	16.953	804.662	607.553
386.102	16.854	804.300	606.869
387.117	16.976	803.338	606.527
388.132	16.872	803.336	606.102
389.146	17.016	802.376	605.836
390.161	17.060	802.071	605.711
391.175	17.047	802.096	605.628
392.190	17.064	801.125	604.901
393.205	17.014	800.877	604.482
394.219	17.052	800.548	604.317
395.234	16.921	800.234	603.561
396.248	17.071	799.536	603.515
397.263	16.964	799.003	602.679
398.278	16.858	799.084	602.310
399.292	16.909	798.617	602.087
400.307	16.864	797.867	601.308
401.321	17.078	797.309	601.593
402.336	17.148	797.008	601.558
403.350	17.083	796.614	600.978
404.365	17.033	796.502	600.662
405.380	17.323	795.357	600.771
406.394	17.344	795.104	600.601
407.409	17.265	794.535	599.842
408.423	17.414	794.253	600.100
409.438	17.409	794.246	600.022
410.453	17.468	793.534	599.639
411.467	17.641	793.108	599.876
412.482	17.514	792.829	599.163
413.496	17.651	792.331	599.214
414.511	17.427	792.524	598.522
415.526	17.538	791.501	598.086
416.540	17.479	791.115	597.534
417.555	17.717	790.190	597.617
418.569	17.479	790.276	596.793
419.584	17.606	789.556	596.642
420.599	17.579	789.515	596.464
421.613	107.524	1288.112	1456.406
422.628	92.190	1360.766	1456.510
