DTS Sentinel unit serial number:	SN413079Multiplexer serial number:	ORYXHardware model number:	OX4-SRSoftware version number:	ORYX F/W v4.00 Oryx Data Collector v3.7.2.0data status	okinstallation	princeton_trtdifferential loss correction	single-endedforward channel	channel 1reverse channel	N/Adate	2019/09/15time	03:14:35forward acquisition time	60.00reverse acquisition time	0.00gamma	496.2192k internal	0.2324k external	0.2324temperature offset calibration	0.9987default loss term (dB/km)	0.3790temperature slope calibration	1.0000multiplexer offset coefficient	1.0000multiplexer slope coefficient	1.0000fibre end	0.00T internal ref (°C)	31.12T ext. ref 1 (°C)	4.59T ext. ref 2 (°C)	25.72length (m)	temperature (°C)	Stokes	anti-Stokes-747.200	234.214	0.130	-0.217
-746.185	-35.691	-0.049	-0.027
-745.171	288.701	0.097	0.177
-744.156	-90.571	-0.221	0.065
-743.142	-200.000	-0.001	-0.154
-742.127	-200.000	-0.015	0.304
-741.112	-144.282	-0.128	0.012
-740.098	69.908	0.068	0.071
-739.083	-74.804	0.025	0.009
-738.069	95.368	-0.112	-0.129
-737.054	800.000	0.056	0.230
-736.039	-59.955	-0.126	0.055
-735.025	17.175	0.187	0.150
-734.010	-200.000	-0.042	0.249
-732.996	-28.335	-0.208	0.121
-731.981	19.526	0.263	-0.213
-730.966	-31.801	0.113	0.064
-729.952	-147.038	-0.157	0.014
-728.937	-108.612	-0.133	-0.029
-727.923	250.939	0.123	0.211
-726.908	-93.010	-0.284	0.080
-725.894	238.641	-0.098	-0.164
-724.879	-200.000	-0.046	0.327
-723.864	-52.671	0.340	-0.158
-722.850	800.000	-0.045	-0.176
-721.835	800.000	-0.074	0.235
-720.821	-42.629	0.255	-0.131
-719.806	-200.000	-0.041	0.305
-718.791	148.517	-0.300	-0.408
-717.777	64.796	-0.061	-0.062
-716.762	-110.139	-0.188	0.040
-715.748	-200.000	-0.041	-0.508
-714.733	-79.690	-0.092	0.031
-713.718	-62.299	0.107	-0.045
-712.704	-103.738	0.186	0.044
-711.689	207.718	0.074	-0.117
-710.675	80.655	-0.240	-0.261
-709.660	-200.000	-0.005	-0.059
-708.645	-200.000	0.011	0.063
-707.631	-154.130	-0.304	-0.021
-706.616	700.646	-0.063	0.166
-705.602	-74.797	0.175	0.063
-704.587	-87.846	0.176	-0.053
-703.572	-155.873	-0.236	0.015
-702.558	-135.889	0.255	-0.030
-701.543	-113.747	0.362	0.071
-700.529	-200.000	-0.070	0.360
-699.514	12.816	0.308	-0.240
-698.499	377.290	-0.198	-0.408
-697.485	-200.000	0.067	-0.363
-696.470	-200.000	0.015	-0.190
-695.456	-200.000	-0.014	-0.298
-694.441	43.342	0.188	0.173
-693.426	-200.000	-0.009	-0.157
-692.412	-200.000	-0.030	-0.468
-691.397	57.490	-0.180	0.177
-690.383	-26.407	0.206	0.121
-689.368	-200.000	-0.008	0.243
-688.354	800.000	-0.035	0.104
-687.339	-86.866	0.127	-0.039
-686.324	-94.719	-0.097	-0.027
-685.310	-21.204	-0.228	0.141
-684.295	-200.000	-0.029	-0.180
-683.281	223.978	0.058	-0.094
-682.266	758.131	-0.120	0.328
-681.251	-101.272	0.168	-0.041
-680.237	138.303	0.072	0.095
-679.222	26.074	-0.180	-0.151
-678.208	-44.214	0.140	0.071
-677.193	800.000	-0.039	-0.135
-676.178	53.382	0.089	-0.086
-675.164	126.900	0.172	-0.220
-674.149	121.510	0.111	-0.139
-673.135	561.828	0.089	-0.218
-672.120	-200.000	-0.029	0.161
-671.105	223.001	0.268	0.435
-670.091	800.000	0.061	0.208
-669.076	-200.000	-0.012	-0.437
-668.062	-200.000	0.015	0.296
-667.047	-57.532	-0.218	-0.096
-666.032	-55.100	0.317	0.143
-665.018	511.318	-0.087	-0.203
-664.003	34.738	-0.167	0.147
-662.989	146.903	-0.139	-0.189
-661.974	-36.701	0.095	-0.051
-660.959	-200.000	0.009	0.179
-659.945	172.534	-0.181	-0.261
-658.930	-164.165	-0.162	-0.008
-657.916	19.666	-0.031	-0.025
-656.901	-200.000	0.039	-0.206
-655.886	195.274	0.048	-0.074
-654.872	-200.000	0.042	-0.499
-653.857	-200.000	-0.065	-0.287
-652.843	-68.541	-0.208	0.081
-651.828	-150.646	0.180	-0.014
-650.814	682.221	-0.098	-0.258
-649.799	145.364	0.128	0.173
-648.784	-200.000	0.003	-0.065
-647.770	756.163	0.053	-0.144
-646.755	38.842	-0.150	0.135
-645.741	-115.264	0.098	0.019
-644.726	395.034	0.185	0.388
-643.711	800.000	-0.022	-0.090
-642.697	-55.108	-0.311	-0.141
-641.682	125.982	0.038	0.048
-640.668	187.130	-0.123	-0.185
-639.653	9.334	0.232	-0.177
-638.638	-25.579	0.159	-0.094
-637.624	-83.290	0.299	-0.096
-636.609	-104.286	0.215	0.050
-635.595	-200.000	0.036	0.286
-634.580	533.158	-0.014	-0.032
-633.565	-123.510	-0.216	-0.035
-632.551	187.593	0.145	0.217
-631.536	507.946	-0.104	0.243
-630.522	82.372	-0.109	-0.119
-629.507	22.663	0.377	0.310
-628.492	800.000	0.086	0.245
-627.478	-62.190	0.122	-0.051
-626.463	273.965	-0.074	-0.131
-625.449	-200.000	0.000	-0.107
-624.434	-160.127	0.180	0.010
-623.419	-200.000	-0.006	0.138
-622.405	-200.000	0.005	-0.103
-621.390	-27.783	-0.032	0.019
-620.376	107.904	-0.124	0.149
-619.361	-137.161	-0.262	-0.030
-618.346	179.854	-0.026	-0.039
-617.332	153.129	-0.182	0.250
-616.317	-127.276	-0.271	0.040
-615.303	0.350	0.168	-0.120
-614.288	-163.053	0.406	-0.020
-613.273	-45.814	-0.188	0.093
-612.259	99.834	-0.079	-0.092
-611.244	800.000	0.033	-0.097
-610.230	199.772	0.186	-0.286
-609.215	-176.555	-0.173	0.004
-608.201	4.437	-0.061	-0.045
-607.186	90.277	-0.146	-0.164
-606.171	295.871	0.089	-0.163
-605.157	241.402	-0.215	-0.361
-604.142	487.038	0.125	-0.286
-603.128	-73.095	0.401	0.148
-602.113	-94.868	-0.090	0.025
-601.098	-125.968	0.254	0.038
-600.084	13.108	-0.055	0.043
-599.069	-130.720	-0.189	0.026
-598.055	418.508	-0.006	-0.013
-597.040	800.000	0.049	-0.147
-596.025	111.417	-0.153	-0.185
-595.011	214.597	-0.101	-0.161
-593.996	567.898	-0.120	-0.292
-592.982	-200.000	0.079	-0.392
-591.967	503.196	0.126	-0.291
-590.952	-83.401	0.149	-0.048
-589.938	800.000	-0.031	-0.112
-588.923	450.704	-0.079	-0.175
-587.909	-13.932	0.167	0.108
-586.894	-56.222	-0.104	-0.046
-585.879	20.857	0.097	-0.079
-584.865	-31.485	-0.321	0.181
-583.850	17.254	-0.222	-0.177
-582.836	69.629	0.112	0.116
-581.821	191.208	-0.101	-0.152
-580.806	-74.883	0.345	-0.124
-579.792	800.000	-0.047	-0.188
-578.777	-112.088	0.296	-0.060
-577.763	-81.693	0.346	0.114
-576.748	293.660	-0.104	0.190
-575.733	-200.000	0.022	0.290
-574.719	11.988	-0.296	-0.228
-573.704	85.807	-0.206	-0.227
-572.690	10.761	0.133	-0.102
-571.675	-98.457	-0.213	-0.055
-570.661	-200.000	0.043	0.189
-569.646	-200.000	-0.002	0.137
-568.631	53.435	0.367	0.353
-567.617	-45.432	0.245	-0.122
-566.602	56.575	-0.277	-0.270
-565.588	-200.000	-0.021	0.210
-564.573	67.098	-0.246	-0.251
-563.558	-200.000	0.003	-0.027
-562.544	-116.191	0.250	0.046
-561.529	-132.604	-0.235	-0.030
-560.515	408.824	-0.086	-0.183
-559.500	-38.759	-0.210	0.111
-558.485	-74.560	0.253	-0.091
-557.471	800.000	0.027	0.093
-556.456	-200.000	-0.004	0.202
-555.442	-113.769	-0.376	0.073
-554.427	225.958	-0.131	-0.213
-553.412	74.183	0.261	-0.274
-552.398	10.381	-0.163	0.124
-551.383	134.465	-0.278	0.361
-550.369	-12.715	0.198	0.129
-549.354	800.000	-0.011	0.036
-548.339	-200.000	0.048	0.235
-547.325	-144.012	0.127	-0.012
-546.310	-19.024	0.046	0.028
-545.296	800.000	-0.079	-0.243
-544.281	-200.000	0.084	-0.401
-543.266	482.911	0.199	-0.452
-542.252	-158.959	-0.410	0.023
-541.237	349.052	0.100	0.197
-540.223	217.065	0.120	-0.192
-539.208	-119.487	-0.089	-0.015
-538.193	258.690	-0.289	0.498
-537.179	-200.000	0.015	-0.151
-536.164	-200.000	0.057	0.346
-535.150	-89.050	-0.329	0.097
-534.135	-67.509	-0.135	-0.053
-533.121	-200.000	0.001	-0.005
-532.106	287.260	-0.178	0.322
-531.091	93.234	0.042	0.048
-530.077	-94.307	0.405	0.111
-529.062	-200.000	-0.019	0.372
-528.048	46.670	0.263	-0.244
-527.033	800.000	-0.023	0.069
-526.018	-191.847	-0.123	0.001
-525.004	82.749	0.107	-0.117
-523.989	800.000	0.051	-0.196
-522.975	-120.274	0.148	-0.025
-521.960	-27.857	-0.139	-0.081
-520.945	289.133	-0.160	0.289
-519.931	-6.747	0.173	-0.118
-518.916	82.936	-0.128	-0.140
-517.902	-159.019	0.183	-0.010
-516.887	-200.000	0.018	0.264
-515.872	-200.000	0.052	0.278
-514.858	64.062	0.077	-0.078
-513.843	-77.360	-0.231	-0.080
-512.829	112.743	0.367	0.445
-511.814	199.640	-0.077	0.118
-510.799	800.000	-0.062	-0.221
-509.785	161.904	-0.089	-0.124
-508.770	-200.000	0.006	-0.031
-507.756	343.713	-0.106	-0.209
-506.741	800.000	-0.074	-0.232
-505.726	800.000	-0.005	0.016
-504.712	432.841	-0.237	0.515
-503.697	-200.000	0.056	0.348
-502.683	-113.685	-0.130	-0.025
-501.668	800.000	0.025	0.079
-500.653	-140.141	0.110	-0.012
-499.639	-84.149	0.204	0.065
-498.624	800.000	-0.051	-0.145
-497.610	276.786	0.128	-0.228
-496.595	-200.000	-0.031	-0.205
-495.581	207.041	0.042	-0.066
-494.566	-143.720	0.237	0.022
-493.551	-75.618	0.068	-0.024
-492.537	449.521	-0.126	-0.277
-491.522	800.000	0.031	0.113
-490.508	-105.545	0.253	-0.057
-489.493	-200.000	0.005	0.226
-488.478	-85.282	-0.174	0.054
-487.464	-85.500	-0.162	0.050
-486.449	-89.382	-0.319	-0.094
-485.435	-4.543	-0.096	0.067
-484.420	800.000	0.006	0.023
-483.405	-200.000	-0.008	0.147
-482.391	800.000	0.046	0.142
-481.376	-200.000	-0.093	0.475
-480.362	-200.000	-0.022	0.105
-479.347	49.491	-0.132	-0.125
-478.332	82.407	0.210	-0.228
-477.318	800.000	-0.210	-0.640
-476.303	-2.719	-0.225	0.157
-475.289	-28.266	0.214	0.123
-474.274	-79.783	0.156	0.053
-473.259	-25.429	0.013	0.007
-472.245	214.679	-0.083	0.131
-471.230	88.254	0.122	0.135
-470.216	209.463	0.030	-0.047
-469.201	-170.736	0.177	0.006
-468.186	-200.000	0.039	-0.248
-467.172	409.307	-0.038	-0.081
-466.157	-165.086	-0.456	0.020
-465.143	-171.394	-0.329	-0.011
-464.128	64.469	0.080	-0.080
-463.113	322.994	0.183	0.348
-462.099	8.970	-0.210	0.158
-461.084	33.025	-0.200	0.173
-460.070	187.493	0.085	0.127
-459.055	78.604	0.184	-0.196
-458.040	-8.646	0.240	-0.161
-457.026	-168.742	0.162	0.006
-456.011	-77.193	-0.322	-0.112
-454.997	-200.000	-0.031	0.142
-453.982	4.196	0.162	-0.119
-452.968	199.860	-0.067	0.103
-451.953	145.808	0.030	0.040
-450.938	141.656	-0.266	0.351
-449.924	-113.864	0.185	0.036
-448.909	-0.342	-0.225	-0.160
-447.895	368.353	0.140	0.283
-446.880	-67.725	-0.283	0.111
-445.865	-144.768	0.224	0.021
-444.851	800.000	-0.054	0.176
-443.836	-200.000	0.018	0.136
-442.822	800.000	0.055	0.159
-441.807	-200.000	0.006	-0.275
-440.792	-136.577	-0.134	0.015
-439.778	-200.000	-0.017	-0.382
-438.763	191.564	-0.134	-0.201
-437.749	800.000	-0.058	0.231
-436.734	-200.000	0.015	-0.095
-435.719	-200.000	-0.020	-0.291
-434.705	-138.510	0.187	0.021
-433.690	150.049	-0.213	-0.288
-432.676	199.719	-0.068	-0.104
-431.661	-42.779	-0.268	0.136
-430.646	16.526	0.175	0.138
-429.632	-88.013	-0.201	0.060
-428.617	-200.000	-0.029	0.235
-427.603	140.307	0.232	0.305
-426.588	550.886	0.067	0.160
-425.573	367.256	0.166	0.334
-424.559	104.278	-0.060	-0.070
-423.544	537.054	0.009	0.021
-422.530	-87.932	-0.249	0.075
-421.515	-123.331	-0.351	-0.056
-420.500	-200.000	0.008	0.143
-419.486	118.727	-0.095	-0.117
-418.471	-94.835	0.338	-0.091
-417.457	-67.304	0.045	-0.017
-416.442	-48.650	0.245	0.117
-415.428	-14.219	0.270	0.174
-414.413	407.261	-0.060	-0.126
-413.398	-200.000	0.045	0.216
-412.384	205.136	-0.183	0.283
-411.369	-200.000	-0.005	-0.117
-410.355	-133.297	0.248	-0.031
-409.340	25.632	-0.032	0.027
-408.325	-80.275	0.355	-0.118
-407.311	19.489	-0.205	0.164
-406.296	800.000	-0.033	0.112
-405.282	-82.886	-0.152	-0.049
-404.267	-157.314	-0.143	-0.009
-403.252	-178.107	-0.162	-0.004
-402.238	-200.000	0.007	0.467
-401.223	248.930	-0.070	-0.119
-400.209	-200.000	-0.010	-0.198
-399.194	-200.000	0.029	0.420
-398.179	-63.872	0.163	-0.066
-397.165	288.946	0.023	0.041
-396.150	-81.055	-0.058	-0.019
-395.136	138.543	0.156	0.203
-394.121	-55.338	-0.407	0.182
-393.106	79.255	-0.026	0.028
-392.092	156.775	0.038	-0.052
-391.077	-131.543	0.134	-0.018
-390.063	-139.756	-0.639	-0.068
-389.048	21.367	0.332	-0.269
-388.033	-30.386	-0.223	0.126
-387.019	100.884	-0.128	-0.148
-386.004	-200.000	0.023	0.149
-384.990	-58.923	-0.080	0.034
-383.975	40.325	-0.299	-0.268
-382.960	-90.830	-0.266	-0.076
-381.946	800.000	0.064	-0.256
-380.931	-106.683	-0.248	0.055
-379.917	-39.195	0.017	0.009
-378.902	-126.143	0.247	0.037
-377.888	-200.000	-0.002	0.100
-376.873	1.607	-0.196	0.140
-375.858	142.455	-0.050	0.066
-374.844	-200.000	0.014	-0.162
-373.829	133.155	0.121	-0.156
-372.815	398.388	0.046	0.095
-371.800	366.482	0.050	-0.101
-370.785	-71.509	0.143	0.053
-369.771	-62.309	0.187	0.078
-368.756	92.712	-0.154	-0.173
-367.742	166.822	0.078	0.110
-366.727	-25.948	0.322	0.189
-365.712	800.000	0.118	-0.326
-364.698	-133.758	-0.110	-0.014
-363.683	1.253	0.148	-0.105
-362.669	-147.774	-0.297	-0.025
-361.654	-105.261	0.328	-0.074
-360.639	-125.933	0.253	-0.038
-359.625	-81.306	0.245	0.080
-358.610	-91.905	0.210	0.059
-357.596	-200.000	-0.028	-0.145
-356.581	40.493	-0.111	0.100
-355.566	22.169	-0.160	-0.130
-354.552	-145.128	0.179	-0.016
-353.537	-39.448	0.166	0.087
-352.523	8.020	-0.266	-0.198
-351.508	800.000	0.052	-0.204
-350.493	84.832	0.164	-0.179
-349.479	119.972	0.110	-0.135
-348.464	-112.129	0.219	0.044
-347.450	476.294	0.030	0.067
-346.435	800.000	0.027	-0.117
-345.420	-189.593	0.245	-0.003
-344.406	-80.517	-0.244	-0.081
-343.391	-28.003	0.546	-0.314
-342.377	-46.089	-0.426	0.208
-341.362	-121.491	-0.255	0.042
-340.348	-21.967	0.066	-0.040
-339.333	-117.586	0.274	0.049
-338.318	-25.899	0.086	0.051
-337.304	-126.966	-0.107	-0.016
-336.289	-112.193	-0.202	-0.040
-335.275	-123.052	-0.142	-0.023
-334.260	-146.439	-0.122	0.011
-333.245	761.954	-0.088	0.237
-332.231	-44.038	-0.302	0.151
-331.216	45.976	0.251	0.231
-330.202	537.426	0.149	-0.353
-329.187	42.273	-0.165	0.148
-328.172	800.000	0.084	0.270
-327.158	-90.176	0.150	0.043
-326.143	-2.438	-0.027	0.018
-325.129	-200.000	-0.019	0.299
-324.114	696.696	-0.065	-0.170
-323.099	-87.021	0.192	0.058
-322.085	2.955	-0.142	0.103
-321.070	52.995	-0.212	-0.201
-320.056	-200.000	-0.016	0.113
-319.041	-95.626	-0.135	-0.036
-318.026	96.992	-0.100	0.113
-317.012	66.091	0.062	-0.062
-315.997	-139.132	0.327	0.035
-314.983	65.808	-0.267	0.269
-313.968	800.000	-0.099	0.311
-312.953	762.785	0.047	0.126
-311.939	602.571	-0.131	0.323
-310.924	474.423	0.045	0.101
-309.910	-133.604	0.172	0.021
-308.895	615.885	-0.119	0.296
-307.880	-66.449	0.408	0.161
-306.866	-44.925	-0.358	-0.177
-305.851	-194.400	-0.182	-0.001
-304.837	-98.198	-0.159	0.041
-303.822	-107.130	-0.191	0.042
-302.807	-200.000	0.004	0.059
-301.793	-105.076	0.239	-0.054
-300.778	137.861	0.052	0.067
-299.764	-200.000	-0.035	0.399
-298.749	-102.125	0.144	0.034
-297.735	-1.069	-0.127	-0.089
-296.720	-140.761	0.156	-0.016
-295.705	-200.000	0.002	0.215
-294.691	-101.455	-0.283	0.068
-293.676	-108.373	0.069	-0.015
-292.662	800.000	0.048	-0.169
-291.647	480.966	-0.141	0.317
-290.632	-87.908	0.307	-0.091
-289.618	-144.439	0.202	0.019
-288.603	-200.000	-0.021	-0.273
-287.589	-53.402	0.240	-0.109
-286.574	13.226	0.185	-0.142
-285.559	-200.000	0.038	0.194
-284.545	652.492	-0.097	-0.246
-283.530	99.178	0.107	-0.123
-282.516	-200.000	-0.025	-0.364
-281.501	307.184	-0.058	-0.106
-280.486	584.590	0.148	-0.360
-279.472	389.325	0.135	-0.278
-278.457	-177.987	0.175	-0.004
-277.443	162.388	0.063	-0.088
-276.428	-7.825	0.061	-0.041
-275.413	-22.908	-0.225	-0.134
-274.399	-200.000	-0.008	-0.363
-273.384	-183.597	0.351	0.006
-272.370	-106.096	0.166	-0.037
-271.355	-21.097	-0.083	0.050
-270.340	328.333	0.170	0.324
-269.326	-200.000	-0.057	-0.452
-268.311	637.956	-0.159	-0.400
-267.297	-101.431	0.096	-0.023
-266.282	110.303	0.271	-0.323
-265.267	117.402	0.100	0.122
-264.253	-98.744	0.381	0.096
-263.238	480.156	-0.024	-0.054
-262.224	-145.949	-0.254	0.022
-261.209	-200.000	-0.044	0.366
-260.195	688.528	0.073	-0.190
-259.180	-53.985	-0.156	0.070
-258.165	-200.000	-0.035	0.306
-257.151	745.570	-0.072	-0.192
-256.136	-113.527	0.432	0.084
-255.122	466.696	0.077	0.170
-254.107	44.316	-0.198	-0.180
-253.092	-200.000	0.355	-0.000
-252.078	800.000	-0.068	-0.190
-251.063	229.870	0.099	0.160
-250.049	-45.758	0.097	-0.048
-249.034	800.000	0.056	-0.192
-248.019	-71.013	-0.245	0.091
-247.005	18.919	0.334	-0.265
-245.990	-57.230	0.400	0.174
-244.976	-16.869	0.107	-0.067
-243.961	800.000	0.034	-0.110
-242.946	192.109	0.155	0.231
-241.932	730.600	0.096	0.254
-240.917	-146.608	0.357	-0.031
-239.903	-86.023	-0.182	0.056
-238.888	383.532	-0.122	0.248
-237.873	-16.723	-0.182	-0.114
-236.859	144.916	0.217	-0.287
-235.844	-95.686	0.075	0.020
-234.830	75.099	0.148	0.154
-233.815	-200.000	0.010	0.081
-232.800	-200.000	-0.325	-0.000
-231.786	-47.533	-0.266	-0.128
-230.771	90.345	0.378	-0.418
-229.757	256.090	0.141	-0.240
-228.742	445.101	0.120	-0.262
-227.727	-148.260	-0.133	-0.011
-226.713	66.551	-0.044	0.044
-225.698	392.601	-0.080	-0.164
-224.684	160.771	0.046	0.064
-223.669	-200.000	0.024	-0.187
-222.655	-53.151	-0.342	-0.155
-221.640	122.005	-0.139	0.172
-220.625	-9.990	-0.101	-0.066
-219.611	-117.353	-0.242	0.043
-218.596	135.179	-0.213	-0.274
-217.582	800.000	-0.052	-0.208
-216.567	26.024	-0.158	-0.131
-215.552	287.177	-0.155	-0.277
-214.538	-83.101	-0.337	0.107
-213.523	-154.241	0.122	-0.008
-212.509	-44.447	0.071	0.035
-211.494	33.959	0.271	0.233
-210.479	27.291	-0.148	-0.123
-209.465	800.000	0.126	-0.349
-208.450	-200.000	-0.043	0.262
-207.436	-105.171	-0.286	0.065
-206.421	465.525	0.094	0.208
-205.406	174.650	-0.032	0.046
-204.392	158.872	-0.166	0.228
-203.377	-64.595	-0.318	-0.127
-202.363	413.594	0.063	0.132
-201.348	-200.000	0.038	0.212
-200.333	133.628	0.239	0.306
-199.319	213.073	-0.116	-0.181
-198.304	355.807	0.167	-0.329
-197.290	-35.685	-0.335	0.180
-196.275	-200.000	0.039	0.181
-195.260	-174.839	-0.214	0.006
-194.246	-56.351	-0.095	-0.042
-193.231	-196.740	0.274	0.002
-192.217	-200.000	0.007	0.195
-191.202	446.434	0.056	0.121
-190.187	-49.324	0.268	0.127
-189.173	322.190	-0.137	0.258
-188.158	-22.228	0.307	-0.184
-187.144	16.997	-0.250	-0.196
-186.129	219.166	-0.117	-0.185
-185.114	138.430	-0.115	-0.149
-184.100	-200.000	-0.047	0.301
-183.085	-103.147	-0.263	0.061
-182.071	129.288	0.105	-0.132
-181.056	475.195	0.117	0.260
-180.042	-200.000	0.127	-0.000
-179.027	800.000	0.101	-0.304
-178.012	-103.854	-0.203	-0.047
-176.998	128.216	-0.154	-0.194
-175.983	137.279	0.113	0.146
-174.969	172.397	-0.056	-0.080
-173.954	800.000	0.094	-0.270
-172.939	800.000	0.079	0.293
-171.925	55.602	-0.215	-0.206
-170.910	-10.508	-0.166	0.108
-169.896	-13.481	0.091	-0.058
-168.881	67.596	0.097	0.098
-167.866	-126.351	0.196	0.029
-166.852	-200.000	0.002	-0.020
-165.837	-13.780	0.022	-0.014
-164.823	-200.000	0.015	-0.150
-163.808	-122.984	0.184	-0.029
-162.793	-147.006	-0.095	-0.008
-161.779	-127.834	-0.370	-0.053
-160.764	-40.107	0.316	-0.162
-159.750	266.167	0.073	0.125
-158.735	-200.000	0.001	-0.278
-157.720	-7.363	-0.116	0.077
-156.706	-200.000	0.007	0.432
-155.691	133.672	-0.075	0.096
-154.677	-57.819	-0.263	0.113
-153.662	-84.467	-0.107	-0.033
-152.647	800.000	-0.086	0.352
-151.633	800.000	-0.041	-0.168
-150.618	-42.635	-0.169	-0.085
-149.604	-200.000	-0.004	-0.229
-148.589	79.794	-0.032	-0.034
-147.574	-1.902	0.255	-0.177
-146.560	323.785	-0.143	0.270
-145.545	652.868	0.082	-0.207
-144.531	187.263	-0.039	-0.058
-143.516	-145.480	-0.388	-0.034
-142.502	144.952	-0.303	0.400
-141.487	113.282	0.169	0.203
-140.472	-200.000	-0.002	0.112
-139.458	113.581	0.066	-0.079
-138.443	-142.359	-0.113	0.011
-137.429	-30.612	0.335	-0.187
-136.414	-200.000	0.013	0.082
-135.399	-109.902	0.051	-0.011
-134.385	-22.655	0.131	-0.078
-133.370	184.942	0.229	0.335
-132.356	-200.000	0.069	0.304
-131.341	-200.000	0.007	0.160
-130.326	-132.748	-0.066	0.008
-129.312	-105.646	0.168	0.038
-128.297	-25.063	0.087	0.051
-127.283	-70.094	-0.051	-0.019
-126.268	800.000	-0.029	-0.115
-125.253	-200.000	-0.011	-0.111
-124.239	800.000	0.053	0.214
-123.224	-56.109	0.183	0.080
-122.210	5.474	0.312	0.227
-121.195	151.007	0.117	-0.157
-120.180	611.899	0.134	-0.331
-119.166	-200.000	0.074	0.336
-118.151	69.141	0.190	0.193
-117.137	-200.000	0.048	-0.355
-116.122	-48.830	0.051	-0.024
-115.107	-200.000	0.026	0.206
-114.093	436.789	0.085	0.183
-113.078	800.000	-0.073	-0.223
-112.064	-200.000	0.016	0.173
-111.049	49.186	-0.231	-0.213
-110.034	159.403	0.137	-0.187
-109.020	800.000	0.173	0.507
-108.005	-113.242	0.244	0.047
-106.991	800.000	0.067	-0.219
-105.976	-170.933	-0.411	0.014
-104.962	-181.323	0.258	-0.005
-103.947	-200.000	0.066	0.356
-102.932	213.718	-0.062	0.096
-101.918	-31.342	-0.280	0.155
-100.903	-16.144	-0.127	-0.080
-99.889	800.000	-0.015	-0.046
-98.874	25.009	0.033	0.027
-97.859	800.000	0.096	0.282
-96.845	62.038	-0.176	0.173
-95.830	199.367	0.096	-0.145
-94.816	-91.575	0.198	-0.056
-93.801	-200.000	0.020	0.344
-92.786	-93.991	-0.038	-0.010
-91.772	-77.629	-0.241	0.082
-90.757	-144.769	0.296	0.027
-89.743	10.413	-0.365	-0.274
-88.728	-54.777	0.291	0.129
-87.713	-15.495	-0.122	-0.077
-86.699	-139.378	0.106	0.011
-85.684	44.924	0.030	0.027
-84.670	214.601	0.141	0.220
-83.655	-95.760	-0.141	-0.037
-82.640	-200.000	0.001	0.491
-81.626	-200.000	0.004	0.233
-80.611	-137.587	-0.223	0.025
-79.597	-59.508	0.305	-0.129
-78.582	-200.000	-0.029	0.147
-77.567	-200.000	-0.014	0.348
-76.553	-34.748	-0.045	0.024
-75.538	229.113	0.034	-0.054
-74.524	18.922	0.147	0.116
-73.509	-200.000	-0.001	-0.065
-72.494	-128.580	0.139	0.019
-71.480	-117.049	0.103	0.018
-70.465	18.163	0.314	0.246
-69.451	24.787	-0.195	0.159
-68.436	-45.401	-0.113	-0.055
-67.422	-118.229	0.061	0.011
-66.407	-159.193	-0.096	-0.005
-65.392	-200.000	0.051	-0.253
-64.378	-105.208	0.517	-0.116
-63.363	713.606	0.100	0.261
-62.349	85.540	0.171	0.184
-61.334	-16.746	-1.054	-0.655
-60.319	20.343	0.839	0.666
-59.305	800.000	-0.227	-0.968
-58.290	236.953	0.621	1.011
-57.276	741.987	0.595	1.573
-56.261	-200.000	100.959	604.288
-55.246	585.086	1409.003	3402.618
-54.232	192.532	2592.030	3844.620
-53.217	118.743	2141.395	2598.706
-52.203	43.177	1594.511	1429.903
-51.188	34.696	1329.386	1141.679
-50.173	31.507	1287.743	1087.368
-49.159	54.500	1337.288	1265.888
-48.144	56.809	1354.069	1295.376
-47.130	34.790	1311.629	1126.806
-46.115	31.358	1293.345	1091.058
-45.100	31.187	1288.404	1085.847
-44.086	31.015	1286.270	1083.006
-43.071	30.925	1284.661	1081.086
-42.057	31.040	1282.045	1079.511
-41.042	31.125	1280.380	1078.560
-40.027	31.066	1278.893	1076.920
-39.013	31.094	1276.729	1075.217
-37.998	31.068	1275.637	1074.104
-36.984	31.143	1273.541	1072.732
-35.969	31.223	1271.527	1071.448
-34.954	31.160	1270.147	1069.883
-33.940	31.205	1268.878	1069.030
-32.925	31.248	1267.339	1067.939
-31.911	31.210	1266.271	1066.777
-30.896	31.200	1264.663	1065.321
-29.881	31.212	1263.683	1064.525
-28.867	31.305	1261.772	1063.399
-27.852	31.334	1260.311	1062.291
-26.838	31.355	1258.842	1061.130
-25.823	31.213	1257.890	1059.481
-24.809	31.184	1256.703	1058.272
-23.794	31.121	1255.163	1056.579
-22.779	31.151	1254.010	1055.738
-21.765	31.233	1252.790	1055.131
-20.750	31.112	1251.504	1053.322
-19.736	31.111	1249.828	1051.865
-18.721	31.000	1249.170	1050.642
-17.706	31.137	1247.580	1050.034
-16.692	31.107	1246.949	1049.293
-15.677	31.023	1245.628	1047.666
-14.663	31.108	1244.009	1046.742
-13.648	31.038	1242.965	1045.430
-12.633	30.990	1242.637	1044.842
-11.619	31.104	1241.455	1044.445
-10.604	31.044	1240.844	1043.557
-9.590	31.023	1239.961	1042.656
-8.575	31.050	1238.592	1041.613
-7.560	31.008	1237.546	1040.455
-6.546	30.947	1237.389	1039.945
-5.531	31.020	1236.073	1039.205
-4.517	31.023	1235.123	1038.378
-3.502	30.936	1234.513	1037.338
-2.487	31.121	1233.383	1037.378
-1.473	31.017	1229.700	1033.664
-0.458	29.659	1214.370	1013.294
0.556	24.860	1197.124	975.614
1.571	21.159	1202.601	959.681
2.586	20.232	1216.989	965.917
3.600	19.760	1206.487	954.890
4.615	15.217	1136.076	875.407
5.629	7.926	1064.618	784.464
6.644	4.746	1045.611	754.983
7.659	4.574	1042.855	752.091
8.673	4.581	1042.045	751.477
9.688	4.469	1040.594	749.825
10.702	4.602	1038.988	749.241
11.717	8.691	1044.203	772.707
12.731	15.679	1053.868	813.724
13.746	18.445	1057.060	829.526
14.761	17.920	1055.761	825.893
15.775	16.976	1053.249	819.296
16.790	15.838	1051.562	812.424
17.804	15.138	1049.706	807.544
18.819	14.798	1049.103	805.368
19.834	14.653	1047.647	803.481
20.848	14.279	1047.401	801.422
21.863	14.192	1046.483	800.230
22.877	14.131	1045.449	799.077
23.892	13.944	1044.920	797.702
24.907	13.875	1044.596	797.056
25.921	14.033	1043.327	796.771
26.936	14.080	1041.629	795.631
27.950	14.053	1040.591	794.636
28.965	14.120	1038.903	793.598
29.980	14.243	1037.246	792.848
30.994	14.314	1036.288	792.384
32.009	14.357	1035.141	791.641
33.023	14.279	1034.136	790.432
34.038	14.230	1032.987	789.253
35.053	14.044	1032.354	787.817
36.067	14.129	1031.714	787.663
37.082	14.126	1030.857	786.925
38.096	14.237	1029.916	786.661
39.111	14.184	1029.365	785.920
40.126	13.964	1028.078	783.827
41.140	13.959	1026.474	782.513
42.155	13.832	1025.660	781.227
43.169	13.800	1024.540	780.155
44.184	14.009	1023.458	780.243
45.199	13.874	1022.814	779.049
46.213	13.947	1021.071	777.995
47.228	14.026	1020.903	778.165
48.242	14.138	1019.408	777.481
49.257	14.114	1018.653	776.727
50.271	14.068	1018.057	775.987
51.286	14.105	1016.743	775.091
52.301	14.101	1016.192	774.583
53.315	13.991	1014.894	773.010
54.330	14.010	1013.529	771.991
55.344	14.056	1012.645	771.467
56.359	14.054	1012.181	771.032
57.374	13.977	1010.741	769.513
58.388	13.830	1010.591	768.649
59.403	13.778	1009.804	767.743
60.417	13.882	1008.482	767.148
61.432	13.918	1007.742	766.686
62.447	13.749	1007.560	765.699
63.461	13.804	1006.619	765.167
64.476	13.919	1005.277	764.611
65.490	13.788	1004.761	763.547
66.505	13.819	1004.026	763.063
67.520	13.808	1003.882	762.837
68.534	13.856	1002.817	762.181
69.549	13.724	1002.467	761.242
70.563	13.705	1001.663	760.475
71.578	13.705	1000.934	759.856
72.593	13.624	1000.078	758.769
73.607	13.565	999.751	758.182
74.622	13.662	999.021	758.004
75.636	13.630	998.319	757.258
76.651	13.581	997.646	756.459
77.666	13.720	996.657	756.277
78.680	13.759	996.250	756.077
79.695	13.809	995.229	755.462
80.709	13.857	994.855	755.328
81.724	13.837	994.329	754.772
82.739	14.019	993.527	754.925
83.753	14.029	993.006	754.509
84.768	14.144	992.169	754.325
85.782	14.283	990.993	753.996
86.797	14.097	990.421	752.649
87.812	14.163	988.965	751.775
88.826	14.181	987.971	751.035
89.841	14.126	987.204	750.138
90.855	14.209	986.602	749.987
91.870	14.242	985.934	749.563
92.884	14.207	985.070	748.683
93.899	14.243	984.176	748.097
94.914	14.514	982.928	748.297
95.928	14.428	982.309	747.376
96.943	14.388	981.389	746.431
97.957	14.332	980.435	745.387
98.972	14.205	979.889	744.340
99.987	14.157	979.200	743.537
101.001	14.267	978.180	743.186
102.016	14.236	977.306	742.317
103.030	14.192	976.770	741.651
104.045	14.201	976.339	741.299
105.060	14.200	974.994	740.205
106.074	13.993	974.127	738.561
107.089	13.995	972.749	737.462
108.103	13.903	972.107	736.499
109.118	13.941	971.052	735.805
110.133	13.841	970.532	734.903
111.147	13.917	969.436	734.345
112.162	13.949	968.709	733.868
113.176	14.022	967.998	733.588
114.191	14.013	967.504	733.108
115.206	14.030	966.779	732.569
116.220	13.988	965.772	731.558
117.235	14.065	965.226	731.418
118.249	14.003	964.152	730.267
119.264	13.920	963.495	729.340
120.279	13.837	962.756	728.352
121.293	14.065	961.201	728.111
122.308	14.039	960.408	727.333
123.322	13.859	959.882	726.083
124.337	13.969	958.605	725.530
125.352	13.801	957.947	724.237
126.366	13.862	956.728	723.518
127.381	13.841	955.584	722.498
128.395	13.983	954.355	722.120
129.410	13.920	954.236	721.691
130.424	14.093	953.072	721.500
131.439	14.113	952.219	720.874
132.454	14.028	951.984	720.266
133.468	14.162	950.981	720.022
134.483	14.259	950.558	720.059
135.497	14.096	949.700	718.642
136.512	14.179	948.711	718.187
137.527	14.062	947.964	717.053
138.541	14.079	947.068	716.387
139.556	14.143	946.526	716.189
140.570	14.134	945.779	715.521
141.585	14.288	945.340	715.788
142.600	14.244	944.517	714.910
143.614	14.167	943.987	714.118
144.629	14.360	942.548	713.792
145.643	14.200	942.342	712.888
146.658	14.263	940.630	711.798
147.673	14.173	939.609	710.577
148.687	14.069	939.125	709.705
149.702	14.144	938.121	709.205
150.716	14.102	937.675	708.624
151.731	14.106	936.837	707.948
152.746	14.122	936.206	707.477
153.760	14.149	935.520	707.008
154.775	14.264	934.834	706.916
155.789	14.432	933.820	706.800
156.804	14.355	933.733	706.347
157.819	14.391	932.853	705.769
158.833	14.316	932.477	705.105
159.848	14.316	931.864	704.580
160.862	14.579	930.255	704.408
161.877	14.427	929.251	702.948
162.892	14.311	928.700	701.977
163.906	14.172	927.811	700.659
164.921	14.299	927.061	700.566
165.935	14.204	926.317	699.543
166.950	14.456	925.111	699.626
167.964	14.359	924.581	698.758
168.979	14.319	923.541	697.743
169.994	14.375	922.811	697.365
171.008	14.222	922.564	696.476
172.023	14.502	921.823	697.026
173.037	14.521	921.092	696.490
174.052	14.559	920.605	696.217
175.067	14.331	919.885	694.661
176.081	14.237	918.975	693.519
177.096	14.362	918.461	693.593
178.110	14.366	918.296	693.420
179.125	14.378	917.565	692.858
180.140	14.472	916.899	692.684
181.154	14.532	916.490	692.564
182.169	14.599	915.612	692.118
183.183	14.502	915.518	691.580
184.198	14.552	914.493	690.953
185.213	14.628	913.690	690.599
186.227	14.638	913.026	690.077
187.242	14.543	912.624	689.323
188.256	14.770	911.900	689.652
189.271	14.666	911.134	688.580
190.286	14.336	910.406	686.610
191.300	14.302	909.684	685.865
192.315	14.270	908.876	685.065
193.329	14.423	907.971	684.951
194.344	14.483	907.581	684.839
195.359	14.455	907.223	684.394
196.373	14.643	906.759	684.755
197.388	14.829	906.139	684.991
198.402	14.775	905.806	684.457
199.417	14.979	904.788	684.463
200.432	14.863	904.527	683.731
201.446	14.913	904.256	683.669
202.461	15.013	903.305	683.296
203.475	15.015	902.861	682.908
204.490	14.789	902.347	681.536
205.504	14.742	901.464	680.618
206.519	14.794	900.819	680.286
207.534	14.842	899.865	679.696
208.548	14.875	899.108	679.199
209.563	14.770	898.943	678.591
210.577	14.868	897.799	678.063
211.592	14.899	897.309	677.760
212.607	14.995	896.354	677.366
213.621	14.978	895.647	676.704
214.636	14.905	894.894	675.779
215.650	15.000	894.326	675.674
216.665	15.162	893.849	675.906
217.680	15.203	892.776	675.203
218.694	15.037	892.612	674.350
219.709	15.212	892.010	674.541
220.723	15.103	891.294	673.498
221.738	15.126	890.548	672.969
222.753	15.027	890.123	672.191
223.767	15.140	889.052	671.776
224.782	15.303	888.983	672.316
225.796	15.267	888.305	671.600
226.811	15.165	887.828	670.771
227.826	14.998	887.195	669.566
228.840	15.286	885.725	669.549
229.855	15.149	885.287	668.610
230.869	15.179	884.721	668.242
231.884	15.103	884.243	667.520
232.899	15.148	883.352	666.970
233.913	15.064	882.571	665.985
234.928	15.004	881.674	665.010
235.942	15.113	881.211	665.035
236.957	15.012	881.149	664.529
237.972	15.113	880.195	664.154
238.986	15.105	879.978	663.899
240.001	15.002	879.271	662.898
241.015	15.170	877.997	662.543
242.030	15.184	877.790	662.384
243.045	15.154	877.596	662.061
244.059	15.253	876.792	661.786
245.074	15.415	875.796	661.616
246.088	15.400	875.620	661.363
247.103	15.383	874.821	660.636
248.117	15.458	874.438	660.583
249.132	15.559	874.148	660.702
250.147	15.738	873.304	660.709
251.161	15.653	872.750	659.898
252.176	15.721	872.332	659.788
253.190	15.715	871.536	659.106
254.205	15.740	871.338	658.996
255.220	15.795	870.000	658.140
256.234	15.741	869.728	657.664
257.249	15.791	868.718	657.040
258.263	15.809	868.093	656.578
259.278	15.787	867.486	655.975
260.293	15.802	866.749	655.419
261.307	15.940	866.221	655.497
262.322	15.836	865.903	654.793
263.336	15.993	865.060	654.711
264.351	15.969	864.639	654.240
265.366	16.043	863.688	653.749
266.380	15.885	863.674	653.067
267.395	15.882	862.241	651.914
268.409	15.792	861.914	651.262
269.424	15.807	861.448	650.912
270.439	15.774	860.639	650.115
271.453	15.937	859.548	649.863
272.468	15.970	859.235	649.696
273.482	15.783	858.963	648.712
274.497	15.984	858.162	648.823
275.512	15.971	857.646	648.325
276.526	15.918	857.567	648.004
277.541	16.106	856.784	648.077
278.555	16.162	856.006	647.646
279.570	16.072	855.278	646.694
280.585	16.095	854.504	646.140
281.599	16.083	853.780	645.489
282.614	16.070	853.308	645.023
283.628	16.058	852.732	644.486
284.643	15.928	852.300	643.605
285.657	16.061	851.611	643.534
286.672	16.136	850.891	643.220
287.687	16.054	850.618	642.645
288.701	16.132	849.939	642.374
289.716	16.169	849.394	642.046
290.730	16.264	848.719	641.841
291.745	16.153	848.013	640.827
292.760	16.143	847.758	640.539
293.774	16.314	846.998	640.556
294.789	16.299	846.428	640.012
295.803	16.019	845.672	638.322
296.818	16.245	845.119	638.707
297.833	16.287	844.090	638.031
298.847	16.207	843.733	637.403
299.862	16.465	843.060	637.809
300.876	16.320	842.706	636.940
301.891	16.444	842.192	636.960
302.906	16.488	841.815	636.785
303.920	16.520	841.272	636.440
304.935	16.596	840.204	635.860
305.949	16.450	839.861	634.998
306.964	16.408	839.380	634.420
307.979	16.545	838.905	634.517
308.993	16.576	838.157	634.011
310.008	16.669	837.361	633.702
311.022	16.637	836.652	632.989
312.037	16.543	836.399	632.392
313.052	16.477	835.512	631.417
314.066	16.378	835.417	630.919
315.081	16.263	834.942	630.077
316.095	16.389	834.253	629.970
317.110	16.413	833.647	629.546
318.125	16.290	833.553	628.961
319.139	16.432	832.640	628.745
320.154	16.422	832.641	628.652
321.168	16.477	831.541	627.972
322.183	16.456	831.262	627.626
323.197	16.422	830.833	627.122
324.212	16.426	830.462	626.800
325.227	16.564	829.750	626.719
326.241	16.619	828.717	626.086
327.256	16.458	828.533	625.296
328.270	16.498	828.074	625.042
329.285	16.526	827.459	624.628
330.300	16.553	826.719	624.114
331.314	16.637	826.010	623.833
332.329	16.692	825.826	623.840
333.343	16.607	825.678	623.360
334.358	16.619	825.359	623.111
335.373	16.767	824.502	622.951
336.387	16.672	824.325	622.413
337.402	16.661	824.288	622.289
338.416	16.723	824.160	622.367
339.431	16.889	823.701	622.572
340.446	16.903	822.805	621.892
341.460	16.962	822.812	622.058
342.475	17.020	822.191	621.747
343.489	17.165	821.848	621.964
344.504	17.018	820.971	620.709
345.519	17.197	820.837	621.204
346.533	17.087	820.493	620.488
347.548	17.051	819.478	619.535
348.562	16.924	819.182	618.794
349.577	16.870	818.698	618.174
350.592	16.899	818.183	617.839
351.606	16.888	817.022	616.865
352.621	16.989	816.261	616.603
353.635	16.898	815.907	615.950
354.650	16.986	815.151	615.644
355.665	17.064	814.646	615.494
356.679	16.998	814.114	614.796
357.694	17.005	813.673	614.434
358.708	16.982	813.045	613.825
359.723	17.159	812.462	613.968
360.738	17.187	811.840	613.546
361.752	17.251	810.771	612.914
362.767	17.172	810.776	612.578
363.781	17.195	810.230	612.196
364.796	17.249	810.070	612.214
365.810	17.413	809.579	612.379
366.825	17.503	808.935	612.162
367.840	17.492	808.805	611.971
368.854	17.423	808.159	611.179
369.869	17.473	807.641	610.913
370.883	17.405	807.324	610.374
371.898	17.430	807.111	610.249
372.913	17.478	806.738	610.086
373.927	17.429	806.131	609.396
374.942	17.550	805.588	609.363
375.956	17.616	805.294	609.325
376.971	17.624	804.697	608.848
377.986	17.616	804.525	608.636
379.000	17.699	803.805	608.333
380.015	17.730	803.158	607.901
381.029	17.633	802.822	607.247
382.044	17.536	802.548	606.641
383.059	17.607	801.783	606.261
384.073	17.539	800.924	605.317
385.088	17.461	800.719	604.832
386.102	17.588	799.956	604.649
387.117	17.633	799.208	604.193
388.132	17.618	798.647	603.659
389.146	17.598	798.273	603.255
390.161	17.658	798.127	603.303
391.175	17.686	797.540	602.904
392.190	17.730	796.931	602.546
393.205	17.542	796.214	601.285
394.219	17.546	796.268	601.289
395.234	17.723	795.574	601.337
396.248	17.504	795.154	600.193
397.263	17.517	794.845	599.952
398.278	17.544	794.586	599.800
399.292	17.583	794.094	599.511
400.307	17.713	793.411	599.401
401.321	17.654	793.190	598.972
402.336	17.634	792.839	598.583
403.350	17.760	791.979	598.325
404.365	17.639	791.887	597.778
405.380	17.800	791.327	597.866
406.394	17.928	790.885	597.929
407.409	18.032	790.546	597.981
408.423	18.024	790.303	597.717
409.438	18.089	789.955	597.631
410.453	18.069	789.358	597.054
411.467	18.230	788.912	597.228
412.482	18.260	788.418	596.905
413.496	18.103	788.271	596.191
414.511	18.264	787.725	596.286
415.526	18.148	787.326	595.528
416.540	18.138	787.205	595.349
417.555	18.207	786.230	594.798
418.569	18.190	785.999	594.512
419.584	18.230	785.523	594.240
420.599	18.226	785.106	593.859
421.613	157.529	1370.036	1797.524
422.628	136.139	1455.269	1797.618
