DTS Sentinel unit serial number:	SN413079Multiplexer serial number:	ORYXHardware model number:	OX4-SRSoftware version number:	ORYX F/W v4.00 Oryx Data Collector v3.7.2.0data status	okinstallation	princeton_trtdifferential loss correction	single-endedforward channel	channel 1reverse channel	N/Adate	2019/09/15time	14:26:35forward acquisition time	60.00reverse acquisition time	0.00gamma	496.2192k internal	0.2291k external	0.2291temperature offset calibration	0.9962default loss term (dB/km)	0.3790temperature slope calibration	1.0000multiplexer offset coefficient	1.0000multiplexer slope coefficient	1.0000fibre end	0.00T internal ref (°C)	39.25T ext. ref 1 (°C)	4.94T ext. ref 2 (°C)	36.38length (m)	temperature (°C)	Stokes	anti-Stokes-747.200	-200.000	0.051	-0.345
-746.185	221.177	0.131	0.215
-745.171	382.673	-0.115	0.243
-744.156	800.000	0.081	0.316
-743.142	71.238	-0.068	0.072
-742.127	-140.366	0.208	0.022
-741.112	-82.604	-0.488	0.162
-740.098	46.224	-0.031	-0.030
-739.083	24.500	0.215	-0.182
-738.069	800.000	0.155	0.464
-737.054	639.837	0.101	-0.264
-736.039	-90.555	0.051	-0.015
-735.025	88.447	-0.161	0.183
-734.010	88.240	0.099	0.113
-732.996	-89.930	-0.239	-0.071
-731.981	-104.390	-0.127	-0.030
-730.966	219.408	0.039	-0.064
-729.952	800.000	-0.078	-0.265
-728.937	156.834	0.063	0.089
-727.923	-95.580	-0.090	-0.025
-726.908	706.197	-0.046	-0.124
-725.894	65.297	-0.124	-0.128
-724.879	462.618	-0.042	0.097
-723.864	-200.000	0.063	-0.319
-722.850	-57.111	-0.365	-0.165
-721.835	54.184	-0.107	0.105
-720.821	272.462	-0.113	-0.204
-719.806	141.777	0.131	-0.177
-718.791	-73.885	-0.232	-0.086
-717.777	-200.000	0.007	-0.161
-716.762	-132.463	-0.019	-0.002
-715.748	17.974	0.151	0.123
-714.733	221.006	0.181	-0.297
-713.718	-89.325	-0.203	-0.061
-712.704	88.233	0.131	-0.149
-711.689	714.691	0.074	0.201
-710.675	-79.736	-0.155	0.053
-709.660	-9.443	0.420	-0.287
-708.645	-141.186	-0.184	0.019
-707.631	-84.907	-0.174	0.056
-706.616	-200.000	0.021	0.304
-705.602	-200.000	0.007	0.292
-704.587	192.950	-0.054	-0.083
-703.572	-200.000	0.055	-0.306
-702.558	-200.000	-0.060	0.368
-701.543	-67.156	-0.159	-0.064
-700.529	583.179	0.131	-0.329
-699.514	-200.000	-0.010	0.280
-698.499	-64.426	0.077	-0.032
-697.485	-28.125	-0.107	-0.063
-696.470	-87.071	-0.283	0.088
-695.456	-0.036	-0.271	0.197
-694.441	-23.986	-0.378	-0.231
-693.426	-174.255	-0.101	-0.003
-692.412	-183.287	0.300	0.005
-691.397	52.865	-0.145	0.141
-690.383	179.716	0.119	-0.179
-689.368	-88.794	0.156	-0.047
-688.354	-49.221	0.345	0.168
-687.339	-88.542	-0.318	-0.097
-686.324	180.359	-0.040	0.060
-685.310	-171.107	0.305	-0.011
-684.295	1.498	-0.121	0.089
-683.281	-200.000	0.039	-0.335
-682.266	275.343	-0.128	-0.231
-681.251	-31.674	-0.099	-0.057
-680.237	103.691	0.330	0.396
-679.222	-124.086	-0.180	0.029
-678.208	-88.197	-0.161	-0.049
-677.193	-116.101	-0.024	-0.005
-676.178	-200.000	-0.040	0.186
-675.164	146.518	-0.109	0.149
-674.149	193.559	-0.021	-0.032
-673.135	800.000	0.082	-0.273
-672.120	38.323	-0.178	0.162
-671.105	52.834	0.069	0.068
-670.091	-49.501	-0.227	0.110
-669.076	77.675	0.090	0.098
-668.062	101.908	0.143	-0.171
-667.047	-3.842	-0.097	-0.069
-666.032	-90.757	0.110	0.033
-665.018	800.000	0.070	-0.222
-664.003	800.000	-0.082	-0.246
-662.989	-9.798	0.321	0.218
-661.974	61.274	-0.117	-0.118
-660.959	-35.229	0.261	-0.145
-659.945	384.096	-0.055	0.116
-658.930	83.511	0.098	0.109
-657.916	146.002	0.094	-0.129
-656.901	800.000	-0.091	-0.271
-655.886	499.826	-0.111	0.260
-654.872	-200.000	-0.025	0.582
-653.857	-200.000	0.002	0.119
-652.843	93.166	0.240	0.276
-651.828	119.674	-0.204	-0.258
-650.814	21.597	-0.136	-0.113
-649.799	-200.000	-0.047	-0.251
-648.784	37.424	0.136	-0.123
-647.770	-126.767	0.220	-0.033
-646.755	-200.000	0.003	-0.061
-645.741	-200.000	0.017	0.162
-644.726	-40.261	-0.281	-0.149
-643.711	6.307	-0.197	0.149
-642.697	-200.000	-0.008	0.040
-641.682	16.300	0.193	0.155
-640.668	-101.330	0.113	0.028
-639.653	90.585	-0.233	-0.266
-638.638	51.556	-0.175	0.169
-637.624	-200.000	0.028	-0.432
-636.609	6.974	-0.349	0.265
-635.595	304.771	0.015	-0.028
-634.580	-94.147	-0.256	-0.072
-633.565	-23.646	-0.224	0.137
-632.551	170.700	0.152	0.222
-631.536	221.123	0.068	0.111
-630.522	174.702	0.102	-0.151
-629.507	-128.071	0.122	-0.018
-628.492	-98.857	0.144	0.037
-627.478	-139.752	0.253	-0.027
-626.463	-112.714	0.321	0.065
-625.449	-200.000	0.036	0.236
-624.434	-3.079	-0.339	-0.241
-623.419	-200.000	-0.011	-0.266
-622.405	66.627	-0.118	-0.122
-621.390	-46.698	-0.186	0.093
-620.376	794.955	-0.103	-0.289
-619.361	-128.470	0.304	-0.044
-618.346	-115.431	-0.115	0.022
-617.332	-5.088	-0.244	0.171
-616.317	-172.263	0.269	-0.009
-615.303	-71.452	0.214	-0.081
-614.288	-85.535	-0.232	0.073
-613.273	-121.185	-0.101	0.017
-612.259	-200.000	-0.014	-0.209
-611.244	115.303	0.155	-0.192
-610.230	-200.000	0.004	-0.188
-609.215	-109.970	-0.365	0.078
-608.201	467.725	0.041	0.094
-607.186	800.000	0.024	0.092
-606.171	-44.493	-0.191	-0.097
-605.157	-140.147	0.086	0.009
-604.142	-16.023	0.064	0.041
-603.128	-117.805	-0.180	-0.033
-602.113	-200.000	0.013	0.149
-601.098	-81.792	-0.137	0.046
-600.084	-57.709	0.342	-0.152
-599.069	639.613	-0.173	-0.448
-598.055	800.000	-0.037	0.112
-597.040	-149.769	0.300	-0.024
-596.025	200.636	0.047	-0.074
-595.011	-30.474	0.037	0.021
-593.996	-200.000	0.009	0.073
-592.982	238.267	-0.103	0.174
-591.967	521.325	0.016	-0.039
-590.952	-200.000	0.005	-0.107
-589.938	-8.173	-0.038	0.026
-588.923	800.000	0.084	0.241
-587.909	-159.218	-0.102	-0.006
-586.894	77.331	-0.341	-0.369
-585.879	-200.000	-0.006	-0.146
-584.865	-65.123	0.115	-0.047
-583.850	-200.000	0.037	-0.244
-582.836	257.962	-0.149	0.262
-581.821	55.530	0.111	0.109
-580.806	800.000	-0.055	0.187
-579.792	-170.874	-0.269	-0.009
-578.777	-200.000	-0.022	-0.102
-577.763	-81.544	0.198	-0.066
-576.748	-22.954	0.047	0.029
-575.733	-65.794	-0.063	0.026
-574.719	-200.000	-0.002	0.189
-573.704	20.645	-0.164	0.135
-572.690	183.697	-0.029	-0.044
-571.675	-123.257	0.092	-0.015
-570.661	-107.952	0.371	0.082
-569.646	-200.000	0.001	0.027
-568.631	-139.587	0.372	-0.040
-567.617	-129.878	-0.136	0.019
-566.602	800.000	0.058	0.245
-565.588	-118.679	-0.253	0.045
-564.573	-31.422	0.018	-0.010
-563.558	-115.079	-0.270	0.052
-562.544	-8.296	-0.037	0.026
-561.529	-137.263	-0.230	-0.027
-560.515	800.000	-0.047	-0.143
-559.500	-200.000	-0.032	0.275
-558.485	-200.000	-0.028	0.308
-557.471	-18.066	0.057	-0.036
-556.456	87.874	-0.083	-0.094
-555.442	457.113	0.096	0.216
-554.427	-200.000	0.041	0.211
-553.412	-185.113	0.045	0.001
-552.398	-102.606	-0.303	0.074
-551.383	-183.849	0.171	0.003
-550.369	334.110	0.051	0.101
-549.354	-82.312	0.081	0.027
-548.339	124.528	-0.124	0.159
-547.325	800.000	0.096	0.288
-546.310	713.416	-0.029	0.079
-545.296	64.302	-0.020	-0.020
-544.281	-200.000	-0.006	-0.166
-543.266	513.976	0.239	0.566
-542.252	-200.000	-0.031	0.154
-541.237	-200.000	0.035	-0.261
-540.223	423.848	-0.159	0.347
-539.208	24.983	0.208	-0.175
-538.193	404.597	0.148	-0.318
-537.179	-31.790	-0.194	0.110
-536.164	303.253	-0.205	-0.385
-535.150	440.460	-0.036	0.080
-534.135	-200.000	0.034	-0.266
-533.121	188.339	0.056	0.086
-532.106	-70.134	-0.080	0.031
-531.091	-23.121	-0.316	0.193
-530.077	800.000	-0.162	0.602
-529.062	29.032	-0.104	-0.089
-528.048	128.963	-0.044	-0.057
-527.033	-12.647	0.201	0.133
-526.018	193.854	0.111	-0.171
-525.004	-105.437	0.069	0.016
-523.989	-200.000	-0.058	0.323
-522.975	-137.518	-0.308	0.035
-521.960	-173.931	-0.080	0.002
-520.945	-43.293	0.317	0.163
-519.931	-9.153	0.194	-0.132
-518.916	-134.527	-0.241	-0.030
-517.902	-200.000	-0.014	0.224
-516.887	247.512	-0.119	-0.204
-515.872	168.551	-0.216	0.313
-514.858	17.563	0.160	-0.129
-513.843	-200.000	-0.025	0.280
-512.829	-83.893	0.204	0.066
-511.814	461.778	0.256	-0.580
-510.799	326.097	-0.117	0.226
-509.785	-121.290	-0.149	-0.025
-508.770	-124.536	0.496	-0.078
-507.756	-74.986	0.412	0.150
-506.741	-90.989	-0.104	-0.030
-505.726	-138.871	-0.215	-0.024
-504.712	513.336	0.073	-0.173
-503.697	19.660	-0.170	0.139
-502.683	800.000	0.053	0.158
-501.668	-200.000	0.021	-0.099
-500.653	255.187	0.117	-0.203
-499.639	800.000	-0.036	-0.109
-498.624	132.647	-0.179	0.234
-497.610	609.629	-0.025	-0.065
-496.595	-200.000	0.055	-0.275
-495.581	-42.839	-0.049	-0.025
-494.566	39.488	0.236	0.214
-493.551	64.443	-0.063	-0.064
-492.537	0.746	-0.145	-0.105
-491.522	-90.264	0.218	0.064
-490.508	9.103	-0.189	0.145
-489.493	363.284	-0.048	0.097
-488.478	-200.000	0.046	0.213
-487.464	667.444	-0.069	-0.181
-486.449	-93.178	0.111	0.031
-485.435	-18.889	-0.228	0.144
-484.420	559.828	0.146	-0.356
-483.405	-13.822	-0.336	-0.220
-482.391	56.618	-0.228	0.225
-481.376	800.000	0.095	0.316
-480.362	618.657	-0.079	0.201
-479.347	800.000	0.042	-0.132
-478.332	-147.016	-0.178	-0.015
-477.318	-37.565	0.211	-0.114
-476.303	-94.551	-0.322	0.089
-475.289	-200.000	0.011	-0.101
-474.274	66.141	0.027	-0.028
-473.259	37.203	0.114	0.103
-472.245	201.259	0.094	0.147
-471.230	-153.255	0.495	-0.035
-470.216	-51.742	0.102	-0.048
-469.201	-200.000	-0.016	-0.090
-468.186	-21.591	0.113	-0.070
-467.172	-103.536	-0.026	-0.006
-466.157	314.725	-0.160	-0.305
-465.143	-45.250	-0.173	-0.087
-464.128	-45.517	-0.071	0.036
-463.113	800.000	-0.043	-0.154
-462.099	3.422	-0.332	-0.245
-461.084	-200.000	-0.016	-0.118
-460.070	63.268	-0.188	-0.191
-459.055	-81.248	-0.421	-0.141
-458.040	-130.812	0.271	-0.037
-457.026	450.821	0.035	-0.078
-456.011	-106.604	0.315	-0.071
-454.997	36.550	0.317	-0.284
-453.982	-79.960	0.405	-0.138
-452.968	-3.028	-0.112	-0.079
-451.953	-33.495	-0.164	0.092
-450.938	800.000	0.075	-0.252
-449.924	-11.352	0.255	0.170
-448.909	-10.332	0.202	0.136
-447.895	188.437	0.081	0.123
-446.880	737.466	0.080	0.218
-445.865	78.724	-0.077	0.083
-444.851	473.811	-0.086	-0.196
-443.836	800.000	0.070	0.279
-442.822	364.892	0.045	-0.091
-441.807	-107.685	0.230	0.051
-440.792	-36.837	0.204	-0.111
-439.778	8.710	-0.184	0.140
-438.763	-133.950	0.284	-0.036
-437.749	800.000	-0.072	0.214
-436.734	-119.177	0.230	0.041
-435.719	491.894	-0.074	0.171
-434.705	-176.606	0.230	0.006
-433.690	-97.621	-0.382	0.100
-432.676	-200.000	0.035	0.232
-431.661	138.315	-0.075	0.100
-430.646	96.322	-0.195	-0.226
-429.632	-200.000	0.056	-0.265
-428.617	-3.989	-0.175	0.122
-427.603	-200.000	-0.072	-0.494
-426.588	299.555	0.015	0.027
-425.573	-130.598	-0.203	0.028
-424.559	-200.000	-0.021	-0.245
-423.544	274.303	-0.170	0.305
-422.530	-176.825	0.227	0.006
-421.515	-200.000	-0.038	-0.173
-420.500	640.604	0.017	-0.044
-419.486	343.116	-0.032	0.064
-418.471	-200.000	-0.025	0.223
-417.457	-27.916	-0.185	0.108
-416.442	-22.157	0.115	0.071
-415.428	59.768	-0.123	-0.123
-414.413	-94.218	-0.214	-0.059
-413.398	-7.457	0.092	-0.063
-412.384	800.000	0.098	0.396
-411.369	19.122	-0.018	-0.015
-410.355	-142.431	0.285	0.028
-409.340	457.841	-0.074	-0.165
-408.325	-200.000	0.016	0.115
-407.311	256.471	0.093	-0.162
-406.296	-92.813	-0.062	0.017
-405.282	724.001	-0.103	-0.276
-404.267	314.865	-0.073	0.139
-403.252	-157.292	0.195	-0.012
-402.238	-130.168	-0.311	-0.043
-401.223	-143.259	-0.515	0.050
-400.209	-200.000	-0.001	-0.209
-399.194	10.798	0.147	0.114
-398.179	-59.288	-0.213	0.093
-397.165	15.222	0.275	0.218
-396.150	-174.857	-0.083	-0.002
-395.136	-30.608	-0.152	0.087
-394.121	586.474	-0.076	-0.189
-393.106	-64.253	0.241	-0.099
-392.092	-89.170	0.058	-0.017
-391.077	800.000	0.081	0.269
-390.063	-91.438	-0.016	0.004
-389.048	-36.448	0.201	-0.109
-388.033	-200.000	0.021	-0.114
-387.019	-187.679	0.269	-0.004
-386.004	382.235	-0.222	0.460
-384.990	148.987	0.084	-0.115
-383.975	503.963	0.022	-0.051
-382.960	525.359	0.053	-0.126
-381.946	-200.000	-0.014	0.092
-380.931	-129.307	-0.160	0.023
-379.917	-200.000	0.027	-0.182
-378.902	-70.517	-0.056	0.021
-377.888	88.975	-0.155	-0.174
-376.873	6.201	-0.047	0.035
-375.858	39.713	0.030	0.027
-374.844	800.000	0.041	0.133
-373.829	-200.000	0.033	-0.196
-372.815	-130.253	-0.079	-0.011
-371.800	800.000	0.086	-0.331
-370.785	-200.000	0.046	-0.213
-369.771	-22.582	-0.029	0.018
-368.756	-200.000	0.050	-0.350
-367.742	46.937	0.366	-0.343
-366.727	147.325	-0.144	0.195
-365.712	-200.000	0.015	-0.197
-364.698	-15.962	0.101	-0.065
-363.683	6.488	-0.137	-0.103
-362.669	-75.942	-0.338	-0.121
-361.654	-3.376	0.159	0.112
-360.639	167.834	0.189	-0.271
-359.625	-70.291	0.195	-0.075
-358.610	472.023	-0.035	0.081
-357.596	170.409	-0.172	-0.248
-356.581	-34.121	-0.166	0.092
-355.566	381.201	-0.080	0.166
-354.552	800.000	-0.031	-0.096
-353.537	50.095	0.093	0.088
-352.523	800.000	-0.017	-0.051
-351.508	172.605	-0.147	0.214
-350.493	235.302	-0.077	-0.129
-349.479	-200.000	0.013	-0.120
-348.464	-200.000	0.033	0.307
-347.450	7.042	-0.214	0.161
-346.435	-131.440	0.332	-0.044
-345.420	-163.322	-0.267	-0.013
-344.406	800.000	0.057	0.215
-343.391	80.782	-0.140	-0.152
-342.377	40.555	-0.077	-0.070
-341.362	34.601	-0.124	0.109
-340.348	-91.744	0.232	-0.066
-339.333	191.301	-0.124	-0.188
-338.318	18.949	-0.302	0.244
-337.304	73.480	-0.144	0.152
-336.289	-132.248	0.098	0.013
-335.275	-186.027	-0.278	-0.004
-334.260	122.896	-0.097	-0.122
-333.245	-56.778	-0.139	-0.062
-332.231	399.804	-0.091	0.192
-331.216	-200.000	0.030	-0.566
-330.202	35.967	0.256	-0.227
-329.187	562.392	0.138	0.336
-328.172	-131.272	0.025	0.003
-327.158	-73.940	-0.131	-0.048
-326.143	-167.248	0.401	-0.016
-325.129	-16.479	0.299	-0.191
-324.114	-46.960	-0.194	-0.095
-323.099	-200.000	-0.442	-0.000
-322.085	186.929	0.079	0.119
-321.070	274.814	-0.147	0.262
-320.056	25.773	0.237	-0.199
-319.041	67.818	-0.214	0.220
-318.026	-19.875	0.204	0.127
-317.012	591.053	0.122	-0.302
-315.997	-83.618	0.324	-0.104
-314.983	-152.832	0.149	-0.011
-313.968	-25.973	-0.141	-0.084
-312.953	11.468	0.102	-0.078
-311.939	26.875	-0.053	-0.045
-310.924	800.000	0.084	-0.282
-309.910	25.448	-0.224	-0.188
-308.895	-34.999	0.170	0.093
-307.880	710.717	-0.142	-0.380
-306.866	118.987	-0.111	-0.138
-305.851	800.000	0.115	-0.343
-304.837	-33.797	0.304	-0.169
-303.822	-200.000	0.004	-0.117
-302.807	-34.409	0.333	0.184
-301.793	255.578	-0.148	-0.256
-300.778	-34.281	0.341	0.188
-299.764	47.524	-0.068	0.064
-298.749	-176.291	0.108	0.003
-297.735	-115.115	0.135	0.026
-296.720	-82.896	0.247	0.080
-295.705	800.000	-0.106	-0.310
-294.691	118.297	0.160	-0.199
-293.676	-118.402	0.080	0.014
-292.662	-136.370	0.280	0.033
-291.647	622.660	0.076	0.193
-290.632	449.905	0.138	-0.307
-289.618	800.000	0.057	-0.157
-288.603	-95.753	-0.316	-0.085
-287.589	218.222	-0.203	0.326
-286.574	13.918	-0.086	0.067
-285.559	162.768	0.022	0.031
-284.545	-200.000	-0.057	0.334
-283.530	413.325	0.154	0.329
-282.516	-137.615	0.118	0.013
-281.501	-104.553	-0.161	-0.037
-280.486	-86.889	-0.163	-0.050
-279.472	140.077	0.101	0.133
-278.457	-200.000	-0.003	-0.078
-277.443	140.929	0.186	0.248
-276.428	378.197	-0.105	0.216
-275.413	-90.023	-0.324	-0.095
-274.399	-175.725	0.232	0.006
-273.384	-38.521	0.132	0.070
-272.370	49.413	-0.234	0.221
-271.355	256.409	0.124	-0.214
-270.340	-13.394	-0.265	-0.173
-269.326	289.156	-0.145	0.265
-268.311	-25.494	0.167	-0.099
-267.297	-164.888	-0.142	-0.006
-266.282	-73.519	-0.260	0.095
-265.267	-137.276	-0.045	0.005
-264.253	-41.523	0.238	0.123
-263.238	-125.943	0.151	0.023
-262.224	-8.361	0.016	0.011
-261.209	-138.184	0.239	-0.027
-260.195	-86.977	0.111	-0.034
-259.180	68.188	0.156	-0.160
-258.165	6.765	-0.285	0.213
-257.151	-86.483	0.380	-0.117
-256.136	-50.256	0.199	0.095
-255.122	-200.000	0.005	0.219
-254.107	-86.169	-0.130	0.040
-253.092	172.434	0.029	-0.042
-252.078	-76.431	0.244	-0.086
-251.063	-200.000	0.019	0.298
-250.049	212.908	-0.062	0.098
-249.034	-17.040	-0.184	0.116
-248.019	-107.349	0.209	0.046
-247.005	-124.195	0.163	-0.026
-245.990	800.000	-0.084	0.280
-244.976	-200.000	0.016	-0.084
-243.961	-200.000	-0.065	-0.330
-242.946	-144.928	0.147	0.013
-241.932	-117.028	-0.111	0.020
-240.917	-63.303	-0.157	0.065
-239.903	-73.412	0.175	0.064
-238.888	56.124	-0.048	0.047
-237.873	211.580	0.342	0.540
-236.859	-26.895	-0.125	-0.073
-235.844	-0.895	-0.280	-0.199
-234.830	307.463	0.098	-0.182
-233.815	800.000	0.068	0.237
-232.800	-43.757	0.045	-0.023
-231.786	-26.258	0.230	0.136
-230.771	-16.148	0.372	-0.237
-229.757	-200.000	0.063	0.462
-228.742	-110.770	0.221	0.046
-227.727	-14.031	-0.275	0.178
-226.713	424.319	-0.080	0.173
-225.698	144.126	-0.111	-0.149
-224.684	-21.866	-0.223	-0.136
-223.669	800.000	0.053	0.180
-222.655	1.473	0.172	-0.124
-221.640	501.099	0.115	-0.266
-220.625	60.102	-0.246	-0.244
-219.611	-200.000	-0.006	-0.330
-218.596	800.000	0.058	0.245
-217.582	800.000	0.053	-0.171
-216.567	68.206	0.191	0.196
-215.552	-200.000	0.047	0.348
-214.538	-152.853	-0.436	0.031
-213.523	-110.502	0.123	-0.026
-212.509	1.741	0.125	0.091
-211.494	800.000	-0.109	0.336
-210.479	40.897	0.036	0.033
-209.465	160.462	-0.236	0.330
-208.450	-147.742	0.216	-0.018
-207.436	800.000	0.021	0.086
-206.421	-200.000	0.002	0.017
-205.406	98.451	0.133	-0.154
-204.392	24.765	-0.101	-0.084
-203.377	-106.939	-0.135	0.030
-202.363	-200.000	0.024	0.239
-201.348	-69.222	-0.044	0.017
-200.333	561.733	0.070	0.171
-199.319	800.000	0.046	0.142
-198.304	395.641	-0.052	-0.109
-197.290	-101.465	-0.070	-0.017
-196.275	-200.000	0.029	0.300
-195.260	-99.823	0.146	-0.037
-194.246	-122.022	-0.419	0.069
-193.231	-200.000	0.089	0.458
-192.217	78.472	-0.183	-0.196
-191.202	19.115	-0.175	-0.140
-190.187	-110.891	-0.168	0.035
-189.173	-37.077	-0.447	-0.240
-188.158	-200.000	0.007	0.125
-187.144	-94.826	0.072	-0.020
-186.129	147.519	-0.127	-0.171
-185.114	-200.000	-0.020	-0.256
-184.100	247.865	0.046	-0.078
-183.085	-106.529	0.292	0.065
-182.071	192.546	-0.159	-0.241
-181.056	-200.000	0.013	-0.464
-180.042	193.999	0.128	-0.195
-179.027	-200.000	-0.025	-0.144
-178.012	-66.759	0.215	-0.085
-176.998	82.908	0.111	-0.121
-175.983	186.240	-0.240	-0.358
-174.969	-94.322	-0.137	0.037
-173.954	-81.029	0.120	0.040
-172.939	-197.984	0.419	-0.002
-171.925	-151.425	0.160	-0.012
-170.910	800.000	0.020	-0.077
-169.896	-66.725	0.363	0.144
-168.881	-184.750	-0.332	-0.005
-167.866	-151.916	-0.279	0.020
-166.852	42.267	-0.160	0.146
-165.837	-60.073	0.461	-0.197
-164.823	346.510	-0.051	-0.100
-163.808	-43.988	0.090	0.045
-162.793	-200.000	0.011	0.113
-161.779	-121.133	0.054	0.009
-160.764	214.243	-0.103	-0.163
-159.750	-200.000	0.001	0.199
-158.735	-153.641	0.302	0.021
-157.720	-145.875	-0.371	-0.033
-156.706	-60.719	-0.098	0.042
-155.691	-152.766	-0.223	0.016
-154.677	-200.000	-0.153	0.000
-153.662	-30.907	-0.211	0.119
-152.647	-8.370	0.197	0.133
-151.633	505.997	0.135	0.314
-150.618	800.000	0.066	-0.214
-149.604	29.199	-0.197	-0.167
-148.589	12.255	0.323	-0.249
-147.574	-200.000	-0.007	0.072
-146.560	-200.000	0.022	0.446
-145.545	461.129	-0.188	-0.419
-144.531	38.441	-0.343	-0.306
-143.516	-147.343	-0.128	-0.011
-142.502	-200.000	-0.045	0.287
-141.487	18.776	0.291	0.233
-140.472	48.068	-0.092	0.086
-139.458	65.738	0.249	-0.252
-138.443	-200.000	-0.017	0.134
-137.429	20.609	0.259	-0.209
-136.414	-59.471	-0.303	0.130
-135.399	20.443	-0.090	0.073
-134.385	207.933	-0.133	0.207
-133.370	15.736	-0.170	0.134
-132.356	-162.900	-0.333	0.016
-131.341	-16.916	-0.070	-0.044
-130.326	-2.020	-0.270	0.189
-129.312	-91.094	0.219	-0.063
-128.297	-200.000	0.048	-0.338
-127.283	-148.381	0.293	0.024
-126.268	183.361	0.188	0.278
-125.253	-48.564	0.301	-0.145
-124.239	-47.414	0.106	0.052
-123.224	-77.988	0.199	0.068
-122.210	-200.000	0.012	-0.261
-121.195	-83.798	-0.313	0.100
-120.180	-60.560	-0.343	-0.145
-119.166	-134.142	0.112	0.014
-118.151	-91.053	-0.307	0.088
-117.137	-190.468	0.249	-0.003
-116.122	69.598	0.211	-0.217
-115.107	-109.418	0.239	0.050
-114.093	-79.458	0.160	0.054
-113.078	-200.000	0.001	-0.467
-112.064	800.000	0.051	-0.155
-111.049	-184.849	-0.045	0.001
-110.034	800.000	-0.104	0.403
-109.020	-200.000	0.014	-0.374
-108.005	-189.127	-0.234	-0.003
-106.991	1.376	0.142	0.102
-105.976	-105.868	0.064	0.014
-104.962	6.048	-0.128	0.095
-103.947	280.706	0.073	-0.130
-102.932	121.798	0.186	0.231
-101.918	-5.793	-0.162	-0.111
-100.903	800.000	0.039	0.132
-99.889	164.057	0.229	-0.322
-98.874	-200.000	0.002	-0.295
-97.859	33.359	0.338	0.293
-96.845	-27.926	0.188	0.108
-95.830	99.405	0.126	0.145
-94.816	-200.000	-0.021	0.326
-93.801	-157.740	0.220	0.013
-92.786	-200.000	-0.005	-0.242
-91.772	265.893	-0.062	-0.108
-90.757	-114.679	-0.260	-0.050
-89.743	213.687	0.090	-0.142
-88.728	-1.477	0.334	-0.235
-87.713	-111.907	-0.125	0.025
-86.699	800.000	-0.028	-0.117
-85.684	-31.028	-0.107	0.060
-84.670	800.000	-0.069	-0.281
-83.655	107.212	0.219	-0.260
-82.640	64.528	-0.176	0.177
-81.626	313.264	-0.094	0.177
-80.611	31.905	-0.137	0.118
-79.597	224.595	0.071	0.115
-78.582	-168.633	-0.204	-0.008
-77.567	-40.180	0.203	-0.106
-76.553	-158.907	0.249	-0.014
-75.538	-20.360	0.118	0.072
-74.524	-99.529	0.320	-0.080
-73.509	-14.504	0.234	0.150
-72.494	-29.750	-0.140	-0.080
-71.480	127.279	0.118	-0.150
-70.465	-117.866	0.089	-0.016
-69.451	-12.889	0.202	0.131
-68.436	-27.765	0.291	0.169
-67.422	-200.000	-0.024	0.127
-66.407	311.822	0.033	-0.062
-65.392	800.000	-0.085	0.259
-64.378	-118.405	0.184	-0.033
-63.363	-69.894	0.058	0.022
-62.349	366.518	-0.148	-0.298
-61.334	81.564	-0.588	-0.634
-60.319	69.414	0.289	0.297
-59.305	800.000	-0.145	-0.524
-58.290	71.944	0.730	0.757
-57.276	723.640	0.518	1.376
-56.261	-200.000	78.740	507.206
-55.246	549.689	1365.616	3263.062
-54.232	180.829	2596.447	3800.674
-53.217	121.319	2245.912	2787.672
-52.203	50.368	1694.899	1596.479
-51.188	42.686	1424.166	1292.291
-50.173	39.237	1379.787	1230.441
-49.159	57.331	1416.407	1377.813
-48.144	62.910	1435.202	1431.275
-47.130	43.226	1397.575	1271.365
-46.115	39.432	1381.050	1232.590
-45.100	39.047	1376.582	1226.152
-44.086	39.096	1373.424	1223.599
-43.071	38.988	1371.423	1221.096
-42.057	39.032	1369.375	1219.498
-41.042	39.147	1367.382	1218.384
-40.027	39.135	1366.114	1217.130
-39.013	39.124	1363.932	1215.071
-37.998	39.091	1362.338	1213.403
-36.984	39.207	1360.274	1212.228
-35.969	39.288	1358.281	1210.902
-34.954	39.325	1356.496	1209.491
-33.940	39.400	1355.050	1208.613
-32.925	39.302	1353.986	1207.014
-31.911	39.384	1352.413	1206.069
-30.896	39.411	1350.627	1204.592
-29.881	39.333	1349.456	1203.026
-28.867	39.345	1348.088	1201.830
-27.852	39.287	1346.949	1200.412
-26.838	39.383	1345.253	1199.440
-25.823	39.410	1343.373	1197.882
-24.809	39.352	1342.124	1196.365
-23.794	39.413	1340.703	1195.424
-22.779	39.218	1339.673	1193.273
-21.765	39.320	1337.970	1192.325
-20.750	39.273	1336.159	1190.384
-19.736	39.191	1335.232	1189.015
-18.721	39.135	1334.219	1187.722
-17.706	39.297	1332.677	1187.284
-16.692	39.286	1331.968	1186.538
-15.677	39.268	1330.927	1185.456
-14.663	39.220	1329.658	1183.990
-13.648	39.161	1328.421	1182.484
-12.633	39.055	1327.256	1180.762
-11.619	39.190	1326.289	1180.666
-10.604	39.240	1325.196	1179.949
-9.590	39.167	1324.548	1178.884
-8.575	39.259	1323.329	1178.308
-7.560	39.193	1322.261	1176.911
-6.546	39.120	1321.743	1175.966
-5.531	39.104	1321.209	1175.351
-4.517	39.067	1320.434	1174.391
-3.502	39.063	1319.672	1173.645
-2.487	39.189	1318.328	1173.156
-1.473	39.336	1314.073	1170.200
-0.458	38.432	1299.289	1151.667
0.556	33.420	1280.557	1111.762
1.571	29.308	1285.145	1091.362
2.586	27.869	1299.996	1095.253
3.600	26.429	1289.153	1077.448
4.615	20.350	1212.373	979.021
5.629	10.220	1130.488	859.278
6.644	5.412	1106.515	815.943
7.659	4.886	1103.949	811.244
8.673	4.780	1102.562	809.601
9.688	4.694	1101.017	807.946
10.702	5.258	1099.922	809.998
11.717	11.318	1108.848	848.095
12.731	19.088	1120.281	897.435
13.746	20.054	1120.026	902.187
14.761	17.826	1116.865	887.979
15.775	16.692	1114.328	879.992
16.790	15.497	1112.508	872.273
17.804	14.891	1110.353	867.361
18.819	14.447	1109.422	864.257
19.834	14.253	1107.991	862.059
20.848	13.932	1107.219	859.720
21.863	13.684	1106.690	857.954
22.877	13.609	1105.348	856.449
23.892	13.516	1104.983	855.609
24.907	13.575	1104.336	855.339
25.921	13.615	1102.990	854.424
26.936	13.695	1101.598	853.683
27.950	13.759	1100.055	852.740
28.965	13.659	1098.469	850.924
29.980	13.769	1096.861	850.165
30.994	13.836	1095.907	849.697
32.009	13.951	1095.179	849.644
33.023	13.805	1094.034	847.932
34.038	13.789	1092.779	846.804
35.053	13.800	1091.848	846.063
36.067	13.620	1091.222	844.584
37.082	13.668	1090.053	843.852
38.096	13.784	1089.476	843.918
39.111	13.765	1088.355	842.880
40.126	13.630	1087.227	841.250
41.140	13.502	1086.045	839.609
42.155	13.593	1084.983	839.174
43.169	13.522	1083.715	837.763
44.184	13.479	1082.645	836.643
45.199	13.490	1081.641	835.849
46.213	13.587	1080.342	835.260
47.228	13.749	1079.433	835.301
48.242	13.631	1078.197	833.674
49.257	13.717	1077.268	833.314
50.271	13.733	1076.484	832.717
51.286	13.745	1075.365	831.837
52.301	13.835	1074.106	831.238
53.315	13.694	1073.431	829.936
54.330	13.457	1072.626	828.059
55.344	13.584	1071.729	827.925
56.359	13.553	1070.741	826.936
57.374	13.561	1069.815	826.188
58.388	13.504	1068.986	825.186
59.403	13.537	1067.568	824.185
60.417	13.564	1067.190	823.957
61.432	13.422	1066.234	822.436
62.447	13.304	1065.588	821.280
63.461	13.331	1064.599	820.580
64.476	13.449	1063.195	820.012
65.490	13.335	1062.851	819.109
66.505	13.378	1062.077	818.652
67.520	13.319	1061.749	818.036
68.534	13.419	1060.727	817.668
69.549	13.439	1059.857	817.025
70.563	13.376	1058.883	815.889
71.578	13.324	1058.457	815.231
72.593	13.323	1057.404	814.345
73.607	13.340	1056.801	813.895
74.622	13.386	1056.044	813.461
75.636	13.358	1055.421	812.772
76.651	13.293	1055.019	812.073
77.666	13.389	1053.500	811.301
78.680	13.362	1053.506	811.106
79.695	13.382	1052.576	810.416
80.709	13.508	1051.890	810.431
81.724	13.513	1051.464	810.054
82.739	13.533	1050.694	809.487
83.753	13.643	1049.869	809.320
84.768	13.739	1048.741	808.844
85.782	13.620	1048.300	807.852
86.797	13.829	1046.936	807.750
87.812	13.620	1045.976	805.920
88.826	13.725	1044.845	805.486
89.841	13.672	1044.190	804.653
90.855	13.809	1043.127	804.425
91.870	13.832	1042.386	803.894
92.884	13.799	1041.525	803.001
93.899	13.731	1040.778	802.025
94.914	13.806	1039.700	801.488
95.928	13.906	1038.905	801.284
96.943	13.908	1037.640	800.248
97.957	13.705	1037.366	798.990
98.972	13.664	1036.780	798.271
99.987	13.708	1035.754	797.618
101.001	13.735	1034.555	796.754
102.016	13.843	1033.593	796.462
103.030	13.885	1032.572	795.805
104.045	13.854	1031.830	795.018
105.060	13.708	1031.320	793.853
106.074	13.687	1029.954	792.633
107.089	13.620	1029.024	791.527
108.103	13.453	1028.697	790.407
109.118	13.504	1027.392	789.577
110.133	13.602	1026.243	789.092
111.147	13.644	1025.310	788.505
112.162	13.587	1024.942	787.878
113.176	13.659	1024.004	787.432
114.191	13.631	1023.528	786.864
115.206	13.666	1022.341	786.049
116.220	13.567	1021.650	784.976
117.235	13.527	1020.792	784.056
118.249	13.592	1019.938	783.640
119.264	13.648	1018.724	782.903
120.279	13.678	1017.726	782.209
121.293	13.635	1016.878	781.285
122.308	13.516	1016.092	780.053
123.322	13.538	1015.258	779.445
124.337	13.566	1014.171	778.676
125.352	13.520	1013.324	777.740
126.366	13.543	1011.761	776.576
127.381	13.493	1011.227	775.867
128.395	13.460	1010.564	775.131
129.410	13.626	1008.821	774.503
130.424	13.633	1008.211	774.000
131.439	13.759	1007.524	773.992
132.454	13.700	1006.847	773.126
133.468	13.848	1005.514	772.725
134.483	13.671	1005.287	771.660
135.497	13.714	1004.217	770.969
136.512	13.703	1003.559	770.345
137.527	13.705	1002.864	769.751
138.541	13.707	1001.836	768.905
139.556	13.925	1001.172	769.338
140.570	13.867	1000.722	768.654
141.585	13.864	999.634	767.738
142.600	13.956	998.654	767.339
143.614	14.025	997.415	766.640
144.629	14.061	996.692	766.181
145.643	13.970	996.104	765.244
146.658	13.899	994.977	763.981
147.673	13.785	993.938	762.594
148.687	13.794	992.901	761.771
149.702	13.739	992.214	760.924
150.716	13.625	991.439	759.741
151.731	13.795	990.786	759.952
152.746	13.790	989.994	759.255
153.760	13.812	989.529	758.931
154.775	13.744	988.946	758.105
155.789	14.093	987.770	758.729
156.804	13.835	987.694	757.426
157.819	14.025	986.529	757.333
158.833	13.812	986.621	756.364
159.848	13.983	985.320	756.081
160.862	13.979	984.514	755.374
161.877	13.909	983.564	754.263
162.892	13.735	982.447	752.551
163.906	13.740	981.911	752.094
164.921	13.779	980.819	751.369
165.935	13.889	979.641	750.898
166.950	13.994	978.765	750.631
167.964	13.980	977.689	749.678
168.979	13.902	976.823	748.598
169.994	13.925	975.986	747.992
171.008	13.976	975.436	747.733
172.023	14.038	974.614	747.316
173.037	14.165	973.697	747.118
174.052	14.045	972.844	745.858
175.067	13.965	972.279	745.001
176.081	13.889	971.895	744.302
177.096	13.889	971.298	743.779
178.110	13.928	970.574	743.333
179.125	14.008	970.087	743.251
180.140	13.920	969.520	742.357
181.154	14.134	968.865	742.745
182.169	14.079	968.473	742.136
183.183	14.201	967.623	741.963
184.198	14.249	967.026	741.649
185.213	14.123	966.452	740.584
186.227	14.234	965.554	740.323
187.242	14.285	964.878	739.966
188.256	14.280	964.145	739.318
189.271	14.184	963.393	738.251
190.286	14.198	962.496	737.558
191.300	14.016	961.748	736.117
192.315	13.916	960.684	734.795
193.329	13.991	960.371	734.821
194.344	14.007	960.133	734.644
195.359	14.121	959.666	734.725
196.373	14.241	958.439	734.249
197.388	14.097	958.840	733.857
198.402	14.321	957.979	734.122
199.417	14.366	957.296	733.728
200.432	14.498	956.369	733.537
201.446	14.429	956.090	732.952
202.461	14.649	955.621	733.494
203.475	14.450	954.969	732.057
204.490	14.469	954.289	731.554
205.504	14.410	953.523	730.642
206.519	14.371	952.673	729.758
207.534	14.375	952.052	729.233
208.548	14.387	951.728	728.972
209.563	14.518	950.037	728.184
210.577	14.447	949.987	727.773
211.592	14.522	949.504	727.665
212.607	14.585	948.782	727.322
213.621	14.577	947.664	726.367
214.636	14.480	947.096	725.446
215.650	14.608	946.362	725.373
216.665	14.674	945.630	725.036
217.680	14.641	944.855	724.234
218.694	14.740	944.058	723.988
219.709	14.767	943.344	723.493
220.723	14.728	943.079	723.056
221.738	14.631	942.279	721.963
222.753	14.746	941.443	721.754
223.767	14.696	940.953	721.099
224.782	14.808	940.377	721.078
225.796	14.917	939.910	721.124
226.811	14.873	939.225	720.346
227.826	14.781	938.651	719.444
228.840	14.850	937.465	718.769
229.855	14.827	936.485	717.857
230.869	14.815	935.786	717.205
231.884	14.738	935.398	716.513
232.899	14.677	934.265	715.322
233.913	14.793	933.661	715.292
234.928	14.624	933.438	714.334
235.942	14.652	932.739	713.856
236.957	14.672	931.934	713.261
237.972	14.623	931.291	712.499
238.986	14.732	930.631	712.394
240.001	14.740	930.225	712.055
241.015	14.837	929.283	711.684
242.030	14.790	928.252	710.633
243.045	14.897	927.952	710.795
244.059	14.968	927.346	710.568
245.074	14.938	926.824	709.980
246.088	14.978	926.064	709.504
247.103	15.001	925.734	709.284
248.117	15.031	925.287	709.007
249.132	15.103	924.524	708.663
250.147	15.248	923.963	708.784
251.161	15.201	923.216	707.950
252.176	15.246	922.705	707.688
253.190	15.337	921.454	707.049
254.205	15.409	921.202	707.095
255.220	15.255	921.003	706.229
256.234	15.281	920.256	705.703
257.249	15.289	919.597	705.171
258.263	15.309	918.433	704.301
259.278	15.470	917.400	704.123
260.293	15.375	917.537	703.763
261.307	15.477	916.776	703.546
262.322	15.460	915.941	702.771
263.336	15.467	915.162	702.142
264.351	15.535	914.313	701.713
265.366	15.582	913.736	701.405
266.380	15.597	913.298	701.070
267.395	15.481	912.411	699.842
268.409	15.518	911.720	699.403
269.424	15.421	911.044	698.420
270.439	15.392	910.464	697.793
271.453	15.498	909.220	697.216
272.468	15.471	908.876	696.781
273.482	15.382	908.816	696.304
274.497	15.437	908.378	696.134
275.512	15.563	907.303	695.771
276.526	15.562	906.934	695.423
277.541	15.741	906.244	695.573
278.555	15.573	905.825	694.495
279.570	15.801	904.703	694.512
280.585	15.627	904.672	693.708
281.599	15.687	903.431	692.946
282.614	15.677	902.507	692.134
283.628	15.694	902.013	691.762
284.643	15.673	901.403	691.147
285.657	15.759	900.684	690.888
286.672	15.779	899.932	690.331
287.687	15.615	899.435	689.218
288.701	15.722	899.158	689.385
289.716	15.832	898.296	689.110
290.730	15.841	897.692	688.623
291.745	15.800	896.905	687.794
292.760	15.835	896.471	687.543
293.774	15.938	895.668	687.286
294.789	15.969	894.986	686.826
295.803	15.898	894.518	686.120
296.818	15.750	893.928	685.002
297.833	15.856	892.998	684.661
298.847	15.722	892.690	683.816
299.862	15.822	892.416	683.956
300.876	15.998	891.583	683.969
301.891	16.093	890.652	683.579
302.906	16.059	890.327	683.132
303.920	16.104	889.413	682.553
304.935	16.125	889.380	682.555
305.949	16.099	888.434	681.661
306.964	16.081	887.496	680.807
307.979	16.180	887.215	680.933
308.993	16.152	886.575	680.268
310.008	16.190	885.604	679.617
311.022	16.147	884.996	678.915
312.037	15.984	884.923	678.145
313.052	15.971	884.120	677.414
314.066	16.008	883.506	677.035
315.081	15.974	882.979	676.435
316.095	16.042	882.239	676.081
317.110	16.053	881.705	675.653
318.125	15.988	881.071	674.850
319.139	16.121	880.814	675.126
320.154	16.135	880.040	674.528
321.168	16.027	879.969	673.981
322.183	16.113	879.154	673.642
323.197	16.074	878.564	672.973
324.212	16.121	878.099	672.745
325.227	16.179	877.154	672.194
326.241	16.244	876.876	672.179
327.256	16.168	876.118	671.237
328.270	16.105	875.825	670.701
329.285	16.184	874.955	670.289
330.300	16.123	874.595	669.716
331.314	16.214	873.498	669.176
332.329	16.437	873.151	669.735
333.343	16.336	872.452	668.738
334.358	16.209	872.783	668.432
335.373	16.356	872.034	668.379
336.387	16.372	871.543	668.009
337.402	16.419	871.461	668.070
338.416	16.555	871.134	668.300
339.431	16.481	870.831	667.716
340.446	16.398	870.588	667.142
341.460	16.717	869.845	667.771
342.475	16.631	869.207	666.884
343.489	16.500	869.166	666.275
344.504	16.703	868.205	666.280
345.519	16.631	868.238	665.965
346.533	16.653	867.329	665.295
347.548	16.595	866.716	664.535
348.562	16.549	866.137	663.854
349.577	16.522	865.197	662.969
350.592	16.595	864.707	662.822
351.606	16.504	863.932	661.810
352.621	16.586	863.693	661.891
353.635	16.622	862.774	661.269
354.650	16.611	862.316	660.817
355.665	16.485	862.240	660.207
356.679	16.777	860.944	660.294
357.694	16.699	860.228	659.384
358.708	16.618	859.649	658.565
359.723	16.735	859.196	658.616
360.738	16.831	858.634	658.502
361.752	16.761	858.226	657.856
362.767	16.744	857.428	657.121
363.781	17.007	856.725	657.545
364.796	17.068	856.386	657.461
365.810	16.977	856.034	656.780
366.825	16.999	855.685	656.540
367.840	17.069	854.793	656.069
368.854	17.102	854.138	655.636
369.869	16.990	853.956	655.004
370.883	17.052	853.347	654.720
371.898	17.169	853.341	655.106
372.913	17.189	852.862	654.758
373.927	17.087	852.433	653.979
374.942	17.107	851.946	653.622
375.956	17.068	851.529	653.098
376.971	17.067	851.113	652.715
377.986	17.354	850.328	653.158
379.000	17.209	850.246	652.482
380.015	17.237	849.387	651.871
381.029	17.253	848.716	651.359
382.044	17.227	847.850	650.537
383.059	17.310	847.512	650.539
384.073	17.421	847.084	650.578
385.088	17.112	846.608	648.975
386.102	17.311	845.624	648.920
387.117	17.264	845.143	648.316
388.132	17.206	844.415	647.478
389.146	17.226	844.043	647.210
390.161	17.310	843.894	647.360
391.175	17.317	843.273	646.853
392.190	17.112	842.823	645.670
393.205	17.240	842.297	645.699
394.219	17.266	841.973	645.489
395.234	17.190	841.496	644.778
396.248	17.157	841.169	644.346
397.263	17.341	840.164	644.217
398.278	17.379	839.829	644.045
399.292	17.258	839.681	643.419
400.307	17.358	839.124	643.312
401.321	17.390	838.416	642.833
402.336	17.314	838.029	642.194
403.350	17.365	837.732	642.102
404.365	17.369	837.178	641.634
405.380	17.378	836.770	641.300
406.394	17.752	836.097	642.138
407.409	17.708	835.832	641.711
408.423	17.621	835.604	641.150
409.438	17.639	835.157	640.817
410.453	17.764	834.809	640.964
411.467	17.652	834.211	640.027
412.482	17.829	833.640	640.196
413.496	17.874	832.995	639.812
414.511	17.978	832.978	640.134
415.526	17.791	832.646	639.121
416.540	17.704	832.149	638.359
417.555	17.680	831.465	637.688
418.569	17.676	831.258	637.458
419.584	17.650	830.864	637.003
420.599	17.745	830.594	637.093
421.613	144.108	1363.476	1752.988
422.628	125.581	1441.168	1753.106
