DTS Sentinel unit serial number:	SN413079Multiplexer serial number:	ORYXHardware model number:	OX4-SRSoftware version number:	ORYX F/W v4.00 Oryx Data Collector v3.7.2.0data status	okinstallation	princeton_trtdifferential loss correction	single-endedforward channel	channel 1reverse channel	N/Adate	2019/09/12time	19:19:34forward acquisition time	15.00reverse acquisition time	0.00gamma	496.2192k internal	0.2321k external	0.2321temperature offset calibration	1.0122default loss term (dB/km)	0.3790temperature slope calibration	1.0000multiplexer offset coefficient	1.0000multiplexer slope coefficient	1.0000fibre end	0.00T internal ref (°C)	32.44T ext. ref 1 (°C)	3.23T ext. ref 2 (°C)	27.08length (m)	temperature (°C)	Stokes	anti-Stokes-747.200	-107.967	0.302	-0.066
-746.185	-200.000	-0.023	-0.508
-745.171	-60.557	0.316	0.136
-744.156	-200.000	0.003	-0.509
-743.142	-43.461	0.323	-0.165
-742.127	-200.000	0.179	-1.110
-741.112	300.129	0.071	-0.133
-740.098	-17.089	0.203	-0.130
-739.083	-135.411	0.530	0.064
-738.069	13.651	0.592	-0.465
-737.054	151.405	-0.394	-0.542
-736.039	496.512	-0.198	-0.460
-735.025	434.419	-0.058	-0.128
-734.010	-200.000	-0.076	-0.600
-732.996	-168.627	-0.099	-0.004
-731.981	-139.570	0.338	0.036
-730.966	170.465	-0.232	-0.335
-729.952	800.000	0.158	0.606
-728.937	512.102	-0.403	0.947
-727.923	-122.668	-0.988	0.162
-726.908	800.000	-0.226	0.991
-725.894	79.831	0.271	-0.294
-724.879	8.321	0.531	0.403
-723.864	-93.083	0.724	0.204
-722.850	-129.789	1.169	0.162
-721.835	-200.000	-0.002	-0.350
-720.821	-132.013	0.385	0.051
-719.806	-200.000	-0.007	-0.396
-718.791	221.631	-0.535	0.869
-717.777	16.963	0.589	0.471
-716.762	-200.000	0.002	-0.321
-715.748	32.104	0.131	-0.114
-714.733	-200.000	-0.028	-0.237
-713.718	293.814	0.250	0.460
-712.704	78.199	0.370	-0.399
-711.689	102.875	0.376	-0.445
-710.675	3.158	-0.664	-0.487
-709.660	-64.253	0.249	-0.102
-708.645	234.420	0.122	0.203
-707.631	-200.000	-0.037	0.434
-706.616	286.479	0.538	0.981
-705.602	800.000	0.087	0.324
-704.587	59.105	-0.341	-0.338
-703.572	-81.535	0.395	0.131
-702.558	-130.771	0.401	-0.054
-701.543	-93.530	-0.310	0.087
-700.529	-152.563	0.336	-0.024
-699.514	248.128	-0.706	1.205
-698.499	-18.244	-0.345	-0.218
-697.485	269.769	0.136	0.242
-696.470	-200.000	-0.034	-0.404
-695.456	800.000	0.422	1.309
-694.441	800.000	-0.030	0.093
-693.426	-37.682	-0.892	0.479
-692.412	-138.679	0.648	-0.072
-691.397	-78.061	-0.538	-0.187
-690.383	-134.605	0.485	0.060
-689.368	549.771	-0.159	0.385
-688.354	129.419	-0.205	0.264
-687.339	634.055	-0.193	0.493
-686.324	-87.795	-0.757	-0.230
-685.310	-127.442	0.659	0.097
-684.295	-27.826	-0.807	0.472
-683.281	71.941	-0.428	0.448
-682.266	168.246	-0.296	0.425
-681.251	-85.303	0.405	0.128
-680.237	288.481	0.189	0.345
-679.222	253.071	0.421	0.724
-678.208	-200.000	0.102	-0.564
-677.193	-155.545	0.374	-0.024
-676.178	59.229	0.391	-0.388
-675.164	78.636	-0.440	0.474
-674.149	94.463	0.492	0.564
-673.135	228.563	-0.390	-0.641
-672.120	-6.167	-0.904	-0.623
-671.105	101.442	0.091	-0.107
-670.091	-200.000	0.075	-0.474
-669.076	-50.171	0.198	0.094
-668.062	100.324	0.500	-0.585
-667.047	-17.721	-0.162	0.103
-666.032	-22.444	-0.233	0.142
-665.018	-66.339	-0.581	-0.233
-664.003	183.037	0.439	0.653
-662.989	-29.949	-0.247	-0.142
-661.974	211.570	0.711	1.127
-660.959	445.595	-0.202	0.446
-659.945	144.542	0.633	-0.852
-658.930	-83.118	-0.317	0.103
-657.916	46.587	0.171	-0.160
-656.901	-94.196	0.275	-0.076
-655.886	-143.730	0.496	0.047
-654.872	584.372	-0.129	0.319
-653.857	170.233	-0.300	-0.432
-652.843	-154.279	0.255	0.017
-651.828	-200.000	-0.065	-0.517
-650.814	77.173	-0.259	-0.277
-649.799	-178.262	0.215	0.005
-648.784	99.124	0.316	0.368
-647.770	800.000	0.098	0.326
-646.755	144.711	-0.273	0.368
-645.741	-170.734	-0.318	-0.011
-644.726	-96.159	0.683	-0.183
-643.711	-200.000	-0.045	0.434
-642.697	320.254	0.192	0.368
-641.682	-200.000	-0.059	0.843
-640.668	800.000	0.069	0.287
-639.653	-11.086	0.196	-0.130
-638.638	-82.944	-0.386	-0.125
-637.624	-1.169	-0.666	-0.474
-636.609	137.808	-0.299	0.394
-635.595	-150.756	-0.639	0.049
-634.580	-21.734	-0.739	0.453
-633.565	-50.899	0.658	-0.311
-632.551	530.928	-0.044	0.104
-631.536	800.000	0.241	0.864
-630.522	-125.282	-0.163	-0.025
-629.507	-27.261	0.508	-0.298
-628.492	-72.047	-0.336	-0.126
-627.478	800.000	0.263	-0.966
-626.463	55.390	-0.390	0.379
-625.449	261.454	0.248	0.433
-624.434	-69.585	-0.347	-0.134
-623.419	800.000	-0.199	-0.784
-622.405	-48.665	0.469	-0.227
-621.390	-101.313	-0.428	-0.105
-620.376	-200.000	0.068	-0.958
-619.361	-156.894	0.558	0.034
-618.346	572.727	-0.376	-0.922
-617.332	27.578	0.455	-0.385
-616.317	-200.000	-0.185	1.126
-615.303	-200.000	0.008	0.094
-614.288	-110.616	-0.694	0.144
-613.273	800.000	0.290	-0.901
-612.259	262.427	0.168	0.292
-611.244	-67.563	-0.485	-0.191
-610.230	800.000	0.213	-0.615
-609.215	800.000	0.249	0.749
-608.201	800.000	-0.146	0.445
-607.186	48.700	0.107	-0.101
-606.171	27.897	0.390	0.331
-605.157	-54.946	-0.639	0.290
-604.142	-7.145	0.491	-0.335
-603.128	-32.767	-0.909	-0.508
-602.113	800.000	0.139	0.535
-601.098	-75.601	-0.443	-0.158
-600.084	800.000	0.228	0.700
-599.069	-81.238	-0.592	-0.196
-598.055	-29.559	-0.420	-0.241
-597.040	-23.962	-0.327	0.196
-596.025	25.139	0.262	0.219
-595.011	288.748	0.526	-0.958
-593.996	-130.386	-0.431	0.059
-592.982	-48.301	0.293	-0.142
-591.967	800.000	-0.137	-0.475
-590.952	-106.163	1.397	0.315
-589.938	-200.000	0.018	-0.302
-588.923	235.873	0.303	0.504
-587.909	-82.509	-0.683	0.223
-586.894	23.004	0.109	-0.090
-585.879	-41.914	-0.113	0.058
-584.865	800.000	-0.054	-0.232
-583.850	-85.429	0.616	-0.193
-582.836	488.877	-0.086	0.196
-581.821	800.000	0.091	-0.299
-580.806	10.769	-0.208	-0.160
-579.792	-200.000	0.002	0.163
-578.777	800.000	-0.043	-0.150
-577.763	-89.440	0.252	-0.074
-576.748	-200.000	0.014	-0.439
-575.733	224.142	0.358	0.580
-574.719	-94.931	-0.689	-0.187
-573.704	-83.865	0.205	0.066
-572.690	-104.199	-0.717	-0.167
-571.675	-66.707	0.793	-0.315
-570.661	160.363	0.228	-0.319
-569.646	-200.000	0.033	0.439
-568.631	-200.000	0.082	-0.426
-567.617	-124.782	0.758	0.118
-566.602	-58.751	-0.536	0.233
-565.588	-58.321	-0.520	-0.227
-564.573	-151.252	-0.425	0.032
-563.558	-73.401	-0.441	-0.162
-562.544	800.000	0.183	-0.623
-561.529	-82.440	0.526	-0.171
-560.515	75.370	-0.212	-0.224
-559.500	-126.776	0.902	-0.134
-558.485	6.405	-0.503	-0.375
-557.471	-200.000	-0.012	-0.625
-556.456	382.264	0.294	0.606
-555.442	-122.486	0.821	-0.134
-554.427	-21.308	0.382	-0.234
-553.412	666.315	-0.271	-0.702
-552.398	-124.987	-0.531	-0.082
-551.383	42.333	-0.745	0.680
-550.369	726.218	-0.076	-0.202
-549.354	23.084	0.625	-0.515
-548.339	-200.000	0.168	-0.805
-547.325	128.678	0.066	0.085
-546.310	-87.678	-0.297	0.090
-545.296	765.343	0.259	-0.705
-544.281	-19.882	-0.183	0.114
-543.266	-100.337	-0.699	0.174
-542.252	-200.000	0.051	0.377
-541.237	-180.722	-0.993	0.020
-540.223	800.000	-0.067	-0.252
-539.208	74.476	0.346	-0.364
-538.193	-163.281	0.562	0.027
-537.179	-85.403	-0.166	0.052
-536.164	-14.731	0.132	0.085
-535.150	96.651	-0.178	0.205
-534.135	-100.399	-0.243	0.060
-533.121	-200.000	0.025	0.249
-532.106	124.282	0.475	-0.598
-531.091	-87.949	-0.562	-0.169
-530.077	236.951	0.548	0.910
-529.062	85.900	-0.283	0.312
-528.048	354.720	-0.470	0.936
-527.033	800.000	-0.108	-0.391
-526.018	118.725	-0.344	0.426
-525.004	800.000	0.112	0.455
-523.989	376.749	-0.273	-0.559
-522.975	800.000	-0.128	-0.402
-521.960	451.985	0.156	0.345
-520.945	-113.561	0.198	-0.039
-519.931	-41.006	0.607	-0.315
-518.916	-200.000	-0.028	-0.347
-517.902	-200.000	-0.030	0.512
-516.887	-200.000	0.011	-0.306
-515.872	-122.995	-0.354	-0.057
-514.858	800.000	-0.018	-0.078
-513.843	-83.142	0.132	0.042
-512.829	617.271	0.112	-0.282
-511.814	299.472	0.048	-0.088
-510.799	324.310	-0.142	0.271
-509.785	713.808	-0.181	0.480
-508.770	800.000	0.114	0.318
-507.756	144.004	-0.310	0.414
-506.741	800.000	0.236	-0.736
-505.726	-200.000	0.088	0.633
-504.712	800.000	-0.050	0.201
-503.697	205.683	0.503	0.782
-502.683	-86.380	-0.258	0.079
-501.668	-105.672	0.187	0.042
-500.653	8.077	-0.191	0.143
-499.639	-200.000	0.003	0.284
-498.624	-13.207	-0.256	-0.166
-497.610	332.359	-0.330	-0.638
-496.595	41.238	-0.495	0.447
-495.581	25.612	-0.148	-0.123
-494.566	-80.556	-1.286	-0.429
-493.551	-13.459	0.233	0.151
-492.537	-52.127	-0.223	-0.103
-491.522	545.110	0.164	0.391
-490.508	800.000	0.145	0.569
-489.493	-37.525	-0.373	-0.199
-488.478	534.525	-0.361	-0.857
-487.464	491.311	0.305	-0.698
-486.449	-200.000	0.092	-0.474
-485.435	-49.842	-0.152	-0.072
-484.420	264.222	0.252	-0.439
-483.405	-115.373	0.268	-0.051
-482.391	85.683	0.207	-0.228
-481.376	-17.999	0.138	-0.087
-480.362	-197.841	-0.623	0.004
-479.347	28.043	-0.290	0.245
-478.332	140.939	-0.529	-0.700
-477.318	28.151	-0.289	0.244
-476.303	65.786	0.463	-0.469
-475.289	354.681	0.079	0.156
-474.274	0.934	0.494	-0.354
-473.259	-15.432	-0.503	0.321
-472.245	310.414	0.400	0.750
-471.230	-83.698	0.680	0.217
-470.216	-54.749	-0.181	-0.082
-469.201	36.916	0.221	0.195
-468.186	-200.000	-0.045	-0.805
-467.172	-0.380	0.424	-0.301
-466.157	-105.417	0.539	-0.122
-465.143	325.138	-0.512	0.979
-464.128	-128.389	-0.601	-0.085
-463.113	-0.344	0.040	-0.028
-462.099	324.994	-0.142	-0.271
-461.084	590.814	0.311	-0.767
-460.070	-59.270	-0.527	-0.227
-459.055	800.000	-0.048	0.184
-458.040	505.870	-0.111	0.256
-457.026	-39.110	-0.416	0.219
-456.011	136.009	-0.352	-0.459
-454.997	-146.623	0.432	0.037
-453.982	-200.000	0.025	0.224
-452.968	-10.522	0.408	-0.270
-451.953	-25.161	0.646	0.382
-450.938	-111.175	-0.396	0.081
-449.924	259.062	-0.215	-0.370
-448.909	248.811	-0.248	-0.419
-447.895	-200.000	-0.052	0.550
-446.880	-200.000	0.166	0.870
-445.865	800.000	0.175	0.504
-444.851	634.373	-0.256	-0.649
-443.836	-200.000	0.020	-0.466
-442.822	-54.279	0.630	0.286
-441.807	310.781	0.183	-0.343
-440.792	-56.892	0.148	-0.065
-439.778	-23.172	-0.225	0.135
-438.763	-24.598	0.394	0.234
-437.749	800.000	0.116	-0.331
-436.734	562.812	0.514	-1.242
-435.719	-200.000	-0.169	-0.862
-434.705	-200.000	0.009	0.189
-433.690	-82.067	-0.909	0.296
-432.676	138.686	0.636	0.834
-431.661	800.000	-0.137	0.434
-430.646	-200.000	0.060	-0.675
-429.632	16.880	0.789	-0.624
-428.617	800.000	-0.009	0.035
-427.603	417.428	0.364	0.777
-426.588	-153.654	-0.514	0.035
-425.573	171.881	-0.364	0.522
-424.559	124.900	-0.261	0.328
-423.544	56.999	0.159	0.154
-422.530	-162.477	1.321	-0.065
-421.515	-200.000	0.017	-0.617
-420.500	111.282	-0.475	0.572
-419.486	800.000	-0.076	-0.299
-418.471	62.773	-0.375	-0.374
-417.457	-6.958	-0.557	0.378
-416.442	-10.290	1.016	0.673
-415.428	514.045	0.140	0.326
-414.413	-200.000	-0.117	0.656
-413.398	-200.000	-0.006	-0.274
-412.384	-19.410	0.648	0.401
-411.369	140.992	0.312	0.411
-410.355	-155.246	-0.313	0.020
-409.340	40.564	0.272	0.244
-408.325	531.672	-0.274	0.648
-407.311	800.000	0.095	-0.281
-406.296	98.564	0.616	0.709
-405.282	-47.682	-0.847	-0.410
-404.267	144.336	0.039	0.052
-403.252	800.000	0.126	0.540
-402.238	-163.019	0.843	0.041
-401.223	55.537	0.316	0.305
-400.209	87.507	0.500	-0.552
-399.194	50.328	-0.079	0.074
-398.179	5.804	0.839	0.619
-397.165	800.000	0.161	0.543
-396.150	27.091	0.385	0.322
-395.136	-200.000	0.018	-0.119
-394.121	-51.053	-0.576	-0.269
-393.106	-121.188	0.183	0.031
-392.092	353.385	0.260	0.515
-391.077	-39.059	0.522	-0.274
-390.063	-74.606	-0.644	0.231
-389.048	-70.951	0.679	-0.255
-388.033	-200.000	-0.019	-0.475
-387.019	-149.373	-0.125	0.010
-386.004	159.354	-0.334	0.463
-384.990	199.187	0.433	0.662
-383.975	-200.000	0.009	0.454
-382.960	27.305	0.181	-0.152
-381.946	-139.883	-0.222	-0.023
-380.931	-115.513	0.129	0.024
-379.917	-73.616	-0.260	-0.094
-378.902	-157.623	-0.221	-0.013
-377.888	-200.000	0.016	-0.378
-376.873	126.850	0.133	0.168
-375.858	800.000	0.238	0.912
-374.844	-200.000	0.006	-0.216
-373.829	254.580	0.233	-0.397
-372.815	800.000	0.285	-1.151
-371.800	43.487	-0.171	0.156
-370.785	-200.000	-0.077	0.351
-369.771	-119.189	0.158	-0.028
-368.756	-128.242	0.191	-0.027
-367.742	-200.000	0.039	-0.470
-366.727	148.105	0.165	0.222
-365.712	-57.605	0.571	0.249
-364.698	800.000	-0.123	-0.378
-363.683	-200.000	-0.125	-0.760
-362.669	4.502	-0.563	-0.411
-361.654	-110.220	0.402	-0.083
-360.639	11.359	0.488	-0.372
-359.625	-200.000	-0.970	0.000
-358.610	652.389	-0.257	-0.656
-357.596	79.333	-0.075	0.080
-356.581	47.276	0.748	-0.693
-355.566	-200.000	-0.003	-0.100
-354.552	-200.000	0.082	-0.460
-353.537	-137.827	1.115	-0.124
-352.523	-6.958	-0.172	0.117
-351.508	-31.823	0.776	0.433
-350.493	-98.431	0.517	-0.132
-349.479	140.753	-0.558	-0.733
-348.464	800.000	-0.213	-0.921
-347.450	-185.099	-0.460	-0.007
-346.435	287.933	-0.248	0.447
-345.420	133.705	-0.153	-0.197
-344.406	-200.000	0.003	-0.344
-343.391	-15.753	0.422	0.268
-342.377	32.478	-0.595	-0.511
-341.362	-22.856	-0.364	0.219
-340.348	13.810	-0.369	-0.286
-339.333	377.203	0.283	0.575
-338.318	154.741	-0.467	0.639
-337.304	-49.027	-0.831	0.396
-336.289	-16.565	0.524	-0.330
-335.275	-61.625	-0.926	0.387
-334.260	6.162	-0.475	0.350
-333.245	-200.000	0.065	0.432
-332.231	385.071	-0.125	-0.257
-331.216	-79.180	0.497	-0.168
-330.202	239.669	-0.202	-0.335
-329.187	-132.650	-0.599	-0.076
-328.172	-200.000	0.012	-0.421
-327.158	146.218	-0.502	0.669
-326.143	-200.000	0.005	0.148
-325.129	-29.400	-0.531	-0.302
-324.114	-49.969	0.369	-0.174
-323.099	-61.338	0.370	0.155
-322.085	27.750	-0.474	-0.397
-321.070	-10.215	-1.142	0.754
-320.056	-74.037	-0.287	-0.103
-319.041	-45.879	0.647	0.317
-318.026	17.317	0.855	0.674
-317.012	-200.000	-0.069	-0.485
-315.997	146.727	-0.561	-0.749
-314.983	-80.110	-0.444	-0.148
-313.968	326.363	0.132	-0.251
-312.953	412.150	0.289	0.611
-311.939	-161.899	-0.245	0.012
-310.924	-118.492	-0.544	-0.096
-309.910	23.545	0.844	-0.690
-308.895	-67.136	-0.460	-0.180
-307.880	800.000	-0.115	-0.349
-306.866	-136.347	-0.110	-0.013
-305.851	104.986	-0.635	-0.744
-304.837	21.130	-0.324	-0.261
-303.822	-28.844	0.329	-0.188
-302.807	-104.176	1.206	0.278
-301.793	800.000	-0.135	0.582
-300.778	-200.000	-0.030	0.309
-299.764	98.057	-0.283	0.323
-298.749	1.060	-0.746	0.531
-297.735	-200.000	-0.036	0.416
-296.720	-121.666	-0.893	-0.147
-295.705	131.878	0.812	1.037
-294.691	-4.462	-0.237	0.163
-293.676	-200.000	-0.185	-1.097
-292.662	800.000	0.120	-0.483
-291.647	144.076	-0.216	0.286
-290.632	-62.408	-0.779	0.322
-289.618	-44.912	0.470	0.233
-288.603	69.024	0.898	-0.917
-287.589	17.467	0.800	0.631
-286.574	-32.443	-0.436	0.241
-285.559	31.190	-0.773	0.658
-284.545	-53.534	-0.554	0.252
-283.530	-20.555	0.825	-0.503
-282.516	-13.140	-0.835	0.539
-281.501	221.836	0.246	0.392
-280.486	-200.000	-0.078	0.346
-279.472	-129.533	0.563	0.077
-278.457	-75.579	-0.930	-0.328
-277.443	-56.803	0.353	-0.155
-276.428	-139.530	1.156	-0.123
-275.413	-200.000	0.001	0.411
-274.399	653.729	-0.231	-0.588
-273.384	-32.757	-0.500	-0.276
-272.370	-42.248	0.427	-0.216
-271.355	-74.718	0.602	0.215
-270.340	-2.606	-0.043	0.030
-269.326	-138.927	-0.388	0.042
-268.311	530.310	0.212	-0.497
-267.297	403.289	0.192	-0.400
-266.282	740.669	0.116	-0.308
-265.267	-200.000	-0.025	0.479
-264.253	-200.000	0.032	-0.365
-263.238	-71.658	0.403	-0.149
-262.224	106.704	0.221	0.261
-261.209	255.682	-0.213	0.363
-260.195	-69.738	-0.025	-0.009
-259.180	-200.000	-0.092	-0.594
-258.165	-162.785	0.340	-0.016
-257.151	-2.538	-0.258	0.179
-256.136	-108.878	-0.418	-0.088
-255.122	-79.589	-0.652	-0.218
-254.107	82.640	0.380	0.409
-253.092	-155.474	0.386	-0.025
-252.078	800.000	-0.075	0.213
-251.063	-200.000	-0.025	-0.351
-250.049	686.329	-0.161	-0.416
-249.034	800.000	-0.295	0.968
-248.019	-74.888	0.521	0.185
-247.005	800.000	-0.220	0.783
-245.990	-36.348	0.164	0.088
-244.976	800.000	0.040	0.109
-243.961	-146.837	-0.838	-0.072
-242.946	69.638	-0.356	-0.364
-241.932	91.859	-0.414	0.461
-240.917	-200.000	0.108	0.535
-239.903	10.604	-0.357	0.270
-238.888	326.744	-0.510	-0.969
-237.873	-200.000	-0.000	-0.523
-236.859	-200.000	-0.092	0.590
-235.844	106.308	0.295	0.347
-234.830	772.425	0.223	0.601
-233.815	-173.473	0.538	0.016
-232.800	-39.297	0.134	-0.069
-231.786	-200.000	-0.175	-1.137
-230.771	800.000	-0.233	0.879
-229.757	586.967	-0.184	-0.448
-228.742	26.331	-0.660	0.546
-227.727	77.855	0.335	-0.354
-226.713	-69.079	0.409	-0.156
-225.698	-10.175	-0.536	0.352
-224.684	800.000	-0.246	0.934
-223.669	800.000	0.068	-0.274
-222.655	-194.621	-0.310	0.002
-221.640	17.784	0.075	0.059
-220.625	389.175	0.292	-0.600
-219.611	11.171	0.322	0.244
-218.596	-111.579	-0.350	0.070
-217.582	-76.339	0.722	0.252
-216.567	99.530	-0.053	0.060
-215.552	-188.155	-0.522	-0.007
-214.538	-85.027	-0.189	-0.059
-213.523	158.925	-0.155	0.213
-212.509	-200.000	-0.048	-0.367
-211.494	173.691	-0.837	-1.196
-210.479	-74.549	0.402	-0.143
-209.465	413.888	0.069	0.145
-208.450	-111.439	1.007	-0.203
-207.436	797.676	-0.108	-0.294
-206.421	-200.000	0.095	0.521
-205.406	263.065	0.400	-0.688
-204.392	506.121	0.284	0.652
-203.377	-200.000	-0.100	0.619
-202.363	-0.381	0.605	0.425
-201.348	-129.401	-0.805	-0.111
-200.333	-200.000	-0.176	-0.914
-199.319	28.599	0.342	-0.286
-198.304	-200.000	0.036	0.586
-197.290	-4.550	0.271	-0.185
-196.275	503.704	-0.296	0.678
-195.260	0.183	-0.552	0.389
-194.246	-55.902	0.316	0.139
-193.231	121.057	-0.089	-0.110
-192.217	7.042	-0.391	0.288
-191.202	-79.312	0.117	-0.039
-190.187	186.188	-0.262	-0.386
-189.173	-117.951	0.244	0.043
-188.158	-153.248	0.577	-0.040
-187.144	-167.604	0.765	0.030
-186.129	-48.907	0.483	0.229
-185.114	169.580	0.090	0.127
-184.100	-200.000	0.012	0.591
-183.085	-56.558	-0.263	-0.115
-182.071	-200.000	-0.024	-0.449
-181.056	94.256	0.881	-0.988
-180.042	800.000	-0.246	0.781
-179.027	-200.000	0.033	-0.241
-178.012	85.127	0.485	-0.526
-176.998	-186.883	-0.205	-0.003
-175.983	357.970	-0.064	0.127
-174.969	-24.794	0.553	0.325
-173.954	-200.000	-0.053	-0.784
-172.939	-20.960	0.491	-0.297
-171.925	-200.000	0.040	0.879
-170.910	-0.496	0.155	0.109
-169.896	11.529	0.357	0.271
-168.881	443.974	-0.309	-0.669
-167.866	27.551	-0.548	0.456
-166.852	315.740	-0.296	0.552
-165.837	102.457	-0.376	-0.435
-164.823	-71.017	-0.353	-0.131
-163.808	354.166	-0.190	0.373
-162.793	-190.036	0.641	0.007
-161.779	-170.523	0.669	0.023
-160.764	-70.134	0.933	-0.351
-159.750	-200.000	-0.017	0.534
-158.735	-200.000	-0.238	-1.199
-157.720	-186.153	-0.742	-0.011
-156.706	85.341	-0.328	-0.356
-155.691	44.479	0.357	0.324
-154.677	58.142	0.179	0.173
-153.662	800.000	0.225	0.903
-152.647	-125.664	-0.311	0.046
-151.633	237.759	0.284	0.466
-150.618	-163.811	1.131	-0.052
-149.604	800.000	0.096	-0.315
-148.589	484.322	0.386	-0.867
-147.574	167.592	-0.378	0.531
-146.560	463.448	0.186	-0.409
-145.545	-37.598	-0.546	0.287
-144.531	800.000	-0.271	-1.039
-143.516	337.150	0.459	-0.881
-142.502	17.129	-0.492	0.385
-141.487	21.013	0.119	0.095
-140.472	108.357	0.574	-0.676
-139.458	-56.846	-0.549	-0.240
-138.443	102.892	0.507	0.586
-137.429	72.495	0.393	-0.404
-136.414	800.000	0.361	-1.098
-135.399	233.972	-0.410	-0.667
-134.385	-49.640	1.045	0.491
-133.370	-53.115	0.353	-0.160
-132.356	-200.000	0.046	-0.559
-131.341	190.104	-0.407	0.603
-130.326	800.000	-0.060	0.234
-129.312	-200.000	0.159	0.932
-128.297	290.552	-0.029	-0.053
-127.283	-50.187	-0.794	-0.371
-126.268	20.207	-0.515	0.410
-125.253	-100.127	-0.850	0.209
-124.239	453.984	0.150	-0.328
-123.224	-200.000	-0.062	0.783
-122.210	182.386	-0.547	-0.796
-121.195	800.000	-0.047	-0.183
-120.180	-200.000	0.096	-0.463
-119.166	143.981	-0.206	0.271
-118.151	-56.022	-0.248	-0.109
-117.137	-74.415	0.568	-0.202
-116.122	312.867	0.379	0.703
-115.107	-200.000	0.041	-0.553
-114.093	-61.400	-0.405	0.168
-113.078	7.355	-0.450	0.332
-112.064	-93.972	-0.015	0.004
-111.049	371.711	-0.245	-0.491
-110.034	154.589	-0.228	-0.309
-109.020	25.264	0.700	0.573
-108.005	800.000	0.275	0.852
-106.991	247.528	0.083	0.139
-105.976	556.372	-0.110	-0.260
-104.962	-200.000	-0.012	0.331
-103.947	82.358	-0.799	-0.855
-102.932	-98.909	0.446	0.112
-101.918	-141.453	0.459	0.046
-100.903	-200.000	-0.088	-0.607
-99.889	263.241	-0.277	-0.475
-98.874	68.594	-0.160	-0.161
-97.859	-200.000	0.063	0.370
-96.845	241.560	-0.469	-0.773
-95.830	-36.437	0.540	0.286
-94.816	800.000	-0.033	-0.097
-93.801	101.860	-0.259	0.298
-92.786	409.918	-0.251	0.525
-91.772	-102.514	-0.670	-0.158
-90.757	52.337	0.439	-0.412
-89.743	316.573	-0.443	0.825
-88.728	220.571	-0.216	-0.341
-87.713	-62.430	0.721	-0.295
-86.699	250.633	0.053	-0.088
-85.684	-169.945	0.331	0.012
-84.670	573.064	-0.345	-0.828
-83.655	0.971	-0.321	-0.227
-82.640	-62.271	0.211	-0.086
-81.626	-179.413	0.397	-0.009
-80.611	222.300	-0.229	-0.364
-79.597	-137.615	1.143	0.127
-78.582	-200.000	-0.021	-0.277
-77.567	-200.000	-0.018	-0.153
-76.553	800.000	-0.146	0.480
-75.538	-37.924	-0.378	-0.198
-74.524	-200.000	0.007	-0.052
-73.509	95.934	-0.149	-0.168
-72.494	70.494	-0.282	-0.287
-71.480	408.657	-0.089	-0.185
-70.465	-92.578	0.429	0.119
-69.451	-131.895	0.272	-0.035
-68.436	-200.000	0.036	0.847
-67.422	-173.261	0.602	-0.018
-66.407	-83.063	0.444	-0.141
-65.392	-56.879	0.499	0.217
-64.378	219.100	0.330	0.519
-63.363	-200.000	-0.099	-0.697
-62.349	-200.000	-0.017	0.147
-61.334	-50.525	-1.410	-0.654
-60.319	-71.347	1.133	0.418
-59.305	800.000	-0.118	-0.457
-58.290	-200.000	-0.183	1.266
-57.276	624.213	0.967	2.397
-56.261	-200.000	95.639	598.572
-55.246	678.215	1353.651	3463.764
-54.232	204.965	2515.586	3841.021
-53.217	120.368	2119.471	2588.924
-52.203	44.465	1590.766	1437.496
-51.188	36.071	1332.702	1154.245
-50.173	32.694	1291.195	1098.615
-49.159	55.952	1339.873	1278.483
-48.144	56.984	1357.458	1301.334
-47.130	36.046	1316.355	1139.760
-46.115	32.697	1298.230	1104.443
-45.100	32.308	1294.187	1098.683
-44.086	32.255	1290.883	1095.529
-43.071	32.489	1288.411	1094.749
-42.057	32.206	1286.796	1091.686
-41.042	32.293	1285.580	1091.117
-40.027	32.475	1282.653	1089.645
-39.013	32.272	1281.135	1087.137
-37.998	32.242	1279.974	1085.935
-36.984	32.469	1276.896	1084.591
-35.969	32.694	1274.678	1083.957
-34.954	32.564	1274.071	1082.649
-33.940	32.640	1273.259	1082.354
-32.925	32.542	1270.880	1079.726
-31.911	32.516	1269.257	1078.156
-30.896	32.539	1268.622	1077.705
-29.881	32.904	1266.774	1078.178
-28.867	32.675	1265.827	1076.023
-27.852	32.597	1265.078	1074.897
-26.838	32.833	1262.989	1074.427
-25.823	32.406	1262.822	1071.806
-24.809	32.570	1260.626	1070.834
-23.794	32.620	1258.715	1069.453
-22.779	32.661	1257.481	1068.591
-21.765	32.681	1256.591	1067.907
-20.750	32.566	1255.153	1065.992
-19.736	32.472	1253.766	1064.239
-18.721	32.592	1252.274	1063.612
-17.706	32.262	1251.766	1061.273
-16.692	31.993	1251.030	1059.091
-15.677	32.439	1250.112	1060.783
-14.663	32.366	1248.908	1059.307
-13.648	32.366	1247.531	1058.101
-12.633	32.303	1246.622	1056.932
-11.619	32.123	1246.169	1055.494
-10.604	32.546	1244.142	1056.109
-9.590	32.095	1244.906	1054.182
-8.575	32.411	1242.581	1053.945
-7.560	31.993	1242.168	1051.210
-6.546	32.121	1241.706	1051.495
-5.531	32.011	1241.664	1050.804
-4.517	32.261	1238.900	1049.820
-3.502	32.271	1238.842	1049.783
-2.487	32.371	1237.625	1049.267
-1.473	32.439	1233.524	1046.129
-0.458	30.637	1219.872	1024.594
0.556	28.454	1200.957	986.351
1.571	24.483	1205.179	968.238
2.586	23.229	1220.285	973.397
3.600	22.955	1208.187	962.170
4.615	17.207	1136.903	875.782
5.629	7.547	1062.436	771.604
6.644	3.558	1043.090	738.422
7.659	3.129	1039.727	733.932
8.673	3.047	1038.504	732.612
9.688	3.188	1038.100	732.934
10.702	3.628	1035.516	733.134
11.717	9.516	1043.618	766.921
12.731	19.640	1057.523	825.696
13.746	24.028	1063.348	851.211
14.761	24.415	1063.636	853.217
15.775	24.007	1062.575	850.342
16.790	23.913	1061.402	848.877
17.804	23.672	1060.416	846.865
18.819	23.774	1060.216	847.115
19.834	23.806	1059.555	846.665
20.848	23.753	1059.581	846.358
21.863	23.718	1058.236	845.042
22.877	23.603	1057.735	844.024
23.892	23.687	1056.790	843.590
24.907	23.256	1057.232	841.820
25.921	23.437	1055.103	840.911
26.936	23.537	1052.666	839.365
27.950	23.154	1052.754	837.551
28.965	23.251	1051.228	836.719
29.980	23.669	1049.209	837.008
30.994	23.471	1048.725	835.619
32.009	23.498	1048.492	835.484
33.023	23.574	1046.369	834.077
34.038	23.287	1047.109	833.244
35.053	23.081	1045.237	830.713
36.067	23.225	1044.398	830.647
37.082	23.367	1043.719	830.698
38.096	23.817	1042.466	831.737
39.111	23.662	1041.832	830.432
40.126	23.495	1041.031	828.939
41.140	22.914	1039.652	825.055
42.155	23.021	1037.872	824.066
43.169	23.065	1036.202	822.875
44.184	23.079	1036.338	822.974
45.199	23.088	1035.260	822.086
46.213	23.103	1034.749	821.679
47.228	23.316	1034.949	822.752
48.242	23.527	1033.829	822.768
49.257	23.513	1032.492	821.567
50.271	23.649	1031.917	821.664
51.286	23.644	1032.328	821.898
52.301	23.901	1029.637	820.870
53.315	23.198	1030.097	817.914
54.330	23.409	1028.637	817.657
55.344	23.355	1027.449	816.393
56.359	23.267	1026.369	815.058
57.374	23.352	1026.027	815.105
58.388	23.021	1025.541	813.126
59.403	22.895	1024.662	811.777
60.417	23.143	1023.855	812.204
61.432	23.294	1023.032	812.173
62.447	23.130	1021.781	810.355
63.461	22.876	1021.771	809.113
64.476	23.054	1020.062	808.502
65.490	22.791	1018.547	806.029
66.505	23.122	1017.303	806.480
67.520	23.059	1017.943	806.631
68.534	22.864	1016.265	804.340
69.549	22.551	1016.589	803.099
70.563	22.633	1014.808	801.996
71.578	22.377	1013.859	800.012
72.593	22.145	1012.775	798.032
73.607	22.343	1012.724	798.817
74.622	22.306	1012.329	798.267
75.636	22.670	1010.925	798.741
76.651	22.514	1010.315	797.483
77.666	22.625	1010.255	797.866
78.680	22.468	1009.764	796.696
79.695	22.473	1009.677	796.581
80.709	22.694	1008.903	796.898
81.724	22.423	1007.953	794.853
82.739	23.119	1006.646	796.887
83.753	23.561	1006.876	798.993
84.768	24.033	1006.385	800.656
85.782	24.032	1005.867	800.168
86.797	23.735	1004.877	797.977
87.812	23.988	1003.045	797.585
88.826	24.045	1002.101	797.016
89.841	23.920	1002.376	796.605
90.855	23.707	1001.034	794.518
91.870	24.080	999.909	795.222
92.884	23.710	999.102	792.858
93.899	23.828	997.309	791.892
94.914	23.916	996.803	791.810
95.928	23.765	996.547	790.866
96.943	23.272	995.058	787.420
97.957	23.467	994.907	788.097
98.972	23.593	994.187	788.017
99.987	23.547	993.319	787.056
101.001	23.327	992.860	785.647
102.016	23.648	991.302	785.768
103.030	23.733	990.667	785.570
104.045	23.474	990.773	784.438
105.060	23.899	988.651	784.564
106.074	23.610	987.336	782.176
107.089	23.357	987.499	781.121
108.103	23.110	985.736	778.573
109.118	22.785	984.531	776.123
110.133	23.049	982.716	775.780
111.147	22.793	982.132	774.128
112.162	22.855	980.772	773.261
113.176	22.914	980.470	773.212
114.191	22.774	981.043	772.984
115.206	22.781	979.921	772.062
116.220	22.777	979.481	771.630
117.235	22.875	977.628	770.529
118.249	22.691	976.418	768.704
119.264	22.433	975.777	767.008
120.279	22.376	974.999	766.078
121.293	22.707	973.969	766.644
122.308	22.430	972.832	764.476
123.322	22.267	972.950	763.793
124.337	22.270	971.170	762.343
125.352	22.182	970.445	761.323
126.366	22.343	970.296	761.838
127.381	22.447	970.110	762.075
128.395	22.825	968.849	762.647
129.410	23.294	967.192	763.297
130.424	23.387	966.249	762.886
131.439	22.972	966.365	761.124
132.454	23.275	965.713	761.848
133.468	23.113	964.741	760.319
134.483	23.168	963.858	759.788
135.497	23.322	963.559	760.146
136.512	23.143	963.521	759.284
137.527	23.085	961.514	757.385
138.541	23.447	960.305	757.914
139.556	23.251	960.894	757.475
140.570	23.534	959.836	757.781
141.585	23.514	959.775	757.582
142.600	23.610	958.231	756.704
143.614	23.931	958.125	757.922
144.629	24.099	956.552	757.325
145.643	24.176	955.006	756.361
146.658	23.497	954.288	752.846
147.673	23.508	952.731	751.598
148.687	23.303	951.790	749.920
149.702	22.899	951.115	747.609
150.716	22.790	950.567	746.654
151.731	23.217	950.369	748.235
152.746	23.379	949.684	748.315
153.760	23.566	948.783	748.330
154.775	23.510	948.697	747.959
155.789	23.796	946.899	747.677
156.804	23.500	946.858	746.332
157.819	23.544	945.853	745.661
158.833	23.744	944.724	745.546
159.848	23.829	944.048	745.302
160.862	24.005	942.645	744.867
161.877	23.871	940.773	742.762
162.892	23.277	940.756	740.198
163.906	23.214	939.010	738.498
164.921	23.305	938.723	738.584
165.935	23.181	939.017	738.233
166.950	23.431	937.849	738.291
167.964	23.657	936.052	737.749
168.979	23.411	935.315	736.085
169.994	23.614	933.975	735.806
171.008	23.909	933.439	736.541
172.023	23.900	933.750	736.681
173.037	24.108	932.744	736.686
174.052	23.571	932.119	733.904
175.067	23.518	930.785	732.571
176.081	23.520	929.638	731.613
177.096	22.814	929.813	728.770
178.110	22.934	928.565	728.223
179.125	22.620	928.181	726.565
180.140	23.322	926.779	728.292
181.154	23.743	926.761	729.939
182.169	23.738	926.877	729.948
183.183	23.616	927.560	729.917
184.198	23.653	926.424	729.113
185.213	23.697	926.655	729.409
186.227	23.873	924.863	728.658
187.242	23.956	923.436	727.809
188.256	23.807	923.686	727.329
189.271	23.874	923.394	727.309
190.286	23.369	922.240	724.275
191.300	23.144	920.613	722.015
192.315	22.451	919.643	718.361
193.329	22.653	919.804	719.249
194.344	23.218	919.311	721.102
195.359	23.409	918.393	721.095
196.373	23.894	918.328	722.953
197.388	23.627	918.390	721.851
198.402	23.891	918.498	722.946
199.417	24.337	917.313	723.761
200.432	24.779	916.297	724.686
201.446	24.519	916.002	723.337
202.461	24.051	916.057	721.417
203.475	23.902	914.986	719.908
204.490	23.456	913.436	716.824
205.504	23.495	913.426	716.910
206.519	23.940	912.175	717.657
207.534	23.808	911.578	716.596
208.548	23.706	910.955	715.628
209.563	23.892	909.759	715.376
210.577	23.580	909.841	714.119
211.592	24.156	909.261	715.917
212.607	24.345	908.570	716.070
213.621	24.038	908.278	714.544
214.636	24.091	906.993	713.684
215.650	23.596	907.367	711.929
216.665	24.059	906.443	712.994
217.680	24.246	905.235	712.728
218.694	23.692	905.031	710.289
219.709	23.746	903.980	709.618
220.723	23.394	903.865	708.061
221.738	23.493	902.542	707.357
222.753	23.643	901.982	707.453
223.767	23.797	901.240	707.422
224.782	23.678	901.525	707.106
225.796	24.121	899.665	707.347
226.811	23.869	899.747	706.349
227.826	23.322	898.698	703.289
228.840	23.341	898.509	703.154
229.855	23.449	897.814	702.979
230.869	23.250	896.907	701.418
231.884	23.679	895.979	702.325
232.899	23.442	896.074	701.402
233.913	23.369	895.403	700.525
234.928	23.307	893.548	698.769
235.942	23.033	893.129	697.297
236.957	22.936	893.166	696.883
237.972	23.022	893.121	697.126
238.986	22.826	891.743	695.215
240.001	23.320	890.978	696.499
241.015	23.381	889.731	695.705
242.030	23.484	889.899	696.178
243.045	23.481	890.853	696.849
244.059	23.311	889.584	695.131
245.074	23.164	889.961	694.786
246.088	23.608	888.139	695.039
247.103	23.982	888.401	696.647
248.117	24.462	887.459	697.726
249.132	24.894	887.284	699.213
250.147	24.915	887.563	699.452
251.161	24.854	887.846	699.376
252.176	25.038	886.244	698.768
253.190	25.337	884.096	698.176
254.205	25.007	884.926	697.486
255.220	25.017	884.408	697.056
256.234	24.769	884.196	695.863
257.249	24.369	883.255	693.506
258.263	24.598	881.548	692.991
259.278	24.563	882.090	693.221
260.293	24.766	880.525	692.716
261.307	24.900	880.732	693.334
262.322	24.760	879.703	691.925
263.336	24.671	878.974	690.947
264.351	24.312	879.149	689.635
265.366	24.254	878.097	688.522
266.380	24.606	877.726	689.528
267.395	24.936	876.357	689.663
268.409	24.821	875.155	688.216
269.424	24.409	876.322	687.485
270.439	24.550	873.924	686.085
271.453	24.548	873.675	685.821
272.468	24.485	873.399	685.302
273.482	24.737	873.081	685.956
274.497	24.558	872.486	684.746
275.512	24.578	872.151	684.496
276.526	24.557	870.843	683.330
277.541	24.575	870.959	683.429
278.555	24.936	870.961	684.750
279.570	25.334	869.971	685.433
280.585	24.964	869.022	683.213
281.599	24.836	867.449	681.429
282.614	24.438	866.522	679.125
283.628	24.382	866.462	678.803
284.643	24.270	866.159	678.081
285.657	24.613	864.939	678.367
286.672	24.085	865.337	676.614
287.687	24.444	864.699	677.419
288.701	24.807	864.480	678.562
289.716	24.498	864.331	677.216
290.730	24.639	863.337	676.912
291.745	24.249	863.149	675.228
292.760	24.469	862.974	675.865
293.774	25.074	861.729	677.114
294.789	25.105	861.437	676.943
295.803	24.664	860.149	674.207
296.818	24.555	859.493	673.224
297.833	24.211	859.132	671.584
298.847	24.432	858.395	671.781
299.862	24.634	857.748	671.975
300.876	24.879	857.488	672.633
301.891	25.270	856.400	673.188
302.906	25.036	856.428	672.273
303.920	25.097	855.924	672.044
304.935	25.264	855.952	672.632
305.949	25.141	855.602	671.838
306.964	25.111	853.669	670.150
307.979	24.677	853.103	668.022
308.993	24.910	853.615	669.235
310.008	25.655	852.029	670.711
311.022	24.738	851.873	667.108
312.037	24.735	851.729	666.927
313.052	24.330	851.279	665.007
314.066	24.003	850.458	663.087
315.081	24.066	849.417	662.453
316.095	24.547	847.953	663.036
317.110	24.582	848.033	663.172
318.125	24.346	846.590	661.108
319.139	24.031	845.927	659.367
320.154	23.987	846.359	659.481
321.168	24.488	845.721	660.781
322.183	24.274	845.258	659.568
323.197	24.231	846.171	660.064
324.212	24.050	845.468	658.789
325.227	24.459	843.273	658.528
326.241	24.486	842.685	658.111
327.256	24.039	842.926	656.593
328.270	24.223	842.619	656.974
329.285	24.382	841.436	656.578
330.300	24.076	840.479	654.648
331.314	23.965	840.776	654.414
332.329	24.670	839.993	656.334
333.343	24.886	840.424	657.408
334.358	24.687	839.908	656.216
335.373	24.711	838.852	655.421
336.387	24.972	839.110	656.519
337.402	25.184	839.233	657.335
338.416	25.217	838.899	657.136
339.431	25.443	838.435	657.543
340.446	25.698	837.861	657.967
341.460	25.502	838.153	657.419
342.475	25.188	838.212	656.259
343.489	25.700	837.461	657.485
344.504	25.442	837.758	656.718
345.519	25.857	836.121	656.890
346.533	25.103	836.658	654.500
347.548	25.415	835.107	654.367
348.562	24.799	834.816	651.837
349.577	25.408	832.392	652.100
350.592	24.890	832.972	650.612
351.606	25.135	832.149	650.802
352.621	25.071	831.333	649.874
353.635	25.286	829.873	649.454
354.650	24.842	829.855	647.776
355.665	24.770	828.669	646.531
356.679	25.026	828.911	647.587
357.694	25.296	827.039	647.043
358.708	24.743	827.360	645.241
359.723	25.027	826.925	645.869
360.738	25.215	825.701	645.533
361.752	24.933	826.077	644.754
362.767	25.349	825.500	645.742
363.781	25.744	824.838	646.586
364.796	25.733	824.698	646.380
365.810	25.810	824.010	646.060
366.825	25.898	824.218	646.482
367.840	25.678	823.138	644.790
368.854	25.261	822.338	642.612
369.869	25.365	821.595	642.348
370.883	25.513	821.749	642.942
371.898	25.842	821.070	643.526
372.913	25.671	821.729	643.376
373.927	25.118	820.463	640.353
374.942	25.270	819.834	640.348
375.956	25.362	819.884	640.658
376.971	25.320	819.569	640.204
377.986	26.030	818.399	641.760
379.000	25.568	819.051	640.571
380.015	25.770	817.797	640.253
381.029	25.664	816.860	639.087
382.044	25.612	817.790	639.570
383.059	25.948	815.802	639.153
384.073	25.921	815.616	638.852
385.088	25.453	814.935	636.606
386.102	24.993	814.159	634.314
387.117	25.097	813.068	633.776
388.132	24.999	812.044	632.575
389.146	25.274	811.772	633.279
390.161	25.840	811.901	635.321
391.175	25.754	812.194	635.188
392.190	25.692	811.127	634.081
393.205	25.063	810.150	631.047
394.219	24.421	809.733	628.407
395.234	24.637	808.734	628.335
396.248	25.025	808.929	629.797
397.263	25.198	808.190	629.772
398.278	24.905	807.625	628.247
399.292	24.824	806.141	626.754
400.307	24.608	806.232	626.014
401.321	24.661	806.249	626.158
402.336	25.071	806.133	627.446
403.350	25.675	805.084	628.685
404.365	26.056	805.360	630.176
405.380	25.992	804.972	629.595
406.394	25.997	805.165	629.705
407.409	26.042	805.099	629.756
408.423	26.274	804.452	630.001
409.438	26.486	804.709	630.889
410.453	26.006	804.132	628.708
411.467	25.939	802.891	627.448
412.482	26.150	802.382	627.729
413.496	26.397	801.653	627.960
414.511	26.218	802.260	627.758
415.526	26.019	801.159	626.150
416.540	26.092	800.483	625.818
417.555	25.844	800.499	624.915
418.569	25.969	800.371	625.195
419.584	26.056	800.100	625.229
420.599	25.833	799.136	623.649
421.613	161.421	1370.108	1794.433
422.628	140.124	1453.334	1794.499
