DTS Sentinel unit serial number:	SN413079Multiplexer serial number:	ORYXHardware model number:	OX4-SRSoftware version number:	ORYX F/W v4.00 Oryx Data Collector v3.7.2.0data status	okinstallation	princeton_trtdifferential loss correction	single-endedforward channel	channel 1reverse channel	N/Adate	2019/09/19time	08:38:35forward acquisition time	60.00reverse acquisition time	0.00gamma	496.2192k internal	0.2343k external	0.2343temperature offset calibration	1.0007default loss term (dB/km)	0.3790temperature slope calibration	1.0000multiplexer offset coefficient	1.0000multiplexer slope coefficient	1.0000fibre end	0.00T internal ref (°C)	20.87T ext. ref 1 (°C)	0.58T ext. ref 2 (°C)	16.40length (m)	temperature (°C)	Stokes	anti-Stokes-747.200	-155.130	0.442	0.029
-746.185	-200.000	-0.006	0.249
-745.171	18.005	-0.122	0.098
-744.156	800.000	-0.039	0.155
-743.142	800.000	0.037	-0.123
-742.127	183.353	-0.117	0.173
-741.112	283.760	0.117	0.210
-740.098	-11.439	-0.095	0.063
-739.083	-200.000	0.003	0.168
-738.069	-140.422	-0.329	-0.034
-737.054	-17.802	0.177	0.111
-736.039	-52.341	-0.198	-0.092
-735.025	126.323	-0.073	0.093
-734.010	645.639	-0.061	-0.155
-732.996	409.545	0.017	-0.036
-731.981	-155.528	-0.433	0.028
-730.966	160.835	0.134	0.187
-729.952	133.083	0.253	-0.327
-728.937	177.330	0.136	-0.199
-727.923	-200.000	-0.020	-0.103
-726.908	-98.536	0.458	0.117
-725.894	800.000	0.105	-0.295
-724.879	-87.723	0.180	-0.054
-723.864	-106.047	-0.166	-0.037
-722.850	-200.000	0.065	0.308
-721.835	-99.428	-0.387	0.097
-720.821	-19.980	-0.098	-0.061
-719.806	-125.430	0.281	-0.043
-718.791	-128.874	-0.121	-0.017
-717.777	-3.059	0.094	-0.066
-716.762	-200.000	0.018	0.313
-715.748	-45.163	-0.065	-0.032
-714.733	-128.707	0.260	-0.037
-713.718	6.044	0.112	-0.083
-712.704	-106.578	-0.325	-0.072
-711.689	138.098	-0.174	-0.228
-710.675	-0.416	0.413	-0.294
-709.660	775.100	-0.037	-0.101
-708.645	116.522	0.085	-0.104
-707.631	434.914	0.135	0.293
-706.616	-47.495	-0.284	0.138
-705.602	-67.915	0.365	-0.143
-704.587	432.630	-0.183	-0.396
-703.572	183.372	0.104	-0.153
-702.558	-6.160	0.302	0.206
-701.543	486.381	-0.160	-0.364
-700.529	800.000	0.038	0.120
-699.514	800.000	-0.073	-0.227
-698.499	69.404	-0.066	0.067
-697.485	350.027	-0.256	-0.505
-696.470	-200.000	-0.035	0.218
-695.456	26.874	0.159	0.133
-694.441	-3.996	0.605	0.419
-693.426	-200.000	0.036	0.215
-692.412	130.061	0.214	0.274
-691.397	480.320	0.049	0.112
-690.383	-200.000	0.083	0.369
-689.368	-149.777	-0.144	0.011
-688.354	800.000	0.032	0.121
-687.339	179.296	0.273	-0.400
-686.324	-170.076	0.297	-0.011
-685.310	-142.851	-0.156	-0.015
-684.295	-105.380	-0.119	-0.027
-683.281	94.266	-0.168	-0.191
-682.266	162.948	0.139	-0.195
-681.251	-152.688	-0.067	0.005
-680.237	118.575	-0.157	-0.193
-679.222	-200.000	0.012	-0.218
-678.208	89.131	-0.182	0.203
-677.193	-19.941	0.097	0.060
-676.178	261.400	-0.058	-0.100
-675.164	-200.000	-0.028	0.220
-674.149	-39.981	-0.133	-0.070
-673.135	69.535	-0.164	0.169
-672.120	95.223	-0.073	-0.083
-671.105	-159.896	0.010	-0.001
-670.091	0.818	0.089	0.064
-669.076	166.009	-0.111	0.157
-668.062	-84.497	-0.404	-0.127
-667.047	-39.601	0.101	0.053
-666.032	800.000	0.052	-0.223
-665.018	692.474	0.027	-0.071
-664.003	-35.365	0.111	0.060
-662.989	-200.000	0.008	-0.447
-661.974	147.338	-0.274	-0.369
-660.959	-200.000	0.029	-0.178
-659.945	77.012	-0.091	-0.096
-658.930	-112.602	0.431	0.086
-657.916	-125.134	-0.159	-0.024
-656.901	-135.806	0.175	-0.021
-655.886	23.033	0.158	0.129
-654.872	800.000	-0.070	-0.277
-653.857	275.574	-0.115	-0.204
-652.843	-43.136	-0.210	0.106
-651.828	-198.989	-0.303	0.002
-650.814	-114.398	0.128	-0.025
-649.799	218.411	-0.082	0.130
-648.784	-169.529	-0.172	0.006
-647.770	382.061	0.090	-0.185
-646.755	-75.135	-0.367	-0.131
-645.741	-62.656	0.295	-0.122
-644.726	-133.258	0.170	0.021
-643.711	-200.000	-0.005	0.173
-642.697	-200.000	-0.036	0.252
-641.682	-18.738	0.163	0.101
-640.668	-25.339	0.148	0.087
-639.653	-110.877	-0.137	-0.028
-638.638	-200.000	0.026	0.129
-637.624	31.073	0.308	0.263
-636.609	800.000	0.048	-0.153
-635.595	-63.423	-0.170	-0.070
-634.580	-167.444	-0.164	0.007
-633.565	-43.592	0.189	-0.095
-632.551	74.389	0.106	-0.111
-631.536	-200.000	-0.025	-0.207
-630.522	271.126	0.113	-0.199
-629.507	-26.435	0.204	0.119
-628.492	-200.000	-0.011	0.261
-627.478	303.456	0.060	-0.111
-626.463	-81.001	0.189	-0.062
-625.449	-0.611	0.260	-0.184
-624.434	129.552	0.244	-0.311
-623.419	0.000	-0.121	0.086
-622.405	175.824	0.131	0.190
-621.390	-200.000	0.013	-0.314
-620.376	8.963	0.150	-0.113
-619.361	207.103	-0.097	-0.150
-618.346	-97.348	-0.054	0.014
-617.332	83.815	0.040	-0.043
-616.317	-200.000	-0.033	-0.196
-615.303	11.383	-0.191	0.146
-614.288	-200.000	0.034	-0.239
-613.273	800.000	-0.060	0.191
-612.259	-120.206	-0.146	-0.025
-611.244	619.683	0.026	-0.064
-610.230	-45.227	-0.148	-0.073
-609.215	-200.000	0.017	0.145
-608.201	24.100	-0.143	-0.117
-607.186	58.478	-0.133	-0.130
-606.171	28.915	0.237	-0.200
-605.157	-141.012	-0.684	-0.070
-604.142	-59.065	-0.158	-0.068
-603.128	-116.696	0.418	0.077
-602.113	49.148	-0.206	-0.193
-601.098	800.000	-0.119	0.349
-600.084	-27.759	-0.224	-0.129
-599.069	-200.000	0.071	-0.380
-598.055	101.092	-0.286	0.332
-597.040	-22.367	0.057	0.034
-596.025	-9.898	0.182	-0.121
-595.011	-200.000	0.013	0.133
-593.996	182.963	-0.038	-0.056
-592.982	423.575	-0.042	0.089
-591.967	-200.000	-0.031	-0.380
-590.952	800.000	-0.065	-0.214
-589.938	-65.551	0.097	-0.039
-588.923	356.334	0.092	0.182
-587.909	-200.000	0.091	0.407
-586.894	17.117	-0.194	0.153
-585.879	-200.000	-0.011	-0.123
-584.865	12.581	-0.213	-0.163
-583.850	-200.000	0.022	0.416
-582.836	-90.410	-0.075	-0.022
-581.821	-200.000	0.023	0.408
-580.806	800.000	-0.057	0.226
-579.792	111.550	-0.156	0.187
-578.777	117.843	-0.152	0.186
-577.763	15.042	0.094	-0.073
-576.748	78.250	-0.336	-0.356
-575.733	-14.633	-0.050	-0.032
-574.719	332.070	0.081	0.156
-573.704	800.000	-0.073	0.310
-572.690	-44.452	0.107	0.053
-571.675	-106.711	0.361	0.080
-570.661	23.065	0.480	0.391
-569.646	-84.047	-0.271	0.086
-568.631	-34.105	-0.363	0.199
-567.617	-85.539	-0.197	0.061
-566.602	-89.940	-0.332	-0.096
-565.588	-200.000	-0.002	-0.135
-564.573	27.834	-0.224	0.187
-563.558	-36.571	-0.061	-0.032
-562.544	20.929	0.159	0.128
-561.529	121.915	0.055	-0.068
-560.515	-48.920	-0.136	0.065
-559.500	-157.368	-0.180	-0.011
-558.485	421.728	-0.130	-0.278
-557.471	-200.000	-0.026	-0.271
-556.456	-34.709	0.513	0.279
-555.442	-200.000	-0.047	0.231
-554.427	313.321	0.077	0.143
-553.412	95.223	0.337	0.381
-552.398	185.387	-0.157	0.232
-551.383	-116.749	0.117	0.021
-550.369	80.788	0.215	0.231
-549.354	-118.856	-0.408	0.071
-548.339	-116.014	0.193	0.036
-547.325	-171.642	0.327	0.011
-546.310	800.000	0.078	-0.272
-545.296	-20.731	0.298	0.182
-544.281	800.000	0.029	0.089
-543.266	248.375	-0.184	0.309
-542.252	-25.474	-0.391	0.229
-541.237	-200.000	-0.034	-0.173
-540.223	-53.935	-0.010	0.004
-539.208	-94.500	0.314	-0.085
-538.193	-115.456	0.145	0.027
-537.179	-200.000	0.045	-0.249
-536.164	800.000	-0.086	-0.319
-535.150	-26.946	0.244	-0.141
-534.135	236.289	0.195	-0.321
-533.121	-200.000	-0.071	0.311
-532.106	92.342	0.072	-0.080
-531.091	-115.511	0.196	-0.037
-530.077	-178.202	0.076	-0.002
-529.062	800.000	0.068	0.264
-528.048	-200.000	0.048	0.276
-527.033	64.377	0.159	-0.159
-526.018	-200.000	-0.043	0.377
-525.004	-79.618	0.123	0.041
-523.989	-67.535	0.127	0.049
-522.975	-41.535	-0.010	-0.005
-521.960	512.105	0.127	0.293
-520.945	-149.267	-0.150	-0.012
-519.931	-121.510	-0.219	-0.036
-518.916	-54.639	-0.153	-0.069
-517.902	137.981	0.137	0.178
-516.887	6.349	-0.314	0.231
-515.872	-70.502	0.163	-0.061
-514.858	-17.309	-0.358	0.224
-513.843	767.383	-0.071	-0.191
-512.829	361.621	0.132	0.263
-511.814	-65.042	-0.383	-0.153
-510.799	-63.665	-0.103	-0.042
-509.785	800.000	0.032	0.122
-508.770	63.102	0.189	-0.188
-507.756	-54.548	-0.021	0.009
-506.741	-149.130	0.084	0.007
-505.726	-148.009	0.600	0.049
-504.712	-200.000	0.017	0.114
-503.697	156.634	0.106	0.146
-502.683	303.133	-0.065	0.119
-501.668	-0.776	-0.193	0.135
-500.653	-60.751	0.163	0.069
-499.639	800.000	0.045	-0.188
-498.624	142.687	-0.264	-0.348
-497.610	-200.000	-0.061	-0.279
-496.595	18.462	-0.366	-0.290
-495.581	800.000	-0.055	0.183
-494.566	-26.826	0.369	0.214
-493.551	262.874	0.120	-0.206
-492.537	128.382	-0.250	-0.316
-491.522	78.225	-0.152	-0.161
-490.508	-200.000	-0.029	-0.173
-489.493	-200.000	0.021	0.102
-488.478	-2.893	-0.093	0.064
-487.464	-200.000	0.028	-0.221
-486.449	-109.754	0.392	0.082
-485.435	-200.000	0.003	-0.092
-484.420	108.108	-0.290	0.342
-483.405	82.580	0.147	-0.158
-482.391	716.411	-0.070	-0.185
-481.376	6.842	-0.256	-0.189
-480.362	163.686	-0.061	-0.085
-479.347	-200.000	-0.005	-0.383
-478.332	197.169	-0.163	-0.247
-477.318	486.226	0.209	0.472
-476.303	-97.977	-0.190	-0.049
-475.289	-200.000	0.013	0.240
-474.274	-35.349	-0.202	0.109
-473.259	793.202	0.031	-0.084
-472.245	-73.686	-0.180	0.065
-471.230	-45.586	0.067	-0.033
-470.216	-72.233	0.092	0.034
-469.201	-127.836	0.284	0.041
-468.186	-174.503	-0.130	-0.004
-467.172	800.000	-0.048	0.196
-466.157	51.593	-0.215	0.203
-465.143	-4.423	0.132	-0.090
-464.128	-37.530	0.297	-0.157
-463.113	-109.697	-0.127	0.026
-462.099	800.000	-0.148	0.475
-461.084	-32.573	0.078	-0.043
-460.070	263.472	-0.096	-0.165
-459.055	-200.000	-0.073	-0.326
-458.040	800.000	-0.081	-0.226
-457.026	116.167	0.259	-0.314
-456.011	271.631	0.107	-0.187
-454.997	-22.368	0.343	0.206
-453.982	29.750	-0.314	-0.265
-452.968	14.096	-0.101	-0.078
-451.953	346.511	0.032	0.063
-450.938	-15.303	0.116	-0.074
-449.924	800.000	0.050	-0.185
-448.909	287.634	-0.054	-0.096
-447.895	361.506	0.102	-0.202
-446.880	-200.000	0.012	0.102
-445.865	-200.000	-0.005	0.090
-444.851	67.438	0.185	-0.187
-443.836	-19.765	0.105	-0.064
-442.822	-58.175	-0.189	-0.082
-441.807	90.060	0.113	0.125
-440.792	88.636	0.111	-0.122
-439.778	110.340	0.117	-0.139
-438.763	-200.000	-0.028	0.233
-437.749	-24.309	-0.130	-0.077
-436.734	-200.000	0.015	-0.100
-435.719	473.303	0.029	0.064
-434.705	-200.000	0.018	-0.221
-433.690	-78.113	0.112	0.038
-432.676	-200.000	-0.007	0.163
-431.661	-86.957	0.048	-0.014
-430.646	-136.378	0.107	0.012
-429.632	-200.000	0.106	0.471
-428.617	212.728	0.095	-0.148
-427.603	244.079	0.097	-0.160
-426.588	152.729	0.185	-0.250
-425.573	10.520	-0.172	0.129
-424.559	-200.000	0.005	0.274
-423.544	176.018	0.086	-0.123
-422.530	134.241	-0.188	-0.240
-421.515	751.962	0.076	-0.204
-420.500	-151.995	-0.136	0.010
-419.486	-148.848	-0.221	0.018
-418.471	34.318	0.212	0.183
-417.457	-200.000	-0.043	-0.348
-416.442	-58.969	0.158	-0.068
-415.428	800.000	-0.029	-0.091
-414.413	149.892	0.294	-0.394
-413.398	219.830	-0.039	0.061
-412.384	-28.337	-0.347	0.198
-411.369	204.628	-0.192	0.294
-410.355	-44.311	0.052	0.026
-409.340	-200.000	0.034	0.212
-408.325	-8.804	-0.281	0.186
-407.311	-115.292	0.181	0.034
-406.296	-200.000	0.042	-0.249
-405.282	-112.410	-0.221	-0.044
-404.267	-200.000	0.088	0.381
-403.252	9.176	0.060	0.045
-402.238	-27.778	0.275	-0.157
-401.223	-200.000	0.003	0.172
-400.209	-167.252	0.075	0.003
-399.194	-183.328	-0.346	0.006
-398.179	-118.821	0.288	-0.050
-397.165	-140.153	0.031	-0.003
-396.150	800.000	0.059	-0.176
-395.136	-200.000	-0.026	0.354
-394.121	71.354	-0.015	-0.015
-393.106	800.000	-0.070	-0.202
-392.092	-200.000	-0.029	0.132
-391.077	-19.668	-0.038	0.023
-390.063	27.999	-0.155	0.129
-389.048	-163.013	-0.311	0.015
-388.033	82.542	0.125	-0.134
-387.019	-131.758	-0.240	0.031
-386.004	125.738	0.120	0.149
-384.990	-30.583	-0.141	-0.079
-383.975	-33.651	-0.158	-0.086
-382.960	377.565	0.072	0.145
-381.946	192.813	0.194	0.289
-380.931	800.000	0.066	-0.261
-379.917	181.895	0.154	-0.224
-378.902	-28.314	-0.271	0.154
-377.888	-119.954	-0.323	0.055
-376.873	74.182	0.240	0.248
-375.858	-200.000	-0.071	-0.377
-374.844	-200.000	-0.022	0.352
-373.829	-17.992	-0.256	-0.158
-372.815	364.128	-0.043	-0.085
-371.800	-2.204	0.232	0.161
-370.785	-14.948	-0.189	-0.120
-369.771	-200.000	0.087	-0.396
-368.756	-115.549	0.440	0.082
-367.742	135.857	0.124	-0.159
-366.727	-90.393	0.252	-0.072
-365.712	249.592	0.117	0.196
-364.698	-72.089	0.481	-0.176
-363.683	-149.669	-0.187	-0.015
-362.669	-89.929	0.134	-0.039
-361.654	800.000	-0.081	-0.256
-360.639	40.193	0.130	-0.115
-359.625	-200.000	0.016	-0.190
-358.610	425.607	0.060	0.128
-357.596	212.032	-0.125	0.195
-356.581	-127.418	-0.260	0.037
-355.566	144.586	-0.179	0.236
-354.552	213.935	0.119	-0.186
-353.537	-44.121	0.142	-0.070
-352.523	-137.586	0.096	-0.011
-351.508	365.935	0.140	0.278
-350.493	-3.494	-0.210	0.144
-349.479	-200.000	0.014	0.325
-348.464	133.454	0.164	0.208
-347.450	200.984	-0.253	-0.384
-346.435	470.771	0.072	-0.160
-345.420	-96.318	0.345	-0.090
-344.406	459.487	-0.086	0.188
-343.391	263.804	-0.085	-0.145
-342.377	-200.000	-0.005	0.209
-341.362	-77.965	-0.329	0.112
-340.348	-200.000	-0.007	-0.132
-339.333	93.311	-0.086	-0.096
-338.318	214.469	0.108	-0.168
-337.304	339.977	0.105	0.201
-336.289	-116.249	-0.223	-0.041
-335.275	-200.000	-0.032	0.242
-334.260	11.430	0.102	-0.077
-333.245	-118.619	-0.256	0.045
-332.231	-200.000	-0.047	0.317
-331.216	-79.279	0.327	-0.109
-330.202	800.000	-0.078	-0.292
-329.187	185.387	-0.186	0.273
-328.172	-90.193	-0.063	0.018
-327.158	206.731	-0.128	-0.197
-326.143	186.410	-0.119	-0.175
-325.129	269.301	0.301	0.521
-324.114	685.869	0.172	0.443
-323.099	-137.472	0.230	0.026
-322.085	-39.914	0.120	0.062
-321.070	-91.204	0.302	0.085
-320.056	-200.000	0.023	-0.118
-319.041	-123.291	-0.321	-0.050
-318.026	-200.000	-0.018	-0.305
-317.012	-65.737	0.234	0.092
-315.997	-200.000	-0.042	-0.288
-314.983	327.711	0.088	0.167
-313.968	78.912	-0.079	-0.084
-312.953	-10.794	0.286	-0.186
-311.939	-39.632	-0.075	0.039
-310.924	134.199	-0.138	0.176
-309.910	-200.000	-0.012	0.325
-308.895	258.699	-0.199	-0.338
-307.880	-143.921	-0.048	-0.004
-306.866	280.852	-0.006	-0.010
-305.851	-28.227	-0.179	-0.102
-304.837	-200.000	0.030	0.147
-303.822	-67.490	-0.173	-0.067
-302.807	52.677	-0.098	0.092
-301.793	64.917	0.196	0.195
-300.778	589.193	0.096	0.234
-299.764	-93.212	-0.220	-0.060
-298.749	161.546	0.112	0.154
-297.735	-200.000	-0.030	-0.167
-296.720	-36.176	-0.114	0.061
-295.705	800.000	0.024	0.071
-294.691	-57.135	0.163	-0.071
-293.676	800.000	-0.086	0.310
-292.662	109.273	-0.123	0.145
-291.647	106.060	-0.196	-0.228
-290.632	42.748	-0.073	-0.066
-289.618	-138.777	0.160	-0.017
-288.603	701.340	-0.053	0.137
-287.589	375.245	0.166	-0.333
-286.574	121.813	-0.133	0.164
-285.559	198.440	0.083	-0.125
-284.545	64.690	-0.190	-0.189
-283.530	-123.812	0.273	-0.042
-282.516	-65.420	-0.465	0.184
-281.501	549.338	0.139	0.327
-280.486	203.691	-0.153	-0.233
-279.472	146.986	0.128	0.169
-278.457	562.612	-0.059	0.140
-277.443	495.053	0.136	-0.307
-276.428	-108.787	-0.344	-0.072
-275.413	-1.818	0.256	-0.177
-274.399	5.568	-0.046	-0.033
-273.384	-200.000	-0.018	0.217
-272.370	204.271	0.149	-0.227
-271.355	800.000	0.050	-0.177
-270.340	-76.657	0.218	0.075
-269.326	9.605	-0.337	0.251
-268.311	-49.596	-0.123	-0.058
-267.297	-10.395	0.107	0.070
-266.282	209.586	-0.119	-0.184
-265.267	800.000	-0.111	0.322
-264.253	133.877	0.223	0.284
-263.238	212.361	0.091	-0.140
-262.224	-52.288	-0.339	-0.154
-261.209	-139.309	-0.178	0.019
-260.195	-13.714	-0.456	0.290
-259.180	227.403	0.062	0.099
-258.165	-123.218	0.260	0.041
-257.151	48.428	0.079	0.073
-256.136	800.000	0.108	-0.331
-255.122	-192.167	0.336	0.003
-254.107	-28.251	-0.480	-0.273
-253.092	800.000	0.078	-0.319
-252.078	-9.958	-0.168	-0.109
-251.063	-130.218	0.509	-0.068
-250.049	73.054	0.150	0.154
-249.034	-200.000	0.030	0.289
-248.019	-88.313	0.291	-0.086
-247.005	-200.000	-0.001	-0.165
-245.990	-72.219	-0.194	-0.071
-244.976	800.000	0.060	-0.254
-243.961	-127.941	-0.107	-0.015
-242.946	-56.853	0.040	-0.017
-241.932	-175.395	-0.282	0.008
-240.917	122.717	-0.203	-0.249
-239.903	-51.337	-0.314	-0.144
-238.888	140.845	0.103	-0.133
-237.873	-200.000	-0.004	-0.096
-236.859	10.155	0.063	-0.047
-235.844	800.000	0.045	-0.133
-234.830	800.000	-0.046	-0.156
-233.815	-118.267	0.190	-0.033
-232.800	-200.000	-0.068	0.375
-231.786	83.991	0.327	-0.350
-230.771	-200.000	-0.030	0.408
-229.757	227.010	0.094	-0.150
-228.742	-77.717	-0.281	-0.095
-227.727	-200.000	0.014	0.299
-226.713	-155.225	-0.301	-0.019
-225.698	-74.014	0.021	0.008
-224.684	17.871	0.142	-0.111
-223.669	-113.388	0.206	0.040
-222.655	-12.829	-0.170	0.109
-221.640	36.012	0.093	0.080
-220.625	346.977	0.146	-0.281
-219.611	125.813	0.188	-0.233
-218.596	-34.928	0.303	-0.162
-217.582	65.467	-0.227	0.225
-216.567	22.810	0.375	0.302
-215.552	-200.000	0.023	0.150
-214.538	-109.557	-0.460	0.095
-213.523	633.861	0.047	-0.118
-212.509	-200.000	0.019	-0.190
-211.494	62.470	0.054	0.053
-210.479	-137.262	0.463	-0.052
-209.465	-112.088	-0.174	0.034
-208.450	800.000	0.050	0.142
-207.436	13.964	-0.104	0.079
-206.421	45.195	-0.077	0.070
-205.406	-200.000	0.006	0.034
-204.392	-76.576	0.408	-0.140
-203.377	800.000	-0.073	0.220
-202.363	-73.140	0.224	-0.080
-201.348	424.951	0.077	-0.162
-200.333	99.389	-0.114	0.129
-199.319	800.000	-0.072	0.243
-198.304	-106.055	-0.233	-0.051
-197.290	-113.178	-0.260	-0.050
-196.275	113.105	0.206	0.245
-195.260	-67.427	-0.288	-0.111
-194.246	347.148	-0.080	0.154
-193.231	12.094	-0.288	-0.217
-192.217	105.963	-0.200	-0.232
-191.202	-91.110	-0.034	0.010
-190.187	800.000	0.027	-0.086
-189.173	800.000	-0.070	-0.225
-188.158	-46.440	0.064	0.031
-187.144	-191.686	-0.169	0.002
-186.129	-131.163	-0.109	-0.014
-185.114	166.476	0.134	0.186
-184.100	84.995	-0.140	-0.151
-183.085	-200.000	-0.076	0.363
-182.071	-200.000	-0.017	-0.117
-181.056	-17.761	0.215	-0.132
-180.042	-200.000	0.017	-0.318
-179.027	-200.000	0.026	0.270
-178.012	68.154	0.199	0.199
-176.998	-139.023	-0.234	0.025
-175.983	-119.883	0.064	0.011
-174.969	-8.236	-0.158	-0.104
-173.954	-43.860	0.297	-0.146
-172.939	-76.401	0.193	-0.067
-171.925	-95.868	-0.281	0.073
-170.910	800.000	0.081	-0.264
-169.896	386.476	0.066	0.133
-168.881	407.208	-0.046	-0.095
-167.866	-200.000	-0.015	0.436
-166.852	-71.540	0.168	0.062
-165.837	-200.000	0.018	-0.087
-164.823	-200.000	0.022	0.203
-163.808	13.143	0.146	-0.111
-162.793	302.829	0.060	-0.109
-161.779	-131.307	0.150	0.019
-160.764	33.426	0.179	0.152
-159.750	-74.717	-0.367	-0.129
-158.735	800.000	-0.053	-0.161
-157.720	-200.000	0.018	0.134
-156.706	-200.000	0.041	-0.335
-155.691	-15.259	-0.076	-0.048
-154.677	-98.884	-0.161	0.040
-153.662	90.050	-0.272	-0.297
-152.647	-48.693	0.109	0.051
-151.633	194.513	0.077	0.114
-150.618	-83.730	-0.081	-0.025
-149.604	556.821	0.089	0.209
-148.589	175.715	-0.137	-0.195
-147.574	74.958	-0.153	0.158
-146.560	287.798	0.086	0.152
-145.545	-200.000	-0.026	-0.204
-144.531	-189.461	0.273	-0.003
-143.516	70.172	-0.108	0.110
-142.502	800.000	-0.014	0.059
-141.487	-75.994	-0.300	0.104
-140.472	-200.000	-0.036	-0.495
-139.458	-53.808	-0.100	-0.045
-138.443	-21.895	0.401	-0.239
-137.429	-31.044	-0.253	0.140
-136.414	800.000	-0.089	0.358
-135.399	800.000	0.076	0.242
-134.385	-81.480	0.381	-0.123
-133.370	-55.408	0.231	-0.101
-132.356	-200.000	-0.021	-0.157
-131.341	-200.000	0.051	0.313
-130.326	-101.864	-0.128	0.030
-129.312	23.574	0.249	0.200
-128.297	-109.078	-0.239	0.050
-127.283	42.555	0.273	0.243
-126.268	764.597	-0.010	0.025
-125.253	-29.969	0.047	-0.026
-124.239	-89.988	-0.221	-0.063
-123.224	-45.992	0.193	-0.093
-122.210	-128.650	-0.387	0.053
-121.195	-200.000	-0.057	-0.264
-120.180	752.028	-0.013	0.034
-119.166	-98.873	-0.198	0.049
-118.151	-200.000	-0.066	0.295
-117.137	-101.883	-0.335	0.079
-116.122	29.125	0.286	-0.237
-115.107	135.900	0.314	0.399
-114.093	386.426	-0.116	0.233
-113.078	58.525	0.110	0.105
-112.064	-200.000	0.002	0.037
-111.049	800.000	0.065	-0.195
-110.034	-8.680	-0.135	0.088
-109.020	-91.026	-0.222	-0.062
-108.005	-28.160	0.186	-0.105
-106.991	447.488	0.052	-0.111
-105.976	-69.365	0.256	-0.096
-104.962	4.857	-0.069	-0.049
-103.947	-200.000	0.032	-0.184
-102.932	72.997	-0.182	-0.186
-101.918	81.067	0.037	0.039
-100.903	-200.000	-0.162	0.000
-99.889	-127.338	0.118	0.017
-98.874	-136.899	0.263	0.029
-97.859	503.298	0.017	0.038
-96.845	-200.000	-0.025	-0.196
-95.830	-200.000	-0.045	-0.427
-94.816	800.000	0.130	0.401
-93.801	-133.701	-0.389	0.047
-92.786	518.314	-0.135	-0.308
-91.772	800.000	-0.115	-0.377
-90.757	135.346	-0.298	0.378
-89.743	800.000	0.032	0.089
-88.728	-200.000	0.020	-0.094
-87.713	170.025	-0.151	-0.210
-86.699	-200.000	0.050	-0.379
-85.684	-200.000	0.002	0.052
-84.670	-200.000	-0.021	-0.182
-83.655	-61.022	-0.132	-0.055
-82.640	-15.281	0.331	-0.207
-81.626	44.837	-0.188	-0.169
-80.611	-129.588	-0.237	-0.032
-79.597	800.000	-0.096	0.375
-78.582	-4.015	0.057	0.038
-77.567	186.722	0.067	0.097
-76.553	-104.551	0.256	-0.058
-75.538	-200.000	-0.000	-0.039
-74.524	-98.159	0.210	-0.053
-73.509	800.000	-0.069	-0.194
-72.494	-152.259	0.326	-0.023
-71.480	442.329	0.048	0.103
-70.465	382.503	0.016	0.032
-69.451	-200.000	-0.027	0.195
-68.436	34.756	0.139	-0.119
-67.422	106.345	0.327	-0.378
-66.407	-200.000	-0.036	0.433
-65.392	40.795	-0.281	0.247
-64.378	-113.612	0.081	-0.015
-63.363	16.362	0.276	0.212
-62.349	-27.661	-0.292	-0.165
-61.334	260.569	-0.760	-1.280
-60.319	195.549	0.515	0.763
-59.305	436.523	-0.618	-1.312
-58.290	374.585	0.778	1.545
-57.276	340.639	0.845	1.607
-56.261	-200.000	133.933	670.919
-55.246	327.322	1683.997	3146.769
-54.232	131.446	2824.401	3537.391
-53.217	87.558	2188.573	2360.982
-52.203	32.446	1612.417	1357.209
-51.188	24.104	1358.393	1092.414
-50.173	21.856	1320.906	1048.794
-49.159	49.559	1395.775	1280.351
-48.144	45.911	1405.630	1266.870
-47.130	24.191	1351.596	1087.302
-46.115	21.071	1331.902	1052.625
-45.100	20.874	1326.725	1047.305
-44.086	20.788	1324.273	1044.816
-43.071	20.776	1322.004	1042.911
-42.057	20.819	1319.724	1041.325
-41.042	20.685	1318.563	1039.570
-40.027	20.828	1316.424	1038.695
-39.013	20.768	1315.060	1037.216
-37.998	20.735	1313.231	1035.540
-36.984	20.872	1311.471	1034.922
-35.969	20.938	1309.268	1033.534
-34.954	20.867	1308.139	1032.181
-33.940	20.909	1306.756	1031.298
-32.925	20.877	1305.471	1030.054
-31.911	20.875	1303.891	1028.759
-30.896	20.981	1302.268	1028.058
-29.881	21.044	1300.827	1027.255
-28.867	21.094	1299.497	1026.453
-27.852	21.036	1298.243	1025.081
-26.838	21.044	1296.823	1023.971
-25.823	20.941	1295.646	1022.397
-24.809	21.065	1293.872	1021.681
-23.794	20.836	1293.270	1019.825
-22.779	20.932	1291.763	1019.157
-21.765	20.922	1290.659	1018.189
-20.750	20.939	1288.911	1016.866
-19.736	20.879	1287.539	1015.396
-18.721	20.768	1286.717	1014.062
-17.706	20.960	1285.570	1014.231
-16.692	20.960	1284.063	1013.006
-15.677	20.804	1283.351	1011.495
-14.663	20.805	1282.154	1010.515
-13.648	20.740	1281.149	1009.307
-12.633	20.842	1279.920	1008.890
-11.619	20.756	1279.280	1007.848
-10.604	20.812	1278.256	1007.323
-9.590	20.765	1277.899	1006.734
-8.575	20.826	1276.372	1005.840
-7.560	20.794	1275.243	1004.724
-6.546	20.759	1275.217	1004.463
-5.531	20.828	1273.808	1003.713
-4.517	20.670	1273.528	1002.540
-3.502	20.852	1272.510	1002.750
-2.487	20.870	1271.668	1002.150
-1.473	20.772	1267.404	998.188
-0.458	19.533	1252.643	979.496
0.556	15.364	1237.890	945.293
1.571	12.279	1247.275	934.836
2.586	11.812	1262.761	943.668
3.600	11.787	1250.397	934.198
4.615	8.764	1177.444	863.345
5.629	3.247	1106.735	783.411
6.644	0.730	1090.226	759.031
7.659	0.439	1089.295	756.855
8.673	0.590	1087.773	756.485
9.688	0.572	1086.193	755.231
10.702	0.765	1083.444	754.214
11.717	4.152	1087.103	773.624
12.731	10.479	1096.199	811.798
13.746	15.347	1102.512	840.860
14.761	17.100	1104.713	851.262
15.775	16.428	1102.418	846.053
16.790	15.434	1100.827	839.789
17.804	14.800	1098.934	835.101
18.819	14.425	1098.404	832.750
19.834	14.256	1097.174	830.903
20.848	13.883	1096.440	828.411
21.863	13.743	1095.101	826.629
22.877	13.593	1094.068	825.030
23.892	13.589	1093.685	824.647
24.907	13.559	1093.233	824.086
25.921	13.491	1092.285	822.962
26.936	13.582	1091.351	822.634
27.950	13.636	1090.336	822.065
28.965	13.647	1089.142	821.147
29.980	13.835	1087.267	820.589
30.994	13.586	1087.117	819.172
32.009	13.819	1085.711	819.189
33.023	13.725	1084.707	817.896
34.038	13.598	1084.183	816.806
35.053	13.619	1082.905	815.875
36.067	13.567	1082.265	815.063
37.082	13.764	1081.027	815.026
38.096	13.768	1080.377	814.482
39.111	13.724	1079.590	813.601
40.126	13.613	1078.383	812.076
41.140	13.522	1077.207	810.674
42.155	13.514	1076.448	809.993
43.169	13.655	1074.824	809.388
44.184	13.601	1074.042	808.464
45.199	13.505	1073.120	807.230
46.213	13.646	1071.751	806.814
47.228	13.526	1071.390	805.886
48.242	13.586	1069.626	804.779
49.257	13.517	1068.612	803.612
50.271	13.644	1067.515	803.332
51.286	13.611	1067.114	802.800
52.301	13.677	1065.708	801.988
53.315	13.599	1065.043	801.039
54.330	13.533	1064.128	799.961
55.344	13.626	1062.958	799.462
56.359	13.691	1062.043	799.015
57.374	13.577	1061.225	797.781
58.388	13.487	1060.350	796.618
59.403	13.571	1059.338	796.191
60.417	13.538	1058.436	795.287
61.432	13.573	1057.659	794.800
62.447	13.487	1056.857	793.712
63.461	13.509	1055.647	792.838
64.476	13.505	1054.994	792.261
65.490	13.579	1054.184	791.936
66.505	13.456	1053.903	791.066
67.520	13.381	1053.291	790.180
68.534	13.552	1052.124	790.048
69.549	13.564	1051.283	789.406
70.563	13.471	1050.488	788.296
71.578	13.419	1050.109	787.693
72.593	13.462	1048.964	786.972
73.607	13.323	1048.495	785.888
74.622	13.356	1047.738	785.407
75.636	13.487	1046.969	785.385
76.651	13.393	1046.682	784.651
77.666	13.460	1046.076	784.448
78.680	13.535	1044.515	783.562
79.695	13.455	1044.051	782.765
80.709	13.570	1043.513	782.836
81.724	13.531	1042.835	782.076
82.739	13.544	1042.416	781.752
83.753	13.688	1041.279	781.511
84.768	13.649	1040.240	780.478
85.782	13.700	1039.347	779.978
86.797	13.754	1038.400	779.451
87.812	13.598	1037.616	778.060
88.826	13.615	1036.355	777.125
89.841	13.717	1035.407	776.826
90.855	13.598	1034.945	775.855
91.870	13.744	1033.753	775.573
92.884	13.702	1032.842	774.625
93.899	13.876	1031.661	774.482
94.914	13.797	1031.227	773.722
95.928	13.860	1030.418	773.340
96.943	13.679	1029.821	771.979
97.957	13.644	1029.023	771.152
98.972	13.650	1028.348	770.604
99.987	13.640	1027.135	769.581
101.001	13.721	1025.885	768.952
102.016	13.725	1025.118	768.328
103.030	13.770	1024.652	768.116
104.045	13.609	1023.381	766.352
105.060	13.691	1022.681	766.139
106.074	13.719	1021.854	765.582
107.089	13.593	1020.852	764.181
108.103	13.516	1020.036	763.148
109.118	13.603	1018.688	762.473
110.133	13.612	1018.003	761.935
111.147	13.733	1016.503	761.298
112.162	13.711	1015.968	760.732
113.176	13.692	1015.151	759.966
114.191	13.670	1014.681	759.443
115.206	13.773	1014.049	759.374
116.220	13.652	1013.014	757.982
117.235	13.636	1012.221	757.246
118.249	13.608	1011.121	756.228
119.264	13.618	1010.411	755.676
120.279	13.711	1009.516	755.363
121.293	13.644	1008.631	754.327
122.308	13.637	1007.869	753.659
123.322	13.589	1007.082	752.787
124.337	13.670	1006.008	752.286
125.352	13.688	1004.597	751.245
126.366	13.622	1003.816	750.296
127.381	13.702	1002.796	749.828
128.395	13.643	1001.807	748.757
129.410	13.653	1000.797	747.981
130.424	13.601	1000.359	747.353
131.439	13.692	998.957	746.648
132.454	13.633	998.317	745.839
133.468	13.723	997.249	745.379
134.483	13.701	996.897	744.953
135.497	13.743	996.132	744.505
136.512	13.654	995.210	743.350
137.527	13.592	994.187	742.243
138.541	13.864	993.094	742.575
139.556	13.715	992.544	741.434
140.570	13.783	992.104	741.342
141.585	13.791	991.085	740.551
142.600	13.825	989.955	739.795
143.614	13.815	989.393	739.265
144.629	13.945	988.487	739.100
145.643	13.898	987.485	738.078
146.658	13.900	986.219	737.072
147.673	13.941	985.422	736.595
148.687	13.705	985.181	735.302
149.702	13.794	983.755	734.568
150.716	13.915	983.080	734.535
151.731	13.764	982.408	733.301
152.746	13.791	982.070	733.103
153.760	13.934	981.164	732.994
154.775	13.937	980.505	732.447
155.789	13.935	979.437	731.576
156.804	13.876	979.018	730.940
157.819	13.910	978.435	730.590
158.833	13.995	977.426	730.145
159.848	14.055	976.401	729.577
160.862	13.970	976.112	728.924
161.877	14.020	974.723	728.040
162.892	14.003	973.616	727.075
163.906	13.934	972.831	726.122
164.921	13.908	972.073	725.379
165.935	13.895	971.697	724.977
166.950	13.983	970.436	724.355
167.964	14.013	969.426	723.670
168.979	14.073	968.751	723.363
169.994	13.978	968.030	722.345
171.008	14.018	967.144	721.795
172.023	14.245	966.029	721.883
173.037	14.258	965.198	721.257
174.052	14.141	964.683	720.303
175.067	14.092	964.252	719.702
176.081	14.123	963.550	719.250
177.096	14.074	963.325	718.807
178.110	14.183	962.157	718.341
179.125	14.145	961.535	717.649
180.140	14.201	961.448	717.762
181.154	14.139	960.717	716.886
182.169	14.139	960.171	716.418
183.183	14.299	959.326	716.408
184.198	14.319	958.858	716.084
185.213	14.214	958.346	715.185
186.227	14.271	957.558	714.782
187.242	14.451	956.272	714.529
188.256	14.404	955.817	713.926
189.271	14.325	955.026	712.930
190.286	14.184	954.506	711.877
191.300	14.309	953.568	711.647
192.315	14.203	953.028	710.730
193.329	14.055	952.979	709.999
194.344	14.295	952.069	710.280
195.359	14.313	951.305	709.726
196.373	14.326	950.639	709.221
197.388	14.388	950.112	709.028
198.402	14.312	949.728	708.356
199.417	14.340	949.273	708.072
200.432	14.482	948.164	707.788
201.446	14.472	947.877	707.468
202.461	14.514	947.097	707.000
203.475	14.607	946.259	706.705
204.490	14.562	945.604	705.964
205.504	14.559	944.825	705.309
206.519	14.521	943.967	704.443
207.534	14.497	943.130	703.655
208.548	14.578	942.721	703.629
209.563	14.477	942.070	702.656
210.577	14.639	941.582	702.912
211.592	14.604	940.755	702.087
212.607	14.652	939.679	701.423
213.621	14.636	939.239	700.964
214.636	14.607	938.325	700.098
215.650	14.617	937.825	699.705
216.665	14.655	937.280	699.398
217.680	14.769	936.657	699.346
218.694	14.766	935.945	698.741
219.709	14.713	935.045	697.787
220.723	14.776	934.202	697.359
221.738	14.753	933.573	696.733
222.753	14.750	933.015	696.238
223.767	14.902	932.851	696.690
224.782	14.830	932.051	695.730
225.796	14.975	931.410	695.795
226.811	14.865	930.891	694.887
227.826	14.773	930.175	693.908
228.840	14.984	928.692	693.616
229.855	14.940	928.317	693.092
230.869	14.977	927.275	692.406
231.884	14.881	926.703	691.523
232.899	14.688	926.210	690.296
233.913	14.799	925.738	690.340
234.928	14.837	924.953	689.851
235.942	14.883	924.230	689.441
236.957	14.929	923.905	689.326
237.972	14.939	922.860	688.526
238.986	14.965	922.084	687.995
240.001	14.791	922.170	687.280
241.015	14.897	920.804	686.638
242.030	14.908	920.243	686.202
243.045	15.118	919.556	686.490
244.059	15.001	919.278	685.744
245.074	15.038	918.433	685.206
246.088	15.172	917.593	685.065
247.103	15.068	917.211	684.295
248.117	15.237	916.292	684.237
249.132	15.195	916.169	683.913
250.147	15.319	915.032	683.509
251.161	15.264	914.681	682.962
252.176	15.227	914.335	682.494
253.190	15.374	913.042	682.066
254.205	15.323	912.419	681.334
255.220	15.342	911.822	680.903
256.234	15.500	911.088	680.938
257.249	15.272	911.017	679.897
258.263	15.454	909.869	679.717
259.278	15.439	908.869	678.852
260.293	15.467	908.597	678.702
261.307	15.565	908.227	678.760
262.322	15.594	907.394	678.194
263.336	15.531	906.403	677.141
264.351	15.488	905.857	676.499
265.366	15.494	905.213	675.982
266.380	15.571	904.630	675.798
267.395	15.549	903.915	675.114
268.409	15.706	903.213	675.161
269.424	15.541	902.505	673.908
270.439	15.675	901.463	673.608
271.453	15.516	901.385	672.853
272.468	15.560	900.919	672.622
273.482	15.558	900.188	672.010
274.497	15.581	899.299	671.379
275.512	15.739	898.790	671.569
276.526	15.588	898.574	670.747
277.541	15.665	897.929	670.514
278.555	15.702	897.337	670.161
279.570	15.683	896.514	669.409
280.585	15.834	895.255	669.012
281.599	15.832	894.836	668.630
282.614	15.741	894.045	667.619
283.628	15.838	893.209	667.320
284.643	15.800	892.793	666.798
285.657	15.757	892.216	666.141
286.672	15.924	891.414	666.142
287.687	15.845	891.197	665.610
288.701	15.802	890.620	664.952
289.716	15.789	889.789	664.219
290.730	15.913	889.389	664.350
291.745	15.982	888.871	664.176
292.760	15.938	888.006	663.301
293.774	16.083	887.152	663.173
294.789	16.025	886.617	662.487
295.803	16.085	885.889	662.120
296.818	15.913	885.534	661.120
297.833	15.980	884.609	660.632
298.847	16.015	884.136	660.359
299.862	16.050	883.498	659.962
300.876	16.026	882.941	659.394
301.891	16.133	882.390	659.340
302.906	16.128	881.875	658.880
303.920	16.154	881.226	658.437
304.935	16.204	880.925	658.349
305.949	16.073	880.301	657.312
306.964	16.179	879.461	657.043
307.979	16.096	879.110	656.396
308.993	16.236	878.581	656.488
310.008	16.329	877.767	656.182
311.022	16.245	877.207	655.381
312.037	16.409	876.177	655.191
313.052	16.235	875.990	654.319
314.066	16.234	875.213	653.675
315.081	16.174	875.032	653.248
316.095	16.150	873.966	652.305
317.110	16.230	873.568	652.258
318.125	16.363	872.852	652.178
319.139	16.273	872.730	651.681
320.154	16.393	872.149	651.654
321.168	16.337	871.330	650.768
322.183	16.343	870.780	650.323
323.197	16.282	870.598	649.895
324.212	16.395	870.137	649.926
325.227	16.417	869.149	649.216
326.241	16.346	868.592	648.472
327.256	16.343	868.381	648.244
328.270	16.381	867.571	647.728
329.285	16.452	867.112	647.601
330.300	16.482	866.224	646.994
331.314	16.476	865.570	646.426
332.329	16.492	865.226	646.172
333.343	16.526	864.703	645.856
334.358	16.460	864.655	645.511
335.373	16.618	864.135	645.669
336.387	16.602	863.702	645.227
337.402	16.700	863.125	645.111
338.416	16.574	863.164	644.604
339.431	16.674	862.272	644.263
340.446	16.640	862.090	643.940
341.460	16.658	861.979	643.866
342.475	16.620	861.605	643.388
343.489	16.687	861.054	643.172
344.504	16.625	860.783	642.677
345.519	16.703	860.144	642.439
346.533	17.010	858.856	642.582
347.548	16.807	858.885	641.778
348.562	16.702	858.394	640.960
349.577	16.704	857.694	640.385
350.592	16.796	856.789	640.001
351.606	16.690	856.261	639.151
352.621	16.730	855.690	638.821
353.635	16.916	854.610	638.655
354.650	16.691	854.715	637.833
355.665	16.905	853.830	637.919
356.679	16.800	853.314	637.081
357.694	16.867	852.661	636.790
358.708	16.872	852.048	636.296
359.723	16.942	851.276	635.924
360.738	16.938	850.705	635.429
361.752	17.076	849.844	635.246
362.767	16.999	849.277	634.476
363.781	16.965	848.993	634.079
364.796	16.984	848.429	633.675
365.810	17.077	848.318	633.882
366.825	17.095	847.672	633.410
367.840	17.141	847.256	633.215
368.854	17.021	847.077	632.577
369.869	17.180	846.122	632.400
370.883	17.063	846.024	631.836
371.898	17.161	845.736	631.930
372.913	17.323	844.787	631.769
373.927	17.340	844.609	631.643
374.942	17.314	844.028	631.055
375.956	17.416	843.803	631.207
376.971	17.383	843.072	630.484
377.986	17.446	842.850	630.496
379.000	17.404	842.250	629.835
380.015	17.445	841.521	629.388
381.029	17.365	840.865	628.543
382.044	17.415	840.500	628.399
383.059	17.467	840.044	628.196
384.073	17.433	839.246	627.420
385.088	17.426	839.183	627.291
386.102	17.442	838.499	626.781
387.117	17.328	837.609	625.641
388.132	17.451	836.826	625.453
389.146	17.632	836.385	625.733
390.161	17.520	836.081	625.039
391.175	17.473	835.774	624.581
392.190	17.435	835.091	623.878
393.205	17.564	834.376	623.759
394.219	17.327	834.781	623.140
395.234	17.459	834.140	623.089
396.248	17.421	833.627	622.513
397.263	17.489	833.055	622.277
398.278	17.473	832.670	621.878
399.292	17.571	832.125	621.771
400.307	17.563	831.598	621.294
401.321	17.634	831.408	621.358
402.336	17.596	830.865	620.758
403.350	17.643	830.157	620.346
404.365	17.580	829.623	619.660
405.380	17.698	829.472	619.922
406.394	17.784	828.623	619.544
407.409	17.772	828.142	619.087
408.423	17.878	828.136	619.412
409.438	17.752	827.427	618.372
410.453	17.805	827.161	618.312
411.467	17.931	826.595	618.288
412.482	17.930	826.202	617.937
413.496	17.893	825.720	617.388
414.511	18.115	825.277	617.804
415.526	18.021	824.899	617.126
416.540	18.031	824.337	616.688
417.555	18.006	824.202	616.440
418.569	18.029	823.525	615.965
419.584	18.043	822.939	615.523
420.599	18.092	822.754	615.503
421.613	115.299	1301.513	1491.215
422.628	100.101	1371.202	1491.300
