DTS Sentinel unit serial number:	SN413079Multiplexer serial number:	ORYXHardware model number:	OX4-SRSoftware version number:	ORYX F/W v4.00 Oryx Data Collector v3.7.2.0data status	okinstallation	princeton_trtdifferential loss correction	single-endedforward channel	channel 1reverse channel	N/Adate	2019/09/19time	10:14:35forward acquisition time	60.00reverse acquisition time	0.00gamma	496.2192k internal	0.2339k external	0.2339temperature offset calibration	1.0008default loss term (dB/km)	0.3790temperature slope calibration	1.0000multiplexer offset coefficient	1.0000multiplexer slope coefficient	1.0000fibre end	0.00T internal ref (°C)	24.06T ext. ref 1 (°C)	0.69T ext. ref 2 (°C)	19.78length (m)	temperature (°C)	Stokes	anti-Stokes-747.200	-61.203	0.270	-0.114
-746.185	279.063	0.022	-0.039
-745.171	243.897	-0.173	-0.292
-744.156	444.092	-0.056	-0.124
-743.142	-54.633	-0.307	0.139
-742.127	-21.861	-0.277	-0.169
-741.112	134.280	-0.173	0.225
-740.098	629.076	-0.142	0.361
-739.083	800.000	0.138	-0.410
-738.069	487.927	-0.178	0.408
-737.054	-200.000	0.028	-0.178
-736.039	427.745	-0.074	-0.160
-735.025	-115.087	0.450	-0.086
-734.010	198.267	-0.058	0.088
-732.996	-67.083	-0.128	-0.051
-731.981	-82.268	0.155	0.051
-730.966	133.204	-0.019	0.024
-729.952	-200.000	-0.035	-0.360
-728.937	133.292	-0.119	0.154
-727.923	800.000	0.037	-0.148
-726.908	800.000	0.008	-0.031
-725.894	160.828	-0.210	0.294
-724.879	1.790	-0.297	0.215
-723.864	800.000	-0.065	-0.232
-722.850	474.758	-0.145	-0.327
-721.835	158.519	-0.167	0.232
-720.821	9.324	0.418	-0.317
-719.806	-156.511	-0.219	-0.014
-718.791	280.694	0.252	0.453
-717.777	-64.589	-0.355	-0.144
-716.762	800.000	0.030	-0.119
-715.748	-51.753	-0.347	-0.162
-714.733	-37.161	-0.348	0.187
-713.718	-200.000	-0.003	-0.140
-712.704	800.000	0.106	-0.357
-711.689	307.832	-0.132	0.247
-710.675	-200.000	0.014	0.225
-709.660	-26.303	0.161	0.095
-708.645	-163.736	0.207	-0.010
-707.631	1.095	0.193	0.138
-706.616	800.000	0.095	-0.282
-705.602	320.524	-0.127	-0.241
-704.587	18.006	-0.178	0.142
-703.572	239.809	0.109	0.182
-702.558	-172.154	-0.301	0.010
-701.543	8.717	-0.066	0.050
-700.529	10.060	0.071	-0.054
-699.514	-200.000	-0.081	0.408
-698.499	-60.369	0.114	0.049
-697.485	-145.896	-0.186	0.016
-696.470	207.516	0.151	-0.236
-695.456	395.222	-0.025	-0.052
-694.441	-200.000	-0.002	-0.021
-693.426	655.323	-0.018	-0.047
-692.412	-200.000	-0.004	0.219
-691.397	478.239	-0.069	0.155
-690.383	800.000	0.077	-0.320
-689.368	21.347	-0.261	0.212
-688.354	603.824	0.079	-0.197
-687.339	-200.000	-0.027	-0.155
-686.324	-74.638	0.182	-0.066
-685.310	-200.000	-0.502	0.002
-684.295	182.987	0.140	-0.207
-683.281	148.998	0.036	0.048
-682.266	-134.966	0.217	-0.026
-681.251	-200.000	0.016	0.436
-680.237	800.000	-0.032	0.109
-679.222	800.000	-0.083	0.240
-678.208	-200.000	0.004	-0.147
-677.193	494.332	0.111	0.256
-676.178	-143.293	-0.157	0.015
-675.164	25.912	-0.075	-0.063
-674.149	169.324	-0.068	0.098
-673.135	513.137	-0.072	0.169
-672.120	176.599	-0.107	-0.156
-671.105	-10.074	-0.413	-0.275
-670.091	-78.445	-0.232	-0.080
-669.076	34.137	0.124	0.108
-668.062	-137.729	-0.162	0.018
-667.047	-49.230	-0.365	-0.174
-666.032	148.899	-0.094	0.127
-665.018	800.000	0.052	-0.182
-664.003	-118.954	-0.218	-0.038
-662.989	-92.723	-0.203	0.057
-661.974	-17.172	-0.139	-0.088
-660.959	347.137	-0.208	-0.410
-659.945	800.000	-0.100	0.275
-658.930	452.370	-0.112	0.248
-657.916	-91.929	-0.356	-0.101
-656.901	-200.000	-0.019	0.113
-655.886	-6.955	-0.057	0.039
-654.872	-67.474	-0.235	-0.092
-653.857	-133.865	-0.065	-0.008
-652.843	226.349	-0.183	0.297
-651.828	-74.777	0.180	0.065
-650.814	-200.000	-0.011	-0.131
-649.799	-200.000	-0.009	0.233
-648.784	-57.910	-0.143	0.062
-647.770	-2.611	-0.321	0.224
-646.755	-62.803	-0.123	0.051
-645.741	158.229	-0.098	-0.136
-644.726	148.411	0.185	-0.249
-643.711	-200.000	-0.004	-0.169
-642.697	126.367	-0.213	0.270
-641.682	-107.553	0.368	0.081
-640.668	800.000	-0.111	0.359
-639.653	-200.000	0.025	-0.242
-638.638	0.901	-0.208	0.149
-637.624	-200.000	0.007	0.088
-636.609	-26.811	-0.079	0.046
-635.595	-9.281	0.289	0.193
-634.580	-200.000	-0.017	0.204
-633.565	82.314	-0.123	-0.134
-632.551	169.161	-0.057	0.081
-631.536	-200.000	0.037	0.190
-630.522	66.960	-0.301	-0.306
-629.507	56.727	-0.168	-0.164
-628.492	548.209	-0.073	0.175
-627.478	63.470	-0.033	-0.033
-626.463	800.000	-0.077	0.216
-625.449	-150.212	-0.222	0.017
-624.434	441.898	-0.064	-0.140
-623.419	55.713	0.082	-0.079
-622.405	490.625	-0.139	0.318
-621.390	95.956	0.157	-0.179
-620.376	-118.332	0.258	0.046
-619.361	-177.658	-0.057	0.001
-618.346	61.723	0.139	0.139
-617.332	-80.675	-0.239	0.079
-616.317	-31.410	-0.061	-0.034
-615.303	132.544	0.262	0.337
-614.288	800.000	-0.056	0.164
-613.273	438.589	0.145	0.317
-612.259	-99.933	-0.065	-0.016
-611.244	800.000	-0.054	-0.218
-610.230	340.821	0.132	0.257
-609.215	-49.323	-0.144	-0.068
-608.201	800.000	0.091	0.349
-607.186	-55.639	0.192	-0.086
-606.171	193.918	-0.116	0.175
-605.157	58.965	0.231	0.227
-604.142	-84.846	-0.205	-0.064
-603.128	384.101	0.181	-0.372
-602.113	-200.000	-0.013	0.348
-601.098	-76.302	-0.158	0.056
-600.084	193.357	-0.161	-0.243
-599.069	84.440	-0.113	-0.123
-598.055	800.000	-0.092	-0.267
-597.040	-119.079	-0.309	0.054
-596.025	-154.731	0.231	0.015
-595.011	-200.000	-0.001	0.076
-593.996	526.138	-0.141	-0.331
-592.982	800.000	-0.086	-0.295
-591.967	-200.000	0.013	-0.264
-590.952	151.485	0.166	-0.225
-589.938	5.941	-0.140	-0.103
-588.923	-50.418	-0.233	0.109
-587.909	617.030	0.162	0.406
-586.894	67.921	-0.109	-0.111
-585.879	800.000	-0.065	0.214
-584.865	727.426	0.071	-0.189
-583.850	-200.000	0.012	-0.159
-582.836	179.368	-0.056	0.082
-581.821	-118.009	0.508	0.091
-580.806	105.808	-0.135	-0.159
-579.792	-81.938	0.112	0.036
-578.777	-39.577	-0.317	-0.165
-577.763	-48.189	-0.267	-0.128
-576.748	-12.529	0.280	0.182
-575.733	-57.761	0.381	0.166
-574.719	800.000	-0.042	0.121
-573.704	263.808	0.081	-0.140
-572.690	-45.986	-0.177	0.087
-571.675	202.004	-0.132	-0.203
-570.661	84.473	0.131	0.143
-569.646	525.368	0.038	0.088
-568.631	230.735	0.135	0.219
-567.617	-63.908	-0.262	-0.107
-566.602	47.938	-0.149	-0.139
-565.588	-200.000	-0.045	0.214
-564.573	-45.288	-0.385	0.191
-563.558	-52.533	0.109	-0.050
-562.544	-71.164	0.071	-0.027
-561.529	-180.652	-0.370	-0.008
-560.515	-200.000	-0.050	0.340
-559.500	-21.205	-0.115	0.070
-558.485	-62.975	-0.274	0.113
-557.471	123.198	0.235	0.293
-556.456	105.273	0.173	-0.204
-555.442	78.550	0.070	0.074
-554.427	-200.000	0.026	-0.151
-553.412	264.932	-0.271	-0.470
-552.398	800.000	0.028	0.094
-551.383	-63.669	0.161	-0.066
-550.369	263.791	0.039	0.067
-549.354	-138.112	0.215	-0.024
-548.339	-51.889	-0.203	-0.094
-547.325	151.316	0.031	0.042
-546.310	-42.871	-0.138	0.070
-545.296	-18.901	-0.308	-0.191
-544.281	624.238	0.138	-0.345
-543.266	148.962	0.167	0.225
-542.252	-200.000	0.046	-0.383
-541.237	-52.285	-0.138	-0.064
-540.223	397.694	0.057	0.118
-539.208	-200.000	-0.011	0.153
-538.193	800.000	-0.046	-0.140
-537.179	-107.029	-0.284	0.063
-536.164	159.253	-0.241	0.334
-535.150	649.622	0.092	-0.235
-534.135	-114.076	0.326	-0.063
-533.121	-149.648	-0.136	0.011
-532.106	579.572	0.191	-0.465
-531.091	257.465	-0.064	0.109
-530.077	-200.000	-0.029	0.203
-529.062	-128.361	0.315	0.045
-528.048	-137.689	0.306	-0.034
-527.033	-5.455	-0.138	-0.094
-526.018	-42.792	0.147	0.074
-525.004	-57.069	-0.046	0.020
-523.989	800.000	-0.030	-0.105
-522.975	-113.433	-0.034	0.007
-521.960	-98.239	-0.389	0.099
-520.945	385.101	0.087	0.177
-519.931	-14.160	-0.362	0.232
-518.916	97.576	-0.313	-0.357
-517.902	800.000	0.035	0.117
-516.887	-60.185	-0.320	-0.136
-515.872	-200.000	-0.004	-0.469
-514.858	-68.304	-0.093	0.036
-513.843	26.258	-0.028	-0.023
-512.829	199.556	-0.183	-0.280
-511.814	117.196	-0.147	0.179
-510.799	-19.917	0.135	0.083
-509.785	245.544	0.214	-0.358
-508.770	-85.587	0.029	-0.009
-507.756	-153.773	0.324	-0.022
-506.741	16.669	0.347	0.273
-505.726	-200.000	0.016	-0.179
-504.712	-113.905	0.066	0.013
-503.697	100.891	-0.057	-0.066
-502.683	-4.415	-0.258	0.178
-501.668	-117.303	0.106	-0.019
-500.653	-59.976	-0.072	0.030
-499.639	172.533	-0.073	0.105
-498.624	109.352	0.128	-0.152
-497.610	109.968	0.107	-0.127
-496.595	-105.226	0.125	0.028
-495.581	-27.093	-0.253	0.147
-494.566	-200.000	0.103	-0.554
-493.551	-42.349	-0.352	-0.179
-492.537	83.110	0.066	0.072
-491.522	-160.226	0.336	-0.018
-490.508	800.000	-0.157	0.458
-489.493	-171.478	-0.338	0.011
-488.478	271.710	-0.179	-0.313
-487.464	434.390	-0.134	-0.288
-486.449	43.369	-0.136	-0.124
-485.435	12.628	-0.203	-0.156
-484.420	-200.000	0.007	-0.083
-483.405	-130.891	-0.054	-0.007
-482.391	399.831	-0.065	-0.136
-481.376	31.822	-0.204	0.175
-480.362	508.593	0.039	-0.090
-479.347	-134.839	0.322	0.039
-478.332	-12.043	-0.282	-0.183
-477.318	-173.948	-0.278	-0.008
-476.303	-74.862	-0.169	-0.060
-475.289	-109.215	-0.191	-0.040
-474.274	258.116	-0.030	-0.051
-473.259	-9.957	-0.219	-0.145
-472.245	-74.075	-0.159	0.057
-471.230	-190.021	0.330	-0.004
-470.216	-89.946	0.463	0.134
-469.201	-85.799	-0.191	-0.059
-468.186	43.973	0.216	0.196
-467.172	252.432	0.193	0.327
-466.157	-200.000	0.030	-0.144
-465.143	134.156	0.093	0.120
-464.128	-10.229	0.070	0.046
-463.113	-200.000	-0.007	0.131
-462.099	-15.491	0.126	-0.080
-461.084	-128.703	-0.211	0.030
-460.070	75.433	-0.012	-0.013
-459.055	68.173	-0.222	-0.226
-458.040	-98.547	-0.354	-0.090
-457.026	307.979	0.017	-0.031
-456.011	800.000	-0.076	-0.317
-454.997	261.361	0.071	-0.122
-453.982	499.690	0.043	0.097
-452.968	-139.215	-0.096	0.010
-451.953	298.370	0.167	-0.304
-450.938	-200.000	-0.001	0.247
-449.924	-123.843	-0.182	0.029
-448.909	236.290	-0.281	0.461
-447.895	-10.430	-0.080	-0.052
-446.880	-200.000	0.012	-0.142
-445.865	-200.000	0.032	0.244
-444.851	257.878	-0.049	-0.084
-443.836	122.456	-0.079	0.098
-442.822	300.869	-0.067	0.122
-441.807	206.126	-0.031	-0.048
-440.792	-200.000	0.038	-0.268
-439.778	-200.000	0.053	-0.255
-438.763	440.304	0.158	0.342
-437.749	-37.648	-0.156	0.083
-436.734	-46.921	-0.207	0.100
-435.719	-200.000	0.058	-0.335
-434.705	-200.000	-0.004	0.132
-433.690	39.765	-0.212	-0.188
-432.676	-200.000	0.062	-0.276
-431.661	41.414	-0.027	-0.025
-430.646	-200.000	0.056	0.261
-429.632	-200.000	-0.003	-0.319
-428.617	-147.808	-0.455	-0.038
-427.603	77.458	0.060	-0.064
-426.588	165.639	0.136	-0.191
-425.573	62.857	-0.136	0.135
-424.559	-117.307	0.178	0.032
-423.544	-33.547	-0.159	-0.087
-422.530	-132.539	0.271	0.034
-421.515	-78.217	0.129	0.044
-420.500	-200.000	-0.023	0.318
-419.486	-89.944	0.158	0.046
-418.471	800.000	-0.070	-0.195
-417.457	-22.450	-0.115	0.069
-416.442	60.992	-0.272	-0.267
-415.428	800.000	0.097	-0.264
-414.413	-200.000	0.032	-0.146
-413.398	-27.776	-0.230	-0.132
-412.384	-15.627	0.200	0.126
-411.369	-200.000	-0.003	-0.250
-410.355	-22.949	-0.023	0.014
-409.340	-133.109	0.108	-0.013
-408.325	-102.762	0.082	0.019
-407.311	-140.793	0.451	0.046
-406.296	-89.512	0.151	0.044
-405.282	-121.424	-0.357	-0.059
-404.267	570.818	0.092	0.222
-403.252	-52.852	0.091	-0.042
-402.238	-117.312	-0.261	0.047
-401.223	-37.111	-0.213	-0.113
-400.209	800.000	0.071	-0.234
-399.194	126.359	0.085	-0.107
-398.179	400.615	0.129	-0.269
-397.165	-200.000	-0.066	-0.315
-396.150	300.800	0.095	0.173
-395.136	-138.907	0.138	-0.015
-394.121	16.746	0.137	-0.107
-393.106	-200.000	0.001	-0.070
-392.092	86.650	0.225	0.245
-391.077	-200.000	-0.022	0.193
-390.063	-141.987	0.092	0.009
-389.048	-109.434	-0.231	-0.048
-388.033	294.124	0.054	-0.097
-387.019	-200.000	0.009	-0.354
-386.004	-128.172	-0.136	-0.019
-384.990	-172.161	-0.247	0.008
-383.975	800.000	-0.102	-0.408
-382.960	-200.000	-0.051	0.260
-381.946	-79.325	0.285	0.095
-380.931	800.000	-0.081	-0.227
-379.917	107.498	-0.104	0.123
-378.902	302.350	0.152	-0.278
-377.888	487.098	-0.030	0.068
-376.873	-94.929	0.304	0.081
-375.858	306.494	0.151	-0.279
-374.844	9.376	0.132	-0.099
-373.829	-84.275	0.239	0.075
-372.815	-65.941	0.144	-0.057
-371.800	-96.047	0.116	0.031
-370.785	95.786	-0.078	-0.088
-369.771	-80.049	0.417	0.138
-368.756	9.506	0.059	0.044
-367.742	-62.536	0.107	-0.044
-366.727	786.837	-0.049	0.133
-365.712	14.452	-0.167	-0.129
-364.698	-114.732	-0.149	0.028
-363.683	301.329	0.168	-0.307
-362.669	800.000	0.097	-0.289
-361.654	800.000	-0.048	-0.132
-360.639	144.538	0.193	-0.255
-359.625	534.666	0.038	0.089
-358.610	392.055	-0.044	-0.090
-357.596	346.737	-0.027	0.053
-356.581	314.409	0.095	0.178
-355.566	5.240	0.083	0.061
-354.552	5.412	-0.179	-0.131
-353.537	-101.473	0.132	-0.032
-352.523	-100.404	0.225	0.055
-351.508	-107.402	0.051	0.011
-350.493	71.953	0.054	-0.055
-349.479	106.125	-0.109	-0.127
-348.464	718.177	-0.100	0.262
-347.450	596.851	-0.063	0.155
-346.435	-200.000	0.017	0.102
-345.420	-10.064	0.149	0.098
-344.406	-136.091	-0.319	-0.037
-343.391	800.000	-0.057	-0.190
-342.377	-30.644	0.200	-0.112
-341.362	-91.655	-0.206	-0.058
-340.348	157.528	-0.087	0.119
-339.333	-81.223	0.383	-0.125
-338.318	-3.867	0.233	-0.160
-337.304	-108.176	-0.211	-0.045
-336.289	315.502	-0.080	0.148
-335.275	-83.596	0.113	-0.036
-334.260	127.753	0.226	-0.284
-333.245	123.039	0.103	-0.127
-332.231	-169.887	0.285	0.010
-331.216	-200.000	-0.016	0.194
-330.202	-61.974	-0.409	0.169
-329.187	800.000	0.062	0.256
-328.172	52.988	-0.317	0.300
-327.158	243.010	-0.121	0.200
-326.143	60.525	-0.242	0.236
-325.129	43.301	-0.160	-0.144
-324.114	-154.212	-0.252	0.017
-323.099	-200.000	-0.008	0.249
-322.085	800.000	0.143	-0.446
-321.070	800.000	0.074	-0.310
-320.056	-139.021	-0.172	-0.018
-319.041	-28.007	0.099	-0.057
-318.026	-200.000	0.069	0.321
-317.012	-174.843	0.301	0.008
-315.997	-31.900	0.113	-0.062
-314.983	800.000	0.075	0.281
-313.968	11.428	0.120	0.090
-312.953	800.000	-0.016	-0.048
-311.939	-200.000	-0.082	0.426
-310.924	-88.501	0.191	0.056
-309.910	-181.904	-0.197	-0.004
-308.895	572.684	-0.075	0.180
-307.880	-88.438	0.105	0.031
-306.866	314.447	-0.123	0.228
-305.851	42.074	0.250	-0.224
-304.837	-138.092	-0.182	0.020
-303.822	253.884	0.053	0.090
-302.807	-200.000	-0.071	0.403
-301.793	273.349	0.159	0.277
-300.778	62.912	-0.207	-0.204
-299.764	-147.121	0.363	-0.031
-298.749	800.000	0.037	0.155
-297.735	-106.007	0.307	0.068
-296.720	-73.632	0.488	0.175
-295.705	32.506	0.152	0.129
-294.691	-200.000	-0.051	-0.323
-293.676	42.593	-0.088	0.079
-292.662	-83.706	-0.167	0.053
-291.647	25.957	-0.137	0.113
-290.632	195.427	0.165	-0.247
-289.618	-160.313	-0.254	0.014
-288.603	-43.344	0.312	-0.155
-287.589	140.523	-0.141	0.183
-286.574	-85.004	0.216	-0.067
-285.559	80.986	-0.197	0.210
-284.545	-76.785	0.061	0.021
-283.530	-200.000	-0.005	-0.059
-282.516	-30.256	0.068	-0.038
-281.501	-119.133	0.514	-0.088
-280.486	-100.619	-0.296	0.072
-279.472	153.194	0.128	-0.172
-278.457	-116.780	-0.096	0.017
-277.443	-14.373	-0.161	-0.102
-276.428	594.448	0.045	0.109
-275.413	574.475	0.075	-0.180
-274.399	-136.063	-0.485	-0.056
-273.384	-158.232	-0.349	0.020
-272.370	-26.122	0.425	0.246
-271.355	149.410	-0.213	0.284
-270.340	-27.683	0.046	-0.027
-269.326	-37.031	-0.310	-0.164
-268.311	-73.398	0.276	-0.099
-267.297	-125.847	0.226	0.034
-266.282	-200.000	0.002	-0.112
-265.267	-200.000	0.043	0.309
-264.253	-126.496	-0.572	-0.084
-263.238	-200.000	0.011	-0.063
-262.224	-97.531	-0.246	-0.063
-261.209	-200.000	0.012	0.221
-260.195	353.594	-0.155	0.303
-259.180	-139.375	-0.183	-0.019
-258.165	33.291	-0.220	0.188
-257.151	435.104	0.039	0.084
-256.136	55.535	-0.120	0.114
-255.122	77.543	-0.153	0.160
-254.107	-37.641	0.256	0.134
-253.092	599.626	-0.039	-0.095
-252.078	-0.918	-0.139	0.097
-251.063	-9.877	0.037	-0.024
-250.049	800.000	-0.083	0.305
-249.034	186.177	0.087	0.127
-248.019	125.965	-0.153	-0.191
-247.005	-102.241	0.050	-0.012
-245.990	-158.409	-0.045	0.003
-244.976	165.224	-0.202	-0.281
-243.961	-200.000	-0.025	-0.147
-242.946	211.569	0.160	-0.248
-241.932	800.000	-0.136	0.386
-240.917	-200.000	-0.073	-0.363
-239.903	-93.591	-0.303	0.082
-238.888	86.157	-0.125	0.136
-237.873	-36.514	-0.290	0.154
-236.859	329.051	-0.046	0.087
-235.844	-200.000	0.027	-0.182
-234.830	412.106	-0.044	0.091
-233.815	-30.629	0.130	-0.073
-232.800	-8.318	0.198	0.131
-231.786	-137.140	0.041	-0.005
-230.771	18.982	0.160	0.126
-229.757	-168.517	0.049	0.002
-228.742	-51.457	0.157	-0.072
-227.727	-200.000	-0.013	-0.301
-226.713	60.223	0.165	-0.161
-225.698	-4.416	0.355	0.241
-224.684	-200.000	0.067	0.472
-223.669	-200.000	-0.018	-0.168
-222.655	121.566	-0.117	-0.143
-221.640	-200.000	-0.060	0.366
-220.625	38.919	0.309	0.271
-219.611	800.000	0.067	0.230
-218.596	-200.000	0.103	-0.447
-217.582	209.738	-0.210	-0.324
-216.567	73.601	0.391	-0.403
-215.552	85.599	0.073	-0.078
-214.538	-200.000	-0.027	0.202
-213.523	65.252	-0.036	-0.036
-212.509	47.309	-0.173	-0.159
-211.494	-200.000	0.008	-0.211
-210.479	104.243	0.031	-0.036
-209.465	-200.000	-0.030	-0.179
-208.450	-138.580	-0.086	0.009
-207.436	-137.321	0.432	0.048
-206.421	322.133	-0.124	0.233
-205.406	-200.000	-0.046	0.277
-204.392	288.333	0.116	0.206
-203.377	-200.000	0.001	0.227
-202.363	-90.633	-0.329	-0.093
-201.348	-200.000	0.065	0.283
-200.333	-156.883	0.101	-0.006
-199.319	-200.000	0.028	0.268
-198.304	-200.000	-0.041	0.310
-197.290	133.167	0.071	-0.090
-196.275	379.446	0.057	0.114
-195.260	574.692	-0.057	0.136
-194.246	267.668	0.216	0.370
-193.231	-104.756	-0.037	0.008
-192.217	-58.680	0.332	0.141
-191.202	-38.463	0.209	0.108
-190.187	619.027	0.115	-0.284
-189.173	-133.512	0.254	-0.031
-188.158	-200.000	0.013	-0.218
-187.144	800.000	-0.103	-0.308
-186.129	342.904	0.172	-0.331
-185.114	65.383	0.353	-0.350
-184.100	4.028	0.172	-0.124
-183.085	-101.956	0.169	0.040
-182.071	222.925	0.096	-0.152
-181.056	13.371	0.247	-0.188
-180.042	165.795	-0.140	0.194
-179.027	-200.000	0.060	-0.343
-178.012	-98.134	0.155	-0.039
-176.998	-103.823	-0.234	0.054
-175.983	-53.710	0.211	0.094
-174.969	135.289	-0.192	-0.244
-173.954	-77.646	0.188	-0.064
-172.939	-4.359	-0.325	0.221
-171.925	-57.256	-0.101	-0.044
-170.910	-200.000	0.015	0.152
-169.896	800.000	-0.014	0.059
-168.881	98.501	0.253	-0.286
-167.866	-200.000	-0.021	0.136
-166.852	-200.000	0.013	0.288
-165.837	-166.782	0.385	-0.016
-164.823	-200.000	-0.004	-0.089
-163.808	318.079	-0.070	0.130
-162.793	-16.215	0.266	-0.166
-161.779	-108.690	0.313	-0.066
-160.764	800.000	-0.051	-0.162
-159.750	-19.779	0.078	-0.047
-158.735	-94.784	0.363	-0.097
-157.720	147.379	0.138	0.182
-156.706	501.151	-0.103	0.232
-155.691	598.270	0.010	0.025
-154.677	-97.699	0.129	0.033
-153.662	122.228	0.208	0.255
-152.647	-19.319	-0.325	0.198
-151.633	436.320	-0.139	0.296
-150.618	413.838	0.073	0.152
-149.604	220.151	-0.165	0.258
-148.589	389.794	-0.029	-0.059
-147.574	117.474	-0.188	-0.226
-146.560	-200.000	0.020	0.163
-145.545	240.731	0.117	0.190
-144.531	57.433	-0.103	0.099
-143.516	-79.820	0.171	0.056
-142.502	800.000	-0.100	0.298
-141.487	-200.000	0.012	0.070
-140.472	-109.527	-0.157	0.033
-139.458	505.353	0.058	0.132
-138.443	-2.266	-0.191	0.131
-137.429	232.728	-0.073	-0.118
-136.414	369.513	0.053	0.105
-135.399	-5.753	-0.291	0.195
-134.385	199.125	0.161	0.242
-133.370	800.000	0.086	0.249
-132.356	7.208	0.051	-0.038
-131.341	47.020	0.346	0.315
-130.326	132.747	-0.099	-0.126
-129.312	15.802	-0.102	0.079
-128.297	-157.928	0.119	0.007
-127.283	-0.335	0.100	0.070
-126.268	-200.000	-0.007	0.049
-125.253	-137.969	-0.272	0.030
-124.239	-200.000	-0.031	-0.168
-123.224	210.918	-0.211	-0.325
-122.210	321.716	-0.090	-0.167
-121.195	134.704	0.190	-0.241
-120.180	274.309	0.118	-0.205
-119.166	-200.000	-0.018	-0.281
-118.151	-61.251	0.293	-0.121
-117.137	22.945	-0.073	-0.059
-116.122	-30.076	0.200	0.111
-115.107	-46.837	-0.205	0.098
-114.093	-200.000	0.063	-0.280
-113.078	-93.985	-0.213	-0.057
-112.064	-114.175	0.112	-0.021
-111.049	-200.000	-0.026	-0.137
-110.034	-137.441	-0.207	-0.023
-109.020	-31.421	-0.194	-0.107
-108.005	-14.314	-0.122	0.077
-106.991	-150.395	-0.268	-0.020
-105.976	251.622	-0.182	0.303
-104.962	187.558	0.217	-0.316
-103.947	-138.497	0.325	0.035
-102.932	102.607	0.133	0.152
-101.918	-54.928	0.200	0.088
-100.903	-25.044	-0.426	0.247
-99.889	800.000	-0.065	0.219
-98.874	-76.706	-0.122	0.042
-97.859	-200.000	0.009	-0.293
-96.845	-200.000	-0.028	-0.178
-95.830	423.054	0.168	-0.353
-94.816	800.000	0.086	0.254
-93.801	383.186	0.067	-0.135
-92.786	-76.023	0.218	0.075
-91.772	181.222	0.146	-0.209
-90.757	-119.700	-0.289	0.049
-89.743	194.472	0.079	-0.118
-88.728	-200.000	0.008	0.356
-87.713	143.360	0.224	-0.292
-86.699	-31.868	0.033	-0.018
-85.684	800.000	-0.046	-0.161
-84.670	800.000	-0.021	-0.079
-83.655	-200.000	-0.059	-0.267
-82.640	-80.851	-0.200	-0.065
-81.626	170.018	0.136	0.190
-80.611	461.988	-0.093	-0.202
-79.597	-7.216	-0.244	0.162
-78.582	-200.000	0.011	0.175
-77.567	153.473	0.104	0.140
-76.553	800.000	-0.039	-0.142
-75.538	205.876	-0.161	-0.245
-74.524	-200.000	0.310	0.000
-73.509	800.000	0.116	0.376
-72.494	-42.488	-0.159	-0.079
-71.480	34.164	0.133	0.113
-70.465	-200.000	0.003	0.324
-69.451	-65.292	0.393	0.155
-68.436	175.548	-0.121	0.171
-67.422	-80.203	0.280	0.091
-66.407	-126.760	0.328	0.047
-65.392	800.000	-0.047	0.151
-64.378	-55.862	0.221	-0.096
-63.363	-16.822	0.365	-0.225
-62.349	172.818	-0.037	-0.052
-61.334	82.702	-1.026	-1.089
-60.319	172.804	0.396	0.557
-59.305	800.000	-0.360	-1.087
-58.290	693.240	0.481	1.232
-57.276	638.770	0.510	1.265
-56.261	-200.000	121.468	617.013
-55.246	385.858	1568.623	3160.539
-54.232	140.203	2742.799	3532.445
-53.217	95.206	2185.018	2430.141
-52.203	35.935	1611.775	1384.440
-51.188	27.318	1353.946	1110.598
-50.173	24.701	1315.733	1063.665
-49.159	50.418	1383.530	1276.777
-48.144	48.382	1395.283	1275.129
-47.130	27.420	1343.670	1102.610
-46.115	24.213	1324.512	1067.671
-45.100	24.009	1319.362	1062.258
-44.086	23.918	1317.374	1060.072
-43.071	23.938	1314.916	1058.170
-42.057	23.843	1313.174	1056.166
-41.042	23.948	1311.395	1055.312
-40.027	24.025	1309.276	1054.023
-39.013	23.970	1307.968	1052.604
-37.998	24.010	1306.223	1051.391
-36.984	23.987	1304.718	1050.002
-35.969	24.105	1302.590	1048.946
-34.954	24.050	1300.659	1047.026
-33.940	24.014	1299.796	1046.075
-32.925	24.144	1298.534	1045.785
-31.911	24.106	1296.587	1043.949
-30.896	24.031	1295.599	1042.676
-29.881	24.116	1294.100	1041.926
-28.867	24.248	1292.938	1041.720
-27.852	24.182	1291.661	1040.262
-26.838	24.171	1290.575	1039.285
-25.823	24.279	1288.659	1038.329
-24.809	24.208	1287.368	1036.835
-23.794	24.168	1285.565	1035.107
-22.779	24.116	1284.793	1034.145
-21.765	24.159	1283.469	1033.284
-20.750	24.168	1282.450	1032.475
-19.736	24.074	1280.969	1030.699
-18.721	24.021	1280.428	1029.915
-17.706	23.873	1279.366	1028.167
-16.692	24.050	1276.980	1027.228
-15.677	23.999	1276.710	1026.675
-14.663	24.094	1275.313	1026.061
-13.648	24.021	1274.136	1024.650
-12.633	23.966	1273.487	1023.775
-11.619	23.950	1272.662	1022.978
-10.604	24.006	1271.581	1022.390
-9.590	24.023	1270.428	1021.521
-8.575	23.957	1269.391	1020.267
-7.560	24.067	1268.571	1020.198
-6.546	24.076	1267.774	1019.565
-5.531	23.926	1267.151	1018.165
-4.517	24.024	1266.151	1017.885
-3.502	24.099	1265.371	1017.646
-2.487	24.011	1264.633	1016.507
-1.473	23.984	1260.066	1012.642
-0.458	22.746	1245.045	993.565
0.556	18.666	1229.030	958.754
1.571	15.092	1236.540	944.406
2.586	14.319	1251.895	951.632
3.600	14.243	1239.643	941.806
4.615	10.594	1166.495	866.695
5.629	4.003	1093.863	779.553
6.644	0.775	1076.729	751.253
7.659	0.618	1074.890	749.127
8.673	0.744	1073.849	748.961
9.688	0.603	1072.819	747.477
10.702	0.886	1070.608	747.267
11.717	4.843	1075.194	769.994
12.731	11.702	1083.948	810.283
13.746	16.169	1089.332	836.435
14.761	17.253	1090.150	842.363
15.775	16.630	1088.434	837.882
16.790	15.546	1086.772	831.167
17.804	14.872	1085.350	826.671
18.819	14.486	1084.220	823.832
19.834	14.311	1083.277	822.180
20.848	14.021	1082.571	820.139
21.863	13.896	1081.164	818.382
22.877	13.652	1080.850	816.874
23.892	13.505	1080.180	815.567
24.907	13.552	1079.721	815.383
25.921	13.624	1078.539	814.773
26.936	13.689	1077.406	814.160
27.950	13.673	1076.769	813.530
28.965	13.744	1075.113	812.557
29.980	13.753	1073.735	811.484
30.994	13.851	1072.334	810.836
32.009	13.793	1071.965	810.202
33.023	13.876	1070.745	809.611
34.038	13.697	1070.029	808.124
35.053	13.673	1068.934	807.109
36.067	13.716	1067.936	806.493
37.082	13.799	1067.020	806.136
38.096	13.751	1066.566	805.489
39.111	13.774	1065.357	804.616
40.126	13.769	1063.982	803.483
41.140	13.607	1062.856	801.775
42.155	13.593	1061.821	800.858
43.169	13.582	1060.961	800.082
44.184	13.536	1059.921	799.007
45.199	13.574	1058.585	798.112
46.213	13.675	1057.475	797.691
47.228	13.607	1056.520	796.575
48.242	13.603	1055.511	795.721
49.257	13.639	1054.800	795.287
50.271	13.709	1053.992	794.943
51.286	13.651	1053.064	793.896
52.301	13.744	1051.500	793.092
53.315	13.633	1050.939	792.068
54.330	13.591	1049.465	790.688
55.344	13.628	1048.844	790.327
56.359	13.728	1047.717	789.882
57.374	13.626	1047.179	788.922
58.388	13.561	1046.448	787.991
59.403	13.494	1045.418	786.827
60.417	13.513	1044.407	786.090
61.432	13.551	1043.516	785.528
62.447	13.428	1043.250	784.674
63.461	13.416	1041.893	783.528
64.476	13.517	1040.716	783.054
65.490	13.566	1040.718	783.214
66.505	13.400	1040.257	782.013
67.520	13.486	1039.180	781.542
68.534	13.550	1038.370	781.165
69.549	13.521	1037.744	780.487
70.563	13.661	1036.461	780.115
71.578	13.515	1036.430	779.333
72.593	13.639	1035.142	778.881
73.607	13.585	1034.372	777.979
74.622	13.503	1033.952	777.208
75.636	13.552	1032.818	776.517
76.651	13.490	1032.475	775.898
77.666	13.377	1031.973	774.924
78.680	13.552	1030.922	774.886
79.695	13.589	1030.332	774.548
80.709	13.544	1029.834	773.891
81.724	13.630	1029.057	773.642
82.739	13.594	1028.367	772.887
83.753	13.607	1027.572	772.282
84.768	13.718	1026.417	771.862
85.782	13.882	1025.423	771.809
86.797	13.701	1024.589	770.273
87.812	13.651	1023.893	769.446
88.826	13.754	1022.477	768.793
89.841	13.655	1021.857	767.802
90.855	13.748	1020.972	767.500
91.870	13.682	1020.295	766.615
92.884	13.815	1019.162	766.314
93.899	13.768	1018.382	765.439
94.914	13.771	1017.748	764.912
95.928	13.760	1016.960	764.200
96.943	13.657	1016.276	763.145
97.957	13.811	1014.774	762.657
98.972	13.781	1014.354	762.135
99.987	13.867	1012.975	761.425
101.001	13.837	1012.226	760.660
102.016	13.710	1011.567	759.516
103.030	13.807	1010.620	759.180
104.045	13.789	1009.850	758.450
105.060	13.713	1009.265	757.598
106.074	13.733	1008.048	756.710
107.089	13.616	1007.336	755.574
108.103	13.716	1006.168	755.085
109.118	13.667	1005.256	754.111
110.133	13.667	1004.554	753.520
111.147	13.584	1003.744	752.467
112.162	13.634	1003.157	752.190
113.176	13.779	1001.742	751.720
114.191	13.708	1001.191	750.915
115.206	13.686	1000.381	750.141
116.220	13.694	999.375	749.360
117.235	13.771	998.393	748.901
118.249	13.630	997.467	747.508
119.264	13.677	996.978	747.286
120.279	13.682	996.089	746.576
121.293	13.635	994.852	745.370
122.308	13.708	994.409	745.301
123.322	13.517	993.606	743.775
124.337	13.610	992.657	743.416
125.352	13.605	991.749	742.650
126.366	13.735	990.251	742.042
127.381	13.592	989.195	740.548
128.395	13.569	988.515	739.871
129.410	13.602	987.340	739.072
130.424	13.494	986.917	738.208
131.439	13.801	985.825	738.692
132.454	13.628	985.657	737.732
133.468	13.687	984.356	736.954
134.483	13.655	983.391	736.027
135.497	13.830	982.128	735.789
136.512	13.735	981.656	734.951
137.527	13.656	980.883	733.956
138.541	13.669	980.151	733.401
139.556	13.765	979.475	733.258
140.570	13.893	978.480	733.012
141.585	13.868	977.847	732.361
142.600	13.808	977.056	731.441
143.614	13.926	975.878	731.013
144.629	13.967	974.981	730.455
145.643	13.918	974.367	729.716
146.658	13.967	972.819	728.709
147.673	13.908	972.305	727.999
148.687	13.855	971.681	727.237
149.702	13.846	970.763	726.446
150.716	13.811	969.784	725.495
151.731	13.715	969.565	724.847
152.746	13.794	968.384	724.246
153.760	13.909	968.119	724.483
154.775	13.960	967.440	724.136
155.789	13.916	966.681	723.310
156.804	14.041	965.876	723.191
157.819	14.119	964.772	722.637
158.833	13.966	964.635	721.808
159.848	14.086	963.778	721.622
160.862	13.922	962.902	720.192
161.877	14.008	961.553	719.491
162.892	14.011	960.852	718.915
163.906	14.109	959.890	718.557
164.921	14.051	959.439	717.906
165.935	14.012	958.006	716.599
166.950	14.013	957.540	716.194
167.964	14.084	956.319	715.522
168.979	14.017	955.818	714.794
169.994	14.115	954.476	714.151
171.008	14.061	953.963	713.472
172.023	14.175	953.105	713.256
173.037	14.162	952.772	712.887
174.052	14.202	951.559	712.087
175.067	14.080	951.162	711.205
176.081	14.133	950.858	711.143
177.096	14.178	950.170	710.755
178.110	14.142	949.670	710.165
179.125	14.195	949.162	709.950
180.140	14.353	948.041	709.721
181.154	14.153	948.284	708.986
182.169	14.121	947.797	708.425
183.183	14.240	947.156	708.390
184.198	14.221	945.969	707.356
185.213	14.389	945.321	707.526
186.227	14.271	944.780	706.557
187.242	14.286	944.410	706.282
188.256	14.411	943.493	706.061
189.271	14.280	942.752	704.889
190.286	14.359	941.512	704.234
191.300	14.239	941.486	703.647
192.315	14.179	940.511	702.602
193.329	14.088	940.393	702.069
194.344	14.429	939.175	702.533
195.359	14.435	938.532	702.014
196.373	14.354	938.272	701.419
197.388	14.481	937.630	701.410
198.402	14.418	937.048	700.650
199.417	14.479	936.262	700.255
200.432	14.467	936.181	700.080
201.446	14.444	935.669	699.538
202.461	14.678	934.577	699.645
203.475	14.797	933.834	699.522
204.490	14.625	933.105	698.193
205.504	14.569	932.878	697.729
206.519	14.613	931.470	696.799
207.534	14.598	931.114	696.407
208.548	14.460	930.719	695.473
209.563	14.397	930.370	694.892
210.577	14.529	929.373	694.631
211.592	14.725	928.240	694.539
212.607	14.692	927.406	693.719
213.621	14.867	926.344	693.588
214.636	14.758	925.945	692.775
215.650	14.726	925.270	692.076
216.665	14.766	924.779	691.814
217.680	14.857	923.694	691.317
218.694	14.714	923.559	690.566
219.709	14.788	922.829	690.262
220.723	14.758	922.051	689.497
221.738	14.748	921.611	689.064
222.753	14.822	920.370	688.381
223.767	14.954	919.993	688.580
224.782	14.908	919.564	688.009
225.796	14.907	918.898	687.447
226.811	14.894	918.239	686.840
227.826	14.855	917.546	686.102
228.840	15.009	916.712	686.046
229.855	14.865	915.955	684.832
230.869	14.904	915.443	684.545
231.884	14.944	914.643	684.051
232.899	14.890	913.970	683.267
233.913	14.863	913.059	682.417
234.928	14.922	911.918	681.742
235.942	14.868	911.772	681.352
236.957	15.125	911.008	681.769
237.972	14.960	910.568	680.707
238.986	14.920	910.003	680.061
240.001	14.962	909.203	679.573
241.015	14.995	908.752	679.312
242.030	14.944	908.140	678.587
243.045	15.102	907.010	678.325
244.059	15.026	906.831	677.822
245.074	15.010	906.384	677.360
246.088	14.922	905.592	676.354
247.103	15.197	904.431	676.539
248.117	15.139	904.183	676.060
249.132	15.187	903.657	675.798
250.147	15.211	902.934	675.293
251.161	15.241	901.989	674.648
252.176	15.431	901.176	674.747
253.190	15.364	900.592	673.981
254.205	15.389	900.130	673.674
255.220	15.410	899.313	673.086
256.234	15.393	898.569	672.401
257.249	15.427	897.855	671.944
258.263	15.423	897.450	671.568
259.278	15.539	896.272	671.088
260.293	15.520	896.223	670.919
261.307	15.488	895.463	670.161
262.322	15.594	894.550	669.843
263.336	15.557	893.703	669.000
264.351	15.688	893.085	669.000
265.366	15.548	892.798	668.171
266.380	15.735	891.889	668.173
267.395	15.563	891.527	667.158
268.409	15.628	890.663	666.710
269.424	15.539	889.857	665.694
270.439	15.737	889.204	665.931
271.453	15.626	888.500	664.908
272.468	15.756	887.973	664.967
273.482	15.641	887.192	663.869
274.497	15.662	887.005	663.756
275.512	15.732	886.471	663.573
276.526	15.711	885.677	662.837
277.541	15.737	885.483	662.737
278.555	15.662	884.807	661.876
279.570	15.772	883.818	661.511
280.585	15.681	883.296	660.703
281.599	15.854	882.275	660.559
282.614	15.868	882.011	660.357
283.628	15.842	880.692	659.210
284.643	15.947	880.398	659.344
285.657	15.944	879.744	658.784
286.672	15.887	879.222	658.113
287.687	15.745	878.823	657.200
288.701	15.760	878.325	656.826
289.716	15.863	877.897	656.854
290.730	15.984	877.076	656.652
291.745	15.824	876.582	655.598
292.760	16.037	875.564	655.610
293.774	16.036	875.200	655.274
294.789	15.909	874.562	654.244
295.803	16.191	873.252	654.303
296.818	16.140	872.740	653.661
297.833	16.201	872.145	653.395
298.847	16.107	871.669	652.618
299.862	16.035	871.222	651.948
300.876	15.983	871.176	651.651
301.891	16.267	870.035	651.840
302.906	16.118	869.279	650.638
303.920	16.260	868.926	650.866
304.935	16.274	868.182	650.306
305.949	16.199	867.674	649.580
306.964	16.171	866.987	648.900
307.979	16.288	866.221	648.718
308.993	16.418	865.561	648.665
310.008	16.267	865.199	647.756
311.022	16.320	864.653	647.495
312.037	16.293	864.537	647.245
313.052	16.121	863.896	646.051
314.066	16.321	863.416	646.398
315.081	16.327	862.374	645.585
316.095	16.248	861.691	644.716
317.110	16.385	861.183	644.800
318.125	16.358	860.841	644.385
319.139	16.301	860.702	644.007
320.154	16.405	859.991	643.811
321.168	16.301	859.125	642.711
322.183	16.438	858.674	642.841
323.197	16.343	858.094	641.988
324.212	16.496	857.561	642.114
325.227	16.419	856.837	641.221
326.241	16.493	856.599	641.266
327.256	16.400	856.069	640.461
328.270	16.469	855.385	640.154
329.285	16.498	854.389	639.462
330.300	16.470	854.070	639.061
331.314	16.469	853.614	638.659
332.329	16.511	853.519	638.692
333.343	16.472	852.979	638.083
334.358	16.583	852.145	637.820
335.373	16.430	852.043	637.111
336.387	16.538	851.679	637.189
337.402	16.607	851.463	637.233
338.416	16.735	850.783	637.147
339.431	16.640	850.761	636.719
340.446	16.770	849.705	636.359
341.460	16.692	849.756	636.047
342.475	16.834	849.104	636.037
343.489	16.830	848.810	635.744
344.504	16.734	848.377	635.004
345.519	16.682	847.838	634.348
346.533	16.916	847.275	634.750
347.548	16.861	846.741	634.086
348.562	16.830	846.097	633.432
349.577	16.886	845.330	633.010
350.592	16.888	844.972	632.693
351.606	16.867	844.326	632.077
352.621	16.815	843.880	631.492
353.635	16.816	843.300	631.005
354.650	16.922	842.267	630.571
355.665	16.849	841.772	629.875
356.679	16.921	841.267	629.710
357.694	16.910	840.519	629.051
358.708	16.833	839.873	628.228
359.723	16.997	839.352	628.390
360.738	16.929	838.574	627.499
361.752	17.119	837.790	627.561
362.767	16.969	837.693	626.876
363.781	16.939	837.131	626.291
364.796	17.166	836.483	626.586
365.810	17.164	836.408	626.467
366.825	17.170	836.271	626.335
367.840	16.981	835.401	624.931
368.854	17.165	834.938	625.205
369.869	17.209	834.506	624.987
370.883	17.297	833.814	624.738
371.898	17.179	834.028	624.409
372.913	17.286	833.267	624.177
373.927	17.314	832.467	623.626
374.942	17.333	832.084	623.355
375.956	17.266	832.209	623.148
376.971	17.260	831.377	622.445
377.986	17.334	830.849	622.268
379.000	17.434	830.330	622.189
380.015	17.495	829.950	622.070
381.029	17.452	829.293	621.367
382.044	17.345	828.834	620.579
383.059	17.457	828.339	620.560
384.073	17.352	828.102	619.944
385.088	17.487	827.143	619.666
386.102	17.402	826.279	618.654
387.117	17.511	825.870	618.687
388.132	17.529	825.388	618.339
389.146	17.419	825.021	617.610
390.161	17.421	824.492	617.164
391.175	17.718	823.834	617.696
392.190	17.479	823.427	616.469
393.205	17.599	822.874	616.436
394.219	17.438	822.619	615.607
395.234	17.583	822.208	615.771
396.248	17.597	821.534	615.261
397.263	17.489	821.395	614.713
398.278	17.491	820.831	614.242
399.292	17.466	820.857	614.117
400.307	17.576	819.975	613.798
401.321	17.636	819.201	613.380
402.336	17.583	819.150	613.099
403.350	17.693	818.642	613.061
404.365	17.698	818.271	612.746
405.380	17.620	817.717	611.997
406.394	17.634	817.301	611.680
407.409	17.766	816.908	611.807
408.423	17.913	816.497	611.971
409.438	17.901	816.102	611.580
410.453	17.872	815.694	611.114
411.467	17.925	815.309	610.961
412.482	17.923	814.835	610.544
413.496	17.939	814.407	610.229
414.511	17.929	813.977	609.817
415.526	17.976	813.467	609.547
416.540	18.077	813.016	609.514
417.555	18.056	812.472	608.981
418.569	17.977	811.985	608.280
419.584	17.948	811.721	607.925
420.599	18.081	811.144	607.913
421.613	114.122	1298.934	1485.257
422.628	98.716	1369.955	1485.347
