DTS Sentinel unit serial number:	SN413079Multiplexer serial number:	ORYXHardware model number:	OX4-SRSoftware version number:	ORYX F/W v4.00 Oryx Data Collector v3.7.2.0data status	okinstallation	princeton_trtdifferential loss correction	single-endedforward channel	channel 1reverse channel	N/Adate	2019/09/12time	06:28:11forward acquisition time	60.00reverse acquisition time	0.00gamma	496.2192k internal	0.2320k external	0.2320temperature offset calibration	1.0044default loss term (dB/km)	0.3790temperature slope calibration	1.0000multiplexer offset coefficient	1.0000multiplexer slope coefficient	1.0000fibre end	0.00T internal ref (°C)	32.12T ext. ref 1 (°C)	1.57T ext. ref 2 (°C)	27.37length (m)	temperature (°C)	Stokes	anti-Stokes-747.200	-33.962	-0.443	0.247
-746.185	800.000	-0.073	0.303
-745.171	-117.166	-0.410	-0.075
-744.156	-35.859	-0.088	0.048
-743.142	283.202	0.015	-0.027
-742.127	-122.817	-0.253	-0.041
-741.112	-0.459	-0.115	-0.082
-740.098	-40.879	0.149	0.078
-739.083	68.978	-0.178	-0.185
-738.069	637.966	0.112	0.288
-737.054	14.735	-0.218	-0.172
-736.039	-85.828	0.044	-0.014
-735.025	-59.657	0.293	0.127
-734.010	-5.978	-0.156	0.108
-732.996	800.000	0.082	-0.321
-731.981	-185.579	-0.269	0.004
-730.966	-172.770	0.302	0.010
-729.952	-25.852	-0.169	-0.101
-728.937	610.701	-0.078	-0.196
-727.923	800.000	0.023	-0.072
-726.908	670.491	-0.085	-0.222
-725.894	-77.122	-0.482	-0.170
-724.879	-135.379	0.210	-0.025
-723.864	-114.722	0.378	-0.073
-722.850	192.855	-0.203	0.310
-721.835	-200.000	-0.014	-0.160
-720.821	99.088	0.094	0.109
-719.806	85.447	-0.261	0.289
-718.791	77.445	-0.175	-0.189
-717.777	-80.847	0.314	-0.105
-716.762	800.000	-0.029	-0.090
-715.748	800.000	0.052	-0.154
-714.733	13.885	-0.125	0.098
-713.718	-83.978	-0.164	-0.053
-712.704	527.321	0.059	-0.141
-711.689	15.388	-0.164	-0.130
-710.675	-71.950	-0.142	0.053
-709.660	-13.120	-0.125	0.082
-708.645	-200.000	-0.054	-0.380
-707.631	800.000	0.024	0.069
-706.616	132.406	0.163	-0.212
-705.602	-135.516	0.194	-0.023
-704.587	156.560	-0.168	-0.234
-703.572	-27.696	0.042	0.024
-702.558	73.545	0.096	-0.102
-701.543	36.177	0.285	-0.253
-700.529	235.894	-0.045	-0.075
-699.514	-28.661	0.121	0.070
-698.499	-200.000	-0.003	0.033
-697.485	-25.762	-0.140	0.083
-696.470	41.125	0.087	-0.080
-695.456	45.892	0.088	0.083
-694.441	473.510	0.130	-0.295
-693.426	800.000	-0.043	-0.164
-692.412	-166.893	0.083	0.003
-691.397	440.928	-0.086	0.189
-690.383	800.000	0.078	0.295
-689.368	310.551	-0.234	-0.443
-688.354	53.544	-0.052	0.050
-687.339	207.285	0.036	-0.056
-686.324	-97.438	0.149	0.039
-685.310	39.179	-0.094	-0.085
-684.295	-200.000	-0.043	0.259
-683.281	-200.000	0.032	-0.142
-682.266	-172.845	-0.327	0.010
-681.251	-12.264	-0.092	-0.061
-680.237	519.788	0.093	0.221
-679.222	-102.491	-0.368	-0.089
-678.208	-51.451	-0.416	-0.196
-677.193	70.775	-0.103	-0.107
-676.178	89.540	0.109	0.122
-675.164	-200.000	0.022	-0.308
-674.149	-69.394	0.219	-0.085
-673.135	-200.000	-0.058	0.276
-672.120	-200.000	-0.022	0.187
-671.105	-200.000	-0.002	0.287
-670.091	29.858	0.344	0.296
-669.076	-146.773	-0.349	0.030
-668.062	-171.696	-0.059	0.002
-667.047	-0.997	0.172	-0.122
-666.032	800.000	0.032	0.101
-665.018	15.882	-0.305	-0.242
-664.003	54.138	0.293	0.284
-662.989	-200.000	-0.027	-0.159
-661.974	-25.889	-0.237	-0.141
-660.959	800.000	-0.107	-0.374
-659.945	800.000	0.114	-0.328
-658.930	-64.818	0.378	-0.154
-657.916	123.778	-0.143	0.181
-656.901	-200.000	-0.010	-0.201
-655.886	156.458	0.264	0.368
-654.872	800.000	0.105	-0.310
-653.857	800.000	0.093	-0.364
-652.843	-58.839	-0.196	0.085
-651.828	96.793	0.223	-0.258
-650.814	-44.457	-0.141	0.071
-649.799	-200.000	0.042	0.220
-648.784	383.054	0.066	0.137
-647.770	-200.000	-0.005	-0.159
-646.755	-170.283	-0.051	-0.002
-645.741	-200.000	0.008	0.038
-644.726	800.000	-0.008	-0.031
-643.711	800.000	0.016	-0.053
-642.697	-200.000	-0.029	-0.138
-641.682	490.000	-0.145	-0.334
-640.668	-56.788	-0.209	0.093
-639.653	-200.000	0.001	-0.214
-638.638	-33.407	0.070	0.039
-637.624	-200.000	-0.068	-0.389
-636.609	408.971	0.078	-0.167
-635.595	-109.282	0.255	-0.054
-634.580	228.531	0.075	-0.122
-633.565	800.000	-0.051	0.187
-632.551	-132.896	-0.307	-0.039
-631.536	-92.372	0.183	-0.052
-630.522	-79.146	-0.269	-0.092
-629.507	-64.434	-0.196	0.080
-628.492	-200.000	0.019	0.134
-627.478	-88.919	-0.480	-0.143
-626.463	106.678	-0.148	0.176
-625.449	619.712	-0.061	0.155
-624.434	-26.015	-0.217	0.128
-623.419	-134.781	0.151	-0.018
-622.405	-75.666	0.033	0.012
-621.390	127.337	0.046	-0.059
-620.376	168.791	-0.077	-0.111
-619.361	-92.255	-0.244	-0.069
-618.346	-200.000	-0.248	0.001
-617.332	-12.821	0.149	0.098
-616.317	261.696	-0.072	0.125
-615.303	-134.243	-0.210	0.026
-614.288	146.589	0.098	-0.133
-613.273	-101.874	-0.597	0.145
-612.259	-200.000	0.057	0.378
-611.244	-200.000	0.035	-0.300
-610.230	92.404	-0.055	-0.062
-609.215	623.855	0.024	-0.061
-608.201	-46.949	0.240	0.118
-607.186	-200.000	0.015	0.074
-606.171	-200.000	0.018	0.337
-605.157	-200.000	-0.042	-0.210
-604.142	23.424	-0.183	-0.151
-603.128	88.395	-0.218	0.244
-602.113	194.925	0.126	0.192
-601.098	-200.000	0.037	0.340
-600.084	238.423	-0.042	-0.069
-599.069	71.783	-0.173	0.181
-598.055	-116.400	-0.199	0.037
-597.040	165.464	0.106	0.151
-596.025	-200.000	-0.019	-0.178
-595.011	-97.627	-0.367	-0.096
-593.996	179.796	0.140	0.207
-592.982	14.769	-0.294	0.231
-591.967	-137.938	-0.291	0.033
-590.952	-94.352	0.293	-0.080
-589.938	358.060	-0.085	-0.170
-588.923	287.406	-0.101	-0.183
-587.909	634.368	0.094	-0.239
-586.894	58.493	-0.078	0.077
-585.879	-28.064	0.149	-0.086
-584.865	-50.761	0.271	-0.128
-583.850	-138.269	0.337	-0.037
-582.836	-200.000	0.003	0.041
-581.821	19.497	0.060	-0.048
-580.806	-23.397	-0.201	-0.121
-579.792	-182.836	-0.130	0.002
-578.777	-83.843	-0.396	0.127
-577.763	159.988	0.030	0.042
-576.748	130.114	0.129	0.166
-575.733	800.000	0.069	-0.280
-574.719	-200.000	0.009	-0.430
-573.704	-30.284	0.180	-0.103
-572.690	20.200	0.133	-0.107
-571.675	-91.292	-0.175	0.050
-570.661	-200.000	-0.014	0.272
-569.646	-64.752	-0.146	0.059
-568.631	-200.000	0.051	-0.339
-567.617	-200.000	-0.043	0.242
-566.602	-60.527	0.102	0.044
-565.588	-103.031	-0.252	-0.060
-564.573	-200.000	-0.273	0.000
-563.558	34.353	0.176	0.154
-562.544	800.000	0.031	-0.125
-561.529	128.138	-0.051	0.065
-560.515	-64.768	0.136	0.055
-559.500	-88.992	0.265	0.079
-558.485	-116.806	-0.157	0.029
-557.471	800.000	-0.040	0.144
-556.456	-147.947	0.217	0.018
-555.442	560.638	0.077	-0.187
-554.427	762.807	0.021	0.059
-553.412	33.360	-0.283	0.246
-552.398	76.586	-0.159	0.169
-551.383	233.213	-0.034	-0.056
-550.369	-157.596	0.198	0.012
-549.354	66.009	0.164	-0.166
-548.339	64.595	0.342	-0.346
-547.325	84.421	-0.326	0.357
-546.310	-83.168	-0.195	0.063
-545.296	25.930	-0.086	-0.072
-544.281	-200.000	-0.017	-0.288
-543.266	81.284	0.327	-0.354
-542.252	-107.533	-0.466	-0.102
-541.237	-60.561	0.042	0.018
-540.223	-93.198	0.098	0.027
-539.208	240.378	0.111	0.185
-538.193	-27.634	0.431	0.251
-537.179	65.530	-0.116	0.118
-536.164	13.301	0.226	0.176
-535.150	614.108	0.147	0.369
-534.135	-200.000	0.028	-0.241
-533.121	-6.736	0.114	-0.078
-532.106	-200.000	-0.010	-0.174
-531.091	800.000	0.041	-0.158
-530.077	-200.000	-0.005	-0.056
-529.062	98.911	0.067	0.078
-528.048	-95.364	-0.505	0.136
-527.033	61.232	0.173	0.172
-526.018	-69.980	0.388	-0.148
-525.004	-101.780	0.332	-0.081
-523.989	800.000	-0.146	0.410
-522.975	-103.259	-0.298	0.071
-521.960	161.875	0.163	-0.229
-520.945	-166.211	-0.190	-0.008
-519.931	-113.040	0.134	0.026
-518.916	-200.000	0.011	-0.061
-517.902	-200.000	0.011	-0.058
-516.887	-60.381	0.203	0.087
-515.872	215.025	-0.083	-0.132
-514.858	126.694	0.096	-0.122
-513.843	-200.000	-0.004	-0.177
-512.829	33.937	0.057	-0.050
-511.814	84.448	0.142	-0.156
-510.799	-115.816	-0.238	0.045
-509.785	-200.000	-0.023	-0.206
-508.770	-36.030	0.207	-0.112
-507.756	-200.000	0.027	-0.144
-506.741	148.821	0.039	-0.052
-505.726	-58.822	-0.131	0.057
-504.712	-18.606	0.302	-0.189
-503.697	800.000	-0.032	0.113
-502.683	20.914	0.121	0.098
-501.668	1.759	0.110	-0.080
-500.653	800.000	0.006	0.024
-499.639	-62.059	0.280	-0.117
-498.624	214.589	-0.150	0.239
-497.610	-200.000	0.006	-0.079
-496.595	-101.946	-0.341	-0.082
-495.581	5.593	-0.235	0.174
-494.566	554.958	-0.108	-0.261
-493.551	122.912	-0.190	-0.238
-492.537	183.932	0.123	-0.183
-491.522	-126.726	0.283	-0.042
-490.508	800.000	-0.042	-0.168
-489.493	-200.000	-0.018	0.172
-488.478	487.756	-0.074	0.168
-487.464	3.019	0.257	0.187
-486.449	457.868	0.078	-0.174
-485.435	157.916	-0.322	-0.447
-484.420	-200.000	0.157	0.000
-483.405	60.522	-0.076	-0.076
-482.391	118.009	-0.337	-0.416
-481.376	137.313	-0.211	-0.276
-480.362	-14.247	0.310	-0.200
-479.347	-200.000	0.008	-0.191
-478.332	221.156	0.024	-0.038
-477.318	-156.892	0.087	0.005
-476.303	800.000	-0.038	0.153
-475.289	162.476	-0.059	-0.082
-474.274	-79.785	0.214	0.072
-473.259	-76.045	-0.044	-0.016
-472.245	140.053	0.259	0.342
-471.230	318.803	0.094	0.179
-470.216	63.336	-0.237	0.238
-469.201	-135.038	0.168	0.020
-468.186	-28.985	-0.126	-0.073
-467.172	14.609	0.253	-0.198
-466.157	634.798	-0.179	-0.455
-465.143	38.707	0.220	-0.196
-464.128	-123.207	0.221	0.035
-463.113	53.989	0.052	0.050
-462.099	786.759	-0.077	0.212
-461.084	-85.415	-0.203	-0.063
-460.070	129.762	-0.034	-0.043
-459.055	-200.000	-0.016	0.108
-458.040	-200.000	-0.007	0.283
-457.026	-200.000	0.032	-0.214
-456.011	67.693	-0.058	-0.059
-454.997	-79.120	0.397	-0.135
-453.982	-200.000	0.047	0.340
-452.968	-81.206	0.034	-0.011
-451.953	-11.390	0.155	-0.102
-450.938	-200.000	0.012	0.208
-449.924	800.000	0.019	0.068
-448.909	86.083	-0.034	0.037
-447.895	-161.299	-0.121	-0.006
-446.880	-78.071	0.301	0.104
-445.865	-45.969	-0.236	-0.116
-444.851	-55.276	0.078	0.035
-443.836	135.819	0.119	-0.155
-442.822	-61.429	0.227	-0.095
-441.807	147.789	0.120	-0.162
-440.792	-200.000	-0.001	-0.027
-439.778	-49.417	0.122	0.058
-438.763	-200.000	0.011	-0.074
-437.749	-156.971	-0.539	0.033
-436.734	-78.364	0.042	-0.014
-435.719	800.000	0.114	-0.316
-434.705	505.952	0.111	0.258
-433.690	-200.000	0.014	0.342
-432.676	800.000	-0.054	0.229
-431.661	286.391	0.022	0.041
-430.646	-38.842	-0.219	-0.116
-429.632	-200.000	-0.017	0.325
-428.617	-86.012	-0.042	-0.013
-427.603	278.011	0.078	0.138
-426.588	70.939	-0.089	0.092
-425.573	640.168	0.116	-0.294
-424.559	150.273	0.060	-0.081
-423.544	-24.238	-0.292	-0.174
-422.530	-200.000	-0.034	0.278
-421.515	67.861	0.243	0.248
-420.500	168.473	-0.151	-0.215
-419.486	75.893	-0.084	-0.089
-418.471	-200.000	0.022	0.387
-417.457	800.000	-0.110	0.351
-416.442	232.143	0.149	-0.244
-415.428	-111.500	-0.203	0.041
-414.413	-200.000	0.203	-0.000
-413.398	72.947	0.295	-0.307
-412.384	41.295	0.370	0.334
-411.369	-200.000	0.022	-0.123
-410.355	800.000	-0.028	-0.086
-409.340	130.691	0.128	-0.164
-408.325	79.851	-0.160	0.172
-407.311	-107.345	0.258	-0.057
-406.296	68.912	0.096	-0.098
-405.282	-99.508	-0.341	-0.086
-404.267	738.854	-0.075	0.202
-403.252	-33.347	-0.200	-0.111
-402.238	1.032	-0.071	0.051
-401.223	-121.276	-0.232	-0.039
-400.209	155.456	0.081	0.111
-399.194	-77.867	-0.156	-0.054
-398.179	-200.000	-0.007	-0.110
-397.165	153.079	0.127	-0.174
-396.150	100.244	-0.295	0.342
-395.136	706.171	0.025	0.066
-394.121	94.488	0.106	-0.120
-393.106	-200.000	-0.014	-0.092
-392.092	-26.299	-0.040	-0.024
-391.077	-47.423	-0.185	-0.090
-390.063	-5.550	-0.025	0.017
-389.048	630.088	-0.056	0.141
-388.033	39.838	0.242	0.216
-387.019	-200.000	0.005	0.146
-386.004	800.000	-0.071	0.211
-384.990	0.860	-0.045	0.032
-383.975	347.254	0.079	-0.156
-382.960	80.912	0.146	0.157
-381.946	-134.943	-0.137	0.017
-380.931	-33.799	0.474	-0.261
-379.917	86.376	-0.152	0.167
-378.902	93.518	0.122	-0.138
-377.888	-14.416	0.282	0.181
-376.873	-95.499	-0.084	0.023
-375.858	-200.000	0.020	0.205
-374.844	-84.751	-0.108	-0.034
-373.829	240.051	0.189	0.314
-372.815	-6.406	0.347	-0.236
-371.800	474.225	0.109	0.246
-370.785	-200.000	0.043	0.239
-369.771	20.555	-0.261	0.210
-368.756	296.516	-0.140	0.256
-367.742	236.065	-0.134	-0.220
-366.727	-13.831	0.318	-0.205
-365.712	-200.000	0.021	-0.247
-364.698	-51.965	-0.143	0.066
-363.683	-88.806	-0.125	0.037
-362.669	-200.000	-0.009	-0.095
-361.654	161.799	0.253	0.353
-360.639	-138.110	-0.056	0.006
-359.625	16.395	0.167	0.131
-358.610	86.926	-0.034	0.038
-357.596	3.590	0.181	-0.131
-356.581	-200.000	0.018	0.084
-355.566	-200.000	-0.001	0.321
-354.552	-32.941	-0.182	0.101
-353.537	-91.676	-0.095	0.027
-352.523	649.984	0.018	-0.046
-351.508	655.511	-0.053	-0.136
-350.493	800.000	0.075	-0.227
-349.479	-38.793	-0.320	0.168
-348.464	-160.606	0.455	0.024
-347.450	48.784	0.076	-0.071
-346.435	800.000	0.092	0.310
-345.420	-200.000	0.002	-0.236
-344.406	-58.997	-0.396	-0.170
-343.391	20.313	-0.154	0.124
-342.377	800.000	-0.024	-0.084
-341.362	104.631	-0.182	0.214
-340.348	-200.000	0.050	-0.250
-339.333	-33.412	0.344	0.189
-338.318	-35.530	0.136	-0.074
-337.304	501.558	-0.103	0.236
-336.289	-27.394	-0.174	0.101
-335.275	680.245	0.109	0.282
-334.260	-66.607	-0.524	-0.207
-333.245	800.000	-0.040	-0.166
-332.231	-61.138	-0.339	0.142
-331.216	-200.000	-0.062	0.316
-330.202	-200.000	0.011	0.182
-329.187	116.407	-0.115	-0.141
-328.172	-53.621	0.259	-0.118
-327.158	92.949	-0.020	-0.022
-326.143	-90.937	0.046	0.013
-325.129	114.718	0.087	-0.105
-324.114	-75.397	0.230	-0.082
-323.099	-47.067	0.124	0.060
-322.085	-128.620	-0.111	-0.016
-321.070	800.000	-0.062	0.207
-320.056	-157.746	-0.220	0.013
-319.041	110.576	0.091	-0.109
-318.026	347.624	0.069	0.134
-317.012	-109.408	0.066	0.014
-315.997	-62.529	0.121	-0.050
-314.983	217.273	-0.164	0.259
-313.968	-139.552	0.225	0.024
-312.953	22.808	0.049	0.040
-311.939	715.846	0.113	0.299
-310.924	-200.000	0.010	0.322
-309.910	0.591	-0.284	-0.202
-308.895	-10.313	-0.214	0.141
-307.880	-6.590	0.129	-0.087
-306.866	258.946	0.050	-0.086
-305.851	314.111	0.079	0.148
-304.837	-80.944	-0.189	-0.062
-303.822	59.729	-0.209	0.205
-302.807	170.733	-0.171	0.243
-301.793	277.906	0.112	-0.199
-300.778	-46.698	0.291	-0.142
-299.764	-200.000	0.031	-0.358
-298.749	-29.534	-0.394	-0.224
-297.735	315.346	-0.151	-0.283
-296.720	800.000	0.072	-0.224
-295.705	-200.000	0.017	-0.124
-294.691	267.513	-0.029	-0.051
-293.676	-68.691	-0.123	0.047
-292.662	-200.000	0.062	0.302
-291.647	-46.282	-0.268	-0.131
-290.632	330.589	-0.137	0.261
-289.618	526.820	-0.213	0.498
-288.603	-200.000	0.013	0.132
-287.589	87.743	-0.009	0.010
-286.574	527.958	-0.102	-0.240
-285.559	-102.565	0.258	0.061
-284.545	162.672	0.204	-0.285
-283.530	800.000	0.123	0.381
-282.516	149.567	0.065	-0.087
-281.501	-200.000	0.018	-0.318
-280.486	-200.000	0.050	0.353
-279.472	-160.166	0.149	-0.008
-278.457	-136.068	-0.541	-0.063
-277.443	454.216	-0.204	-0.449
-276.428	-200.000	0.008	-0.341
-275.413	800.000	-0.088	0.339
-274.399	800.000	-0.082	-0.326
-273.384	-101.620	0.042	0.010
-272.370	796.319	0.105	-0.287
-271.355	94.515	0.172	-0.194
-270.340	-200.000	-0.014	0.124
-269.326	114.975	0.134	-0.163
-268.311	24.833	0.468	0.385
-267.297	800.000	-0.060	0.186
-266.282	-200.000	-0.036	0.165
-265.267	-150.317	0.204	-0.016
-264.253	11.101	-0.168	-0.128
-263.238	-32.170	-0.334	-0.185
-262.224	800.000	0.088	-0.286
-261.209	56.347	0.277	0.267
-260.195	-97.468	-0.261	-0.067
-259.180	228.069	-0.122	0.197
-258.165	-131.738	-0.551	-0.072
-257.151	86.748	-0.009	-0.009
-256.136	-68.704	0.218	0.083
-255.122	800.000	0.133	0.432
-254.107	17.919	0.145	-0.115
-253.092	618.434	-0.139	-0.347
-252.078	-54.099	-0.200	-0.090
-251.063	34.561	0.115	-0.099
-250.049	-200.000	0.004	-0.130
-249.034	800.000	-0.038	-0.162
-248.019	800.000	0.080	0.250
-247.005	11.440	-0.283	0.215
-245.990	-200.000	-0.016	-0.171
-244.976	146.862	-0.232	-0.310
-243.961	-4.801	0.252	-0.172
-242.946	-144.539	0.289	-0.026
-241.932	-6.896	0.221	0.149
-240.917	-10.362	-0.338	-0.222
-239.903	-200.000	-0.051	-0.224
-238.888	-133.458	-0.044	-0.006
-237.873	176.126	-0.184	0.264
-236.859	30.557	0.245	0.208
-235.844	-76.538	-0.041	0.014
-234.830	312.095	0.044	0.083
-233.815	800.000	0.076	0.228
-232.800	-200.000	-0.029	0.275
-231.786	-10.915	-0.042	0.027
-230.771	-200.000	0.008	0.104
-229.757	-72.121	0.365	-0.134
-228.742	-200.000	0.017	0.202
-227.727	109.117	0.180	-0.214
-226.713	47.763	0.110	0.102
-225.698	51.932	-0.142	0.134
-224.684	-53.429	0.314	0.143
-223.669	25.786	-0.164	-0.135
-222.655	120.836	0.187	0.231
-221.640	-48.687	-0.099	0.047
-220.625	270.552	-0.129	-0.225
-219.611	-95.411	0.225	-0.060
-218.596	9.784	0.349	0.262
-217.582	-136.817	-0.150	0.017
-216.567	55.813	0.212	0.203
-215.552	800.000	0.032	0.093
-214.538	-104.020	-0.429	0.099
-213.523	228.027	0.175	0.282
-212.509	745.510	0.096	-0.256
-211.494	-117.062	-0.445	-0.080
-210.479	-83.218	0.239	0.076
-209.465	188.959	-0.140	0.208
-208.450	-109.122	-0.115	-0.024
-207.436	649.326	0.119	-0.303
-206.421	-200.000	-0.052	-0.673
-205.406	-200.000	-0.046	-0.229
-204.392	-94.214	-0.039	-0.011
-203.377	-73.007	0.334	-0.121
-202.363	800.000	0.060	-0.191
-201.348	-123.776	0.187	0.029
-200.333	-155.268	-0.438	-0.028
-199.319	92.693	-0.112	0.126
-198.304	311.441	-0.109	-0.201
-197.290	87.960	0.127	-0.139
-196.275	-200.000	0.002	-0.101
-195.260	-128.925	0.200	0.028
-194.246	187.200	-0.182	0.269
-193.231	-34.680	-0.346	-0.187
-192.217	-200.000	-0.036	-0.511
-191.202	74.806	0.069	0.072
-190.187	0.404	0.333	0.235
-189.173	800.000	0.026	-0.078
-188.158	-132.948	0.239	-0.030
-187.144	-48.975	0.092	0.044
-186.129	117.411	-0.197	0.240
-185.114	800.000	-0.131	0.480
-184.100	-79.475	0.386	-0.129
-183.085	176.754	-0.225	0.323
-182.071	-88.814	0.255	-0.075
-181.056	581.671	-0.183	-0.443
-180.042	-200.000	-0.021	0.496
-179.027	-200.000	0.000	-0.378
-178.012	218.642	-0.038	-0.060
-176.998	-97.970	0.153	0.039
-175.983	-200.000	0.018	-0.100
-174.969	4.758	-0.152	-0.111
-173.954	-37.990	-0.141	0.074
-172.939	14.365	0.369	-0.285
-171.925	233.520	0.091	-0.149
-170.910	-83.580	0.177	-0.056
-169.896	51.673	-0.224	0.210
-168.881	591.481	-0.072	-0.176
-167.866	411.849	0.031	-0.065
-166.852	-87.238	-0.194	-0.058
-165.837	36.138	-0.107	0.093
-164.823	800.000	-0.013	0.055
-163.808	-200.000	-0.029	-0.176
-162.793	236.941	0.133	0.218
-161.779	-133.621	0.360	0.045
-160.764	-67.386	-0.251	-0.098
-159.750	57.400	0.128	-0.124
-158.735	611.112	-0.013	0.033
-157.720	48.732	-0.121	-0.112
-156.706	-99.649	0.277	0.069
-155.691	800.000	0.093	0.309
-154.677	800.000	0.073	0.255
-153.662	131.872	-0.039	0.049
-152.647	-57.645	0.309	-0.134
-151.633	58.577	-0.183	0.177
-150.618	315.838	0.163	0.304
-149.604	-5.832	-0.152	0.103
-148.589	-43.053	0.284	0.142
-147.574	503.971	0.112	-0.256
-146.560	446.609	-0.034	0.074
-145.545	-61.927	-0.235	0.097
-144.531	-158.621	0.097	0.006
-143.516	17.332	0.169	0.132
-142.502	-186.208	0.257	-0.004
-141.487	108.067	-0.032	0.038
-140.472	97.002	-0.197	0.223
-139.458	-200.000	-0.036	0.347
-138.443	366.726	0.084	0.167
-137.429	-186.928	-0.186	-0.003
-136.414	267.805	0.085	0.147
-135.399	3.543	0.087	0.063
-134.385	-110.079	-0.309	-0.064
-133.370	-200.000	0.009	-0.079
-132.356	242.220	0.112	-0.186
-131.341	121.781	-0.269	-0.331
-130.326	-6.771	-0.265	-0.178
-129.312	-46.983	0.074	0.035
-128.297	-200.000	-0.027	0.237
-127.283	232.629	-0.159	-0.258
-126.268	800.000	-0.058	-0.205
-125.253	-200.000	0.005	-0.182
-124.239	-83.784	0.301	0.095
-123.224	-105.736	-0.134	0.030
-122.210	-168.935	-0.052	-0.002
-121.195	-56.706	0.077	0.034
-120.180	78.973	0.127	0.135
-119.166	34.084	-0.197	0.169
-118.151	-16.403	0.292	0.183
-117.137	194.667	0.177	-0.265
-116.122	176.453	-0.088	0.127
-115.107	-3.558	0.259	-0.178
-114.093	293.958	-0.019	-0.035
-113.078	-125.640	-0.304	0.045
-112.064	113.371	0.054	-0.064
-111.049	-111.639	0.107	-0.021
-110.034	71.203	0.087	0.089
-109.020	-137.579	0.193	0.022
-108.005	-175.459	-0.172	0.005
-106.991	-44.078	-0.132	-0.066
-105.976	470.313	0.200	0.444
-104.962	167.101	-0.080	-0.112
-103.947	-148.483	0.136	0.011
-102.932	-200.000	0.043	-0.285
-101.918	-25.345	0.074	0.043
-100.903	-1.137	-0.076	0.053
-99.889	202.640	0.053	0.081
-98.874	717.838	0.016	-0.042
-97.859	-200.000	0.010	0.054
-96.845	-200.000	-0.016	0.087
-95.830	38.572	-0.121	0.106
-94.816	-111.256	0.209	-0.042
-93.801	-90.694	0.188	-0.054
-92.786	800.000	0.023	0.081
-91.772	114.423	-0.106	0.127
-90.757	-121.332	0.092	0.015
-89.743	-84.643	-0.293	-0.091
-88.728	184.279	0.089	0.129
-87.713	-99.396	0.253	-0.063
-86.699	-64.826	-0.173	-0.069
-85.684	110.673	0.096	0.113
-84.670	-200.000	-0.039	-0.186
-83.655	-76.198	-0.167	-0.058
-82.640	0.714	0.376	0.265
-81.626	-51.903	0.136	0.062
-80.611	-158.501	0.096	0.005
-79.597	-135.678	0.256	0.030
-78.582	-39.744	0.085	0.044
-77.567	-92.935	0.155	-0.043
-76.553	-85.434	0.300	-0.092
-75.538	-11.503	0.239	0.155
-74.524	-4.721	0.069	-0.047
-73.509	-13.182	-0.239	-0.153
-72.494	-80.109	0.169	0.056
-71.480	125.852	0.113	-0.140
-70.465	279.119	0.009	-0.015
-69.451	229.948	0.177	0.285
-68.436	800.000	0.190	0.599
-67.422	665.012	-0.012	-0.031
-66.407	458.384	0.159	0.348
-65.392	530.149	-0.063	0.146
-64.378	-60.376	-0.076	-0.032
-63.363	-69.541	0.024	-0.009
-62.349	79.316	-0.070	0.074
-61.334	-8.755	-1.106	-0.730
-60.319	243.913	0.455	0.751
-59.305	-200.000	-0.238	-1.316
-58.290	33.399	0.921	0.787
-57.276	-200.000	0.233	1.747
-56.261	-200.000	96.034	596.997
-55.246	566.417	1373.497	3280.424
-54.232	160.946	2550.730	3507.437
-53.217	113.469	2142.136	2559.714
-52.203	44.155	1604.137	1448.120
-51.188	35.727	1341.806	1160.656
-50.173	32.597	1300.440	1106.482
-49.159	54.576	1347.958	1278.742
-48.144	56.867	1363.966	1307.552
-47.130	35.868	1322.913	1144.969
-46.115	32.394	1305.768	1109.644
-45.100	32.198	1300.534	1103.997
-44.086	32.066	1298.605	1101.544
-43.071	32.136	1296.039	1099.731
-42.057	32.009	1293.702	1096.961
-41.042	32.065	1292.269	1096.032
-40.027	32.081	1291.044	1095.041
-39.013	32.103	1288.482	1092.951
-37.998	32.105	1286.892	1091.575
-36.984	32.060	1285.428	1090.023
-35.969	32.241	1283.175	1089.121
-34.954	32.189	1281.932	1087.723
-33.940	32.303	1280.465	1087.093
-32.925	32.144	1279.441	1085.265
-31.911	32.238	1277.201	1083.860
-30.896	32.281	1276.309	1083.310
-29.881	32.080	1275.165	1081.137
-28.867	32.274	1273.024	1080.398
-27.852	32.194	1271.933	1078.968
-26.838	32.258	1270.631	1078.187
-25.823	32.232	1269.267	1076.836
-24.809	32.178	1268.078	1075.476
-23.794	32.241	1266.484	1074.440
-22.779	32.169	1265.304	1072.990
-21.765	32.307	1263.899	1072.539
-20.750	32.221	1262.968	1071.219
-19.736	32.070	1261.413	1068.999
-18.721	32.081	1259.919	1067.752
-17.706	32.059	1259.105	1066.892
-16.692	31.961	1258.390	1065.688
-15.677	32.038	1257.165	1065.046
-14.663	32.091	1255.918	1064.248
-13.648	31.961	1254.951	1062.651
-12.633	32.122	1253.527	1062.312
-11.619	31.991	1253.424	1061.443
-10.604	32.100	1251.940	1060.762
-9.590	32.110	1251.002	1059.978
-8.575	31.973	1249.936	1058.261
-7.560	32.088	1249.159	1058.208
-6.546	32.061	1248.721	1057.643
-5.531	31.962	1247.638	1056.129
-4.517	32.085	1246.455	1055.777
-3.502	32.061	1245.673	1054.937
-2.487	32.042	1244.636	1053.912
-1.473	32.068	1240.391	1050.417
-0.458	30.706	1225.761	1030.455
0.556	27.196	1208.309	993.723
1.571	23.488	1214.585	978.381
2.586	22.774	1229.739	986.505
3.600	22.155	1218.889	974.286
4.615	15.866	1145.023	882.306
5.629	5.843	1068.927	774.330
6.644	1.879	1049.228	740.757
7.659	1.538	1046.555	737.151
8.673	1.434	1045.258	735.668
9.688	1.420	1043.909	734.589
10.702	1.621	1042.732	734.665
11.717	7.398	1051.245	768.654
12.731	17.707	1065.751	829.607
13.746	23.607	1072.685	863.734
14.761	24.799	1074.085	870.589
15.775	24.894	1074.010	870.912
16.790	24.681	1072.647	868.696
17.804	24.596	1072.732	868.279
18.819	24.654	1071.993	867.884
19.834	25.072	1071.295	869.268
20.848	24.884	1071.172	868.181
21.863	24.919	1070.245	867.522
22.877	24.838	1069.850	866.734
23.892	24.823	1068.924	865.835
24.907	24.675	1068.379	864.601
25.921	24.746	1067.382	864.060
26.936	24.737	1065.836	862.689
27.950	24.704	1064.494	861.367
28.965	24.681	1062.606	859.652
29.980	24.694	1060.885	858.245
30.994	24.835	1060.399	858.454
32.009	24.937	1059.007	857.741
33.023	24.615	1057.720	855.082
34.038	24.730	1057.475	855.355
35.053	24.922	1056.625	855.511
36.067	24.842	1055.366	854.036
37.082	24.919	1054.998	854.027
38.096	25.192	1053.950	854.405
39.111	25.136	1053.845	853.979
40.126	24.913	1052.590	851.822
41.140	24.695	1050.421	848.960
42.155	24.507	1049.112	846.935
43.169	24.448	1048.552	846.128
44.184	24.509	1047.652	845.614
45.199	24.479	1046.521	844.484
46.213	24.460	1045.912	843.828
47.228	24.682	1044.862	843.954
48.242	24.613	1044.377	843.162
49.257	24.728	1043.315	842.774
50.271	24.870	1042.834	842.977
51.286	24.958	1041.900	842.564
52.301	24.961	1040.742	841.565
53.315	24.819	1040.124	840.327
54.330	24.774	1039.272	839.351
55.344	24.854	1038.867	839.324
56.359	24.892	1037.278	838.146
57.374	24.718	1036.377	836.529
58.388	24.669	1035.455	835.481
59.403	24.369	1035.695	834.201
60.417	24.488	1033.812	833.165
61.432	24.426	1033.943	832.907
62.447	24.588	1032.837	832.697
63.461	24.605	1032.426	832.371
64.476	24.655	1030.802	831.219
65.490	24.553	1029.705	829.790
66.505	24.573	1029.699	829.804
67.520	24.671	1028.937	829.572
68.534	24.336	1028.284	827.416
69.549	24.096	1027.071	825.256
70.563	24.107	1026.003	824.375
71.578	24.005	1025.501	823.430
72.593	23.848	1024.658	821.953
73.607	24.026	1024.093	822.249
74.622	24.325	1023.795	823.315
75.636	24.425	1022.955	823.028
76.651	24.265	1022.101	821.532
77.666	24.139	1021.494	820.391
78.680	24.283	1020.563	820.232
79.695	24.388	1020.248	820.390
80.709	24.423	1019.363	819.766
81.724	24.459	1018.587	819.235
82.739	24.440	1017.983	818.591
83.753	24.767	1017.817	819.883
84.768	25.153	1016.691	820.673
85.782	25.134	1016.488	820.347
86.797	25.127	1015.046	819.078
87.812	24.997	1013.663	817.301
88.826	24.985	1013.239	816.831
89.841	25.139	1012.114	816.552
90.855	25.077	1011.438	815.650
91.870	25.137	1010.262	814.902
92.884	24.961	1009.188	813.165
93.899	24.821	1008.485	811.891
94.914	25.148	1007.800	812.753
95.928	24.843	1006.559	810.297
96.943	24.601	1005.322	808.136
97.957	24.447	1004.488	806.700
98.972	24.471	1003.033	805.567
99.987	24.602	1003.022	806.079
101.001	24.877	1001.612	806.115
102.016	24.670	1001.471	804.993
103.030	24.881	999.878	804.594
104.045	24.505	999.586	802.594
105.060	24.396	998.547	801.201
106.074	24.526	997.923	801.215
107.089	24.918	997.226	802.338
108.103	24.774	996.471	801.019
109.118	24.604	994.763	798.811
110.133	24.422	993.877	797.217
111.147	24.235	992.767	795.424
112.162	24.080	992.160	794.175
113.176	24.420	991.460	795.059
114.191	24.436	990.556	794.336
115.206	24.043	989.437	791.622
116.220	24.062	988.706	791.050
117.235	24.313	987.878	791.433
118.249	24.346	986.671	790.541
119.264	24.109	986.191	789.034
120.279	24.219	985.646	789.019
121.293	24.253	984.478	788.164
122.308	24.239	984.231	787.835
123.322	24.184	982.478	786.119
124.337	24.015	981.734	784.706
125.352	23.644	980.175	781.758
126.366	23.418	979.082	779.824
127.381	24.268	979.185	783.576
128.395	24.676	978.921	785.085
129.410	24.907	978.015	785.306
130.424	24.724	977.021	783.633
131.439	24.779	975.746	782.782
132.454	24.761	974.851	781.918
133.468	24.698	974.076	780.953
134.483	24.968	973.178	781.340
135.497	24.949	972.964	781.016
136.512	25.151	971.535	780.678
137.527	24.954	970.957	779.290
138.541	25.002	970.149	778.779
139.556	24.991	969.578	778.205
140.570	25.142	968.876	778.228
141.585	25.143	967.624	777.157
142.600	25.004	966.858	775.872
143.614	25.287	966.038	776.371
144.629	25.509	965.095	776.505
145.643	25.063	964.327	773.889
146.658	25.106	962.928	772.885
147.673	25.000	961.457	771.181
148.687	24.860	960.768	769.956
149.702	24.750	959.626	768.502
150.716	24.690	959.410	768.001
151.731	25.041	958.148	768.429
152.746	25.142	957.621	768.371
153.760	25.240	957.132	768.329
154.775	25.203	956.973	767.975
155.789	25.121	956.056	766.820
156.804	25.067	954.995	765.672
157.819	25.180	954.062	765.339
158.833	25.389	953.413	765.641
159.848	25.407	951.843	764.389
160.862	25.139	950.715	762.278
161.877	25.101	950.197	761.634
162.892	25.205	949.288	761.276
163.906	25.048	948.496	759.911
164.921	25.095	947.448	759.201
165.935	25.238	946.360	758.867
166.950	25.150	945.658	757.867
167.964	25.140	944.805	757.075
168.979	25.040	943.944	755.893
169.994	24.862	943.224	754.502
171.008	25.119	942.297	754.777
172.023	25.164	941.702	754.423
173.037	25.103	940.176	752.873
174.052	24.899	939.486	751.400
175.067	24.920	939.188	751.183
176.081	25.001	938.517	750.920
177.096	24.986	937.781	750.200
178.110	24.720	936.770	748.213
179.125	24.512	936.468	747.035
180.140	24.439	936.273	746.510
181.154	24.647	935.650	746.814
182.169	25.081	935.326	748.304
183.183	25.330	934.810	748.863
184.198	25.053	933.854	746.878
185.213	25.134	933.342	746.737
186.227	25.264	932.588	746.610
187.242	25.349	931.548	746.064
188.256	25.200	931.535	745.369
189.271	25.271	930.768	744.983
190.286	24.935	929.585	742.579
191.300	24.326	928.119	738.818
192.315	23.573	926.594	734.422
193.329	23.599	925.971	733.975
194.344	24.491	926.885	738.325
195.359	25.038	926.597	740.290
196.373	25.161	926.071	740.311
197.388	24.978	925.308	738.882
198.402	25.134	924.725	738.993
199.417	25.165	923.899	738.397
200.432	24.835	923.391	736.564
201.446	24.766	922.173	735.246
202.461	24.628	921.961	734.446
203.475	23.861	919.922	729.609
204.490	23.189	918.419	725.596
205.504	24.039	918.935	729.426
206.519	24.827	918.762	732.450
207.534	24.670	918.834	731.800
208.548	25.203	918.184	733.398
209.563	24.895	917.006	731.135
210.577	24.851	916.859	730.775
211.592	25.268	916.707	732.289
212.607	25.168	915.683	730.999
213.621	25.274	915.118	730.916
214.636	25.131	914.752	729.974
215.650	25.151	913.681	729.139
216.665	25.286	913.138	729.190
217.680	25.156	912.872	728.383
218.694	24.811	911.195	725.581
219.709	24.588	910.359	723.948
220.723	25.034	910.069	725.462
221.738	24.995	909.598	724.864
222.753	25.009	908.782	724.205
223.767	25.240	908.326	724.709
224.782	25.419	907.809	724.955
225.796	25.254	907.795	724.215
226.811	24.725	906.036	720.617
227.826	23.971	905.014	716.705
228.840	24.272	904.361	717.334
229.855	24.325	903.396	716.719
230.869	23.957	902.566	714.519
231.884	24.380	902.854	716.384
232.899	24.999	902.673	718.660
233.913	24.975	902.047	718.004
234.928	25.041	901.195	717.525
235.942	24.821	900.737	716.215
236.957	24.632	899.603	714.493
237.972	24.537	899.480	713.955
238.986	24.621	898.899	713.766
240.001	24.664	897.987	713.148
241.015	24.886	897.839	713.854
242.030	24.871	897.130	713.170
243.045	25.141	896.601	713.757
244.059	25.104	896.758	713.675
245.074	24.999	895.369	712.088
246.088	24.627	894.449	709.816
247.103	24.924	893.946	710.533
248.117	25.543	894.340	713.239
249.132	25.896	893.570	713.962
250.147	25.737	893.519	713.226
251.161	25.991	893.129	713.858
252.176	25.949	892.036	712.757
253.190	25.929	891.797	712.421
254.205	26.311	890.984	713.218
255.220	26.065	890.402	711.720
256.234	25.943	889.831	710.718
257.249	25.901	889.053	709.868
258.263	25.876	888.394	709.180
259.278	26.017	887.957	709.322
260.293	25.965	887.508	708.700
261.307	25.823	886.829	707.537
262.322	25.749	885.741	706.315
263.336	24.940	883.887	701.607
264.351	23.987	881.797	696.159
265.366	24.104	881.750	696.519
266.380	25.208	882.428	701.311
267.395	25.568	882.118	702.407
268.409	25.553	881.781	702.017
269.424	25.826	880.864	702.289
270.439	25.737	880.381	701.496
271.453	25.962	879.384	701.517
272.468	26.017	879.353	701.643
273.482	26.123	879.101	701.794
274.497	25.632	877.838	698.816
275.512	25.226	877.129	696.614
276.526	25.673	876.914	698.115
277.541	25.899	876.590	698.672
278.555	25.562	875.850	696.714
279.570	25.388	875.096	695.380
280.585	25.656	874.779	696.102
281.599	25.499	873.650	694.536
282.614	25.012	872.416	691.614
283.628	25.054	871.900	691.308
284.643	25.391	871.861	692.515
285.657	24.967	870.540	689.770
286.672	24.696	869.472	687.819
287.687	25.328	869.893	690.525
288.701	25.354	869.283	690.077
289.716	24.929	868.468	687.738
290.730	24.980	867.394	687.024
291.745	24.658	866.861	685.305
292.760	25.019	866.917	686.676
293.774	25.922	867.585	690.602
294.789	26.218	867.000	691.211
295.803	26.394	866.357	691.310
296.818	26.484	865.722	691.084
297.833	25.989	864.222	687.939
298.847	25.706	863.761	686.431
299.862	26.016	863.879	687.647
300.876	26.283	863.271	688.117
301.891	26.207	862.403	687.077
302.906	25.987	861.515	685.475
303.920	26.161	861.053	685.704
304.935	26.269	861.299	686.251
305.949	26.353	860.522	685.889
306.964	26.042	859.305	683.680
307.979	26.085	859.199	683.698
308.993	26.433	859.176	684.938
310.008	26.437	858.271	684.172
311.022	26.264	857.184	682.592
312.037	25.971	856.993	681.271
313.052	25.695	856.339	679.647
314.066	24.820	854.610	674.918
315.081	24.676	853.788	673.664
316.095	25.493	854.553	677.289
317.110	25.956	853.918	678.470
318.125	25.124	852.356	674.042
319.139	24.113	850.997	669.110
320.154	24.182	850.639	669.031
321.168	24.969	851.137	672.317
322.183	25.754	851.236	675.281
323.197	25.884	850.846	675.400
324.212	26.019	850.515	675.582
325.227	26.064	849.967	675.255
326.241	25.991	849.176	674.295
327.256	25.796	848.781	673.194
328.270	25.784	847.654	672.195
329.285	25.606	847.131	671.057
330.300	25.349	846.696	669.694
331.314	25.613	846.158	670.193
332.329	25.845	846.506	671.274
333.343	26.129	845.813	671.721
334.358	26.070	845.106	670.882
335.373	26.280	844.573	671.179
336.387	26.576	844.567	672.214
337.402	26.556	844.665	672.159
338.416	26.595	843.899	671.635
339.431	26.618	843.985	671.728
340.446	26.767	843.638	671.944
341.460	26.567	843.059	670.686
342.475	26.372	842.239	669.250
343.489	26.531	842.243	669.783
344.504	26.876	841.803	670.649
345.519	27.007	841.957	671.196
346.533	26.962	841.329	670.471
347.548	27.056	840.475	670.079
348.562	26.779	840.349	668.896
349.577	26.924	839.251	668.497
350.592	26.820	838.756	667.661
351.606	26.803	838.281	667.160
352.621	26.734	836.873	665.729
353.635	26.689	836.040	664.842
354.650	25.998	834.678	661.166
355.665	25.032	833.149	656.363
356.679	25.429	833.311	657.885
357.694	25.908	833.153	659.455
358.708	25.795	832.679	658.608
359.723	26.279	832.463	660.148
360.738	26.607	831.805	660.765
361.752	26.720	831.508	660.881
362.767	26.982	831.126	661.474
363.781	27.291	830.785	662.270
364.796	27.311	830.454	662.022
365.810	27.360	830.292	662.011
366.825	27.308	829.626	661.231
367.840	26.901	829.108	659.284
368.854	26.643	828.129	657.511
369.869	26.591	827.862	657.050
370.883	26.583	827.193	656.431
371.898	26.656	826.580	656.154
372.913	26.693	826.301	656.007
373.927	26.719	825.885	655.712
374.942	26.945	825.596	656.242
375.956	27.000	825.346	656.186
376.971	27.154	825.090	656.478
377.986	27.352	824.636	656.776
379.000	27.212	823.938	655.656
380.015	26.965	823.432	654.305
381.029	27.183	822.348	654.170
382.044	27.288	821.999	654.214
383.059	27.194	821.682	653.566
384.073	27.378	821.299	653.861
385.088	27.425	820.537	653.368
386.102	27.008	819.534	651.018
387.117	26.969	818.895	650.311
388.132	26.656	817.960	648.391
389.146	26.114	817.246	645.827
390.161	26.742	816.995	647.819
391.175	27.097	816.992	649.026
392.190	26.689	815.945	646.682
393.205	25.264	813.754	639.813
394.219	23.734	811.643	632.653
395.234	23.772	811.677	632.757
396.248	25.368	813.179	639.560
397.263	26.775	814.045	645.198
398.278	26.803	813.598	644.885
399.292	26.541	812.867	643.317
400.307	26.455	812.496	642.662
401.321	26.751	811.831	643.127
402.336	27.185	811.787	644.577
403.350	27.393	811.635	645.135
404.365	27.792	811.474	646.365
405.380	28.009	811.352	646.979
406.394	28.042	810.846	646.634
407.409	27.926	810.264	645.703
408.423	28.015	810.195	645.907
409.438	28.004	809.949	645.614
410.453	27.987	809.360	645.026
411.467	27.864	808.613	643.941
412.482	28.033	808.229	644.174
413.496	28.081	808.099	644.181
414.511	27.943	807.992	643.552
415.526	28.111	807.281	643.521
416.540	27.946	806.296	642.099
417.555	27.651	805.723	640.551
418.569	27.810	805.198	640.633
419.584	27.726	804.680	639.870
420.599	27.559	804.423	639.023
421.613	110.427	1286.387	1459.460
422.628	95.334	1356.610	1459.568
