DTS Sentinel unit serial number:	SN413079Multiplexer serial number:	ORYXHardware model number:	OX4-SRSoftware version number:	ORYX F/W v4.00 Oryx Data Collector v3.7.2.0data status	okinstallation	princeton_trtdifferential loss correction	single-endedforward channel	channel 1reverse channel	N/Adate	2019/09/13time	04:06:35forward acquisition time	60.00reverse acquisition time	0.00gamma	496.2192k internal	0.2334k external	0.2334temperature offset calibration	1.0160default loss term (dB/km)	0.3790temperature slope calibration	1.0000multiplexer offset coefficient	1.0000multiplexer slope coefficient	1.0000fibre end	0.00T internal ref (°C)	26.94T ext. ref 1 (°C)	4.05T ext. ref 2 (°C)	21.25length (m)	temperature (°C)	Stokes	anti-Stokes-747.200	-0.728	-0.137	0.098
-746.185	-51.207	-0.254	0.120
-745.171	800.000	0.109	-0.305
-744.156	-51.121	-0.104	0.049
-743.142	-139.671	0.216	0.023
-742.127	0.528	-0.244	0.175
-741.112	32.182	0.220	-0.191
-740.098	-200.000	0.001	0.261
-739.083	-15.134	-0.064	-0.041
-738.069	800.000	0.054	-0.156
-737.054	-65.659	0.209	-0.084
-736.039	-200.000	-0.388	-0.002
-735.025	669.036	0.058	0.151
-734.010	67.155	0.188	-0.193
-732.996	800.000	0.042	-0.186
-731.981	-200.000	-0.011	-0.241
-730.966	-61.216	0.063	0.027
-729.952	-200.000	0.011	0.172
-728.937	-200.000	-0.010	0.165
-727.923	-200.000	0.006	-0.163
-726.908	-36.911	-0.222	0.120
-725.894	-200.000	0.028	-0.330
-724.879	365.090	-0.069	-0.140
-723.864	-62.113	0.123	0.052
-722.850	136.358	-0.224	0.293
-721.835	82.664	-0.158	0.172
-720.821	-49.473	0.061	0.029
-719.806	225.955	-0.037	0.060
-718.791	-52.243	-0.238	-0.111
-717.777	179.549	0.215	0.317
-716.762	-76.792	-0.184	-0.065
-715.748	214.322	0.208	0.330
-714.733	-200.000	-0.027	-0.222
-713.718	-76.861	-0.453	-0.159
-712.704	-76.138	-0.288	-0.102
-711.689	593.371	0.132	-0.327
-710.675	632.655	-0.102	0.259
-709.660	205.877	0.137	-0.213
-708.645	-27.737	0.180	0.105
-707.631	403.895	0.143	-0.303
-706.616	-1.610	-0.279	-0.198
-705.602	49.930	-0.160	-0.152
-704.587	-200.000	0.057	-0.353
-703.572	-200.000	-0.011	-0.143
-702.558	-90.380	0.145	0.042
-701.543	-65.438	0.340	0.137
-700.529	-74.921	-0.239	0.086
-699.514	257.841	-0.049	0.084
-698.499	25.374	-0.090	0.075
-697.485	-200.000	0.011	0.070
-696.470	36.326	-0.089	0.079
-695.456	-149.960	-0.446	-0.035
-694.441	30.509	-0.201	-0.173
-693.426	-25.667	0.090	-0.053
-692.412	123.017	-0.123	-0.155
-691.397	247.904	0.135	-0.229
-690.383	70.717	0.275	-0.286
-689.368	-67.523	0.101	-0.040
-688.354	-1.119	0.172	-0.122
-687.339	-131.348	-0.024	-0.003
-686.324	69.441	-0.324	0.335
-685.310	-200.000	-0.010	-0.256
-684.295	-9.869	-0.066	-0.044
-683.281	59.577	0.131	0.130
-682.266	94.123	-0.186	-0.211
-681.251	53.274	0.319	-0.307
-680.237	-72.826	-0.130	0.048
-679.222	288.718	-0.221	-0.402
-678.208	-200.000	0.001	-0.022
-677.193	103.847	0.017	-0.020
-676.178	251.645	-0.144	-0.247
-675.164	-129.083	0.103	0.015
-674.149	-200.000	-0.056	0.303
-673.135	29.865	-0.054	-0.046
-672.120	371.730	0.122	-0.248
-671.105	-156.203	-0.312	-0.020
-670.091	74.927	0.029	-0.031
-669.076	-77.568	0.136	0.047
-668.062	-100.126	0.154	0.038
-667.047	-200.000	0.012	0.326
-666.032	32.452	-0.326	-0.282
-665.018	715.399	-0.055	-0.146
-664.003	-124.939	-0.203	0.031
-662.989	29.245	-0.162	0.138
-661.974	-189.104	0.201	-0.002
-660.959	198.613	-0.085	-0.131
-659.945	-200.000	0.026	0.157
-658.930	218.385	0.148	-0.236
-657.916	240.559	0.038	0.063
-656.901	72.840	0.094	0.099
-655.886	-122.798	0.319	-0.052
-654.872	143.773	-0.117	-0.157
-653.857	264.544	0.061	0.106
-652.843	44.485	0.155	-0.142
-651.828	-42.172	-0.404	0.207
-650.814	201.053	0.086	-0.132
-649.799	-68.257	0.044	-0.017
-648.784	-200.000	0.001	-0.036
-647.770	390.958	0.138	0.287
-646.755	-55.533	-0.423	0.190
-645.741	-200.000	0.057	0.266
-644.726	-200.000	-0.016	-0.184
-643.711	84.799	0.128	0.140
-642.697	-156.407	0.405	0.025
-641.682	342.239	-0.064	0.125
-640.668	-30.067	-0.037	0.021
-639.653	109.620	0.231	-0.277
-638.638	44.311	-0.141	0.130
-637.624	-200.000	-0.015	0.190
-636.609	-200.000	0.021	-0.281
-635.595	-49.695	-0.250	-0.119
-634.580	-104.277	0.198	0.046
-633.565	-200.000	0.046	0.307
-632.551	19.495	-0.145	-0.116
-631.536	-41.193	-0.325	-0.168
-630.522	-57.656	-0.149	0.065
-629.507	179.607	-0.060	0.087
-628.492	-24.358	-0.302	-0.180
-627.478	-200.000	0.093	-0.466
-626.463	26.824	0.068	0.057
-625.449	420.082	0.044	-0.095
-624.434	286.481	-0.112	0.202
-623.419	-27.744	-0.209	0.122
-622.405	-88.001	-0.178	0.053
-621.390	-117.601	-0.115	0.021
-620.376	-200.000	0.000	-0.226
-619.361	78.973	0.058	-0.063
-618.346	-117.036	0.409	-0.075
-617.332	439.998	0.070	0.153
-616.317	50.555	-0.230	0.217
-615.303	-67.845	-0.063	0.025
-614.288	-200.000	0.014	-0.317
-613.273	-55.396	-0.317	-0.142
-612.259	195.482	-0.161	0.244
-611.244	-107.014	-0.229	-0.051
-610.230	-99.652	0.240	-0.060
-609.215	38.785	0.085	0.076
-608.201	-15.250	0.176	-0.113
-607.186	276.064	0.089	-0.157
-606.171	-200.000	-0.009	-0.053
-605.157	-45.040	-0.134	-0.067
-604.142	752.290	-0.138	0.372
-603.128	-46.367	-0.212	0.104
-602.113	-10.500	-0.229	0.151
-601.098	69.597	-0.112	-0.115
-600.084	-85.462	0.192	-0.060
-599.069	43.295	-0.213	0.195
-598.055	-200.000	0.018	-0.418
-597.040	34.186	-0.208	0.181
-596.025	422.048	0.032	-0.070
-595.011	-77.635	0.110	-0.038
-593.996	-69.979	0.206	0.079
-592.982	10.645	-0.164	-0.125
-591.967	-200.000	-0.028	0.218
-590.952	26.977	0.093	-0.078
-589.938	-141.025	-0.062	0.006
-588.923	151.069	-0.100	0.136
-587.909	-18.827	-0.192	0.119
-586.894	-76.600	0.299	0.105
-585.879	-80.809	-0.304	-0.101
-584.865	-136.980	0.081	-0.009
-583.850	593.798	-0.105	0.260
-582.836	11.266	0.224	0.171
-581.821	-146.858	0.258	-0.022
-580.806	104.072	0.145	-0.171
-579.792	622.964	0.178	0.447
-578.777	100.242	0.161	-0.186
-577.763	74.051	0.259	-0.272
-576.748	87.100	0.309	-0.341
-575.733	77.124	0.048	-0.051
-574.719	26.016	-0.233	0.194
-573.704	-149.540	-0.136	-0.011
-572.690	-200.000	-0.047	0.252
-571.675	-56.338	-0.368	-0.163
-570.661	-200.000	0.034	-0.150
-569.646	79.322	-0.069	-0.074
-568.631	-200.000	0.008	-0.225
-567.617	-200.000	-0.035	-0.168
-566.602	-200.000	-0.050	-0.344
-565.588	800.000	0.048	0.168
-564.573	-11.665	-0.163	0.107
-563.558	-69.724	-0.279	-0.106
-562.544	-52.127	-0.104	-0.048
-561.529	160.274	-0.063	-0.087
-560.515	524.849	-0.089	-0.210
-559.500	800.000	0.051	-0.207
-558.485	-200.000	0.045	0.232
-557.471	-200.000	-0.019	-0.100
-556.456	269.400	-0.053	0.093
-555.442	-2.162	0.240	-0.168
-554.427	51.974	-0.127	-0.121
-553.412	-154.980	-0.205	0.013
-552.398	-51.236	-0.214	0.100
-551.383	-84.475	-0.189	0.060
-550.369	800.000	-0.089	0.374
-549.354	-125.738	0.346	0.052
-548.339	-200.000	0.002	-0.040
-547.325	-97.205	-0.174	0.045
-546.310	-16.975	-0.247	-0.156
-545.296	5.503	0.197	0.145
-544.281	380.322	-0.073	0.149
-543.266	-111.067	-0.397	0.081
-542.252	-110.403	0.193	-0.040
-541.237	30.977	0.143	0.122
-540.223	23.572	-0.208	-0.170
-539.208	-62.000	0.096	-0.040
-538.193	-48.493	0.209	0.101
-537.179	-83.708	0.172	0.055
-536.164	600.042	0.085	0.211
-535.150	-59.401	-0.185	-0.079
-534.135	-200.000	0.005	0.060
-533.121	422.032	-0.084	0.180
-532.106	122.775	-0.140	0.175
-531.091	800.000	0.026	0.084
-530.077	-200.000	0.019	-0.103
-529.062	-11.125	0.420	0.276
-528.048	-120.133	0.392	-0.067
-527.033	7.581	-0.204	0.152
-526.018	41.202	0.252	-0.227
-525.004	-172.340	0.167	0.005
-523.989	-45.852	-0.265	0.131
-522.975	-114.222	-0.255	0.049
-521.960	-55.639	0.240	0.107
-520.945	680.629	-0.032	-0.084
-519.931	-166.143	-0.134	-0.006
-518.916	-6.375	0.020	0.014
-517.902	19.794	-0.116	-0.093
-516.887	120.036	0.054	-0.066
-515.872	-200.000	0.012	-0.278
-514.858	177.627	0.052	-0.075
-513.843	498.973	0.111	-0.254
-512.829	-200.000	0.036	0.174
-511.814	-136.563	-0.056	0.007
-510.799	-85.824	-0.198	-0.061
-509.785	-74.192	-0.285	-0.103
-508.770	217.518	0.153	-0.243
-507.756	-122.709	-0.031	-0.005
-506.741	30.640	-0.067	-0.057
-505.726	-85.501	0.182	0.057
-504.712	106.206	0.149	-0.175
-503.697	-105.022	-0.093	-0.021
-502.683	-200.000	-0.030	0.149
-501.668	561.311	0.049	0.117
-500.653	-80.388	0.266	0.088
-499.639	-46.798	-0.268	0.130
-498.624	800.000	0.188	0.527
-497.610	207.630	0.123	0.191
-496.595	-7.448	-0.032	-0.021
-495.581	75.617	-0.095	0.100
-494.566	343.167	0.089	0.174
-493.551	754.886	-0.042	-0.113
-492.537	113.115	-0.149	-0.180
-491.522	-37.529	-0.134	0.071
-490.508	-56.587	-0.210	0.092
-489.493	-95.040	0.042	-0.011
-488.478	35.359	-0.156	-0.136
-487.464	-200.000	-0.061	0.277
-486.449	-140.787	-0.195	0.020
-485.435	349.664	0.157	-0.310
-484.420	351.056	-0.019	-0.038
-483.405	-169.205	-0.110	-0.004
-482.391	-112.011	0.140	-0.028
-481.376	178.623	0.209	-0.304
-480.362	-37.491	-0.134	0.071
-479.347	703.602	0.054	-0.141
-478.332	-83.345	0.288	0.092
-477.318	-200.000	0.017	0.165
-476.303	-200.000	0.001	0.314
-475.289	114.893	0.227	0.276
-474.274	121.235	0.121	-0.150
-473.259	81.790	0.120	-0.129
-472.245	132.185	-0.151	0.193
-471.230	-36.813	-0.080	-0.043
-470.216	-22.218	0.034	-0.021
-469.201	-124.259	0.370	0.058
-468.186	133.727	0.257	-0.331
-467.172	92.550	-0.139	-0.156
-466.157	-200.000	-0.002	0.113
-465.143	-54.692	0.185	0.083
-464.128	38.901	-0.340	-0.302
-463.113	-96.336	0.212	-0.056
-462.099	-122.969	-0.207	-0.033
-461.084	-142.875	-0.374	-0.036
-460.070	102.751	-0.103	-0.120
-459.055	204.865	0.183	0.282
-458.040	-200.000	0.065	0.351
-457.026	-143.853	-0.445	-0.042
-456.011	-67.989	-0.037	0.014
-454.997	764.735	0.070	0.190
-453.982	-54.753	0.118	0.053
-452.968	-200.000	-0.060	0.554
-451.953	-3.521	0.413	-0.286
-450.938	-54.878	0.103	-0.046
-449.924	-81.276	-0.162	-0.053
-448.909	-168.541	-0.391	0.015
-447.895	3.593	0.233	0.169
-446.880	-200.000	-0.051	0.396
-445.865	65.168	0.114	0.114
-444.851	355.980	-0.122	0.241
-443.836	21.483	0.169	-0.136
-442.822	73.887	0.382	-0.398
-441.807	-58.156	0.142	-0.062
-440.792	-52.663	-0.126	0.058
-439.778	11.705	0.032	0.024
-438.763	-200.000	0.011	-0.350
-437.749	-200.000	0.017	0.161
-436.734	-75.710	-0.059	-0.021
-435.719	-200.000	-0.062	-0.277
-434.705	216.378	-0.066	0.104
-433.690	-32.900	-0.175	0.096
-432.676	-83.535	-0.271	-0.086
-431.661	-99.605	-0.357	0.089
-430.646	260.574	-0.103	0.177
-429.632	323.625	0.096	0.181
-428.617	360.483	0.067	-0.133
-427.603	800.000	-0.081	0.308
-426.588	-157.690	-0.135	0.008
-425.573	-137.156	0.242	-0.027
-424.559	-81.438	-0.194	0.064
-423.544	50.833	0.221	0.208
-422.530	181.646	-0.091	0.132
-421.515	-138.461	0.154	0.017
-420.500	472.295	0.119	0.266
-419.486	441.518	-0.065	0.141
-418.471	-200.000	-0.002	0.235
-417.457	800.000	0.039	-0.146
-416.442	-11.158	-0.209	-0.137
-415.428	101.432	-0.186	0.215
-414.413	800.000	0.025	0.086
-413.398	309.810	-0.103	0.191
-412.384	531.435	0.162	-0.381
-411.369	-200.000	-0.014	-0.114
-410.355	-104.007	0.164	-0.038
-409.340	568.334	0.056	0.135
-408.325	33.716	0.161	-0.139
-407.311	127.940	-0.154	-0.194
-406.296	301.381	-0.194	0.356
-405.282	40.692	0.109	0.098
-404.267	-200.000	0.035	-0.197
-403.252	-200.000	-0.021	0.172
-402.238	56.336	0.146	0.141
-401.223	528.004	0.062	-0.144
-400.209	258.970	0.119	-0.204
-399.194	800.000	-0.029	-0.110
-398.179	96.041	0.169	0.191
-397.165	-67.247	-0.233	0.091
-396.150	-200.000	-0.033	-0.152
-395.136	479.863	-0.113	-0.254
-394.121	-200.000	0.066	-0.311
-393.106	-7.388	-0.169	-0.113
-392.092	628.799	-0.148	-0.371
-391.077	-163.233	0.202	0.010
-390.063	-113.645	0.476	0.092
-389.048	-97.702	0.213	-0.055
-388.033	-200.000	0.029	0.315
-387.019	88.359	0.180	0.198
-386.004	-101.804	-0.181	-0.044
-384.990	184.537	-0.235	-0.345
-383.975	-200.000	0.074	0.386
-382.960	800.000	0.031	-0.119
-381.946	112.582	0.038	0.045
-380.931	59.431	0.058	-0.056
-379.917	274.587	0.029	-0.051
-378.902	-131.519	-0.294	0.038
-377.888	472.759	-0.039	-0.086
-376.873	-60.405	-0.087	0.037
-375.858	-169.585	0.127	0.005
-374.844	-8.019	-0.504	0.337
-373.829	219.289	0.108	0.172
-372.815	-53.186	-0.116	0.053
-371.800	800.000	-0.038	-0.129
-370.785	40.675	0.115	-0.103
-369.771	-200.000	-0.012	0.414
-368.756	-134.478	0.081	-0.010
-367.742	-141.012	-0.299	-0.030
-366.727	20.290	0.483	0.387
-365.712	-88.951	-0.425	0.125
-364.698	61.760	0.236	0.232
-363.683	502.052	0.175	0.401
-362.669	-200.000	-0.003	0.045
-361.654	734.974	-0.020	-0.052
-360.639	271.340	0.070	0.123
-359.625	55.684	-0.219	-0.210
-358.610	-200.000	-0.029	0.150
-357.596	-174.867	-0.166	-0.005
-356.581	17.917	0.373	-0.294
-355.566	-79.043	0.201	0.068
-354.552	315.962	0.138	0.258
-353.537	-21.810	0.290	0.175
-352.523	199.005	0.052	-0.079
-351.508	-3.033	0.261	-0.180
-350.493	446.831	0.066	0.144
-349.479	-141.555	0.078	-0.008
-348.464	3.362	-0.156	0.112
-347.450	-200.000	0.032	0.352
-346.435	-133.143	0.374	0.047
-345.420	8.128	0.123	-0.091
-344.406	-200.000	-0.015	-0.140
-343.391	800.000	-0.053	-0.152
-342.377	-94.519	-0.164	-0.044
-341.362	-108.332	-0.147	0.031
-340.348	233.767	-0.068	-0.110
-339.333	-200.000	-0.027	-0.312
-338.318	59.555	0.195	-0.191
-337.304	-189.640	-0.250	-0.003
-336.289	316.460	-0.064	-0.120
-335.275	-2.713	-0.184	-0.127
-334.260	-95.366	-0.258	-0.069
-333.245	-39.187	0.080	0.042
-332.231	-15.310	0.255	0.162
-331.216	271.737	-0.101	-0.176
-330.202	-35.385	-0.119	0.064
-329.187	-44.342	0.113	-0.056
-328.172	-200.000	-0.092	-0.416
-327.158	800.000	0.045	0.132
-326.143	-141.453	-0.132	0.013
-325.129	-155.049	0.335	-0.022
-324.114	108.015	-0.076	0.090
-323.099	-147.952	0.429	0.035
-322.085	-61.320	-0.115	-0.048
-321.070	-200.000	-0.009	-0.502
-320.056	-19.736	0.147	0.090
-319.041	-200.000	-0.025	0.125
-318.026	-41.754	0.253	-0.129
-317.012	-22.852	-0.328	-0.196
-315.997	-46.411	0.244	-0.119
-314.983	-200.000	0.028	0.284
-313.968	151.854	0.179	-0.241
-312.953	-118.304	-0.363	-0.064
-311.939	470.599	0.072	0.160
-310.924	-200.000	0.025	-0.116
-309.910	-15.189	-0.235	-0.148
-308.895	-12.608	0.350	-0.226
-307.880	-92.273	-0.090	-0.025
-306.866	752.954	-0.130	-0.346
-305.851	-200.000	0.032	0.211
-304.837	132.326	0.086	0.109
-303.822	171.240	-0.178	-0.253
-302.807	800.000	0.028	-0.100
-301.793	-130.385	0.118	0.016
-300.778	160.271	-0.118	-0.163
-299.764	373.418	-0.063	-0.126
-298.749	18.010	0.141	0.111
-297.735	-89.526	0.126	-0.036
-296.720	264.991	0.180	-0.310
-295.705	-120.288	-0.046	-0.008
-294.691	-200.000	0.005	0.143
-293.676	72.485	-0.134	0.138
-292.662	105.880	0.114	-0.134
-291.647	22.046	-0.165	-0.133
-290.632	154.899	0.223	0.303
-289.618	-70.213	0.306	-0.115
-288.603	-200.000	0.033	-0.198
-287.589	6.488	-0.274	0.201
-286.574	39.921	0.167	0.148
-285.559	-32.753	0.242	0.133
-284.545	67.886	-0.138	0.139
-283.530	224.939	0.162	0.258
-282.516	283.958	-0.059	0.104
-281.501	-200.000	-0.010	-0.106
-280.486	-121.283	0.071	0.012
-279.472	204.133	-0.210	0.322
-278.457	-72.323	-0.133	-0.049
-277.443	21.916	-0.176	-0.142
-276.428	245.308	-0.071	-0.117
-275.413	-11.419	0.071	-0.046
-274.399	-106.426	0.114	0.025
-273.384	800.000	0.030	0.102
-272.370	-200.000	-0.011	0.106
-271.355	431.158	-0.115	0.245
-270.340	-158.433	-0.143	-0.008
-269.326	-82.084	0.151	0.049
-268.311	67.142	-0.136	-0.136
-267.297	-8.513	-0.193	0.128
-266.282	62.470	0.242	0.238
-265.267	99.266	-0.019	-0.021
-264.253	800.000	0.051	-0.197
-263.238	134.947	-0.252	-0.322
-262.224	125.040	0.262	0.325
-261.209	44.641	-0.331	0.300
-260.195	800.000	0.013	0.042
-259.180	800.000	0.006	-0.022
-258.165	536.135	0.057	0.134
-257.151	145.732	0.226	0.299
-256.136	-64.143	-0.069	-0.028
-255.122	-200.000	0.000	0.035
-254.107	-200.000	-0.032	0.349
-253.092	40.639	-0.098	0.087
-252.078	-200.000	-0.023	0.272
-251.063	-86.182	-0.251	-0.076
-250.049	-71.896	0.218	0.080
-249.034	-15.319	-0.091	0.057
-248.019	331.028	0.137	0.259
-247.005	-62.662	-0.063	0.026
-245.990	444.711	-0.076	-0.164
-244.976	38.830	0.017	0.015
-243.961	224.428	-0.051	-0.081
-242.946	-128.063	0.148	-0.021
-241.932	-200.000	0.010	0.231
-240.917	-105.429	0.142	-0.032
-239.903	235.174	0.116	-0.189
-238.888	-200.000	-0.073	-0.556
-237.873	-95.040	0.147	-0.039
-236.859	-62.576	-0.298	0.122
-235.844	281.743	0.057	-0.100
-234.830	96.889	-0.215	-0.243
-233.815	800.000	0.096	-0.393
-232.800	-200.000	-0.022	-0.098
-231.786	-200.000	0.005	-0.074
-230.771	108.768	0.027	-0.032
-229.757	188.142	0.097	0.143
-228.742	181.761	0.027	-0.040
-227.727	223.466	0.176	-0.280
-226.713	-200.000	-0.066	-0.384
-225.698	494.756	-0.069	0.157
-224.684	-82.402	0.223	0.071
-223.669	-155.507	-0.278	-0.018
-222.655	800.000	-0.039	-0.138
-221.640	145.934	0.081	0.107
-220.625	201.932	0.063	-0.095
-219.611	-200.000	-0.026	-0.138
-218.596	-200.000	-0.005	-0.108
-217.582	211.141	0.024	0.038
-216.567	-72.566	0.220	0.080
-215.552	-78.346	-0.394	-0.133
-214.538	-60.427	0.373	0.156
-213.523	-127.541	-0.223	0.032
-212.509	-200.000	0.011	-0.076
-211.494	-132.030	0.213	0.027
-210.479	-2.828	0.121	0.083
-209.465	32.448	0.254	0.216
-208.450	800.000	-0.021	-0.060
-207.436	800.000	0.160	-0.438
-206.421	-117.448	-0.152	-0.027
-205.406	55.741	0.214	0.204
-204.392	-156.530	-0.139	-0.009
-203.377	91.465	0.107	-0.118
-202.363	-67.950	-0.329	-0.127
-201.348	-200.000	-0.007	0.121
-200.333	0.736	0.400	0.282
-199.319	736.335	-0.108	-0.285
-198.304	555.592	0.180	-0.426
-197.290	26.987	-0.064	-0.053
-196.275	-140.542	-0.335	0.034
-195.260	-200.000	0.015	0.149
-194.246	100.926	0.185	-0.212
-193.231	-200.000	0.007	0.097
-192.217	-12.037	0.209	-0.135
-191.202	290.273	0.101	-0.181
-190.187	18.741	0.156	0.123
-189.173	-99.995	0.105	0.026
-188.158	-25.481	0.281	-0.163
-187.144	-8.734	-0.131	0.087
-186.129	800.000	-0.044	-0.120
-185.114	800.000	-0.035	-0.107
-184.100	-200.000	0.007	-0.311
-183.085	-11.172	-0.114	0.074
-182.071	103.379	-0.236	-0.272
-181.056	-200.000	0.003	0.033
-180.042	-200.000	-0.003	0.350
-179.027	-200.000	-0.021	-0.094
-178.012	-153.837	-0.113	-0.008
-176.998	137.349	-0.116	0.150
-175.983	800.000	0.075	-0.296
-174.969	-22.806	0.059	-0.035
-173.954	-200.000	-0.040	0.198
-172.939	268.786	-0.142	-0.244
-171.925	-39.012	0.190	-0.098
-170.910	38.226	0.183	-0.160
-169.896	22.753	-0.210	0.169
-168.881	-200.000	0.022	-0.342
-167.866	187.190	0.094	0.138
-166.852	5.988	-0.097	-0.071
-165.837	-30.535	-0.247	0.138
-164.823	-91.442	0.136	0.038
-163.808	-56.401	0.054	0.023
-162.793	580.616	-0.081	-0.195
-161.779	346.559	0.123	-0.238
-160.764	386.831	-0.053	-0.107
-159.750	-200.000	0.025	-0.364
-158.735	800.000	-0.057	0.183
-157.720	800.000	0.060	-0.250
-156.706	-200.000	-0.050	0.224
-155.691	-200.000	-0.029	0.316
-154.677	-137.916	-0.220	0.024
-153.662	108.829	0.134	0.158
-152.647	800.000	-0.043	-0.147
-151.633	-53.263	-0.052	0.023
-150.618	637.753	0.016	-0.040
-149.604	-68.183	-0.282	0.108
-148.589	228.269	0.164	0.262
-147.574	-71.481	0.306	-0.112
-146.560	-200.000	0.002	-0.028
-145.545	48.755	0.152	0.140
-144.531	669.924	0.073	0.185
-143.516	555.913	0.120	0.285
-142.502	-200.000	0.013	-0.424
-141.487	-200.000	-0.018	-0.351
-140.472	-200.000	0.020	0.104
-139.458	-8.542	-0.287	-0.189
-138.443	-79.109	0.101	0.034
-137.429	-39.469	-0.031	-0.016
-136.414	-200.000	0.004	0.220
-135.399	-200.000	-0.007	0.211
-134.385	800.000	0.057	-0.204
-133.370	-200.000	-0.004	-0.060
-132.356	-64.597	0.216	0.086
-131.341	-200.000	0.004	0.090
-130.326	-200.000	-0.022	-0.199
-129.312	-82.612	-0.089	0.028
-128.297	72.546	-0.072	-0.074
-127.283	800.000	0.044	0.135
-126.268	-79.829	-0.113	0.037
-125.253	-117.177	0.022	0.004
-124.239	-153.068	0.147	-0.010
-123.224	22.368	0.366	0.293
-122.210	-84.688	0.231	-0.071
-121.195	-77.703	0.119	0.040
-120.180	800.000	0.045	-0.187
-119.166	85.848	-0.208	-0.224
-118.151	-149.277	0.140	0.011
-117.137	176.571	0.071	-0.102
-116.122	48.774	-0.092	-0.085
-115.107	-166.177	0.317	0.013
-114.093	551.829	0.038	-0.090
-113.078	-105.205	-0.512	-0.115
-112.064	-52.088	-0.036	-0.016
-111.049	800.000	0.113	-0.306
-110.034	794.823	0.059	-0.158
-109.020	216.574	-0.151	-0.235
-108.005	380.956	0.155	-0.311
-106.991	-200.000	-0.051	-0.298
-105.976	218.626	-0.131	0.206
-104.962	211.096	0.047	0.072
-103.947	-200.000	-0.065	0.415
-102.932	800.000	0.010	0.044
-101.918	32.941	0.141	-0.120
-100.903	-63.433	0.220	-0.089
-99.889	800.000	-0.051	0.141
-98.874	277.846	0.076	0.132
-97.859	-200.000	-0.020	0.283
-96.845	-58.316	0.084	-0.036
-95.830	657.272	-0.114	0.287
-94.816	-200.000	-0.050	0.268
-93.801	-7.064	0.384	0.255
-92.786	82.892	0.069	0.073
-91.772	-89.635	0.041	0.012
-90.757	273.705	-0.190	0.330
-89.743	136.788	0.157	0.201
-88.728	800.000	0.128	0.411
-87.713	-166.354	0.111	0.005
-86.699	-28.300	0.245	0.139
-85.684	280.048	0.183	-0.320
-84.670	-113.020	-0.204	-0.040
-83.655	301.175	0.058	0.105
-82.640	-55.982	0.371	-0.162
-81.626	-200.000	-0.005	-0.154
-80.611	304.308	0.135	-0.246
-79.597	800.000	0.109	0.424
-78.582	411.041	0.057	0.119
-77.567	67.802	-0.048	-0.048
-76.553	55.951	-0.119	0.113
-75.538	-139.550	-0.342	-0.036
-74.524	-200.000	0.007	-0.141
-73.509	-200.000	0.014	-0.372
-72.494	-200.000	0.023	0.175
-71.480	80.434	0.116	0.122
-70.465	800.000	0.053	0.162
-69.451	-4.155	-0.107	0.073
-68.436	-7.739	0.129	-0.086
-67.422	129.107	-0.196	-0.244
-66.407	118.820	-0.038	0.046
-65.392	60.060	0.156	-0.151
-64.378	-16.188	-0.186	0.116
-63.363	-137.174	-0.289	-0.032
-62.349	50.154	0.141	-0.130
-61.334	150.744	-0.985	-1.310
-60.319	191.225	0.245	0.361
-59.305	800.000	-0.339	-0.963
-58.290	197.475	0.812	1.213
-57.276	504.860	0.723	1.638
-56.261	-200.000	116.647	659.864
-55.246	523.272	1535.499	3530.975
-54.232	176.690	2701.920	3844.337
-53.217	107.322	2149.810	2501.418
-52.203	38.405	1590.282	1386.599
-51.188	30.254	1335.462	1115.598
-50.173	27.396	1297.768	1067.340
-49.159	54.587	1355.286	1278.230
-48.144	52.841	1368.807	1280.507
-47.130	30.376	1323.937	1106.525
-46.115	27.054	1305.577	1071.571
-45.100	26.882	1300.674	1066.493
-44.086	26.814	1298.155	1063.990
-43.071	26.760	1295.751	1061.660
-42.057	26.748	1293.855	1059.996
-41.042	26.806	1292.266	1058.989
-40.027	26.724	1290.883	1057.333
-39.013	26.767	1288.913	1055.927
-37.998	26.847	1286.801	1054.625
-36.984	26.973	1285.077	1053.899
-35.969	26.938	1283.676	1052.508
-34.954	26.959	1281.750	1051.004
-33.940	27.008	1280.289	1050.050
-32.925	27.119	1278.961	1049.563
-31.911	26.946	1278.003	1047.731
-30.896	26.935	1276.397	1046.310
-29.881	27.007	1275.036	1045.572
-28.867	27.126	1273.043	1044.576
-27.852	27.083	1272.485	1043.832
-26.838	27.033	1270.967	1042.256
-25.823	26.954	1269.557	1040.606
-24.809	26.939	1268.223	1039.388
-23.794	26.935	1267.138	1038.431
-22.779	27.092	1265.247	1037.740
-21.765	26.961	1264.082	1035.997
-20.750	26.954	1262.943	1034.983
-19.736	26.970	1262.006	1034.264
-18.721	26.863	1260.544	1032.413
-17.706	26.865	1259.451	1031.492
-16.692	26.974	1258.549	1031.329
-15.677	26.843	1257.697	1029.850
-14.663	26.849	1256.385	1028.768
-13.648	26.897	1255.011	1027.874
-12.633	26.908	1254.228	1027.254
-11.619	26.947	1253.365	1026.723
-10.604	26.913	1252.485	1025.769
-9.590	27.013	1251.440	1025.439
-8.575	26.898	1250.536	1024.010
-7.560	26.875	1249.745	1023.188
-6.546	26.884	1248.518	1022.199
-5.531	26.817	1248.159	1021.482
-4.517	26.918	1246.566	1020.710
-3.502	26.905	1246.079	1020.197
-2.487	26.893	1245.450	1019.575
-1.473	26.843	1241.012	1015.619
-0.458	25.278	1225.899	994.548
0.556	23.325	1208.328	955.794
1.571	19.357	1213.620	938.348
2.586	18.409	1228.429	944.488
3.600	18.191	1216.530	934.063
4.615	14.126	1146.100	858.957
5.629	7.279	1074.948	772.295
6.644	4.351	1057.448	745.602
7.659	4.114	1055.370	742.933
8.673	3.837	1053.898	740.504
9.688	3.919	1052.323	739.727
10.702	4.177	1050.412	739.549
11.717	8.779	1056.362	765.710
12.731	16.453	1067.614	810.745
13.746	21.395	1073.761	839.118
14.761	22.427	1074.386	844.488
15.775	21.690	1072.770	839.612
16.790	20.804	1071.054	833.951
17.804	20.228	1069.794	830.141
18.819	19.899	1068.984	827.868
19.834	19.963	1068.069	827.389
20.848	19.915	1067.852	826.922
21.863	19.708	1067.215	825.362
22.877	19.581	1066.466	824.104
23.892	19.557	1065.606	823.252
24.907	19.484	1064.547	822.014
25.921	19.527	1063.470	821.317
26.936	19.496	1062.216	820.126
27.950	19.402	1061.154	818.786
28.965	19.598	1059.810	818.607
29.980	19.783	1058.666	818.527
30.994	19.886	1057.588	818.111
32.009	19.937	1056.453	817.402
33.023	19.811	1055.837	816.258
34.038	19.685	1054.742	814.745
35.053	19.512	1053.752	813.092
36.067	19.468	1052.670	811.980
37.082	19.678	1052.028	812.399
38.096	19.793	1051.600	812.534
39.111	19.840	1050.645	811.948
40.126	19.584	1049.395	809.708
41.140	19.256	1047.583	806.705
42.155	18.976	1046.852	804.759
43.169	19.048	1045.787	804.207
44.184	19.039	1044.397	803.025
45.199	19.154	1043.698	802.951
46.213	19.254	1043.290	803.035
47.228	19.594	1042.194	803.699
48.242	19.670	1041.392	803.366
49.257	19.533	1040.587	802.035
50.271	19.689	1039.741	802.036
51.286	19.793	1038.601	801.567
52.301	19.712	1038.001	800.660
53.315	19.522	1036.799	798.784
54.330	19.350	1035.894	797.221
55.344	19.213	1034.879	795.734
56.359	19.325	1033.755	795.317
57.374	19.158	1033.262	794.098
58.388	19.091	1031.881	792.659
59.403	18.964	1031.116	791.415
60.417	19.148	1030.041	791.367
61.432	18.918	1029.347	789.705
62.447	19.018	1028.553	789.487
63.461	18.888	1027.841	788.275
64.476	18.828	1026.859	787.176
65.490	18.843	1025.962	786.489
66.505	18.853	1025.404	786.034
67.520	18.849	1025.045	785.675
68.534	18.842	1023.833	784.641
69.549	18.837	1023.465	784.268
70.563	18.740	1022.215	782.800
71.578	18.588	1021.519	781.504
72.593	18.432	1020.543	779.980
73.607	18.450	1020.170	779.705
74.622	18.605	1019.314	779.685
75.636	18.517	1018.633	778.695
76.651	18.706	1017.984	778.990
77.666	18.794	1017.720	779.119
78.680	18.717	1017.325	778.398
79.695	18.770	1016.303	777.788
80.709	18.953	1015.767	778.138
81.724	19.044	1015.455	778.240
82.739	19.275	1014.521	778.500
83.753	19.562	1014.046	779.361
84.768	19.841	1014.007	780.520
85.782	20.061	1013.225	780.844
86.797	19.872	1011.952	778.942
87.812	19.756	1010.668	777.363
88.826	19.692	1010.111	776.578
89.841	19.827	1009.070	776.317
90.855	19.931	1008.133	775.989
91.870	19.950	1007.191	775.283
92.884	19.924	1006.191	774.327
93.899	19.956	1005.231	773.666
94.914	20.008	1004.897	773.569
95.928	19.971	1003.867	772.542
96.943	19.764	1002.640	770.609
97.957	19.641	1002.069	769.555
98.972	19.711	1001.388	769.272
99.987	19.722	1000.762	768.774
101.001	19.676	999.808	767.768
102.016	19.707	998.339	766.712
103.030	19.888	997.764	767.004
104.045	19.706	997.516	765.941
105.060	19.692	995.720	764.431
106.074	19.318	994.739	761.955
107.089	19.006	993.598	759.636
108.103	19.034	992.214	758.634
109.118	18.908	991.433	757.418
110.133	18.852	990.168	756.138
111.147	18.880	989.673	755.813
112.162	18.863	989.061	755.206
113.176	19.192	988.167	755.902
114.191	19.218	987.332	755.308
115.206	19.127	986.919	754.527
116.220	18.951	986.537	753.397
117.235	18.991	985.089	752.399
118.249	18.873	984.174	751.119
119.264	18.900	983.604	750.736
120.279	18.764	982.839	749.490
121.293	18.754	981.570	748.413
122.308	18.661	980.174	746.878
123.322	18.628	979.302	746.005
124.337	18.655	978.222	745.234
125.352	18.567	977.887	744.530
126.366	18.608	976.675	743.719
127.381	18.672	975.503	743.036
128.395	18.728	974.629	742.548
129.410	18.798	973.999	742.307
130.424	18.822	973.437	741.916
131.439	19.154	972.764	742.767
132.454	19.020	972.294	741.769
133.468	19.114	971.409	741.428
134.483	18.991	970.642	740.250
135.497	19.096	970.015	740.157
136.512	19.191	968.953	739.692
137.527	19.113	967.918	738.502
138.541	19.235	967.370	738.540
139.556	19.284	966.689	738.162
140.570	19.420	966.494	738.532
141.585	19.755	965.620	739.233
142.600	19.708	964.999	738.489
143.614	19.770	964.354	738.194
144.629	19.964	963.259	738.121
145.643	19.821	962.037	736.511
146.658	19.556	960.671	734.273
147.673	19.338	959.923	732.710
148.687	19.244	958.815	731.398
149.702	19.126	958.229	730.386
150.716	19.182	957.266	729.826
151.731	19.301	956.131	729.400
152.746	19.218	956.192	729.029
153.760	19.243	955.400	728.466
154.775	19.489	954.815	728.996
155.789	19.498	954.394	728.649
156.804	19.518	953.173	727.735
157.819	19.560	952.708	727.494
158.833	19.725	952.631	728.064
159.848	19.899	951.579	727.926
160.862	19.713	950.276	726.087
161.877	19.489	948.763	723.926
162.892	19.155	947.044	721.154
163.906	19.147	946.630	720.739
164.921	19.268	945.902	720.628
165.935	19.229	944.832	719.585
166.950	19.322	944.571	719.711
167.964	19.393	943.300	718.975
168.979	19.182	942.584	717.488
169.994	19.290	941.372	716.949
171.008	19.433	940.891	717.115
172.023	19.746	940.660	718.175
173.037	19.711	940.219	717.629
174.052	19.626	939.096	716.358
175.067	19.177	938.105	713.677
176.081	19.093	937.379	712.713
177.096	19.069	937.224	712.436
178.110	19.128	936.578	712.126
179.125	19.203	936.005	711.936
180.140	19.072	936.042	711.361
181.154	19.490	935.505	712.614
182.169	19.745	935.196	713.370
183.183	19.693	934.451	712.522
184.198	19.685	933.252	711.512
185.213	19.688	933.156	711.390
186.227	19.792	932.319	711.115
187.242	19.774	931.926	710.678
188.256	19.970	931.415	711.029
189.271	20.120	930.336	710.759
190.286	19.579	929.022	707.475
191.300	18.891	928.326	704.066
192.315	18.911	927.135	703.183
193.329	19.035	926.910	703.459
194.344	19.259	926.498	703.999
195.359	19.304	926.116	703.828
196.373	19.526	925.601	704.281
197.388	19.771	925.325	705.007
198.402	19.942	925.090	705.462
199.417	20.150	924.278	705.628
200.432	20.311	923.665	705.752
201.446	20.363	923.211	705.553
202.461	20.494	922.869	705.764
203.475	20.260	922.046	704.120
204.490	19.952	921.103	702.090
205.504	19.881	919.895	700.821
206.519	19.750	919.151	699.659
207.534	19.714	918.995	699.334
208.548	19.771	918.108	698.827
209.563	19.729	917.737	698.314
210.577	19.894	917.150	698.473
211.592	20.193	916.195	698.887
212.607	20.263	915.679	698.715
213.621	20.185	915.019	697.836
214.636	20.004	914.758	696.848
215.650	20.142	914.017	696.774
216.665	20.326	912.604	696.375
217.680	20.396	912.488	696.505
218.694	20.293	912.050	695.696
219.709	20.171	911.653	694.844
220.723	20.167	910.849	694.151
221.738	20.086	909.742	692.924
222.753	20.090	909.170	692.442
223.767	20.235	909.103	692.908
224.782	20.519	908.302	693.371
225.796	20.417	908.135	692.775
226.811	20.193	906.922	690.897
227.826	20.183	905.852	689.981
228.840	20.160	904.916	689.116
229.855	20.060	904.427	688.284
230.869	20.037	903.935	687.757
231.884	19.992	903.099	686.882
232.899	19.997	901.938	685.958
233.913	19.829	901.521	684.915
234.928	19.778	900.890	684.172
235.942	19.735	900.162	683.392
236.957	19.706	899.865	682.989
237.972	19.809	899.032	682.703
238.986	19.657	899.041	682.051
240.001	19.753	898.120	681.671
241.015	19.745	897.903	681.413
242.030	19.937	897.437	681.754
243.045	20.097	897.000	681.991
244.059	20.104	895.837	681.074
245.074	20.148	895.499	680.933
246.088	20.301	894.673	680.842
247.103	20.329	894.611	680.844
248.117	20.632	894.155	681.624
249.132	20.899	893.969	682.471
250.147	21.222	893.115	683.022
251.161	21.168	892.686	682.422
252.176	21.336	891.801	682.340
253.190	21.168	891.646	681.506
254.205	21.235	891.098	681.286
255.220	21.123	890.250	680.144
256.234	21.174	889.550	679.746
257.249	21.081	888.852	678.793
258.263	21.027	888.099	677.947
259.278	21.120	887.321	677.652
260.293	21.131	887.456	677.737
261.307	21.177	887.077	677.567
262.322	21.379	886.191	677.613
263.336	21.383	885.339	676.919
264.351	21.350	884.088	675.773
265.366	21.299	884.017	675.465
266.380	21.281	883.360	674.833
267.395	21.173	882.557	673.743
268.409	20.968	881.798	672.313
269.424	21.166	880.688	672.168
270.439	20.961	880.292	671.018
271.453	20.863	879.671	670.108
272.468	20.953	879.034	669.912
273.482	21.035	878.350	669.643
274.497	20.944	877.809	668.823
275.512	20.981	877.077	668.350
276.526	20.938	876.918	668.005
277.541	20.981	876.917	668.111
278.555	21.233	875.841	668.193
279.570	21.435	875.577	668.706
280.585	21.413	874.212	667.521
281.599	21.128	873.440	665.784
282.614	20.861	872.897	664.294
283.628	20.966	871.979	663.937
284.643	20.926	872.147	663.851
285.657	21.065	870.985	663.440
286.672	21.053	870.406	662.892
287.687	21.101	869.804	662.558
288.701	20.939	869.552	661.694
289.716	21.152	868.625	661.737
290.730	21.171	867.886	661.186
291.745	21.083	867.780	660.715
292.760	21.298	867.200	661.027
293.774	21.441	866.799	661.203
294.789	21.451	865.993	660.568
295.803	21.166	864.908	658.608
296.818	21.158	864.127	657.926
297.833	21.085	863.655	657.230
298.847	21.050	863.418	656.861
299.862	21.278	862.726	657.136
300.876	21.287	862.318	656.800
301.891	21.585	861.896	657.540
302.906	21.610	861.474	657.255
303.920	21.690	861.342	657.396
304.935	21.849	860.679	657.427
305.949	21.707	859.808	656.172
306.964	21.435	859.096	654.552
307.979	21.520	858.476	654.342
308.993	21.546	858.213	654.178
310.008	21.634	857.587	653.971
311.022	21.573	856.645	652.967
312.037	21.480	855.700	651.844
313.052	21.113	855.499	650.266
314.066	20.980	854.488	648.943
315.081	20.961	854.395	648.747
316.095	21.090	853.271	648.313
317.110	21.100	853.031	648.111
318.125	21.156	852.185	647.618
319.139	21.013	851.848	646.777
320.154	21.196	851.155	646.872
321.168	21.266	850.691	646.719
322.183	21.096	850.667	646.014
323.197	21.258	850.197	646.199
324.212	21.270	849.503	645.659
325.227	21.251	848.965	645.123
326.241	21.117	848.436	644.169
327.256	21.070	847.654	643.346
328.270	21.055	846.881	642.649
329.285	21.045	846.689	642.406
330.300	21.205	845.484	642.025
331.314	21.219	845.516	642.044
332.329	21.323	845.377	642.265
333.343	21.631	844.525	642.690
334.358	21.480	844.432	642.008
335.373	21.583	843.920	641.939
336.387	21.605	843.682	641.782
337.402	21.947	843.032	642.483
338.416	21.949	842.972	642.388
339.431	21.937	843.252	642.501
340.446	22.069	842.719	642.520
341.460	22.038	842.542	642.216
342.475	22.099	842.130	642.070
343.489	22.200	841.620	641.992
344.504	22.359	841.013	642.051
345.519	22.298	840.711	641.541
346.533	22.416	839.555	641.031
347.548	22.078	839.002	639.323
348.562	21.725	838.433	637.549
349.577	21.622	837.964	636.761
350.592	21.492	837.141	635.609
351.606	21.608	835.893	635.026
352.621	21.669	835.390	634.806
353.635	21.591	834.897	634.094
354.650	21.740	834.428	634.223
355.665	21.871	833.922	634.253
356.679	21.906	833.462	633.975
357.694	21.819	832.875	633.157
358.708	21.793	831.804	632.195
359.723	21.987	831.240	632.408
360.738	21.743	830.758	631.108
361.752	22.026	830.334	631.749
362.767	22.199	830.047	632.096
363.781	22.393	829.580	632.382
364.796	22.512	829.456	632.658
365.810	22.681	828.927	632.806
366.825	22.601	828.342	632.017
367.840	22.422	828.189	631.202
368.854	22.226	827.705	630.074
369.869	22.196	827.142	629.484
370.883	22.324	826.584	629.459
371.898	22.446	826.648	629.890
372.913	22.445	826.092	629.405
373.927	22.303	825.300	628.239
374.942	22.416	824.701	628.133
375.956	22.738	824.480	629.056
376.971	22.622	824.224	628.392
377.986	22.891	823.228	628.533
379.000	22.928	822.955	628.402
380.015	22.745	822.608	627.431
381.029	22.730	821.539	626.505
382.044	22.755	821.286	626.346
383.059	22.823	820.725	626.105
384.073	22.549	819.896	624.446
385.088	22.358	819.034	623.060
386.102	22.200	818.674	622.170
387.117	22.212	818.253	621.837
388.132	22.405	816.971	621.489
389.146	22.396	816.801	621.274
390.161	22.560	816.688	621.711
391.175	22.678	816.044	621.582
392.190	22.533	815.231	620.398
393.205	22.388	814.800	619.505
394.219	22.255	814.562	618.799
395.234	22.208	814.057	618.195
396.248	22.028	813.778	617.299
397.263	22.035	813.042	616.710
398.278	21.947	812.497	615.932
399.292	22.104	812.039	616.080
400.307	21.914	811.917	615.268
401.321	22.193	811.085	615.559
402.336	22.083	810.767	614.877
403.350	22.332	810.634	615.594
404.365	22.625	810.317	616.325
405.380	22.837	809.903	616.696
406.394	23.031	809.404	616.937
407.409	22.971	809.253	616.560
408.423	22.926	809.220	616.321
409.438	23.066	808.795	616.431
410.453	23.144	808.374	616.330
411.467	23.227	807.672	616.026
412.482	23.304	807.393	616.028
413.496	23.248	806.939	615.431
414.511	23.193	807.075	615.292
415.526	23.134	806.086	614.278
416.540	23.044	805.359	613.356
417.555	23.219	804.897	613.555
418.569	23.008	804.656	612.589
419.584	23.132	804.216	612.629
420.599	23.224	803.380	612.257
421.613	165.320	1372.161	1798.968
422.628	143.761	1455.040	1799.033
