DTS Sentinel unit serial number:	SN413079Multiplexer serial number:	ORYXHardware model number:	OX4-SRSoftware version number:	ORYX F/W v4.00 Oryx Data Collector v3.7.2.0data status	okinstallation	princeton_trtdifferential loss correction	single-endedforward channel	channel 1reverse channel	N/Adate	2019/09/19time	03:42:35forward acquisition time	60.00reverse acquisition time	0.00gamma	496.2192k internal	0.2343k external	0.2343temperature offset calibration	1.0014default loss term (dB/km)	0.3790temperature slope calibration	1.0000multiplexer offset coefficient	1.0000multiplexer slope coefficient	1.0000fibre end	0.00T internal ref (°C)	20.55T ext. ref 1 (°C)	0.64T ext. ref 2 (°C)	14.16length (m)	temperature (°C)	Stokes	anti-Stokes-747.200	800.000	0.076	-0.316
-746.185	86.262	-0.203	0.224
-745.171	120.259	-0.228	-0.283
-744.156	54.883	-0.246	0.238
-743.142	-157.326	-0.381	-0.023
-742.127	-200.000	-0.006	0.339
-741.112	88.338	0.173	0.192
-740.098	-110.586	-0.405	0.084
-739.083	-32.330	-0.224	-0.125
-738.069	-35.775	-0.248	0.135
-737.054	263.178	0.202	0.352
-736.039	-27.663	-0.097	-0.056
-735.025	533.943	0.090	0.212
-734.010	800.000	0.055	0.152
-732.996	40.618	-0.336	0.303
-731.981	29.980	-0.496	0.423
-730.966	31.670	-0.238	0.205
-729.952	800.000	-0.021	-0.089
-728.937	192.921	0.249	-0.377
-727.923	418.417	0.165	-0.352
-726.908	-59.770	-0.172	-0.074
-725.894	221.907	0.188	0.303
-724.879	-39.342	-0.193	0.101
-723.864	-200.000	0.008	0.236
-722.850	800.000	-0.130	-0.426
-721.835	-200.000	-0.013	0.125
-720.821	8.504	-0.267	0.201
-719.806	-200.000	-0.015	0.135
-718.791	44.112	-0.133	0.122
-717.777	-0.312	0.159	0.113
-716.762	62.502	0.184	-0.184
-715.748	800.000	-0.074	-0.275
-714.733	453.902	0.152	-0.337
-713.718	-20.981	-0.168	0.103
-712.704	-113.521	-0.165	-0.032
-711.689	-38.794	0.344	-0.182
-710.675	115.638	0.161	-0.197
-709.660	-191.171	-0.198	0.002
-708.645	-170.569	0.137	0.005
-707.631	36.242	-0.045	-0.039
-706.616	30.161	-0.056	0.048
-705.602	-200.000	-0.009	-0.334
-704.587	262.883	0.142	-0.247
-703.572	160.539	0.186	-0.259
-702.558	-178.385	0.223	-0.005
-701.543	64.884	0.176	0.178
-700.529	-42.054	-0.225	-0.115
-699.514	149.747	0.200	-0.271
-698.499	-113.445	0.327	0.064
-697.485	32.844	-0.109	0.095
-696.470	-200.000	-0.004	0.147
-695.456	800.000	0.081	0.276
-694.441	-170.567	0.081	0.003
-693.426	-15.491	-0.162	-0.103
-692.412	-178.310	0.311	-0.007
-691.397	-63.894	-0.325	0.133
-690.383	-200.000	0.002	0.040
-689.368	800.000	0.031	-0.096
-688.354	-68.596	-0.343	0.133
-687.339	-200.000	0.022	-0.110
-686.324	47.461	-0.188	0.175
-685.310	346.622	0.033	-0.064
-684.295	800.000	-0.071	-0.293
-683.281	-200.000	-0.020	-0.285
-682.266	118.819	-0.081	-0.100
-681.251	62.930	0.111	0.111
-680.237	-15.296	-0.431	-0.275
-679.222	-200.000	0.026	-0.168
-678.208	-123.846	-0.242	0.038
-677.193	-19.608	0.198	-0.122
-676.178	49.767	0.182	0.171
-675.164	-200.000	-0.081	0.525
-674.149	-200.000	0.034	-0.193
-673.135	-48.644	-0.094	0.045
-672.120	57.700	-0.276	-0.269
-671.105	-200.000	-0.036	-0.214
-670.091	800.000	0.064	0.178
-669.076	-187.959	-0.383	-0.005
-668.062	306.543	-0.190	-0.353
-667.047	40.733	-0.195	0.176
-666.032	257.568	-0.124	0.214
-665.018	-59.114	0.256	0.110
-664.003	-140.903	0.110	-0.011
-662.989	800.000	-0.081	-0.252
-661.974	-177.879	-0.099	0.002
-660.959	-38.102	0.235	0.124
-659.945	-124.120	0.170	0.027
-658.930	-200.000	0.037	-0.255
-657.916	-43.775	-0.176	-0.089
-656.901	691.934	-0.086	-0.226
-655.886	-59.523	-0.121	-0.052
-654.872	372.136	-0.111	0.224
-653.857	349.776	-0.159	0.314
-652.843	177.410	-0.095	0.138
-651.828	-24.952	0.269	0.159
-650.814	-150.889	0.157	0.012
-649.799	-0.474	-0.227	0.161
-648.784	375.645	-0.020	0.040
-647.770	-145.781	0.114	0.010
-646.755	190.913	-0.081	0.122
-645.741	-200.000	0.016	-0.095
-644.726	319.381	0.051	0.096
-643.711	525.596	-0.156	0.366
-642.697	-54.548	0.235	-0.106
-641.682	800.000	0.085	-0.359
-640.668	203.381	0.296	-0.456
-639.653	-85.494	-0.452	-0.140
-638.638	-200.000	-0.006	-0.086
-637.624	800.000	0.091	0.298
-636.609	-6.657	-0.163	-0.111
-635.595	-74.978	0.168	0.060
-634.580	426.290	-0.059	-0.127
-633.565	-78.803	0.089	0.030
-632.551	-27.164	-0.183	0.106
-631.536	-200.000	0.021	-0.317
-630.522	-200.000	0.017	-0.261
-629.507	609.318	0.067	-0.166
-628.492	609.248	0.060	-0.149
-627.478	-89.393	0.203	-0.060
-626.463	-200.000	-0.030	0.133
-625.449	32.802	0.213	-0.184
-624.434	-135.526	0.319	0.038
-623.419	800.000	0.030	0.117
-622.405	-2.074	0.193	-0.135
-621.390	-36.907	-0.115	-0.061
-620.376	-200.000	0.035	0.161
-619.361	61.530	0.150	-0.149
-618.346	137.583	0.217	0.283
-617.332	-29.670	0.208	0.119
-616.317	-104.955	0.225	0.052
-615.303	23.435	-0.182	0.149
-614.288	762.328	0.082	-0.222
-613.273	800.000	0.060	0.195
-612.259	-124.242	0.261	-0.041
-611.244	-77.865	-0.302	-0.104
-610.230	-200.000	-0.040	0.257
-609.215	-57.740	0.258	0.112
-608.201	269.084	-0.175	-0.306
-607.186	-102.227	0.125	-0.030
-606.171	-3.525	-0.079	-0.055
-605.157	-55.896	0.191	0.085
-604.142	-154.107	-0.357	-0.024
-603.128	-161.597	-0.384	-0.020
-602.113	219.471	-0.067	0.107
-601.098	-33.528	-0.148	0.082
-600.084	219.484	-0.211	0.337
-599.069	-30.533	-0.267	0.151
-598.055	-200.000	-0.066	-0.301
-597.040	800.000	0.035	-0.139
-596.025	-148.795	-0.285	0.023
-595.011	48.455	-0.092	-0.086
-593.996	116.232	0.082	0.101
-592.982	-160.785	0.161	0.008
-591.967	-200.000	0.006	0.060
-590.952	-200.000	-0.074	0.000
-589.938	-200.000	0.031	0.188
-588.923	-200.000	-0.022	-0.280
-587.909	-167.071	-0.140	-0.006
-586.894	800.000	0.077	0.330
-585.879	-200.000	-0.018	-0.124
-584.865	3.945	-0.225	0.164
-583.850	85.701	-0.195	-0.213
-582.836	572.723	-0.128	-0.311
-581.821	535.713	0.152	-0.359
-580.806	123.672	0.091	0.114
-579.792	307.480	0.032	0.059
-578.777	-72.235	0.251	0.093
-577.763	800.000	0.062	0.206
-576.748	-68.024	-0.323	0.125
-575.733	-7.475	-0.106	0.071
-574.719	11.171	0.093	-0.070
-573.704	-200.000	0.015	0.254
-572.690	-157.093	0.100	0.006
-571.675	-200.000	-0.016	-0.331
-570.661	249.201	0.128	-0.216
-569.646	-74.929	-0.116	0.041
-568.631	47.977	-0.254	0.236
-567.617	-200.000	-0.004	0.232
-566.602	-131.801	0.073	-0.010
-565.588	0.886	0.144	-0.103
-564.573	-127.744	0.340	-0.049
-563.558	55.469	-0.163	0.157
-562.544	591.698	0.133	0.327
-561.529	-200.000	-0.023	0.221
-560.515	604.263	-0.070	0.173
-559.500	-36.618	-0.231	0.124
-558.485	-105.067	-0.332	-0.076
-557.471	-173.834	0.173	-0.005
-556.456	-137.453	-0.206	-0.023
-555.442	-150.516	0.240	-0.018
-554.427	157.526	-0.091	-0.125
-553.412	-28.427	-0.266	0.153
-552.398	564.222	-0.063	-0.153
-551.383	130.757	0.246	-0.313
-550.369	-69.145	0.239	-0.092
-549.354	-77.217	-0.259	-0.089
-548.339	-200.000	0.013	-0.206
-547.325	-73.676	0.395	-0.143
-546.310	-63.787	0.191	-0.078
-545.296	-167.882	-0.026	0.001
-544.281	50.232	-0.364	-0.342
-543.266	-127.392	-0.095	0.014
-542.252	497.985	-0.046	-0.105
-541.237	30.974	-0.123	0.105
-540.223	451.005	0.143	-0.313
-539.208	-122.086	-0.197	-0.032
-538.193	144.061	-0.231	-0.307
-537.179	-200.000	0.014	0.191
-536.164	-133.049	0.249	0.031
-535.150	-2.980	-0.371	0.257
-534.135	89.972	0.190	0.211
-533.121	676.321	-0.048	0.125
-532.106	165.954	-0.163	0.230
-531.091	-200.000	-0.047	0.424
-530.077	-200.000	0.064	-0.372
-529.062	-122.908	-0.505	0.081
-528.048	421.362	-0.129	-0.274
-527.033	159.313	-0.150	0.207
-526.018	-52.036	-0.109	0.050
-525.004	800.000	0.056	0.197
-523.989	-122.260	0.181	0.029
-522.975	-28.129	0.111	-0.064
-521.960	-74.730	-0.089	0.032
-520.945	39.281	-0.186	0.165
-519.931	54.476	-0.160	-0.153
-518.916	64.805	-0.155	0.155
-517.902	204.423	-0.110	0.169
-516.887	59.342	0.124	-0.121
-515.872	-43.031	0.089	0.045
-514.858	800.000	0.048	0.143
-513.843	800.000	0.026	-0.110
-512.829	122.523	0.205	-0.255
-511.814	-15.239	-0.199	-0.126
-510.799	241.423	-0.150	0.249
-509.785	84.685	-0.155	0.168
-508.770	205.072	-0.091	-0.141
-507.756	-72.297	0.358	0.132
-506.741	44.920	0.189	0.172
-505.726	308.874	-0.160	0.296
-504.712	-41.329	-0.171	-0.087
-503.697	59.954	0.052	0.051
-502.683	-200.000	-0.044	0.208
-501.668	-200.000	0.015	-0.073
-500.653	36.625	0.372	0.326
-499.639	-70.881	-0.325	-0.121
-498.624	800.000	0.038	-0.132
-497.610	-74.946	-0.143	0.051
-496.595	-116.881	-0.100	0.018
-495.581	-117.551	0.173	-0.031
-494.566	-94.370	0.147	0.040
-493.551	-45.500	-0.202	-0.099
-492.537	-34.647	-0.158	0.086
-491.522	57.133	-0.351	0.339
-490.508	458.673	0.104	-0.229
-489.493	19.988	-0.173	0.138
-488.478	-200.000	-0.027	0.152
-487.464	21.459	0.421	0.339
-486.449	39.720	-0.149	-0.132
-485.435	-56.701	-0.068	-0.030
-484.420	-116.030	0.128	0.024
-483.405	78.847	-0.157	-0.167
-482.391	28.398	0.187	0.157
-481.376	730.291	0.117	-0.311
-480.362	420.172	0.085	0.180
-479.347	73.171	0.041	0.042
-478.332	-200.000	-0.008	0.119
-477.318	-200.000	0.007	-0.145
-476.303	117.281	0.085	-0.104
-475.289	46.818	0.142	-0.131
-474.274	-12.860	0.407	-0.263
-473.259	800.000	-0.102	-0.316
-472.245	-26.346	-0.060	0.035
-471.230	-133.434	-0.191	0.024
-470.216	-92.578	0.463	0.129
-469.201	-102.248	0.275	0.065
-468.186	340.790	-0.223	-0.431
-467.172	22.888	0.104	0.085
-466.157	-53.343	-0.130	0.059
-465.143	296.061	-0.072	-0.131
-464.128	-8.648	0.096	0.064
-463.113	-200.000	0.051	-0.334
-462.099	-89.491	-0.122	-0.036
-461.084	-200.000	-0.023	-0.206
-460.070	172.946	0.255	0.364
-459.055	-86.706	-0.219	-0.066
-458.040	63.264	0.092	-0.091
-457.026	266.830	-0.025	-0.043
-456.011	74.105	-0.139	0.144
-454.997	-200.000	-0.015	-0.081
-453.982	-200.000	-0.000	0.079
-452.968	599.964	0.048	0.119
-451.953	46.350	-0.216	-0.198
-450.938	585.151	-0.101	0.245
-449.924	41.571	-0.123	-0.110
-448.909	69.613	0.136	0.139
-447.895	-27.097	-0.291	0.168
-446.880	-170.674	-0.426	-0.015
-445.865	671.231	-0.119	-0.304
-444.851	274.953	-0.095	-0.167
-443.836	11.578	-0.257	-0.195
-442.822	-200.000	0.023	0.396
-441.807	196.259	0.204	0.308
-440.792	139.702	0.039	-0.051
-439.778	-13.396	-0.074	-0.048
-438.763	-152.365	-0.202	-0.014
-437.749	-70.355	0.159	0.060
-436.734	-92.410	0.160	0.044
-435.719	-200.000	-0.052	-0.354
-434.705	800.000	0.146	0.407
-433.690	-200.000	0.008	0.122
-432.676	119.525	0.124	-0.151
-431.661	99.181	-0.227	-0.259
-430.646	210.934	0.030	-0.047
-429.632	-18.024	-0.120	0.074
-428.617	-80.752	0.199	-0.065
-427.603	320.447	0.100	-0.187
-426.588	-20.673	0.113	0.069
-425.573	-93.326	-0.120	0.033
-424.559	276.075	-0.122	0.214
-423.544	481.113	0.044	-0.099
-422.530	32.470	0.172	-0.147
-421.515	-61.014	0.338	0.141
-420.500	196.622	-0.312	0.470
-419.486	-200.000	-0.030	-0.321
-418.471	800.000	0.071	0.258
-417.457	350.702	0.111	-0.218
-416.442	-84.578	-0.417	-0.130
-415.428	-129.476	0.104	-0.014
-414.413	295.362	-0.018	0.033
-413.398	194.508	0.323	-0.484
-412.384	-27.486	0.085	-0.049
-411.369	31.027	0.249	0.211
-410.355	-24.034	0.320	0.189
-409.340	-52.680	-0.177	-0.081
-408.325	-113.704	0.292	-0.056
-407.311	-200.000	-0.013	-0.116
-406.296	368.562	-0.084	0.167
-405.282	92.992	-0.237	0.264
-404.267	771.424	-0.155	0.417
-403.252	200.392	-0.088	-0.133
-402.238	-176.488	0.262	-0.007
-401.223	-109.133	0.240	0.050
-400.209	211.250	-0.241	-0.374
-399.194	-200.000	-0.001	-0.274
-398.179	640.946	-0.040	-0.099
-397.165	-56.295	0.138	-0.061
-396.150	471.150	0.115	0.256
-395.136	447.804	0.146	0.316
-394.121	11.500	-0.147	-0.112
-393.106	229.495	-0.189	-0.304
-392.092	241.419	-0.009	0.015
-391.077	-200.000	-0.016	0.260
-390.063	800.000	-0.024	0.094
-389.048	-44.922	0.437	0.215
-388.033	-73.985	0.490	0.176
-387.019	-200.000	-0.022	0.203
-386.004	-151.034	0.132	0.010
-384.990	-57.720	0.180	-0.078
-383.975	-152.447	-0.369	-0.026
-382.960	775.983	-0.122	-0.330
-381.946	-58.249	0.348	-0.149
-380.931	37.764	0.183	0.161
-379.917	279.787	0.181	-0.319
-378.902	14.542	-0.245	-0.189
-377.888	39.762	0.235	-0.208
-376.873	800.000	0.065	-0.192
-375.858	-139.961	-0.422	-0.044
-374.844	-200.000	-0.007	-0.316
-373.829	800.000	0.049	-0.139
-372.815	-156.881	-0.202	-0.012
-371.800	274.920	-0.117	-0.204
-370.785	-161.556	0.098	-0.005
-369.771	-200.000	-0.050	0.303
-368.756	-200.000	0.008	0.153
-367.742	-44.071	0.249	0.123
-366.727	-58.818	0.121	0.052
-365.712	509.265	-0.085	0.195
-364.698	48.152	-0.062	0.057
-363.683	-109.260	0.261	0.055
-362.669	613.648	0.072	0.178
-361.654	800.000	0.138	0.507
-360.639	-138.841	-0.370	0.040
-359.625	-200.000	0.018	0.305
-358.610	-200.000	0.020	-0.144
-357.596	800.000	0.050	0.142
-356.581	300.402	-0.152	-0.276
-355.566	127.931	-0.244	0.306
-354.552	-18.799	-0.292	-0.179
-353.537	108.013	0.213	-0.250
-352.523	800.000	0.042	-0.145
-351.508	-17.132	-0.136	0.085
-350.493	-152.580	0.203	-0.014
-349.479	57.054	-0.352	-0.339
-348.464	-19.171	-0.320	0.196
-347.450	800.000	0.064	0.177
-346.435	-100.790	0.274	-0.067
-345.420	613.442	0.164	-0.405
-344.406	-12.843	0.156	-0.100
-343.391	99.442	0.172	-0.196
-342.377	792.117	0.025	-0.069
-341.362	-200.000	-0.016	0.119
-340.348	-155.019	0.270	0.017
-339.333	-200.000	-0.004	0.073
-338.318	-19.776	-0.217	-0.132
-337.304	208.049	-0.041	-0.064
-336.289	-136.606	-0.071	-0.008
-335.275	-200.000	-0.001	0.085
-334.260	-157.709	-0.278	0.016
-333.245	61.106	-0.117	0.114
-332.231	-38.581	-0.142	0.074
-331.216	-7.522	0.071	0.048
-330.202	800.000	-0.025	-0.104
-329.187	-19.598	-0.116	-0.071
-328.172	790.300	0.093	-0.252
-327.158	8.022	-0.308	0.228
-326.143	-44.598	0.186	0.092
-325.129	-200.000	-0.011	-0.199
-324.114	104.556	-0.147	0.171
-323.099	800.000	-0.053	-0.181
-322.085	800.000	0.115	0.364
-321.070	159.608	0.183	0.251
-320.056	-134.109	0.337	0.041
-319.041	566.752	-0.163	0.389
-318.026	-79.481	0.637	0.212
-317.012	-10.512	-0.148	0.096
-315.997	101.065	0.036	-0.041
-314.983	-63.534	-0.293	-0.118
-313.968	42.065	0.113	0.101
-312.953	800.000	0.115	-0.456
-311.939	-103.291	-0.317	-0.074
-310.924	32.511	0.090	0.076
-309.910	-200.000	0.004	0.124
-308.895	-114.163	0.179	-0.034
-307.880	-65.544	-0.198	0.078
-306.866	800.000	-0.169	-0.531
-305.851	-200.000	-0.004	0.175
-304.837	800.000	-0.047	-0.156
-303.822	800.000	0.123	-0.390
-302.807	77.758	0.165	0.173
-301.793	-162.272	-0.406	-0.020
-300.778	78.856	0.137	0.145
-299.764	-11.060	0.299	0.194
-298.749	800.000	0.082	0.257
-297.735	-6.072	-0.192	-0.129
-296.720	-200.000	0.049	0.224
-295.705	-116.235	-0.079	0.014
-294.691	347.709	-0.051	0.098
-293.676	-26.590	-0.081	-0.046
-292.662	-136.734	0.501	0.057
-291.647	248.136	0.142	0.237
-290.632	800.000	-0.066	0.255
-289.618	-137.967	0.064	-0.007
-288.603	-3.027	-0.055	0.037
-287.589	-200.000	0.024	0.286
-286.574	91.001	0.486	-0.536
-285.559	-168.411	-0.261	-0.010
-284.545	-34.914	-0.287	-0.154
-283.530	47.337	0.159	-0.145
-282.516	-200.000	-0.072	-0.415
-281.501	50.734	-0.114	-0.106
-280.486	-142.859	0.176	-0.017
-279.472	-165.365	-0.108	-0.005
-278.457	37.669	0.070	0.061
-277.443	800.000	0.075	0.265
-276.428	260.874	-0.101	0.172
-275.413	522.107	-0.163	0.376
-274.399	271.534	-0.021	-0.036
-273.384	800.000	0.111	-0.303
-272.370	4.132	-0.155	-0.112
-271.355	135.851	-0.150	-0.192
-270.340	417.894	-0.166	-0.348
-269.326	155.930	-0.074	0.100
-268.311	-132.942	-0.273	0.034
-267.297	-200.000	0.048	-0.290
-266.282	299.494	-0.232	0.419
-265.267	-77.324	0.234	0.080
-264.253	56.347	-0.125	-0.120
-263.238	6.673	-0.154	-0.112
-262.224	12.917	-0.111	-0.085
-261.209	-200.000	0.033	0.244
-260.195	-200.000	-0.070	-0.452
-259.180	-200.000	0.022	0.293
-258.165	-200.000	-0.006	0.243
-257.151	-44.711	0.203	-0.100
-256.136	-45.873	-0.168	0.082
-255.122	-113.102	-0.133	-0.026
-254.107	-87.178	0.150	0.045
-253.092	74.644	0.292	-0.302
-252.078	-86.135	0.258	0.078
-251.063	-0.389	-0.259	-0.181
-250.049	19.707	-0.072	-0.057
-249.034	-200.000	-0.002	0.258
-248.019	-109.037	-0.209	0.044
-247.005	-182.990	-0.308	-0.005
-245.990	-42.730	0.133	0.066
-244.976	800.000	-0.068	-0.227
-243.961	288.682	-0.160	-0.285
-242.946	-200.000	0.014	-0.254
-241.932	-200.000	-0.002	0.011
-240.917	-60.745	-0.274	-0.114
-239.903	-13.128	0.163	0.104
-238.888	-69.140	-0.067	-0.025
-237.873	683.566	0.109	-0.280
-236.859	38.508	0.100	-0.087
-235.844	0.502	0.154	-0.108
-234.830	800.000	0.071	-0.229
-233.815	180.308	0.243	0.349
-232.800	-63.608	-0.383	0.154
-231.786	-200.000	0.023	-0.109
-230.771	-61.773	-0.299	0.123
-229.757	188.670	-0.040	-0.058
-228.742	800.000	-0.010	-0.029
-227.727	2.020	-0.306	-0.216
-226.713	320.367	-0.079	0.147
-225.698	212.701	0.190	-0.294
-224.684	3.018	0.234	0.167
-223.669	800.000	0.085	0.243
-222.655	-200.000	-0.021	0.118
-221.640	-200.000	0.004	-0.143
-220.625	-163.954	0.207	0.009
-219.611	-200.000	0.065	0.405
-218.596	-51.002	-0.206	0.095
-217.582	800.000	0.078	-0.254
-216.567	249.318	0.239	0.397
-215.552	6.923	0.412	0.301
-214.538	27.645	-0.092	0.076
-213.523	492.873	-0.110	0.247
-212.509	-34.966	0.374	0.200
-211.494	-13.081	0.055	0.035
-210.479	-93.564	0.451	0.122
-209.465	15.995	0.118	0.091
-208.450	14.149	-0.312	0.238
-207.436	800.000	0.070	-0.219
-206.421	-127.995	0.149	-0.021
-205.406	-109.569	-0.284	-0.059
-204.392	63.441	0.078	-0.076
-203.377	205.267	0.182	0.277
-202.363	-200.000	-0.016	0.430
-201.348	-138.770	0.340	0.036
-200.333	164.856	0.171	0.236
-199.319	39.635	-0.222	0.195
-198.304	-49.900	0.142	0.066
-197.290	73.822	0.243	-0.250
-196.275	698.918	-0.156	-0.401
-195.260	-33.502	-0.224	-0.121
-194.246	-67.124	0.393	-0.152
-193.231	800.000	-0.063	-0.181
-192.217	-200.000	0.033	-0.219
-191.202	329.989	0.121	0.228
-190.187	149.240	-0.160	-0.212
-189.173	-162.671	-0.043	-0.002
-188.158	-184.406	0.304	0.005
-187.144	-176.875	0.527	0.013
-186.129	-74.659	-0.138	0.049
-185.114	81.864	0.098	0.104
-184.100	-200.000	-0.005	-0.023
-183.085	-126.142	-0.158	-0.023
-182.071	800.000	0.040	-0.148
-181.056	800.000	0.116	0.355
-180.042	-125.459	-0.259	0.039
-179.027	138.875	-0.100	0.129
-178.012	-34.512	-0.111	-0.060
-176.998	-200.000	-0.024	0.202
-175.983	384.754	-0.058	-0.117
-174.969	8.202	0.027	-0.020
-173.954	145.349	0.099	-0.129
-172.939	-99.962	-0.154	0.038
-171.925	184.522	-0.146	-0.211
-170.910	227.530	0.137	-0.218
-169.896	-31.812	-0.165	-0.091
-168.881	-53.906	0.142	-0.063
-167.866	-50.179	0.244	0.113
-166.852	800.000	0.018	-0.063
-165.837	42.467	0.151	-0.135
-164.823	-22.826	0.101	0.059
-163.808	-165.549	-0.152	0.006
-162.793	-98.205	-0.311	-0.078
-161.779	-67.049	0.363	-0.140
-160.764	-200.000	-0.047	-0.332
-159.750	196.265	-0.079	-0.117
-158.735	15.946	0.174	-0.134
-157.720	93.714	-0.190	0.210
-156.706	-18.109	0.181	-0.111
-155.691	150.747	0.195	-0.259
-154.677	-129.140	-0.511	-0.070
-153.662	-59.855	-0.077	-0.032
-152.647	800.000	-0.083	0.235
-151.633	304.396	-0.115	0.210
-150.618	-3.575	-0.161	-0.109
-149.604	-200.000	0.014	0.079
-148.589	207.958	-0.151	0.230
-147.574	-58.880	0.286	-0.121
-146.560	800.000	0.065	0.246
-145.545	-200.000	-0.014	0.166
-144.531	164.197	-0.214	-0.295
-143.516	-11.133	-0.199	-0.128
-142.502	-200.000	-0.001	-0.092
-141.487	31.862	-0.284	-0.239
-140.472	22.529	0.185	0.148
-139.458	33.025	0.321	-0.272
-138.443	-35.654	0.285	0.151
-137.429	800.000	-0.092	-0.318
-136.414	38.137	-0.217	-0.189
-135.399	38.178	0.092	0.080
-134.385	-44.565	-0.144	-0.070
-133.370	-52.645	0.098	-0.044
-132.356	-112.784	0.134	-0.026
-131.341	-200.000	0.006	-0.240
-130.326	-140.309	0.023	-0.002
-129.312	-115.212	-0.209	0.039
-128.297	6.171	0.039	-0.029
-127.283	81.719	0.201	-0.213
-126.268	-200.000	-0.012	0.201
-125.253	-200.000	-0.025	0.240
-124.239	98.838	-0.217	-0.245
-123.224	348.479	0.134	-0.258
-122.210	118.439	-0.239	0.288
-121.195	-200.000	-0.022	-0.106
-120.180	31.791	-0.108	-0.091
-119.166	-200.000	0.002	0.273
-118.151	-137.465	-0.250	-0.028
-117.137	800.000	-0.128	-0.363
-116.122	106.917	-0.028	0.032
-115.107	-143.922	-0.083	0.008
-114.093	326.272	0.026	-0.049
-113.078	-58.579	0.267	-0.113
-112.064	-200.000	0.039	0.182
-111.049	254.440	-0.215	-0.360
-110.034	-200.000	-0.008	0.049
-109.020	-32.812	0.297	-0.161
-108.005	-200.000	0.018	0.221
-106.991	800.000	0.096	-0.387
-105.976	48.075	-0.029	0.027
-104.962	-200.000	0.009	-0.135
-103.947	-81.476	-0.397	0.128
-102.932	371.043	0.069	0.137
-101.918	-32.620	0.255	0.139
-100.903	-200.000	-0.013	0.163
-99.889	-31.318	0.220	-0.121
-98.874	129.184	-0.141	0.176
-97.859	-39.653	0.082	0.042
-96.845	-85.724	-0.272	0.082
-95.830	-120.303	0.279	-0.046
-94.816	-171.260	0.024	-0.001
-93.801	13.577	0.049	-0.037
-92.786	-200.000	-0.068	-0.300
-91.772	-48.757	0.243	-0.114
-90.757	405.671	-0.108	0.221
-89.743	-200.000	-0.030	-0.198
-88.728	-58.661	0.147	-0.062
-87.713	-10.291	0.352	-0.228
-86.699	140.035	-0.152	-0.196
-85.684	-35.010	0.342	0.182
-84.670	-25.609	-0.228	0.131
-83.655	99.443	-0.104	0.117
-82.640	-117.757	0.046	0.008
-81.626	-109.264	0.097	0.020
-80.611	36.775	-0.301	-0.260
-79.597	-99.077	0.322	0.080
-78.582	529.407	0.008	-0.017
-77.567	-23.186	-0.176	0.103
-76.553	-97.874	-0.134	-0.034
-75.538	-200.000	-0.005	0.200
-74.524	-139.417	0.127	-0.013
-73.509	-200.000	0.011	-0.170
-72.494	21.213	-0.193	0.153
-71.480	-34.135	-0.328	0.176
-70.465	-84.883	-0.055	0.017
-69.451	711.734	0.105	0.272
-68.436	-171.954	0.287	-0.009
-67.422	-200.000	0.015	0.128
-66.407	78.245	0.194	-0.202
-65.392	-63.924	-0.187	0.075
-64.378	80.179	0.088	0.092
-63.363	-17.409	0.110	0.068
-62.349	3.862	0.183	0.130
-61.334	57.676	-1.297	-1.236
-60.319	2.798	0.915	0.647
-59.305	297.871	-0.842	-1.509
-58.290	240.832	1.046	1.701
-57.276	700.297	0.671	1.720
-56.261	-200.000	136.870	665.936
-55.246	334.239	1676.571	3162.940
-54.232	134.399	2800.570	3539.324
-53.217	85.090	2170.837	2320.070
-52.203	31.334	1601.881	1340.546
-51.188	23.648	1351.441	1084.183
-50.173	21.563	1316.183	1043.439
-49.159	48.616	1390.488	1269.931
-48.144	44.751	1399.283	1254.177
-47.130	23.731	1346.728	1080.736
-46.115	20.604	1328.195	1047.026
-45.100	20.392	1322.949	1041.575
-44.086	20.477	1319.851	1039.603
-43.071	20.409	1317.334	1037.172
-42.057	20.415	1315.755	1035.927
-41.042	20.506	1314.048	1035.082
-40.027	20.402	1312.730	1033.381
-39.013	20.532	1310.867	1032.651
-37.998	20.419	1309.345	1030.737
-36.984	20.493	1307.168	1029.424
-35.969	20.491	1305.415	1027.986
-34.954	20.540	1303.608	1026.813
-33.940	20.692	1302.316	1026.655
-32.925	20.527	1301.246	1024.794
-31.911	20.617	1299.858	1024.191
-30.896	20.627	1298.046	1022.784
-29.881	20.627	1297.005	1021.922
-28.867	20.596	1295.884	1020.816
-27.852	20.681	1294.243	1019.980
-26.838	20.664	1292.972	1018.841
-25.823	20.637	1291.467	1017.458
-24.809	20.614	1290.186	1016.272
-23.794	20.641	1288.882	1015.363
-22.779	20.496	1287.764	1013.596
-21.765	20.663	1286.276	1013.355
-20.750	20.468	1285.414	1011.502
-19.736	20.605	1283.846	1011.022
-18.721	20.466	1282.755	1009.316
-17.706	20.557	1281.608	1008.903
-16.692	20.450	1280.539	1007.399
-15.677	20.473	1279.458	1006.644
-14.663	20.526	1278.095	1005.838
-13.648	20.569	1277.160	1005.310
-12.633	20.436	1276.477	1003.964
-11.619	20.549	1275.573	1003.865
-10.604	20.557	1274.678	1003.169
-9.590	20.507	1274.084	1002.371
-8.575	20.513	1272.731	1001.304
-7.560	20.501	1272.066	1000.673
-6.546	20.494	1271.309	999.995
-5.531	20.581	1270.365	999.716
-4.517	20.513	1269.252	998.410
-3.502	20.498	1268.658	997.816
-2.487	20.595	1267.603	997.502
-1.473	20.429	1263.559	993.332
-0.458	18.771	1248.163	971.817
0.556	14.285	1232.973	934.940
1.571	10.678	1241.254	920.714
2.586	10.114	1257.130	929.171
3.600	10.384	1244.291	921.131
4.615	7.787	1172.458	853.951
5.629	2.996	1103.924	779.700
6.644	0.708	1087.719	756.741
7.659	0.594	1085.721	754.712
8.673	0.599	1085.014	754.180
9.688	0.679	1083.702	753.603
10.702	0.586	1081.543	751.572
11.717	3.767	1083.971	769.038
12.731	9.943	1092.820	806.155
13.746	15.329	1099.859	838.265
14.761	17.128	1101.525	848.458
15.775	16.426	1100.503	844.091
16.790	15.432	1097.940	837.094
17.804	14.860	1096.310	832.927
18.819	14.542	1094.990	830.266
19.834	14.265	1094.358	828.340
20.848	13.939	1093.640	826.100
21.863	13.909	1092.566	825.067
22.877	13.664	1091.886	823.266
23.892	13.522	1091.400	822.121
24.907	13.594	1090.053	821.392
25.921	13.523	1089.624	820.640
26.936	13.718	1088.925	821.008
27.950	13.620	1087.494	819.373
28.965	13.606	1086.467	818.457
29.980	13.915	1084.945	818.762
30.994	13.785	1084.145	817.444
32.009	13.812	1082.890	816.559
33.023	13.791	1082.160	815.833
34.038	13.784	1080.772	814.680
35.053	13.722	1080.331	813.969
36.067	13.705	1079.380	813.099
37.082	13.801	1078.275	812.665
38.096	13.756	1077.743	811.971
39.111	13.742	1077.198	811.422
40.126	13.723	1075.827	810.224
41.140	13.516	1074.933	808.468
42.155	13.692	1073.440	808.134
43.169	13.671	1072.312	807.109
44.184	13.647	1071.161	806.056
45.199	13.569	1070.440	805.061
46.213	13.636	1069.412	804.544
47.228	13.485	1068.696	803.203
48.242	13.647	1067.292	802.860
49.257	13.500	1066.411	801.413
50.271	13.662	1065.551	801.479
51.286	13.766	1064.084	800.806
52.301	13.629	1063.528	799.659
53.315	13.606	1062.486	798.693
54.330	13.683	1061.528	798.271
55.344	13.587	1060.397	796.888
56.359	13.484	1059.867	795.927
57.374	13.618	1058.770	795.674
58.388	13.653	1058.116	795.280
59.403	13.504	1057.599	794.108
60.417	13.535	1056.346	793.244
61.432	13.575	1055.374	792.637
62.447	13.519	1054.712	791.801
63.461	13.456	1053.563	790.568
64.476	13.493	1052.622	789.970
65.490	13.479	1052.201	789.514
66.505	13.450	1051.540	788.810
67.520	13.523	1050.645	788.419
68.534	13.517	1049.774	787.666
69.549	13.457	1048.940	786.684
70.563	13.522	1048.202	786.371
71.578	13.620	1047.199	786.014
72.593	13.460	1046.467	784.634
73.607	13.534	1045.609	784.276
74.622	13.432	1045.711	783.798
75.636	13.409	1044.926	783.032
76.651	13.452	1043.470	782.076
77.666	13.486	1042.987	781.801
78.680	13.417	1042.628	781.139
79.695	13.542	1042.090	781.259
80.709	13.580	1041.315	780.788
81.724	13.687	1040.114	780.319
82.739	13.616	1039.575	779.513
83.753	13.712	1039.090	779.533
84.768	13.686	1037.970	778.497
85.782	13.752	1036.775	777.844
86.797	13.709	1036.008	777.001
87.812	13.582	1035.375	775.858
88.826	13.597	1034.379	775.117
89.841	13.697	1033.320	774.722
90.855	13.809	1032.314	774.421
91.870	13.779	1031.662	773.725
92.884	13.841	1030.194	772.845
93.899	13.760	1029.578	771.937
94.914	13.714	1029.143	771.328
95.928	13.736	1028.321	770.746
96.943	13.728	1027.493	770.020
97.957	13.851	1025.794	769.246
98.972	13.654	1025.985	768.410
99.987	13.801	1024.504	767.913
101.001	13.794	1023.324	766.930
102.016	13.776	1022.666	766.283
103.030	13.817	1022.014	765.914
104.045	13.729	1021.052	764.723
105.060	13.781	1020.021	764.120
106.074	13.676	1019.370	763.085
107.089	13.592	1018.759	762.171
108.103	13.536	1017.680	761.039
109.118	13.746	1016.512	761.061
110.133	13.597	1015.364	759.452
111.147	13.717	1014.693	759.433
112.162	13.618	1014.096	758.465
113.176	13.746	1013.068	758.217
114.191	13.783	1012.206	757.671
115.206	13.649	1012.031	756.863
116.220	13.661	1010.906	756.010
117.235	13.680	1009.941	755.308
118.249	13.710	1008.877	754.579
119.264	13.860	1007.910	754.472
120.279	13.683	1007.651	753.407
121.293	13.706	1006.515	752.594
122.308	13.728	1005.687	752.012
123.322	13.762	1004.548	751.247
124.337	13.772	1003.349	750.329
125.352	13.660	1002.280	748.956
126.366	13.711	1001.388	748.456
127.381	13.689	1000.406	747.554
128.395	13.717	999.491	746.933
129.410	13.553	998.866	745.661
130.424	13.616	997.787	745.070
131.439	13.678	997.080	744.757
132.454	13.705	996.533	744.403
133.468	13.744	995.275	743.572
134.483	13.683	994.850	742.915
135.497	13.768	993.294	742.067
136.512	13.766	992.633	741.499
137.527	13.836	991.512	740.907
138.541	13.747	991.101	740.141
139.556	13.830	990.234	739.798
140.570	13.954	989.224	739.528
141.585	13.896	988.615	738.749
142.600	13.904	987.951	738.224
143.614	13.926	987.067	737.593
144.629	14.013	986.326	737.362
145.643	13.963	985.613	736.544
146.658	13.836	984.480	735.068
147.673	13.857	983.549	734.400
148.687	13.933	982.455	733.857
149.702	13.930	981.381	732.973
150.716	13.992	980.825	732.767
151.731	13.911	980.187	731.869
152.746	13.862	979.859	731.342
153.760	13.836	979.434	730.847
154.775	13.983	978.445	730.691
155.789	14.008	977.792	730.251
156.804	14.117	976.923	730.015
157.819	14.011	976.355	729.059
158.833	14.148	975.753	729.148
159.848	14.013	975.135	728.028
160.862	14.146	973.970	727.676
161.877	13.985	973.117	726.273
162.892	14.013	972.410	725.800
163.906	14.049	971.146	724.950
164.921	14.046	970.630	724.489
165.935	13.992	969.686	723.487
166.950	14.058	968.829	723.068
167.964	14.137	967.647	722.467
168.979	14.028	966.888	721.363
169.994	14.042	966.120	720.788
171.008	14.100	965.638	720.614
172.023	14.111	964.685	719.886
173.037	14.112	963.962	719.287
174.052	14.159	963.266	718.907
175.067	14.150	962.507	718.241
176.081	14.154	961.739	717.620
177.096	14.115	961.270	717.037
178.110	14.151	961.047	716.964
179.125	14.142	960.258	716.273
180.140	14.165	959.744	715.922
181.154	14.237	958.894	715.535
182.169	14.240	958.713	715.351
183.183	14.339	957.507	714.815
184.198	14.196	957.345	714.015
185.213	14.412	956.106	713.955
186.227	14.268	955.776	713.026
187.242	14.439	954.807	712.974
188.256	14.381	954.178	712.191
189.271	14.399	953.680	711.835
190.286	14.142	952.880	710.079
191.300	14.276	951.977	709.912
192.315	14.245	951.617	709.451
193.329	14.164	951.271	708.783
194.344	14.159	950.714	708.285
195.359	14.404	949.441	708.316
196.373	14.384	949.202	707.988
197.388	14.557	948.080	707.822
198.402	14.554	947.567	707.364
199.417	14.528	947.289	706.984
200.432	14.549	946.569	706.474
201.446	14.524	946.141	705.984
202.461	14.571	945.686	705.783
203.475	14.548	944.797	704.959
204.490	14.599	944.254	704.707
205.504	14.544	943.607	703.930
206.519	14.518	942.205	702.715
207.534	14.526	941.915	702.468
208.548	14.612	941.512	702.468
209.563	14.616	940.851	701.927
210.577	14.646	939.734	701.159
211.592	14.653	939.045	700.611
212.607	14.795	938.160	700.484
213.621	14.826	937.529	700.081
214.636	14.665	936.945	698.911
215.650	14.779	936.244	698.804
216.665	14.877	935.160	698.340
217.680	14.687	935.145	697.475
218.694	14.822	934.077	697.178
219.709	14.911	933.603	697.135
220.723	14.742	932.905	695.846
221.738	14.755	932.267	695.366
222.753	14.869	931.634	695.305
223.767	14.837	931.204	694.788
224.782	14.869	930.406	694.266
225.796	14.856	929.956	693.814
226.811	14.990	929.180	693.732
227.826	14.968	928.299	692.921
228.840	15.017	927.317	692.329
229.855	14.917	926.396	691.166
230.869	15.015	925.922	691.157
231.884	14.907	925.202	690.111
232.899	14.888	924.602	689.523
233.913	14.902	924.098	689.144
234.928	14.956	923.345	688.745
235.942	14.966	922.542	688.128
236.957	14.851	922.458	687.531
237.972	14.959	921.775	687.404
238.986	15.059	920.809	687.032
240.001	14.960	920.059	686.008
241.015	15.028	919.336	685.684
242.030	15.164	918.717	685.722
243.045	15.083	917.685	684.558
244.059	15.028	917.652	684.246
245.074	15.054	917.014	683.819
246.088	15.071	916.005	683.073
247.103	15.107	915.693	682.929
248.117	15.213	914.920	682.724
249.132	15.247	914.274	682.317
250.147	15.423	913.487	682.385
251.161	15.323	912.828	681.426
252.176	15.363	911.992	680.908
253.190	15.364	911.771	680.683
254.205	15.333	911.356	680.189
255.220	15.351	910.582	679.625
256.234	15.331	910.236	679.225
257.249	15.387	909.157	678.586
258.263	15.470	908.106	678.075
259.278	15.480	907.955	677.944
260.293	15.493	907.116	677.309
261.307	15.561	906.248	676.874
262.322	15.580	905.692	676.476
263.336	15.651	905.303	676.414
264.351	15.636	904.356	675.586
265.366	15.657	903.863	675.243
266.380	15.623	903.354	674.665
267.395	15.713	902.533	674.355
268.409	15.704	901.666	673.611
269.424	15.678	900.691	672.716
270.439	15.649	900.396	672.323
271.453	15.652	900.024	671.997
272.468	15.657	899.146	671.302
273.482	15.607	898.786	670.774
274.497	15.600	898.122	670.189
275.512	15.691	897.307	669.886
276.526	15.732	896.751	669.575
277.541	15.793	896.194	669.340
278.555	15.814	895.590	668.917
279.570	15.881	894.435	668.259
280.585	15.651	894.459	667.304
281.599	15.739	893.577	666.938
282.614	15.812	892.847	666.622
283.628	15.897	891.988	666.257
284.643	15.845	891.566	665.681
285.657	15.937	890.631	665.287
286.672	15.948	890.279	665.008
287.687	15.991	889.408	664.466
288.701	15.994	889.071	664.167
289.716	15.945	888.366	663.390
290.730	15.912	887.859	662.821
291.745	15.961	887.130	662.414
292.760	16.093	886.475	662.382
293.774	15.968	885.930	661.426
294.789	16.159	885.097	661.497
295.803	16.004	884.659	660.503
296.818	15.875	884.136	659.547
297.833	15.999	883.001	659.130
298.847	16.156	882.249	659.122
299.862	15.969	882.121	658.239
300.876	16.190	881.407	658.508
301.891	16.171	881.102	658.150
302.906	16.245	880.636	658.030
303.920	16.270	879.728	657.391
304.935	16.288	879.183	656.995
305.949	16.273	878.536	656.398
306.964	16.243	878.048	655.857
307.979	16.361	877.507	655.852
308.993	16.251	876.971	654.969
310.008	16.267	876.230	654.417
311.022	16.295	875.541	653.956
312.037	16.397	874.905	653.816
313.052	16.304	874.082	652.784
314.066	16.275	873.945	652.511
315.081	16.267	873.048	651.755
316.095	16.200	872.685	651.166
317.110	16.409	872.021	651.420
318.125	16.448	871.088	650.814
319.139	16.395	871.077	650.546
320.154	16.293	870.928	649.983
321.168	16.356	870.159	649.593
322.183	16.303	869.606	648.920
323.197	16.425	869.180	649.014
324.212	16.498	868.500	648.727
325.227	16.438	867.707	647.849
326.241	16.376	867.151	647.139
327.256	16.397	866.623	646.768
328.270	16.419	865.853	646.221
329.285	16.368	865.504	645.706
330.300	16.571	864.584	645.738
331.314	16.577	863.881	645.181
332.329	16.442	864.060	644.742
333.343	16.649	863.563	645.100
334.358	16.620	862.610	644.222
335.373	16.484	862.601	643.642
336.387	16.553	862.596	643.843
337.402	16.595	861.952	643.466
338.416	16.684	861.822	643.649
339.431	16.596	861.226	642.813
340.446	16.681	860.708	642.693
341.460	16.878	859.931	642.802
342.475	16.847	859.740	642.484
343.489	16.817	859.210	641.918
344.504	16.759	859.279	641.694
345.519	16.815	858.659	641.388
346.533	16.857	857.927	640.942
347.548	16.759	857.484	640.183
348.562	16.960	856.764	640.349
349.577	16.758	856.575	639.388
350.592	16.817	855.634	638.853
351.606	16.899	855.090	638.697
352.621	16.878	854.047	637.785
353.635	16.898	853.658	637.509
354.650	16.939	852.970	637.096
355.665	16.921	852.437	636.574
356.679	17.009	851.618	636.236
357.694	16.918	851.329	635.622
358.708	17.034	850.296	635.230
359.723	16.939	849.975	634.575
360.738	17.034	849.148	634.258
361.752	17.027	848.952	634.029
362.767	17.053	848.065	633.407
363.781	17.186	847.503	633.427
364.796	17.245	847.211	633.374
365.810	17.148	846.838	632.678
366.825	17.186	846.509	632.518
367.840	17.255	845.902	632.266
368.854	17.080	845.894	631.551
369.869	17.048	844.934	630.660
370.883	17.191	844.709	630.968
371.898	17.259	844.349	630.897
372.913	17.276	843.761	630.465
373.927	17.303	843.341	630.194
374.942	17.242	842.810	629.514
375.956	17.392	842.452	629.748
376.971	17.474	841.822	629.525
377.986	17.385	841.636	629.000
379.000	17.347	841.157	628.447
380.015	17.506	840.310	628.345
381.029	17.561	839.839	628.138
382.044	17.561	839.137	627.558
383.059	17.491	838.759	626.963
384.073	17.596	837.736	626.530
385.088	17.567	837.274	626.023
386.102	17.391	836.999	625.115
387.117	17.526	836.482	625.166
388.132	17.473	835.628	624.280
389.146	17.562	834.978	624.066
390.161	17.554	834.722	623.788
391.175	17.548	834.476	623.530
392.190	17.624	833.379	622.933
393.205	17.568	833.272	622.591
394.219	17.581	832.926	622.327
395.234	17.599	832.761	622.214
396.248	17.597	832.107	621.660
397.263	17.571	831.556	621.102
398.278	17.627	831.480	621.193
399.292	17.586	830.506	620.259
400.307	17.548	830.380	619.974
401.321	17.593	829.874	619.707
402.336	17.510	829.668	619.192
403.350	17.670	828.955	619.189
404.365	17.742	828.242	618.861
405.380	17.710	827.821	618.377
406.394	17.666	827.704	618.077
407.409	17.825	826.591	617.766
408.423	17.834	826.747	617.858
409.438	17.814	826.609	617.631
410.453	17.950	825.992	617.608
411.467	18.052	825.100	617.254
412.482	18.015	824.659	616.733
413.496	17.988	824.278	616.299
414.511	17.990	824.091	616.109
415.526	18.065	823.435	615.836
416.540	17.934	823.397	615.280
417.555	18.133	822.564	615.322
418.569	18.151	822.154	615.023
419.584	18.064	822.065	614.589
420.599	18.056	821.787	614.299
421.613	115.973	1302.170	1494.414
422.628	100.673	1372.105	1494.463
