DTS Sentinel unit serial number:	SN413079Multiplexer serial number:	ORYXHardware model number:	OX4-SRSoftware version number:	ORYX F/W v4.00 Oryx Data Collector v3.7.2.0data status	okinstallation	princeton_trtdifferential loss correction	single-endedforward channel	channel 1reverse channel	N/Adate	2019/09/11time	04:08:11forward acquisition time	60.00reverse acquisition time	0.00gamma	496.2192k internal	0.2330k external	0.2330temperature offset calibration	0.9922default loss term (dB/km)	0.3790temperature slope calibration	1.0000multiplexer offset coefficient	1.0000multiplexer slope coefficient	1.0000fibre end	0.00T internal ref (°C)	29.56T ext. ref 1 (°C)	-0.29T ext. ref 2 (°C)	23.58length (m)	temperature (°C)	Stokes	anti-Stokes-747.200	-16.552	0.063	-0.040
-746.185	-62.486	0.186	-0.078
-745.171	-200.000	0.008	0.068
-744.156	-187.808	-0.332	0.004
-743.142	-32.905	-0.156	-0.087
-742.127	58.741	0.223	0.221
-741.112	178.133	-0.168	0.246
-740.098	-44.250	0.061	0.031
-739.083	-20.741	0.131	0.081
-738.069	133.307	-0.192	0.250
-737.054	107.224	0.092	0.111
-736.039	-59.438	-0.275	-0.119
-735.025	800.000	-0.032	0.143
-734.010	-44.253	-0.115	0.058
-732.996	-81.618	0.406	0.134
-731.981	-45.762	-0.162	0.081
-730.966	104.809	-0.093	-0.110
-729.952	124.386	0.328	0.416
-728.937	62.309	0.168	-0.169
-727.923	-200.000	-0.023	-0.310
-726.908	66.819	0.091	-0.094
-725.894	800.000	-0.086	-0.354
-724.879	58.186	0.112	0.110
-723.864	-200.000	-0.035	-0.448
-722.850	-200.000	-0.045	-0.262
-721.835	-7.242	0.342	0.233
-720.821	-135.277	0.170	0.021
-719.806	182.497	-0.331	-0.490
-718.791	-200.000	-0.005	0.102
-717.777	-132.365	0.270	-0.035
-716.762	151.257	-0.296	-0.405
-715.748	-3.955	0.088	-0.061
-714.733	55.379	-0.127	-0.124
-713.718	84.816	-0.115	0.126
-712.704	317.582	-0.086	0.164
-711.689	-41.931	0.264	-0.136
-710.675	-39.555	0.209	0.110
-709.660	-200.000	-0.001	0.061
-708.645	-10.442	0.125	0.083
-707.631	-124.164	0.061	0.010
-706.616	16.976	0.136	-0.109
-705.602	17.372	0.027	-0.021
-704.587	-200.000	0.004	-0.062
-703.572	800.000	0.051	-0.147
-702.558	63.943	-0.166	-0.168
-701.543	352.062	0.095	-0.190
-700.529	55.202	-0.200	-0.194
-699.514	-126.121	0.062	-0.009
-698.499	46.221	-0.136	-0.127
-697.485	-200.000	-0.040	-0.287
-696.470	93.649	-0.184	-0.210
-695.456	-200.000	-0.004	-0.100
-694.441	-91.500	-0.193	-0.055
-693.426	251.771	-0.106	-0.182
-692.412	800.000	-0.043	0.146
-691.397	246.668	-0.310	0.525
-690.383	-0.904	-0.146	0.104
-689.368	-183.610	0.151	-0.003
-688.354	27.996	-0.208	-0.176
-687.339	-161.220	0.058	-0.003
-686.324	75.999	0.152	-0.161
-685.310	54.669	0.216	0.209
-684.295	-200.000	-0.004	-0.287
-683.281	-34.945	-0.198	-0.109
-682.266	280.831	-0.060	-0.108
-681.251	278.414	-0.093	0.167
-680.237	-91.513	-0.106	0.030
-679.222	240.441	-0.116	0.195
-678.208	233.717	-0.186	-0.308
-677.193	-200.000	-0.006	0.210
-676.178	76.121	-0.139	-0.148
-675.164	-14.601	0.301	-0.195
-674.149	560.853	-0.081	-0.197
-673.135	-132.827	-0.081	-0.010
-672.120	-143.497	-0.249	-0.024
-671.105	-10.409	0.070	0.047
-670.091	511.979	0.115	0.269
-669.076	-115.451	-0.186	-0.035
-668.062	11.360	-0.061	-0.047
-667.047	114.903	0.057	0.070
-666.032	-119.660	-0.056	0.010
-665.018	-200.000	-0.033	-0.407
-664.003	-49.845	0.305	-0.145
-662.989	-89.405	0.139	0.041
-661.974	-129.110	0.159	0.022
-660.959	-200.000	-0.021	-0.269
-659.945	179.250	0.073	-0.106
-658.930	100.238	-0.207	-0.241
-657.916	-200.000	0.019	-0.356
-656.901	272.519	-0.029	-0.051
-655.886	-126.109	-0.182	-0.027
-654.872	210.037	0.072	-0.113
-653.857	-164.639	0.101	-0.005
-652.843	103.324	-0.126	0.148
-651.828	-200.000	0.026	-0.187
-650.814	75.517	0.192	0.204
-649.799	-151.014	0.128	0.010
-648.784	-186.022	0.125	0.002
-647.770	-53.946	-0.242	0.110
-646.755	-125.698	-0.022	0.003
-645.741	-60.875	0.081	-0.034
-644.726	-200.000	0.046	-0.379
-643.711	593.077	0.070	0.174
-642.697	161.145	0.192	0.269
-641.682	325.145	-0.139	0.266
-640.668	-8.027	0.263	-0.178
-639.653	110.567	-0.041	-0.049
-638.638	800.000	-0.014	0.048
-637.624	84.413	0.215	-0.236
-636.609	800.000	-0.099	0.297
-635.595	-55.794	0.210	-0.094
-634.580	-200.000	0.036	-0.332
-633.565	299.046	-0.040	-0.073
-632.551	440.651	0.092	0.203
-631.536	800.000	-0.042	0.162
-630.522	333.898	0.045	-0.088
-629.507	432.149	0.093	0.202
-628.492	-21.727	0.041	0.025
-627.478	463.840	0.086	0.192
-626.463	-30.355	0.243	-0.138
-625.449	128.767	-0.216	0.276
-624.434	-200.000	-0.042	0.246
-623.419	-103.259	0.042	0.010
-622.405	-3.725	-0.143	0.099
-621.390	61.273	-0.207	-0.206
-620.376	-77.259	0.092	0.032
-619.361	707.491	0.126	0.334
-618.346	-176.280	-0.366	-0.010
-617.332	33.270	-0.023	-0.020
-616.317	-38.073	0.213	-0.113
-615.303	-200.000	0.025	0.260
-614.288	-200.000	0.007	0.272
-613.273	-74.277	-0.193	0.070
-612.259	-50.212	0.040	0.019
-611.244	-123.640	0.194	0.031
-610.230	-200.000	-0.114	-0.506
-609.215	-200.000	0.040	-0.372
-608.201	204.336	-0.063	-0.098
-607.186	229.189	-0.083	-0.135
-606.171	-114.623	-0.454	-0.087
-605.157	3.098	-0.180	0.131
-604.142	384.014	0.095	-0.195
-603.128	98.710	-0.161	-0.186
-602.113	189.799	0.232	0.349
-601.098	-64.510	0.143	-0.058
-600.084	395.443	0.054	0.113
-599.069	-165.212	-0.152	0.007
-598.055	59.726	-0.272	0.268
-597.040	-95.977	-0.211	0.056
-596.025	31.263	-0.162	-0.139
-595.011	4.300	-0.196	0.143
-593.996	-27.948	-0.075	0.043
-592.982	-80.541	-0.190	0.063
-591.967	-2.785	0.156	0.109
-590.952	-11.743	0.089	-0.059
-589.938	645.396	-0.042	-0.106
-588.923	-54.876	-0.120	0.054
-587.909	59.221	-0.054	0.053
-586.894	-43.642	-0.172	-0.087
-585.879	257.428	0.182	0.314
-584.865	-152.441	0.439	-0.032
-583.850	128.014	-0.093	0.119
-582.836	-157.741	0.272	0.016
-581.821	134.313	0.078	-0.101
-580.806	800.000	0.101	0.287
-579.792	-7.304	-0.190	-0.129
-578.777	-55.930	0.038	-0.017
-577.763	-53.756	0.254	-0.116
-576.748	-144.129	-0.286	0.027
-575.733	-60.847	0.252	-0.107
-574.719	-200.000	0.045	-0.458
-573.704	313.472	0.101	-0.191
-572.690	-72.661	-0.194	0.071
-571.675	800.000	-0.031	-0.128
-570.661	439.977	0.053	-0.116
-569.646	34.677	-0.395	0.345
-568.631	-75.413	-0.398	-0.142
-567.617	-54.445	-0.150	0.068
-566.602	108.838	-0.177	0.212
-565.588	-57.757	-0.122	0.053
-564.573	-9.913	-0.072	0.048
-563.558	664.685	-0.116	-0.299
-562.544	-135.038	-0.261	-0.031
-561.529	-156.932	0.166	-0.010
-560.515	238.820	0.047	0.078
-559.500	-38.509	-0.139	0.073
-558.485	-97.808	0.172	0.044
-557.471	8.729	-0.164	-0.123
-556.456	-200.000	-0.022	0.268
-555.442	800.000	0.044	-0.186
-554.427	-89.243	-0.104	-0.031
-553.412	113.754	-0.086	-0.105
-552.398	70.544	0.151	-0.156
-551.383	339.275	0.125	0.244
-550.369	-117.941	0.299	0.053
-549.354	800.000	0.104	-0.401
-548.339	800.000	-0.088	0.349
-547.325	-200.000	-0.017	0.294
-546.310	-62.680	0.434	-0.180
-545.296	124.202	-0.086	-0.108
-544.281	800.000	-0.053	-0.226
-543.266	-100.243	-0.015	-0.004
-542.252	-200.000	0.001	-0.208
-541.237	553.651	-0.046	-0.111
-540.223	-18.844	0.074	0.046
-539.208	-39.676	0.139	-0.073
-538.193	571.085	0.081	0.196
-537.179	652.687	0.087	-0.223
-536.164	40.323	0.145	-0.130
-535.150	7.252	-0.151	-0.113
-534.135	-42.465	-0.167	0.085
-533.121	4.320	-0.131	0.096
-532.106	33.705	-0.138	0.120
-531.091	-86.447	0.224	0.069
-530.077	-42.031	0.212	0.108
-529.062	-44.749	-0.190	-0.095
-528.048	207.104	0.152	-0.237
-527.033	-47.716	0.103	0.050
-526.018	-200.000	-0.015	0.074
-525.004	-111.410	-0.320	-0.065
-523.989	800.000	-0.062	-0.185
-522.975	-126.319	0.131	-0.020
-521.960	59.726	0.124	0.122
-520.945	34.434	-0.063	-0.055
-519.931	281.835	0.129	0.230
-518.916	-28.208	-0.455	-0.262
-517.902	-17.489	-0.109	-0.068
-516.887	-106.996	-0.028	0.006
-515.872	-200.000	-0.073	-0.538
-514.858	423.499	-0.062	-0.134
-513.843	800.000	-0.045	-0.144
-512.829	-140.779	0.184	-0.019
-511.814	800.000	0.087	0.359
-510.799	-200.000	-0.000	-0.121
-509.785	-161.785	0.135	0.007
-508.770	-200.000	-0.069	-0.516
-507.756	197.115	0.117	-0.178
-506.741	-40.997	-0.193	-0.099
-505.726	-200.000	0.011	0.088
-504.712	185.101	0.071	0.105
-503.697	-109.906	0.124	-0.026
-502.683	-88.687	-0.166	-0.049
-501.668	-82.675	-0.007	0.002
-500.653	-146.616	0.136	-0.012
-499.639	-15.931	0.223	0.141
-498.624	-89.083	0.381	-0.112
-497.610	206.264	-0.099	0.154
-496.595	58.992	0.165	0.162
-495.581	-102.477	0.214	-0.051
-494.566	142.315	0.119	-0.158
-493.551	99.331	0.106	-0.122
-492.537	129.962	-0.138	0.176
-491.522	-200.000	0.050	-0.323
-490.508	-60.534	0.105	0.044
-489.493	-200.000	0.044	-0.378
-488.478	-139.381	-0.213	0.023
-487.464	-98.160	-0.315	-0.081
-486.449	15.333	0.188	0.147
-485.435	223.989	0.097	-0.156
-484.420	-107.554	0.242	0.053
-483.405	-49.543	0.034	0.016
-482.391	-135.635	0.110	-0.013
-481.376	-200.000	-0.028	0.126
-480.362	-59.275	-0.187	0.080
-479.347	-39.892	0.285	0.148
-478.332	587.320	-0.049	-0.120
-477.318	800.000	0.027	-0.112
-476.303	-139.242	0.031	-0.003
-475.289	800.000	-0.041	-0.132
-474.274	-116.069	-0.168	-0.031
-473.259	-0.739	0.175	-0.124
-472.245	-81.470	-0.208	-0.068
-471.230	-9.994	0.211	0.139
-470.216	-155.807	0.507	0.032
-469.201	-71.076	0.201	0.075
-468.186	-43.003	-0.188	-0.095
-467.172	-103.679	0.461	-0.108
-466.157	800.000	0.054	-0.176
-465.143	113.369	0.260	-0.315
-464.128	800.000	0.006	-0.020
-463.113	639.859	-0.060	0.152
-462.099	-111.382	-0.185	-0.037
-461.084	322.090	-0.061	-0.116
-460.070	19.880	0.177	0.142
-459.055	-146.791	-0.281	-0.024
-458.040	495.379	-0.134	0.307
-457.026	247.138	-0.076	0.128
-456.011	-98.818	-0.189	-0.048
-454.997	-96.117	0.234	-0.062
-453.982	-78.518	0.264	0.090
-452.968	24.782	-0.124	-0.102
-451.953	268.193	-0.238	0.415
-450.938	10.494	0.381	0.289
-449.924	-59.185	0.063	0.027
-448.909	-79.553	0.088	0.030
-447.895	17.898	0.243	-0.192
-446.880	328.157	-0.049	-0.093
-445.865	-82.673	0.214	-0.069
-444.851	-87.124	-0.103	-0.031
-443.836	139.902	-0.121	-0.158
-442.822	-83.507	0.423	0.135
-441.807	6.893	-0.219	0.162
-440.792	-61.933	-0.245	0.102
-439.778	35.696	0.152	0.133
-438.763	741.992	-0.053	0.142
-437.749	800.000	-0.035	-0.118
-436.734	-200.000	-0.029	-0.170
-435.719	310.837	0.160	0.299
-434.705	-128.131	0.206	0.029
-433.690	-10.811	-0.198	0.130
-432.676	68.994	0.131	0.134
-431.661	78.131	-0.045	0.048
-430.646	4.181	-0.091	-0.066
-429.632	-75.378	-0.214	0.076
-428.617	-66.320	0.241	-0.095
-427.603	-1.739	0.245	0.171
-426.588	-21.368	-0.218	-0.132
-425.573	528.172	0.178	0.417
-424.559	-5.755	-0.185	0.126
-423.544	-200.000	0.055	0.271
-422.530	628.663	-0.019	0.047
-421.515	142.442	-0.280	-0.370
-420.500	800.000	0.070	0.196
-419.486	800.000	0.157	0.495
-418.471	-159.717	-0.093	0.005
-417.457	800.000	-0.081	-0.260
-416.442	100.991	-0.016	-0.018
-415.428	-106.995	-0.205	0.045
-414.413	15.279	-0.333	0.259
-413.398	800.000	0.066	-0.252
-412.384	437.795	-0.100	0.216
-411.369	-200.000	0.021	0.158
-410.355	-200.000	-0.041	0.220
-409.340	57.745	-0.029	0.028
-408.325	181.714	-0.127	-0.186
-407.311	-14.775	0.291	0.186
-406.296	800.000	0.122	-0.400
-405.282	-64.124	0.305	-0.124
-404.267	226.971	-0.046	0.075
-403.252	-37.705	0.120	0.063
-402.238	69.853	0.032	0.033
-401.223	-96.877	-0.367	0.096
-400.209	800.000	-0.070	0.247
-399.194	99.980	-0.117	-0.135
-398.179	800.000	0.073	0.242
-397.165	158.720	-0.087	0.120
-396.150	-12.227	-0.116	-0.075
-395.136	-200.000	0.003	-0.172
-394.121	800.000	0.020	0.073
-393.106	19.257	-0.340	0.271
-392.092	-200.000	0.030	0.318
-391.077	65.227	0.248	0.249
-390.063	-55.729	0.220	-0.098
-389.048	-25.070	-0.291	-0.171
-388.033	-153.367	-0.371	-0.026
-387.019	61.594	0.178	0.176
-386.004	-200.000	0.017	0.107
-384.990	800.000	-0.026	0.084
-383.975	-135.289	0.326	0.039
-382.960	59.480	-0.147	-0.143
-381.946	-147.302	-0.083	0.007
-380.931	383.560	0.064	-0.130
-379.917	-79.739	0.197	0.066
-378.902	-31.937	-0.327	-0.182
-377.888	-200.000	-0.054	-0.255
-376.873	144.252	0.142	0.189
-375.858	-87.669	0.104	0.031
-374.844	-200.000	0.087	-0.442
-373.829	-200.000	-0.052	-0.260
-372.815	-19.519	-0.189	0.116
-371.800	78.394	0.176	-0.187
-370.785	-11.855	-0.060	-0.039
-369.771	80.707	0.006	-0.006
-368.756	800.000	-0.063	-0.236
-367.742	-23.791	0.116	-0.069
-366.727	-72.403	0.206	0.076
-365.712	221.911	0.149	-0.237
-364.698	111.260	0.037	-0.044
-363.683	-200.000	0.013	-0.202
-362.669	800.000	0.027	-0.092
-361.654	-40.153	-0.047	0.024
-360.639	150.194	0.088	0.118
-359.625	9.873	-0.513	0.386
-358.610	193.098	0.157	0.235
-357.596	-176.711	-0.057	-0.001
-356.581	683.687	0.041	-0.106
-355.566	800.000	-0.114	-0.315
-354.552	-97.740	0.201	-0.052
-353.537	-63.146	-0.267	-0.109
-352.523	-25.135	0.132	0.078
-351.508	276.495	0.086	-0.151
-350.493	148.716	-0.053	0.071
-349.479	10.771	-0.228	0.172
-348.464	797.771	0.054	0.147
-347.450	-57.798	0.159	-0.069
-346.435	-139.599	-0.220	-0.023
-345.420	-80.824	0.049	0.016
-344.406	126.292	-0.249	0.312
-343.391	323.918	0.153	-0.290
-342.377	-200.000	0.055	0.370
-341.362	562.668	0.063	-0.152
-340.348	-21.137	-0.222	0.135
-339.333	19.760	-0.180	0.143
-338.318	-16.088	0.221	-0.140
-337.304	327.410	-0.069	-0.131
-336.289	-200.000	-0.065	0.329
-335.275	119.415	-0.137	0.168
-334.260	108.933	-0.197	0.234
-333.245	-48.801	0.392	0.186
-332.231	-82.593	0.180	0.058
-331.216	700.672	0.031	-0.081
-330.202	-200.000	0.030	-0.276
-329.187	-117.132	-0.193	0.035
-328.172	-200.000	0.025	0.187
-327.158	89.775	-0.121	0.134
-326.143	-200.000	-0.029	0.469
-325.129	60.273	-0.057	0.056
-324.114	800.000	0.039	-0.138
-323.099	68.801	0.016	-0.017
-322.085	800.000	0.020	0.065
-321.070	145.325	0.057	0.075
-320.056	-30.050	0.186	0.105
-319.041	-100.729	-0.082	0.020
-318.026	-117.449	-0.231	-0.041
-317.012	-78.033	0.093	-0.032
-315.997	169.812	0.189	-0.267
-314.983	79.637	0.239	-0.254
-313.968	257.605	0.236	-0.403
-312.953	-82.033	-0.447	-0.144
-311.939	-70.905	0.229	0.085
-310.924	-30.784	-0.172	0.096
-309.910	20.554	-0.139	0.111
-308.895	-135.590	0.288	-0.034
-307.880	-157.583	-0.192	-0.011
-306.866	-12.033	0.308	-0.200
-305.851	-200.000	0.070	0.389
-304.837	242.731	0.112	0.186
-303.822	238.013	-0.205	-0.336
-302.807	372.225	0.037	0.074
-301.793	-2.621	0.083	-0.058
-300.778	120.508	-0.130	0.159
-299.764	-200.000	-0.010	0.368
-298.749	-147.320	0.163	0.014
-297.735	153.680	0.108	0.146
-296.720	-102.644	-0.133	0.031
-295.705	-162.048	0.475	0.024
-294.691	-76.882	-0.414	0.143
-293.676	-200.000	0.024	-0.116
-292.662	-200.000	0.028	-0.127
-291.647	140.108	-0.034	-0.044
-290.632	-200.000	-0.039	-0.231
-289.618	-88.250	-0.441	-0.131
-288.603	608.347	0.019	-0.046
-287.589	258.190	-0.032	-0.054
-286.574	149.703	0.167	-0.224
-285.559	-200.000	0.013	-0.167
-284.545	355.677	0.139	-0.274
-283.530	-46.807	0.278	-0.134
-282.516	95.411	-0.090	0.101
-281.501	722.238	-0.058	0.154
-280.486	-200.000	0.052	0.361
-279.472	800.000	0.056	0.179
-278.457	-56.028	-0.333	-0.147
-277.443	800.000	-0.071	-0.229
-276.428	495.590	0.117	-0.266
-275.413	-84.868	0.318	-0.099
-274.399	-126.286	0.104	-0.015
-273.384	151.304	0.084	-0.113
-272.370	-200.000	-0.032	-0.316
-271.355	-17.275	-0.305	-0.190
-270.340	285.313	0.182	-0.324
-269.326	38.756	-0.162	-0.142
-268.311	739.887	-0.054	-0.144
-267.297	800.000	-0.035	-0.103
-266.282	-162.413	-0.102	-0.005
-265.267	40.296	0.132	-0.117
-264.253	-40.468	-0.224	-0.115
-263.238	-119.965	0.226	-0.038
-262.224	195.363	0.053	0.079
-261.209	55.437	-0.274	-0.262
-260.195	-82.732	0.227	0.073
-259.180	100.226	0.094	-0.108
-258.165	-98.383	-0.280	0.071
-257.151	74.414	0.123	-0.127
-256.136	91.211	-0.385	-0.427
-255.122	-107.058	-0.149	-0.032
-254.107	-79.723	0.255	0.085
-253.092	60.246	-0.111	-0.108
-252.078	104.990	0.082	0.096
-251.063	-81.696	-0.294	0.095
-250.049	177.299	-0.142	0.204
-249.034	-200.000	0.030	-0.190
-248.019	-30.098	-0.252	-0.142
-247.005	370.433	-0.106	0.212
-245.990	-200.000	-0.004	0.165
-244.976	-20.701	-0.101	-0.061
-243.961	-38.705	0.179	-0.093
-242.946	-200.000	-0.003	0.035
-241.932	-200.000	-0.005	-0.148
-240.917	-76.284	0.156	-0.054
-239.903	114.345	0.159	-0.191
-238.888	-200.000	0.001	-0.088
-237.873	-148.269	-0.233	-0.019
-236.859	800.000	-0.020	0.055
-235.844	-51.549	0.035	0.016
-234.830	-200.000	-0.012	-0.281
-233.815	800.000	-0.114	0.337
-232.800	749.363	0.049	0.130
-231.786	-183.346	0.153	-0.003
-230.771	-6.796	0.300	0.201
-229.757	-95.516	-0.180	-0.048
-228.742	-76.504	0.195	-0.068
-227.727	63.312	-0.175	0.173
-226.713	-67.230	-0.174	0.068
-225.698	-52.614	-0.273	-0.124
-224.684	308.327	0.032	-0.060
-223.669	75.008	-0.228	0.237
-222.655	6.774	-0.062	-0.046
-221.640	-66.544	0.226	0.088
-220.625	-93.745	0.200	-0.054
-219.611	-200.000	-0.012	0.136
-218.596	55.103	-0.251	0.239
-217.582	369.062	-0.061	0.121
-216.567	-200.000	0.071	0.337
-215.552	62.781	0.208	-0.205
-214.538	609.798	-0.041	0.102
-213.523	60.249	-0.077	0.075
-212.509	-200.000	-0.031	-0.193
-211.494	35.302	0.236	0.204
-210.479	800.000	0.121	0.500
-209.465	-111.813	-0.155	-0.031
-208.450	-141.620	0.164	-0.016
-207.436	-138.789	0.192	0.021
-206.421	-63.803	-0.242	0.098
-205.406	151.798	0.126	0.170
-204.392	800.000	-0.042	-0.126
-203.377	-123.116	0.140	-0.022
-202.363	-200.000	-0.072	-0.366
-201.348	-200.000	-0.034	0.147
-200.333	-200.000	-0.031	0.139
-199.319	-130.853	-0.123	0.016
-198.304	-89.241	0.126	-0.037
-197.290	229.817	0.038	-0.061
-196.275	-7.276	0.189	-0.126
-195.260	116.005	-0.193	-0.233
-194.246	454.224	0.146	-0.319
-193.231	-5.676	0.164	-0.111
-192.217	-181.077	0.154	0.003
-191.202	-110.496	-0.117	-0.024
-190.187	-137.662	-0.094	0.010
-189.173	-34.653	-0.146	0.079
-188.158	84.343	0.047	-0.051
-187.144	-15.952	-0.285	0.179
-186.129	-200.000	-0.001	0.038
-185.114	375.220	-0.042	0.083
-184.100	4.366	-0.200	0.145
-183.085	-200.000	-0.028	-0.173
-182.071	-112.041	0.137	0.027
-181.056	-60.645	-0.268	-0.112
-180.042	-200.000	-0.001	-0.094
-179.027	800.000	-0.035	-0.145
-178.012	98.437	0.106	-0.120
-176.998	-174.203	0.206	-0.006
-175.983	-106.274	-0.125	-0.028
-174.969	-200.000	0.016	0.263
-173.954	-200.000	-0.012	-0.072
-172.939	-133.880	0.218	-0.027
-171.925	479.609	0.082	-0.182
-170.910	-115.021	0.247	0.046
-169.896	-145.647	-0.205	0.018
-168.881	800.000	-0.176	0.492
-167.866	-142.847	-0.136	-0.013
-166.852	-81.037	-0.300	-0.098
-165.837	-200.000	-0.014	0.392
-164.823	-200.000	-0.010	0.090
-163.808	58.557	0.121	0.117
-162.793	-73.834	0.070	-0.025
-161.779	137.028	-0.054	-0.070
-160.764	504.335	0.079	0.181
-159.750	-200.000	-0.011	-0.144
-158.735	-159.019	-0.080	0.004
-157.720	-200.000	0.065	0.383
-156.706	800.000	0.044	-0.136
-155.691	-21.476	0.104	-0.062
-154.677	800.000	-0.045	0.172
-153.662	67.459	-0.236	0.237
-152.647	800.000	-0.009	-0.033
-151.633	-200.000	0.060	-0.349
-150.618	-200.000	0.012	-0.164
-149.604	-84.141	0.417	-0.130
-148.589	71.863	-0.161	-0.165
-147.574	-38.201	0.117	0.061
-146.560	800.000	-0.019	0.053
-145.545	-200.000	-0.012	-0.149
-144.531	22.896	0.323	0.260
-143.516	-188.112	-0.453	0.006
-142.502	-15.252	0.149	-0.094
-141.487	-7.705	0.208	-0.138
-140.472	-42.382	-0.155	-0.078
-139.458	-19.090	-0.157	-0.096
-138.443	-132.032	0.174	0.022
-137.429	-200.000	-0.018	-0.114
-136.414	-200.000	-0.009	0.073
-135.399	-8.972	0.076	0.050
-134.385	-151.354	0.077	0.006
-133.370	-200.000	0.009	0.492
-132.356	800.000	0.059	0.172
-131.341	561.750	0.057	-0.135
-130.326	91.994	-0.156	-0.172
-129.312	445.875	0.189	0.408
-128.297	-200.000	-0.030	0.165
-127.283	58.499	-0.143	0.138
-126.268	-200.000	-0.015	-0.288
-125.253	-71.300	-0.184	0.068
-124.239	19.951	0.230	-0.182
-123.224	389.817	0.110	0.225
-122.210	-2.915	0.163	-0.112
-121.195	-140.143	0.238	-0.025
-120.180	75.520	-0.100	0.104
-119.166	23.591	-0.167	0.135
-118.151	-86.164	-0.284	-0.086
-117.137	335.634	-0.100	-0.191
-116.122	-40.649	0.181	-0.092
-115.107	89.702	0.304	0.333
-114.093	69.882	0.244	0.247
-113.078	18.260	0.360	0.282
-112.064	-116.037	-0.134	-0.024
-111.049	-200.000	0.125	0.618
-110.034	497.354	0.106	-0.239
-109.020	-200.000	-0.029	0.202
-108.005	-32.142	0.224	0.123
-106.991	38.373	0.342	-0.299
-105.976	800.000	-0.092	0.393
-104.962	464.985	0.023	0.050
-103.947	-200.000	-0.002	-0.069
-102.932	172.987	0.201	0.284
-101.918	-41.574	0.453	0.228
-100.903	-28.672	0.349	-0.197
-99.889	63.109	0.215	-0.211
-98.874	800.000	0.030	0.122
-97.859	525.753	-0.031	-0.072
-96.845	350.249	-0.080	-0.155
-95.830	477.273	-0.081	-0.179
-94.816	71.342	-0.117	0.119
-93.801	-200.000	0.018	0.282
-92.786	-200.000	-0.072	-0.423
-91.772	800.000	-0.092	-0.297
-90.757	476.322	-0.082	0.181
-89.743	5.160	-0.188	0.136
-88.728	-200.000	-0.012	0.127
-87.713	-145.282	-0.477	0.042
-86.699	-65.479	0.166	0.065
-85.684	-169.899	0.235	-0.008
-84.670	82.387	0.049	-0.052
-83.655	800.000	0.101	0.433
-82.640	800.000	0.127	0.387
-81.626	-23.339	0.343	0.202
-80.611	-73.775	-0.204	-0.073
-79.597	-65.456	0.086	-0.034
-78.582	182.721	-0.134	-0.194
-77.567	116.856	0.115	0.139
-76.553	310.572	-0.057	-0.105
-75.538	-155.122	0.175	-0.011
-74.524	78.935	0.243	0.255
-73.509	800.000	0.013	-0.035
-72.494	-200.000	-0.020	0.319
-71.480	-200.000	-0.016	0.208
-70.465	280.557	-0.065	-0.113
-69.451	-200.000	-0.009	0.077
-68.436	303.439	0.064	-0.116
-67.422	123.920	0.405	-0.499
-66.407	270.092	-0.084	-0.145
-65.392	-85.683	-0.046	-0.014
-64.378	-200.000	-0.040	0.364
-63.363	-163.253	-0.171	0.008
-62.349	442.622	0.137	0.295
-61.334	121.844	-1.009	-1.234
-60.319	127.594	0.509	0.634
-59.305	-200.000	-0.173	-0.887
-58.290	219.323	0.763	1.196
-57.276	517.434	0.669	1.534
-56.261	-200.000	106.483	613.983
-55.246	501.873	1509.285	3416.074
-54.232	176.253	2701.204	3844.344
-53.217	112.009	2165.147	2563.007
-52.203	41.500	1598.390	1417.574
-51.188	32.956	1332.355	1130.706
-50.173	29.911	1290.671	1077.589
-49.159	54.309	1345.116	1268.709
-48.144	54.704	1360.539	1285.551
-47.130	33.140	1314.908	1116.807
-46.115	29.703	1297.460	1081.867
-45.100	29.593	1292.360	1076.934
-44.086	29.403	1289.573	1073.462
-43.071	29.441	1287.399	1071.830
-42.057	29.426	1285.141	1069.822
-41.042	29.473	1283.389	1068.590
-40.027	29.466	1282.271	1067.575
-39.013	29.513	1280.930	1066.688
-37.998	29.479	1278.962	1064.812
-36.984	29.524	1276.987	1063.386
-35.969	29.562	1274.687	1061.645
-34.954	29.619	1272.899	1060.441
-33.940	29.553	1272.098	1059.356
-32.925	29.633	1270.889	1058.765
-31.911	29.603	1269.342	1057.261
-30.896	29.526	1267.955	1055.627
-29.881	29.747	1265.893	1055.126
-28.867	29.707	1264.799	1053.948
-27.852	29.663	1263.700	1052.738
-26.838	29.572	1262.466	1051.153
-25.823	29.690	1260.949	1050.514
-24.809	29.576	1260.004	1049.041
-23.794	29.619	1258.455	1047.949
-22.779	29.702	1256.718	1046.933
-21.765	29.668	1256.064	1046.155
-20.750	29.725	1254.340	1045.002
-19.736	29.640	1252.690	1043.101
-18.721	29.507	1252.039	1041.771
-17.706	29.595	1250.577	1041.008
-16.692	29.510	1249.733	1039.783
-15.677	29.495	1248.862	1038.934
-14.663	29.441	1247.682	1037.607
-13.648	29.546	1246.638	1037.288
-12.633	29.468	1246.078	1036.341
-11.619	29.461	1245.028	1035.392
-10.604	29.545	1243.726	1034.736
-9.590	29.536	1242.876	1033.937
-8.575	29.382	1242.327	1032.576
-7.560	29.577	1240.909	1032.447
-6.546	29.479	1240.162	1031.242
-5.531	29.484	1239.635	1030.789
-4.517	29.520	1238.559	1030.054
-3.502	29.487	1237.841	1029.231
-2.487	29.477	1236.836	1028.297
-1.473	29.512	1232.834	1025.125
-0.458	28.008	1218.175	1004.634
0.556	22.282	1200.879	968.228
1.571	18.841	1205.791	953.052
2.586	18.047	1220.771	960.348
3.600	18.058	1209.580	951.517
4.615	13.553	1138.964	872.222
5.629	4.537	1064.808	770.804
6.644	0.064	1044.514	734.249
7.659	-0.342	1041.777	730.281
8.673	-0.419	1041.097	729.367
9.688	-0.452	1039.500	728.024
10.702	0.086	1038.235	729.683
11.717	6.050	1047.047	764.915
12.731	15.094	1059.629	818.430
13.746	19.551	1064.832	844.218
14.761	20.477	1065.693	849.356
15.775	20.522	1065.577	849.405
16.790	20.301	1064.524	847.413
17.804	20.284	1063.683	846.586
18.819	20.261	1063.569	846.306
19.834	20.468	1063.300	847.029
20.848	20.473	1062.664	846.469
21.863	20.384	1062.327	845.697
22.877	20.418	1061.376	845.030
23.892	20.468	1060.443	844.453
24.907	20.388	1060.044	843.670
25.921	20.481	1058.605	842.901
26.936	20.387	1057.663	841.624
27.950	20.390	1055.887	840.149
28.965	20.182	1054.187	837.717
29.980	20.342	1052.152	836.797
30.994	20.421	1051.460	836.554
32.009	20.401	1050.630	835.725
33.023	20.217	1049.015	833.481
34.038	20.375	1048.081	833.424
35.053	20.345	1047.561	832.794
36.067	20.322	1046.660	831.894
37.082	20.626	1045.805	832.595
38.096	20.712	1045.217	832.465
39.111	20.735	1044.625	832.028
40.126	20.449	1043.494	829.687
41.140	20.205	1041.222	826.645
42.155	20.165	1039.802	825.254
43.169	20.143	1039.099	824.518
44.184	20.263	1038.136	824.254
45.199	19.930	1037.411	822.026
46.213	20.077	1036.216	821.700
47.228	20.326	1035.143	821.956
48.242	20.304	1034.370	821.166
49.257	20.311	1034.122	820.930
50.271	20.491	1032.894	820.734
51.286	20.518	1032.033	820.102
52.301	20.517	1031.257	819.411
53.315	20.383	1030.042	817.742
54.330	20.448	1029.519	817.558
55.344	20.394	1028.782	816.649
56.359	20.296	1027.842	815.369
57.374	20.015	1027.298	813.543
58.388	20.225	1026.379	813.731
59.403	20.121	1025.226	812.256
60.417	20.035	1024.198	810.969
61.432	20.021	1023.916	810.609
62.447	20.209	1023.148	810.809
63.461	20.336	1022.179	810.560
64.476	20.287	1021.083	809.391
65.490	20.132	1020.451	808.098
66.505	20.224	1019.867	807.992
67.520	20.271	1018.908	807.379
68.534	20.057	1017.656	805.320
69.549	19.726	1016.575	802.858
70.563	19.798	1015.708	802.437
71.578	19.851	1014.756	801.856
72.593	19.755	1013.915	800.677
73.607	19.785	1013.710	800.584
74.622	20.055	1013.586	801.664
75.636	20.028	1012.826	800.868
76.651	19.883	1011.423	799.019
77.666	19.962	1010.435	798.528
78.680	19.980	1010.114	798.288
79.695	20.031	1009.523	797.985
80.709	20.170	1008.673	797.885
81.724	20.007	1007.546	796.174
82.739	20.015	1007.074	795.768
83.753	20.489	1006.367	797.312
84.768	20.594	1005.954	797.397
85.782	20.664	1004.815	796.744
86.797	20.593	1003.701	795.467
87.812	20.570	1002.484	794.327
88.826	20.637	1001.781	794.002
89.841	20.652	1000.933	793.329
90.855	20.766	999.708	792.809
91.870	20.679	998.981	791.763
92.884	20.486	998.254	790.241
93.899	20.519	997.061	789.378
94.914	20.554	996.250	788.823
95.928	20.459	995.316	787.585
96.943	20.290	994.244	785.900
97.957	19.919	993.076	783.230
98.972	19.906	991.512	781.865
99.987	20.267	991.265	783.234
101.001	20.499	990.272	783.428
102.016	20.333	989.968	782.368
103.030	20.243	988.465	780.704
104.045	20.234	987.404	779.757
105.060	19.967	986.464	777.748
106.074	20.166	986.298	778.443
107.089	20.558	985.240	779.295
108.103	20.391	984.138	777.609
109.118	20.120	983.029	775.450
110.133	20.289	981.935	775.272
111.147	19.949	981.045	772.984
112.162	19.871	980.209	771.910
113.176	20.142	979.380	772.396
114.191	20.015	978.442	771.024
115.206	19.848	976.760	768.886
116.220	19.777	976.405	768.222
117.235	19.827	975.484	767.654
118.249	19.945	974.702	767.492
119.264	19.797	974.219	766.391
120.279	19.878	973.318	765.971
121.293	20.031	972.001	765.542
122.308	20.006	971.482	764.957
123.322	19.944	969.728	763.236
124.337	19.677	968.835	761.289
125.352	19.232	967.399	758.134
126.366	19.258	966.566	757.528
127.381	20.085	965.937	760.602
128.395	20.417	965.490	761.635
129.410	20.465	965.141	761.505
130.424	20.397	963.774	760.062
131.439	20.539	962.698	759.764
132.454	20.496	961.551	758.607
133.468	20.451	960.662	757.641
134.483	20.458	960.132	757.185
135.497	20.625	959.903	757.668
136.512	20.697	958.852	757.085
137.527	20.660	958.068	756.236
138.541	20.631	957.362	755.484
139.556	20.559	956.376	754.331
140.570	20.702	955.402	754.115
141.585	20.744	954.299	753.360
142.600	20.567	953.624	751.992
143.614	20.762	952.963	752.248
144.629	20.897	951.719	751.784
145.643	20.690	950.702	750.021
146.658	20.699	949.382	748.953
147.673	20.450	948.540	747.148
148.687	20.511	947.697	746.681
149.702	20.396	946.599	745.256
150.716	20.427	945.753	744.657
151.731	20.651	944.888	744.872
152.746	20.803	944.329	745.015
153.760	20.927	943.433	744.770
154.775	20.847	943.238	744.211
155.789	20.799	942.035	742.990
156.804	20.765	941.255	742.165
157.819	20.783	940.654	741.703
158.833	20.951	939.815	741.688
159.848	20.885	938.604	740.387
160.862	20.785	937.771	739.240
161.877	20.863	936.880	738.801
162.892	20.919	935.668	738.019
163.906	20.798	935.030	736.939
164.921	20.813	934.127	736.227
165.935	20.923	933.129	735.838
166.950	20.787	932.381	734.610
167.964	20.758	931.611	733.814
168.979	20.571	930.527	732.111
169.994	20.580	929.346	731.153
171.008	20.837	929.032	731.921
172.023	20.854	928.280	731.334
173.037	20.655	926.944	729.386
174.052	20.601	926.113	728.437
175.067	20.658	925.595	728.205
176.081	20.653	924.638	727.368
177.096	20.581	924.082	726.566
178.110	20.463	923.081	725.220
179.125	20.326	922.057	723.781
180.140	20.191	922.284	723.333
181.154	20.462	921.831	724.041
182.169	20.578	922.150	724.713
183.183	20.766	921.317	724.779
184.198	20.738	920.358	723.840
185.213	20.710	919.405	722.912
186.227	20.827	918.650	722.740
187.242	20.710	918.426	722.014
188.256	20.709	917.500	721.218
189.271	20.808	916.683	720.924
190.286	20.601	915.413	719.004
191.300	20.010	914.201	715.546
192.315	19.252	913.003	711.420
193.329	19.416	912.469	711.616
194.344	20.107	913.188	714.965
195.359	20.515	912.895	716.357
196.373	20.848	911.752	716.766
197.388	20.564	911.369	715.233
198.402	20.593	910.762	714.811
199.417	20.729	909.815	714.563
200.432	20.304	908.897	712.034
201.446	20.151	908.056	710.687
202.461	20.126	907.947	710.438
203.475	19.441	905.909	705.977
204.490	18.785	904.659	702.258
205.504	19.635	905.124	706.035
206.519	20.217	904.913	708.185
207.534	20.388	904.397	708.415
208.548	20.769	904.194	709.744
209.563	20.474	903.416	707.870
210.577	20.443	902.907	707.284
211.592	20.851	902.395	708.479
212.607	20.825	901.422	707.548
213.621	20.779	900.853	706.850
214.636	20.922	899.703	706.468
215.650	20.864	898.961	705.584
216.665	20.904	898.676	705.461
217.680	20.805	897.640	704.185
218.694	20.373	896.567	701.537
219.709	20.352	896.227	701.124
220.723	20.497	895.665	701.208
221.738	20.447	895.564	700.864
222.753	20.670	894.806	701.108
223.767	20.743	894.070	700.761
224.782	20.946	893.597	701.146
225.796	20.825	893.115	700.223
226.811	20.191	891.774	696.563
227.826	19.810	890.276	693.803
228.840	19.939	889.714	693.820
229.855	19.918	889.027	693.139
230.869	19.595	887.962	690.957
231.884	20.093	888.323	693.165
232.899	20.718	888.220	695.524
233.913	20.651	887.615	694.720
234.928	20.751	886.650	694.301
235.942	20.625	886.217	693.399
236.957	20.305	885.354	691.387
237.972	20.384	884.444	690.933
238.986	20.429	883.928	690.645
240.001	20.398	883.446	690.084
241.015	20.626	882.639	690.298
242.030	20.607	882.453	690.016
243.045	20.633	882.165	689.833
244.059	20.975	881.581	690.671
245.074	20.664	880.658	688.657
246.088	20.412	879.424	686.636
247.103	20.691	879.263	687.549
248.117	21.100	879.353	689.174
249.132	21.320	878.689	689.461
250.147	21.400	878.008	689.182
251.161	21.558	877.827	689.602
252.176	21.563	876.961	688.879
253.190	21.423	876.651	688.026
254.205	21.637	876.116	688.385
255.220	21.670	875.340	687.843
256.234	21.465	874.362	686.211
257.249	21.465	873.362	685.367
258.263	21.537	872.932	685.249
259.278	21.523	872.417	684.731
260.293	21.530	872.028	684.390
261.307	21.442	871.494	683.566
262.322	21.293	870.323	682.008
263.336	20.522	868.166	677.253
264.351	19.490	866.265	671.698
265.366	19.566	866.226	671.902
266.380	20.705	866.669	676.616
267.395	21.176	866.477	678.239
268.409	20.996	865.765	676.923
269.424	21.296	865.331	677.685
270.439	21.367	864.630	677.352
271.453	21.366	864.218	676.967
272.468	21.580	864.133	677.668
273.482	21.624	863.030	676.915
274.497	21.205	861.740	674.226
275.512	20.832	861.078	672.208
276.526	21.294	861.572	674.317
277.541	21.473	860.640	674.220
278.555	21.273	859.626	672.592
279.570	21.057	858.646	670.937
280.585	21.412	857.847	671.617
281.599	21.150	857.760	670.483
282.614	20.511	856.562	667.035
283.628	20.674	855.689	666.923
284.643	21.074	855.199	668.011
285.657	20.602	854.341	665.479
286.672	20.400	853.622	664.086
287.687	20.939	853.473	665.973
288.701	20.958	852.767	665.436
289.716	20.564	852.341	663.540
290.730	20.637	851.638	663.213
291.745	20.524	850.375	661.738
292.760	20.717	850.404	662.440
293.774	21.505	851.144	665.957
294.789	21.841	850.935	667.012
295.803	21.948	849.923	666.564
296.818	22.004	849.562	666.438
297.833	21.535	848.213	663.542
298.847	21.467	847.421	662.607
299.862	21.656	847.441	663.277
300.876	21.964	846.712	663.815
301.891	21.800	846.442	662.925
302.906	21.426	845.122	660.418
303.920	21.520	844.794	660.460
304.935	21.920	844.620	661.775
305.949	21.824	843.747	660.672
306.964	21.542	843.401	659.278
307.979	21.665	843.042	659.404
308.993	22.017	842.528	660.265
310.008	21.940	841.906	659.431
311.022	21.851	840.906	658.257
312.037	21.635	840.536	657.098
313.052	21.513	839.405	655.700
314.066	20.535	838.250	651.076
315.081	20.383	837.557	649.913
316.095	21.290	837.571	653.256
317.110	21.631	837.404	654.342
318.125	20.639	836.238	649.672
319.139	19.754	834.883	645.260
320.154	19.831	834.406	645.122
321.168	20.758	834.551	648.634
322.183	21.418	834.913	651.316
323.197	21.578	834.262	651.345
324.212	21.661	833.826	651.256
325.227	21.708	833.434	651.068
326.241	21.531	833.162	650.138
327.256	21.442	832.308	649.085
328.270	21.489	831.455	648.538
329.285	21.198	830.543	646.691
330.300	21.026	829.970	645.548
331.314	21.368	829.636	646.500
332.329	21.694	829.252	647.347
333.343	21.768	828.802	647.211
334.358	21.706	828.622	646.786
335.373	21.913	828.312	647.248
336.387	21.997	828.407	647.576
337.402	22.127	828.332	647.938
338.416	21.952	827.830	646.843
339.431	21.937	827.473	646.453
340.446	22.416	826.718	647.569
341.460	22.179	826.284	646.301
342.475	21.940	825.866	645.037
343.489	22.096	825.265	645.083
344.504	22.503	824.985	646.302
345.519	22.570	824.916	646.436
346.533	22.681	823.920	646.005
347.548	22.626	823.980	645.792
348.562	22.459	823.267	644.567
349.577	22.603	822.651	644.553
350.592	22.453	822.000	643.439
351.606	22.518	821.250	643.033
352.621	22.358	820.517	641.818
353.635	22.242	819.988	640.923
354.650	21.647	817.799	636.993
355.665	20.783	816.626	632.884
356.679	21.169	816.641	634.241
357.694	21.571	816.411	635.466
358.708	21.622	815.347	634.767
359.723	21.955	815.286	635.872
360.738	22.234	814.645	636.323
361.752	22.252	814.792	636.450
362.767	22.705	814.168	637.542
363.781	22.755	813.683	637.285
364.796	22.842	813.658	637.525
365.810	22.856	812.901	636.925
366.825	22.797	812.589	636.413
367.840	22.545	811.699	634.753
368.854	22.029	811.176	632.426
369.869	22.197	810.568	632.502
370.883	22.354	810.181	632.708
371.898	22.139	809.779	631.567
372.913	22.239	809.315	631.508
373.927	22.556	808.624	632.049
374.942	22.547	808.807	632.103
375.956	22.645	808.155	631.891
376.971	22.702	807.737	631.713
377.986	22.842	807.281	631.801
379.000	22.864	806.954	631.567
380.015	22.780	806.032	630.490
381.029	22.734	805.684	629.998
382.044	22.838	805.108	629.862
383.059	22.908	804.484	629.569
384.073	22.799	804.584	629.202
385.088	22.868	803.435	628.492
386.102	22.584	802.845	626.967
387.117	22.578	802.158	626.352
388.132	22.228	801.291	624.377
389.146	21.904	800.262	622.370
390.161	22.205	800.372	623.469
391.175	22.550	799.973	624.328
392.190	22.192	798.880	622.153
393.205	20.987	796.729	616.166
394.219	19.521	795.167	609.728
395.234	19.665	795.226	610.230
396.248	21.165	796.648	616.567
397.263	22.579	797.115	621.868
398.278	22.538	796.622	621.282
399.292	22.368	795.603	619.833
400.307	22.259	795.818	619.563
401.321	22.295	795.594	619.460
402.336	22.522	795.556	620.176
403.350	23.118	794.994	621.779
404.365	23.314	794.784	622.248
405.380	23.633	794.434	623.037
406.394	23.598	793.984	622.510
407.409	23.434	793.435	621.449
408.423	23.376	793.274	621.063
409.438	23.451	792.641	620.774
410.453	23.428	792.887	620.831
411.467	23.337	791.892	619.681
412.482	23.523	791.349	619.849
413.496	23.650	790.907	619.891
414.511	23.504	790.627	619.109
415.526	23.576	790.237	618.998
416.540	23.390	789.483	617.706
417.555	23.121	788.958	616.302
418.569	23.198	788.609	616.245
419.584	23.180	787.945	615.607
420.599	22.987	787.333	614.406
421.613	157.624	1364.823	1797.968
422.628	136.408	1448.962	1798.075
