DTS Sentinel unit serial number:	SN413079Multiplexer serial number:	ORYXHardware model number:	OX4-SRSoftware version number:	ORYX F/W v4.00 Oryx Data Collector v3.7.2.0data status	okinstallation	princeton_trtdifferential loss correction	single-endedforward channel	channel 1reverse channel	N/Adate	2019/09/13time	01:34:35forward acquisition time	60.00reverse acquisition time	0.00gamma	496.2192k internal	0.2330k external	0.2330temperature offset calibration	1.0146default loss term (dB/km)	0.3790temperature slope calibration	1.0000multiplexer offset coefficient	1.0000multiplexer slope coefficient	1.0000fibre end	0.00T internal ref (°C)	27.78T ext. ref 1 (°C)	3.75T ext. ref 2 (°C)	22.41length (m)	temperature (°C)	Stokes	anti-Stokes-747.200	-22.740	-0.146	-0.089
-746.185	-84.204	-0.283	0.090
-745.171	-56.604	0.137	-0.061
-744.156	334.315	0.056	-0.109
-743.142	-6.191	-0.286	-0.196
-742.127	-200.000	0.012	-0.062
-741.112	326.048	0.064	-0.123
-740.098	-92.550	-0.340	0.096
-739.083	800.000	-0.048	0.172
-738.069	-24.883	-0.227	0.136
-737.054	447.978	-0.170	-0.376
-736.039	-127.823	-0.352	0.051
-735.025	-106.251	0.079	0.018
-734.010	800.000	-0.063	-0.276
-732.996	-200.000	-0.009	0.200
-731.981	-96.236	-0.411	0.110
-730.966	-52.976	0.144	0.066
-729.952	51.063	-0.076	-0.072
-728.937	53.185	-0.292	-0.281
-727.923	-200.000	0.019	-0.409
-726.908	-200.000	0.060	0.292
-725.894	21.627	-0.416	-0.341
-724.879	-165.668	-0.088	0.004
-723.864	171.567	0.124	-0.179
-722.850	82.000	0.186	-0.203
-721.835	-200.000	-0.017	-0.364
-720.821	-101.131	-0.206	-0.051
-719.806	579.822	-0.183	-0.450
-718.791	-200.000	-0.025	-0.160
-717.777	484.423	0.237	-0.542
-716.762	598.803	0.030	-0.075
-715.748	800.000	0.075	-0.223
-714.733	156.393	-0.172	-0.239
-713.718	-96.585	-0.091	0.024
-712.704	-92.193	-0.234	0.066
-711.689	-10.154	-0.240	0.160
-710.675	-2.660	0.131	0.092
-709.660	-30.651	0.032	0.018
-708.645	-83.573	-0.168	0.054
-707.631	800.000	-0.068	0.267
-706.616	800.000	0.117	-0.359
-705.602	152.176	0.126	0.173
-704.587	-200.000	0.056	-0.281
-703.572	800.000	0.060	-0.261
-702.558	424.465	0.167	-0.361
-701.543	168.675	0.112	-0.161
-700.529	-200.000	-0.010	-0.089
-699.514	67.523	0.095	-0.097
-698.499	128.142	0.152	-0.194
-697.485	-115.364	0.400	-0.076
-696.470	-115.063	0.198	-0.038
-695.456	97.998	0.114	-0.131
-694.441	-163.390	-0.106	-0.005
-693.426	161.529	-0.113	-0.159
-692.412	-200.000	0.052	-0.441
-691.397	27.550	0.132	-0.111
-690.383	94.277	-0.168	0.192
-689.368	-200.000	-0.031	-0.202
-688.354	-58.550	-0.085	-0.037
-687.339	-74.538	0.177	-0.064
-686.324	800.000	0.034	0.144
-685.310	685.952	-0.099	-0.259
-684.295	686.319	-0.018	0.048
-683.281	36.356	-0.052	0.046
-682.266	-200.000	-0.046	0.223
-681.251	267.493	-0.021	-0.037
-680.237	12.734	-0.061	-0.047
-679.222	31.483	-0.188	0.162
-678.208	-78.907	-0.143	-0.049
-677.193	131.201	0.238	-0.307
-676.178	448.140	0.030	0.067
-675.164	200.465	0.124	0.192
-674.149	-54.231	-0.147	-0.067
-673.135	-200.000	0.007	0.042
-672.120	-136.135	-0.349	0.041
-671.105	92.219	-0.081	0.091
-670.091	106.067	-0.100	0.119
-669.076	-166.683	-0.224	-0.009
-668.062	-98.824	-0.236	0.060
-667.047	24.472	-0.271	0.225
-666.032	-151.238	-0.235	0.018
-665.018	-73.067	-0.244	-0.090
-664.003	120.726	-0.119	0.148
-662.989	31.404	-0.099	-0.086
-661.974	-28.709	0.080	-0.046
-660.959	-146.932	-0.128	0.011
-659.945	252.469	-0.028	0.049
-658.930	-77.486	-0.305	0.106
-657.916	-200.000	-0.009	-0.300
-656.901	423.911	-0.084	-0.180
-655.886	199.625	0.098	0.151
-654.872	-128.656	-0.165	-0.023
-653.857	-200.000	-0.014	-0.254
-652.843	-1.281	-0.195	-0.138
-651.828	346.255	-0.046	0.091
-650.814	-166.154	0.172	0.007
-649.799	-200.000	0.001	-0.208
-648.784	276.324	-0.100	-0.178
-647.770	-95.144	0.303	0.082
-646.755	-200.000	0.075	0.338
-645.741	-90.233	0.213	-0.062
-644.726	34.856	0.191	0.167
-643.711	-136.460	-0.122	0.014
-642.697	-200.000	0.037	-0.208
-641.682	-142.721	0.393	0.038
-640.668	7.357	-0.336	-0.251
-639.653	237.660	0.043	0.072
-638.638	-54.600	0.172	0.078
-637.624	-54.401	-0.263	-0.120
-636.609	88.575	-0.110	-0.123
-635.595	233.495	-0.097	-0.160
-634.580	-92.332	0.149	-0.042
-633.565	-200.000	0.000	0.067
-632.551	-200.000	0.113	0.626
-631.536	-200.000	0.022	-0.115
-630.522	139.402	-0.049	0.065
-629.507	98.058	-0.252	0.291
-628.492	-200.000	0.042	-0.269
-627.478	-200.000	0.061	-0.370
-626.463	-44.254	-0.132	-0.066
-625.449	-200.000	-0.037	-0.237
-624.434	-163.341	0.318	-0.015
-623.419	-101.315	-0.163	-0.040
-622.405	-99.228	-0.077	-0.020
-621.390	187.548	-0.116	-0.173
-620.376	-75.663	0.117	0.042
-619.361	-108.716	0.268	-0.057
-618.346	275.233	0.070	0.124
-617.332	-85.046	-0.130	0.041
-616.317	-200.000	0.025	0.115
-615.303	-190.521	0.190	0.002
-614.288	16.711	-0.293	0.232
-613.273	-39.881	-0.233	0.122
-612.259	636.142	0.109	-0.277
-611.244	375.449	0.071	0.146
-610.230	-200.000	0.061	-0.407
-609.215	-200.000	-0.003	-0.022
-608.201	-166.301	0.247	0.010
-607.186	-84.708	-0.413	-0.130
-606.171	64.703	-0.157	-0.158
-605.157	-200.000	-0.027	-0.325
-604.142	-200.000	-0.057	-0.295
-603.128	466.220	-0.112	0.252
-602.113	-135.900	0.070	0.008
-601.098	-119.001	0.092	0.016
-600.084	-200.000	-0.033	0.244
-599.069	-101.143	0.146	-0.036
-598.055	-161.828	0.354	0.018
-597.040	-200.000	-0.022	-0.415
-596.025	-200.000	-0.026	-0.154
-595.011	-171.174	-0.216	-0.007
-593.996	326.355	-0.054	-0.104
-592.982	-200.000	-0.020	-0.166
-591.967	800.000	-0.036	-0.152
-590.952	-200.000	0.045	-0.338
-589.938	-5.746	-0.089	-0.061
-588.923	800.000	-0.023	-0.089
-587.909	800.000	0.095	-0.340
-586.894	800.000	-0.062	-0.198
-585.879	-45.889	0.116	-0.057
-584.865	-200.000	-0.003	0.204
-583.850	44.297	-0.304	-0.279
-582.836	-81.340	0.336	0.111
-581.821	-159.224	-0.292	-0.016
-580.806	-81.873	-0.445	0.146
-579.792	89.481	0.093	0.104
-578.777	226.718	0.181	-0.295
-577.763	800.000	-0.163	-0.473
-576.748	800.000	0.032	0.131
-575.733	-200.000	0.032	-0.287
-574.719	-200.000	-0.003	0.283
-573.704	68.333	-0.184	-0.189
-572.690	-34.840	-0.286	-0.156
-571.675	-125.818	0.085	0.013
-570.661	-146.772	-0.177	-0.015
-569.646	-158.130	-0.359	-0.021
-568.631	637.913	0.140	-0.357
-567.617	-83.489	0.179	-0.057
-566.602	-50.570	0.197	-0.093
-565.588	-107.119	0.208	-0.046
-564.573	-58.301	0.227	-0.099
-563.558	-200.000	0.075	-0.425
-562.544	-56.103	0.371	0.165
-561.529	458.261	0.134	0.297
-560.515	15.466	0.258	-0.202
-559.500	71.000	-0.289	0.299
-558.485	-200.000	-0.018	-0.461
-557.471	80.953	0.151	-0.163
-556.456	-200.000	-0.007	0.095
-555.442	-184.788	-0.295	-0.005
-554.427	-200.000	0.030	0.217
-553.412	-59.254	0.117	0.051
-552.398	273.964	0.221	0.390
-551.383	-200.000	0.059	0.304
-550.369	114.772	0.054	-0.065
-549.354	-200.000	0.005	-0.127
-548.339	800.000	0.061	-0.174
-547.325	52.373	0.157	0.150
-546.310	371.513	-0.125	-0.253
-545.296	-200.000	0.054	0.307
-544.281	91.138	-0.047	0.053
-543.266	-118.730	0.225	-0.040
-542.252	-200.000	-0.059	0.314
-541.237	800.000	0.027	0.084
-540.223	-200.000	-0.050	-0.328
-539.208	-61.191	0.063	-0.026
-538.193	-72.075	0.084	-0.031
-537.179	131.794	-0.144	0.185
-536.164	-200.000	-0.005	-0.110
-535.150	-200.000	0.005	-0.180
-534.135	-3.491	-0.180	0.125
-533.121	7.781	-0.191	0.143
-532.106	-38.928	0.356	-0.187
-531.091	800.000	-0.025	-0.085
-530.077	-87.717	-0.123	0.037
-529.062	-82.313	-0.284	0.092
-528.048	484.462	-0.107	0.242
-527.033	-200.000	0.018	-0.084
-526.018	-27.053	-0.283	0.165
-525.004	-59.869	0.188	-0.080
-523.989	167.564	-0.335	-0.476
-522.975	4.632	0.171	-0.125
-521.960	38.995	-0.324	0.289
-520.945	79.769	0.050	0.054
-519.931	-179.151	-0.068	-0.002
-518.916	-200.000	-0.004	-0.216
-517.902	-2.300	-0.201	0.141
-516.887	54.556	-0.146	0.141
-515.872	53.743	-0.063	0.061
-514.858	-200.000	-0.015	-0.110
-513.843	-143.453	-0.442	0.042
-512.829	-61.130	0.288	0.121
-511.814	-32.161	-0.296	0.165
-510.799	-179.741	0.223	0.005
-509.785	21.938	0.191	-0.155
-508.770	-129.843	0.082	0.011
-507.756	451.497	-0.073	0.161
-506.741	28.833	-0.114	0.096
-505.726	135.135	0.032	0.041
-504.712	800.000	-0.024	-0.088
-503.697	203.760	-0.041	-0.064
-502.683	57.749	0.098	-0.096
-501.668	-200.000	-0.081	-0.411
-500.653	22.922	-0.104	0.085
-499.639	800.000	-0.106	-0.344
-498.624	-120.210	0.237	0.040
-497.610	-141.370	0.313	-0.032
-496.595	35.786	0.149	0.130
-495.581	58.076	-0.056	0.055
-494.566	-200.000	0.033	0.238
-493.551	-200.000	0.003	0.159
-492.537	-100.293	-0.187	0.046
-491.522	-160.010	0.166	0.009
-490.508	468.925	0.119	0.266
-489.493	181.772	-0.164	-0.241
-488.478	126.038	0.075	-0.094
-487.464	186.000	0.245	-0.363
-486.449	800.000	0.015	0.058
-485.435	276.636	-0.033	0.059
-484.420	-106.985	0.315	-0.069
-483.405	6.968	0.114	0.085
-482.391	-200.000	-0.007	0.293
-481.376	243.165	0.135	0.225
-480.362	83.052	-0.092	0.100
-479.347	-90.436	0.235	0.068
-478.332	23.692	0.277	-0.227
-477.318	235.903	0.078	0.129
-476.303	-42.953	0.063	0.032
-475.289	-200.000	-0.004	0.077
-474.274	-200.000	0.016	-0.215
-473.259	-97.457	0.384	-0.099
-472.245	6.777	0.213	-0.158
-471.230	-114.484	-0.159	-0.030
-470.216	201.855	-0.209	0.321
-469.201	120.389	-0.045	0.055
-468.186	73.461	0.068	0.071
-467.172	171.714	-0.143	0.204
-466.157	365.327	0.020	-0.040
-465.143	101.513	0.131	-0.152
-464.128	365.547	-0.133	-0.267
-463.113	-84.025	-0.334	-0.106
-462.099	-90.581	0.214	-0.062
-461.084	-103.819	-0.201	-0.047
-460.070	220.710	0.107	-0.170
-459.055	204.298	-0.115	0.178
-458.040	-200.000	0.070	-0.383
-457.026	800.000	0.148	0.423
-456.011	-8.607	-0.112	-0.075
-454.997	-200.000	0.079	-0.384
-453.982	-178.439	-0.426	0.010
-452.968	-52.377	-0.052	-0.024
-451.953	195.026	-0.084	0.127
-450.938	-200.000	0.036	0.279
-449.924	-41.293	-0.139	-0.071
-448.909	-142.662	-0.255	-0.025
-447.895	-200.000	-0.016	-0.113
-446.880	12.028	0.284	-0.217
-445.865	-71.612	0.266	-0.099
-444.851	378.231	-0.134	-0.273
-443.836	116.994	-0.038	0.047
-442.822	-127.971	0.238	0.034
-441.807	-123.707	-0.265	0.042
-440.792	-82.088	0.153	-0.050
-439.778	-60.123	-0.300	-0.127
-438.763	-81.647	-0.119	0.039
-437.749	43.245	-0.126	0.114
-436.734	-200.000	0.043	-0.196
-435.719	-200.000	0.018	0.106
-434.705	103.424	-0.052	0.060
-433.690	-50.074	0.138	-0.065
-432.676	-97.729	-0.286	0.074
-431.661	240.743	-0.126	-0.210
-430.646	20.421	0.250	0.201
-429.632	117.534	0.199	0.243
-428.617	-53.378	-0.313	-0.143
-427.603	-134.701	-0.116	0.014
-426.588	-163.587	0.198	0.009
-425.573	-29.919	-0.348	-0.197
-424.559	192.918	0.226	0.339
-423.544	25.337	0.187	0.154
-422.530	800.000	0.017	-0.066
-421.515	48.022	-0.129	-0.119
-420.500	371.953	0.042	0.084
-419.486	40.861	0.208	0.187
-418.471	-58.863	-0.260	0.112
-417.457	-108.447	0.125	-0.027
-416.442	-109.331	0.312	-0.066
-415.428	82.848	0.027	-0.029
-414.413	28.070	0.223	-0.187
-413.398	33.840	0.072	-0.062
-412.384	-200.000	0.010	0.266
-411.369	387.725	-0.130	0.268
-410.355	-200.000	0.049	-0.228
-409.340	-52.591	0.261	0.120
-408.325	-84.433	0.199	0.062
-407.311	-200.000	0.025	0.190
-406.296	-112.241	0.263	0.052
-405.282	-80.954	-0.230	0.076
-404.267	55.816	0.191	0.184
-403.252	-62.357	0.156	-0.064
-402.238	-200.000	0.007	0.085
-401.223	-49.383	-0.141	-0.067
-400.209	-49.198	-0.112	-0.053
-399.194	-41.314	-0.228	-0.116
-398.179	-1.209	0.041	0.028
-397.165	-48.112	0.134	-0.064
-396.150	-19.441	0.125	0.077
-395.136	400.894	0.013	0.028
-394.121	359.840	-0.124	-0.247
-393.106	157.709	-0.277	-0.380
-392.092	-200.000	0.028	0.218
-391.077	-113.702	-0.470	-0.091
-390.063	75.161	-0.195	0.204
-389.048	7.374	-0.206	-0.153
-388.033	-61.045	0.233	-0.098
-387.019	-95.229	-0.288	-0.077
-386.004	133.962	0.230	0.296
-384.990	140.883	-0.200	0.262
-383.975	-103.097	0.215	-0.050
-382.960	239.598	0.110	-0.181
-381.946	-117.566	0.557	0.100
-380.931	-200.000	0.085	0.371
-379.917	23.827	-0.176	-0.144
-378.902	-52.396	0.088	0.040
-377.888	94.809	0.151	0.171
-376.873	-32.433	-0.125	-0.069
-375.858	237.712	-0.088	0.145
-374.844	96.565	0.071	-0.080
-373.829	-118.485	-0.287	-0.050
-372.815	-200.000	0.069	0.616
-371.800	-200.000	0.025	0.399
-370.785	-189.690	0.057	0.001
-369.771	-49.728	-0.147	0.069
-368.756	358.099	-0.095	-0.188
-367.742	-200.000	-0.018	-0.125
-366.727	-200.000	-0.012	0.093
-365.712	238.324	0.097	-0.160
-364.698	-44.583	-0.232	0.115
-363.683	-200.000	-0.074	0.422
-362.669	-75.190	-0.391	-0.138
-361.654	520.564	-0.128	-0.297
-360.639	456.588	0.040	-0.089
-359.625	-132.419	0.302	0.039
-358.610	800.000	0.062	0.231
-357.596	-44.730	-0.233	0.115
-356.581	-96.821	-0.040	0.010
-355.566	-200.000	0.060	0.295
-354.552	800.000	0.048	-0.136
-353.537	-114.396	-0.460	0.088
-352.523	137.273	-0.333	0.432
-351.508	177.070	-0.091	0.132
-350.493	16.501	-0.221	0.173
-349.479	-90.449	-0.265	0.076
-348.464	594.394	0.032	0.079
-347.450	-13.860	0.309	0.198
-346.435	-64.280	0.149	-0.060
-345.420	-199.006	0.216	0.001
-344.406	-200.000	-0.020	-0.092
-343.391	-200.000	-0.020	-0.131
-342.377	-86.414	0.309	0.094
-341.362	202.067	0.062	0.095
-340.348	-163.013	-0.165	0.008
-339.333	-114.849	-0.111	0.021
-338.318	-200.000	-0.016	-0.107
-337.304	-6.636	0.244	-0.164
-336.289	-112.449	0.447	-0.088
-335.275	800.000	0.106	-0.314
-334.260	-200.000	-0.039	-0.227
-333.245	-124.225	-0.419	0.065
-332.231	102.585	0.129	0.150
-331.216	-200.000	-0.011	0.185
-330.202	-35.360	-0.144	0.077
-329.187	497.181	0.123	-0.279
-328.172	-124.090	0.212	0.033
-327.158	-62.313	0.300	-0.124
-326.143	-200.000	0.033	-0.297
-325.129	44.270	0.248	-0.225
-324.114	800.000	0.109	-0.346
-323.099	-158.309	-0.430	-0.025
-322.085	-71.740	-0.151	0.056
-321.070	-190.273	-0.139	-0.002
-320.056	157.120	0.207	0.284
-319.041	-107.887	0.265	-0.057
-318.026	9.153	-0.203	0.152
-317.012	-74.500	-0.276	0.098
-315.997	-37.604	0.077	0.041
-314.983	-36.709	0.007	-0.004
-313.968	77.240	0.226	-0.238
-312.953	-90.420	0.244	-0.070
-311.939	125.412	0.156	-0.194
-310.924	-24.568	-0.219	0.129
-309.910	-11.341	0.379	0.247
-308.895	29.720	-0.243	0.205
-307.880	-88.697	0.310	0.091
-306.866	-200.000	-0.063	0.346
-305.851	-200.000	0.000	0.150
-304.837	-200.000	-0.024	0.135
-303.822	-51.038	0.131	0.061
-302.807	-200.000	-0.023	0.129
-301.793	-139.880	-0.024	-0.002
-300.778	-200.000	0.072	0.361
-299.764	-95.431	-0.176	-0.047
-298.749	44.108	-0.224	0.203
-297.735	13.167	-0.040	-0.031
-296.720	228.523	-0.118	0.191
-295.705	175.939	-0.074	0.107
-294.691	61.562	-0.055	0.054
-293.676	-200.000	-0.002	-0.289
-292.662	499.704	0.126	-0.288
-291.647	800.000	0.042	0.157
-290.632	-200.000	-0.018	-0.107
-289.618	283.673	0.144	-0.255
-288.603	800.000	0.085	0.277
-287.589	-61.207	-0.108	-0.045
-286.574	-48.430	0.089	0.043
-285.559	-200.000	0.062	0.327
-284.545	11.109	-0.174	-0.131
-283.530	-97.685	0.106	-0.027
-282.516	800.000	0.040	0.161
-281.501	64.609	0.108	-0.108
-280.486	-109.031	0.130	-0.027
-279.472	35.950	0.096	0.084
-278.457	-37.939	0.238	-0.125
-277.443	84.360	0.159	-0.172
-276.428	-200.000	0.005	-0.194
-275.413	84.824	-0.214	0.231
-274.399	66.139	-0.146	0.147
-273.384	561.242	-0.117	-0.280
-272.370	200.480	0.080	-0.122
-271.355	384.309	0.048	0.097
-270.340	-161.067	-0.243	0.013
-269.326	-58.607	-0.328	-0.140
-268.311	-51.273	-0.208	0.096
-267.297	650.065	-0.092	0.233
-266.282	202.838	0.072	0.110
-265.267	-5.808	-0.365	0.247
-264.253	64.786	-0.138	0.138
-263.238	800.000	0.019	0.081
-262.224	-200.000	-0.022	-0.152
-261.209	196.643	0.176	-0.266
-260.195	4.169	-0.281	-0.203
-259.180	-10.942	0.271	-0.177
-258.165	-180.860	-0.491	-0.010
-257.151	-14.972	0.168	-0.107
-256.136	-41.141	0.321	0.164
-255.122	-69.191	-0.350	0.133
-254.107	105.058	0.159	-0.185
-253.092	27.239	0.320	0.265
-252.078	-200.000	0.023	0.250
-251.063	8.706	-0.073	0.054
-250.049	-118.282	0.167	0.029
-249.034	334.237	-0.118	-0.225
-248.019	149.824	0.145	0.195
-247.005	-200.000	0.024	0.335
-245.990	535.517	0.098	-0.230
-244.976	-116.557	0.206	-0.037
-243.961	185.089	0.165	-0.242
-242.946	-60.165	-0.268	0.113
-241.932	-29.332	0.302	-0.171
-240.917	-50.313	0.109	0.051
-239.903	51.938	0.252	-0.237
-238.888	-186.108	0.188	0.003
-237.873	-159.369	0.333	0.018
-236.859	44.811	-0.389	0.353
-235.844	8.968	0.062	0.046
-234.830	117.106	-0.081	-0.098
-233.815	-71.590	-0.379	-0.140
-232.800	-77.383	-0.392	0.135
-231.786	754.946	-0.071	0.190
-230.771	-166.568	0.182	0.007
-229.757	-58.425	-0.195	-0.084
-228.742	64.062	-0.302	-0.300
-227.727	-77.310	-0.285	-0.098
-226.713	477.291	0.097	-0.217
-225.698	-200.000	-0.025	-0.183
-224.684	257.367	-0.101	-0.172
-223.669	55.421	-0.028	-0.026
-222.655	800.000	-0.102	-0.327
-221.640	44.314	0.241	0.218
-220.625	103.702	-0.080	0.093
-219.611	16.263	-0.328	-0.255
-218.596	-87.801	-0.122	0.036
-217.582	-152.316	-0.298	0.021
-216.567	-33.655	0.136	0.074
-215.552	-156.161	0.086	0.005
-214.538	123.882	0.079	0.098
-213.523	-123.530	-0.286	0.045
-212.509	-5.837	-0.112	-0.075
-211.494	-33.974	-0.210	-0.114
-210.479	52.728	0.222	-0.209
-209.465	211.494	-0.074	-0.115
-208.450	362.574	-0.147	0.290
-207.436	800.000	0.055	-0.236
-206.421	-135.853	-0.217	0.025
-205.406	-108.326	-0.261	-0.056
-204.392	-114.831	0.291	-0.055
-203.377	-156.733	-0.339	0.021
-202.363	-71.269	-0.264	0.098
-201.348	24.572	0.026	0.021
-200.333	-70.633	-0.135	-0.050
-199.319	-131.199	0.247	0.032
-198.304	-200.000	0.011	-0.216
-197.290	66.699	-0.066	0.067
-196.275	-200.000	-0.033	0.151
-195.260	498.390	0.160	0.363
-194.246	-69.205	-0.189	0.072
-193.231	150.050	0.098	-0.131
-192.217	420.405	0.077	0.163
-191.202	-200.000	0.048	0.229
-190.187	-200.000	-0.007	0.158
-189.173	-53.876	0.075	0.034
-188.158	92.054	0.282	0.313
-187.144	-200.000	0.028	0.238
-186.129	800.000	0.061	0.197
-185.114	98.417	0.058	0.065
-184.100	-13.656	0.492	-0.313
-183.085	-37.839	-0.093	0.049
-182.071	-43.314	-0.213	0.106
-181.056	-99.552	0.232	-0.057
-180.042	-170.944	-0.065	-0.002
-179.027	108.144	0.038	0.044
-178.012	148.900	-0.033	-0.043
-176.998	-139.912	0.237	-0.025
-175.983	416.491	-0.108	0.226
-174.969	-161.673	0.172	-0.009
-173.954	56.764	0.123	-0.118
-172.939	100.852	-0.135	0.154
-171.925	-135.849	-0.353	0.041
-170.910	338.101	-0.083	0.159
-169.896	-200.000	-0.062	0.345
-168.881	-118.196	0.081	0.014
-167.866	-53.614	0.230	-0.104
-166.852	-90.948	0.272	-0.077
-165.837	92.294	-0.126	-0.140
-164.823	189.645	0.113	-0.166
-163.808	-63.821	-0.130	0.052
-162.793	-98.091	-0.226	-0.057
-161.779	211.638	0.169	0.261
-160.764	-12.474	0.230	0.148
-159.750	-169.247	0.186	-0.007
-158.735	56.983	-0.193	-0.186
-157.720	106.473	0.107	-0.124
-156.706	-20.711	-0.315	-0.190
-155.691	-76.522	0.170	0.059
-154.677	-94.526	0.387	0.104
-153.662	-25.993	0.074	-0.043
-152.647	800.000	-0.054	0.202
-151.633	-65.507	0.069	-0.027
-150.618	592.966	0.073	-0.176
-149.604	-0.540	-0.263	-0.183
-148.589	-200.000	0.032	-0.223
-147.574	-167.093	-0.225	-0.009
-146.560	-36.359	0.058	0.031
-145.545	138.677	-0.174	-0.225
-144.531	-87.682	-0.211	-0.063
-143.516	-65.054	0.219	-0.087
-142.502	32.106	-0.159	-0.135
-141.487	60.751	0.186	0.181
-140.472	-72.246	-0.145	0.053
-139.458	800.000	0.049	0.154
-138.443	28.165	-0.075	0.062
-137.429	-29.113	0.099	0.056
-136.414	-14.265	-0.304	-0.193
-135.399	339.920	-0.031	-0.060
-134.385	800.000	-0.040	0.143
-133.370	-103.893	0.393	0.090
-132.356	35.021	0.142	0.122
-131.341	342.143	-0.108	-0.208
-130.326	-200.000	0.012	-0.155
-129.312	265.364	-0.040	0.068
-128.297	300.028	0.104	0.188
-127.283	-177.080	0.304	0.007
-126.268	18.459	0.077	0.061
-125.253	384.187	0.084	0.170
-124.239	503.303	-0.096	-0.219
-123.224	173.029	-0.177	-0.250
-122.210	13.760	-0.127	0.097
-121.195	269.486	-0.098	-0.169
-120.180	800.000	0.006	-0.016
-119.166	-200.000	-0.027	0.250
-118.151	79.391	-0.139	0.147
-117.137	301.090	0.093	0.168
-116.122	-200.000	-0.019	0.112
-115.107	800.000	0.048	-0.178
-114.093	-200.000	0.032	-0.174
-113.078	-142.921	-0.105	-0.010
-112.064	327.150	0.061	0.114
-111.049	75.534	-0.218	0.227
-110.034	-144.643	0.118	-0.011
-109.020	643.528	-0.054	-0.136
-108.005	79.858	-0.090	-0.095
-106.991	-200.000	0.038	-0.250
-105.976	-91.283	0.392	0.110
-104.962	202.228	-0.096	-0.146
-103.947	68.191	-0.181	-0.182
-102.932	800.000	0.054	-0.213
-101.918	-200.000	-0.006	-0.237
-100.903	-113.719	-0.137	-0.026
-99.889	-156.668	-0.261	0.016
-98.874	-149.498	-0.184	-0.014
-97.859	-149.964	0.157	0.012
-96.845	61.695	0.146	0.143
-95.830	675.887	-0.053	-0.134
-94.816	114.848	0.198	-0.237
-93.801	800.000	-0.083	0.228
-92.786	-156.895	-0.324	0.019
-91.772	-39.474	0.047	-0.024
-90.757	800.000	0.041	-0.150
-89.743	347.580	-0.142	-0.275
-88.728	15.369	0.096	-0.074
-87.713	800.000	0.018	0.062
-86.699	-150.393	-0.170	-0.013
-85.684	31.180	0.569	0.479
-84.670	-81.994	0.179	-0.057
-83.655	-28.440	-0.107	-0.060
-82.640	-63.997	-0.097	0.039
-81.626	192.896	-0.127	-0.188
-80.611	483.257	0.084	-0.188
-79.597	-55.711	-0.218	0.096
-78.582	41.547	0.165	-0.146
-77.567	-200.000	-0.030	0.252
-76.553	-55.036	0.180	0.079
-75.538	-81.357	-0.128	-0.041
-74.524	-200.000	-0.003	0.186
-73.509	-90.889	0.359	-0.101
-72.494	233.360	0.179	-0.288
-71.480	711.373	-0.153	0.398
-70.465	133.602	0.145	-0.184
-69.451	99.923	-0.264	-0.300
-68.436	-131.590	-0.369	-0.048
-67.422	-13.584	0.355	0.226
-66.407	-137.304	0.310	0.034
-65.392	472.308	-0.082	0.181
-64.378	-200.000	-0.010	-0.123
-63.363	-200.000	0.097	-0.453
-62.349	332.738	0.097	0.183
-61.334	157.090	-0.905	-1.226
-60.319	153.419	0.436	0.585
-59.305	-200.000	-0.237	-1.056
-58.290	321.755	0.732	1.364
-57.276	410.082	0.703	1.461
-56.261	-200.000	114.104	649.000
-55.246	537.988	1520.213	3540.409
-54.232	179.157	2682.111	3844.439
-53.217	110.403	2147.239	2528.200
-52.203	39.291	1595.970	1399.771
-51.188	31.097	1344.269	1129.600
-50.173	28.217	1306.103	1080.515
-49.159	55.539	1362.474	1292.423
-48.144	54.557	1376.760	1300.030
-47.130	31.374	1332.294	1121.022
-46.115	27.872	1314.562	1085.289
-45.100	27.779	1309.494	1080.513
-44.086	27.618	1307.268	1077.680
-43.071	27.453	1305.481	1075.191
-42.057	27.588	1302.922	1073.838
-41.042	27.741	1301.440	1073.471
-40.027	27.619	1299.807	1071.364
-39.013	27.783	1297.844	1070.669
-37.998	27.753	1296.018	1068.945
-36.984	27.744	1294.086	1067.253
-35.969	27.765	1292.534	1066.055
-34.954	27.732	1291.058	1064.601
-33.940	27.845	1289.370	1063.829
-32.925	27.828	1288.067	1062.612
-31.911	27.828	1286.866	1061.575
-30.896	27.870	1284.933	1060.187
-29.881	27.909	1283.979	1059.581
-28.867	28.017	1282.179	1058.681
-27.852	27.796	1281.724	1056.980
-26.838	27.841	1280.081	1055.846
-25.823	27.951	1278.785	1055.368
-24.809	27.722	1277.735	1053.137
-23.794	27.815	1276.136	1052.315
-22.779	27.859	1274.772	1051.405
-21.765	27.939	1273.128	1050.468
-20.750	27.919	1272.051	1049.422
-19.736	27.812	1271.015	1047.911
-18.721	27.758	1269.783	1046.540
-17.706	27.746	1268.660	1045.509
-16.692	27.598	1267.967	1044.044
-15.677	27.734	1266.461	1043.545
-14.663	27.689	1265.511	1042.462
-13.648	27.776	1264.177	1041.817
-12.633	27.654	1263.569	1040.578
-11.619	27.676	1262.568	1039.841
-10.604	27.761	1261.370	1039.296
-9.590	27.745	1260.488	1038.437
-8.575	27.778	1259.385	1037.677
-7.560	27.770	1258.489	1036.851
-6.546	27.727	1258.011	1036.168
-5.531	27.647	1256.960	1034.808
-4.517	27.760	1256.285	1034.851
-3.502	27.888	1255.114	1034.575
-2.487	27.809	1254.480	1033.563
-1.473	27.834	1249.652	1029.685
-0.458	26.184	1235.064	1008.418
0.556	24.110	1218.058	970.418
1.571	20.252	1222.457	952.696
2.586	19.447	1237.181	959.610
3.600	19.087	1225.599	948.558
4.615	14.593	1154.016	869.705
5.629	7.127	1082.295	778.963
6.644	4.016	1063.234	750.121
7.659	3.769	1060.753	747.107
8.673	3.698	1059.785	746.019
9.688	3.508	1058.433	744.084
10.702	4.032	1056.386	745.103
11.717	8.585	1063.185	771.839
12.731	16.940	1074.527	820.595
13.746	21.891	1080.800	849.344
14.761	22.631	1081.092	853.082
15.775	21.957	1079.468	848.467
16.790	21.064	1078.075	842.982
17.804	20.401	1076.974	838.846
18.819	20.280	1075.752	837.236
19.834	20.405	1075.170	837.315
20.848	20.453	1074.246	836.753
21.863	20.100	1074.052	834.825
22.877	20.007	1072.955	833.449
23.892	19.928	1072.567	832.694
24.907	19.913	1071.392	831.637
25.921	19.846	1070.474	830.529
26.936	19.839	1069.040	829.310
27.950	19.836	1067.939	828.368
28.965	19.828	1066.605	827.222
29.980	20.169	1064.874	827.434
30.994	20.221	1064.469	827.295
32.009	20.218	1063.291	826.290
33.023	20.227	1062.085	825.325
34.038	20.173	1061.191	824.300
35.053	20.025	1060.331	822.857
36.067	19.945	1059.493	821.753
37.082	19.871	1059.048	820.983
38.096	20.161	1058.352	821.747
39.111	20.222	1057.133	821.018
40.126	19.970	1055.917	818.807
41.140	19.612	1054.733	816.125
42.155	19.315	1053.308	813.552
43.169	19.376	1052.039	812.784
44.184	19.378	1050.920	811.859
45.199	19.356	1050.354	811.248
46.213	19.595	1049.646	811.750
47.228	19.924	1048.878	812.631
48.242	19.968	1048.221	812.255
49.257	20.007	1046.703	811.190
50.271	20.089	1046.036	810.985
51.286	20.183	1045.246	810.742
52.301	20.056	1044.587	809.563
53.315	19.912	1043.160	807.715
54.330	19.747	1042.316	806.219
55.344	19.598	1041.512	804.833
56.359	19.509	1040.437	803.519
57.374	19.608	1039.708	803.342
58.388	19.421	1038.669	801.601
59.403	19.426	1037.783	800.868
60.417	19.297	1037.417	799.916
61.432	19.334	1036.229	799.100
62.447	19.291	1035.351	798.155
63.461	19.224	1034.372	797.018
64.476	19.186	1033.621	796.193
65.490	19.141	1032.812	795.291
66.505	19.148	1032.290	794.854
67.520	19.303	1031.690	795.036
68.534	19.228	1030.739	793.885
69.549	19.092	1030.075	792.678
70.563	19.192	1028.889	792.156
71.578	18.923	1028.019	790.182
72.593	18.823	1027.378	789.157
73.607	18.813	1026.808	788.607
74.622	18.900	1026.289	788.534
75.636	19.066	1025.684	788.763
76.651	19.133	1024.650	788.204
77.666	19.007	1024.750	787.632
78.680	19.035	1024.249	787.309
79.695	18.950	1023.267	786.096
80.709	19.333	1023.101	787.648
81.724	19.371	1022.508	787.296
82.739	19.587	1021.266	787.255
83.753	19.940	1020.939	788.538
84.768	20.327	1020.594	789.965
85.782	20.579	1019.429	790.138
86.797	20.448	1018.927	789.083
87.812	20.069	1017.858	786.468
88.826	20.140	1016.779	785.886
89.841	20.325	1015.902	785.977
90.855	20.258	1015.885	785.592
91.870	20.396	1014.552	785.113
92.884	20.413	1013.506	784.313
93.899	20.301	1012.740	783.142
94.914	20.428	1011.977	783.056
95.928	20.285	1010.853	781.476
96.943	20.149	1010.013	780.145
97.957	20.199	1008.680	779.267
98.972	20.197	1008.348	778.937
99.987	20.257	1007.477	778.462
101.001	20.145	1006.423	777.079
102.016	20.116	1005.530	776.188
103.030	20.229	1004.877	776.123
104.045	20.265	1004.158	775.659
105.060	20.010	1003.254	773.755
106.074	19.640	1001.690	770.829
107.089	19.504	1000.361	769.132
108.103	19.194	999.616	767.109
109.118	19.284	998.648	766.701
110.133	19.188	997.718	765.493
111.147	19.059	996.845	764.180
112.162	19.198	996.215	764.248
113.176	19.364	995.669	764.495
114.191	19.585	994.229	764.300
115.206	19.395	993.770	763.041
116.220	19.354	993.185	762.341
117.235	19.359	992.077	761.445
118.249	19.334	990.942	760.399
119.264	19.124	990.713	759.230
120.279	19.060	989.865	758.230
121.293	19.024	988.508	756.966
122.308	18.894	987.551	755.593
123.322	18.884	986.860	754.955
124.337	18.843	985.814	753.910
125.352	18.986	984.826	753.713
126.366	18.934	983.965	752.759
127.381	18.972	982.900	752.042
128.395	19.008	982.676	751.962
129.410	19.032	981.494	751.097
130.424	18.989	981.325	750.713
131.439	19.286	980.178	751.063
132.454	19.383	979.524	750.920
133.468	19.291	978.839	749.926
134.483	19.503	977.439	749.707
135.497	19.312	976.876	748.380
136.512	19.423	976.215	748.289
137.527	19.532	975.164	747.890
138.541	19.527	974.567	747.347
139.556	19.608	973.620	746.905
140.570	19.784	973.690	747.653
141.585	20.085	972.832	748.227
142.600	20.211	971.822	747.928
143.614	20.192	971.610	747.617
144.629	20.258	970.543	747.015
145.643	20.203	969.029	745.543
146.658	19.926	967.693	743.264
147.673	19.703	967.000	741.708
148.687	19.734	965.665	740.753
149.702	19.370	965.101	738.692
150.716	19.480	964.083	738.319
151.731	19.605	963.244	738.145
152.746	19.629	962.512	737.623
153.760	19.707	962.359	737.772
154.775	19.832	961.564	737.629
155.789	19.770	960.948	736.830
156.804	19.896	960.156	736.692
157.819	19.958	959.732	736.568
158.833	20.099	959.195	736.688
159.848	20.310	958.691	737.133
160.862	20.110	957.369	735.203
161.877	19.571	955.767	731.624
162.892	19.504	954.463	730.277
163.906	19.427	953.580	729.212
164.921	19.433	952.971	728.706
165.935	19.611	952.140	728.756
166.950	19.672	951.648	728.572
167.964	19.710	950.238	727.591
168.979	19.500	949.444	726.036
169.994	19.554	948.819	725.720
171.008	19.688	948.147	725.705
172.023	20.049	947.746	726.849
173.037	20.154	947.051	726.692
174.052	20.092	945.428	725.122
175.067	19.655	944.320	722.381
176.081	19.424	944.047	721.142
177.096	19.338	944.003	720.688
178.110	19.277	943.384	719.896
179.125	19.423	942.676	719.898
180.140	19.604	942.366	720.355
181.154	19.878	941.801	721.002
182.169	20.017	941.729	721.460
183.183	20.080	941.303	721.332
184.198	20.073	940.042	720.275
185.213	20.180	939.189	720.002
186.227	20.169	938.775	719.574
187.242	20.309	938.321	719.742
188.256	20.465	937.838	719.954
189.271	20.255	937.219	718.548
190.286	19.842	936.050	715.880
191.300	19.405	934.405	712.752
192.315	19.156	934.020	711.367
193.329	19.458	933.529	712.176
194.344	19.522	933.047	712.010
195.359	19.693	932.095	711.925
196.373	19.814	932.076	712.344
197.388	20.308	931.888	714.171
198.402	20.325	931.706	714.038
199.417	20.462	931.511	714.390
200.432	20.598	930.562	714.159
201.446	20.842	930.042	714.695
202.461	20.715	929.670	713.828
203.475	20.647	928.835	712.844
204.490	20.164	927.706	709.936
205.504	20.214	926.785	709.373
206.519	20.020	926.071	707.973
207.534	20.166	925.110	707.772
208.548	19.978	925.087	706.924
209.563	20.113	924.135	706.684
210.577	20.197	923.357	706.368
211.592	20.482	923.128	707.289
212.607	20.641	922.274	707.221
213.621	20.462	921.854	706.107
214.636	20.398	921.161	705.254
215.650	20.473	920.615	705.076
216.665	20.697	919.568	705.124
217.680	20.611	919.475	704.639
218.694	20.627	918.865	704.176
219.709	20.631	918.139	703.574
220.723	20.630	916.892	702.551
221.738	20.354	916.595	701.145
222.753	20.387	915.877	700.670
223.767	20.488	916.028	701.129
224.782	20.766	915.127	701.497
225.796	20.901	914.555	701.542
226.811	20.564	913.986	699.685
227.826	20.336	912.951	697.915
228.840	20.326	912.109	697.171
229.855	20.396	911.103	696.621
230.869	20.290	910.312	695.530
231.884	20.137	910.053	694.656
232.899	20.074	909.192	693.687
233.913	20.046	908.109	692.685
234.928	19.957	907.568	691.854
235.942	19.765	907.199	690.748
236.957	19.942	906.591	690.929
237.972	20.123	905.576	690.816
238.986	19.849	905.420	689.543
240.001	19.870	904.918	689.184
241.015	20.073	904.231	689.406
242.030	20.216	903.714	689.520
243.045	20.270	903.471	689.490
244.059	20.290	902.821	689.012
245.074	20.417	902.339	689.088
246.088	20.606	901.269	688.959
247.103	20.745	900.783	689.076
248.117	20.909	901.154	689.948
249.132	21.236	900.800	690.908
250.147	21.483	900.460	691.564
251.161	21.578	899.547	691.177
252.176	21.638	899.245	691.119
253.190	21.640	898.678	690.633
254.205	21.627	897.998	689.997
255.220	21.626	897.046	689.199
256.234	21.522	896.468	688.284
257.249	21.550	895.987	687.966
258.263	21.418	894.808	686.482
259.278	21.363	894.462	685.939
260.293	21.537	893.947	686.166
261.307	21.660	893.600	686.320
262.322	21.629	893.081	685.741
263.336	21.590	892.375	684.987
264.351	21.677	891.189	684.352
265.366	21.719	890.733	684.107
266.380	21.576	890.447	683.271
267.395	21.348	889.760	681.791
268.409	21.483	888.228	681.084
269.424	21.469	887.525	680.430
270.439	21.306	887.026	679.354
271.453	21.290	886.068	678.498
272.468	21.146	885.536	677.471
273.482	21.026	885.484	676.905
274.497	21.221	884.561	676.894
275.512	21.321	883.951	676.756
276.526	21.096	883.808	675.716
277.541	21.288	883.292	676.004
278.555	21.652	882.988	677.119
279.570	21.673	882.490	676.759
280.585	21.616	881.664	675.848
281.599	21.491	880.185	674.170
282.614	21.235	879.766	672.802
283.628	21.226	879.432	672.455
284.643	21.373	878.350	672.134
285.657	21.348	878.120	671.800
286.672	21.311	877.420	671.066
287.687	21.366	876.757	670.708
288.701	21.435	876.327	670.584
289.716	21.452	875.706	670.114
290.730	21.427	875.367	669.701
291.745	21.494	874.569	669.286
292.760	21.551	874.205	669.167
293.774	21.749	873.659	669.449
294.789	21.683	873.039	668.662
295.803	21.469	871.774	666.817
296.818	21.234	871.493	665.647
297.833	21.361	870.521	665.329
298.847	21.484	870.414	665.655
299.862	21.264	869.718	664.230
300.876	21.509	869.365	664.831
301.891	21.811	868.831	665.512
302.906	21.911	868.581	665.641
303.920	22.136	868.045	666.022
304.935	22.246	867.453	665.929
305.949	22.140	866.438	664.688
306.964	21.879	865.655	663.041
307.979	21.905	865.348	662.845
308.993	21.871	865.195	662.542
310.008	21.939	864.460	662.177
311.022	21.775	863.644	660.874
312.037	21.698	862.700	659.805
313.052	21.394	861.937	658.019
314.066	21.218	861.327	656.832
315.081	21.294	860.840	656.688
316.095	21.321	860.227	656.266
317.110	21.364	859.394	655.731
318.125	21.361	858.826	655.228
319.139	21.199	858.503	654.318
320.154	21.182	858.350	654.079
321.168	21.403	857.446	654.161
322.183	21.440	857.005	653.906
323.197	21.585	856.396	653.923
324.212	21.588	855.889	653.489
325.227	21.516	855.318	652.729
326.241	21.357	854.710	651.612
327.256	21.349	854.224	651.155
328.270	21.206	854.043	650.426
329.285	21.327	853.166	650.150
330.300	21.196	852.302	648.948
331.314	21.413	852.190	649.612
332.329	21.590	852.308	650.301
333.343	21.696	851.807	650.257
334.358	21.662	851.239	649.641
335.373	21.761	850.976	649.746
336.387	21.912	850.681	650.023
337.402	21.896	850.542	649.802
338.416	22.188	850.106	650.490
339.431	22.328	850.219	651.039
340.446	22.411	849.740	650.921
341.460	22.404	849.362	650.548
342.475	22.553	848.804	650.612
343.489	22.651	848.618	650.774
344.504	22.606	847.989	650.070
345.519	22.827	847.378	650.356
346.533	22.393	846.729	648.204
347.548	22.325	845.826	647.205
348.562	22.054	845.027	645.542
349.577	22.021	844.116	644.665
350.592	21.761	843.649	643.298
351.606	21.746	842.701	642.464
352.621	21.869	841.987	642.312
353.635	21.935	841.783	642.344
354.650	21.941	841.222	641.878
355.665	21.924	840.758	641.408
356.679	22.263	840.072	642.065
357.694	22.110	839.503	641.016
358.708	22.218	838.503	640.588
359.723	22.105	837.865	639.630
360.738	21.990	837.771	639.085
361.752	22.225	837.118	639.385
362.767	22.499	836.906	640.162
363.781	22.563	836.644	640.137
364.796	22.781	836.292	640.603
365.810	22.939	835.812	640.752
366.825	22.928	835.359	640.308
367.840	22.857	834.883	639.630
368.854	22.648	833.884	638.050
369.869	22.474	833.572	637.126
370.883	22.543	833.151	636.999
371.898	22.769	833.335	637.898
372.913	22.814	832.577	637.424
373.927	22.740	831.505	636.281
374.942	22.612	831.593	635.832
375.956	22.761	830.832	635.729
376.971	22.870	830.890	636.110
377.986	23.268	830.067	636.855
379.000	23.064	829.675	635.766
380.015	22.944	829.539	635.173
381.029	23.075	828.228	634.583
382.044	23.054	827.982	634.264
383.059	23.065	827.262	633.694
384.073	22.761	826.648	632.078
385.088	22.413	825.967	630.259
386.102	22.470	825.147	629.781
387.117	22.318	824.634	628.789
388.132	22.383	824.178	628.616
389.146	22.440	823.600	628.325
390.161	22.816	823.410	629.464
391.175	22.825	823.047	629.163
392.190	22.795	822.032	628.225
393.205	22.625	821.444	627.116
394.219	22.459	821.173	626.264
395.234	22.188	820.307	624.585
396.248	22.206	819.844	624.241
397.263	22.093	819.768	623.726
398.278	22.100	819.513	623.501
399.292	22.126	818.640	622.874
400.307	22.158	817.758	622.263
401.321	22.089	817.914	622.083
402.336	22.286	817.309	622.263
403.350	22.642	816.963	623.202
404.365	22.804	817.148	623.862
405.380	22.907	816.992	624.052
406.394	23.097	815.904	623.836
407.409	23.366	815.374	624.324
408.423	23.302	815.564	624.187
409.438	23.360	815.259	624.103
410.453	23.334	814.891	623.675
411.467	23.356	814.189	623.159
412.482	23.473	813.890	623.288
413.496	23.635	813.534	623.528
414.511	23.600	812.989	622.933
415.526	23.433	812.443	621.872
416.540	23.308	811.774	620.869
417.555	23.460	811.477	621.119
418.569	23.273	810.824	619.911
419.584	23.341	810.482	619.832
420.599	23.369	810.041	619.536
421.613	164.052	1372.229	1798.096
422.628	142.858	1454.112	1798.183
