DTS Sentinel unit serial number:	SN413079Multiplexer serial number:	ORYXHardware model number:	OX4-SRSoftware version number:	ORYX F/W v4.00 Oryx Data Collector v3.7.2.0data status	okinstallation	princeton_trtdifferential loss correction	single-endedforward channel	channel 1reverse channel	N/Adate	2019/09/12time	07:20:11forward acquisition time	60.00reverse acquisition time	0.00gamma	496.2192k internal	0.2319k external	0.2319temperature offset calibration	1.0044default loss term (dB/km)	0.3790temperature slope calibration	1.0000multiplexer offset coefficient	1.0000multiplexer slope coefficient	1.0000fibre end	0.00T internal ref (°C)	32.31T ext. ref 1 (°C)	1.61T ext. ref 2 (°C)	28.57length (m)	temperature (°C)	Stokes	anti-Stokes-747.200	-106.689	0.242	-0.055
-746.185	99.815	-0.109	0.127
-745.171	648.251	0.108	0.278
-744.156	383.112	-0.131	0.273
-743.142	24.665	-0.094	-0.079
-742.127	54.380	-0.235	-0.229
-741.112	-71.283	0.238	0.090
-740.098	-200.000	-0.022	0.304
-739.083	68.885	0.108	0.112
-738.069	800.000	0.062	0.183
-737.054	-162.594	0.218	0.011
-736.039	751.069	-0.117	0.320
-735.025	-29.967	0.301	0.173
-734.010	-200.000	-0.024	-0.177
-732.996	647.255	-0.171	0.443
-731.981	512.742	0.068	0.161
-730.966	-200.000	0.005	0.236
-729.952	-118.207	-0.243	-0.044
-728.937	14.313	-0.323	-0.254
-727.923	800.000	-0.095	-0.408
-726.908	800.000	0.084	0.366
-725.894	264.984	-0.185	-0.326
-724.879	6.807	0.163	0.123
-723.864	107.055	0.116	-0.140
-722.850	-72.911	0.046	0.017
-721.835	169.696	0.154	0.223
-720.821	21.798	-0.074	0.061
-719.806	-81.774	0.200	0.066
-718.791	-111.087	0.384	0.080
-717.777	-161.999	0.050	-0.003
-716.762	171.220	-0.104	-0.151
-715.748	-200.000	-0.061	-0.365
-714.733	-122.467	-0.409	0.067
-713.718	-45.321	0.351	0.176
-712.704	-200.000	0.024	-0.371
-711.689	-54.861	0.167	-0.076
-710.675	-7.921	-0.095	0.064
-709.660	16.274	0.139	-0.111
-708.645	800.000	0.142	0.477
-707.631	800.000	-0.094	0.359
-706.616	800.000	0.091	0.284
-705.602	-89.756	-0.119	-0.035
-704.587	-46.053	-0.069	-0.034
-703.572	-170.911	0.111	0.004
-702.558	17.448	0.091	-0.073
-701.543	49.629	0.114	-0.109
-700.529	22.210	-0.261	0.215
-699.514	110.791	0.226	-0.275
-698.499	-200.000	0.014	-0.159
-697.485	-117.855	0.112	-0.020
-696.470	787.822	-0.071	0.196
-695.456	800.000	0.075	0.280
-694.441	-52.352	-0.239	0.112
-693.426	800.000	0.085	-0.276
-692.412	238.663	-0.223	-0.374
-691.397	-82.878	0.382	-0.125
-690.383	-151.500	-0.107	0.008
-689.368	-107.159	-0.449	-0.100
-688.354	-200.000	-0.008	-0.136
-687.339	-200.000	0.054	-0.360
-686.324	800.000	-0.099	-0.277
-685.310	588.173	-0.058	0.145
-684.295	-200.000	-0.015	-0.193
-683.281	-26.184	-0.183	0.108
-682.266	5.794	0.396	-0.295
-681.251	-92.073	0.399	0.114
-680.237	74.511	0.122	0.129
-679.222	254.454	-0.114	-0.197
-678.208	601.460	-0.152	0.381
-677.193	301.004	0.182	0.338
-676.178	1.479	-0.266	0.193
-675.164	-200.000	0.033	-0.237
-674.149	-200.000	0.014	0.132
-673.135	-109.039	-0.143	0.031
-672.120	-159.757	-0.441	0.025
-671.105	59.652	0.138	-0.137
-670.091	651.586	-0.130	-0.336
-669.076	704.653	0.079	-0.211
-668.062	105.583	-0.135	-0.161
-667.047	-127.381	-0.187	0.027
-666.032	-19.656	0.151	-0.094
-665.018	102.147	0.244	-0.288
-664.003	302.204	-0.136	0.254
-662.989	38.833	-0.093	0.084
-661.974	-200.000	-0.009	0.080
-660.959	109.960	0.213	-0.258
-659.945	-200.000	0.051	-0.319
-658.930	-200.000	-0.010	-0.185
-657.916	-33.761	0.091	-0.051
-656.901	307.897	-0.131	-0.246
-655.886	-200.000	-0.024	-0.131
-654.872	-14.043	-0.596	0.388
-653.857	429.835	-0.040	0.087
-652.843	217.244	-0.013	0.022
-651.828	256.768	-0.057	0.099
-650.814	514.258	-0.136	0.320
-649.799	616.482	-0.060	0.152
-648.784	-76.091	0.054	-0.019
-647.770	800.000	-0.020	-0.080
-646.755	-200.000	-0.004	0.360
-645.741	244.198	0.178	-0.301
-644.726	-100.627	0.172	0.043
-643.711	-7.746	-0.274	0.187
-642.697	-93.668	-0.133	0.037
-641.682	-115.050	-0.402	0.077
-640.668	-91.453	0.167	-0.048
-639.653	642.928	-0.109	0.280
-638.638	256.391	-0.068	0.118
-637.624	-121.966	-0.249	-0.041
-636.609	44.900	0.238	-0.221
-635.595	-200.000	0.060	-0.286
-634.580	-200.000	0.004	0.134
-633.565	-12.659	-0.161	-0.106
-632.551	278.529	-0.119	-0.214
-631.536	746.039	0.069	-0.187
-630.522	653.989	-0.141	-0.365
-629.507	-52.320	-0.168	-0.079
-628.492	-48.843	0.337	-0.163
-627.478	-200.000	0.052	-0.344
-626.463	154.151	-0.148	0.205
-625.449	18.178	-0.009	0.007
-624.434	-200.000	-0.020	-0.203
-623.419	327.011	0.041	-0.079
-622.405	800.000	0.106	-0.298
-621.390	-200.000	0.022	-0.330
-620.376	-159.425	-0.209	-0.012
-619.361	316.306	-0.066	-0.125
-618.346	800.000	0.109	-0.468
-617.332	-200.000	-0.002	0.038
-616.317	206.372	-0.180	-0.282
-615.303	-72.550	0.184	-0.068
-614.288	344.262	0.085	0.169
-613.273	118.980	0.087	-0.108
-612.259	122.921	-0.183	-0.231
-611.244	461.383	-0.128	-0.287
-610.230	235.421	0.026	-0.043
-609.215	-32.283	0.069	-0.039
-608.201	-138.776	-0.202	-0.022
-607.186	60.105	0.027	0.027
-606.171	800.000	-0.108	-0.305
-605.157	-3.900	-0.182	0.127
-604.142	795.356	-0.087	0.242
-603.128	800.000	0.035	-0.146
-602.113	-87.333	-0.573	-0.175
-601.098	-83.534	0.123	-0.039
-600.084	-111.498	0.230	0.047
-599.069	116.244	-0.097	0.119
-598.055	-200.000	-0.012	-0.088
-597.040	-200.000	-0.005	0.247
-596.025	314.452	0.043	-0.081
-595.011	489.806	0.048	-0.111
-593.996	-95.531	0.262	0.071
-592.982	25.496	0.384	-0.322
-591.967	-200.000	-0.028	-0.434
-590.952	285.612	-0.222	-0.403
-589.938	-112.582	-0.148	-0.030
-588.923	87.122	-0.118	0.131
-587.909	-38.616	-0.178	0.095
-586.894	61.782	0.123	0.123
-585.879	-200.000	0.026	0.183
-584.865	-98.434	-0.170	0.044
-583.850	-132.435	-0.438	0.057
-582.836	-102.710	-0.202	0.048
-581.821	-200.000	-0.030	-0.429
-580.806	223.958	0.032	-0.051
-579.792	-127.682	0.126	-0.018
-578.777	102.065	-0.078	0.092
-577.763	-42.769	0.134	0.068
-576.748	-64.330	-0.219	0.090
-575.733	252.266	0.162	-0.277
-574.719	-42.149	0.145	0.075
-573.704	800.000	0.009	0.027
-572.690	291.406	0.065	-0.119
-571.675	-165.275	0.259	-0.011
-570.661	-200.000	0.019	-0.310
-569.646	-103.475	0.149	0.035
-568.631	-4.066	0.161	0.112
-567.617	90.109	-0.063	-0.071
-566.602	-47.994	0.408	0.198
-565.588	621.378	0.074	-0.187
-564.573	800.000	0.037	0.146
-563.558	7.038	0.020	-0.015
-562.544	800.000	0.096	0.325
-561.529	-55.635	0.174	0.078
-560.515	2.077	0.048	-0.035
-559.500	800.000	0.056	0.163
-558.485	800.000	0.039	0.136
-557.471	-165.796	-0.090	-0.004
-556.456	655.232	0.064	-0.165
-555.442	-9.296	-0.210	0.141
-554.427	-1.227	-0.113	-0.080
-553.412	-66.605	0.043	0.017
-552.398	2.754	0.247	-0.180
-551.383	71.069	0.150	0.156
-550.369	-3.347	0.159	-0.111
-549.354	-12.099	0.255	-0.167
-548.339	118.590	0.108	0.134
-547.325	-138.995	-0.156	-0.017
-546.310	-61.609	0.389	0.164
-545.296	800.000	0.068	-0.207
-544.281	-200.000	-0.061	-0.627
-543.266	-132.102	-0.167	-0.022
-542.252	-200.000	0.016	-0.321
-541.237	-120.679	-0.316	-0.054
-540.223	-43.943	-0.273	-0.138
-539.208	-74.723	0.093	0.034
-538.193	-200.000	0.152	0.000
-537.179	-76.348	0.325	0.115
-536.164	458.634	-0.087	-0.195
-535.150	-72.660	-0.138	0.051
-534.135	-200.000	-0.013	0.072
-533.121	-79.235	-0.286	-0.097
-532.106	755.980	-0.065	-0.177
-531.091	-200.000	0.050	-0.227
-530.077	-200.000	-0.056	0.361
-529.062	-27.395	0.183	-0.107
-528.048	-44.452	-0.227	-0.114
-527.033	-84.108	-0.165	0.053
-526.018	208.799	-0.112	0.175
-525.004	800.000	0.119	0.331
-523.989	-200.000	0.040	-0.339
-522.975	-6.404	0.300	-0.205
-521.960	41.197	-0.096	0.087
-520.945	-37.570	0.289	-0.154
-519.931	72.512	-0.153	-0.160
-518.916	50.927	-0.082	0.078
-517.902	25.292	-0.202	-0.168
-516.887	-118.766	-0.084	0.015
-515.872	-101.820	0.114	0.028
-514.858	800.000	0.090	0.365
-513.843	-24.100	0.196	0.117
-512.829	-69.338	-0.346	-0.133
-511.814	274.119	0.164	-0.290
-510.799	-200.000	0.001	-0.039
-509.785	421.179	0.031	0.066
-508.770	800.000	-0.136	-0.404
-507.756	33.155	0.071	0.062
-506.741	800.000	-0.057	-0.160
-505.726	40.379	-0.138	-0.124
-504.712	-169.064	-0.313	0.012
-503.697	29.477	0.203	-0.173
-502.683	-17.654	-0.300	-0.189
-501.668	-82.952	0.012	-0.004
-500.653	-82.777	-0.321	0.104
-499.639	-64.572	-0.137	0.056
-498.624	-200.000	0.012	-0.135
-497.610	52.834	-0.233	-0.223
-496.595	117.999	0.158	-0.195
-495.581	800.000	-0.039	-0.112
-494.566	-200.000	0.041	-0.250
-493.551	-70.789	0.385	-0.145
-492.537	395.227	-0.173	0.361
-491.522	-145.613	-0.169	0.015
-490.508	-200.000	0.060	0.400
-489.493	800.000	0.056	-0.208
-488.478	-200.000	0.017	0.342
-487.464	60.715	-0.217	0.215
-486.449	-65.751	-0.109	-0.044
-485.435	800.000	-0.037	-0.107
-484.420	800.000	-0.041	0.177
-483.405	800.000	0.064	-0.183
-482.391	107.733	0.046	0.055
-481.376	130.369	0.166	0.213
-480.362	-110.686	0.161	0.033
-479.347	-192.048	-0.217	0.002
-478.332	-33.037	0.301	0.167
-477.318	-4.425	-0.154	-0.106
-476.303	-78.705	0.114	0.039
-475.289	619.514	0.056	0.140
-474.274	-9.194	0.248	-0.166
-473.259	-161.800	0.248	-0.013
-472.245	-63.428	-0.231	-0.095
-471.230	-89.980	0.320	0.093
-470.216	9.846	-0.268	0.203
-469.201	-86.587	0.175	0.054
-468.186	403.453	-0.117	0.247
-467.172	-42.897	0.129	0.066
-466.157	-127.127	0.169	0.025
-465.143	-56.052	-0.177	-0.079
-464.128	86.736	-0.141	0.155
-463.113	131.772	0.178	-0.229
-462.099	800.000	-0.034	0.143
-461.084	-200.000	0.058	0.291
-460.070	-56.590	0.215	0.095
-459.055	-115.232	-0.362	-0.068
-458.040	-67.845	0.172	-0.067
-457.026	-200.000	-0.028	-0.169
-456.011	-18.831	0.290	-0.181
-454.997	116.584	0.152	0.186
-453.982	267.514	-0.127	0.222
-452.968	800.000	-0.068	0.199
-451.953	113.596	0.095	0.116
-450.938	177.962	0.075	0.110
-449.924	130.572	0.136	0.175
-448.909	799.200	-0.088	0.242
-447.895	-200.000	0.008	-0.089
-446.880	-151.489	0.048	-0.004
-445.865	239.348	-0.053	-0.088
-444.851	-200.000	-0.006	0.185
-443.836	-200.000	0.003	-0.067
-442.822	-200.000	-0.018	0.299
-441.807	56.261	0.132	-0.128
-440.792	36.302	-0.210	-0.185
-439.778	800.000	0.091	0.309
-438.763	-116.678	0.167	-0.031
-437.749	376.390	-0.207	-0.423
-436.734	800.000	0.025	-0.084
-435.719	-122.672	0.416	0.067
-434.705	-141.066	-0.164	0.017
-433.690	-177.465	0.108	0.003
-432.676	-200.000	0.026	0.150
-431.661	157.005	-0.082	0.113
-430.646	-200.000	-0.058	0.410
-429.632	-200.000	-0.022	0.365
-428.617	-119.565	-0.521	0.090
-427.603	31.535	-0.151	-0.129
-426.588	-184.905	0.168	-0.003
-425.573	272.461	-0.091	-0.160
-424.559	204.899	-0.085	0.132
-423.544	74.826	-0.130	-0.136
-422.530	-66.977	-0.254	0.100
-421.515	800.000	0.048	-0.143
-420.500	396.762	0.083	-0.174
-419.486	42.989	0.120	0.109
-418.471	28.075	-0.063	-0.053
-417.457	227.528	0.219	-0.355
-416.442	238.449	-0.228	-0.378
-415.428	-200.000	0.027	0.384
-414.413	297.969	-0.117	0.215
-413.398	-133.919	-0.277	0.034
-412.384	-14.457	-0.062	-0.040
-411.369	800.000	-0.053	-0.148
-410.355	45.211	0.339	-0.312
-409.340	-19.588	0.131	0.081
-408.325	-78.631	-0.074	-0.025
-407.311	-69.733	-0.336	-0.128
-406.296	-67.161	-0.169	-0.067
-405.282	-94.862	0.113	0.031
-404.267	-109.833	0.213	0.045
-403.252	95.355	-0.111	0.126
-402.238	142.810	-0.177	0.235
-401.223	277.886	-0.138	0.246
-400.209	-82.325	0.296	0.096
-399.194	-73.003	0.188	0.069
-398.179	-200.000	-0.020	-0.096
-397.165	634.393	-0.052	0.132
-396.150	116.441	0.170	0.208
-395.136	-57.352	-0.208	-0.091
-394.121	668.131	-0.061	0.159
-393.106	791.173	-0.075	0.207
-392.092	9.747	0.255	-0.193
-391.077	50.133	-0.124	0.117
-390.063	623.512	0.064	0.162
-389.048	-128.879	-0.062	0.009
-388.033	-25.358	-0.024	0.014
-387.019	-131.390	0.162	0.021
-386.004	-96.327	0.104	0.027
-384.990	114.531	-0.108	-0.131
-383.975	-168.053	-0.301	-0.012
-382.960	-31.088	-0.366	0.206
-381.946	-73.157	0.056	0.020
-380.931	467.748	-0.153	0.343
-379.917	-200.000	-0.008	0.259
-378.902	126.734	0.083	-0.105
-377.888	-200.000	-0.030	0.142
-376.873	-200.000	-0.030	-0.228
-375.858	-97.184	-0.141	-0.037
-374.844	2.754	-0.166	0.120
-373.829	800.000	0.050	-0.166
-372.815	98.697	0.156	0.180
-371.800	-114.000	-0.324	0.063
-370.785	212.898	0.042	0.067
-369.771	120.191	0.164	0.202
-368.756	-200.000	-0.001	0.195
-367.742	27.041	0.171	0.143
-366.727	-200.000	0.039	0.384
-365.712	-60.671	0.239	-0.101
-364.698	158.569	0.294	-0.407
-363.683	-64.349	0.221	0.090
-362.669	20.644	0.318	-0.256
-361.654	6.415	-0.259	0.191
-360.639	-142.089	0.164	-0.016
-359.625	-145.686	0.169	0.015
-358.610	-200.000	0.025	0.347
-357.596	800.000	0.080	0.225
-356.581	-200.000	-0.001	0.033
-355.566	29.062	0.178	0.151
-354.552	-2.460	-0.060	-0.042
-353.537	-200.000	0.046	-0.309
-352.523	48.472	0.048	-0.045
-351.508	288.116	-0.035	0.063
-350.493	154.840	0.083	0.114
-349.479	-200.000	-0.005	0.073
-348.464	-6.225	0.166	-0.113
-347.450	180.041	-0.094	0.137
-346.435	-200.000	-0.040	0.304
-345.420	-200.000	0.007	0.372
-344.406	-200.000	0.023	0.132
-343.391	-40.923	-0.197	-0.102
-342.377	-103.029	-0.171	-0.040
-341.362	220.261	0.112	0.179
-340.348	-200.000	-0.037	0.203
-339.333	79.586	0.236	0.252
-338.318	115.876	-0.204	0.248
-337.304	-90.885	0.274	-0.079
-336.289	-121.473	-0.142	0.023
-335.275	-200.000	-0.029	-0.304
-334.260	-184.023	0.479	0.008
-333.245	78.259	-0.043	0.046
-332.231	103.035	-0.383	-0.446
-331.216	-200.000	-0.048	-0.270
-330.202	310.579	0.012	0.022
-329.187	-200.000	0.036	0.202
-328.172	-18.904	-0.193	0.119
-327.158	127.685	0.141	-0.179
-326.143	-140.768	0.265	-0.027
-325.129	94.935	0.157	-0.177
-324.114	-50.462	0.341	-0.160
-323.099	-200.000	0.029	-0.226
-322.085	-92.895	-0.005	-0.001
-321.070	-200.000	0.016	0.118
-320.056	501.614	0.140	0.322
-319.041	235.305	-0.140	-0.230
-318.026	-176.811	0.442	-0.011
-317.012	-200.000	0.000	0.160
-315.997	-65.426	-0.282	0.113
-314.983	150.646	0.182	0.246
-313.968	800.000	-0.032	-0.096
-312.953	100.857	0.144	0.167
-311.939	-200.000	0.030	0.265
-310.924	77.439	-0.115	0.122
-309.910	800.000	-0.129	-0.383
-308.895	11.160	0.173	0.132
-307.880	-75.666	-0.196	-0.069
-306.866	800.000	0.082	-0.339
-305.851	-200.000	-0.016	-0.620
-304.837	147.992	0.224	0.300
-303.822	-200.000	-0.018	-0.282
-302.807	-200.000	0.012	-0.136
-301.793	259.523	-0.123	0.211
-300.778	-76.255	-0.139	-0.049
-299.764	-118.070	-0.169	0.030
-298.749	305.442	-0.141	0.260
-297.735	168.220	0.144	0.204
-296.720	-200.000	0.014	-0.122
-295.705	246.491	-0.161	0.269
-294.691	145.307	0.132	-0.176
-293.676	-200.000	0.086	-0.403
-292.662	-58.659	0.164	-0.071
-291.647	-165.967	-0.139	0.006
-290.632	61.579	-0.222	0.220
-289.618	-147.839	0.278	-0.023
-288.603	173.570	0.118	0.169
-287.589	-200.000	0.021	0.348
-286.574	2.633	0.383	-0.276
-285.559	-46.374	0.240	-0.117
-284.545	-120.550	-0.335	0.056
-283.530	-200.000	-0.037	0.303
-282.516	366.796	-0.075	0.151
-281.501	-200.000	0.035	0.271
-280.486	329.455	0.118	-0.226
-279.472	-80.903	0.318	-0.105
-278.457	45.937	0.147	0.135
-277.443	-200.000	0.065	-0.517
-276.428	-200.000	0.014	-0.238
-275.413	-52.138	0.133	0.061
-274.399	-200.000	0.027	-0.202
-273.384	252.734	0.142	0.240
-272.370	115.782	0.110	-0.133
-271.355	-54.554	-0.167	-0.075
-270.340	-200.000	-0.011	0.206
-269.326	-81.394	0.264	-0.086
-268.311	800.000	0.042	0.118
-267.297	36.717	-0.089	0.078
-266.282	-64.255	-0.392	-0.158
-265.267	-1.512	0.262	0.183
-264.253	27.083	-0.288	-0.240
-263.238	197.463	0.140	-0.212
-262.224	-16.423	0.039	-0.025
-261.209	5.833	-0.147	-0.108
-260.195	-25.175	-0.188	0.110
-259.180	-98.983	-0.201	-0.051
-258.165	94.290	0.150	0.169
-257.151	132.284	0.080	0.102
-256.136	70.707	-0.159	-0.163
-255.122	-200.000	-0.015	0.205
-254.107	164.623	0.107	0.149
-253.092	-200.000	-0.009	0.160
-252.078	-33.579	-0.142	0.078
-251.063	-200.000	0.017	-0.292
-250.049	-15.197	-0.201	0.128
-249.034	-22.635	0.044	-0.026
-248.019	-200.000	-0.090	0.518
-247.005	-73.689	0.060	-0.022
-245.990	565.006	-0.161	0.386
-244.976	-200.000	0.011	0.449
-243.961	-33.614	-0.266	0.146
-242.946	9.362	-0.500	-0.376
-241.932	-35.873	-0.238	-0.128
-240.917	-67.917	0.076	-0.029
-239.903	-151.980	-0.131	-0.009
-238.888	494.145	-0.066	0.151
-237.873	-107.631	0.171	-0.037
-236.859	-200.000	-0.001	-0.086
-235.844	88.581	-0.022	-0.024
-234.830	-200.000	0.047	-0.403
-233.815	-155.848	-0.228	-0.014
-232.800	-13.922	-0.064	-0.041
-231.786	11.845	0.211	-0.161
-230.771	157.421	-0.149	-0.205
-229.757	646.235	0.137	-0.347
-228.742	-71.304	0.325	-0.121
-227.727	722.728	0.117	-0.309
-226.713	-200.000	0.013	0.120
-225.698	79.600	-0.109	-0.116
-224.684	-11.389	0.080	-0.052
-223.669	-109.269	0.253	0.053
-222.655	164.549	-0.259	0.362
-221.640	-119.593	-0.349	-0.060
-220.625	-153.899	0.369	-0.025
-219.611	505.710	0.105	0.241
-218.596	-200.000	0.068	0.342
-217.582	-45.787	0.338	-0.165
-216.567	250.449	-0.162	0.273
-215.552	800.000	0.088	0.327
-214.538	784.370	-0.075	0.204
-213.523	-53.642	-0.226	0.102
-212.509	200.043	-0.168	-0.256
-211.494	-200.000	-0.063	0.297
-210.479	-106.985	-0.313	-0.069
-209.465	-1.196	0.349	0.244
-208.450	-78.076	-0.344	-0.117
-207.436	-61.520	0.113	0.047
-206.421	-127.319	-0.245	-0.035
-205.406	-106.187	0.120	-0.027
-204.392	476.052	0.046	0.104
-203.377	70.376	0.289	-0.296
-202.363	-166.089	0.190	0.008
-201.348	-101.850	-0.100	-0.024
-200.333	-200.000	0.018	-0.139
-199.319	-38.438	0.117	-0.061
-198.304	333.123	-0.109	-0.208
-197.290	136.056	0.177	-0.228
-196.275	-147.676	-0.283	-0.024
-195.260	800.000	0.029	-0.101
-194.246	127.112	0.136	-0.171
-193.231	54.417	0.157	0.150
-192.217	251.284	-0.063	-0.105
-191.202	-55.388	0.103	-0.046
-190.187	-200.000	0.003	0.096
-189.173	-90.991	-0.046	-0.013
-188.158	235.342	0.100	0.163
-187.144	-176.628	-0.263	-0.007
-186.129	-134.045	0.305	-0.037
-185.114	44.196	-0.179	0.162
-184.100	-98.127	0.049	-0.013
-183.085	122.105	-0.218	-0.270
-182.071	72.438	-0.036	0.037
-181.056	18.051	-0.144	0.114
-180.042	-187.983	-0.067	0.001
-179.027	800.000	-0.078	0.217
-178.012	153.869	-0.190	0.257
-176.998	-200.000	-0.032	-0.284
-175.983	-200.000	0.023	0.219
-174.969	757.505	-0.052	0.139
-173.954	-39.849	-0.326	-0.169
-172.939	181.289	0.072	0.105
-171.925	800.000	0.096	-0.296
-170.910	-111.754	0.154	0.031
-169.896	800.000	0.135	0.515
-168.881	460.999	-0.078	0.172
-167.866	-200.000	-0.016	-0.077
-166.852	217.555	0.220	0.347
-165.837	-200.000	-0.028	-0.171
-164.823	800.000	-0.011	0.041
-163.808	800.000	0.045	-0.126
-162.793	540.403	-0.077	-0.181
-161.779	-200.000	0.026	0.370
-160.764	800.000	-0.059	0.167
-159.750	-112.694	0.217	-0.043
-158.735	49.219	-0.235	0.218
-157.720	337.793	0.082	0.158
-156.706	-112.469	-0.191	-0.038
-155.691	389.332	-0.099	-0.202
-154.677	543.506	-0.082	-0.193
-153.662	-200.000	0.026	-0.192
-152.647	800.000	-0.053	-0.183
-151.633	10.578	0.249	0.188
-150.618	537.720	-0.086	0.202
-149.604	-200.000	-0.006	-0.177
-148.589	60.469	0.179	0.175
-147.574	-142.085	0.042	0.004
-146.560	123.742	0.103	0.127
-145.545	-12.396	-0.136	-0.088
-144.531	-98.764	0.058	-0.015
-143.516	-200.000	0.180	-0.000
-142.502	800.000	-0.024	-0.088
-141.487	103.103	-0.174	0.201
-140.472	-200.000	-0.016	0.335
-139.458	800.000	0.122	0.395
-138.443	188.083	-0.057	0.084
-137.429	-87.450	-0.237	-0.071
-136.414	-8.556	-0.441	0.293
-135.399	240.384	0.024	0.040
-134.385	349.437	-0.107	0.208
-133.370	78.803	-0.207	-0.219
-132.356	83.186	0.063	0.068
-131.341	-142.492	0.418	0.041
-130.326	48.879	0.077	0.071
-129.312	471.189	-0.083	0.184
-128.297	800.000	0.017	-0.062
-127.283	-94.191	0.449	-0.121
-126.268	60.336	0.376	-0.368
-125.253	114.977	-0.160	-0.192
-124.239	800.000	-0.121	0.354
-123.224	-63.273	-0.082	0.034
-122.210	-200.000	-0.013	0.172
-121.195	271.218	0.167	-0.290
-120.180	800.000	0.045	0.147
-119.166	-48.734	-0.170	0.080
-118.151	343.666	-0.111	0.214
-117.137	-124.568	-0.216	0.033
-116.122	85.871	0.256	-0.278
-115.107	448.510	-0.098	-0.213
-114.093	17.439	0.120	0.094
-113.078	7.098	-0.281	0.207
-112.064	-200.000	0.018	0.130
-111.049	115.213	-0.260	-0.313
-110.034	129.996	0.173	-0.218
-109.020	30.099	0.513	-0.432
-108.005	-8.744	-0.258	-0.171
-106.991	199.709	0.054	-0.082
-105.976	46.691	0.264	0.242
-104.962	-163.342	0.233	0.011
-103.947	-69.136	-0.069	-0.026
-102.932	-200.000	0.027	0.211
-101.918	-99.159	0.278	-0.069
-100.903	-49.625	0.018	0.008
-99.889	203.320	-0.142	0.217
-98.874	-170.632	0.518	-0.018
-97.859	577.760	-0.059	-0.142
-96.845	800.000	0.044	0.185
-95.830	-200.000	-0.015	-0.292
-94.816	-129.612	0.161	-0.022
-93.801	24.487	0.220	0.179
-92.786	338.161	-0.078	0.149
-91.772	-200.000	0.033	0.301
-90.757	-49.312	-0.177	-0.083
-89.743	-99.336	0.297	-0.074
-88.728	-38.332	0.097	0.050
-87.713	244.531	0.059	0.098
-86.699	123.719	-0.104	0.128
-85.684	-62.628	0.343	0.140
-84.670	-86.563	0.160	-0.048
-83.655	-80.717	0.392	-0.128
-82.640	12.200	0.367	-0.278
-81.626	314.667	-0.143	0.265
-80.611	256.197	0.160	-0.270
-79.597	50.575	0.303	0.283
-78.582	9.399	0.134	0.100
-77.567	1.238	0.272	-0.192
-76.553	116.225	0.082	-0.099
-75.538	-6.250	0.135	-0.091
-74.524	800.000	-0.055	0.208
-73.509	-26.399	0.409	-0.236
-72.494	-125.662	0.316	-0.047
-71.480	-200.000	-0.054	-0.298
-70.465	-200.000	-0.020	0.095
-69.451	800.000	-0.066	0.203
-68.436	-87.360	0.407	-0.122
-67.422	-200.000	0.030	-0.207
-66.407	27.728	0.154	0.128
-65.392	-38.471	0.325	-0.169
-64.378	-120.716	-0.103	-0.017
-63.363	-131.644	0.091	0.012
-62.349	9.156	-0.244	0.182
-61.334	149.342	-0.733	-0.977
-60.319	156.168	0.243	0.330
-59.305	737.514	-0.343	-0.907
-58.290	148.698	0.779	1.036
-57.276	600.687	0.737	1.801
-56.261	-200.000	96.805	587.520
-55.246	553.641	1386.850	3283.187
-54.232	158.330	2566.873	3506.309
-53.217	113.109	2149.351	2566.034
-52.203	44.234	1607.600	1452.244
-51.188	35.867	1344.531	1164.206
-50.173	32.671	1302.676	1109.152
-49.159	54.733	1349.983	1281.981
-48.144	57.036	1365.967	1310.868
-47.130	35.964	1325.314	1147.967
-46.115	32.428	1307.885	1111.977
-45.100	32.348	1302.845	1107.172
-44.086	32.214	1300.408	1104.273
-43.071	32.207	1298.097	1102.225
-42.057	32.257	1295.621	1100.372
-41.042	32.238	1294.223	1099.027
-40.027	32.305	1292.867	1098.228
-39.013	32.268	1290.892	1096.289
-37.998	32.295	1288.719	1094.560
-36.984	32.332	1287.679	1093.848
-35.969	32.306	1285.626	1091.909
-34.954	32.368	1283.546	1090.457
-33.940	32.367	1282.542	1089.553
-32.925	32.347	1281.566	1088.569
-31.911	32.375	1279.642	1087.050
-30.896	32.439	1277.950	1085.941
-29.881	32.354	1277.456	1084.985
-28.867	32.379	1275.406	1083.346
-27.852	32.408	1273.816	1082.120
-26.838	32.482	1272.340	1081.246
-25.823	32.471	1271.081	1080.075
-24.809	32.412	1270.001	1078.773
-23.794	32.494	1268.460	1077.892
-22.779	32.411	1267.156	1076.264
-21.765	32.328	1266.029	1074.792
-20.750	32.359	1265.007	1074.059
-19.736	32.272	1263.547	1072.281
-18.721	32.320	1261.897	1071.110
-17.706	32.306	1260.899	1070.143
-16.692	32.251	1259.964	1068.991
-15.677	32.206	1258.910	1067.799
-14.663	32.209	1257.738	1066.782
-13.648	32.208	1256.909	1066.028
-12.633	32.307	1255.852	1065.653
-11.619	32.267	1254.836	1064.521
-10.604	32.196	1254.225	1063.559
-9.590	32.257	1253.109	1062.913
-8.575	32.219	1251.900	1061.630
-7.560	32.184	1251.286	1060.870
-6.546	32.218	1250.621	1060.456
-5.531	32.229	1249.350	1059.400
-4.517	32.218	1248.817	1058.846
-3.502	32.262	1247.752	1058.149
-2.487	32.195	1247.001	1057.089
-1.473	32.248	1242.678	1053.682
-0.458	31.018	1228.032	1034.405
0.556	27.759	1210.867	999.160
1.571	24.206	1216.895	984.452
2.586	23.453	1232.339	992.643
3.600	22.687	1220.737	978.962
4.615	16.123	1146.399	884.934
5.629	5.980	1070.284	776.182
6.644	1.835	1050.356	741.524
7.659	1.737	1047.457	738.936
8.673	1.493	1046.336	736.897
9.688	1.387	1045.343	735.623
10.702	1.638	1043.275	735.317
11.717	7.710	1052.136	771.014
12.731	18.021	1066.839	832.192
13.746	23.594	1074.152	865.070
14.761	24.771	1075.405	871.745
15.775	25.010	1074.534	872.123
16.790	24.653	1074.374	870.178
17.804	24.599	1073.119	868.822
18.819	24.755	1073.479	869.797
19.834	24.919	1072.309	869.570
20.848	25.078	1071.753	869.810
21.863	25.070	1071.382	869.396
22.877	24.938	1070.647	868.084
23.892	24.778	1070.427	867.050
24.907	24.901	1069.355	866.701
25.921	24.959	1068.097	865.884
26.936	24.869	1066.859	864.371
27.950	24.838	1065.561	863.094
28.965	24.750	1063.441	860.875
29.980	24.864	1062.282	860.411
30.994	25.058	1061.630	860.739
32.009	24.927	1060.417	859.050
33.023	24.745	1059.200	857.116
34.038	24.776	1058.662	856.755
35.053	24.908	1057.823	856.629
36.067	24.880	1057.259	855.964
37.082	25.163	1055.934	856.168
38.096	25.131	1055.733	855.773
39.111	25.310	1054.991	855.950
40.126	24.958	1053.603	853.074
41.140	24.689	1051.819	850.274
42.155	24.470	1050.518	848.107
43.169	24.555	1049.825	847.876
44.184	24.473	1048.997	846.740
45.199	24.522	1047.689	845.844
46.213	24.492	1046.941	845.022
47.228	24.658	1046.376	845.276
48.242	24.854	1045.504	845.423
49.257	24.858	1044.831	844.826
50.271	25.032	1044.004	844.904
51.286	25.021	1042.989	843.955
52.301	25.001	1042.405	843.311
53.315	24.896	1041.338	841.879
54.330	24.843	1040.752	841.086
55.344	25.012	1039.478	840.770
56.359	24.853	1038.807	839.408
57.374	24.685	1037.862	837.786
58.388	24.812	1036.771	837.423
59.403	24.736	1035.870	836.268
60.417	24.483	1035.269	834.524
61.432	24.618	1034.763	834.675
62.447	24.610	1034.331	834.212
63.461	24.816	1033.321	834.289
64.476	24.580	1032.805	832.699
65.490	24.537	1031.558	831.417
66.505	24.785	1030.611	831.736
67.520	24.678	1030.226	830.852
68.534	24.447	1028.999	828.716
69.549	24.132	1027.943	826.331
70.563	24.275	1026.922	826.102
71.578	24.097	1026.177	824.604
72.593	24.044	1025.284	823.568
73.607	24.067	1025.170	823.509
74.622	24.426	1024.691	824.711
75.636	24.425	1024.446	824.436
76.651	24.390	1023.110	823.129
77.666	24.427	1021.490	821.921
78.680	24.277	1021.271	820.981
79.695	24.453	1020.961	821.471
80.709	24.491	1020.289	821.030
81.724	24.370	1019.627	819.869
82.739	24.554	1018.611	819.825
83.753	24.981	1018.156	821.348
84.768	25.209	1017.392	821.702
85.782	25.304	1016.434	821.287
86.797	25.140	1015.885	820.022
87.812	24.937	1014.669	818.043
88.826	25.124	1013.598	817.957
89.841	25.231	1012.815	817.742
90.855	25.193	1012.059	816.887
91.870	25.163	1011.037	815.852
92.884	25.148	1009.656	814.598
93.899	24.973	1008.907	813.129
94.914	25.188	1007.783	813.126
95.928	25.067	1006.791	811.706
96.943	24.861	1005.313	809.508
97.957	24.580	1004.357	807.396
98.972	24.443	1003.453	805.983
99.987	24.672	1003.093	806.654
101.001	24.809	1002.317	806.579
102.016	24.855	1001.630	806.158
103.030	24.718	1000.870	804.861
104.045	24.794	999.156	803.752
105.060	24.376	998.605	801.359
106.074	24.718	997.889	802.251
107.089	24.993	997.271	802.916
108.103	24.992	996.205	801.979
109.118	24.651	995.342	799.691
110.133	24.556	994.224	798.294
111.147	24.543	992.853	797.068
112.162	24.255	992.265	795.239
113.176	24.556	991.319	795.754
114.191	24.511	990.522	794.840
115.206	24.180	989.730	792.664
116.220	24.214	988.762	791.970
117.235	24.410	987.870	792.053
118.249	24.377	987.092	791.212
119.264	24.151	986.619	789.763
120.279	24.324	985.659	789.692
121.293	24.298	984.752	788.778
122.308	24.351	983.939	788.293
123.322	24.292	982.846	787.088
124.337	24.160	981.513	785.368
125.352	23.568	980.156	781.607
126.366	23.542	979.564	780.950
127.381	24.353	979.545	784.435
128.395	24.864	978.663	785.905
129.410	24.870	977.731	785.113
130.424	24.787	976.924	784.031
131.439	24.794	976.040	783.281
132.454	24.742	975.217	782.324
133.468	24.707	974.101	781.208
134.483	24.998	973.149	781.645
135.497	25.061	972.846	781.608
136.512	25.069	971.822	780.751
137.527	25.035	971.029	779.894
138.541	25.099	970.494	779.674
139.556	25.068	969.713	778.846
140.570	25.152	969.067	778.621
141.585	25.221	968.004	777.996
142.600	24.985	967.174	776.240
143.614	25.351	966.396	777.129
144.629	25.338	965.666	776.417
145.643	25.210	964.609	774.945
146.658	25.095	963.230	773.275
147.673	25.042	962.167	772.126
148.687	24.932	961.130	770.751
149.702	24.901	959.614	769.334
150.716	24.941	959.203	769.107
151.731	25.069	958.846	769.303
152.746	25.220	957.914	769.133
153.760	25.334	957.410	769.150
154.775	25.294	956.945	768.535
155.789	25.187	956.083	767.321
156.804	25.130	955.112	766.228
157.819	25.381	954.072	766.397
158.833	25.470	953.550	766.290
159.848	25.413	952.826	765.399
160.862	25.205	951.326	763.242
161.877	25.209	950.712	762.699
162.892	25.258	949.688	762.018
163.906	25.227	948.411	760.792
164.921	25.244	947.626	760.168
165.935	25.249	946.956	759.586
166.950	25.337	945.723	758.900
167.964	25.187	945.026	757.639
168.979	25.118	943.996	756.455
169.994	25.069	943.651	755.906
171.008	25.207	943.364	756.191
172.023	25.394	941.644	755.531
173.037	25.086	940.885	753.559
174.052	24.755	940.139	751.506
175.067	25.074	939.141	751.982
176.081	25.099	938.681	751.651
177.096	25.100	938.073	751.101
178.110	24.774	937.226	748.991
179.125	24.453	936.742	747.195
180.140	24.628	935.960	747.236
181.154	24.884	935.830	748.139
182.169	25.129	935.619	748.925
183.183	25.309	935.163	749.247
184.198	25.286	933.990	748.147
185.213	25.049	933.534	746.726
186.227	25.313	932.848	747.208
187.242	25.184	932.403	746.251
188.256	25.207	931.772	745.776
189.271	25.321	931.198	745.725
190.286	25.023	929.547	743.099
191.300	24.346	928.524	739.412
192.315	23.612	926.995	735.089
193.329	23.584	926.520	734.532
194.344	24.559	926.770	738.698
195.359	25.055	927.022	740.886
196.373	25.346	925.997	741.200
197.388	24.987	925.927	739.600
198.402	25.083	925.415	739.521
199.417	25.211	924.489	739.245
200.432	24.875	923.618	737.099
201.446	24.784	922.851	736.046
202.461	24.858	922.081	735.669
203.475	23.999	920.759	731.023
204.490	23.234	918.765	726.236
205.504	24.128	919.571	730.479
206.519	24.720	919.304	732.629
207.534	24.862	918.901	732.824
208.548	25.231	918.815	734.202
209.563	24.855	917.762	731.756
210.577	24.891	917.288	731.464
211.592	25.431	916.902	733.296
212.607	25.357	915.970	732.184
213.621	25.291	915.812	731.722
214.636	25.417	914.625	731.223
215.650	25.268	914.167	730.184
216.665	25.307	913.651	729.869
217.680	25.355	912.748	729.275
218.694	24.932	911.347	726.376
219.709	24.779	910.373	724.917
220.723	25.133	910.346	726.263
221.738	25.073	909.510	725.293
222.753	25.182	909.501	725.663
223.767	25.211	908.862	725.202
224.782	25.414	908.629	725.774
225.796	25.392	908.153	725.241
226.811	24.747	906.262	721.067
227.826	24.124	905.109	717.578
228.840	24.287	904.527	717.706
229.855	24.430	904.040	717.834
230.869	24.011	903.147	715.376
231.884	24.365	902.951	716.580
232.899	25.150	903.103	719.792
233.913	24.991	902.529	718.632
234.928	24.904	901.843	717.672
235.942	25.032	901.005	717.455
236.957	24.707	900.109	715.379
237.972	24.569	899.748	714.475
238.986	24.850	898.991	714.934
240.001	24.726	898.845	714.259
241.015	25.031	898.095	714.817
242.030	25.108	897.488	714.578
243.045	25.094	897.132	714.174
244.059	25.253	896.798	714.481
245.074	25.053	896.023	713.002
246.088	24.749	894.539	710.552
247.103	25.021	894.509	711.546
248.117	25.632	894.471	713.876
249.132	25.796	894.181	714.233
250.147	26.039	893.508	714.594
251.161	26.075	893.386	714.578
252.176	25.916	892.675	713.315
253.190	25.947	892.406	713.160
254.205	26.339	891.490	713.913
255.220	26.331	890.974	713.406
256.234	26.111	890.121	711.794
257.249	25.882	889.203	710.092
258.263	25.936	888.933	710.028
259.278	26.056	888.354	709.972
260.293	26.053	887.680	709.360
261.307	25.985	887.327	708.749
262.322	25.856	886.260	707.327
263.336	25.016	884.511	702.575
264.351	24.013	882.476	696.973
265.366	24.321	881.743	697.535
266.380	25.306	882.639	702.037
267.395	25.658	882.364	703.132
268.409	25.556	882.145	702.495
269.424	25.855	881.183	702.835
270.439	26.026	880.296	702.733
271.453	25.879	879.892	701.775
272.468	26.112	879.626	702.406
273.482	26.111	879.416	702.175
274.497	25.786	878.248	699.915
275.512	25.421	877.247	697.640
276.526	25.723	877.520	698.966
277.541	25.954	876.767	699.202
278.555	25.614	876.336	697.480
279.570	25.530	875.240	696.219
280.585	25.697	874.913	696.544
281.599	25.532	874.273	695.335
282.614	25.077	872.713	692.275
283.628	25.106	872.514	692.170
284.643	25.402	872.362	693.129
285.657	25.021	870.832	690.385
286.672	24.625	870.458	688.499
287.687	25.431	870.028	691.203
288.701	25.487	869.330	690.802
289.716	25.181	868.466	688.878
290.730	25.104	868.128	688.255
291.745	24.800	866.932	686.080
292.760	25.117	867.124	687.385
293.774	26.096	867.208	691.142
294.789	26.378	867.069	692.050
295.803	26.400	866.668	691.755
296.818	26.472	865.845	691.310
297.833	26.103	864.517	688.780
298.847	25.839	864.124	687.399
299.862	26.244	863.783	688.612
300.876	26.533	863.632	689.532
301.891	26.336	862.737	688.007
302.906	25.774	862.220	685.396
303.920	26.125	861.400	686.018
304.935	26.326	861.491	686.792
305.949	26.334	860.525	685.991
306.964	25.978	860.135	684.271
307.979	26.091	859.967	684.504
308.993	26.527	859.538	685.756
310.008	26.521	858.709	685.011
311.022	26.250	857.698	683.119
312.037	26.102	857.196	682.100
313.052	25.785	855.900	679.810
314.066	24.881	854.781	675.451
315.081	24.541	854.059	673.539
316.095	25.487	854.237	677.187
317.110	25.980	854.422	679.130
318.125	25.098	852.649	674.347
319.139	24.164	850.978	669.455
320.154	24.071	850.856	668.951
321.168	24.996	851.273	672.696
322.183	25.661	851.580	675.376
323.197	25.976	850.925	675.977
324.212	26.124	850.396	676.054
325.227	26.126	850.217	675.859
326.241	25.950	849.378	674.472
327.256	25.977	848.633	673.921
328.270	25.847	848.116	672.967
329.285	25.666	847.401	671.663
330.300	25.545	846.240	670.231
331.314	25.800	846.320	671.189
332.329	26.132	846.297	672.345
333.343	26.229	845.865	672.304
334.358	26.165	845.754	671.917
335.373	26.322	845.077	671.904
336.387	26.651	844.981	672.990
337.402	26.581	844.947	672.645
338.416	26.553	844.403	672.051
339.431	26.709	844.089	672.320
340.446	26.938	843.737	672.827
341.460	26.830	842.938	671.732
342.475	26.542	842.839	670.525
343.489	26.645	842.433	670.524
344.504	26.817	842.643	671.271
345.519	27.179	841.601	671.716
346.533	27.185	841.111	671.291
347.548	27.091	840.998	670.795
348.562	27.029	840.357	669.995
349.577	26.818	839.790	668.705
350.592	26.958	838.919	668.466
351.606	26.835	838.317	667.474
352.621	26.822	837.464	666.691
353.635	26.705	836.534	665.461
354.650	26.221	834.823	662.266
355.665	25.119	833.583	657.189
356.679	25.638	833.644	659.079
357.694	26.030	833.306	660.189
358.708	25.938	832.522	659.173
359.723	26.393	832.345	660.636
360.738	26.720	831.854	661.383
361.752	26.696	831.879	661.256
362.767	27.082	831.668	662.439
363.781	27.360	830.806	662.704
364.796	27.416	830.994	663.002
365.810	27.474	830.352	662.642
366.825	27.281	829.985	661.587
367.840	27.010	828.850	659.642
368.854	26.727	828.126	657.979
369.869	26.785	827.705	657.795
370.883	26.812	827.316	657.528
371.898	26.751	826.871	656.894
372.913	26.751	826.612	656.629
373.927	26.829	826.136	656.476
374.942	27.069	825.725	656.957
375.956	27.079	825.422	656.697
376.971	27.310	824.936	657.087
377.986	27.545	824.869	657.821
379.000	27.406	823.954	656.535
380.015	27.245	823.293	655.367
381.029	27.237	822.599	654.730
382.044	27.343	822.221	654.750
383.059	27.410	822.055	654.802
384.073	27.369	821.415	654.086
385.088	27.613	820.294	654.014
386.102	27.078	819.905	651.726
387.117	27.205	818.964	651.375
388.132	26.719	818.369	649.106
389.146	26.291	817.026	646.449
390.161	26.789	817.155	648.275
391.175	27.107	817.104	649.314
392.190	26.673	816.062	646.880
393.205	25.314	814.164	640.472
394.219	23.825	812.398	633.723
395.234	23.900	811.880	633.529
396.248	25.456	813.366	640.181
397.263	27.062	813.809	646.194
398.278	26.864	813.742	645.380
399.292	26.637	813.150	644.044
400.307	26.660	812.715	643.724
401.321	26.642	812.431	643.380
402.336	27.104	812.117	644.714
403.350	27.530	812.396	646.391
404.365	27.823	812.268	647.271
405.380	28.087	812.055	647.980
406.394	28.097	811.353	647.397
407.409	27.988	810.994	646.666
408.423	27.978	810.364	646.071
409.438	27.932	810.279	645.785
410.453	28.210	809.244	645.885
411.467	28.169	808.728	645.272
412.482	28.223	808.261	645.029
413.496	28.234	808.000	644.804
414.511	28.038	808.008	644.065
415.526	28.180	807.482	644.088
416.540	27.857	806.627	642.211
417.555	27.735	806.056	641.272
418.569	27.851	805.623	641.279
419.584	27.759	805.417	640.736
420.599	27.544	804.403	639.115
421.613	110.175	1286.176	1458.348
422.628	95.099	1356.379	1458.435
