DTS Sentinel unit serial number:	SN413079Multiplexer serial number:	ORYXHardware model number:	OX4-SRSoftware version number:	ORYX F/W v4.00 Oryx Data Collector v3.7.2.0data status	okinstallation	princeton_trtdifferential loss correction	single-endedforward channel	channel 1reverse channel	N/Adate	2019/09/13time	10:46:35forward acquisition time	60.00reverse acquisition time	0.00gamma	496.2192k internal	0.2320k external	0.2320temperature offset calibration	1.0154default loss term (dB/km)	0.3790temperature slope calibration	1.0000multiplexer offset coefficient	1.0000multiplexer slope coefficient	1.0000fibre end	0.00T internal ref (°C)	31.58T ext. ref 1 (°C)	4.59T ext. ref 2 (°C)	28.32length (m)	temperature (°C)	Stokes	anti-Stokes-747.200	781.702	0.034	-0.095
-746.185	35.332	-0.040	0.036
-745.171	-157.856	-0.306	-0.018
-744.156	-200.000	-0.034	0.175
-743.142	-200.000	-0.018	0.187
-742.127	55.596	-0.289	0.283
-741.112	-61.788	0.127	0.054
-740.098	-95.947	0.290	-0.078
-739.083	226.873	-0.292	-0.479
-738.069	379.754	-0.146	0.303
-737.054	272.369	0.053	-0.094
-736.039	800.000	-0.076	0.246
-735.025	-56.797	-0.150	0.067
-734.010	-159.353	-0.278	0.016
-732.996	-200.000	-0.002	-0.239
-731.981	-200.000	0.001	-0.178
-730.966	-32.781	-0.296	-0.166
-729.952	-73.652	0.150	-0.055
-728.937	411.357	-0.075	-0.161
-727.923	-200.000	0.010	-0.222
-726.908	36.968	-0.258	0.230
-725.894	-150.326	-0.626	-0.049
-724.879	-155.912	-0.310	-0.020
-723.864	-200.000	-0.028	-0.249
-722.850	187.233	-0.096	0.145
-721.835	90.170	0.198	-0.224
-720.821	-200.000	0.062	-0.304
-719.806	8.219	-0.469	-0.356
-718.791	98.089	0.249	0.290
-717.777	92.676	-0.141	-0.161
-716.762	-3.249	-0.087	0.061
-715.748	268.781	-0.054	0.095
-714.733	54.755	-0.162	-0.157
-713.718	-116.167	-0.326	0.061
-712.704	-71.348	0.254	0.096
-711.689	779.012	0.046	-0.127
-710.675	-91.985	-0.143	0.041
-709.660	-200.000	-0.014	-0.229
-708.645	800.000	-0.072	0.243
-707.631	800.000	-0.051	-0.202
-706.616	197.941	0.048	0.075
-705.602	128.463	0.226	-0.291
-704.587	62.840	-0.400	-0.404
-703.572	-200.000	0.015	0.317
-702.558	157.624	0.288	-0.403
-701.543	-200.000	-0.035	-0.338
-700.529	-200.000	-0.046	-0.279
-699.514	-88.322	-0.220	0.066
-698.499	-100.168	-0.385	0.097
-697.485	121.235	-0.092	0.116
-696.470	95.627	-0.123	-0.141
-695.456	98.213	0.207	-0.240
-694.441	64.153	-0.103	0.105
-693.426	-45.468	-0.239	-0.119
-692.412	-137.950	-0.148	0.017
-691.397	-59.644	-0.228	-0.099
-690.383	-128.558	-0.274	0.039
-689.368	369.954	0.134	0.274
-688.354	-93.957	-0.272	-0.076
-687.339	342.506	-0.077	-0.152
-686.324	418.058	-0.189	0.408
-685.310	800.000	0.072	0.253
-684.295	22.049	-0.139	-0.115
-683.281	115.414	0.090	0.111
-682.266	99.125	-0.211	0.246
-681.251	800.000	0.079	-0.238
-680.237	41.294	0.055	-0.050
-679.222	380.665	0.068	0.140
-678.208	141.007	-0.182	-0.242
-677.193	201.426	-0.064	0.099
-676.178	-97.505	0.324	-0.085
-675.164	113.788	-0.078	-0.095
-674.149	-200.000	0.020	0.136
-673.135	172.870	-0.181	0.263
-672.120	800.000	0.059	-0.203
-671.105	79.115	0.134	0.145
-670.091	134.256	0.088	-0.115
-669.076	-129.435	-0.128	0.018
-668.062	32.033	-0.147	-0.128
-667.047	7.195	-0.181	-0.136
-666.032	-49.170	0.292	0.141
-665.018	-126.283	0.191	-0.029
-664.003	800.000	0.023	0.094
-662.989	14.245	0.402	0.316
-661.974	-3.514	0.215	0.151
-660.959	-200.000	0.037	-0.365
-659.945	-200.000	-0.012	-0.064
-658.930	-23.491	0.358	0.216
-657.916	-86.438	0.249	-0.077
-656.901	-189.462	-0.186	0.002
-655.886	195.458	0.278	-0.425
-654.872	163.533	-0.074	0.105
-653.857	300.530	0.082	-0.152
-652.843	112.014	0.092	-0.112
-651.828	648.269	0.040	-0.103
-650.814	-123.719	0.142	0.023
-649.799	98.879	-0.123	0.143
-648.784	-171.586	-0.144	-0.005
-647.770	310.676	0.048	0.091
-646.755	326.444	-0.151	0.290
-645.741	-119.450	-0.327	0.057
-644.726	-75.599	-0.110	0.039
-643.711	557.867	0.035	0.086
-642.697	-200.000	0.005	-0.149
-641.682	-140.212	-0.199	-0.021
-640.668	-141.364	-0.183	0.019
-639.653	424.483	0.074	0.161
-638.638	66.096	-0.071	0.072
-637.624	-20.817	0.005	-0.003
-636.609	-200.000	0.037	-0.230
-635.595	-200.000	-0.016	-0.342
-634.580	-119.601	0.193	0.034
-633.565	-174.392	0.160	-0.005
-632.551	-94.936	-0.094	0.026
-631.536	-154.829	0.114	-0.008
-630.522	124.940	-0.238	-0.301
-629.507	-19.562	-0.229	0.143
-628.492	18.430	0.082	-0.066
-627.478	-200.000	-0.031	-0.156
-626.463	-56.978	0.222	0.099
-625.449	81.061	-0.108	0.117
-624.434	-30.657	-0.116	-0.066
-623.419	800.000	0.072	-0.252
-622.405	800.000	-0.048	-0.191
-621.390	145.586	-0.160	0.215
-620.376	44.239	0.016	-0.015
-619.361	-7.110	0.452	-0.309
-618.346	-86.115	-0.112	-0.035
-617.332	160.645	-0.323	-0.454
-616.317	-75.510	-0.275	0.098
-615.303	-99.766	-0.445	0.112
-614.288	192.503	0.190	0.289
-613.273	-200.000	-0.048	0.309
-612.259	37.430	-0.039	0.035
-611.244	-129.040	-0.098	0.014
-610.230	-85.021	0.160	0.050
-609.215	800.000	-0.075	0.216
-608.201	357.343	0.033	0.067
-607.186	21.539	0.141	0.115
-606.171	-20.861	0.307	0.189
-605.157	-5.577	-0.209	0.144
-604.142	98.768	-0.149	0.172
-603.128	68.075	-0.062	-0.063
-602.113	163.937	0.067	-0.095
-601.098	-44.075	0.263	-0.133
-600.084	12.291	-0.338	-0.262
-599.069	-78.509	-0.322	0.111
-598.055	290.254	0.101	-0.184
-597.040	-83.497	-0.239	0.077
-596.025	-49.707	-0.192	0.092
-595.011	4.185	0.312	0.230
-593.996	-27.658	-0.139	0.081
-592.982	58.481	-0.014	0.013
-591.967	132.904	-0.083	-0.108
-590.952	-200.000	0.034	0.241
-589.938	-200.000	-0.030	-0.261
-588.923	-0.444	0.243	-0.173
-587.909	-200.000	0.002	0.112
-586.894	265.313	-0.260	0.455
-585.879	16.069	0.113	0.089
-584.865	-8.966	-0.184	-0.124
-583.850	800.000	-0.047	-0.161
-582.836	-154.435	-0.639	0.043
-581.821	-200.000	0.001	-0.156
-580.806	-116.011	0.301	-0.056
-579.792	-200.000	-0.022	0.262
-578.777	110.392	0.070	0.085
-577.763	-136.969	0.181	-0.021
-576.748	-103.616	-0.096	0.023
-575.733	447.963	-0.088	0.194
-574.719	112.926	-0.125	-0.152
-573.704	73.026	-0.042	-0.044
-572.690	27.499	0.262	0.221
-571.675	727.985	-0.019	-0.052
-570.661	-54.958	-0.321	-0.145
-569.646	-78.030	-0.234	-0.081
-568.631	102.376	-0.047	-0.055
-567.617	800.000	-0.028	-0.081
-566.602	690.578	0.109	-0.286
-565.588	-105.946	0.195	0.044
-564.573	526.635	-0.051	0.120
-563.558	-71.705	-0.233	0.087
-562.544	-4.708	0.079	0.055
-561.529	13.339	-0.294	-0.229
-560.515	633.614	0.042	0.106
-559.500	8.067	0.157	0.118
-558.485	476.393	0.103	-0.234
-557.471	647.310	-0.063	-0.161
-556.456	-200.000	0.020	-0.195
-555.442	154.665	-0.174	-0.240
-554.427	-85.313	0.243	0.076
-553.412	-200.000	0.024	0.250
-552.398	-109.434	-0.305	-0.065
-551.383	-86.754	-0.111	0.034
-550.369	-200.000	-0.035	-0.229
-549.354	800.000	0.077	0.323
-548.339	52.818	0.081	0.077
-547.325	399.681	-0.146	-0.306
-546.310	-58.030	-0.099	-0.043
-545.296	-73.841	0.132	0.048
-544.281	-127.804	0.176	0.026
-543.266	85.415	0.154	0.169
-542.252	-32.794	-0.352	-0.196
-541.237	-143.917	-0.195	0.018
-540.223	131.705	0.160	0.206
-539.208	486.219	0.094	-0.215
-538.193	-13.943	0.019	-0.013
-537.179	28.860	-0.240	-0.204
-536.164	292.648	-0.156	0.285
-535.150	-71.014	0.406	-0.153
-534.135	-119.152	-0.297	-0.052
-533.121	-200.000	-0.003	0.167
-532.106	191.113	-0.105	0.158
-531.091	214.283	0.056	0.090
-530.077	171.855	-0.132	0.190
-529.062	-200.000	0.017	-0.197
-528.048	-200.000	-0.021	-0.093
-527.033	-200.000	-0.014	0.282
-526.018	-174.135	-0.223	0.007
-525.004	35.864	-0.116	0.102
-523.989	28.526	-0.225	-0.190
-522.975	432.001	0.048	0.105
-521.960	-115.981	0.113	-0.021
-520.945	-200.000	0.004	0.077
-519.931	-92.716	-0.112	0.031
-518.916	-102.561	-0.220	-0.053
-517.902	800.000	0.105	-0.300
-516.887	800.000	0.062	-0.223
-515.872	-118.854	0.280	-0.049
-514.858	-69.663	0.265	0.102
-513.843	186.577	0.184	0.274
-512.829	-176.721	-0.260	0.007
-511.814	219.365	0.118	-0.189
-510.799	-200.000	0.024	-0.314
-509.785	-200.000	-0.015	0.080
-508.770	-91.390	0.178	-0.051
-507.756	126.687	-0.201	-0.255
-506.741	-18.271	-0.200	0.125
-505.726	0.807	-0.151	-0.108
-504.712	-7.064	-0.229	-0.156
-503.697	-156.912	0.286	-0.018
-502.683	-92.195	-0.360	0.102
-501.668	427.136	-0.073	-0.158
-500.653	765.282	-0.174	0.474
-499.639	175.941	0.126	0.183
-498.624	800.000	-0.033	-0.133
-497.610	-64.446	0.115	0.047
-496.595	-74.570	-0.045	0.016
-495.581	-32.705	-0.152	0.085
-494.566	-200.000	0.019	0.252
-493.551	0.604	0.136	0.097
-492.537	-140.131	0.370	0.039
-491.522	-200.000	0.004	0.088
-490.508	426.894	0.092	-0.199
-489.493	-104.390	0.313	0.073
-488.478	-2.172	-0.278	0.195
-487.464	18.893	-0.228	0.183
-486.449	509.264	-0.107	0.249
-485.435	462.089	0.050	0.112
-484.420	-29.409	0.041	0.023
-483.405	-32.229	0.308	0.172
-482.391	-200.000	-0.039	-0.436
-481.376	-122.042	0.407	0.067
-480.362	281.026	0.178	-0.319
-479.347	-61.187	0.231	-0.097
-478.332	221.654	-0.186	-0.300
-477.318	-200.000	-0.028	-0.225
-476.303	567.725	-0.032	0.077
-475.289	-134.829	-0.223	0.027
-474.274	-200.000	-0.054	-0.285
-473.259	-200.000	0.046	0.218
-472.245	-200.000	0.003	-0.088
-471.230	-63.401	0.185	0.076
-470.216	1.938	0.064	-0.046
-469.201	800.000	-0.004	-0.017
-468.186	800.000	0.078	0.235
-467.172	-200.000	-0.008	0.293
-466.157	302.450	-0.147	0.272
-465.143	-75.605	0.429	-0.153
-464.128	20.058	0.282	0.227
-463.113	-69.730	-0.353	-0.135
-462.099	536.936	-0.101	0.239
-461.084	-200.000	-0.019	-0.259
-460.070	103.989	0.253	-0.297
-459.055	-200.000	-0.028	0.439
-458.040	-176.430	0.262	0.007
-457.026	0.106	-0.074	0.052
-456.011	-200.000	0.150	0.001
-454.997	-136.436	-0.115	0.013
-453.982	49.651	-0.243	0.229
-452.968	-200.000	0.020	-0.171
-451.953	-117.214	0.241	0.044
-450.938	-200.000	0.044	-0.221
-449.924	-200.000	-0.002	-0.037
-448.909	-113.972	-0.268	-0.052
-447.895	15.116	0.302	0.236
-446.880	193.185	0.387	0.585
-445.865	-200.000	-0.022	0.213
-444.851	-119.820	0.150	-0.026
-443.836	76.757	0.324	-0.344
-442.822	197.650	0.153	-0.234
-441.807	-200.000	-0.016	0.188
-440.792	98.144	-0.237	0.272
-439.778	800.000	0.060	-0.260
-438.763	-200.000	-0.037	-0.267
-437.749	201.694	-0.165	0.254
-436.734	395.511	-0.031	0.065
-435.719	-174.659	-0.140	0.004
-434.705	-200.000	-0.081	0.508
-433.690	800.000	0.075	-0.245
-432.676	254.596	0.075	0.127
-431.661	310.127	-0.062	0.116
-430.646	1.387	0.136	-0.097
-429.632	-200.000	0.043	-0.199
-428.617	-200.000	0.015	-0.128
-427.603	197.082	-0.092	0.139
-426.588	56.672	0.143	0.139
-425.573	466.498	-0.082	0.183
-424.559	153.736	-0.237	-0.325
-423.544	77.730	0.105	0.112
-422.530	209.215	0.159	0.249
-421.515	103.787	-0.283	-0.332
-420.500	-64.584	0.386	0.157
-419.486	48.474	0.142	0.133
-418.471	210.307	0.242	0.379
-417.457	-87.702	-0.430	0.129
-416.442	-200.000	-0.001	0.244
-415.428	96.684	0.210	0.240
-414.413	-91.639	-0.215	-0.061
-413.398	-127.670	-0.123	0.018
-412.384	5.064	0.237	-0.174
-411.369	50.464	-0.133	0.126
-410.355	526.892	0.030	0.071
-409.340	800.000	0.111	0.403
-408.325	-35.651	-0.039	0.021
-407.311	-100.811	0.123	-0.030
-406.296	-115.965	0.138	0.026
-405.282	564.200	0.118	-0.286
-404.267	-200.000	-0.002	-0.100
-403.252	800.000	0.023	0.084
-402.238	-39.920	0.189	0.098
-401.223	-26.258	0.137	0.080
-400.209	800.000	-0.118	0.388
-399.194	-200.000	0.016	0.098
-398.179	800.000	-0.066	-0.185
-397.165	-95.679	-0.308	0.082
-396.150	-45.977	0.158	0.078
-395.136	-200.000	0.014	-0.120
-394.121	-110.061	0.105	-0.022
-393.106	-85.539	-0.252	-0.078
-392.092	-118.876	0.238	0.042
-391.077	-69.701	-0.188	0.072
-390.063	-200.000	-0.010	-0.090
-389.048	-200.000	0.057	0.253
-388.033	800.000	0.021	0.079
-387.019	630.400	-0.096	-0.241
-386.004	-162.264	-0.107	0.005
-384.990	231.460	-0.188	0.308
-383.975	304.462	0.105	-0.194
-382.960	-136.038	-0.045	-0.005
-381.946	-180.015	-0.216	0.005
-380.931	373.468	0.034	0.069
-379.917	-200.000	-0.016	-0.469
-378.902	156.246	-0.192	-0.264
-377.888	-8.788	0.226	-0.151
-376.873	-200.000	0.027	0.223
-375.858	-42.775	0.042	0.021
-374.844	245.564	0.185	0.310
-373.829	-86.814	-0.226	-0.069
-372.815	116.219	0.105	0.128
-371.800	-200.000	0.015	-0.121
-370.785	47.878	-0.305	0.284
-369.771	36.997	-0.370	-0.326
-368.756	6.386	0.196	-0.145
-367.742	-91.423	-0.272	-0.077
-366.727	-75.245	0.375	0.134
-365.712	151.981	-0.036	-0.048
-364.698	800.000	0.012	-0.051
-363.683	-60.205	-0.296	-0.126
-362.669	-29.398	-0.145	-0.082
-361.654	205.869	-0.126	-0.195
-360.639	-61.717	0.180	-0.075
-359.625	-200.000	0.012	-0.100
-358.610	-138.795	-0.203	0.022
-357.596	2.546	-0.250	-0.180
-356.581	-129.588	-0.338	-0.047
-355.566	208.547	0.143	-0.223
-354.552	-200.000	0.014	-0.285
-353.537	800.000	0.005	-0.017
-352.523	-68.658	-0.203	0.078
-351.508	424.040	-0.080	0.171
-350.493	800.000	0.042	0.126
-349.479	140.157	-0.053	0.070
-348.464	597.368	-0.049	0.122
-347.450	-200.000	0.034	0.293
-346.435	70.419	-0.151	0.155
-345.420	140.646	-0.138	0.182
-344.406	-200.000	0.028	-0.289
-343.391	1.338	0.151	0.108
-342.377	192.821	0.135	0.202
-341.362	42.808	0.158	0.143
-340.348	473.059	0.093	0.208
-339.333	-177.502	0.074	-0.002
-338.318	-200.000	-0.018	-0.172
-337.304	317.857	0.059	-0.112
-336.289	406.835	0.122	0.256
-335.275	383.869	-0.164	0.336
-334.260	-20.878	-0.193	0.118
-333.245	-200.000	0.008	-0.077
-332.231	230.689	-0.058	0.095
-331.216	800.000	-0.022	-0.087
-330.202	383.530	0.194	-0.397
-329.187	-122.827	-0.172	0.028
-328.172	-107.241	-0.215	-0.047
-327.158	-200.000	0.011	-0.494
-326.143	-119.583	0.456	0.079
-325.129	-197.670	-0.460	0.003
-324.114	311.819	-0.176	0.328
-323.099	89.801	0.067	0.075
-322.085	800.000	0.014	-0.046
-321.070	289.681	0.139	-0.252
-320.056	-121.143	0.179	-0.030
-319.041	-200.000	0.014	-0.259
-318.026	-200.000	0.015	-0.158
-317.012	-127.990	0.208	0.030
-315.997	524.901	-0.050	0.116
-314.983	-200.000	0.023	0.147
-313.968	36.868	-0.284	0.250
-312.953	-200.000	-0.052	-0.361
-311.939	-39.866	-0.358	-0.186
-310.924	49.778	0.178	-0.167
-309.910	800.000	0.045	-0.138
-308.895	-200.000	0.028	-0.124
-307.880	45.881	0.090	0.083
-306.866	-200.000	-0.001	0.282
-305.851	-29.565	0.213	0.121
-304.837	-60.218	0.218	0.092
-303.822	-119.982	0.061	0.010
-302.807	49.503	-0.264	-0.247
-301.793	-86.710	0.311	-0.095
-300.778	-109.499	-0.152	-0.032
-299.764	131.493	-0.047	-0.060
-298.749	-200.000	-0.013	-0.192
-297.735	19.626	0.252	0.201
-296.720	-98.303	-0.515	0.131
-295.705	26.607	0.097	0.081
-294.691	364.906	-0.075	-0.149
-293.676	80.252	-0.136	-0.145
-292.662	-200.000	-0.024	0.114
-291.647	-101.725	0.131	-0.032
-290.632	-133.794	-0.188	0.023
-289.618	-39.015	0.274	0.143
-288.603	301.223	0.125	0.229
-287.589	56.647	-0.178	-0.172
-286.574	40.651	-0.095	-0.085
-285.559	-56.325	0.533	-0.235
-284.545	89.407	-0.118	-0.131
-283.530	-79.709	-0.099	-0.033
-282.516	800.000	0.027	-0.093
-281.501	800.000	0.040	-0.174
-280.486	800.000	-0.077	0.311
-279.472	-110.345	0.151	-0.031
-278.457	800.000	0.045	0.151
-277.443	-151.306	0.311	-0.023
-276.428	800.000	-0.083	-0.233
-275.413	541.941	-0.079	-0.188
-274.399	603.757	-0.099	-0.244
-273.384	28.656	-0.272	-0.229
-272.370	84.350	0.127	0.138
-271.355	-32.868	-0.325	0.179
-270.340	-200.000	0.017	-0.199
-269.326	616.314	0.062	0.155
-268.311	-200.000	-0.010	0.310
-267.297	492.753	-0.095	0.215
-266.282	-118.648	0.315	-0.055
-265.267	-131.465	-0.122	0.016
-264.253	144.548	-0.166	-0.220
-263.238	-56.823	-0.168	0.074
-262.224	-58.410	0.057	0.025
-261.209	-115.944	0.206	-0.038
-260.195	122.143	0.199	-0.247
-259.180	-200.000	0.028	0.318
-258.165	-37.468	0.087	-0.046
-257.151	94.765	0.276	-0.312
-256.136	-200.000	-0.009	-0.106
-255.122	-1.715	0.187	-0.131
-254.107	-93.818	0.145	0.040
-253.092	-126.196	0.194	-0.029
-252.078	-47.389	0.108	-0.052
-251.063	110.219	-0.037	0.044
-250.049	698.910	0.027	0.070
-249.034	-200.000	0.049	-0.215
-248.019	-200.000	0.033	0.200
-247.005	170.527	-0.088	0.124
-245.990	524.160	0.054	-0.127
-244.976	409.976	-0.019	-0.039
-243.961	-37.312	0.163	-0.086
-242.946	-200.000	0.030	0.217
-241.932	6.040	0.158	-0.116
-240.917	-200.000	0.041	0.203
-239.903	-94.423	-0.113	0.031
-238.888	800.000	0.038	0.129
-237.873	295.868	0.153	-0.278
-236.859	216.501	-0.071	-0.111
-235.844	800.000	-0.026	-0.071
-234.830	133.334	-0.049	0.063
-233.815	-84.466	-0.153	0.048
-232.800	348.404	0.048	0.093
-231.786	-88.961	0.254	0.075
-230.771	369.501	0.216	-0.433
-229.757	-94.179	0.154	0.042
-228.742	-81.270	-0.324	-0.106
-227.727	-100.507	-0.102	-0.025
-226.713	-200.000	-0.211	0.001
-225.698	547.346	-0.158	0.376
-224.684	781.364	0.144	0.390
-223.669	-65.267	-0.113	0.045
-222.655	-200.000	0.022	-0.240
-221.640	121.370	0.051	0.063
-220.625	-99.445	-0.453	0.113
-219.611	-83.544	0.330	0.104
-218.596	279.684	0.058	-0.102
-217.582	-136.732	0.216	0.025
-216.567	-131.105	0.224	-0.030
-215.552	606.498	0.109	-0.270
-214.538	-200.000	0.017	0.180
-213.523	275.094	-0.087	-0.152
-212.509	132.488	0.065	-0.083
-211.494	-67.291	0.183	0.071
-210.479	99.672	0.137	-0.157
-209.465	160.681	0.145	-0.200
-208.450	-88.230	-0.179	-0.053
-207.436	22.854	-0.085	0.069
-206.421	266.666	-0.114	-0.196
-205.406	-101.935	-0.240	-0.057
-204.392	-152.520	0.286	-0.020
-203.377	-24.990	0.246	0.144
-202.363	800.000	-0.110	-0.356
-201.348	99.926	-0.057	0.066
-200.333	-25.356	0.138	-0.081
-199.319	6.972	-0.212	-0.156
-198.304	664.083	-0.014	-0.035
-197.290	-116.851	0.165	0.030
-196.275	-168.256	-0.133	-0.005
-195.260	112.176	0.068	-0.081
-194.246	-25.574	0.143	0.083
-193.231	-133.792	-0.111	-0.014
-192.217	388.511	0.191	-0.392
-191.202	800.000	-0.062	-0.204
-190.187	280.218	0.130	-0.230
-189.173	256.789	-0.160	0.272
-188.158	25.634	-0.307	0.253
-187.144	554.953	-0.068	0.161
-186.129	314.611	-0.087	0.162
-185.114	792.632	-0.014	-0.039
-184.100	-200.000	0.021	-0.454
-183.085	-89.738	0.150	0.044
-182.071	-200.000	-0.034	-0.170
-181.056	-200.000	0.035	0.166
-180.042	-55.362	0.361	0.160
-179.027	-17.815	0.118	0.073
-178.012	800.000	-0.002	0.007
-176.998	-26.543	-0.063	0.037
-175.983	77.636	0.135	0.142
-174.969	18.625	-0.048	-0.038
-173.954	92.283	-0.168	0.187
-172.939	45.609	0.257	-0.234
-171.925	-162.749	0.153	0.007
-170.910	-41.011	-0.186	-0.095
-169.896	-200.000	0.080	0.446
-168.881	-110.831	0.201	-0.041
-167.866	-200.000	0.020	-0.284
-166.852	322.777	-0.037	-0.070
-165.837	-80.980	0.243	-0.080
-164.823	-154.866	0.087	-0.006
-163.808	537.537	0.097	-0.227
-162.793	71.692	-0.032	0.032
-161.779	800.000	0.091	-0.269
-160.764	-36.751	0.248	0.132
-159.750	82.966	-0.118	0.127
-158.735	-116.077	-0.164	-0.030
-157.720	308.877	0.165	-0.304
-156.706	290.349	-0.088	0.158
-155.691	-104.283	0.267	-0.061
-154.677	136.784	0.174	0.224
-153.662	194.151	-0.158	0.237
-152.647	-47.854	0.115	0.055
-151.633	-200.000	0.073	-0.459
-150.618	-161.036	-0.332	0.017
-149.604	785.408	0.104	0.281
-148.589	276.842	0.047	-0.083
-147.574	169.912	0.242	0.341
-146.560	50.822	-0.243	0.227
-145.545	-118.895	0.254	0.044
-144.531	4.682	0.129	0.093
-143.516	-200.000	-0.008	-0.214
-142.502	800.000	0.072	0.206
-141.487	-9.138	-0.136	-0.090
-140.472	-92.912	0.128	0.035
-139.458	34.007	0.101	0.087
-138.443	46.676	0.132	-0.121
-137.429	-65.360	0.197	0.078
-136.414	60.834	0.164	0.161
-135.399	-6.597	-0.329	0.221
-134.385	60.163	0.249	0.243
-133.370	178.940	-0.147	-0.212
-132.356	-184.827	0.115	-0.002
-131.341	220.925	0.191	-0.302
-130.326	-86.558	0.167	0.051
-129.312	-29.820	-0.250	-0.141
-128.297	-109.461	0.331	0.069
-127.283	2.257	-0.313	-0.223
-126.268	-123.563	0.180	0.028
-125.253	-200.000	-0.062	0.286
-124.239	426.129	0.077	-0.163
-123.224	-200.000	0.013	-0.158
-122.210	-102.177	-0.199	0.047
-121.195	728.436	0.114	0.300
-120.180	800.000	-0.010	-0.029
-119.166	17.953	-0.276	-0.217
-118.151	-147.324	0.321	-0.027
-117.137	-68.861	-0.196	0.075
-116.122	27.963	-0.175	-0.145
-115.107	375.322	-0.050	-0.100
-114.093	800.000	0.027	-0.094
-113.078	-200.000	0.057	-0.291
-112.064	6.702	0.104	0.077
-111.049	-10.846	-0.251	-0.164
-110.034	-55.946	-0.230	-0.101
-109.020	-200.000	-0.012	-0.159
-108.005	320.755	0.201	0.377
-106.991	-200.000	0.015	0.134
-105.976	-49.936	0.135	0.063
-104.962	-200.000	0.000	0.129
-103.947	-72.910	-0.086	0.031
-102.932	633.292	-0.081	0.203
-101.918	-200.000	0.045	0.303
-100.903	-114.663	0.129	-0.024
-99.889	-145.194	0.416	-0.037
-98.874	388.368	-0.045	0.091
-97.859	-28.207	0.166	0.095
-96.845	228.190	-0.096	0.155
-95.830	-200.000	0.001	0.052
-94.816	60.867	-0.160	-0.156
-93.801	186.834	0.220	-0.323
-92.786	-64.214	-0.241	-0.097
-91.772	94.614	0.284	0.318
-90.757	28.501	0.144	0.120
-89.743	202.964	0.133	0.202
-88.728	-65.443	0.187	-0.074
-87.713	-87.956	0.153	-0.045
-86.699	-73.846	0.479	-0.171
-85.684	545.013	0.079	-0.186
-84.670	95.030	0.150	0.168
-83.655	651.187	0.097	0.246
-82.640	186.789	0.059	-0.086
-81.626	-103.189	0.248	-0.058
-80.611	477.458	0.237	0.528
-79.597	-200.000	0.010	0.325
-78.582	352.562	0.106	0.208
-77.567	-200.000	-0.052	-0.266
-76.553	-151.933	0.139	-0.010
-75.538	416.658	0.125	0.263
-74.524	-122.814	-0.133	0.021
-73.509	800.000	0.139	-0.400
-72.494	-100.379	0.183	0.045
-71.480	-165.271	0.263	0.011
-70.465	-52.313	-0.289	0.132
-69.451	-96.818	-0.296	0.076
-68.436	363.033	0.098	0.194
-67.422	89.112	0.175	0.192
-66.407	48.381	0.230	0.212
-65.392	96.843	-0.110	-0.124
-64.378	-200.000	0.042	0.400
-63.363	34.274	-0.145	-0.125
-62.349	-14.103	0.326	0.207
-61.334	211.934	-0.631	-0.978
-60.319	-200.000	0.013	0.400
-59.305	752.211	-0.309	-0.821
-58.290	582.094	0.497	1.200
-57.276	800.000	0.423	1.736
-56.261	-200.000	95.623	597.647
-55.246	639.032	1393.986	3489.112
-54.232	192.394	2587.188	3842.458
-53.217	120.827	2167.208	2652.013
-52.203	44.050	1618.673	1460.221
-51.188	35.112	1353.513	1166.824
-50.173	31.880	1311.887	1111.767
-49.159	54.735	1358.056	1289.034
-48.144	56.658	1374.683	1316.326
-47.130	35.376	1334.397	1151.745
-46.115	31.843	1316.765	1115.506
-45.100	31.594	1312.038	1109.980
-44.086	31.559	1309.681	1107.737
-43.071	31.514	1306.599	1104.816
-42.057	31.382	1304.789	1102.467
-41.042	31.635	1302.799	1102.231
-40.027	31.495	1301.848	1100.560
-39.013	31.471	1299.875	1098.707
-37.998	31.503	1297.899	1097.178
-36.984	31.608	1296.106	1096.232
-35.969	31.593	1294.398	1094.658
-34.954	31.589	1292.581	1093.053
-33.940	31.641	1291.334	1092.261
-32.925	31.830	1289.619	1091.867
-31.911	31.681	1288.715	1090.189
-30.896	31.730	1286.771	1088.786
-29.881	31.739	1285.384	1087.623
-28.867	31.714	1284.214	1086.444
-27.852	31.714	1282.780	1085.190
-26.838	31.787	1280.886	1083.964
-25.823	31.667	1279.845	1082.350
-24.809	31.612	1278.520	1080.869
-23.794	31.697	1277.291	1080.274
-22.779	31.627	1275.823	1078.589
-21.765	31.589	1274.929	1077.569
-20.750	31.684	1273.141	1076.561
-19.736	31.668	1271.818	1075.311
-18.721	31.557	1270.717	1073.697
-17.706	31.475	1270.170	1072.727
-16.692	31.486	1268.577	1071.401
-15.677	31.455	1267.658	1070.402
-14.663	31.541	1266.449	1069.832
-13.648	31.477	1265.350	1068.497
-12.633	31.512	1264.010	1067.522
-11.619	31.477	1263.698	1067.015
-10.604	31.467	1262.796	1066.156
-9.590	31.532	1261.324	1065.237
-8.575	31.399	1260.529	1063.769
-7.560	31.489	1259.690	1063.529
-6.546	31.372	1259.260	1062.457
-5.531	31.495	1257.381	1061.531
-4.517	31.480	1256.453	1060.619
-3.502	31.545	1255.659	1060.275
-2.487	31.567	1255.040	1059.837
-1.473	31.550	1251.103	1056.371
-0.458	30.340	1236.306	1037.083
0.556	28.509	1217.869	997.730
1.571	24.588	1223.294	980.611
2.586	23.378	1237.238	984.980
3.600	22.116	1225.475	968.575
4.615	16.934	1152.718	884.046
5.629	8.705	1078.355	786.655
6.644	4.922	1058.697	753.969
7.659	4.689	1055.519	750.516
8.673	4.385	1054.442	748.219
9.688	4.387	1053.408	747.429
10.702	4.827	1051.695	748.262
11.717	10.227	1059.086	779.526
12.731	18.175	1070.337	826.286
13.746	21.694	1074.783	846.682
14.761	21.973	1073.954	847.303
15.775	21.137	1072.377	841.952
16.790	20.134	1070.889	835.872
17.804	19.313	1069.378	830.666
18.819	19.129	1068.112	828.725
19.834	19.091	1067.314	827.847
20.848	18.952	1066.411	826.404
21.863	18.716	1066.137	824.986
22.877	18.748	1064.860	824.080
23.892	18.649	1064.228	823.043
24.907	18.686	1063.234	822.378
25.921	18.509	1062.521	820.907
26.936	18.578	1061.322	820.236
27.950	18.649	1059.618	819.186
28.965	18.817	1058.060	818.712
29.980	18.764	1057.218	817.733
30.994	18.806	1056.802	817.539
32.009	19.058	1055.186	817.417
33.023	18.996	1054.033	816.154
34.038	18.849	1053.055	814.630
35.053	18.617	1052.377	812.934
36.067	18.759	1050.915	812.403
37.082	18.745	1050.586	812.013
38.096	18.777	1050.190	811.782
39.111	18.786	1049.400	811.143
40.126	18.630	1047.760	809.067
41.140	18.443	1046.315	807.001
42.155	18.135	1045.318	804.713
43.169	18.266	1043.512	803.866
44.184	18.254	1042.787	803.181
45.199	18.320	1041.765	802.630
46.213	18.422	1041.013	802.460
47.228	18.759	1039.982	803.171
48.242	18.775	1039.186	802.558
49.257	18.664	1038.589	801.508
50.271	18.900	1037.437	801.647
51.286	18.803	1036.853	800.674
52.301	18.748	1036.110	799.776
53.315	18.631	1034.702	798.071
54.330	18.416	1033.682	796.217
55.344	18.474	1032.860	795.783
56.359	18.432	1032.130	794.953
57.374	18.511	1030.969	794.357
58.388	18.317	1030.090	792.711
59.403	18.162	1029.600	791.546
60.417	18.115	1029.140	790.902
61.432	18.091	1028.081	789.907
62.447	18.112	1027.201	789.262
63.461	18.150	1026.498	788.825
64.476	18.088	1025.479	787.686
65.490	18.094	1024.694	787.042
66.505	18.146	1023.934	786.626
67.520	18.084	1023.706	786.098
68.534	18.022	1022.796	785.045
69.549	18.075	1021.533	784.249
70.563	18.028	1020.721	783.343
71.578	17.876	1019.967	781.995
72.593	17.812	1019.123	780.988
73.607	17.866	1018.388	780.604
74.622	17.896	1018.194	780.523
75.636	17.931	1017.529	780.103
76.651	18.037	1016.484	779.717
77.666	18.094	1015.936	779.487
78.680	17.988	1015.730	778.775
79.695	17.981	1014.781	777.947
80.709	18.259	1014.624	779.026
81.724	18.252	1013.966	778.417
82.739	18.330	1013.265	778.165
83.753	18.599	1012.763	778.932
84.768	18.927	1012.005	779.769
85.782	19.097	1011.287	779.918
86.797	19.068	1010.155	778.844
87.812	18.698	1009.311	776.451
88.826	18.801	1008.385	776.138
89.841	18.811	1008.043	775.849
90.855	18.984	1006.607	775.456
91.870	18.942	1006.209	774.890
92.884	18.948	1004.676	773.667
93.899	18.986	1004.315	773.494
94.914	19.035	1003.591	773.089
95.928	19.020	1002.320	771.972
96.943	18.869	1001.329	770.463
97.957	18.837	1000.634	769.719
98.972	18.882	999.543	769.010
99.987	19.009	998.481	768.695
101.001	18.879	997.959	767.641
102.016	18.843	996.934	766.627
103.030	18.971	996.235	766.591
104.045	18.880	995.779	765.766
105.060	18.688	994.847	764.129
106.074	18.486	993.643	762.240
107.089	18.412	991.979	760.564
108.103	18.247	991.101	759.091
109.118	18.140	990.223	757.879
110.133	18.107	989.210	756.890
111.147	18.197	988.229	756.473
112.162	18.157	987.871	755.952
113.176	18.245	987.296	755.835
114.191	18.448	986.651	756.172
115.206	18.356	985.584	754.882
116.220	18.327	984.880	754.144
117.235	18.290	983.775	753.070
118.249	18.282	982.649	752.106
119.264	18.284	981.984	751.540
120.279	18.158	981.454	750.517
121.293	18.105	980.604	749.567
122.308	18.049	979.486	748.400
123.322	17.886	978.607	746.949
124.337	17.943	977.598	746.364
125.352	17.997	976.502	745.697
126.366	17.923	975.458	744.511
127.381	18.016	974.137	743.839
128.395	18.082	973.356	743.465
129.410	18.158	972.540	743.106
130.424	18.141	972.311	742.793
131.439	18.326	971.269	742.735
132.454	18.440	970.711	742.737
133.468	18.348	969.778	741.557
134.483	18.419	968.839	741.079
135.497	18.436	968.395	740.749
136.512	18.513	967.306	740.182
137.527	18.444	966.514	739.214
138.541	18.406	965.873	738.496
139.556	18.467	965.703	738.560
140.570	18.604	964.930	738.496
141.585	18.875	963.706	738.657
142.600	18.958	962.746	738.213
143.614	18.870	962.456	737.549
144.629	18.868	961.689	736.883
145.643	18.965	960.535	736.352
146.658	18.742	959.218	734.322
147.673	18.559	958.363	732.822
148.687	18.571	957.351	732.033
149.702	18.439	956.341	730.636
150.716	18.346	955.774	729.741
151.731	18.525	954.954	729.812
152.746	18.419	954.170	728.698
153.760	18.445	954.053	728.652
154.775	18.553	953.569	728.681
155.789	18.695	952.589	728.467
156.804	18.700	951.365	727.490
157.819	18.775	951.408	727.776
158.833	18.904	950.654	727.681
159.848	19.002	949.798	727.373
160.862	18.885	948.733	726.001
161.877	18.493	947.478	723.323
162.892	18.336	946.424	721.791
163.906	18.411	945.592	721.408
164.921	18.280	944.727	720.134
165.935	18.510	943.687	720.244
166.950	18.607	942.785	719.902
167.964	18.592	942.226	719.345
168.979	18.517	941.035	718.057
169.994	18.527	940.552	717.668
171.008	18.711	939.672	717.704
172.023	18.800	938.893	717.415
173.037	18.973	938.720	717.942
174.052	18.890	937.812	716.838
175.067	18.441	936.923	714.226
176.081	18.333	936.227	713.182
177.096	18.463	935.869	713.386
178.110	18.601	934.647	712.966
179.125	18.460	934.779	712.417
180.140	18.639	934.278	712.715
181.154	18.752	934.181	713.047
182.169	18.841	933.753	713.027
183.183	18.962	932.967	712.865
184.198	18.900	931.987	711.799
185.213	18.788	931.503	710.902
186.227	18.966	930.618	710.901
187.242	19.159	930.106	711.243
188.256	19.260	929.515	711.144
189.271	19.145	928.769	710.037
190.286	18.788	927.924	707.856
191.300	18.413	926.772	705.372
192.315	18.295	926.145	704.346
193.329	18.424	925.626	704.418
194.344	18.533	925.129	704.426
195.359	18.606	924.624	704.278
196.373	18.807	923.999	704.564
197.388	19.108	924.118	705.829
198.402	19.151	923.118	705.181
199.417	19.287	922.779	705.413
200.432	19.417	922.299	705.517
201.446	19.426	922.317	705.504
202.461	19.604	921.683	705.685
203.475	19.555	920.634	704.620
204.490	19.145	919.781	702.231
205.504	19.067	918.892	701.173
206.519	18.958	918.502	700.369
207.534	19.083	917.837	700.311
208.548	18.951	916.825	698.937
209.563	18.840	916.406	698.105
210.577	19.092	915.768	698.582
211.592	19.339	914.984	698.925
212.607	19.482	914.293	698.911
213.621	19.427	913.456	697.990
214.636	19.343	912.864	697.136
215.650	19.356	912.122	696.559
216.665	19.405	911.187	695.983
217.680	19.487	911.259	696.304
218.694	19.501	910.436	695.669
219.709	19.489	909.793	695.070
220.723	19.427	908.971	694.133
221.738	19.502	908.003	693.632
222.753	19.495	907.415	693.094
223.767	19.533	907.334	693.122
224.782	19.667	907.042	693.377
225.796	19.721	906.241	692.920
226.811	19.532	905.450	691.496
227.826	19.412	904.480	690.212
228.840	19.410	903.474	689.379
229.855	19.307	903.264	688.745
230.869	19.316	902.246	687.943
231.884	19.323	901.244	687.148
232.899	19.358	900.817	686.898
233.913	19.115	900.166	685.375
234.928	19.016	899.406	684.341
235.942	19.093	898.739	684.078
236.957	19.191	898.408	684.157
237.972	18.991	898.131	683.092
238.986	19.085	897.313	682.783
240.001	19.235	896.392	682.613
241.015	19.292	895.685	682.241
242.030	19.254	895.542	681.922
243.045	19.359	894.685	681.622
244.059	19.429	894.315	681.559
245.074	19.474	893.687	681.197
246.088	19.589	893.078	681.125
247.103	19.705	892.957	681.429
248.117	19.855	892.641	681.719
249.132	20.131	892.251	682.448
250.147	20.249	891.692	682.424
251.161	20.368	890.955	682.268
252.176	20.343	890.240	681.564
253.190	20.340	889.389	680.838
254.205	20.492	888.947	681.037
255.220	20.431	888.468	680.371
256.234	20.281	887.775	679.192
257.249	20.262	887.146	678.578
258.263	20.240	886.529	677.956
259.278	20.332	885.495	677.466
260.293	20.440	885.143	677.560
261.307	20.513	884.424	677.232
262.322	20.395	884.044	676.423
263.336	20.339	883.401	675.654
264.351	20.615	882.345	675.857
265.366	20.501	881.879	674.998
266.380	20.518	881.126	674.427
267.395	20.528	879.743	673.350
268.409	20.208	879.648	671.976
269.424	20.377	878.605	671.776
270.439	20.218	878.354	670.908
271.453	20.233	877.270	670.080
272.468	20.147	877.230	669.655
273.482	20.111	876.801	669.130
274.497	20.088	876.114	668.460
275.512	20.170	875.346	668.129
276.526	20.054	875.078	667.420
277.541	20.250	874.253	667.485
278.555	20.454	873.826	667.882
279.570	20.674	873.528	668.445
280.585	20.679	872.778	667.830
281.599	20.321	871.782	665.635
282.614	20.271	870.776	664.617
283.628	20.337	870.348	664.484
284.643	20.278	870.266	664.138
285.657	20.262	869.058	663.094
286.672	20.324	868.987	663.219
287.687	20.200	868.218	662.099
288.701	20.220	867.660	661.692
289.716	20.388	866.986	661.759
290.730	20.275	866.493	660.895
291.745	20.586	865.774	661.469
292.760	20.558	865.456	661.064
293.774	20.700	864.362	660.709
294.789	20.560	864.340	660.100
295.803	20.496	863.020	658.793
296.818	20.396	862.405	657.886
297.833	20.506	861.661	657.674
298.847	20.413	861.129	656.860
299.862	20.593	860.468	656.977
300.876	20.584	860.032	656.553
301.891	20.713	859.765	656.777
302.906	20.803	859.433	656.805
303.920	21.026	858.986	657.245
304.935	20.956	858.306	656.404
305.949	20.820	857.433	655.167
306.964	20.690	856.986	654.278
307.979	20.545	856.842	653.567
308.993	20.907	855.832	654.097
310.008	20.967	855.433	653.957
311.022	20.866	854.624	652.904
312.037	20.663	854.139	651.715
313.052	20.533	852.994	650.296
314.066	20.412	852.587	649.478
315.081	20.479	852.163	649.346
316.095	20.360	851.640	648.448
317.110	20.387	851.376	648.290
318.125	20.419	850.580	647.746
319.139	20.564	849.613	647.490
320.154	20.536	849.693	647.390
321.168	20.594	849.159	647.141
322.183	20.658	848.221	646.609
323.197	20.595	848.174	646.283
324.212	20.713	847.283	645.984
325.227	20.614	846.685	645.102
326.241	20.759	846.181	645.201
327.256	20.479	846.032	643.992
328.270	20.637	844.826	643.600
329.285	20.615	844.397	643.137
330.300	20.605	843.898	642.661
331.314	20.657	843.758	642.689
332.329	20.856	843.092	642.861
333.343	20.840	842.928	642.622
334.358	20.889	842.214	642.199
335.373	20.868	842.067	641.951
336.387	20.902	841.785	641.805
337.402	20.925	841.760	641.814
338.416	21.002	841.561	641.889
339.431	21.300	841.032	642.527
340.446	21.358	840.637	642.381
341.460	21.411	840.043	642.065
342.475	21.376	839.917	641.783
343.489	21.602	839.448	642.197
344.504	21.503	838.850	641.320
345.519	21.608	838.644	641.488
346.533	21.443	837.783	640.171
347.548	21.232	836.998	638.743
348.562	21.008	836.242	637.291
349.577	20.864	835.937	636.474
350.592	21.050	834.731	636.178
351.606	21.005	833.923	635.344
352.621	21.004	833.568	635.014
353.635	21.033	833.101	634.707
354.650	21.043	832.621	634.320
355.665	21.270	831.646	634.346
356.679	21.245	831.169	633.835
357.694	21.232	830.829	633.472
358.708	21.275	829.934	632.892
359.723	21.169	829.387	632.035
360.738	21.233	828.954	631.881
361.752	21.439	828.196	631.990
362.767	21.469	828.256	632.089
363.781	21.608	827.652	632.072
364.796	21.777	827.188	632.273
365.810	21.871	826.704	632.187
366.825	21.816	826.555	631.818
367.840	21.831	825.776	631.220
368.854	21.568	825.168	629.756
369.869	21.338	825.251	628.933
370.883	21.597	824.354	629.125
371.898	21.776	824.354	629.713
372.913	21.795	824.271	629.660
373.927	21.622	823.621	628.487
374.942	21.724	822.722	628.112
375.956	21.812	822.749	628.392
376.971	21.895	821.857	627.952
377.986	22.113	821.572	628.460
379.000	21.959	821.148	627.530
380.015	22.007	820.152	626.886
381.029	22.090	819.639	626.735
382.044	21.998	819.238	626.041
383.059	22.123	818.593	625.939
384.073	21.807	818.273	624.514
385.088	21.635	817.398	623.180
386.102	21.519	816.753	622.221
387.117	21.662	816.032	622.124
388.132	21.611	815.497	621.478
389.146	21.720	815.154	621.551
390.161	21.891	814.911	621.915
391.175	21.889	814.552	621.580
392.190	21.856	813.657	620.725
393.205	21.698	813.080	619.672
394.219	21.652	812.725	619.182
395.234	21.532	812.236	618.332
396.248	21.687	811.456	618.229
397.263	21.519	811.278	617.446
398.278	21.540	810.932	617.203
399.292	21.435	810.513	616.459
400.307	21.450	809.976	616.049
401.321	21.600	809.360	616.055
402.336	21.597	809.006	615.720
403.350	21.731	808.679	615.887
404.365	21.854	808.260	615.944
405.380	22.163	807.770	616.604
406.394	22.176	807.426	616.331
407.409	22.241	806.895	616.097
408.423	22.225	806.935	616.017
409.438	22.353	806.628	616.179
410.453	22.530	805.863	616.158
411.467	22.431	805.620	615.571
412.482	22.571	805.351	615.802
413.496	22.556	804.915	615.362
414.511	22.447	804.782	614.825
415.526	22.275	804.007	613.576
416.540	22.314	803.628	613.371
417.555	22.481	803.087	613.486
418.569	22.396	802.776	612.895
419.584	22.325	802.394	612.304
420.599	22.387	801.794	612.008
421.613	162.699	1369.804	1794.994
422.628	141.390	1452.567	1795.089
