DTS Sentinel unit serial number:	SN413079Multiplexer serial number:	ORYXHardware model number:	OX4-SRSoftware version number:	ORYX F/W v4.00 Oryx Data Collector v3.7.2.0data status	okinstallation	princeton_trtdifferential loss correction	single-endedforward channel	channel 1reverse channel	N/Adate	2019/09/17time	00:34:35forward acquisition time	60.00reverse acquisition time	0.00gamma	496.2192k internal	0.2324k external	0.2324temperature offset calibration	0.9958default loss term (dB/km)	0.3790temperature slope calibration	1.0000multiplexer offset coefficient	1.0000multiplexer slope coefficient	1.0000fibre end	0.00T internal ref (°C)	29.44T ext. ref 1 (°C)	0.09T ext. ref 2 (°C)	23.93length (m)	temperature (°C)	Stokes	anti-Stokes-747.200	705.498	-0.028	0.074
-746.185	-200.000	0.037	0.183
-745.171	95.831	-0.187	-0.215
-744.156	318.637	0.007	0.013
-743.142	281.777	0.146	-0.264
-742.127	-200.000	-0.036	0.282
-741.112	-39.397	0.417	-0.221
-740.098	800.000	-0.066	0.282
-739.083	20.750	0.204	0.167
-738.069	-200.000	-0.006	0.142
-737.054	-74.182	-0.118	-0.043
-736.039	323.773	-0.008	-0.015
-735.025	-200.000	0.018	0.175
-734.010	5.294	-0.183	0.136
-732.996	774.566	-0.051	0.139
-731.981	-104.647	-0.155	-0.036
-730.966	436.822	-0.111	0.244
-729.952	-34.173	0.274	-0.152
-728.937	800.000	-0.027	-0.097
-727.923	-129.053	0.199	-0.028
-726.908	-30.393	0.135	0.077
-725.894	-200.000	-0.024	0.216
-724.879	-131.466	-0.271	-0.036
-723.864	782.947	0.184	0.508
-722.850	-58.161	0.206	-0.091
-721.835	204.059	-0.099	-0.155
-720.821	28.865	-0.117	0.100
-719.806	236.233	-0.105	-0.175
-718.791	305.799	0.009	0.017
-717.777	-200.000	-0.028	-0.137
-716.762	274.352	0.140	0.250
-715.748	164.360	0.054	0.076
-714.733	26.823	0.022	-0.019
-713.718	800.000	0.083	0.277
-712.704	37.629	-0.057	0.051
-711.689	800.000	0.079	-0.260
-710.675	36.722	-0.091	-0.081
-709.660	-179.900	-0.168	-0.004
-708.645	-127.512	-0.133	-0.019
-707.631	-105.580	-0.085	0.020
-706.616	-32.088	-0.090	0.051
-705.602	-200.000	0.015	0.095
-704.587	183.914	-0.070	-0.105
-703.572	-16.500	0.231	-0.148
-702.558	-43.347	0.276	0.141
-701.543	-200.000	-0.024	-0.299
-700.529	59.652	0.075	0.075
-699.514	262.632	-0.082	-0.143
-698.499	61.829	0.227	-0.227
-697.485	-45.191	-0.058	0.029
-696.470	-102.090	0.063	-0.015
-695.456	96.628	0.073	0.084
-694.441	-200.000	0.014	-0.124
-693.426	538.785	-0.046	0.111
-692.412	-67.846	-0.255	0.100
-691.397	-91.139	0.101	0.029
-690.383	397.898	-0.166	-0.350
-689.368	-37.915	0.133	-0.071
-688.354	-200.000	0.017	-0.257
-687.339	22.325	0.331	0.272
-686.324	-200.000	0.016	-0.078
-685.310	800.000	-0.086	-0.370
-684.295	69.862	-0.065	-0.068
-683.281	54.801	0.126	-0.122
-682.266	-78.113	-0.112	0.039
-681.251	-97.010	0.058	-0.015
-680.237	-78.536	0.054	-0.019
-679.222	-200.000	-0.008	0.093
-678.208	-200.000	0.043	-0.279
-677.193	646.826	0.224	-0.575
-676.178	95.713	-0.202	0.232
-675.164	168.928	0.248	-0.356
-674.149	-200.000	0.010	0.154
-673.135	-68.859	0.225	0.088
-672.120	67.629	0.287	-0.295
-671.105	800.000	0.053	0.193
-670.091	183.436	0.014	-0.022
-669.076	-120.848	0.051	0.009
-668.062	-47.621	-0.269	-0.131
-667.047	15.267	0.175	-0.138
-666.032	106.917	-0.061	-0.073
-665.018	-145.539	0.037	-0.003
-664.003	-78.142	-0.130	-0.045
-662.989	-104.881	-0.420	0.097
-661.974	142.165	-0.191	-0.255
-660.959	800.000	0.027	-0.097
-659.945	-200.000	0.038	-0.297
-658.930	-37.984	0.337	-0.180
-657.916	104.877	-0.035	-0.042
-656.901	800.000	0.041	-0.145
-655.886	-127.591	0.320	0.047
-654.872	-150.392	0.028	0.002
-653.857	13.430	0.138	-0.108
-652.843	-79.192	-0.419	0.143
-651.828	800.000	-0.025	0.082
-650.814	5.467	-0.035	-0.026
-649.799	117.704	0.105	0.130
-648.784	-34.954	-0.119	-0.065
-647.770	-120.426	0.270	0.046
-646.755	-72.841	-0.564	0.209
-645.741	272.138	-0.142	-0.252
-644.726	-200.000	-0.008	0.042
-643.711	-40.046	-0.111	-0.058
-642.697	-82.732	-0.106	-0.035
-641.682	-122.619	0.115	-0.019
-640.668	26.582	0.058	-0.049
-639.653	800.000	-0.019	-0.082
-638.638	-200.000	0.027	-0.359
-637.624	-40.165	-0.360	0.188
-636.609	-179.487	-0.132	0.003
-635.595	549.005	0.200	-0.482
-634.580	157.168	0.241	-0.335
-633.565	497.347	-0.176	-0.408
-632.551	-85.745	0.239	-0.075
-631.536	-200.000	-0.012	0.297
-630.522	-42.571	-0.033	-0.017
-629.507	-96.199	0.184	-0.049
-628.492	-59.343	0.090	0.039
-627.478	-74.857	-0.116	-0.042
-626.463	-57.584	0.147	-0.065
-625.449	-17.805	-0.073	-0.046
-624.434	10.181	0.214	-0.164
-623.419	285.281	-0.210	-0.380
-622.405	449.377	0.152	-0.337
-621.390	-136.395	0.046	-0.005
-620.376	-188.443	0.111	-0.001
-619.361	-68.417	0.068	0.026
-618.346	-36.850	-0.305	0.165
-617.332	800.000	-0.095	-0.317
-616.317	-15.615	0.242	-0.155
-615.303	-9.177	0.076	0.051
-614.288	104.236	-0.247	-0.292
-613.273	247.049	-0.037	-0.063
-612.259	800.000	0.048	0.139
-611.244	224.893	-0.075	0.121
-610.230	-3.387	-0.160	-0.112
-609.215	-105.806	-0.175	0.040
-608.201	-200.000	-0.004	-0.347
-607.186	-121.145	0.292	-0.049
-606.171	-200.000	0.026	0.213
-605.157	2.871	-0.063	0.046
-604.142	-167.362	-0.185	-0.007
-603.128	-200.000	-0.003	-0.061
-602.113	800.000	-0.086	-0.254
-601.098	192.876	-0.124	-0.189
-600.084	1.228	0.227	0.164
-599.069	-146.771	-0.336	-0.029
-598.055	-40.188	0.127	0.067
-597.040	321.211	0.094	-0.179
-596.025	-200.000	-0.003	-0.177
-595.011	-18.452	-0.076	-0.048
-593.996	-200.000	0.053	0.256
-592.982	-143.186	-0.207	0.020
-591.967	-64.116	0.420	0.172
-590.952	194.690	-0.049	-0.075
-589.938	-200.000	-0.043	0.267
-588.923	191.806	-0.041	-0.062
-587.909	800.000	-0.024	-0.088
-586.894	27.638	0.110	-0.093
-585.879	-19.675	-0.075	-0.047
-584.865	308.561	0.231	0.433
-583.850	-132.773	-0.327	0.042
-582.836	-28.067	-0.159	0.092
-581.821	51.132	0.094	0.090
-580.806	-200.000	0.289	-0.000
-579.792	-140.279	-0.133	-0.014
-578.777	219.325	-0.021	-0.034
-577.763	-44.473	-0.179	-0.090
-576.748	93.741	-0.062	-0.071
-575.733	51.453	-0.195	-0.186
-574.719	-200.000	0.036	-0.352
-573.704	-63.731	-0.054	-0.022
-572.690	-21.333	0.198	0.121
-571.675	414.347	-0.140	-0.299
-570.661	34.527	0.188	-0.164
-569.646	763.699	0.147	0.400
-568.631	-42.014	0.272	0.140
-567.617	-60.784	0.291	-0.123
-566.602	-7.199	-0.325	-0.221
-565.588	-85.056	-0.228	0.071
-564.573	800.000	0.040	0.166
-563.558	-52.226	-0.089	0.041
-562.544	-142.506	0.183	-0.018
-561.529	3.579	0.148	-0.108
-560.515	-200.000	-0.171	-0.001
-559.500	-200.000	-0.008	-0.148
-558.485	-68.395	0.098	0.038
-557.471	-200.000	0.011	0.130
-556.456	-73.174	-0.188	0.069
-555.442	-121.377	0.182	0.030
-554.427	-200.000	0.009	-0.088
-553.412	-159.712	0.312	-0.017
-552.398	-112.144	-0.137	-0.028
-551.383	-85.586	-0.251	0.078
-550.369	161.285	0.109	-0.152
-549.354	-200.000	-0.018	-0.308
-548.339	513.826	0.133	0.311
-547.325	-2.440	0.063	0.044
-546.310	-33.775	-0.162	0.090
-545.296	173.538	-0.153	-0.221
-544.281	139.570	0.121	-0.160
-543.266	-41.184	-0.072	-0.037
-542.252	35.179	0.067	-0.059
-541.237	-200.000	-0.029	-0.254
-540.223	-2.093	-0.057	-0.040
-539.208	-98.659	-0.087	0.022
-538.193	-7.189	-0.324	0.220
-537.179	-157.677	-0.247	-0.015
-536.164	89.080	-0.199	-0.222
-535.150	800.000	0.082	0.333
-534.135	165.568	0.207	0.293
-533.121	244.906	-0.072	-0.121
-532.106	-200.000	0.050	-0.292
-531.091	-98.559	0.061	-0.015
-530.077	53.354	0.234	0.225
-529.062	113.308	-0.046	-0.055
-528.048	-200.000	-0.031	-0.274
-527.033	800.000	-0.117	0.409
-526.018	-54.497	0.219	-0.099
-525.004	-68.152	-0.205	-0.080
-523.989	-200.000	0.036	0.214
-522.975	-27.442	-0.233	-0.136
-521.960	183.074	-0.164	0.243
-520.945	331.863	0.069	-0.134
-519.931	251.192	0.188	-0.320
-518.916	203.425	-0.159	0.246
-517.902	-58.599	-0.377	-0.164
-516.887	800.000	-0.028	-0.118
-515.872	-200.000	0.020	0.155
-514.858	-86.128	0.069	0.021
-513.843	-32.266	-0.314	-0.175
-512.829	800.000	-0.135	-0.392
-511.814	481.780	-0.034	-0.077
-510.799	105.802	0.223	-0.264
-509.785	119.222	-0.165	-0.204
-508.770	371.726	0.018	-0.037
-507.756	-200.000	-0.031	0.197
-506.741	-5.387	-0.146	0.100
-505.726	-49.162	0.259	0.124
-504.712	86.534	0.116	0.128
-503.697	83.896	-0.245	0.268
-502.683	480.091	-0.077	-0.175
-501.668	3.949	-0.310	-0.227
-500.653	-153.529	-0.140	-0.010
-499.639	-171.507	0.301	-0.010
-498.624	15.300	-0.119	-0.093
-497.610	686.131	0.038	-0.099
-496.595	-31.364	-0.097	-0.055
-495.581	-66.944	-0.219	0.086
-494.566	464.056	0.196	0.438
-493.551	-13.688	0.079	0.051
-492.537	-38.928	0.347	-0.182
-491.522	-200.000	0.009	-0.113
-490.508	149.458	0.058	-0.079
-489.493	-125.886	0.241	-0.036
-488.478	-21.594	0.258	-0.157
-487.464	-200.000	-0.009	0.287
-486.449	-138.526	-0.043	0.005
-485.435	-4.054	0.253	-0.175
-484.420	800.000	0.044	0.137
-483.405	-94.534	0.364	0.099
-482.391	-109.795	-0.070	0.015
-481.376	-150.453	-0.275	-0.021
-480.362	-200.000	-0.002	0.018
-479.347	-23.106	-0.225	0.135
-478.332	-130.263	-0.264	0.036
-477.318	-19.146	0.227	-0.141
-476.303	-200.000	0.077	-0.342
-475.289	-200.000	0.003	-0.036
-474.274	800.000	-0.054	0.153
-473.259	-44.733	-0.094	0.047
-472.245	701.802	-0.044	0.117
-471.230	-50.248	0.223	-0.105
-470.216	483.835	0.079	-0.179
-469.201	-184.111	-0.185	0.003
-468.186	-127.828	0.298	0.043
-467.172	180.839	-0.083	0.122
-466.157	800.000	0.148	0.418
-465.143	800.000	0.118	0.475
-464.128	-136.829	0.136	0.016
-463.113	-200.000	0.057	-0.293
-462.099	40.630	0.172	-0.154
-461.084	-200.000	-0.025	0.226
-460.070	-66.582	-0.243	0.096
-459.055	-71.057	0.156	0.058
-458.040	685.605	-0.188	-0.491
-457.026	26.939	-0.147	-0.123
-456.011	-148.054	-0.347	-0.029
-454.997	-94.816	-0.451	-0.122
-453.982	127.022	-0.274	0.347
-452.968	25.574	0.215	-0.178
-451.953	-200.000	-0.004	0.311
-450.938	-24.248	-0.143	0.085
-449.924	-133.721	-0.284	0.035
-448.909	-153.973	0.431	0.029
-447.895	-200.000	-0.020	0.133
-446.880	12.544	-0.160	-0.124
-445.865	800.000	0.111	0.419
-444.851	-200.000	0.025	0.132
-443.836	-200.000	0.037	-0.193
-442.822	-200.000	0.005	0.057
-441.807	-132.188	-0.221	-0.029
-440.792	800.000	0.077	-0.218
-439.778	54.049	0.090	0.086
-438.763	-100.386	0.127	-0.031
-437.749	-137.193	-0.090	0.010
-436.734	176.670	0.268	-0.389
-435.719	32.050	0.220	-0.189
-434.705	25.302	0.051	-0.042
-433.690	-167.596	-0.260	0.010
-432.676	429.941	0.042	-0.091
-431.661	-200.000	-0.004	0.095
-430.646	-90.514	-0.130	0.037
-429.632	-83.061	0.391	0.126
-428.617	97.258	0.120	0.138
-427.603	-200.000	-0.009	-0.544
-426.588	26.477	-0.172	-0.144
-425.573	307.758	0.139	0.259
-424.559	242.812	-0.145	0.242
-423.544	18.642	-0.194	0.155
-422.530	800.000	-0.071	-0.209
-421.515	-59.639	0.249	-0.106
-420.500	259.085	0.112	0.192
-419.486	-37.075	-0.251	-0.134
-418.471	-62.104	-0.117	-0.049
-417.457	-200.000	0.020	0.363
-416.442	694.914	0.094	-0.246
-415.428	-154.415	0.390	0.026
-414.413	-200.000	0.022	-0.157
-413.398	-124.025	-0.265	-0.041
-412.384	-200.000	0.026	0.167
-411.369	8.722	-0.068	0.051
-410.355	-200.000	0.027	0.207
-409.340	800.000	0.089	0.348
-408.325	61.669	0.149	-0.148
-407.311	253.206	0.138	-0.235
-406.296	238.190	0.266	0.439
-405.282	80.229	-0.074	0.080
-404.267	304.671	0.070	0.129
-403.252	-200.000	-0.038	0.194
-402.238	-200.000	-0.011	0.310
-401.223	-70.504	0.166	0.062
-400.209	61.236	0.042	0.042
-399.194	-138.993	0.134	0.014
-398.179	41.431	0.026	-0.023
-397.165	-163.937	0.404	-0.019
-396.150	-200.000	-0.018	0.175
-395.136	136.535	0.118	-0.154
-394.121	135.742	-0.121	-0.156
-393.106	-200.000	-0.001	0.290
-392.092	21.442	0.228	0.185
-391.077	-200.000	-0.004	0.288
-390.063	64.566	-0.082	-0.083
-389.048	-104.248	-0.206	-0.048
-388.033	101.022	0.210	0.244
-387.019	353.030	-0.139	-0.275
-386.004	-131.625	0.110	0.014
-384.990	800.000	-0.030	0.112
-383.975	-200.000	0.017	0.246
-382.960	68.595	0.236	0.241
-381.946	-43.508	-0.040	-0.020
-380.931	-159.006	0.369	-0.021
-379.917	-95.661	0.102	-0.027
-378.902	-200.000	-0.027	0.277
-377.888	226.049	-0.085	0.138
-376.873	26.321	-0.169	0.141
-375.858	-200.000	0.064	0.417
-374.844	26.613	0.098	-0.081
-373.829	800.000	-0.081	0.232
-372.815	79.305	0.130	0.139
-371.800	41.763	0.221	-0.199
-370.785	37.004	-0.094	-0.083
-369.771	-200.000	0.007	-0.109
-368.756	117.592	0.118	0.144
-367.742	-200.000	-0.012	0.203
-366.727	195.303	-0.222	-0.336
-365.712	221.578	-0.089	-0.142
-364.698	212.023	0.020	-0.031
-363.683	800.000	0.069	-0.287
-362.669	343.440	0.087	0.170
-361.654	-99.738	-0.222	-0.055
-360.639	-111.624	0.186	0.037
-359.625	-72.863	0.481	0.176
-358.610	-8.426	0.069	-0.046
-357.596	-200.000	-0.042	-0.231
-356.581	-113.025	0.337	-0.066
-355.566	-200.000	-0.022	-0.366
-354.552	436.561	0.199	-0.432
-353.537	72.042	-0.216	0.224
-352.523	-39.964	0.093	-0.048
-351.508	182.894	-0.236	0.347
-350.493	452.684	-0.073	-0.161
-349.479	48.762	0.198	-0.185
-348.464	463.959	-0.133	-0.297
-347.450	101.389	0.242	-0.280
-346.435	-108.641	-0.454	0.097
-345.420	-1.877	0.079	0.055
-344.406	-73.733	0.318	-0.115
-343.391	795.461	0.135	-0.370
-342.377	-22.829	-0.327	-0.196
-341.362	124.645	-0.261	0.327
-340.348	-200.000	0.004	-0.354
-339.333	107.939	0.212	0.251
-338.318	800.000	0.090	0.318
-337.304	134.908	-0.201	0.259
-336.289	146.732	0.035	0.046
-335.275	-54.782	-0.193	0.087
-334.260	20.980	-0.213	0.171
-333.245	66.747	-0.178	-0.179
-332.231	196.913	-0.073	0.111
-331.216	-3.027	0.169	-0.117
-330.202	2.865	-0.101	-0.073
-329.187	-136.748	-0.430	0.049
-328.172	-102.566	-0.012	-0.003
-327.158	95.696	-0.019	0.022
-326.143	309.049	0.084	0.156
-325.129	11.767	0.160	0.122
-324.114	40.068	0.115	0.103
-323.099	22.742	0.098	-0.080
-322.085	-159.226	0.546	-0.030
-321.070	800.000	0.037	-0.146
-320.056	158.773	-0.160	-0.221
-319.041	800.000	-0.105	0.357
-318.026	-33.844	-0.134	0.073
-317.012	270.151	0.063	-0.111
-315.997	-153.778	-0.317	-0.022
-314.983	800.000	-0.073	0.306
-313.968	460.741	-0.211	-0.467
-312.953	-44.692	-0.282	0.140
-311.939	297.243	0.058	-0.105
-310.924	28.294	-0.184	0.154
-309.910	66.181	0.298	-0.300
-308.895	295.783	-0.107	-0.194
-307.880	-90.546	-0.172	-0.049
-306.866	236.786	-0.180	-0.295
-305.851	111.141	-0.131	-0.156
-304.837	99.396	-0.057	-0.066
-303.822	135.111	-0.090	0.116
-302.807	800.000	0.101	0.298
-301.793	-92.884	0.328	-0.091
-300.778	-200.000	-0.026	-0.204
-299.764	2.212	-0.293	-0.210
-298.749	116.582	-0.032	-0.038
-297.735	87.663	-0.239	0.263
-296.720	704.336	-0.080	0.211
-295.705	-4.526	0.493	0.338
-294.691	-155.685	-0.150	-0.010
-293.676	565.292	-0.173	0.417
-292.662	749.631	-0.080	0.214
-291.647	-95.945	-0.099	0.026
-290.632	-70.165	0.200	0.075
-289.618	-27.109	0.152	0.088
-288.603	800.000	-0.083	-0.239
-287.589	-100.259	0.041	0.010
-286.574	175.538	-0.086	0.124
-285.559	800.000	-0.026	0.072
-284.545	635.141	0.262	0.658
-283.530	-163.562	0.197	-0.009
-282.516	151.697	0.032	-0.043
-281.501	-9.989	0.362	-0.238
-280.486	-200.000	0.004	-0.220
-279.472	-200.000	0.020	-0.158
-278.457	-200.000	-0.023	-0.326
-277.443	-83.634	0.058	0.018
-276.428	-200.000	-0.019	0.210
-275.413	214.082	0.138	-0.216
-274.399	-14.071	-0.134	0.086
-273.384	129.832	-0.129	-0.163
-272.370	228.726	-0.110	-0.177
-271.355	-200.000	-0.054	0.299
-270.340	-73.554	0.359	-0.130
-269.326	-200.000	0.002	0.165
-268.311	79.146	0.069	-0.073
-267.297	-63.839	0.237	0.096
-266.282	492.358	0.145	-0.329
-265.267	-200.000	-0.048	-0.321
-264.253	-59.699	-0.336	-0.143
-263.238	146.465	-0.054	-0.072
-262.224	-49.602	-0.208	0.098
-261.209	-93.832	-0.196	-0.053
-260.195	-111.329	-0.276	-0.056
-259.180	624.719	0.044	0.110
-258.165	-120.225	0.333	-0.056
-257.151	75.511	0.150	-0.157
-256.136	141.496	0.085	-0.111
-255.122	411.836	0.132	-0.278
-254.107	135.399	-0.147	-0.190
-253.092	478.330	0.097	-0.218
-252.078	594.350	-0.052	0.128
-251.063	800.000	-0.107	0.418
-250.049	-39.508	-0.271	-0.140
-249.034	800.000	0.063	-0.183
-248.019	-108.575	-0.145	0.031
-247.005	169.408	0.251	0.354
-245.990	-200.000	-0.022	0.182
-244.976	800.000	0.066	-0.264
-243.961	-68.878	0.196	0.075
-242.946	-133.070	-0.305	-0.038
-241.932	-200.000	-0.011	0.067
-240.917	-185.771	0.084	-0.001
-239.903	-29.075	0.239	0.136
-238.888	-200.000	-0.007	0.117
-237.873	-86.904	0.142	-0.043
-236.859	-146.602	0.598	0.051
-235.844	-150.683	-0.198	0.015
-234.830	800.000	0.021	0.083
-233.815	-51.087	0.248	0.115
-232.800	39.325	-0.209	0.185
-231.786	246.836	0.047	0.078
-230.771	48.354	-0.237	0.220
-229.757	160.769	-0.006	0.008
-228.742	-200.000	0.102	-0.443
-227.727	800.000	0.065	0.236
-226.713	348.597	-0.048	0.093
-225.698	-55.419	-0.217	-0.096
-224.684	-28.248	-0.178	0.102
-223.669	-40.914	-0.130	-0.067
-222.655	2.298	-0.236	0.169
-221.640	-9.130	0.032	0.021
-220.625	264.183	-0.130	0.224
-219.611	-159.130	0.065	-0.004
-218.596	-200.000	-0.017	0.318
-217.582	272.898	0.241	-0.421
-216.567	-76.932	0.073	-0.025
-215.552	626.941	0.083	0.206
-214.538	-200.000	0.011	-0.064
-213.523	-188.574	-0.149	-0.002
-212.509	-200.000	-0.024	0.124
-211.494	301.271	-0.108	0.198
-210.479	-200.000	-0.017	-0.410
-209.465	53.858	0.078	-0.074
-208.450	569.729	-0.017	0.041
-207.436	-84.971	0.292	-0.091
-206.421	-126.605	-0.272	0.040
-205.406	78.818	0.175	-0.185
-204.392	-200.000	-0.005	-0.151
-203.377	-134.377	0.305	-0.037
-202.363	-115.333	0.179	0.033
-201.348	-4.057	-0.169	-0.116
-200.333	-128.820	-0.246	0.034
-199.319	-117.236	0.023	-0.004
-198.304	170.580	0.046	-0.066
-197.290	-200.000	0.000	0.013
-196.275	-200.000	-0.034	0.382
-195.260	109.342	-0.054	-0.064
-194.246	339.715	-0.132	0.255
-193.231	108.255	0.340	0.401
-192.217	595.309	0.106	0.260
-191.202	-78.442	-0.113	0.038
-190.187	-169.349	0.030	-0.001
-189.173	182.822	0.133	0.193
-188.158	-117.489	-0.112	0.020
-187.144	740.104	-0.172	0.457
-186.129	-200.000	0.057	0.345
-185.114	-153.629	0.121	0.008
-184.100	432.826	-0.108	0.230
-183.085	-19.081	-0.030	-0.018
-182.071	800.000	0.059	0.175
-181.056	-200.000	-0.010	-0.051
-180.042	-123.020	-0.169	-0.027
-179.027	148.330	0.212	-0.283
-178.012	-108.348	0.177	0.038
-176.998	151.912	-0.189	0.255
-175.983	434.350	-0.042	0.091
-174.969	363.121	-0.090	-0.179
-173.954	61.114	-0.301	-0.295
-172.939	-200.000	-0.057	-0.277
-171.925	-7.000	0.054	0.036
-170.910	-161.173	-0.440	0.023
-169.896	-200.000	0.051	0.295
-168.881	-108.850	0.037	-0.008
-167.866	-103.146	0.035	-0.008
-166.852	-200.000	0.046	0.244
-165.837	70.322	-0.249	0.254
-164.823	96.737	-0.160	0.181
-163.808	436.074	0.084	-0.180
-162.793	-2.359	0.190	-0.131
-161.779	-200.000	0.022	-0.200
-160.764	324.067	-0.088	0.165
-159.750	277.952	-0.104	-0.183
-158.735	-200.000	0.002	-0.021
-157.720	112.919	0.086	-0.103
-156.706	-40.900	0.135	0.069
-155.691	67.349	0.166	0.167
-154.677	800.000	0.069	-0.215
-153.662	-68.342	0.247	0.095
-152.647	-37.713	-0.160	-0.084
-151.633	18.489	-0.131	-0.103
-150.618	580.968	-0.243	0.587
-149.604	385.087	0.084	0.171
-148.589	-200.000	0.009	0.088
-147.574	42.042	0.220	0.197
-146.560	-200.000	-0.031	0.146
-145.545	-93.886	-0.352	0.095
-144.531	-200.000	0.013	0.071
-143.516	-200.000	-0.030	0.224
-142.502	93.174	0.109	0.121
-141.487	-127.453	0.116	-0.017
-140.472	-35.073	0.183	-0.098
-139.458	-2.385	0.329	-0.228
-138.443	213.249	0.159	-0.247
-137.429	-134.022	-0.493	-0.060
-136.414	-200.000	0.006	0.049
-135.399	-200.000	-0.000	0.066
-134.385	-18.087	0.276	0.171
-133.370	-40.521	0.043	0.022
-132.356	386.214	0.124	-0.253
-131.341	-83.907	-0.220	-0.069
-130.326	-152.696	-0.176	-0.012
-129.312	-11.006	0.225	0.146
-128.297	-196.096	0.208	0.001
-127.283	-200.000	-0.022	-0.126
-126.268	-17.752	-0.209	-0.129
-125.253	-143.712	-0.157	0.015
-124.239	-42.727	-0.294	-0.148
-123.224	-12.151	0.146	-0.094
-122.210	23.832	-0.075	0.061
-121.195	-29.470	0.194	0.109
-120.180	-200.000	-0.001	0.165
-119.166	-200.000	-0.059	0.367
-118.151	9.727	0.110	0.082
-117.137	-185.007	-0.167	-0.003
-116.122	-200.000	0.032	-0.269
-115.107	-116.046	0.085	0.016
-114.093	-143.294	-0.057	-0.005
-113.078	-200.000	0.085	0.379
-112.064	-21.619	0.175	0.105
-111.049	-64.769	-0.109	0.043
-110.034	204.226	0.030	-0.046
-109.020	-145.232	0.339	-0.030
-108.005	-200.000	0.009	0.308
-106.991	800.000	0.022	0.091
-105.976	252.192	0.076	0.128
-104.962	-128.285	-0.023	-0.003
-103.947	-6.919	-0.162	-0.109
-102.932	307.686	-0.016	0.029
-101.918	-200.000	-0.124	0.000
-100.903	267.803	0.237	-0.409
-99.889	232.427	0.075	-0.121
-98.874	800.000	0.085	0.239
-97.859	-200.000	0.021	-0.135
-96.845	277.879	0.162	-0.284
-95.830	530.302	-0.117	0.272
-94.816	91.760	0.199	-0.220
-93.801	-45.695	-0.222	0.108
-92.786	-84.729	0.289	-0.089
-91.772	27.435	0.064	-0.053
-90.757	-27.583	-0.135	0.077
-89.743	355.446	-0.063	0.123
-88.728	-200.000	0.016	0.401
-87.713	800.000	0.043	-0.158
-86.699	-200.000	0.036	-0.184
-85.684	51.029	-0.081	0.075
-84.670	536.407	-0.024	-0.055
-83.655	607.877	-0.047	0.116
-82.640	-140.320	0.305	-0.031
-81.626	2.419	0.333	0.237
-80.611	-74.173	0.350	-0.125
-79.597	-54.167	-0.252	0.113
-78.582	800.000	-0.046	0.142
-77.567	-200.000	-0.009	-0.188
-76.553	324.294	-0.177	-0.333
-75.538	388.335	0.110	-0.224
-74.524	-200.000	0.203	0.001
-73.509	-165.835	-0.194	-0.008
-72.494	-200.000	-0.054	0.269
-71.480	112.443	-0.280	0.333
-70.465	-200.000	-0.124	-0.588
-69.451	91.736	-0.046	-0.051
-68.436	-124.790	0.132	0.020
-67.422	-200.000	-0.019	0.299
-66.407	-41.743	0.143	0.072
-65.392	370.298	0.165	-0.328
-64.378	376.425	0.134	-0.269
-63.363	-200.000	-0.038	-0.381
-62.349	370.099	0.120	0.238
-61.334	52.486	-1.066	-1.001
-60.319	9.939	0.845	0.631
-59.305	-200.000	-0.294	-1.300
-58.290	323.193	0.593	1.111
-57.276	212.571	0.716	1.110
-56.261	-200.000	108.739	595.648
-55.246	443.566	1487.954	3205.585
-54.232	146.207	2667.155	3516.725
-53.217	105.695	2154.760	2503.335
-52.203	40.659	1604.669	1421.008
-51.188	32.908	1346.059	1145.155
-50.173	29.800	1305.365	1092.177
-49.159	54.578	1360.085	1287.924
-48.144	54.659	1375.509	1302.968
-47.130	33.074	1330.283	1132.554
-46.115	29.624	1312.449	1096.881
-45.100	29.438	1307.708	1091.778
-44.086	29.390	1304.805	1089.024
-43.071	29.385	1302.687	1087.184
-42.057	29.349	1300.716	1085.285
-41.042	29.283	1299.013	1083.437
-40.027	29.285	1297.204	1081.896
-39.013	29.294	1295.579	1080.549
-37.998	29.389	1293.630	1079.437
-36.984	29.447	1291.960	1078.341
-35.969	29.424	1290.379	1076.840
-34.954	29.443	1288.649	1075.467
-33.940	29.453	1287.051	1074.147
-32.925	29.523	1286.136	1073.748
-31.911	29.543	1284.228	1072.232
-30.896	29.623	1282.897	1071.540
-29.881	29.583	1281.961	1070.485
-28.867	29.620	1280.258	1069.232
-27.852	29.595	1278.881	1067.897
-26.838	29.564	1277.641	1066.641
-25.823	29.530	1276.219	1065.212
-24.809	29.479	1275.033	1063.890
-23.794	29.482	1273.780	1062.818
-22.779	29.394	1272.659	1061.335
-21.765	29.537	1270.723	1060.497
-20.750	29.497	1269.891	1059.533
-19.736	29.301	1269.122	1057.725
-18.721	29.439	1267.225	1056.893
-17.706	29.395	1266.399	1055.908
-16.692	29.370	1265.277	1054.789
-15.677	29.406	1263.493	1053.464
-14.663	29.343	1263.175	1052.797
-13.648	29.262	1262.345	1051.603
-12.633	29.365	1261.027	1051.050
-11.619	29.377	1260.105	1050.307
-10.604	29.363	1259.503	1049.687
-9.590	29.345	1258.422	1048.643
-8.575	29.385	1256.940	1047.594
-7.560	29.417	1255.884	1046.852
-6.546	29.458	1255.801	1046.970
-5.531	29.447	1254.307	1045.624
-4.517	29.421	1253.555	1044.805
-3.502	29.401	1253.126	1044.294
-2.487	29.507	1251.532	1043.527
-1.473	29.353	1248.225	1039.859
-0.458	27.853	1233.245	1018.977
0.556	22.722	1216.504	982.392
1.571	19.222	1222.731	967.710
2.586	18.444	1237.639	974.999
3.600	18.161	1226.110	964.234
4.615	13.387	1152.717	881.073
5.629	4.615	1077.100	779.391
6.644	0.427	1057.885	744.770
7.659	0.038	1055.543	741.137
8.673	-0.046	1054.727	740.085
9.688	-0.048	1052.898	738.727
10.702	0.287	1050.878	738.887
11.717	5.441	1057.293	768.711
12.731	13.734	1069.463	818.572
13.746	17.461	1072.639	839.341
14.761	16.995	1071.787	836.308
15.775	15.916	1069.813	829.378
16.790	14.985	1067.474	822.917
17.804	14.214	1066.493	818.300
18.819	13.870	1065.005	815.396
19.834	13.632	1064.155	813.505
20.848	13.493	1062.722	811.657
21.863	13.232	1062.168	809.883
22.877	13.013	1061.302	808.077
23.892	12.915	1060.629	807.013
24.907	13.115	1060.139	807.549
25.921	13.108	1059.518	806.969
26.936	13.208	1058.260	806.427
27.950	13.049	1057.961	805.350
28.965	13.159	1056.323	804.569
29.980	13.303	1054.842	804.070
30.994	13.295	1054.084	803.382
32.009	13.233	1053.550	802.603
33.023	13.265	1052.221	801.677
34.038	13.293	1051.565	801.239
35.053	13.277	1050.211	800.062
36.067	13.342	1049.337	799.638
37.082	13.318	1048.466	798.789
38.096	13.269	1047.889	798.041
39.111	13.354	1046.904	797.630
40.126	13.067	1046.715	796.034
41.140	13.034	1045.158	794.617
42.155	13.026	1043.836	793.504
43.169	13.008	1042.665	792.457
44.184	12.999	1042.276	792.051
45.199	12.956	1041.389	791.097
46.213	13.065	1040.186	790.637
47.228	12.955	1039.162	789.264
48.242	13.096	1037.877	788.893
49.257	13.168	1037.069	788.548
50.271	13.065	1036.251	787.365
51.286	13.177	1035.336	787.138
52.301	13.167	1034.292	786.223
53.315	13.038	1033.819	785.183
54.330	13.129	1032.432	784.494
55.344	13.136	1031.749	783.938
56.359	13.115	1030.773	783.027
57.374	13.040	1029.985	782.001
58.388	12.989	1028.835	780.821
59.403	12.969	1028.256	780.215
60.417	12.924	1027.481	779.346
61.432	13.075	1026.149	778.981
62.447	12.876	1026.067	777.911
63.461	12.846	1025.303	777.122
64.476	12.939	1024.157	776.622
65.490	13.001	1023.351	776.234
66.505	12.970	1022.786	775.588
67.520	12.976	1022.272	775.160
68.534	13.069	1021.276	774.771
69.549	12.945	1020.511	773.542
70.563	12.962	1019.668	772.913
71.578	12.801	1019.284	771.802
72.593	12.907	1018.049	771.291
73.607	12.859	1017.265	770.405
74.622	12.857	1016.604	769.830
75.636	12.776	1016.156	769.041
76.651	12.862	1015.366	768.778
77.666	12.809	1014.928	768.130
78.680	12.962	1013.886	767.988
79.695	12.858	1013.502	767.146
80.709	12.839	1013.167	766.734
81.724	12.988	1012.303	766.705
82.739	13.076	1011.509	766.444
83.753	13.249	1010.436	766.365
84.768	13.080	1009.929	765.128
85.782	13.342	1008.420	765.131
86.797	13.180	1007.942	763.950
87.812	13.079	1007.036	762.733
88.826	13.127	1006.187	762.242
89.841	13.162	1004.970	761.416
90.855	13.156	1003.974	760.564
91.870	13.183	1003.569	760.315
92.884	13.290	1002.765	760.130
93.899	13.200	1001.870	758.969
94.914	13.310	1001.139	758.854
95.928	13.367	1000.033	758.210
96.943	13.338	999.179	757.364
97.957	13.184	998.490	756.068
98.972	13.182	997.467	755.218
99.987	13.337	996.551	755.165
101.001	13.213	995.925	754.057
102.016	13.259	994.618	753.214
103.030	13.257	994.090	752.738
104.045	13.258	993.422	752.168
105.060	13.044	992.885	750.722
106.074	13.151	991.433	750.045
107.089	13.187	990.140	749.164
108.103	13.142	989.464	748.382
109.118	13.065	988.517	747.251
110.133	12.967	987.999	746.351
111.147	12.931	987.177	745.501
112.162	13.038	986.140	745.133
113.176	13.147	985.177	744.830
114.191	13.269	984.195	744.571
115.206	13.114	984.017	743.674
116.220	13.198	982.657	742.956
117.235	13.229	981.739	742.337
118.249	13.175	981.412	741.780
119.264	13.215	980.170	740.956
120.279	13.174	979.638	740.308
121.293	13.058	978.692	739.008
122.308	13.020	978.111	738.335
123.322	13.019	976.643	737.154
124.337	12.968	976.200	736.526
125.352	13.104	975.128	736.259
126.366	13.060	973.839	735.024
127.381	13.102	972.748	734.323
128.395	13.031	972.290	733.595
129.410	13.039	971.144	732.703
130.424	13.065	970.693	732.414
131.439	13.212	969.347	731.985
132.454	13.090	968.999	731.119
133.468	13.208	968.091	730.891
134.483	13.107	967.227	729.727
135.497	13.161	966.021	728.991
136.512	13.160	965.323	728.394
137.527	13.226	964.497	727.999
138.541	13.171	963.900	727.240
139.556	13.182	963.448	726.881
140.570	13.235	962.368	726.238
141.585	13.274	961.647	725.801
142.600	13.415	960.550	725.526
143.614	13.203	960.343	724.376
144.629	13.354	959.333	724.211
145.643	13.322	958.440	723.334
146.658	13.322	956.758	721.999
147.673	13.198	955.978	720.807
148.687	13.262	955.364	720.560
149.702	13.234	954.572	719.777
150.716	13.186	953.808	718.926
151.731	13.305	953.060	718.817
152.746	13.082	952.718	717.525
153.760	13.295	952.171	717.976
154.775	13.409	951.113	717.610
155.789	13.354	950.621	716.934
156.804	13.314	949.923	716.171
157.819	13.404	949.270	716.005
158.833	13.500	948.628	715.873
159.848	13.407	947.841	714.815
160.862	13.418	946.530	713.809
161.877	13.306	946.439	713.195
162.892	13.302	944.916	711.967
163.906	13.316	944.136	711.375
164.921	13.216	943.759	710.601
165.935	13.417	942.517	710.467
166.950	13.383	941.607	709.571
167.964	13.383	940.649	708.787
168.979	13.508	939.678	708.526
169.994	13.485	938.855	707.743
171.008	13.485	938.369	707.314
172.023	13.576	937.719	707.154
173.037	13.472	937.040	706.132
174.052	13.543	935.951	705.552
175.067	13.411	935.332	704.461
176.081	13.482	935.043	704.483
177.096	13.404	934.457	703.649
178.110	13.411	933.741	703.077
179.125	13.507	933.336	703.119
180.140	13.601	932.740	703.005
181.154	13.536	932.449	702.450
182.169	13.615	931.752	702.196
183.183	13.623	931.178	701.735
184.198	13.760	929.836	701.241
185.213	13.598	929.237	700.044
186.227	13.553	929.293	699.833
187.242	13.731	928.399	699.849
188.256	13.857	927.712	699.801
189.271	13.810	926.590	698.694
190.286	13.642	926.022	697.495
191.300	13.483	925.362	696.267
192.315	13.569	924.980	696.281
193.329	13.545	924.454	695.725
194.344	13.597	923.568	695.214
195.359	13.665	922.941	694.965
196.373	13.742	922.450	694.858
197.388	13.772	922.361	694.854
198.402	13.790	921.827	694.463
199.417	13.993	920.440	694.207
200.432	13.865	920.550	693.691
201.446	13.966	919.819	693.501
202.461	13.951	919.396	693.058
203.475	14.069	918.675	692.945
204.490	14.053	917.459	691.903
205.504	13.905	917.393	691.174
206.519	13.901	916.458	690.391
207.534	13.906	915.999	690.007
208.548	14.041	915.278	689.961
209.563	13.964	914.487	688.985
210.577	13.989	913.734	688.460
211.592	14.026	913.274	688.207
212.607	14.078	912.394	687.699
213.621	14.170	911.719	687.510
214.636	14.131	911.348	687.007
215.650	13.956	910.834	685.835
216.665	14.201	909.792	686.002
217.680	14.001	909.446	684.857
218.694	14.206	908.567	684.975
219.709	14.179	907.716	684.165
220.723	14.183	907.080	683.640
221.738	14.240	905.796	682.846
222.753	14.167	905.761	682.459
223.767	14.207	905.015	682.002
224.782	14.321	904.572	682.074
225.796	14.355	904.238	681.902
226.811	14.191	903.487	680.603
227.826	14.263	902.837	680.347
228.840	14.222	901.802	679.341
229.855	14.330	901.045	679.150
230.869	14.322	900.346	678.530
231.884	14.222	899.715	677.588
232.899	14.353	899.028	677.545
233.913	14.361	898.031	676.765
234.928	14.367	897.496	676.325
235.942	14.291	896.958	675.551
236.957	14.234	896.729	675.087
237.972	14.239	895.814	674.362
238.986	14.330	895.126	674.152
240.001	14.383	894.436	673.786
241.015	14.359	893.611	673.010
242.030	14.502	893.308	673.299
243.045	14.464	892.733	672.651
244.059	14.454	892.362	672.274
245.074	14.417	891.635	671.516
246.088	14.409	891.361	671.219
247.103	14.561	890.304	670.976
248.117	14.531	889.709	670.345
249.132	14.717	889.081	670.561
250.147	14.696	888.491	669.973
251.161	14.825	887.562	669.729
252.176	14.736	887.181	669.026
253.190	14.702	886.877	668.600
254.205	14.872	886.038	668.588
255.220	14.727	885.607	667.625
256.234	14.630	885.101	666.796
257.249	14.889	884.132	667.043
258.263	14.765	883.227	665.805
259.278	14.842	882.735	665.684
260.293	14.813	882.258	665.147
261.307	14.941	881.695	665.172
262.322	14.950	880.967	664.602
263.336	15.030	879.806	663.986
264.351	14.947	879.699	663.517
265.366	15.040	878.712	663.080
266.380	14.959	878.165	662.291
267.395	14.923	877.659	661.705
268.409	14.998	876.844	661.331
269.424	14.838	876.406	660.310
270.439	14.982	875.240	659.942
271.453	15.000	874.632	659.493
272.468	14.985	874.435	659.228
273.482	14.948	873.887	658.611
274.497	15.021	873.371	658.453
275.512	15.021	872.586	657.800
276.526	14.998	872.062	657.260
277.541	15.050	871.600	657.057
278.555	15.124	871.010	656.844
279.570	15.173	870.261	656.412
280.585	15.188	869.354	655.729
281.599	15.097	868.873	654.953
282.614	15.333	867.680	654.916
283.628	15.173	867.602	654.174
284.643	15.177	867.153	653.793
285.657	15.297	866.026	653.354
286.672	15.267	865.610	652.865
287.687	15.221	865.087	652.234
288.701	15.292	864.773	652.218
289.716	15.320	864.135	651.788
290.730	15.348	863.348	651.241
291.745	15.431	862.579	650.928
292.760	15.424	861.961	650.376
293.774	15.303	861.788	649.720
294.789	15.414	860.907	649.429
295.803	15.434	860.155	648.878
296.818	15.377	859.902	648.413
297.833	15.380	858.999	647.684
298.847	15.346	858.380	647.032
299.862	15.432	857.960	646.986
300.876	15.526	857.582	647.006
301.891	15.488	856.708	646.144
302.906	15.607	856.227	646.181
303.920	15.593	855.748	645.708
304.935	15.725	855.235	645.773
305.949	15.644	854.363	644.744
306.964	15.528	853.821	643.836
307.979	15.496	853.581	643.476
308.993	15.580	852.892	643.222
310.008	15.532	852.469	642.660
311.022	15.667	851.756	642.580
312.037	15.652	851.053	641.937
313.052	15.517	850.651	641.060
314.066	15.576	849.829	640.610
315.081	15.758	849.349	640.884
316.095	15.587	848.822	639.779
317.110	15.514	848.221	638.994
318.125	15.674	847.662	639.125
319.139	15.694	846.940	638.598
320.154	15.754	846.561	638.483
321.168	15.687	846.404	638.056
322.183	15.696	845.404	637.280
323.197	15.741	844.761	636.908
324.212	15.880	844.503	637.183
325.227	15.571	844.448	635.917
326.241	15.761	843.443	635.819
327.256	15.765	842.477	635.052
328.270	15.940	842.238	635.476
329.285	15.752	842.062	634.576
330.300	15.658	841.196	633.515
331.314	15.636	840.975	633.210
332.329	15.777	840.316	633.188
333.343	15.731	839.985	632.708
334.358	15.824	839.310	632.496
335.373	15.799	839.004	632.115
336.387	15.889	839.021	632.410
337.402	15.950	838.660	632.311
338.416	15.994	838.350	632.186
339.431	15.952	837.815	631.568
340.446	16.038	837.291	631.439
341.460	16.073	836.769	631.120
342.475	16.060	836.854	631.083
343.489	16.170	835.776	630.623
344.504	16.090	835.877	630.344
345.519	16.172	835.229	630.106
346.533	16.114	834.725	629.453
347.548	16.128	834.009	628.909
348.562	16.177	833.555	628.695
349.577	16.153	832.880	628.040
350.592	16.070	832.496	627.387
351.606	15.997	831.856	626.578
352.621	16.024	831.406	626.282
353.635	16.124	830.427	625.863
354.650	16.143	829.746	625.364
355.665	16.082	829.067	624.571
356.679	16.191	828.365	624.390
357.694	16.437	827.571	624.644
358.708	16.309	827.492	624.056
359.723	16.310	827.127	623.731
360.738	16.302	826.388	623.088
361.752	16.199	825.841	622.243
362.767	16.408	825.157	622.441
363.781	16.463	824.799	622.317
364.796	16.425	824.362	621.794
365.810	16.514	823.512	621.423
366.825	16.613	823.254	621.540
367.840	16.554	823.196	621.222
368.854	16.602	822.698	620.969
369.869	16.567	822.081	620.321
370.883	16.486	821.661	619.650
371.898	16.568	821.329	619.647
372.913	16.587	820.777	619.246
373.927	16.657	820.024	618.876
374.942	16.430	820.092	618.043
375.956	16.818	819.245	618.769
376.971	16.754	818.980	618.279
377.986	16.797	818.556	618.062
379.000	16.719	818.191	617.446
380.015	16.852	817.590	617.425
381.029	16.660	817.274	616.430
382.044	16.850	816.456	616.449
383.059	16.990	815.766	616.383
384.073	16.857	815.044	615.301
385.088	16.719	814.501	614.335
386.102	16.686	813.935	613.737
387.117	16.707	813.583	613.492
388.132	16.737	812.785	612.942
389.146	16.771	812.740	612.979
390.161	16.779	812.359	612.667
391.175	16.850	811.607	612.300
392.190	16.852	811.073	611.851
393.205	16.751	810.808	611.234
394.219	16.865	810.239	611.160
395.234	16.835	809.731	610.617
396.248	16.802	809.207	610.049
397.263	16.817	808.905	609.819
398.278	16.744	808.549	609.235
399.292	16.691	808.439	608.908
400.307	16.792	807.884	608.800
401.321	16.922	807.095	608.618
402.336	16.741	806.946	607.802
403.350	16.863	806.342	607.731
404.365	17.054	805.836	607.979
405.380	17.157	805.293	607.884
406.394	17.035	804.860	607.067
407.409	17.064	804.286	606.684
408.423	17.181	804.096	606.905
409.438	17.233	803.593	606.656
410.453	17.085	803.173	605.760
411.467	17.270	802.504	605.860
412.482	17.268	802.519	605.811
413.496	17.274	801.987	605.378
414.511	17.279	801.740	605.154
415.526	17.229	801.533	604.767
416.540	17.389	800.603	604.581
417.555	17.374	800.230	604.193
418.569	17.358	799.718	603.695
419.584	17.299	799.631	603.366
420.599	17.433	799.047	603.349
421.613	108.791	1293.112	1468.880
422.628	93.546	1365.080	1468.968
