DTS Sentinel unit serial number:	SN413079Multiplexer serial number:	ORYXHardware model number:	OX4-SRSoftware version number:	ORYX F/W v4.00 Oryx Data Collector v3.7.2.0data status	okinstallation	princeton_trtdifferential loss correction	single-endedforward channel	channel 1reverse channel	N/Adate	2019/09/15time	04:02:35forward acquisition time	60.00reverse acquisition time	0.00gamma	496.2192k internal	0.2323k external	0.2323temperature offset calibration	0.9989default loss term (dB/km)	0.3790temperature slope calibration	1.0000multiplexer offset coefficient	1.0000multiplexer slope coefficient	1.0000fibre end	0.00T internal ref (°C)	30.94T ext. ref 1 (°C)	4.61T ext. ref 2 (°C)	25.87length (m)	temperature (°C)	Stokes	anti-Stokes-747.200	800.000	-0.103	-0.309
-746.185	-200.000	0.012	-0.192
-745.171	-100.999	-0.227	0.056
-744.156	500.031	-0.127	0.295
-743.142	797.415	0.079	-0.219
-742.127	80.271	-0.204	-0.222
-741.112	21.587	-0.139	0.114
-740.098	-164.976	-0.082	0.004
-739.083	181.027	-0.182	-0.270
-738.069	-36.814	-0.199	-0.108
-737.054	289.400	-0.091	-0.166
-736.039	-200.000	-0.001	-0.059
-735.025	-53.851	-0.223	-0.103
-734.010	90.624	0.139	-0.157
-732.996	-170.730	-0.306	-0.011
-731.981	-91.896	-0.159	0.046
-730.966	-26.657	-0.326	-0.193
-729.952	-104.868	0.149	-0.034
-728.937	146.640	0.055	0.075
-727.923	-25.120	-0.255	-0.152
-726.908	18.660	-0.033	-0.027
-725.894	-200.000	-0.041	0.197
-724.879	-143.277	0.112	0.011
-723.864	-200.000	0.029	-0.217
-722.850	129.713	0.054	0.070
-721.835	-200.000	0.007	-0.109
-720.821	-200.000	-0.075	-0.334
-719.806	800.000	-0.054	-0.192
-718.791	800.000	0.003	0.008
-717.777	-129.307	-0.357	0.050
-716.762	-105.379	-0.151	-0.035
-715.748	-159.122	-0.284	0.016
-714.733	-39.422	0.132	-0.070
-713.718	15.440	0.028	-0.022
-712.704	-30.648	-0.046	0.026
-711.689	-200.000	-0.034	-0.203
-710.675	-136.638	0.265	0.031
-709.660	70.660	0.068	0.071
-708.645	-17.529	0.091	0.058
-707.631	-86.908	0.148	0.045
-706.616	-194.273	-0.230	-0.002
-705.602	-17.437	0.156	-0.099
-704.587	125.844	-0.325	0.414
-703.572	318.407	-0.153	-0.293
-702.558	800.000	-0.056	0.181
-701.543	-29.412	-0.125	-0.072
-700.529	498.757	0.043	0.101
-699.514	800.000	-0.076	0.235
-698.499	684.290	0.146	-0.383
-697.485	343.619	-0.162	-0.320
-696.470	-200.000	-0.059	-0.433
-695.456	-10.928	-0.202	0.134
-694.441	800.000	-0.077	-0.229
-693.426	36.204	-0.189	-0.168
-692.412	96.460	0.106	0.122
-691.397	-83.718	-0.049	0.016
-690.383	69.650	-0.149	0.155
-689.368	288.509	-0.121	0.220
-688.354	-43.482	0.039	0.020
-687.339	-200.000	-0.027	0.181
-686.324	141.613	-0.139	-0.185
-685.310	800.000	-0.073	-0.222
-684.295	-21.635	-0.225	0.138
-683.281	81.267	0.163	0.177
-682.266	-200.000	0.012	-0.250
-681.251	-4.413	-0.171	-0.119
-680.237	-69.751	-0.288	-0.111
-679.222	28.219	0.101	0.086
-678.208	-154.781	0.079	-0.005
-677.193	-75.033	-0.114	0.041
-676.178	407.030	0.164	-0.349
-675.164	17.664	0.394	-0.316
-674.149	-17.322	0.258	-0.164
-673.135	-97.620	0.161	0.042
-672.120	-37.992	-0.263	-0.141
-671.105	-70.092	0.040	-0.015
-670.091	239.097	-0.081	-0.136
-669.076	-153.676	-0.302	-0.021
-668.062	800.000	0.068	-0.233
-667.047	-200.000	-0.046	-0.276
-666.032	118.412	0.140	-0.174
-665.018	-200.000	-0.049	-0.374
-664.003	-6.345	0.116	0.080
-662.989	29.617	-0.254	-0.218
-661.974	-149.775	0.143	0.011
-660.959	-200.000	-0.013	-0.158
-659.945	49.496	0.113	-0.107
-658.930	28.740	-0.212	0.181
-657.916	-75.828	-0.244	-0.087
-656.901	-98.425	0.045	0.012
-655.886	800.000	-0.144	0.539
-654.872	-200.000	-0.123	-0.551
-653.857	154.550	-0.156	-0.216
-652.843	-180.850	-0.205	-0.004
-651.828	81.146	0.154	-0.167
-650.814	396.556	0.085	-0.180
-649.799	-155.081	0.397	0.026
-648.784	-200.000	0.026	-0.230
-647.770	-78.753	-0.039	0.014
-646.755	-60.488	-0.496	-0.212
-645.741	13.135	-0.064	-0.050
-644.726	-57.730	0.351	-0.155
-643.711	-89.917	0.083	0.024
-642.697	393.904	0.087	-0.182
-641.682	349.541	-0.090	-0.179
-640.668	-200.000	-0.039	-0.171
-639.653	-41.950	0.121	0.062
-638.638	-53.341	-0.201	-0.092
-637.624	61.848	-0.113	0.113
-636.609	-135.141	0.393	0.047
-635.595	134.218	-0.118	0.154
-634.580	-56.525	-0.257	0.114
-633.565	-173.541	0.085	0.003
-632.551	154.785	-0.129	0.178
-631.536	113.474	-0.209	-0.255
-630.522	-200.000	0.020	-0.219
-629.507	-200.000	0.009	0.064
-628.492	93.466	0.184	-0.210
-627.478	129.516	-0.113	-0.145
-626.463	-89.336	-0.119	-0.035
-625.449	66.770	-0.173	-0.177
-624.434	800.000	-0.149	-0.475
-623.419	312.607	0.027	0.051
-622.405	174.017	-0.062	0.090
-621.390	334.578	-0.119	-0.232
-620.376	800.000	-0.017	-0.068
-619.361	-200.000	0.034	-0.161
-618.346	800.000	-0.052	-0.201
-617.332	-200.000	-0.031	0.308
-616.317	233.678	0.108	-0.178
-615.303	-158.320	-0.159	-0.009
-614.288	-108.581	-0.153	-0.033
-613.273	-200.000	-0.003	-0.091
-612.259	-143.450	-0.037	-0.004
-611.244	-200.000	-0.256	0.001
-610.230	40.431	-0.369	-0.334
-609.215	-65.120	0.085	0.034
-608.201	-42.764	-0.178	0.091
-607.186	196.169	0.129	0.197
-606.171	383.467	0.127	-0.263
-605.157	-121.708	0.187	0.031
-604.142	-200.000	-0.019	-0.176
-603.128	-165.049	0.026	-0.001
-602.113	-200.000	-0.023	-0.145
-601.098	-200.000	0.017	-0.107
-600.084	163.365	0.155	-0.219
-599.069	184.440	-0.081	-0.120
-598.055	-45.672	-0.009	0.004
-597.040	-113.404	-0.370	0.073
-596.025	-41.533	-0.161	-0.083
-595.011	-68.291	-0.352	-0.137
-593.996	528.913	-0.046	-0.109
-592.982	260.718	0.218	-0.378
-591.967	-170.016	-0.233	-0.008
-590.952	254.826	-0.155	-0.265
-589.938	-2.736	0.043	0.030
-588.923	-122.101	0.349	-0.057
-587.909	-91.402	-0.302	-0.087
-586.894	-21.587	-0.266	0.163
-585.879	-200.000	-0.013	-0.143
-584.865	-200.000	-0.005	-0.276
-583.850	-149.531	0.122	-0.010
-582.836	-102.984	0.272	0.065
-581.821	-200.000	0.014	-0.135
-580.806	46.968	-0.346	-0.323
-579.792	11.777	-0.153	0.118
-578.777	-185.273	-0.198	-0.003
-577.763	251.240	-0.109	-0.186
-576.748	-111.204	0.196	0.040
-575.733	800.000	0.035	0.152
-574.719	23.392	-0.108	-0.089
-573.704	234.820	-0.187	-0.310
-572.690	-176.163	0.077	-0.002
-571.675	98.488	0.158	0.182
-570.661	490.356	-0.069	0.158
-569.646	-27.261	0.230	0.134
-568.631	-89.556	0.141	0.042
-567.617	-180.302	0.069	0.001
-566.602	-92.139	0.045	-0.013
-565.588	9.488	-0.065	0.050
-564.573	-113.790	0.010	-0.002
-563.558	41.431	-0.155	-0.141
-562.544	89.511	0.085	-0.095
-561.529	-133.255	-0.281	0.036
-560.515	143.504	-0.054	-0.073
-559.500	-165.984	-0.322	0.014
-558.485	189.949	0.061	-0.091
-557.471	186.037	0.033	0.050
-556.456	66.784	0.208	0.213
-555.442	-200.000	-0.023	-0.126
-554.427	-200.000	0.089	-0.463
-553.412	-200.000	-0.014	0.069
-552.398	-95.608	0.110	0.029
-551.383	23.793	-0.050	0.041
-550.369	-200.000	-0.002	-0.250
-549.354	4.166	0.191	0.140
-548.339	-111.605	0.089	-0.018
-547.325	-74.255	0.237	-0.086
-546.310	-103.183	0.091	-0.022
-545.296	800.000	-0.053	-0.199
-544.281	372.106	0.089	-0.182
-543.266	-200.000	-0.062	-0.312
-542.252	-139.784	-0.439	0.047
-541.237	800.000	0.028	0.113
-540.223	-104.750	-0.201	0.046
-539.208	800.000	0.062	0.219
-538.193	-144.543	0.147	-0.014
-537.179	-109.672	-0.346	-0.073
-536.164	8.056	-0.296	0.223
-535.150	72.775	-0.169	0.177
-534.135	28.658	-0.157	0.133
-533.121	110.440	0.114	0.137
-532.106	101.810	0.091	-0.106
-531.091	-33.967	-0.095	0.053
-530.077	-20.597	0.239	0.147
-529.062	-10.342	-0.179	0.119
-528.048	-118.085	-0.084	-0.015
-527.033	-200.000	-0.067	0.297
-526.018	-67.516	0.244	-0.096
-525.004	-46.226	-0.402	0.198
-523.989	514.936	-0.119	0.279
-522.975	-42.521	0.350	0.179
-521.960	-200.000	0.010	0.044
-520.945	-10.089	0.103	0.068
-519.931	-17.956	-0.226	0.142
-518.916	-25.933	0.179	0.105
-517.902	255.975	-0.062	-0.107
-516.887	-50.844	0.059	-0.028
-515.872	52.806	-0.118	-0.113
-514.858	-148.563	-0.436	-0.036
-513.843	-109.395	0.286	0.061
-512.829	-200.000	0.011	-0.111
-511.814	-59.779	-0.218	-0.094
-510.799	-31.466	0.156	0.088
-509.785	800.000	0.014	-0.054
-508.770	211.625	0.104	-0.164
-507.756	800.000	0.051	0.180
-506.741	128.554	-0.128	0.162
-505.726	595.664	-0.104	0.257
-504.712	-200.000	-0.027	0.289
-503.697	-200.000	-0.016	-0.254
-502.683	60.944	0.159	0.158
-501.668	-88.492	-0.249	-0.074
-500.653	-162.086	0.174	0.009
-499.639	18.554	-0.049	0.040
-498.624	-106.491	-0.167	0.037
-497.610	800.000	0.118	0.357
-496.595	-167.973	0.023	-0.001
-495.581	-170.174	0.064	0.002
-494.566	17.245	-0.203	-0.161
-493.551	800.000	-0.113	0.343
-492.537	-200.000	-0.018	-0.219
-491.522	-128.307	-0.228	-0.032
-490.508	90.638	-0.163	0.183
-489.493	-86.024	0.389	-0.120
-488.478	170.556	-0.102	0.147
-487.464	800.000	0.095	0.278
-486.449	-85.659	-0.120	0.037
-485.435	-122.655	-0.227	-0.037
-484.420	4.315	-0.219	0.160
-483.405	15.233	0.082	0.064
-482.391	800.000	-0.013	0.044
-481.376	217.702	-0.139	0.221
-480.362	-5.744	0.274	0.188
-479.347	511.508	0.048	-0.111
-478.332	-142.415	0.264	0.026
-477.318	181.664	0.047	-0.069
-476.303	13.186	-0.206	0.159
-475.289	-130.624	0.114	-0.015
-474.274	-64.231	0.146	-0.059
-473.259	-40.671	-0.333	-0.172
-472.245	-131.518	0.096	0.013
-471.230	42.839	0.142	0.129
-470.216	-40.288	-0.440	0.229
-469.201	-200.000	-0.035	-0.168
-468.186	-129.178	0.355	-0.049
-467.172	411.674	0.161	-0.341
-466.157	-37.457	-0.194	-0.103
-465.143	752.210	0.057	0.154
-464.128	202.670	-0.178	0.275
-463.113	-13.273	-0.313	-0.203
-462.099	-41.502	0.339	0.174
-461.084	356.750	0.019	-0.037
-460.070	84.461	0.068	-0.074
-459.055	46.102	-0.316	0.293
-458.040	26.658	-0.171	-0.143
-457.026	-200.000	0.050	0.227
-456.011	18.352	-0.113	0.090
-454.997	-112.920	0.263	-0.052
-453.982	43.965	-0.018	0.016
-452.968	452.951	-0.060	0.132
-451.953	150.659	0.008	-0.011
-450.938	18.837	0.120	0.096
-449.924	96.076	0.215	0.245
-448.909	11.922	-0.175	-0.134
-447.895	800.000	0.111	-0.374
-446.880	0.201	-0.286	-0.203
-445.865	800.000	-0.119	0.388
-444.851	292.871	-0.125	0.227
-443.836	-128.241	-0.133	-0.019
-442.822	45.067	-0.104	-0.095
-441.807	-48.968	0.342	-0.164
-440.792	-130.808	0.281	-0.038
-439.778	-200.000	0.023	0.282
-438.763	-49.058	0.183	-0.088
-437.749	37.488	-0.262	-0.231
-436.734	-200.000	-0.054	0.336
-435.719	-26.799	0.245	0.143
-434.705	-200.000	0.038	0.323
-433.690	741.134	-0.057	0.153
-432.676	-34.827	0.211	-0.115
-431.661	-200.000	0.009	-0.124
-430.646	-200.000	0.009	-0.164
-429.632	-32.427	-0.134	-0.074
-428.617	282.572	0.026	-0.046
-427.603	-3.400	-0.223	-0.155
-426.588	-72.477	0.220	0.081
-425.573	189.593	0.238	0.355
-424.559	22.677	-0.177	-0.145
-423.544	488.472	0.070	0.160
-422.530	425.494	-0.129	0.277
-421.515	449.706	-0.219	0.482
-420.500	800.000	0.106	0.379
-419.486	67.065	-0.085	-0.086
-418.471	401.293	0.080	0.168
-417.457	319.854	-0.255	-0.482
-416.442	-200.000	-0.000	-0.198
-415.428	-106.414	0.544	0.121
-414.413	-67.343	0.180	-0.071
-413.398	800.000	-0.052	-0.180
-412.384	70.690	-0.204	0.211
-411.369	-110.802	-0.086	-0.018
-410.355	163.357	0.136	0.190
-409.340	-7.742	-0.154	-0.104
-408.325	-94.843	-0.188	-0.051
-407.311	-80.646	0.302	0.100
-406.296	-200.000	-0.007	0.204
-405.282	68.149	-0.141	-0.144
-404.267	-86.018	0.251	-0.077
-403.252	-7.111	-0.328	-0.222
-402.238	-200.000	0.063	0.316
-401.223	33.400	0.160	0.138
-400.209	189.296	0.128	-0.191
-399.194	800.000	-0.017	0.049
-398.179	514.399	0.070	-0.164
-397.165	-200.000	0.042	-0.279
-396.150	241.864	0.167	0.279
-395.136	13.874	-0.166	0.129
-394.121	-81.307	0.081	-0.027
-393.106	185.286	0.076	0.113
-392.092	-96.324	-0.327	-0.086
-391.077	-45.089	-0.054	0.027
-390.063	89.663	0.191	0.212
-389.048	-75.387	-0.088	0.031
-388.033	-51.733	0.073	0.034
-387.019	-92.444	-0.335	-0.094
-386.004	46.843	0.081	0.075
-384.990	350.459	-0.179	-0.353
-383.975	-68.914	-0.328	-0.126
-382.960	118.133	-0.072	0.088
-381.946	-112.281	-0.240	-0.048
-380.931	-83.376	0.166	-0.053
-379.917	-200.000	0.035	-0.338
-378.902	44.410	0.254	-0.232
-377.888	104.256	-0.093	-0.109
-376.873	-200.000	0.024	-0.219
-375.858	-200.000	-0.037	-0.234
-374.844	524.930	0.117	-0.275
-373.829	-59.993	0.238	0.101
-372.815	-116.079	-0.272	0.050
-371.800	-165.815	-0.262	-0.011
-370.785	345.193	0.103	-0.201
-369.771	-68.370	-0.229	0.089
-368.756	-70.709	-0.443	0.167
-367.742	-200.000	0.045	0.298
-366.727	-200.000	-0.082	0.370
-365.712	800.000	0.097	-0.270
-364.698	-19.723	-0.132	-0.081
-363.683	-147.376	0.111	0.009
-362.669	27.425	-0.247	-0.206
-361.654	800.000	0.158	0.443
-360.639	-35.683	-0.186	-0.100
-359.625	-87.730	-0.262	0.079
-358.610	82.309	-0.015	-0.017
-357.596	38.345	-0.053	-0.047
-356.581	-4.794	0.286	-0.196
-355.566	-200.000	-0.045	-0.296
-354.552	408.725	0.207	0.436
-353.537	-13.545	0.358	0.231
-352.523	-191.249	0.221	-0.002
-351.508	-106.246	0.196	-0.044
-350.493	7.031	0.122	0.090
-349.479	-78.867	0.046	-0.016
-348.464	448.788	-0.060	-0.131
-347.450	6.107	0.256	0.189
-346.435	227.204	0.018	0.029
-345.420	191.392	0.211	0.316
-344.406	87.106	0.153	0.168
-343.391	800.000	0.045	0.159
-342.377	-20.152	0.080	-0.049
-341.362	-91.587	0.106	0.030
-340.348	-200.000	0.034	0.215
-339.333	218.732	-0.226	-0.359
-338.318	-100.034	-0.274	-0.068
-337.304	-17.983	-0.073	0.046
-336.289	-5.891	0.286	0.195
-335.275	720.177	0.023	-0.062
-334.260	800.000	0.074	0.291
-333.245	-132.896	0.219	-0.028
-332.231	-90.794	0.109	0.031
-331.216	715.672	0.074	-0.196
-330.202	-50.158	-0.136	0.064
-329.187	131.749	0.158	0.202
-328.172	-200.000	-0.011	-0.072
-327.158	-26.343	0.231	-0.135
-326.143	800.000	-0.068	-0.213
-325.129	77.437	0.181	0.191
-324.114	-47.721	0.232	0.112
-323.099	-200.000	-0.007	-0.221
-322.085	142.912	0.047	-0.062
-321.070	-129.926	0.113	0.015
-320.056	34.575	-0.039	0.034
-319.041	800.000	0.097	0.268
-318.026	800.000	0.069	-0.250
-317.012	473.219	0.095	-0.212
-315.997	-8.042	-0.246	-0.165
-314.983	800.000	0.113	-0.386
-313.968	408.200	0.149	-0.312
-312.953	178.224	-0.020	-0.029
-311.939	349.726	-0.100	0.197
-310.924	45.954	0.123	0.113
-309.910	-17.977	0.238	-0.148
-308.895	-46.151	0.202	-0.099
-307.880	559.247	0.161	-0.386
-306.866	555.213	-0.066	-0.158
-305.851	-200.000	0.001	-0.181
-304.837	-78.462	-0.074	0.025
-303.822	197.004	-0.074	0.112
-302.807	-180.525	-0.280	-0.006
-301.793	-119.419	0.356	-0.061
-300.778	-200.000	0.009	-0.169
-299.764	-5.847	-0.342	-0.233
-298.749	-21.227	-0.203	0.123
-297.735	-117.073	0.569	-0.103
-296.720	-100.452	0.212	0.052
-295.705	129.493	0.244	-0.309
-294.691	68.661	0.056	-0.057
-293.676	316.693	0.115	0.215
-292.662	-131.872	0.102	0.013
-291.647	800.000	0.029	-0.119
-290.632	800.000	-0.111	-0.413
-289.618	687.301	-0.078	0.202
-288.603	77.327	0.066	0.070
-287.589	-113.359	0.443	0.086
-286.574	-194.806	0.225	-0.002
-285.559	-93.296	0.110	0.030
-284.545	-173.745	0.129	-0.004
-283.530	-154.477	0.320	-0.021
-282.516	-57.038	-0.435	-0.190
-281.501	38.316	0.277	0.245
-280.486	-200.000	0.046	-0.389
-279.472	15.295	-0.208	0.162
-278.457	-200.000	0.041	-0.220
-277.443	-41.573	-0.225	-0.114
-276.428	90.829	0.045	0.049
-275.413	-106.659	0.198	-0.044
-274.399	-68.451	0.142	0.055
-273.384	-200.000	0.001	0.359
-272.370	339.409	-0.078	0.151
-271.355	-200.000	-0.041	0.234
-270.340	41.586	0.204	0.183
-269.326	83.880	0.093	-0.101
-268.311	69.565	-0.109	0.111
-267.297	-65.151	0.297	0.119
-266.282	-200.000	-0.007	0.247
-265.267	-48.845	-0.293	-0.139
-264.253	420.039	-0.148	0.315
-263.238	-200.000	-0.026	-0.252
-262.224	29.727	0.090	0.076
-261.209	-128.044	-0.248	0.035
-260.195	541.650	0.024	-0.056
-259.180	-132.953	-0.263	-0.033
-258.165	-200.000	0.054	0.322
-257.151	300.787	0.179	0.328
-256.136	212.402	-0.114	0.178
-255.122	-67.182	0.136	-0.053
-254.107	-95.311	0.103	-0.027
-253.092	247.749	-0.102	-0.171
-252.078	-200.000	-0.028	0.200
-251.063	-82.534	-0.126	0.040
-250.049	-96.625	0.254	0.066
-249.034	800.000	-0.058	0.190
-248.019	-56.990	0.077	0.034
-247.005	-20.941	-0.193	0.117
-245.990	-97.159	-0.135	-0.035
-244.976	-200.000	-0.034	0.383
-243.961	-25.130	0.202	-0.119
-242.946	-19.062	-0.112	0.069
-241.932	-52.689	0.150	0.069
-240.917	-95.901	0.122	-0.032
-239.903	-122.675	0.117	-0.019
-238.888	210.433	0.050	0.078
-237.873	-74.401	-0.503	-0.180
-236.859	179.885	0.095	0.138
-235.844	-38.478	0.230	0.120
-234.830	-72.764	0.109	-0.040
-233.815	-200.000	0.025	-0.411
-232.800	-161.944	-0.137	-0.007
-231.786	372.373	-0.117	0.236
-230.771	-160.046	0.434	0.023
-229.757	160.035	0.072	-0.099
-228.742	-51.120	0.147	0.068
-227.727	103.002	-0.218	0.253
-226.713	-200.000	-0.025	0.147
-225.698	-16.291	-0.104	0.065
-224.684	-91.537	-0.151	-0.043
-223.669	-1.710	-0.156	-0.109
-222.655	175.720	-0.174	0.250
-221.640	13.255	-0.268	0.205
-220.625	-10.389	0.088	-0.058
-219.611	227.597	0.177	-0.285
-218.596	21.248	-0.338	-0.271
-217.582	800.000	0.041	-0.160
-216.567	800.000	0.015	-0.045
-215.552	670.972	-0.060	0.154
-214.538	21.521	-0.033	0.026
-213.523	-200.000	-0.006	-0.402
-212.509	-36.217	0.270	-0.144
-211.494	-38.399	0.330	0.173
-210.479	-200.000	0.045	0.363
-209.465	59.014	-0.094	-0.092
-208.450	-107.351	0.379	0.082
-207.436	-153.192	-0.563	-0.039
-206.421	-156.027	0.087	0.005
-205.406	-200.000	0.004	0.201
-204.392	-98.109	-0.129	0.033
-203.377	0.340	-0.085	0.060
-202.363	-45.657	0.279	0.137
-201.348	26.793	0.287	0.238
-200.333	-129.606	-0.179	0.024
-199.319	28.002	0.177	0.148
-198.304	-200.000	-0.011	0.136
-197.290	-36.848	0.273	-0.145
-196.275	-200.000	-0.013	0.144
-195.260	30.590	-0.364	-0.308
-194.246	51.542	0.363	-0.341
-193.231	260.837	0.039	-0.067
-192.217	-200.000	0.001	0.377
-191.202	594.083	0.036	-0.087
-190.187	-14.922	-0.353	-0.224
-189.173	-200.000	0.009	-0.202
-188.158	-101.814	0.314	-0.075
-187.144	107.154	-0.152	-0.179
-186.129	65.327	0.147	-0.147
-185.114	44.109	0.029	0.027
-184.100	-57.813	-0.247	0.107
-183.085	60.612	-0.134	-0.132
-182.071	-200.000	0.042	0.197
-181.056	-65.541	-0.275	0.109
-180.042	-200.000	-0.029	0.275
-179.027	800.000	0.033	0.105
-178.012	-14.901	-0.128	0.081
-176.998	800.000	-0.042	-0.161
-175.983	18.652	0.071	-0.056
-174.969	112.850	-0.217	0.260
-173.954	76.970	0.174	0.182
-172.939	31.458	-0.163	-0.138
-171.925	800.000	0.119	-0.345
-170.910	800.000	0.012	0.034
-169.896	-131.301	0.201	-0.026
-168.881	-65.733	0.179	-0.071
-167.866	800.000	0.045	-0.168
-166.852	-108.915	0.186	0.039
-165.837	-52.873	0.302	0.137
-164.823	-200.000	-0.010	-0.094
-163.808	800.000	-0.065	0.214
-162.793	123.747	0.064	0.080
-161.779	36.355	0.267	0.232
-160.764	31.708	-0.087	-0.074
-159.750	218.769	0.032	0.050
-158.735	-110.903	0.258	0.052
-157.720	-200.000	0.008	0.206
-156.706	-18.223	-0.274	0.169
-155.691	-200.000	-0.022	-0.170
-154.677	-14.562	-0.301	-0.191
-153.662	167.319	-0.148	-0.207
-152.647	362.765	0.138	0.273
-151.633	-200.000	0.030	-0.137
-150.618	213.244	0.218	-0.340
-149.604	-200.000	-0.020	-0.164
-148.589	800.000	-0.063	0.242
-147.574	173.691	0.103	0.147
-146.560	129.660	-0.038	0.048
-145.545	259.983	-0.093	0.159
-144.531	-9.894	0.108	-0.071
-143.516	-109.352	-0.433	-0.090
-142.502	210.151	-0.080	-0.123
-141.487	-94.965	-0.324	-0.087
-140.472	551.275	0.111	0.263
-139.458	-200.000	0.020	-0.269
-138.443	-20.144	0.326	0.198
-137.429	800.000	0.030	-0.092
-136.414	-175.284	-0.348	-0.009
-135.399	32.207	-0.046	-0.039
-134.385	-121.618	-0.038	-0.006
-133.370	-77.007	0.437	-0.151
-132.356	-125.751	-0.275	-0.041
-131.341	483.278	0.075	0.168
-130.326	-200.000	0.030	0.215
-129.312	800.000	0.080	0.235
-128.297	30.062	0.192	0.162
-127.283	-200.000	0.009	-0.178
-126.268	269.358	-0.316	-0.547
-125.253	58.923	0.053	0.052
-124.239	-55.721	0.401	0.177
-123.224	800.000	-0.066	0.179
-122.210	800.000	0.058	-0.197
-121.195	19.829	0.066	-0.052
-120.180	-200.000	0.004	-0.198
-119.166	-200.000	-0.008	0.191
-118.151	-4.445	-0.271	0.185
-117.137	-132.167	0.294	0.038
-116.122	-67.732	-0.099	0.038
-115.107	175.828	0.030	0.042
-114.093	229.487	0.106	-0.170
-113.078	174.398	0.055	-0.079
-112.064	800.000	-0.018	-0.063
-111.049	86.123	0.045	0.049
-110.034	366.638	0.133	0.265
-109.020	-68.651	0.233	-0.089
-108.005	-200.000	0.035	0.267
-106.991	-72.877	-0.208	-0.075
-105.976	-36.931	0.451	-0.238
-104.962	513.859	0.158	0.363
-103.947	26.763	-0.057	0.047
-102.932	-200.000	0.015	-0.180
-101.918	-45.087	-0.119	0.058
-100.903	144.731	0.176	-0.231
-99.889	-135.414	0.148	0.017
-98.874	16.212	-0.209	0.162
-97.859	-98.094	0.398	0.101
-96.845	-17.197	0.164	0.102
-95.830	-117.169	0.113	-0.020
-94.816	26.817	-0.169	-0.140
-93.801	201.036	0.109	-0.165
-92.786	115.150	0.204	-0.245
-91.772	158.193	-0.117	0.159
-90.757	-122.734	-0.379	0.060
-89.743	70.405	-0.195	-0.198
-88.728	-200.000	-0.027	-0.166
-87.713	-78.310	-0.190	-0.064
-86.699	-2.662	-0.304	-0.209
-85.684	800.000	0.150	-0.435
-84.670	-5.608	0.047	-0.032
-83.655	52.833	0.046	-0.043
-82.640	800.000	0.035	0.142
-81.626	-91.252	0.126	0.035
-80.611	213.584	0.095	-0.147
-79.597	-60.318	0.194	0.081
-78.582	166.441	-0.166	0.232
-77.567	63.971	-0.147	0.145
-76.553	-101.160	0.166	0.040
-75.538	-150.717	0.359	0.027
-74.524	158.109	-0.124	0.169
-73.509	-59.351	-0.025	-0.010
-72.494	-200.000	0.009	0.044
-71.480	-37.177	-0.097	-0.051
-70.465	726.107	-0.094	-0.246
-69.451	209.550	0.235	0.361
-68.436	151.281	0.210	-0.281
-67.422	-200.000	-0.129	-0.000
-66.407	66.124	0.130	-0.130
-65.392	-131.122	0.133	-0.017
-64.378	189.827	0.102	0.150
-63.363	11.337	-0.206	0.155
-62.349	-200.000	-0.010	0.390
-61.334	-11.305	-1.053	-0.682
-60.319	781.591	0.214	0.576
-59.305	-200.000	-0.226	-1.048
-58.290	341.188	0.586	1.124
-57.276	669.114	0.643	1.635
-56.261	-200.000	101.455	592.194
-55.246	568.884	1415.372	3381.155
-54.232	191.004	2600.628	3844.965
-53.217	117.902	2142.890	2594.193
-52.203	42.977	1593.900	1428.343
-51.188	34.406	1329.012	1139.951
-50.173	31.336	1287.006	1086.064
-49.159	53.880	1337.154	1262.497
-48.144	55.855	1353.650	1289.712
-47.130	34.681	1310.689	1125.677
-46.115	31.227	1293.005	1090.318
-45.100	31.056	1287.829	1084.912
-44.086	30.943	1285.977	1082.651
-43.071	30.892	1283.468	1080.201
-42.057	30.784	1281.224	1077.646
-41.042	30.805	1279.861	1076.577
-40.027	30.902	1278.523	1075.972
-39.013	30.790	1276.823	1073.851
-37.998	30.882	1274.774	1072.614
-36.984	30.908	1273.367	1071.541
-35.969	30.894	1271.426	1069.785
-34.954	30.898	1269.931	1068.506
-33.940	30.966	1268.326	1067.502
-32.925	31.030	1267.062	1066.760
-31.911	31.092	1265.500	1065.758
-30.896	31.088	1264.036	1064.460
-29.881	31.071	1262.854	1063.325
-28.867	31.087	1261.837	1062.518
-27.852	31.087	1260.134	1061.042
-26.838	31.092	1258.614	1059.749
-25.823	31.037	1257.650	1058.583
-24.809	31.088	1256.025	1057.460
-23.794	31.066	1254.941	1056.380
-22.779	31.049	1253.305	1054.866
-21.765	31.118	1251.930	1054.060
-20.750	30.933	1251.337	1052.470
-19.736	31.035	1249.183	1051.191
-18.721	30.811	1248.743	1049.522
-17.706	30.858	1247.396	1048.610
-16.692	30.838	1246.280	1047.517
-15.677	30.951	1244.944	1046.988
-14.663	30.796	1244.029	1045.307
-13.648	30.926	1242.687	1044.869
-12.633	30.849	1241.496	1043.395
-11.619	30.905	1240.736	1043.026
-10.604	30.774	1240.219	1041.818
-9.590	30.879	1239.437	1041.709
-8.575	30.811	1238.491	1040.489
-7.560	30.785	1237.701	1039.640
-6.546	30.857	1237.070	1039.468
-5.531	30.844	1235.726	1038.228
-4.517	30.932	1234.622	1037.749
-3.502	30.934	1233.668	1036.915
-2.487	31.006	1232.666	1036.436
-1.473	30.850	1228.950	1032.402
-0.458	29.527	1214.402	1012.887
0.556	24.780	1197.619	975.705
1.571	21.249	1202.804	960.461
2.586	20.282	1217.390	966.639
3.600	19.940	1206.383	955.926
4.615	15.262	1136.740	876.268
5.629	8.085	1064.373	785.165
6.644	4.824	1045.961	755.709
7.659	4.567	1043.869	752.886
8.673	4.561	1042.646	751.907
9.688	4.509	1041.427	750.713
10.702	4.723	1039.113	750.011
11.717	8.850	1045.035	774.186
12.731	15.783	1054.153	814.551
13.746	18.509	1057.158	830.019
14.761	17.978	1056.027	826.487
15.775	16.832	1054.165	819.419
16.790	15.970	1051.539	813.147
17.804	15.263	1050.299	808.703
18.819	14.804	1049.142	805.530
19.834	14.579	1048.661	804.006
20.848	14.373	1047.775	802.266
21.863	14.017	1046.577	799.564
22.877	13.888	1046.214	798.594
23.892	13.989	1045.695	798.611
24.907	14.113	1044.257	798.040
25.921	14.053	1043.409	797.033
26.936	14.102	1042.131	796.223
27.950	14.161	1041.028	795.590
28.965	14.215	1039.576	794.665
29.980	14.168	1038.159	793.291
30.994	14.260	1037.180	792.908
32.009	14.311	1035.497	791.797
33.023	14.230	1034.944	790.916
34.038	14.338	1033.724	790.426
35.053	14.210	1032.736	788.994
36.067	14.111	1031.990	787.888
37.082	14.112	1031.513	787.456
38.096	14.254	1030.902	787.592
39.111	14.207	1030.112	786.699
40.126	14.200	1028.468	785.338
41.140	13.887	1027.182	782.816
42.155	13.879	1026.235	781.985
43.169	13.949	1025.106	781.384
44.184	13.838	1024.445	780.289
45.199	13.959	1023.568	780.119
46.213	14.009	1022.088	779.158
47.228	14.109	1021.330	778.982
48.242	13.963	1020.346	777.476
49.257	14.003	1018.925	776.511
50.271	14.194	1018.060	776.678
51.286	14.210	1017.265	776.077
52.301	14.126	1016.236	774.831
53.315	14.149	1015.104	774.007
54.330	14.026	1014.111	772.608
55.344	14.035	1013.380	772.026
56.359	13.945	1012.505	770.872
57.374	13.895	1011.945	770.149
58.388	13.775	1011.415	769.119
59.403	13.828	1010.401	768.525
60.417	13.998	1009.129	768.274
61.432	13.897	1008.561	767.307
62.447	13.711	1007.998	765.953
63.461	13.733	1007.142	765.336
64.476	13.817	1006.209	764.948
65.490	13.708	1005.220	763.625
66.505	13.856	1004.359	763.586
67.520	13.852	1003.963	763.197
68.534	13.931	1003.224	762.931
69.549	13.814	1002.885	762.068
70.563	13.847	1001.652	761.214
71.578	13.801	1001.023	760.461
72.593	13.641	1000.628	759.360
73.607	13.692	999.701	758.825
74.622	13.706	999.164	758.411
75.636	13.720	998.353	757.795
76.651	13.779	997.286	757.185
77.666	13.788	996.985	756.931
78.680	13.858	996.266	756.635
79.695	13.806	996.001	756.131
80.709	13.853	995.007	755.525
81.724	13.889	994.594	755.308
82.739	13.920	994.206	755.087
83.753	14.132	993.214	755.229
84.768	14.253	992.565	755.220
85.782	14.292	991.188	754.280
86.797	14.205	990.096	752.990
87.812	14.016	989.980	751.978
88.826	14.214	988.856	751.954
89.841	14.205	987.757	751.010
90.855	14.262	987.062	750.673
91.870	14.276	985.990	749.854
92.884	14.295	985.009	749.128
93.899	14.276	984.744	748.774
94.914	14.309	983.883	748.200
95.928	14.325	982.995	747.533
96.943	14.269	981.718	746.242
97.957	14.269	980.799	745.480
98.972	14.179	980.344	744.664
99.987	14.300	979.260	744.318
101.001	14.155	978.604	743.106
102.016	14.214	977.630	742.561
103.030	14.302	976.914	742.344
104.045	14.229	976.379	741.546
105.060	14.184	975.510	740.619
106.074	14.094	974.226	739.182
107.089	13.983	973.373	737.974
108.103	14.007	972.511	737.362
109.118	13.929	971.721	736.351
110.133	13.980	971.005	735.969
111.147	13.816	970.571	734.850
112.162	14.018	969.542	734.898
113.176	14.099	968.580	734.464
114.191	14.024	968.184	733.766
115.206	13.984	967.452	732.970
116.220	14.049	965.983	732.079
117.235	13.974	965.261	731.137
118.249	14.020	964.495	730.697
119.264	13.850	964.176	729.643
120.279	13.924	963.284	729.229
121.293	13.987	962.003	728.468
122.308	13.871	961.301	727.364
123.322	13.884	960.229	726.546
124.337	13.916	959.496	726.066
125.352	13.821	958.561	724.881
126.366	13.896	957.689	724.486
127.381	13.832	956.726	723.412
128.395	14.009	955.768	723.393
129.410	14.101	954.613	722.857
130.424	13.932	953.736	721.394
131.439	14.128	953.115	721.712
132.454	14.136	952.606	721.298
133.468	14.169	951.776	720.749
134.483	14.117	950.866	719.768
135.497	14.111	950.033	719.051
136.512	14.080	949.285	718.286
137.527	14.146	948.366	717.812
138.541	14.078	947.704	716.955
139.556	14.234	946.981	717.014
140.570	14.152	946.666	716.359
141.585	14.232	945.721	715.927
142.600	14.414	944.625	715.816
143.614	14.419	943.797	715.147
144.629	14.420	942.861	714.377
145.643	14.234	942.626	713.340
146.658	14.083	941.400	711.704
147.673	14.200	939.696	710.852
148.687	14.107	939.398	710.167
149.702	14.118	938.651	709.586
150.716	14.083	937.788	708.719
151.731	14.189	937.014	708.524
152.746	14.139	936.560	707.906
153.760	14.160	935.851	707.396
154.775	14.323	934.999	707.381
155.789	14.356	934.456	707.050
156.804	14.338	934.009	706.573
157.819	14.231	933.335	705.546
158.833	14.478	932.460	705.867
159.848	14.458	931.419	704.933
160.862	14.425	930.498	704.036
161.877	14.272	929.745	702.757
162.892	14.354	928.444	702.057
163.906	14.269	927.672	701.051
164.921	14.301	926.655	700.355
165.935	14.321	926.478	700.246
166.950	14.311	925.805	699.633
167.964	14.346	924.468	698.708
168.979	14.253	923.817	697.765
169.994	14.280	923.267	697.400
171.008	14.388	922.205	696.988
172.023	14.373	922.044	696.742
173.037	14.553	920.796	696.488
174.052	14.599	920.254	696.207
175.067	14.430	919.816	695.110
176.081	14.256	919.180	693.843
177.096	14.268	918.712	693.478
178.110	14.345	917.989	693.192
179.125	14.390	917.486	692.937
180.140	14.343	916.974	692.294
181.154	14.471	916.537	692.437
182.169	14.565	916.225	692.530
183.183	14.487	915.480	691.579
184.198	14.571	914.454	691.094
185.213	14.604	913.872	690.729
186.227	14.614	913.470	690.403
187.242	14.662	912.857	690.077
188.256	14.782	911.797	689.711
189.271	14.664	911.389	688.854
190.286	14.641	910.336	687.903
191.300	14.338	909.381	685.871
192.315	14.208	909.230	685.164
193.329	14.301	908.555	684.977
194.344	14.400	907.825	684.774
195.359	14.470	907.253	684.566
196.373	14.612	906.585	684.585
197.388	14.681	906.324	684.612
198.402	14.802	906.293	685.023
199.417	14.678	905.574	683.911
200.432	14.934	904.824	684.331
201.446	14.910	904.488	683.917
202.461	14.995	903.885	683.751
203.475	14.920	903.289	682.931
204.490	14.910	902.195	682.002
205.504	14.840	901.583	681.194
206.519	14.763	901.432	680.707
207.534	14.827	900.397	680.127
208.548	14.749	900.303	679.677
209.563	14.833	899.033	678.998
210.577	14.917	898.260	678.697
211.592	15.067	897.672	678.802
212.607	15.185	896.761	678.528
213.621	15.031	896.144	677.381
214.636	14.830	895.981	676.385
215.650	14.926	894.822	675.837
216.665	15.048	893.966	675.621
217.680	15.228	893.414	675.871
218.694	15.109	893.206	675.175
219.709	15.115	892.213	674.388
220.723	15.043	891.579	673.561
221.738	15.159	891.249	673.716
222.753	15.014	890.953	672.852
223.767	15.129	890.192	672.679
224.782	15.257	888.956	672.200
225.796	15.213	889.211	672.156
226.811	15.184	888.552	671.480
227.826	15.155	887.475	670.494
228.840	15.206	886.780	670.110
229.855	15.085	885.950	668.943
230.869	15.046	885.672	668.515
231.884	15.058	884.901	667.923
232.899	15.163	883.687	667.365
233.913	15.096	882.878	666.429
234.928	15.142	882.734	666.447
235.942	15.040	882.074	665.482
236.957	15.148	881.274	665.248
237.972	15.051	881.106	664.678
238.986	15.148	880.337	664.425
240.001	15.162	879.231	663.587
241.015	15.093	879.173	663.211
242.030	15.210	878.437	663.058
243.045	15.289	877.885	662.897
244.059	15.357	877.257	662.633
245.074	15.372	876.545	662.095
246.088	15.279	876.144	661.369
247.103	15.410	875.397	661.262
248.117	15.490	875.115	661.306
249.132	15.669	874.227	661.280
250.147	15.667	873.732	660.839
251.161	15.698	873.126	660.441
252.176	15.678	872.758	660.030
253.190	15.770	871.957	659.726
254.205	15.659	871.631	658.983
255.220	15.799	870.732	658.795
256.234	15.724	870.247	658.075
257.249	15.780	869.608	657.751
258.263	15.734	868.769	656.881
259.278	16.005	868.006	657.304
260.293	15.835	867.377	656.104
261.307	15.920	866.870	655.996
262.322	15.981	866.251	655.707
263.336	15.860	865.669	654.737
264.351	15.871	864.857	654.109
265.366	15.989	864.232	654.036
266.380	15.958	863.660	653.424
267.395	15.902	863.157	652.770
268.409	15.911	862.266	652.072
269.424	15.880	861.555	651.356
270.439	15.885	860.756	650.713
271.453	15.959	860.367	650.648
272.468	15.911	859.752	649.939
273.482	15.782	859.180	648.953
274.497	15.954	858.456	649.011
275.512	15.861	858.202	648.405
276.526	15.894	857.908	648.253
277.541	16.132	857.149	648.535
278.555	16.072	856.686	647.898
279.570	16.102	856.080	647.499
280.585	16.237	854.753	646.954
281.599	16.070	854.233	645.863
282.614	16.068	854.046	645.658
283.628	16.055	853.090	644.828
284.643	16.084	852.554	644.475
285.657	16.063	852.168	644.046
286.672	16.037	851.790	643.604
287.687	16.005	851.141	642.935
288.701	16.013	850.259	642.242
289.716	16.143	849.702	642.259
290.730	16.181	849.222	641.985
291.745	16.069	848.822	641.200
292.760	16.085	848.455	640.928
293.774	16.192	847.625	640.651
294.789	16.257	847.135	640.468
295.803	16.301	846.097	639.794
296.818	16.053	845.780	638.559
297.833	16.167	844.983	638.332
298.847	16.045	844.660	637.572
299.862	16.404	843.898	638.295
300.876	16.335	843.121	637.389
301.891	16.435	842.694	637.389
302.906	16.503	841.987	637.053
303.920	16.602	841.618	637.089
304.935	16.575	841.367	636.742
305.949	16.559	840.571	636.025
306.964	16.450	840.289	635.343
307.979	16.460	839.377	634.638
308.993	16.532	838.819	634.427
310.008	16.646	838.284	634.394
311.022	16.436	837.847	633.222
312.037	16.500	836.989	632.756
313.052	16.489	836.380	632.200
314.066	16.333	836.238	631.454
315.081	16.393	835.001	630.687
316.095	16.398	834.738	630.452
317.110	16.305	834.260	629.689
318.125	16.525	833.312	629.734
319.139	16.485	833.074	629.350
320.154	16.562	832.731	629.323
321.168	16.418	832.562	628.605
322.183	16.545	831.685	628.357
323.197	16.465	831.255	627.681
324.212	16.597	830.767	627.744
325.227	16.679	829.504	627.040
326.241	16.521	829.524	626.415
327.256	16.504	828.998	625.900
328.270	16.402	828.485	625.077
329.285	16.537	827.441	624.733
330.300	16.572	827.194	624.623
331.314	16.524	826.671	623.996
332.329	16.523	826.802	624.034
333.343	16.623	825.948	623.702
334.358	16.611	825.669	623.395
335.373	16.728	825.115	623.350
336.387	16.729	824.601	622.911
337.402	16.803	824.627	623.147
338.416	16.905	824.460	623.342
339.431	16.990	823.772	623.076
340.446	16.921	823.612	622.647
341.460	16.968	823.279	622.515
342.475	16.990	822.619	622.039
343.489	16.992	822.372	621.805
344.504	17.019	821.904	621.497
345.519	17.102	821.357	621.333
346.533	17.082	820.679	620.689
347.548	17.016	820.206	620.035
348.562	17.075	819.022	619.304
349.577	16.934	818.935	618.667
350.592	16.988	818.380	618.390
351.606	16.866	817.656	617.345
352.621	17.018	816.576	617.028
353.635	17.064	816.125	616.799
354.650	16.994	815.449	615.980
355.665	16.884	815.537	615.590
356.679	17.135	814.439	615.619
357.694	17.033	814.038	614.891
358.708	17.115	813.491	614.721
359.723	17.165	812.353	613.986
360.738	17.198	812.345	614.045
361.752	17.284	811.708	613.820
362.767	17.137	811.112	612.785
363.781	17.267	810.877	613.022
364.796	17.213	810.230	612.285
365.810	17.428	809.882	612.741
366.825	17.421	809.627	612.470
367.840	17.469	809.492	612.484
368.854	17.338	808.698	611.359
369.869	17.288	808.467	610.952
370.883	17.295	807.704	610.345
371.898	17.519	807.531	610.966
372.913	17.547	807.008	610.614
373.927	17.345	806.643	609.561
374.942	17.363	806.297	609.309
375.956	17.536	805.568	609.325
376.971	17.779	805.062	609.755
377.986	17.662	804.509	608.865
379.000	17.571	804.480	608.466
380.015	17.721	803.899	608.505
381.029	17.685	803.267	607.845
382.044	17.673	802.801	607.398
383.059	17.807	801.757	607.029
384.073	17.632	802.060	606.583
385.088	17.581	801.379	605.833
386.102	17.575	800.490	605.084
387.117	17.529	799.768	604.322
388.132	17.593	799.275	604.124
389.146	17.631	798.475	603.602
390.161	17.676	798.740	603.907
391.175	17.628	797.768	602.947
392.190	17.849	796.994	603.091
393.205	17.607	796.821	602.054
394.219	17.677	796.568	602.056
395.234	17.540	795.901	601.016
396.248	17.498	795.797	600.736
397.263	17.638	795.046	600.608
398.278	17.580	794.910	600.246
399.292	17.560	794.665	599.938
400.307	17.504	793.977	599.169
401.321	17.553	793.407	598.860
402.336	17.564	793.024	598.554
403.350	17.761	792.526	598.817
404.365	17.670	792.497	598.424
405.380	17.906	791.674	598.577
406.394	17.791	791.194	597.758
407.409	17.962	790.984	598.144
408.423	18.125	790.389	598.214
409.438	18.100	790.201	597.930
410.453	18.093	789.589	597.388
411.467	18.091	789.412	597.197
412.482	18.170	788.828	596.976
413.496	18.036	788.816	596.448
414.511	18.278	788.009	596.627
415.526	18.060	787.759	595.627
416.540	18.061	787.433	595.331
417.555	18.261	787.085	595.711
418.569	18.190	786.330	594.841
419.584	18.229	786.000	594.673
420.599	18.187	785.437	594.049
421.613	157.584	1369.889	1797.826
422.628	136.205	1455.035	1797.911
