DTS Sentinel unit serial number:	SN413079Multiplexer serial number:	ORYXHardware model number:	OX4-SRSoftware version number:	ORYX F/W v4.00 Oryx Data Collector v3.7.2.0data status	okinstallation	princeton_trtdifferential loss correction	single-endedforward channel	channel 1reverse channel	N/Adate	2019/09/17time	09:54:35forward acquisition time	60.00reverse acquisition time	0.00gamma	496.2192k internal	0.2323k external	0.2323temperature offset calibration	0.9962default loss term (dB/km)	0.3790temperature slope calibration	1.0000multiplexer offset coefficient	1.0000multiplexer slope coefficient	1.0000fibre end	0.00T internal ref (°C)	29.50T ext. ref 1 (°C)	0.16T ext. ref 2 (°C)	25.27length (m)	temperature (°C)	Stokes	anti-Stokes-747.200	800.000	-0.071	-0.239
-746.185	20.299	-0.197	0.161
-745.171	-200.000	0.030	0.169
-744.156	800.000	0.020	-0.066
-743.142	-44.938	0.172	0.087
-742.127	41.433	-0.282	0.258
-741.112	57.091	-0.254	-0.250
-740.098	-200.000	0.030	0.226
-739.083	-59.246	0.253	0.110
-738.069	467.343	-0.003	0.006
-737.054	324.682	-0.133	0.256
-736.039	244.302	0.035	-0.059
-735.025	57.965	-0.141	-0.140
-734.010	-97.267	0.142	-0.037
-732.996	800.000	-0.043	0.121
-731.981	800.000	-0.114	-0.338
-730.966	-101.271	0.166	0.041
-729.952	-200.000	0.064	0.465
-728.937	8.672	0.251	-0.191
-727.923	-108.931	-0.187	0.040
-726.908	-200.000	0.018	0.166
-725.894	-122.847	-0.288	-0.047
-724.879	-200.000	0.018	0.188
-723.864	-200.000	-0.008	0.086
-722.850	339.087	0.149	-0.292
-721.835	5.567	-0.267	0.199
-720.821	-200.000	0.041	-0.234
-719.806	-153.095	0.192	0.014
-718.791	-74.511	-0.186	0.068
-717.777	-25.949	-0.248	0.147
-716.762	-77.129	-0.097	0.034
-715.748	-105.109	-0.550	0.127
-714.733	-153.899	-0.074	0.005
-713.718	-39.121	0.171	0.091
-712.704	229.350	-0.123	0.202
-711.689	30.795	0.241	0.209
-710.675	117.925	-0.327	0.406
-709.660	-85.579	-0.142	-0.045
-708.645	800.000	-0.048	0.183
-707.631	-200.000	0.016	-0.245
-706.616	488.732	0.177	-0.408
-705.602	-15.199	-0.356	-0.230
-704.587	-146.328	-0.272	-0.024
-703.572	-87.069	0.212	0.065
-702.558	46.596	-0.238	0.223
-701.543	104.122	-0.155	0.183
-700.529	-99.769	-0.181	0.046
-699.514	-74.817	-0.099	0.036
-698.499	502.725	0.042	0.097
-697.485	162.987	-0.058	0.083
-696.470	31.650	0.151	0.131
-695.456	147.511	-0.162	0.221
-694.441	32.237	-0.149	0.130
-693.426	337.343	0.038	0.075
-692.412	-44.850	-0.259	0.130
-691.397	-109.009	-0.167	0.036
-690.383	-200.000	0.067	-0.348
-689.368	-39.846	-0.236	0.124
-688.354	678.206	-0.097	-0.255
-687.339	-2.523	0.051	0.036
-686.324	-200.000	-0.016	-0.088
-685.310	78.453	0.199	0.214
-684.295	-48.141	-0.345	-0.168
-683.281	166.929	-0.136	-0.195
-682.266	5.154	-0.131	0.097
-681.251	-137.825	-0.197	-0.022
-680.237	-200.000	-0.080	-0.507
-679.222	-28.939	-0.069	0.040
-678.208	-47.428	-0.259	0.127
-677.193	-43.299	0.092	-0.047
-676.178	-4.571	0.329	0.229
-675.164	-162.637	-0.109	-0.005
-674.149	-30.073	-0.343	0.197
-673.135	800.000	0.049	-0.138
-672.120	193.937	-0.206	-0.314
-671.105	-165.738	-0.189	-0.008
-670.091	15.012	-0.236	0.186
-669.076	245.370	0.156	-0.265
-668.062	-166.097	-0.209	0.009
-667.047	-88.895	0.304	0.091
-666.032	66.242	0.082	-0.084
-665.018	188.095	-0.032	0.048
-664.003	127.114	-0.154	-0.197
-662.989	105.354	-0.133	0.158
-661.974	493.501	-0.083	0.192
-660.959	-149.967	-0.349	-0.027
-659.945	800.000	-0.070	0.225
-658.930	800.000	-0.028	-0.107
-657.916	676.526	0.030	-0.079
-656.901	-72.260	0.057	-0.021
-655.886	-90.194	0.335	0.098
-654.872	-200.000	-0.020	-0.370
-653.857	98.531	-0.249	-0.289
-652.843	157.607	0.160	-0.223
-651.828	-200.000	-0.036	-0.192
-650.814	35.859	0.076	0.067
-649.799	-171.132	0.110	0.004
-648.784	-200.000	-0.013	0.266
-647.770	16.541	0.122	0.097
-646.755	387.003	0.108	0.224
-645.741	608.023	0.093	-0.234
-644.726	-113.731	0.179	-0.035
-643.711	-82.243	0.223	0.073
-642.697	-200.000	0.051	0.359
-641.682	-151.144	0.313	0.024
-640.668	272.003	0.277	0.492
-639.653	436.159	-0.166	0.363
-638.638	580.861	0.047	0.115
-637.624	42.819	-0.105	-0.096
-636.609	-200.000	-0.042	0.331
-635.595	64.732	-0.264	-0.268
-634.580	35.480	0.153	-0.135
-633.565	91.307	0.150	-0.169
-632.551	-89.269	-0.242	-0.072
-631.536	-136.260	-0.338	0.040
-630.522	78.880	0.036	-0.039
-629.507	-31.817	0.258	-0.145
-628.492	168.174	-0.301	-0.431
-627.478	-17.156	-0.259	0.165
-626.463	-124.215	-0.326	-0.051
-625.449	-91.246	-0.438	0.126
-624.434	-88.675	0.125	-0.037
-623.419	-101.370	-0.188	-0.046
-622.405	800.000	0.004	-0.011
-621.390	800.000	0.050	0.165
-620.376	-200.000	0.255	-0.001
-619.361	176.017	0.265	-0.387
-618.346	-72.340	0.128	-0.048
-617.332	29.144	-0.150	0.128
-616.317	-81.189	0.131	0.043
-615.303	24.898	-0.020	0.017
-614.288	73.112	-0.101	0.107
-613.273	-0.356	0.225	0.161
-612.259	-10.367	-0.316	0.210
-611.244	-200.000	-0.094	0.530
-610.230	-200.000	0.078	0.496
-609.215	-92.523	-0.029	0.008
-608.201	-23.121	-0.187	0.113
-607.186	-116.961	0.189	0.035
-606.171	-25.423	-0.129	0.077
-605.157	-200.000	-0.003	-0.040
-604.142	800.000	0.027	-0.090
-603.128	-200.000	0.026	-0.293
-602.113	53.979	0.063	0.060
-601.098	-83.398	-0.078	0.025
-600.084	624.645	0.097	-0.245
-599.069	-58.154	-0.260	0.114
-598.055	800.000	-0.090	0.261
-597.040	51.034	-0.147	0.140
-596.025	31.099	-0.135	-0.117
-595.011	-200.000	0.006	-0.315
-593.996	-200.000	0.009	0.158
-592.982	-67.403	-0.370	0.146
-591.967	668.506	-0.110	-0.285
-590.952	357.717	-0.059	-0.118
-589.938	545.972	0.054	-0.130
-588.923	7.179	0.225	0.169
-587.909	77.318	0.100	0.107
-586.894	-13.927	0.339	0.220
-585.879	-54.378	-0.129	0.059
-584.865	-86.498	0.443	-0.137
-583.850	-67.110	-0.325	-0.129
-582.836	123.700	0.158	0.199
-581.821	800.000	0.018	-0.066
-580.806	-200.000	-0.002	-0.119
-579.792	-160.580	0.029	-0.002
-578.777	-200.000	-0.058	0.356
-577.763	459.394	0.103	-0.229
-576.748	30.421	-0.185	-0.159
-575.733	135.005	-0.210	0.274
-574.719	-66.669	-0.404	0.161
-573.704	-200.000	-0.020	-0.114
-572.690	177.634	0.221	0.323
-571.675	123.389	-0.024	0.030
-570.661	-165.422	0.150	0.007
-569.646	800.000	0.084	-0.298
-568.631	-17.340	0.295	-0.187
-567.617	335.419	0.195	-0.379
-566.602	-54.598	-0.192	0.087
-565.588	800.000	-0.086	-0.345
-564.573	252.882	-0.220	-0.376
-563.558	83.100	0.154	0.168
-562.544	46.871	-0.095	0.089
-561.529	-163.016	-0.265	0.013
-560.515	-77.875	-0.236	0.082
-559.500	-200.000	0.015	0.373
-558.485	29.318	-0.249	-0.212
-557.471	-84.180	-0.324	0.103
-556.456	157.006	-0.109	-0.151
-555.442	800.000	0.148	-0.489
-554.427	-66.028	-0.108	0.043
-553.412	-151.199	-0.072	-0.005
-552.398	517.499	-0.073	-0.172
-551.383	121.814	0.239	-0.299
-550.369	-200.000	-0.053	0.296
-549.354	30.119	0.190	-0.163
-548.339	36.407	0.295	-0.261
-547.325	-35.630	0.228	0.124
-546.310	-79.081	-0.130	0.044
-545.296	161.081	-0.223	-0.313
-544.281	800.000	0.010	-0.039
-543.266	-96.515	0.115	-0.030
-542.252	-36.562	-0.093	0.050
-541.237	128.477	-0.062	0.079
-540.223	-200.000	0.031	-0.238
-539.208	-87.915	-0.196	-0.059
-538.193	94.284	0.067	0.076
-537.179	-83.497	-0.132	-0.042
-536.164	-31.518	-0.308	0.173
-535.150	-131.210	-0.424	0.056
-534.135	373.352	-0.113	-0.230
-533.121	800.000	-0.083	-0.272
-532.106	96.261	0.104	-0.119
-531.091	-200.000	-0.076	-0.375
-530.077	82.545	0.098	0.107
-529.062	-68.911	0.208	0.080
-528.048	-200.000	0.011	0.050
-527.033	-14.711	-0.209	-0.134
-526.018	-41.829	0.279	-0.143
-525.004	299.799	-0.014	-0.026
-523.989	-200.000	0.004	-0.432
-522.975	-61.001	-0.306	0.129
-521.960	800.000	0.044	-0.168
-520.945	-9.368	-0.136	0.091
-519.931	83.921	0.025	-0.027
-518.916	-181.946	0.332	-0.006
-517.902	769.784	-0.024	0.066
-516.887	-71.705	-0.189	0.071
-515.872	-1.974	-0.207	-0.146
-514.858	-49.583	0.171	0.082
-513.843	17.716	-0.276	-0.220
-512.829	282.860	-0.058	-0.104
-511.814	123.942	-0.248	-0.312
-510.799	-59.893	0.252	0.108
-509.785	-200.000	-0.051	0.455
-508.770	-200.000	0.019	0.122
-507.756	-50.155	0.336	-0.159
-506.741	79.208	-0.286	0.307
-505.726	-67.441	-0.228	0.089
-504.712	-90.998	-0.262	-0.075
-503.697	-200.000	0.005	-0.050
-502.683	-144.361	-0.170	0.016
-501.668	800.000	-0.092	-0.276
-500.653	68.370	-0.132	-0.136
-499.639	800.000	0.076	-0.259
-498.624	208.053	-0.143	0.223
-497.610	4.382	-0.092	0.067
-496.595	-13.528	0.229	0.148
-495.581	628.670	0.050	-0.127
-494.566	-126.239	-0.239	0.036
-493.551	689.668	0.116	0.302
-492.537	281.870	-0.169	-0.303
-491.522	-138.506	-0.149	0.016
-490.508	-91.889	0.248	0.070
-489.493	-200.000	-0.020	0.115
-488.478	-200.000	0.021	0.215
-487.464	96.349	-0.227	0.259
-486.449	525.978	-0.031	-0.073
-485.435	800.000	0.072	0.304
-484.420	207.946	0.139	0.218
-483.405	166.234	0.106	0.150
-482.391	800.000	0.158	-0.470
-481.376	-200.000	0.127	-0.000
-480.362	8.202	-0.090	0.068
-479.347	581.803	-0.105	-0.258
-478.332	-149.505	-0.303	-0.024
-477.318	800.000	-0.081	-0.263
-476.303	-77.672	-0.171	0.059
-475.289	-22.164	-0.240	0.146
-474.274	-200.000	0.053	0.286
-473.259	695.552	-0.079	-0.206
-472.245	54.702	-0.088	-0.085
-471.230	3.456	-0.146	-0.107
-470.216	-200.000	-0.048	-0.488
-469.201	57.058	0.121	0.118
-468.186	-136.681	-0.230	-0.027
-467.172	-113.703	0.078	-0.015
-466.157	-200.000	0.052	-0.373
-465.143	485.099	0.221	-0.503
-464.128	181.181	-0.097	0.142
-463.113	-11.827	0.097	0.063
-462.099	700.033	0.126	0.331
-461.084	364.901	-0.025	0.049
-460.070	450.672	0.056	-0.124
-459.055	-149.922	-0.300	-0.023
-458.040	6.654	-0.235	-0.174
-457.026	-11.077	0.186	-0.122
-456.011	-63.036	-0.042	0.017
-454.997	-200.000	0.082	0.450
-453.982	67.918	-0.163	0.167
-452.968	261.955	0.111	-0.193
-451.953	-200.000	-0.042	0.338
-450.938	-13.900	-0.037	-0.024
-449.924	-83.035	-0.079	-0.025
-448.909	84.805	-0.124	-0.135
-447.895	-96.732	0.006	0.002
-446.880	-51.648	0.088	0.041
-445.865	-0.015	0.148	-0.105
-444.851	800.000	0.092	-0.365
-443.836	88.288	-0.182	-0.201
-442.822	-65.402	0.299	0.120
-441.807	-74.515	0.302	-0.108
-440.792	800.000	0.038	-0.118
-439.778	161.602	0.086	0.119
-438.763	-153.683	0.118	-0.008
-437.749	-120.467	-0.428	-0.073
-436.734	-122.867	-0.179	-0.029
-435.719	-200.000	0.009	-0.101
-434.705	24.839	-0.177	0.147
-433.690	516.479	-0.074	0.173
-432.676	-200.000	-0.009	-0.204
-431.661	-44.854	-0.285	-0.142
-430.646	-157.039	-0.397	-0.024
-429.632	-200.000	-0.073	0.391
-428.617	603.614	-0.087	0.217
-427.603	-46.736	0.147	-0.072
-426.588	-75.421	-0.352	-0.125
-425.573	63.664	0.221	0.221
-424.559	111.311	-0.116	0.139
-423.544	-54.549	0.034	-0.015
-422.530	-172.090	0.165	-0.005
-421.515	-31.645	0.182	0.102
-420.500	441.893	0.180	0.394
-419.486	-94.389	-0.302	0.082
-418.471	404.407	0.132	0.277
-417.457	-18.060	-0.143	0.089
-416.442	-167.774	-0.206	-0.008
-415.428	-26.988	0.243	-0.142
-414.413	800.000	0.090	-0.327
-413.398	-200.000	0.007	0.209
-412.384	800.000	0.037	0.114
-411.369	-200.000	0.022	0.122
-410.355	133.276	-0.127	0.164
-409.340	-131.702	0.169	-0.022
-408.325	-45.500	-0.221	0.109
-407.311	-57.908	0.132	0.058
-406.296	74.794	0.134	-0.141
-405.282	800.000	0.013	-0.054
-404.267	-200.000	0.016	0.168
-403.252	230.302	-0.178	0.290
-402.238	46.014	0.143	-0.132
-401.223	17.060	-0.043	-0.034
-400.209	-200.000	-0.047	-0.432
-399.194	153.495	0.135	-0.185
-398.179	684.555	-0.127	-0.330
-397.165	594.929	0.057	-0.141
-396.150	383.539	0.137	0.280
-395.136	-52.922	-0.149	0.068
-394.121	-36.540	-0.028	0.015
-393.106	-17.296	0.329	-0.207
-392.092	-200.000	0.018	-0.129
-391.077	16.595	0.069	0.055
-390.063	-114.106	-0.314	-0.061
-389.048	-24.488	0.158	0.093
-388.033	145.684	0.231	0.308
-387.019	-200.000	-0.035	0.168
-386.004	-110.330	-0.059	-0.012
-384.990	800.000	-0.046	-0.148
-383.975	-200.000	-0.040	0.183
-382.960	450.540	-0.073	0.161
-381.946	-200.000	0.381	-0.001
-380.931	240.604	-0.158	0.263
-379.917	-200.000	0.047	0.320
-378.902	-37.096	0.303	-0.161
-377.888	-108.700	0.407	-0.087
-376.873	88.591	-0.123	-0.136
-375.858	149.329	0.117	-0.157
-374.844	325.480	-0.263	0.500
-373.829	-11.330	-0.134	-0.088
-372.815	-115.530	0.406	0.076
-371.800	121.150	-0.390	0.483
-370.785	404.316	-0.104	-0.217
-369.771	-76.492	-0.232	0.081
-368.756	291.115	0.085	-0.153
-367.742	-113.739	-0.106	0.021
-366.727	775.045	0.104	0.284
-365.712	-31.905	0.216	-0.120
-364.698	71.081	-0.172	-0.177
-363.683	-81.715	0.176	0.057
-362.669	-161.656	0.267	-0.014
-361.654	120.661	-0.199	0.246
-360.639	412.125	-0.067	0.142
-359.625	-86.945	0.251	0.076
-358.610	87.929	0.240	0.265
-357.596	-87.802	0.082	0.025
-356.581	69.384	-0.109	0.111
-355.566	38.150	0.098	0.087
-354.552	383.513	-0.061	-0.125
-353.537	800.000	0.014	-0.061
-352.523	9.072	0.098	-0.073
-351.508	-59.434	0.069	-0.030
-350.493	97.331	0.297	0.339
-349.479	783.777	-0.071	-0.193
-348.464	-156.277	0.125	-0.008
-347.450	14.916	-0.140	0.109
-346.435	5.890	0.234	-0.172
-345.420	131.996	0.035	0.045
-344.406	-200.000	0.002	0.105
-343.391	-124.537	-0.302	-0.047
-342.377	800.000	0.025	-0.071
-341.362	50.013	-0.102	0.096
-340.348	-5.638	-0.313	-0.213
-339.333	-200.000	0.028	0.318
-338.318	-118.219	0.245	-0.043
-337.304	633.415	0.030	-0.076
-336.289	188.978	-0.141	-0.210
-335.275	800.000	-0.084	0.338
-334.260	-80.535	0.108	-0.036
-333.245	569.247	0.043	0.103
-332.231	-111.936	0.081	-0.016
-331.216	-200.000	0.026	-0.204
-330.202	234.857	-0.174	0.286
-329.187	800.000	0.136	-0.480
-328.172	62.348	-0.047	-0.047
-327.158	387.488	0.044	-0.091
-326.143	-200.000	0.000	-0.188
-325.129	399.903	-0.023	0.048
-324.114	48.111	0.047	-0.044
-323.099	-200.000	-0.030	0.202
-322.085	100.264	0.125	-0.144
-321.070	318.710	0.112	-0.211
-320.056	133.735	-0.219	0.281
-319.041	-47.249	0.221	-0.107
-318.026	-118.685	0.261	-0.046
-317.012	9.520	-0.067	-0.050
-315.997	-200.000	0.030	-0.231
-314.983	-95.476	-0.102	-0.027
-313.968	11.775	0.241	-0.184
-312.953	-43.297	-0.239	-0.120
-311.939	201.787	0.075	0.115
-310.924	185.044	0.126	-0.186
-309.910	-39.592	0.194	0.101
-308.895	12.830	-0.205	-0.157
-307.880	-86.341	-0.427	0.130
-306.866	-94.429	-0.120	-0.032
-305.851	-107.668	0.305	-0.066
-304.837	-126.704	0.229	0.034
-303.822	-71.575	-0.219	0.081
-302.807	32.052	0.244	-0.208
-301.793	-163.741	0.046	0.002
-300.778	274.526	0.139	-0.244
-299.764	325.406	-0.067	-0.126
-298.749	-79.226	-0.236	-0.079
-297.735	-42.647	-0.171	0.087
-296.720	467.274	-0.097	0.216
-295.705	249.343	0.087	-0.147
-294.691	-200.000	-0.009	0.100
-293.676	800.000	-0.057	0.212
-292.662	800.000	-0.111	0.359
-291.647	113.455	0.087	0.104
-290.632	63.246	0.304	0.302
-289.618	-118.212	-0.238	-0.042
-288.603	-74.766	0.344	0.123
-287.589	34.705	0.036	-0.032
-286.574	-114.839	0.174	0.033
-285.559	-108.212	-0.353	0.076
-284.545	296.401	0.136	-0.247
-283.530	800.000	-0.110	0.306
-282.516	-200.000	-0.010	0.416
-281.501	-62.768	-0.330	-0.136
-280.486	153.219	-0.146	-0.198
-279.472	-158.822	-0.266	-0.015
-278.457	-200.000	0.016	-0.133
-277.443	324.674	0.091	0.172
-276.428	36.270	-0.237	-0.207
-275.413	-49.727	0.481	-0.227
-274.399	375.162	-0.136	-0.275
-273.384	717.542	0.065	-0.172
-272.370	2.925	-0.077	-0.055
-271.355	800.000	-0.124	-0.514
-270.340	45.359	-0.349	0.320
-269.326	92.720	0.120	0.135
-268.311	-30.601	0.098	0.055
-267.297	-14.862	0.164	0.104
-266.282	243.199	0.126	-0.209
-265.267	303.294	0.032	0.059
-264.253	-100.310	0.377	0.093
-263.238	-151.591	0.230	0.017
-262.224	-82.398	0.075	-0.024
-261.209	-200.000	0.000	0.151
-260.195	410.210	0.247	0.518
-259.180	-200.000	-0.026	0.161
-258.165	87.383	0.095	0.105
-257.151	94.499	0.134	0.151
-256.136	-31.429	0.068	-0.038
-255.122	-200.000	0.008	-0.241
-254.107	-63.097	0.263	0.108
-253.092	490.810	-0.100	0.226
-252.078	-163.021	-0.309	-0.015
-251.063	-7.839	-0.306	-0.205
-250.049	800.000	0.094	0.405
-249.034	122.209	-0.079	-0.098
-248.019	-42.623	-0.236	0.119
-247.005	601.539	-0.067	-0.165
-245.990	800.000	0.010	0.030
-244.976	-200.000	0.005	0.099
-243.961	800.000	-0.020	0.083
-242.946	259.945	0.008	0.014
-241.932	-26.793	0.054	-0.031
-240.917	800.000	0.075	0.256
-239.903	-200.000	0.009	0.241
-238.888	204.890	-0.146	-0.224
-237.873	55.788	0.126	0.121
-236.859	-181.865	0.098	-0.002
-235.844	42.826	-0.156	-0.141
-234.830	183.038	-0.133	-0.194
-233.815	86.232	-0.197	-0.215
-232.800	-87.511	0.268	0.080
-231.786	-96.431	0.411	0.108
-230.771	212.257	0.048	-0.075
-229.757	-62.647	0.370	0.152
-228.742	-137.027	0.204	-0.023
-227.727	-200.000	0.006	0.056
-226.713	710.600	0.061	-0.159
-225.698	329.066	0.061	-0.115
-224.684	-197.544	0.133	-0.001
-223.669	631.858	0.096	0.241
-222.655	800.000	0.082	-0.264
-221.640	-14.798	0.189	0.120
-220.625	545.849	0.045	0.107
-219.611	800.000	-0.132	0.361
-218.596	-78.560	-0.340	0.115
-217.582	112.080	-0.112	-0.134
-216.567	702.062	-0.124	-0.322
-215.552	275.869	-0.058	0.102
-214.538	234.278	0.108	0.176
-213.523	-64.208	-0.032	-0.013
-212.509	-23.156	0.183	-0.109
-211.494	-127.309	-0.293	0.042
-210.479	200.399	-0.082	-0.124
-209.465	-153.909	0.318	-0.021
-208.450	462.281	-0.047	-0.104
-207.436	67.673	0.190	-0.192
-206.421	-200.000	0.003	-0.153
-205.406	-200.000	0.057	0.359
-204.392	23.168	-0.071	-0.057
-203.377	-104.604	0.272	-0.062
-202.363	-14.304	-0.118	0.075
-201.348	85.077	-0.160	-0.174
-200.333	-52.428	0.209	0.096
-199.319	263.193	0.121	-0.208
-198.304	-171.784	0.044	-0.001
-197.290	-129.920	-0.197	0.027
-196.275	800.000	0.021	0.058
-195.260	-200.000	0.005	-0.174
-194.246	-87.322	0.228	-0.069
-193.231	800.000	-0.070	-0.195
-192.217	-198.310	0.169	0.001
-191.202	-107.112	0.162	0.035
-190.187	319.963	-0.332	-0.623
-189.173	70.480	0.180	-0.183
-188.158	-200.000	0.071	0.339
-187.144	56.414	0.267	-0.256
-186.129	-96.496	0.400	-0.104
-185.114	-40.507	-0.016	-0.008
-184.100	777.854	-0.034	-0.093
-183.085	-46.881	0.148	-0.072
-182.071	-60.964	0.247	0.103
-181.056	110.437	-0.182	-0.216
-180.042	-63.835	0.206	0.083
-179.027	93.169	-0.094	-0.105
-178.012	-79.889	0.180	-0.060
-176.998	-92.301	0.297	-0.083
-175.983	-100.507	-0.310	-0.076
-174.969	103.827	0.154	-0.179
-173.954	800.000	0.059	0.204
-172.939	-200.000	-0.066	0.331
-171.925	800.000	0.110	-0.323
-170.910	83.993	0.107	-0.115
-169.896	-200.000	0.023	0.136
-168.881	800.000	-0.024	0.068
-167.866	-117.760	0.134	0.024
-166.852	294.016	-0.076	0.137
-165.837	352.030	-0.066	-0.130
-164.823	-128.400	-0.044	0.006
-163.808	-101.685	0.095	0.023
-162.793	243.214	-0.064	-0.105
-161.779	-60.806	0.184	0.077
-160.764	22.206	0.254	-0.205
-159.750	427.574	-0.079	-0.168
-158.735	-41.421	-0.405	0.206
-157.720	63.955	0.109	0.108
-156.706	-200.000	-0.423	-0.000
-155.691	-32.497	0.203	-0.112
-154.677	-18.357	-0.250	-0.154
-153.662	-200.000	-0.040	0.180
-152.647	-119.691	0.322	-0.055
-151.633	-200.000	-0.069	0.375
-150.618	-38.999	0.310	0.161
-149.604	-73.945	0.300	0.108
-148.589	-131.105	-0.228	0.030
-147.574	-200.000	-0.016	0.101
-146.560	800.000	0.049	0.182
-145.545	800.000	0.121	-0.355
-144.531	800.000	-0.065	-0.190
-143.516	499.925	-0.063	0.144
-142.502	-200.000	-0.005	0.254
-141.487	-36.285	-0.160	0.085
-140.472	-200.000	-0.020	0.127
-139.458	79.077	0.248	0.262
-138.443	-110.399	0.124	-0.026
-137.429	-22.251	-0.190	0.114
-136.414	-200.000	-0.044	0.411
-135.399	519.751	-0.088	0.205
-134.385	800.000	0.061	0.193
-133.370	-200.000	-0.040	-0.416
-132.356	-64.722	0.107	0.043
-131.341	-30.887	-0.105	0.059
-130.326	800.000	-0.016	0.051
-129.312	-31.222	-0.287	0.160
-128.297	62.194	0.229	0.225
-127.283	-200.000	0.041	0.382
-126.268	332.888	-0.339	0.646
-125.253	-23.016	-0.125	0.074
-124.239	37.033	0.223	0.195
-123.224	81.647	-0.342	0.365
-122.210	646.721	0.105	-0.264
-121.195	-38.424	0.162	0.085
-120.180	-148.223	0.072	0.006
-119.166	-1.230	-0.199	0.139
-118.151	-36.407	0.526	-0.279
-117.137	262.746	0.062	-0.107
-116.122	171.315	0.185	0.262
-115.107	107.910	-0.072	0.085
-114.093	-200.000	-0.030	0.219
-113.078	-48.893	-0.116	0.055
-112.064	483.153	0.162	0.364
-111.049	575.366	-0.091	-0.218
-110.034	-149.598	0.284	-0.022
-109.020	6.101	0.135	0.099
-108.005	-79.255	-0.463	0.155
-106.991	-158.545	-0.242	-0.014
-105.976	85.658	0.135	-0.147
-104.962	242.029	0.019	0.032
-103.947	781.627	0.119	0.320
-102.932	187.678	-0.035	-0.052
-101.918	-200.000	-0.040	0.400
-100.903	141.886	0.045	-0.059
-99.889	-200.000	-0.012	0.219
-98.874	-161.791	-0.153	-0.008
-97.859	-200.000	0.047	0.259
-96.845	-200.000	0.006	0.201
-95.830	-200.000	-0.066	-0.299
-94.816	-89.663	-0.188	-0.054
-93.801	-122.894	0.164	-0.026
-92.786	147.147	-0.265	0.352
-91.772	-15.538	0.160	-0.101
-90.757	-200.000	0.010	-0.154
-89.743	-152.629	0.174	0.012
-88.728	-107.428	0.237	0.051
-87.713	234.705	0.155	-0.252
-86.699	-200.000	0.014	-0.280
-85.684	-37.684	0.285	-0.149
-84.670	-130.084	0.114	-0.015
-83.655	-58.173	0.135	0.058
-82.640	301.702	-0.219	0.398
-81.626	176.742	-0.157	0.225
-80.611	59.676	-0.090	-0.087
-79.597	339.637	-0.061	-0.118
-78.582	9.683	0.046	-0.034
-77.567	800.000	0.039	0.120
-76.553	278.987	0.151	-0.264
-75.538	-40.037	0.143	0.074
-74.524	362.782	0.046	-0.090
-73.509	800.000	0.118	0.331
-72.494	-147.735	-0.185	-0.015
-71.480	-96.523	0.298	-0.077
-70.465	-112.132	-0.126	0.025
-69.451	456.425	0.072	-0.158
-68.436	-47.690	0.182	-0.087
-67.422	-186.455	-0.266	0.004
-66.407	183.860	-0.187	-0.272
-65.392	268.298	0.037	0.063
-64.378	127.021	0.139	0.173
-63.363	-80.414	-0.230	-0.076
-62.349	-156.440	0.171	0.010
-61.334	29.573	-0.919	-0.769
-60.319	162.996	0.567	0.783
-59.305	173.394	-0.571	-0.810
-58.290	425.245	0.633	1.340
-57.276	705.862	0.712	1.848
-56.261	-200.000	105.583	572.381
-55.246	447.456	1466.256	3172.636
-54.232	147.052	2658.534	3515.891
-53.217	106.351	2168.193	2526.218
-52.203	41.143	1611.711	1431.606
-51.188	32.857	1348.690	1147.794
-50.173	29.814	1306.634	1093.995
-49.159	53.212	1359.180	1279.730
-48.144	53.611	1375.002	1296.983
-47.130	33.099	1330.634	1133.704
-46.115	29.754	1312.904	1098.717
-45.100	29.439	1308.460	1093.088
-44.086	29.376	1305.939	1090.565
-43.071	29.288	1303.823	1088.235
-42.057	29.319	1301.442	1086.386
-41.042	29.357	1299.654	1085.073
-40.027	29.409	1298.204	1084.129
-39.013	29.385	1295.895	1082.015
-37.998	29.418	1294.116	1080.681
-36.984	29.441	1292.880	1079.743
-35.969	29.547	1290.674	1078.476
-34.954	29.505	1289.770	1077.434
-33.940	29.547	1287.840	1076.024
-32.925	29.552	1286.696	1075.054
-31.911	29.703	1284.913	1074.400
-30.896	29.654	1283.728	1073.078
-29.881	29.646	1282.643	1072.085
-28.867	29.711	1280.710	1070.804
-27.852	29.636	1279.370	1069.205
-26.838	29.596	1278.202	1067.954
-25.823	29.590	1276.590	1066.531
-24.809	29.499	1275.947	1065.429
-23.794	29.565	1274.612	1064.652
-22.779	29.556	1273.228	1063.399
-21.765	29.581	1271.935	1062.422
-20.750	29.536	1270.558	1060.972
-19.736	29.565	1269.060	1059.845
-18.721	29.472	1268.231	1058.573
-17.706	29.508	1266.862	1057.600
-16.692	29.401	1266.183	1056.374
-15.677	29.497	1264.984	1055.881
-14.663	29.502	1263.391	1054.537
-13.648	29.412	1262.568	1053.296
-12.633	29.346	1261.585	1052.058
-11.619	29.364	1260.763	1051.437
-10.604	29.522	1259.600	1051.323
-9.590	29.364	1258.686	1049.618
-8.575	29.409	1257.731	1049.034
-7.560	29.484	1256.728	1048.586
-6.546	29.345	1256.324	1047.419
-5.531	29.371	1255.192	1046.577
-4.517	29.412	1254.577	1046.259
-3.502	29.449	1253.403	1045.444
-2.487	29.450	1252.647	1044.778
-1.473	29.502	1248.515	1041.585
-0.458	28.316	1233.928	1022.756
0.556	23.076	1217.566	985.486
1.571	19.581	1223.723	970.770
2.586	18.675	1238.056	976.901
3.600	18.517	1226.882	967.110
4.615	13.617	1153.495	883.128
5.629	4.636	1077.770	780.190
6.644	0.561	1057.229	745.166
7.659	0.047	1055.194	741.137
8.673	-0.055	1054.419	740.022
9.688	0.099	1052.197	739.153
10.702	0.362	1050.439	739.143
11.717	5.535	1058.056	769.937
12.731	14.051	1068.390	819.533
13.746	17.245	1072.567	838.447
14.761	16.984	1071.308	836.100
15.775	16.183	1068.875	830.191
16.790	14.877	1067.692	822.771
17.804	14.250	1065.799	818.162
18.819	13.923	1064.533	815.510
19.834	13.644	1063.984	813.647
20.848	13.423	1062.689	811.502
21.863	13.197	1062.080	809.860
22.877	13.170	1060.615	808.539
23.892	12.972	1060.529	807.432
24.907	13.018	1059.520	806.819
25.921	13.126	1059.069	806.929
26.936	12.930	1058.215	805.254
27.950	13.107	1057.264	805.321
28.965	13.245	1055.930	804.905
29.980	13.096	1055.070	803.452
30.994	13.360	1053.421	803.406
32.009	13.307	1052.698	802.529
33.023	13.226	1051.972	801.509
34.038	13.251	1050.296	800.283
35.053	13.205	1049.758	799.580
36.067	13.179	1049.247	798.994
37.082	13.274	1048.513	798.822
38.096	13.292	1047.592	798.138
39.111	13.118	1046.907	796.707
40.126	13.158	1045.633	795.860
41.140	13.064	1044.502	794.479
42.155	13.088	1042.990	793.373
43.169	12.950	1042.115	791.975
44.184	13.080	1041.440	792.012
45.199	12.950	1040.683	790.743
46.213	13.059	1039.226	790.087
47.228	13.168	1038.208	789.766
48.242	13.032	1037.426	788.455
49.257	13.122	1036.390	788.027
50.271	13.153	1035.722	787.594
51.286	13.254	1034.450	787.038
52.301	13.199	1033.596	786.059
53.315	13.067	1032.689	784.670
54.330	13.143	1031.490	784.054
55.344	13.054	1030.889	783.105
56.359	13.005	1030.186	782.270
57.374	13.198	1028.920	782.152
58.388	13.018	1028.230	780.705
59.403	12.958	1027.924	780.121
60.417	12.975	1026.953	779.394
61.432	13.016	1026.001	778.797
62.447	12.925	1025.387	777.834
63.461	13.046	1024.254	777.476
64.476	13.021	1023.162	776.462
65.490	12.865	1022.722	775.325
66.505	12.921	1022.285	775.185
67.520	12.897	1021.505	774.412
68.534	13.035	1020.667	774.357
69.549	12.924	1020.170	773.393
70.563	12.908	1019.314	772.599
71.578	12.869	1018.347	771.613
72.593	12.927	1017.490	771.169
73.607	12.928	1017.053	770.772
74.622	12.837	1016.523	769.880
75.636	12.846	1015.641	769.187
76.651	12.979	1014.635	768.976
77.666	12.912	1014.426	768.437
78.680	12.955	1013.984	768.234
79.695	13.010	1013.026	767.695
80.709	12.915	1012.717	766.953
81.724	12.885	1012.322	766.446
82.739	13.019	1011.388	766.291
83.753	13.169	1010.565	766.296
84.768	13.218	1009.508	765.655
85.782	13.190	1008.787	764.911
86.797	13.213	1007.328	763.842
87.812	13.148	1006.937	763.179
88.826	13.169	1005.823	762.361
89.841	13.234	1004.756	761.787
90.855	13.300	1003.979	761.437
91.870	13.118	1003.393	760.083
92.884	13.187	1002.510	759.667
93.899	13.283	1001.396	759.195
94.914	13.258	1000.873	758.620
95.928	13.146	1000.429	757.699
96.943	13.289	999.213	757.367
97.957	13.267	998.285	756.495
98.972	13.375	997.411	756.261
99.987	13.189	996.597	754.728
101.001	13.247	995.675	754.227
102.016	13.279	994.745	753.600
103.030	13.194	994.276	752.792
104.045	13.279	993.263	752.343
105.060	13.317	992.371	751.774
106.074	13.164	991.142	750.086
107.089	13.077	990.199	748.911
108.103	13.048	989.282	748.018
109.118	13.166	988.321	747.761
110.133	13.042	987.735	746.687
111.147	13.019	986.810	745.821
112.162	12.961	986.351	745.146
113.176	13.166	985.355	745.253
114.191	13.212	984.681	744.881
115.206	13.078	984.173	743.831
116.220	13.205	982.974	743.427
117.235	13.182	982.344	742.782
118.249	13.256	981.058	742.075
119.264	13.123	980.841	741.252
120.279	13.088	980.119	740.483
121.293	13.141	978.750	739.618
122.308	13.171	977.803	738.971
123.322	13.103	976.902	737.924
124.337	13.047	976.577	737.359
125.352	13.007	975.328	736.177
126.366	13.161	974.206	735.950
127.381	13.156	973.023	734.968
128.395	13.256	971.897	734.497
129.410	13.076	971.409	733.263
130.424	13.209	970.698	733.254
131.439	13.289	969.423	732.577
132.454	13.242	968.930	731.932
133.468	13.138	968.297	730.931
134.483	13.151	967.070	729.995
135.497	13.148	966.540	729.519
136.512	13.303	965.358	729.247
137.527	13.210	964.501	728.125
138.541	13.194	963.936	727.565
139.556	13.197	963.336	727.057
140.570	13.279	962.599	726.796
141.585	13.325	961.886	726.396
142.600	13.403	960.493	725.623
143.614	13.338	959.785	724.741
144.629	13.396	959.286	724.552
145.643	13.377	958.411	723.747
146.658	13.403	957.124	722.824
147.673	13.232	956.633	721.643
148.687	13.310	955.784	721.277
149.702	13.239	954.965	720.287
150.716	13.275	954.107	719.733
151.731	13.293	953.555	719.331
152.746	13.418	952.631	719.113
153.760	13.344	951.958	718.218
154.775	13.276	951.522	717.534
155.789	13.520	950.582	717.820
156.804	13.499	950.409	717.534
157.819	13.575	948.867	716.631
158.833	13.560	948.442	716.184
159.848	13.570	947.783	715.667
160.862	13.580	947.071	715.109
161.877	13.411	946.285	713.723
162.892	13.330	945.189	712.485
163.906	13.231	944.542	711.509
164.921	13.419	943.615	711.554
165.935	13.530	942.450	711.090
166.950	13.485	941.752	710.305
167.964	13.518	940.703	709.596
168.979	13.401	939.893	708.420
169.994	13.491	939.009	708.074
171.008	13.442	938.911	707.730
172.023	13.459	938.029	707.075
173.037	13.556	937.285	706.865
174.052	13.569	936.676	706.401
175.067	13.544	935.919	705.658
176.081	13.504	935.633	705.211
177.096	13.478	934.784	704.399
178.110	13.528	934.045	703.993
179.125	13.592	933.228	703.585
180.140	13.616	933.096	703.526
181.154	13.609	932.762	703.180
182.169	13.630	932.105	702.711
183.183	13.682	931.178	702.171
184.198	13.725	930.430	701.728
185.213	13.768	930.035	701.551
186.227	13.747	929.249	700.807
187.242	13.795	928.952	700.723
188.256	13.851	928.065	700.228
189.271	13.714	927.634	699.264
190.286	13.547	926.415	697.577
191.300	13.569	925.629	697.017
192.315	13.530	925.168	696.446
193.329	13.679	924.358	696.400
194.344	13.574	924.215	695.788
195.359	13.670	923.387	695.506
196.373	13.729	922.752	695.213
197.388	13.701	922.680	694.980
198.402	13.812	922.127	694.968
199.417	14.030	920.812	694.826
200.432	13.980	920.334	694.197
201.446	13.958	920.278	694.000
202.461	13.904	919.949	693.466
203.475	14.014	918.933	693.095
204.490	13.984	918.003	692.211
205.504	13.896	917.710	691.559
206.519	13.814	916.820	690.488
207.534	13.982	915.993	690.502
208.548	13.994	915.439	690.075
209.563	13.921	915.264	689.576
210.577	14.007	914.325	689.165
211.592	14.090	913.411	688.759
212.607	14.195	912.385	688.360
213.621	14.211	911.645	687.805
214.636	14.064	911.350	686.915
215.650	14.113	910.423	686.360
216.665	14.249	909.607	686.242
217.680	14.309	909.016	685.984
218.694	14.329	908.436	685.568
219.709	14.242	907.642	684.549
220.723	14.250	907.211	684.197
221.738	14.233	906.639	683.634
222.753	14.123	906.246	682.827
223.767	14.295	905.275	682.738
224.782	14.385	904.336	682.341
225.796	14.377	903.905	681.921
226.811	14.398	903.522	681.657
227.826	14.300	902.620	680.516
228.840	14.385	901.653	680.074
229.855	14.147	901.526	678.949
230.869	14.242	900.998	678.879
231.884	14.302	899.564	677.983
232.899	14.256	899.006	677.312
233.913	14.197	898.603	676.709
234.928	14.204	897.979	676.208
235.942	14.139	897.830	675.772
236.957	14.357	896.545	675.628
237.972	14.350	896.196	675.277
238.986	14.275	895.691	674.536
240.001	14.394	894.605	674.137
241.015	14.347	894.285	673.648
242.030	14.464	893.240	673.272
243.045	14.478	892.846	672.974
244.059	14.357	892.526	672.182
245.074	14.436	891.799	671.895
246.088	14.460	890.815	671.190
247.103	14.518	890.428	671.073
248.117	14.535	890.021	670.777
249.132	14.678	889.492	670.895
250.147	14.779	888.423	670.432
251.161	14.718	888.100	669.883
252.176	14.763	887.367	669.453
253.190	14.685	886.893	668.723
254.205	14.946	885.717	668.821
255.220	14.874	885.173	668.064
256.234	14.859	884.828	667.684
257.249	14.875	883.954	667.031
258.263	14.622	883.671	665.748
259.278	14.783	882.805	665.679
260.293	14.924	881.960	665.544
261.307	14.898	882.311	665.645
262.322	15.020	881.074	665.139
263.336	14.999	880.055	664.229
264.351	14.978	879.703	663.819
265.366	14.984	879.228	663.428
266.380	15.040	878.228	662.835
267.395	14.936	877.835	662.067
268.409	15.127	876.801	661.983
269.424	15.072	876.191	661.248
270.439	14.970	875.586	660.332
271.453	14.934	874.897	659.610
272.468	15.096	874.108	659.595
273.482	14.967	873.765	658.771
274.497	15.008	873.261	658.493
275.512	15.002	873.018	658.227
276.526	15.142	872.111	658.037
277.541	15.037	871.570	657.157
278.555	15.058	871.411	657.062
279.570	15.213	870.308	656.779
280.585	15.268	869.569	656.379
281.599	15.319	868.307	655.567
282.614	15.372	867.865	655.382
283.628	15.333	867.745	655.081
284.643	15.127	867.206	653.816
285.657	15.080	866.453	653.004
286.672	15.268	865.817	653.199
287.687	15.246	865.253	652.630
288.701	15.242	865.124	652.462
289.716	15.291	864.278	651.957
290.730	15.263	863.710	651.359
291.745	15.318	862.901	650.907
292.760	15.449	862.540	651.086
293.774	15.427	861.836	650.408
294.789	15.375	861.019	649.534
295.803	15.361	860.388	648.948
296.818	15.463	859.844	648.873
297.833	15.401	859.148	648.052
298.847	15.462	858.269	647.566
299.862	15.526	857.528	647.197
300.876	15.362	857.718	646.649
301.891	15.495	857.237	646.742
302.906	15.551	856.254	646.162
303.920	15.603	855.710	645.892
304.935	15.672	854.969	645.542
305.949	15.583	854.238	644.589
306.964	15.611	853.891	644.378
307.979	15.632	853.425	644.051
308.993	15.662	852.975	643.768
310.008	15.699	852.038	643.146
311.022	15.643	852.013	642.854
312.037	15.658	851.072	642.146
313.052	15.608	850.411	641.400
314.066	15.738	850.015	641.539
315.081	15.608	849.655	640.717
316.095	15.645	848.890	640.226
317.110	15.690	848.044	639.702
318.125	15.528	847.716	638.781
319.139	15.695	847.660	639.316
320.154	15.839	846.934	639.259
321.168	15.707	846.234	638.172
322.183	15.790	845.473	637.858
323.197	15.810	845.119	637.609
324.212	15.887	844.443	637.335
325.227	15.772	844.263	636.706
326.241	15.820	843.448	636.218
327.256	15.739	843.217	635.681
328.270	15.832	841.933	635.009
329.285	15.796	841.668	634.614
330.300	15.780	841.561	634.419
331.314	15.806	841.100	634.112
332.329	15.803	840.322	633.460
333.343	15.870	839.755	633.227
334.358	15.835	839.590	632.916
335.373	15.958	838.941	632.834
336.387	15.940	838.549	632.413
337.402	15.937	838.488	632.302
338.416	16.029	838.267	632.423
339.431	16.114	837.612	632.191
340.446	15.995	837.332	631.477
341.460	15.980	837.313	631.352
342.475	16.152	836.304	631.177
343.489	16.238	835.643	630.945
344.504	16.074	835.580	630.228
345.519	16.232	834.840	630.205
346.533	16.142	834.616	629.644
347.548	16.061	833.958	628.791
348.562	16.153	833.514	628.742
349.577	16.085	832.673	627.799
350.592	16.205	832.013	627.692
351.606	16.121	831.746	627.123
352.621	16.186	830.842	626.629
353.635	16.240	830.255	626.330
354.650	16.305	829.562	625.992
355.665	16.363	828.746	625.539
356.679	16.397	828.413	625.355
357.694	16.373	827.650	624.635
358.708	16.394	826.990	624.158
359.723	16.355	826.294	623.438
360.738	16.396	825.958	623.277
361.752	16.162	825.671	622.145
362.767	16.406	824.830	622.354
363.781	16.418	824.562	622.141
364.796	16.556	823.736	621.969
365.810	16.512	823.510	621.581
366.825	16.537	823.070	621.287
367.840	16.567	822.489	620.904
368.854	16.471	822.358	620.397
369.869	16.423	822.068	619.948
370.883	16.619	820.825	619.673
371.898	16.668	821.103	620.007
372.913	16.695	820.612	619.680
373.927	16.730	819.755	619.105
374.942	16.706	819.634	618.871
375.956	16.702	819.278	618.536
376.971	16.747	818.595	618.131
377.986	16.729	818.518	617.951
379.000	16.815	817.622	617.531
380.015	16.891	817.178	617.417
381.029	16.863	816.427	616.695
382.044	16.840	815.935	616.187
383.059	16.886	815.476	615.950
384.073	16.930	814.949	615.660
385.088	16.749	814.307	614.461
386.102	16.869	813.647	614.345
387.117	16.735	813.397	613.618
388.132	16.791	812.703	613.242
389.146	16.725	812.335	612.672
390.161	17.007	811.519	613.021
391.175	16.968	811.482	612.796
392.190	16.901	810.580	611.821
393.205	16.968	810.008	611.577
394.219	16.856	810.123	611.206
395.234	16.743	810.073	610.705
396.248	16.714	809.390	610.033
397.263	16.709	809.006	609.669
398.278	16.782	808.356	609.389
399.292	16.820	807.817	609.067
400.307	16.840	807.595	608.917
401.321	16.791	807.195	608.384
402.336	16.879	806.724	608.290
403.350	16.918	806.048	607.867
404.365	16.959	805.431	607.497
405.380	17.089	805.072	607.637
406.394	16.970	804.589	606.793
407.409	17.143	803.821	606.778
408.423	17.126	804.084	606.863
409.438	17.179	803.466	606.530
410.453	17.295	802.620	606.251
411.467	17.207	802.509	605.800
412.482	17.284	802.118	605.726
413.496	17.372	801.498	605.519
414.511	17.432	801.191	605.444
415.526	17.381	800.777	604.899
416.540	17.289	800.297	604.157
417.555	17.408	799.536	603.950
418.569	17.316	799.586	603.609
419.584	17.390	799.115	603.460
420.599	17.363	798.877	603.131
421.613	108.910	1291.489	1468.025
422.628	93.681	1363.235	1468.109
