DTS Sentinel unit serial number:	SN413079Multiplexer serial number:	ORYXHardware model number:	OX4-SRSoftware version number:	ORYX F/W v4.00 Oryx Data Collector v3.7.2.0data status	okinstallation	princeton_trtdifferential loss correction	single-endedforward channel	channel 1reverse channel	N/Adate	2019/09/13time	07:54:35forward acquisition time	60.00reverse acquisition time	0.00gamma	496.2192k internal	0.2333k external	0.2333temperature offset calibration	1.0159default loss term (dB/km)	0.3790temperature slope calibration	1.0000multiplexer offset coefficient	1.0000multiplexer slope coefficient	1.0000fibre end	0.00T internal ref (°C)	26.69T ext. ref 1 (°C)	4.22T ext. ref 2 (°C)	23.20length (m)	temperature (°C)	Stokes	anti-Stokes-747.200	-156.293	0.237	-0.015
-746.185	-200.000	-0.015	0.169
-745.171	95.371	-0.139	-0.160
-744.156	36.909	0.144	0.128
-743.142	116.497	-0.185	-0.228
-742.127	102.711	-0.132	0.155
-741.112	800.000	-0.041	0.118
-740.098	-77.275	-0.159	-0.056
-739.083	-200.000	0.017	0.124
-738.069	206.899	0.068	0.107
-737.054	-200.000	0.039	-0.206
-736.039	69.286	-0.371	-0.384
-735.025	800.000	0.024	0.099
-734.010	29.673	-0.168	0.144
-732.996	335.686	0.102	-0.198
-731.981	-40.672	-0.020	-0.010
-730.966	-13.696	-0.342	-0.222
-729.952	800.000	0.051	0.179
-728.937	-30.385	-0.255	-0.146
-727.923	-200.000	0.041	-0.368
-726.908	-117.362	-0.494	0.090
-725.894	146.797	0.232	-0.314
-724.879	-0.910	0.103	0.073
-723.864	-61.427	-0.237	-0.100
-722.850	39.566	0.074	-0.067
-721.835	779.918	-0.057	-0.158
-720.821	130.009	0.064	-0.083
-719.806	302.133	-0.222	-0.412
-718.791	800.000	0.058	-0.175
-717.777	-52.857	-0.105	-0.048
-716.762	-86.299	-0.275	-0.085
-715.748	-65.689	0.265	0.107
-714.733	-97.457	-0.185	-0.048
-713.718	-28.980	0.163	-0.094
-712.704	-86.925	-0.123	-0.038
-711.689	-200.000	0.044	-0.251
-710.675	22.738	0.194	0.159
-709.660	800.000	-0.114	-0.329
-708.645	-190.789	-0.305	-0.003
-707.631	-64.503	0.260	-0.106
-706.616	-17.046	0.214	0.136
-705.602	645.787	0.065	-0.166
-704.587	-77.987	0.220	-0.076
-703.572	368.437	-0.115	-0.233
-702.558	173.877	0.171	0.248
-701.543	40.341	0.166	0.150
-700.529	-83.459	-0.058	-0.019
-699.514	800.000	0.101	0.308
-698.499	59.905	0.096	0.095
-697.485	-200.000	0.015	0.246
-696.470	-200.000	0.025	-0.122
-695.456	-23.582	-0.235	-0.141
-694.441	195.255	0.085	0.130
-693.426	-200.000	-0.028	0.264
-692.412	40.897	0.044	-0.040
-691.397	185.264	-0.225	0.336
-690.383	-200.000	0.002	0.090
-689.368	92.229	0.241	-0.272
-688.354	-69.662	0.229	-0.088
-687.339	20.332	0.374	-0.303
-686.324	-162.418	-0.090	0.004
-685.310	-200.000	-0.014	-0.110
-684.295	588.597	-0.105	0.260
-683.281	-200.000	-0.011	-0.287
-682.266	-16.957	-0.166	0.105
-681.251	-98.357	-0.128	-0.033
-680.237	211.999	0.124	-0.196
-679.222	-200.000	-0.022	0.101
-678.208	-200.000	-0.027	-0.173
-677.193	-44.296	0.175	0.088
-676.178	-138.050	-0.199	-0.022
-675.164	699.571	0.087	0.231
-674.149	72.730	0.204	0.214
-673.135	-29.098	0.100	0.057
-672.120	425.864	0.064	0.139
-671.105	800.000	-0.019	-0.079
-670.091	800.000	0.047	0.191
-669.076	-200.000	-0.051	-0.356
-668.062	338.409	-0.009	-0.017
-667.047	53.657	0.115	0.110
-666.032	-10.530	-0.232	-0.154
-665.018	800.000	-0.030	0.088
-664.003	261.922	-0.154	-0.267
-662.989	146.264	-0.108	0.145
-661.974	-129.804	0.276	-0.038
-660.959	-181.122	-0.085	0.002
-659.945	-124.082	-0.349	0.055
-658.930	-144.117	0.491	-0.046
-657.916	242.358	-0.215	-0.361
-656.901	-200.000	-0.047	-0.363
-655.886	800.000	0.029	0.125
-654.872	-98.452	0.183	-0.047
-653.857	-127.299	0.077	0.011
-652.843	-158.461	-0.208	0.012
-651.828	144.497	-0.187	-0.250
-650.814	-78.817	0.082	0.028
-649.799	9.755	0.099	-0.075
-648.784	-177.006	0.285	0.007
-647.770	-109.057	0.179	0.038
-646.755	800.000	0.078	-0.296
-645.741	334.942	-0.007	-0.014
-644.726	-126.926	0.224	-0.033
-643.711	-200.000	-0.034	-0.222
-642.697	200.300	-0.169	0.261
-641.682	-124.043	-0.348	-0.055
-640.668	-161.489	0.203	-0.010
-639.653	-69.054	0.077	0.030
-638.638	-82.428	0.247	-0.080
-637.624	-1.185	0.145	-0.102
-636.609	-133.172	0.166	-0.021
-635.595	-87.289	-0.516	-0.157
-634.580	42.604	-0.232	0.211
-633.565	15.835	0.159	-0.125
-632.551	96.788	-0.124	-0.142
-631.536	56.122	0.089	-0.087
-630.522	-156.924	0.211	0.013
-629.507	48.691	0.212	0.199
-628.492	53.928	0.067	0.064
-627.478	-53.674	0.074	0.034
-626.463	55.816	0.262	-0.254
-625.449	-9.867	0.190	0.127
-624.434	132.457	-0.155	0.200
-623.419	800.000	0.035	0.122
-622.405	-102.870	-0.233	0.056
-621.390	-96.263	-0.403	0.107
-620.376	-142.234	-0.131	0.013
-619.361	-61.757	-0.025	-0.011
-618.346	-76.920	0.211	-0.074
-617.332	800.000	-0.121	0.428
-616.317	-28.436	-0.307	-0.177
-615.303	-141.153	-0.283	-0.029
-614.288	738.840	-0.077	-0.208
-613.273	186.367	-0.092	-0.137
-612.259	-81.376	0.284	-0.094
-611.244	-31.288	0.256	-0.144
-610.230	-160.961	-0.165	-0.009
-609.215	800.000	0.062	-0.227
-608.201	64.720	0.131	-0.132
-607.186	-200.000	0.014	-0.169
-606.171	80.924	0.064	-0.069
-605.157	-98.266	0.214	0.055
-604.142	-113.525	-0.331	0.065
-603.128	-200.000	-0.038	0.351
-602.113	-200.000	-0.039	0.220
-601.098	-88.268	-0.400	-0.120
-600.084	-200.000	-0.055	-0.377
-599.069	362.456	-0.128	0.257
-598.055	-90.179	0.041	0.012
-597.040	-135.295	0.187	-0.022
-596.025	-164.907	-0.330	-0.015
-595.011	206.212	-0.100	-0.155
-593.996	-200.000	-0.079	0.404
-592.982	316.379	0.107	0.203
-591.967	-20.178	0.202	-0.124
-590.952	173.429	0.182	0.263
-589.938	-146.226	0.357	0.031
-588.923	-109.963	-0.330	0.069
-587.909	-200.000	0.014	-0.064
-586.894	-43.760	0.299	-0.151
-585.879	-76.229	-0.245	0.086
-584.865	-11.268	-0.189	0.124
-583.850	-66.095	0.378	-0.151
-582.836	-200.000	0.049	0.288
-581.821	567.948	0.148	0.358
-580.806	-137.956	-0.073	0.008
-579.792	-84.752	-0.152	0.048
-578.777	-146.385	-0.068	0.006
-577.763	55.684	-0.200	-0.194
-576.748	-200.000	-0.005	-0.120
-575.733	132.074	0.115	-0.149
-574.719	800.000	0.086	-0.354
-573.704	-200.000	0.021	-0.223
-572.690	267.792	0.132	-0.231
-571.675	-51.880	0.130	0.060
-570.661	-170.469	0.175	0.006
-569.646	79.184	0.182	-0.194
-568.631	-13.388	-0.178	0.115
-567.617	-14.424	0.281	0.181
-566.602	-104.629	-0.062	0.014
-565.588	-97.872	-0.145	0.037
-564.573	-19.231	-0.066	0.041
-563.558	-1.324	0.160	0.113
-562.544	-200.000	-0.040	-0.471
-561.529	-79.405	-0.450	-0.152
-560.515	27.314	0.044	-0.037
-559.500	301.212	0.135	0.248
-558.485	-75.643	0.300	0.107
-557.471	-170.683	-0.286	-0.010
-556.456	-200.000	0.038	0.421
-555.442	-43.664	0.238	-0.120
-554.427	65.472	-0.011	0.011
-553.412	204.387	-0.205	-0.318
-552.398	-200.000	-0.054	-0.493
-551.383	-117.394	0.239	-0.043
-550.369	-68.154	0.450	-0.175
-549.354	204.384	-0.081	-0.125
-548.339	31.004	0.119	-0.102
-547.325	-42.059	0.115	-0.059
-546.310	44.035	0.118	-0.108
-545.296	-82.064	-0.258	0.084
-544.281	195.877	0.158	0.240
-543.266	-200.000	0.054	0.314
-542.252	-24.534	0.204	0.121
-541.237	190.450	-0.076	0.114
-540.223	-98.776	-0.178	0.045
-539.208	-200.000	0.018	0.191
-538.193	-200.000	0.018	-0.167
-537.179	-52.551	-0.194	0.089
-536.164	-111.483	-0.185	-0.038
-535.150	-141.086	-0.197	-0.020
-534.135	251.693	0.147	-0.250
-533.121	-18.547	-0.032	-0.020
-532.106	800.000	-0.124	-0.377
-531.091	-84.143	0.096	-0.030
-530.077	-50.097	0.232	0.110
-529.062	-141.951	-0.101	0.010
-528.048	-200.000	-0.018	-0.169
-527.033	72.352	-0.121	-0.126
-526.018	-102.654	-0.282	-0.067
-525.004	55.135	0.180	0.173
-523.989	412.080	0.152	0.322
-522.975	-200.000	-0.004	-0.062
-521.960	-200.000	0.025	0.140
-520.945	31.195	-0.222	-0.190
-519.931	11.676	0.073	0.056
-518.916	-200.000	-0.021	-0.207
-517.902	107.240	-0.227	0.269
-516.887	365.597	-0.128	-0.257
-515.872	168.686	0.204	0.289
-514.858	3.800	0.260	0.189
-513.843	-200.000	-0.013	-0.165
-512.829	43.361	-0.035	0.032
-511.814	-137.481	0.099	-0.011
-510.799	-70.062	-0.020	0.008
-509.785	-200.000	0.003	0.115
-508.770	9.840	-0.364	-0.276
-507.756	-85.254	0.211	-0.066
-506.741	106.781	0.092	0.108
-505.726	-160.386	0.263	0.014
-504.712	218.785	-0.189	-0.301
-503.697	-146.370	-0.253	-0.022
-502.683	-83.844	-0.202	-0.064
-501.668	-150.202	-0.052	-0.004
-500.653	-109.569	0.323	0.068
-499.639	61.182	-0.088	0.087
-498.624	-82.685	-0.100	-0.032
-497.610	505.086	0.048	-0.111
-496.595	-200.000	-0.009	-0.154
-495.581	87.142	0.090	-0.099
-494.566	-5.593	0.282	0.193
-493.551	-7.163	-0.188	-0.127
-492.537	105.320	0.260	0.306
-491.522	42.918	-0.255	-0.232
-490.508	-61.137	0.096	-0.040
-489.493	-126.205	-0.044	-0.007
-488.478	-200.000	0.022	0.330
-487.464	41.291	0.151	0.136
-486.449	67.603	-0.113	-0.115
-485.435	-138.478	-0.120	-0.013
-484.420	-22.250	0.217	0.131
-483.405	394.661	0.144	0.299
-482.391	-86.809	-0.157	0.048
-481.376	132.836	-0.190	0.244
-480.362	18.378	-0.307	-0.244
-479.347	800.000	0.037	-0.103
-478.332	352.847	-0.089	-0.176
-477.318	800.000	-0.066	-0.184
-476.303	429.574	-0.045	-0.097
-475.289	-87.969	-0.130	0.039
-474.274	-125.782	-0.032	-0.005
-473.259	-5.450	0.121	-0.083
-472.245	184.400	0.121	0.179
-471.230	48.590	-0.153	-0.143
-470.216	-22.368	0.231	-0.139
-469.201	-88.985	0.294	-0.087
-468.186	110.421	0.064	0.077
-467.172	-130.081	-0.262	-0.036
-466.157	-75.469	-0.043	-0.015
-465.143	-2.824	0.120	-0.083
-464.128	-200.000	-0.023	-0.211
-463.113	-200.000	0.007	0.132
-462.099	-77.829	0.048	0.016
-461.084	170.529	0.181	0.258
-460.070	-200.000	-0.033	-0.211
-459.055	-200.000	-0.019	-0.103
-458.040	609.700	0.117	-0.291
-457.026	190.042	0.073	-0.109
-456.011	-173.307	0.399	0.012
-454.997	-200.000	-0.021	0.273
-453.982	244.298	0.067	-0.111
-452.968	-105.930	0.102	-0.023
-451.953	-200.000	-0.004	0.198
-450.938	-137.648	-0.447	0.050
-449.924	-200.000	0.016	0.170
-448.909	800.000	-0.037	-0.112
-447.895	-200.000	0.008	-0.072
-446.880	-83.594	-0.337	-0.107
-445.865	-200.000	-0.035	-0.228
-444.851	-1.691	0.114	0.080
-443.836	-200.000	0.003	0.288
-442.822	-54.603	0.130	0.059
-441.807	800.000	-0.072	0.201
-440.792	723.723	-0.178	-0.470
-439.778	244.246	0.013	-0.021
-438.763	74.181	-0.213	-0.222
-437.749	-106.096	0.202	-0.045
-436.734	-2.646	0.207	0.144
-435.719	800.000	0.049	0.138
-434.705	-83.749	-0.066	-0.021
-433.690	28.761	0.119	-0.100
-432.676	16.943	0.159	0.125
-431.661	146.869	0.091	0.122
-430.646	153.575	-0.083	0.112
-429.632	140.281	-0.029	0.037
-428.617	800.000	-0.065	0.182
-427.603	-153.046	0.169	-0.012
-426.588	-57.306	0.364	0.159
-425.573	-46.325	0.117	0.057
-424.559	-46.837	0.133	0.064
-423.544	291.718	-0.137	-0.248
-422.530	500.180	0.053	0.123
-421.515	59.951	-0.031	-0.031
-420.500	-200.000	-0.017	-0.127
-419.486	-29.074	0.160	-0.091
-418.471	433.266	-0.081	-0.175
-417.457	98.637	-0.240	0.274
-416.442	-57.574	-0.226	-0.098
-415.428	449.676	-0.075	-0.163
-414.413	130.519	-0.073	0.093
-413.398	-72.859	-0.393	0.144
-412.384	20.537	-0.137	-0.110
-411.369	198.392	-0.068	0.103
-410.355	37.465	0.020	-0.017
-409.340	-81.087	-0.209	-0.069
-408.325	-141.762	0.264	0.026
-407.311	-43.620	0.200	-0.100
-406.296	-200.000	0.034	0.200
-405.282	-62.272	0.166	0.069
-404.267	-40.178	-0.310	-0.160
-403.252	-200.000	-0.001	0.020
-402.238	44.005	0.176	0.160
-401.223	800.000	-0.063	0.262
-400.209	-64.269	-0.259	-0.105
-399.194	-108.754	-0.219	0.047
-398.179	800.000	-0.067	0.203
-397.165	800.000	-0.036	-0.148
-396.150	336.073	0.137	0.264
-395.136	-59.713	0.316	0.134
-394.121	275.745	0.105	-0.186
-393.106	800.000	-0.096	-0.335
-392.092	571.586	-0.139	-0.336
-391.077	-78.234	-0.256	0.087
-390.063	11.537	-0.236	-0.180
-389.048	800.000	-0.034	-0.146
-388.033	105.596	0.250	0.293
-387.019	146.937	0.312	0.416
-386.004	40.115	0.077	0.069
-384.990	-8.999	-0.073	0.048
-383.975	-94.372	-0.163	0.044
-382.960	341.774	-0.116	0.224
-381.946	-166.906	-0.245	0.010
-380.931	800.000	-0.039	0.145
-379.917	-0.718	0.122	0.085
-378.902	-94.947	0.035	0.009
-377.888	-200.000	-0.014	0.244
-376.873	140.475	0.012	-0.016
-375.858	800.000	-0.075	0.261
-374.844	-115.999	-0.200	-0.037
-373.829	-96.288	0.264	0.069
-372.815	-200.000	0.012	0.214
-371.800	2.678	0.082	0.059
-370.785	93.731	0.259	-0.291
-369.771	800.000	0.105	-0.305
-368.756	85.050	-0.197	-0.214
-367.742	221.068	0.091	0.144
-366.727	74.755	0.156	-0.162
-365.712	374.377	0.088	-0.178
-364.698	-37.676	0.188	-0.099
-363.683	-200.000	0.028	0.231
-362.669	-94.361	-0.198	-0.053
-361.654	637.310	-0.074	0.186
-360.639	-43.271	-0.070	0.035
-359.625	-200.000	0.009	0.169
-358.610	-104.445	0.199	0.046
-357.596	-102.591	0.114	-0.027
-356.581	227.729	0.244	0.393
-355.566	-29.372	-0.415	-0.235
-354.552	-183.366	-0.407	0.007
-353.537	-5.336	0.154	0.105
-352.523	20.680	-0.293	-0.235
-351.508	226.395	-0.143	0.229
-350.493	164.569	-0.218	0.304
-349.479	-163.252	-0.182	0.009
-348.464	-64.228	-0.106	-0.043
-347.450	-200.000	0.009	-0.070
-346.435	242.443	-0.083	0.137
-345.420	-200.000	-0.041	0.273
-344.406	308.875	-0.091	0.169
-343.391	-200.000	-0.054	0.234
-342.377	-71.560	-0.133	0.049
-341.362	-18.933	0.101	-0.062
-340.348	140.508	0.187	-0.244
-339.333	396.373	-0.038	-0.078
-338.318	104.388	-0.047	-0.054
-337.304	-176.248	0.314	-0.008
-336.289	-60.098	-0.009	0.004
-335.275	603.836	-0.111	-0.272
-334.260	-9.127	-0.114	-0.075
-333.245	197.032	-0.083	-0.125
-332.231	-9.223	-0.230	-0.152
-331.216	2.366	0.312	0.223
-330.202	130.484	0.035	-0.044
-329.187	800.000	-0.046	-0.136
-328.172	185.230	-0.136	-0.200
-327.158	-127.725	-0.132	0.019
-326.143	74.986	-0.165	-0.172
-325.129	800.000	-0.080	0.219
-324.114	4.332	0.157	-0.114
-323.099	-40.125	0.376	-0.194
-322.085	-200.000	-0.015	-0.329
-321.070	-139.926	-0.343	-0.036
-320.056	-200.000	-0.002	0.121
-319.041	-25.412	0.143	0.084
-318.026	-90.710	0.099	0.028
-317.012	-38.240	-0.222	-0.116
-315.997	-200.000	-0.009	0.302
-314.983	-70.190	0.324	0.122
-313.968	-27.741	-0.100	0.057
-312.953	31.682	-0.095	-0.081
-311.939	-200.000	-0.015	-0.167
-310.924	-200.000	-0.006	0.526
-309.910	-94.154	0.147	-0.040
-308.895	-200.000	-0.021	-0.167
-307.880	120.788	0.107	-0.132
-306.866	-186.161	-0.369	-0.005
-305.851	800.000	-0.043	0.169
-304.837	448.607	-0.133	0.289
-303.822	-129.109	-0.303	0.042
-302.807	6.748	-0.150	-0.110
-301.793	72.458	-0.180	-0.185
-300.778	-69.850	0.078	0.029
-299.764	-29.321	0.172	-0.097
-298.749	-200.000	0.029	-0.342
-297.735	-51.004	0.139	0.064
-296.720	-105.404	0.195	-0.044
-295.705	618.136	-0.132	-0.327
-294.691	66.123	0.308	-0.309
-293.676	70.185	-0.180	0.184
-292.662	-2.660	-0.179	0.124
-291.647	-40.249	0.103	-0.053
-290.632	-112.419	-0.242	-0.048
-289.618	800.000	-0.061	-0.262
-288.603	40.617	0.155	-0.138
-287.589	-119.241	0.213	0.037
-286.574	172.998	-0.057	-0.081
-285.559	2.503	-0.021	-0.015
-284.545	113.605	0.006	0.007
-283.530	461.844	-0.041	0.090
-282.516	-22.062	-0.079	0.047
-281.501	56.421	-0.175	-0.168
-280.486	12.753	0.088	0.067
-279.472	135.310	-0.160	-0.205
-278.457	13.823	0.257	0.197
-277.443	-200.000	-0.011	0.053
-276.428	-97.646	-0.155	-0.040
-275.413	55.527	0.220	0.210
-274.399	9.252	-0.316	0.236
-273.384	-119.515	0.176	-0.030
-272.370	-31.569	-0.228	0.126
-271.355	2.447	-0.145	0.104
-270.340	265.839	0.176	0.304
-269.326	64.600	-0.135	0.134
-268.311	800.000	-0.073	-0.254
-267.297	118.761	-0.091	0.111
-266.282	-200.000	0.002	-0.436
-265.267	-104.205	-0.112	-0.026
-264.253	61.882	-0.121	-0.119
-263.238	159.219	-0.184	0.252
-262.224	-79.362	0.242	0.081
-261.209	-200.000	0.054	0.321
-260.195	332.048	-0.149	-0.284
-259.180	348.685	-0.144	0.281
-258.165	-120.467	-0.220	-0.037
-257.151	90.873	0.031	-0.034
-256.136	200.365	0.227	0.345
-255.122	740.259	0.032	0.085
-254.107	-40.415	0.170	-0.087
-253.092	97.007	-0.231	0.262
-252.078	800.000	-0.130	0.388
-251.063	800.000	0.116	-0.370
-250.049	-131.881	-0.303	0.039
-249.034	208.354	-0.183	0.282
-248.019	-19.005	0.315	-0.193
-247.005	-200.000	-0.032	-0.302
-245.990	800.000	-0.059	-0.223
-244.976	171.316	0.089	0.125
-243.961	494.498	-0.131	0.297
-242.946	-131.362	0.192	-0.025
-241.932	-49.012	-0.136	0.064
-240.917	-200.000	0.068	0.349
-239.903	-90.559	-0.140	-0.040
-238.888	233.284	0.084	0.136
-237.873	5.877	0.019	0.014
-236.859	-170.505	0.278	0.010
-235.844	396.487	-0.081	0.167
-234.830	-151.938	0.339	-0.024
-233.815	209.551	-0.012	0.018
-232.800	-119.916	-0.363	0.061
-231.786	106.526	0.113	-0.133
-230.771	800.000	-0.028	-0.120
-229.757	377.407	0.172	-0.346
-228.742	-88.386	-0.344	-0.101
-227.727	-200.000	0.040	-0.183
-226.713	190.412	0.063	0.093
-225.698	-200.000	-0.078	0.390
-224.684	416.640	-0.074	0.155
-223.669	-129.684	0.248	-0.034
-222.655	191.359	0.237	-0.351
-221.640	-200.000	-0.009	-0.100
-220.625	800.000	-0.092	-0.274
-219.611	-163.979	-0.119	-0.005
-218.596	-136.206	-0.338	0.039
-217.582	165.837	0.083	0.116
-216.567	-134.582	0.503	-0.060
-215.552	800.000	0.089	-0.253
-214.538	-142.869	-0.145	-0.014
-213.523	-105.673	0.322	-0.072
-212.509	-200.000	0.056	0.408
-211.494	675.148	0.054	-0.137
-210.479	800.000	0.139	0.410
-209.465	-39.839	0.116	0.060
-208.450	-63.203	0.124	0.050
-207.436	85.434	-0.078	0.084
-206.421	-36.687	-0.156	-0.083
-205.406	-9.939	0.215	0.141
-204.392	64.925	0.104	0.103
-203.377	563.691	0.050	-0.120
-202.363	-120.643	-0.090	0.015
-201.348	-89.997	-0.152	0.044
-200.333	-47.578	0.197	-0.094
-199.319	204.996	0.058	-0.088
-198.304	-9.977	-0.098	0.064
-197.290	82.870	0.193	0.206
-196.275	43.904	-0.156	0.141
-195.260	-200.000	0.019	-0.388
-194.246	-88.346	0.192	0.057
-193.231	416.172	0.050	-0.105
-192.217	-151.748	0.440	-0.032
-191.202	8.007	-0.231	0.170
-190.187	-23.381	0.153	0.090
-189.173	107.919	-0.160	0.188
-188.158	326.626	-0.032	0.060
-187.144	-170.566	-0.125	-0.004
-186.129	-42.567	0.026	0.013
-185.114	-103.773	0.077	0.018
-184.100	4.940	0.136	-0.099
-183.085	434.156	0.173	-0.370
-182.071	-129.237	-0.069	0.009
-181.056	196.787	0.021	-0.032
-180.042	82.801	0.098	0.105
-179.027	-200.000	0.048	0.386
-178.012	-41.611	0.126	0.064
-176.998	-200.000	0.093	0.420
-175.983	-40.449	-0.227	-0.116
-174.969	336.610	0.095	-0.181
-173.954	-26.391	-0.211	0.122
-172.939	-57.453	0.092	-0.040
-171.925	-200.000	0.042	-0.264
-170.910	-200.000	-0.079	-0.390
-169.896	-5.015	-0.102	-0.069
-168.881	-200.000	0.068	-0.348
-167.866	-200.000	0.005	0.320
-166.852	-30.237	-0.086	0.048
-165.837	-15.289	0.159	0.100
-164.823	173.463	0.161	0.229
-163.808	-140.460	0.259	-0.026
-162.793	-200.000	0.004	-0.347
-161.779	-153.053	-0.063	0.004
-160.764	112.603	0.027	0.032
-159.750	51.204	0.103	-0.097
-158.735	-57.947	-0.021	0.009
-157.720	-77.410	0.289	0.099
-156.706	-200.000	0.006	-0.201
-155.691	578.404	-0.075	-0.179
-154.677	-118.118	-0.230	0.040
-153.662	-95.634	-0.229	-0.060
-152.647	-1.286	-0.243	0.169
-151.633	60.529	0.154	-0.150
-150.618	-42.647	-0.375	0.188
-149.604	150.041	-0.233	0.311
-148.589	-200.000	0.012	-0.185
-147.574	800.000	0.041	-0.134
-146.560	141.305	-0.232	0.301
-145.545	-200.000	-0.043	-0.199
-144.531	-60.039	-0.142	-0.060
-143.516	179.226	0.077	-0.111
-142.502	-200.000	0.001	0.277
-141.487	80.781	0.135	-0.144
-140.472	-179.150	0.197	0.004
-139.458	14.559	0.361	-0.277
-138.443	-200.000	0.028	-0.225
-137.429	-46.387	-0.249	0.120
-136.414	-103.321	0.304	0.070
-135.399	86.015	-0.185	-0.200
-134.385	-22.986	-0.229	-0.136
-133.370	-200.000	-0.001	0.029
-132.356	-200.000	-0.037	-0.170
-131.341	-15.296	-0.276	-0.173
-130.326	72.068	0.125	0.128
-129.312	120.674	-0.063	-0.077
-128.297	-200.000	0.013	-0.188
-127.283	134.404	-0.257	-0.327
-126.268	800.000	-0.050	-0.186
-125.253	800.000	0.085	0.329
-124.239	-83.974	-0.154	-0.048
-123.224	-96.616	0.220	-0.057
-122.210	-165.001	0.132	-0.006
-121.195	194.798	0.319	0.475
-120.180	364.562	-0.129	0.255
-119.166	188.598	-0.104	-0.153
-118.151	-144.734	0.161	0.015
-117.137	-143.929	-0.136	0.013
-116.122	-200.000	0.017	-0.228
-115.107	14.691	-0.146	-0.112
-114.093	252.931	0.181	0.303
-113.078	64.815	-0.092	-0.091
-112.064	177.499	-0.050	-0.071
-111.049	-200.000	0.010	0.241
-110.034	-165.216	-0.268	0.012
-109.020	-136.503	0.367	0.042
-108.005	800.000	-0.083	0.271
-106.991	267.992	-0.055	-0.094
-105.976	-113.514	0.070	0.014
-104.962	76.235	-0.176	0.183
-103.947	-136.436	-0.061	0.007
-102.932	536.899	0.103	0.241
-101.918	-77.074	-0.226	0.077
-100.903	-200.000	0.019	0.121
-99.889	74.018	-0.075	0.077
-98.874	-200.000	-0.011	-0.500
-97.859	93.938	-0.122	0.135
-96.845	-11.690	0.029	-0.018
-95.830	-25.440	0.116	-0.067
-94.816	-131.584	0.091	0.012
-93.801	-200.000	-0.018	-0.090
-92.786	-200.000	0.037	0.359
-91.772	800.000	0.066	-0.235
-90.757	-200.000	0.042	0.213
-89.743	-31.806	0.280	-0.154
-88.728	155.918	-0.081	-0.110
-87.713	-55.708	-0.286	0.125
-86.699	-200.000	0.020	0.381
-85.684	-200.000	0.019	0.241
-84.670	788.789	0.108	-0.291
-83.655	-200.000	0.010	0.173
-82.640	535.935	0.066	-0.153
-81.626	268.712	-0.066	-0.114
-80.611	243.200	0.106	0.174
-79.597	-53.315	0.194	-0.087
-78.582	-89.915	0.336	0.096
-77.567	-72.000	-0.373	-0.136
-76.553	800.000	0.028	0.089
-75.538	-136.856	-0.239	0.027
-74.524	-137.599	0.120	-0.013
-73.509	66.050	0.193	-0.192
-72.494	-200.000	0.065	-0.315
-71.480	-45.317	0.241	-0.117
-70.465	-200.000	0.004	-0.255
-69.451	674.577	0.156	-0.397
-68.436	800.000	0.046	-0.134
-67.422	3.908	-0.261	0.187
-66.407	586.334	0.077	0.186
-65.392	-200.000	0.032	0.310
-64.378	66.440	-0.229	0.228
-63.363	91.076	0.176	-0.194
-62.349	327.604	0.109	0.205
-61.334	198.705	-0.663	-0.993
-60.319	151.591	0.369	0.492
-59.305	295.870	-0.541	-0.970
-58.290	128.621	0.879	1.096
-57.276	800.000	0.425	1.342
-56.261	-200.000	115.236	656.753
-55.246	526.879	1537.057	3546.111
-54.232	174.969	2710.640	3842.184
-53.217	108.226	2162.532	2525.166
-52.203	38.439	1597.475	1393.748
-51.188	30.019	1340.424	1118.833
-50.173	27.115	1302.202	1069.816
-49.159	55.614	1360.209	1289.538
-48.144	53.284	1374.273	1288.863
-47.130	30.294	1328.561	1110.401
-46.115	26.786	1310.391	1074.423
-45.100	26.626	1305.767	1069.646
-44.086	26.507	1302.955	1066.597
-43.071	26.506	1300.645	1064.656
-42.057	26.464	1298.985	1063.009
-41.042	26.531	1296.815	1061.584
-40.027	26.509	1295.929	1060.689
-39.013	26.497	1293.486	1058.580
-37.998	26.578	1291.598	1057.461
-36.984	26.649	1289.848	1056.404
-35.969	26.713	1288.090	1055.296
-34.954	26.728	1286.481	1054.019
-33.940	26.649	1285.234	1052.497
-32.925	26.704	1283.814	1051.611
-31.911	26.721	1282.101	1050.267
-30.896	26.705	1281.378	1049.542
-29.881	26.772	1279.847	1048.633
-28.867	26.872	1277.953	1047.618
-27.852	26.811	1276.721	1046.213
-26.838	26.912	1274.936	1045.292
-25.823	26.721	1274.518	1043.804
-24.809	26.702	1273.103	1042.496
-23.794	26.798	1271.215	1041.463
-22.779	26.790	1269.761	1040.184
-21.765	26.787	1268.445	1039.044
-20.750	26.927	1267.200	1038.786
-19.736	26.640	1266.335	1036.392
-18.721	26.636	1265.303	1035.486
-17.706	26.684	1264.173	1034.795
-16.692	26.550	1263.241	1033.225
-15.677	26.615	1261.649	1032.255
-14.663	26.740	1260.099	1031.657
-13.648	26.601	1259.363	1030.220
-12.633	26.746	1258.231	1030.077
-11.619	26.636	1257.620	1028.911
-10.604	26.675	1256.470	1028.150
-9.590	26.634	1255.778	1027.310
-8.575	26.705	1254.527	1026.650
-7.560	26.592	1254.277	1025.763
-6.546	26.539	1253.568	1024.846
-5.531	26.565	1252.183	1023.816
-4.517	26.522	1251.787	1023.211
-3.502	26.620	1250.584	1022.742
-2.487	26.491	1250.270	1021.716
-1.473	26.735	1246.074	1019.615
-0.458	25.476	1230.844	1000.117
0.556	23.946	1214.930	964.888
1.571	20.439	1220.914	950.402
2.586	19.595	1235.816	957.241
3.600	19.046	1223.606	944.690
4.615	14.637	1152.232	866.661
5.629	7.614	1080.402	778.260
6.644	4.529	1062.915	750.711
7.659	4.132	1059.935	746.624
8.673	4.136	1058.439	745.526
9.688	4.093	1057.418	744.535
10.702	4.514	1055.728	745.297
11.717	9.069	1061.675	771.360
12.731	16.794	1072.660	816.645
13.746	21.301	1077.872	842.321
14.761	22.150	1078.344	846.709
15.775	21.324	1076.689	841.359
16.790	20.289	1074.888	834.901
17.804	19.689	1073.545	830.896
18.819	19.290	1073.338	828.746
19.834	19.412	1072.021	828.243
20.848	19.334	1071.508	827.401
21.863	19.314	1070.187	826.208
22.877	18.969	1070.049	824.376
23.892	19.012	1069.262	823.901
24.907	18.898	1068.224	822.482
25.921	18.853	1067.481	821.624
26.936	18.816	1066.448	820.581
27.950	18.887	1065.055	819.777
28.965	19.175	1062.899	819.413
29.980	19.169	1062.114	818.707
30.994	19.275	1061.351	818.549
32.009	19.255	1060.029	817.361
33.023	19.194	1059.435	816.543
34.038	19.178	1057.911	815.221
35.053	19.044	1056.970	813.787
36.067	19.050	1056.011	813.007
37.082	19.069	1055.708	812.790
38.096	19.237	1055.332	813.223
39.111	19.243	1054.109	812.238
40.126	19.189	1052.910	810.988
41.140	18.761	1051.387	807.729
42.155	18.739	1049.909	806.419
43.169	18.501	1049.229	804.709
44.184	18.596	1048.057	804.182
45.199	18.621	1047.163	803.545
46.213	18.759	1046.342	803.489
47.228	18.912	1046.242	804.056
48.242	18.989	1044.888	803.307
49.257	18.865	1044.109	802.058
50.271	19.184	1043.356	802.893
51.286	19.140	1042.771	802.167
52.301	19.203	1041.207	801.188
53.315	19.022	1040.453	799.695
54.330	18.843	1039.173	797.807
55.344	18.722	1038.082	796.340
56.359	18.804	1037.603	796.283
57.374	18.743	1036.756	795.278
58.388	18.486	1035.773	793.265
59.403	18.530	1035.114	792.893
60.417	18.458	1034.217	791.803
61.432	18.498	1033.054	791.030
62.447	18.404	1032.469	790.078
63.461	18.321	1031.718	789.049
64.476	18.325	1030.666	788.192
65.490	18.333	1029.748	787.459
66.505	18.411	1029.202	787.329
67.520	18.357	1028.526	786.494
68.534	18.407	1027.728	786.044
69.549	18.297	1027.018	784.926
70.563	18.262	1026.163	784.043
71.578	18.152	1025.157	782.704
72.593	17.995	1024.265	781.237
73.607	18.001	1023.713	780.774
74.622	18.145	1022.848	780.701
75.636	18.198	1022.628	780.705
76.651	18.244	1021.413	779.920
77.666	18.249	1021.032	779.583
78.680	18.319	1020.208	779.202
79.695	18.237	1020.019	778.614
80.709	18.518	1019.270	779.252
81.724	18.582	1018.358	778.778
82.739	18.680	1017.725	778.671
83.753	18.921	1017.497	779.517
84.768	19.313	1016.349	780.343
85.782	19.439	1015.892	780.497
86.797	19.317	1015.021	779.204
87.812	19.123	1013.783	777.309
88.826	19.220	1012.754	776.892
89.841	19.181	1012.329	776.320
90.855	19.342	1011.340	776.218
91.870	19.365	1010.670	775.738
92.884	19.436	1009.123	774.803
93.899	19.182	1008.976	773.478
94.914	19.459	1007.860	773.798
95.928	19.310	1007.365	772.680
96.943	19.234	1005.835	771.099
97.957	19.162	1005.332	770.322
98.972	19.198	1004.191	769.539
99.987	19.283	1003.262	769.139
101.001	19.193	1002.420	768.024
102.016	19.251	1001.515	767.522
103.030	19.278	1001.079	767.239
104.045	19.244	1000.056	766.238
105.060	19.162	998.784	764.830
106.074	18.732	998.368	762.538
107.089	18.619	996.877	760.830
108.103	18.381	996.286	759.256
109.118	18.586	994.769	758.941
110.133	18.435	993.750	757.425
111.147	18.315	993.332	756.511
112.162	18.538	992.711	756.958
113.176	18.622	992.020	756.732
114.191	18.720	991.433	756.649
115.206	18.600	990.611	755.428
116.220	18.584	989.701	754.596
117.235	18.624	988.578	753.850
118.249	18.477	987.652	752.430
119.264	18.532	986.968	752.084
120.279	18.340	986.645	750.928
121.293	18.335	985.612	750.056
122.308	18.265	984.345	748.716
123.322	18.218	983.307	747.655
124.337	18.066	982.400	746.237
125.352	18.088	981.658	745.703
126.366	18.131	980.409	744.878
127.381	18.318	979.246	744.739
128.395	18.162	978.907	743.739
129.410	18.418	977.822	743.960
130.424	18.454	977.397	743.726
131.439	18.504	976.977	743.558
132.454	18.595	975.815	743.003
133.468	18.627	975.023	742.470
134.483	18.661	974.136	741.876
135.497	18.786	973.254	741.682
136.512	18.844	972.106	740.990
137.527	18.630	971.549	739.580
138.541	18.610	971.166	739.135
139.556	18.897	970.337	739.673
140.570	19.042	969.554	739.634
141.585	19.092	969.058	739.404
142.600	19.166	968.424	739.175
143.614	19.235	967.692	738.845
144.629	19.333	966.853	738.560
145.643	19.163	965.780	736.948
146.658	18.971	964.358	734.977
147.673	18.812	963.505	733.582
148.687	18.811	962.362	732.642
149.702	18.791	961.609	731.920
150.716	18.719	961.004	731.089
151.731	18.722	960.341	730.531
152.746	18.765	959.426	729.952
153.760	18.815	959.130	729.877
154.775	18.981	958.365	729.933
155.789	18.930	957.893	729.293
156.804	19.012	957.164	729.020
157.819	19.077	956.635	728.830
158.833	19.299	956.183	729.359
159.848	19.479	955.087	729.221
160.862	19.263	953.680	727.169
161.877	18.980	952.777	725.223
162.892	18.637	951.751	722.933
163.906	18.642	950.594	722.014
164.921	18.751	949.794	721.800
165.935	18.895	949.307	721.972
166.950	18.961	948.150	721.304
167.964	18.975	947.307	720.659
168.979	18.695	946.476	718.789
169.994	18.637	945.703	717.895
171.008	18.903	945.233	718.587
172.023	19.067	944.608	718.732
173.037	19.257	944.226	719.174
174.052	19.104	943.132	717.639
175.067	18.814	942.142	715.612
176.081	18.621	941.951	714.600
177.096	18.654	940.944	713.911
178.110	18.937	940.376	714.595
179.125	19.026	939.482	714.222
180.140	18.984	939.445	713.955
181.154	19.140	939.223	714.370
182.169	19.214	939.339	714.702
183.183	19.267	938.226	714.011
184.198	19.275	937.207	713.204
185.213	19.363	936.051	712.626
186.227	19.360	936.212	712.675
187.242	19.409	935.453	712.237
188.256	19.462	935.267	712.248
189.271	19.532	934.443	711.848
190.286	19.071	932.980	708.774
191.300	18.616	932.179	706.230
192.315	18.659	930.885	705.362
193.329	18.652	931.140	705.464
194.344	18.863	930.271	705.610
195.359	19.046	929.831	705.963
196.373	19.029	929.633	705.683
197.388	19.207	929.412	706.182
198.402	19.412	929.008	706.654
199.417	19.639	928.080	706.810
200.432	19.649	928.112	706.817
201.446	19.887	927.266	707.081
202.461	19.855	926.459	706.272
203.475	19.756	925.928	705.401
204.490	19.575	924.713	703.674
205.504	19.158	924.381	701.663
206.519	19.365	923.137	701.499
207.534	19.349	922.237	700.689
208.548	19.371	921.712	700.315
209.563	19.372	921.280	699.928
210.577	19.417	920.819	699.698
211.592	19.710	920.158	700.322
212.607	19.740	919.696	700.031
213.621	19.650	918.633	698.795
214.636	19.749	917.712	698.435
215.650	19.758	916.846	697.750
216.665	19.792	916.407	697.490
217.680	20.017	915.868	697.923
218.694	19.895	915.357	696.984
219.709	19.842	914.626	696.152
220.723	19.882	913.920	695.711
221.738	19.533	913.699	694.079
222.753	19.706	912.897	694.104
223.767	19.777	912.600	694.101
224.782	19.988	911.799	694.278
225.796	19.967	911.609	693.986
226.811	19.800	911.003	692.795
227.826	19.556	909.852	690.884
228.840	19.612	908.952	690.363
229.855	19.648	907.856	689.611
230.869	19.483	907.692	688.768
231.884	19.471	906.915	688.071
232.899	19.319	906.495	687.084
233.913	19.281	905.463	686.089
234.928	19.194	904.485	684.942
235.942	19.373	903.681	684.984
236.957	19.390	903.340	684.731
237.972	19.355	902.915	684.210
238.986	19.445	902.392	684.111
240.001	19.336	901.729	683.115
241.015	19.588	900.876	683.408
242.030	19.571	900.596	683.067
243.045	19.613	900.091	682.789
244.059	19.683	899.454	682.523
245.074	19.681	899.003	682.112
246.088	19.821	898.265	682.044
247.103	19.922	897.962	682.149
248.117	19.995	898.236	682.587
249.132	20.444	897.262	683.554
250.147	20.572	896.865	683.695
251.161	20.559	896.451	683.267
252.176	20.658	895.842	683.131
253.190	20.728	894.834	682.575
254.205	20.705	894.245	681.974
255.220	20.674	893.399	681.150
256.234	20.535	893.047	680.278
257.249	20.742	891.903	680.153
258.263	20.648	891.348	679.304
259.278	20.599	890.664	678.531
260.293	20.623	890.467	678.414
261.307	20.796	889.897	678.595
262.322	20.879	889.177	678.309
263.336	20.883	888.286	677.585
264.351	20.867	887.663	676.988
265.366	20.901	887.224	676.723
266.380	20.807	886.225	675.537
267.395	20.714	885.594	674.635
268.409	20.582	885.246	673.799
269.424	20.658	884.270	673.292
270.439	20.544	883.549	672.244
271.453	20.248	883.065	670.669
272.468	20.205	882.883	670.305
273.482	20.463	881.964	670.545
274.497	20.428	881.099	669.693
275.512	20.428	880.735	669.359
276.526	20.421	880.012	668.724
277.541	20.467	879.566	668.499
278.555	20.742	879.559	669.495
279.570	21.038	878.519	669.782
280.585	20.893	878.018	668.784
281.599	20.728	877.046	667.352
282.614	20.505	876.283	665.858
283.628	20.519	876.007	665.640
284.643	20.688	874.685	665.224
285.657	20.536	874.731	664.617
286.672	20.593	874.206	664.378
287.687	20.711	873.301	664.082
288.701	20.528	872.962	663.070
289.716	20.638	872.051	662.738
290.730	20.710	871.696	662.681
291.745	20.625	871.153	661.887
292.760	20.920	870.259	662.271
293.774	20.936	870.184	662.217
294.789	20.853	869.269	661.146
295.803	20.862	867.865	660.053
296.818	20.634	867.690	659.000
297.833	20.629	866.872	658.302
298.847	20.680	866.441	658.108
299.862	20.768	865.928	657.992
300.876	20.900	865.896	658.410
301.891	21.058	864.772	658.094
302.906	21.072	864.874	658.164
303.920	21.336	864.031	658.461
304.935	21.377	863.952	658.494
305.949	21.165	863.032	656.938
306.964	21.027	862.222	655.746
307.979	21.199	861.539	655.814
308.993	21.156	861.121	655.274
310.008	21.205	860.434	654.878
311.022	21.057	860.102	654.013
312.037	21.041	859.067	653.107
313.052	20.768	858.326	651.467
314.066	20.588	858.115	650.574
315.081	20.645	857.393	650.184
316.095	20.686	856.856	649.871
317.110	20.770	856.242	649.663
318.125	20.767	855.397	648.950
319.139	20.608	855.322	648.245
320.154	20.655	855.017	648.132
321.168	20.686	854.696	647.948
322.183	20.952	853.653	648.089
323.197	20.901	852.988	647.336
324.212	20.840	852.675	646.815
325.227	20.923	852.317	646.792
326.241	20.877	851.466	645.920
327.256	20.973	850.616	645.572
328.270	20.744	850.566	644.629
329.285	20.659	849.891	643.748
330.300	20.846	848.875	643.611
331.314	20.950	848.583	643.719
332.329	20.989	848.061	643.409
333.343	21.074	848.184	643.757
334.358	21.268	847.230	643.694
335.373	21.259	847.277	643.638
336.387	21.146	847.061	642.999
337.402	21.360	846.438	643.258
338.416	21.474	846.618	643.757
339.431	21.623	846.050	643.818
340.446	21.612	845.839	643.558
341.460	21.740	845.505	643.718
342.475	21.684	845.243	643.256
343.489	21.739	844.342	642.714
344.504	21.963	844.232	643.394
345.519	21.963	843.578	642.842
346.533	21.752	842.822	641.436
347.548	21.536	842.191	640.110
348.562	21.405	841.451	639.009
349.577	21.111	841.025	637.557
350.592	21.180	840.095	637.047
351.606	21.280	839.258	636.722
352.621	21.189	838.597	635.831
353.635	21.244	838.565	635.952
354.650	21.368	837.626	635.635
355.665	21.573	836.956	635.814
356.679	21.502	836.635	635.256
357.694	21.531	836.151	634.937
358.708	21.541	834.943	634.001
359.723	21.501	834.468	633.438
360.738	21.566	833.995	633.258
361.752	21.569	833.622	632.930
362.767	21.728	833.000	632.976
363.781	21.950	832.569	633.394
364.796	21.978	832.519	633.400
365.810	22.161	832.149	633.724
366.825	22.188	831.920	633.592
367.840	22.280	830.617	632.872
368.854	21.939	830.341	631.381
369.869	21.920	829.837	630.874
370.883	21.971	829.508	630.749
371.898	22.072	829.203	630.824
372.913	22.124	829.105	630.882
373.927	21.953	828.237	629.550
374.942	21.944	828.111	629.367
375.956	22.143	827.722	629.731
376.971	22.264	827.171	629.687
377.986	22.303	826.853	629.529
379.000	22.368	826.347	629.322
380.015	22.281	825.733	628.488
381.029	22.359	824.699	627.922
382.044	22.432	824.006	627.601
383.059	22.366	823.535	626.951
384.073	22.167	823.165	625.904
385.088	22.086	822.346	624.938
386.102	22.016	821.532	624.016
387.117	21.961	821.107	623.441
388.132	22.109	820.173	623.202
389.146	22.061	820.094	622.918
390.161	22.202	820.086	623.357
391.175	22.129	819.649	622.711
392.190	22.167	818.980	622.281
393.205	22.096	818.073	621.287
394.219	22.064	817.717	620.848
395.234	21.944	817.141	619.933
396.248	21.818	816.711	619.105
397.263	21.625	816.411	618.141
398.278	21.613	816.220	617.901
399.292	21.696	815.600	617.669
400.307	21.619	815.264	617.090
401.321	21.896	814.603	617.509
402.336	21.787	814.441	616.948
403.350	21.985	813.829	617.124
404.365	22.121	813.320	617.165
405.380	22.274	813.410	617.715
406.394	22.347	812.681	617.361
407.409	22.492	812.139	617.403
408.423	22.487	812.306	617.460
409.438	22.663	811.728	617.581
410.453	22.557	811.372	616.885
411.467	22.537	811.139	616.581
412.482	22.760	810.425	616.765
413.496	22.795	810.362	616.784
414.511	22.743	809.585	615.959
415.526	22.568	809.385	615.141
416.540	22.757	808.299	614.918
417.555	22.771	807.573	614.360
418.569	22.521	808.024	613.777
419.584	22.853	806.847	613.984
420.599	22.718	806.996	613.574
421.613	165.008	1370.471	1796.251
422.628	143.645	1452.568	1796.324
