DTS Sentinel unit serial number:	SN413079Multiplexer serial number:	ORYXHardware model number:	OX4-SRSoftware version number:	ORYX F/W v4.00 Oryx Data Collector v3.7.2.0data status	okinstallation	princeton_trtdifferential loss correction	single-endedforward channel	channel 1reverse channel	N/Adate	2019/09/11time	08:08:11forward acquisition time	60.00reverse acquisition time	0.00gamma	496.2192k internal	0.2320k external	0.2320temperature offset calibration	1.1247default loss term (dB/km)	0.3790temperature slope calibration	1.0000multiplexer offset coefficient	1.0000multiplexer slope coefficient	1.0000fibre end	0.00T internal ref (°C)	32.34T ext. ref 1 (°C)	19.88T ext. ref 2 (°C)	28.43length (m)	temperature (°C)	Stokes	anti-Stokes-747.200	800.000	-0.071	-0.247
-746.185	-200.000	-0.052	-0.238
-745.171	96.154	0.137	0.158
-744.156	-89.594	-0.127	-0.038
-743.142	0.165	0.088	-0.063
-742.127	-67.285	0.101	0.040
-741.112	289.308	0.062	-0.114
-740.098	219.668	0.255	0.413
-739.083	-158.590	0.390	-0.023
-738.069	178.716	-0.207	0.306
-737.054	-200.000	0.005	0.212
-736.039	351.078	-0.147	0.293
-735.025	104.015	0.340	-0.404
-734.010	-44.823	-0.205	0.103
-732.996	121.027	0.105	-0.132
-731.981	91.245	-0.244	0.276
-730.966	-200.000	0.050	0.283
-729.952	-109.531	-0.218	-0.046
-728.937	-25.467	-0.337	0.201
-727.923	-124.445	-0.127	0.020
-726.908	-111.355	0.078	-0.016
-725.894	113.267	-0.286	-0.351
-724.879	83.695	-0.214	-0.236
-723.864	-200.000	0.025	0.181
-722.850	-54.284	-0.212	0.097
-721.835	177.573	-0.094	0.139
-720.821	-36.964	-0.146	0.079
-719.806	272.718	0.054	-0.096
-718.791	561.461	0.055	-0.133
-717.777	-138.570	0.288	-0.032
-716.762	154.239	-0.094	0.131
-715.748	459.126	-0.109	-0.244
-714.733	-78.983	-0.129	0.044
-713.718	61.307	-0.320	0.321
-712.704	-65.662	-0.321	0.130
-711.689	-200.000	-0.023	-0.334
-710.675	-200.000	-0.023	0.187
-709.660	594.257	0.069	0.172
-708.645	80.011	-0.321	-0.348
-707.631	-200.000	0.068	-0.332
-706.616	193.421	0.074	-0.113
-705.602	17.213	0.243	0.195
-704.587	-117.596	-0.337	-0.061
-703.572	800.000	0.048	-0.163
-702.558	172.429	-0.124	-0.180
-701.543	-34.273	0.138	-0.076
-700.529	-200.000	-0.018	-0.137
-699.514	192.455	0.275	-0.419
-698.499	188.158	-0.025	-0.038
-697.485	-200.000	0.029	0.326
-696.470	-200.000	-0.006	0.254
-695.456	-200.000	-0.012	-0.114
-694.441	-28.446	-0.154	-0.090
-693.426	83.834	-0.062	0.068
-692.412	-195.309	-0.179	-0.001
-691.397	268.571	-0.107	-0.190
-690.383	-121.373	-0.160	0.027
-689.368	-46.393	0.230	-0.114
-688.354	-200.000	0.046	0.337
-687.339	-50.641	0.308	0.146
-686.324	159.820	-0.148	-0.209
-685.310	1.197	-0.172	-0.124
-684.295	-9.727	0.126	-0.085
-683.281	33.856	0.338	0.296
-682.266	188.937	0.074	-0.112
-681.251	168.976	-0.326	-0.469
-680.237	-134.767	0.130	-0.016
-679.222	-102.309	0.297	-0.072
-678.208	800.000	-0.042	-0.183
-677.193	-87.120	-0.106	0.033
-676.178	99.814	0.087	0.102
-675.164	-145.513	-0.459	-0.042
-674.149	-200.000	-0.019	-0.116
-673.135	98.596	-0.298	-0.346
-672.120	-200.000	-0.022	0.219
-671.105	-200.000	-0.034	-0.244
-670.091	-170.488	0.131	-0.005
-669.076	22.858	-0.120	0.099
-668.062	74.652	-0.220	0.234
-667.047	16.640	-0.137	-0.109
-666.032	346.343	-0.137	0.271
-665.018	800.000	0.062	-0.180
-664.003	-8.756	-0.315	-0.213
-662.989	-113.636	-0.064	-0.013
-661.974	-15.470	0.313	-0.202
-660.959	429.282	0.024	0.053
-659.945	26.371	0.111	0.093
-658.930	4.047	-0.234	0.172
-657.916	-200.000	-0.010	-0.274
-656.901	-200.000	-0.005	0.214
-655.886	-64.372	-0.400	-0.164
-654.872	-104.944	0.335	-0.077
-653.857	-164.473	0.084	-0.004
-652.843	471.599	-0.138	-0.314
-651.828	0.217	0.211	0.152
-650.814	208.639	0.196	0.308
-649.799	800.000	-0.140	0.419
-648.784	164.483	0.092	0.131
-647.770	8.480	0.091	-0.069
-646.755	800.000	-0.012	0.038
-645.741	448.162	-0.089	-0.198
-644.726	629.888	-0.073	-0.187
-643.711	420.902	-0.136	0.294
-642.697	-198.566	0.208	-0.001
-641.682	-167.371	-0.165	0.007
-640.668	-146.099	-0.200	-0.018
-639.653	317.299	0.058	-0.111
-638.638	62.805	-0.104	-0.104
-637.624	203.342	0.196	0.305
-636.609	363.018	0.062	0.125
-635.595	-57.269	-0.025	-0.011
-634.580	-200.000	0.053	0.274
-633.565	-112.558	-0.142	-0.029
-632.551	278.156	0.087	-0.156
-631.536	-200.000	0.033	0.156
-630.522	-159.302	0.184	0.010
-629.507	452.387	0.034	-0.075
-628.492	82.792	-0.136	0.149
-627.478	-200.000	0.002	-0.213
-626.463	-99.537	0.288	0.073
-625.449	800.000	0.081	-0.342
-624.434	-200.000	0.005	-0.189
-623.419	-136.236	-0.295	0.035
-622.405	73.933	-0.163	0.172
-621.390	26.641	0.132	0.111
-620.376	-85.418	-0.206	-0.065
-619.361	725.391	-0.069	0.186
-618.346	800.000	0.126	-0.426
-617.332	-41.592	-0.200	-0.103
-616.317	-200.000	0.031	0.206
-615.303	-97.889	0.111	0.029
-614.288	-129.874	0.250	0.035
-613.273	133.305	0.058	-0.076
-612.259	60.231	0.039	-0.039
-611.244	245.649	-0.085	-0.143
-610.230	-33.528	-0.169	-0.094
-609.215	375.715	-0.114	-0.233
-608.201	-40.877	0.060	-0.031
-607.186	-145.594	0.319	0.029
-606.171	-35.330	0.061	-0.033
-605.157	223.382	-0.032	0.053
-604.142	800.000	-0.090	-0.282
-603.128	800.000	-0.029	-0.082
-602.113	-200.000	-0.001	-0.269
-601.098	-200.000	-0.005	-0.024
-600.084	-200.000	0.021	-0.094
-599.069	-200.000	-0.005	0.061
-598.055	16.387	0.208	0.165
-597.040	-118.469	-0.053	-0.010
-596.025	280.687	0.047	0.084
-595.011	381.407	0.117	0.241
-593.996	-116.895	-0.148	0.027
-592.982	800.000	0.151	0.479
-591.967	41.545	0.224	0.203
-590.952	154.080	-0.122	0.168
-589.938	-89.325	-0.066	0.020
-588.923	-59.872	0.115	0.049
-587.909	800.000	-0.015	0.062
-586.894	103.200	0.186	-0.219
-585.879	-3.351	-0.084	-0.059
-584.865	-128.916	0.136	0.019
-583.850	153.193	-0.253	0.347
-582.836	-177.167	-0.315	-0.008
-581.821	800.000	-0.040	-0.136
-580.806	-122.212	-0.280	0.046
-579.792	167.079	-0.114	-0.163
-578.777	564.269	0.034	0.084
-577.763	-40.074	-0.107	0.056
-576.748	-92.454	-0.125	-0.035
-575.733	67.905	0.090	0.093
-574.719	-22.791	-0.110	-0.067
-573.704	-97.327	-0.101	-0.027
-572.690	-58.533	0.148	-0.065
-571.675	-78.651	-0.321	-0.110
-570.661	-200.000	0.016	-0.144
-569.646	-200.000	-0.017	0.146
-568.631	33.500	-0.172	0.150
-567.617	624.599	0.205	-0.519
-566.602	-200.000	0.023	-0.235
-565.588	-121.816	0.361	-0.060
-564.573	-200.000	-0.021	-0.144
-563.558	-99.714	-0.312	0.079
-562.544	-200.000	0.045	0.288
-561.529	-200.000	-0.016	0.080
-560.515	-200.000	-0.031	0.194
-559.500	-103.846	-0.183	0.043
-558.485	-185.088	0.265	-0.004
-557.471	207.330	0.084	0.132
-556.456	800.000	-0.083	-0.324
-555.442	-50.982	-0.144	-0.068
-554.427	-66.321	-0.094	-0.038
-553.412	83.793	0.133	-0.146
-552.398	-22.658	-0.309	-0.187
-551.383	294.745	-0.077	-0.142
-550.369	0.222	-0.097	-0.069
-549.354	21.263	0.121	0.099
-548.339	10.568	-0.095	0.073
-547.325	-10.868	0.129	0.086
-546.310	-119.540	0.468	0.081
-545.296	-159.713	-0.115	0.006
-544.281	-45.453	-0.073	-0.036
-543.266	88.779	-0.032	-0.036
-542.252	-64.833	-0.265	0.107
-541.237	45.891	-0.037	-0.034
-540.223	-64.378	0.321	-0.131
-539.208	775.613	-0.053	-0.145
-538.193	-12.526	-0.076	-0.050
-537.179	-47.042	-0.342	0.168
-536.164	398.840	0.080	0.169
-535.150	-200.000	-0.013	-0.080
-534.135	146.536	-0.142	-0.192
-533.121	99.767	0.233	0.271
-532.106	-14.995	-0.159	-0.102
-531.091	-161.668	0.255	-0.013
-530.077	-140.583	-0.308	-0.032
-529.062	409.252	-0.067	0.142
-528.048	-200.000	-0.225	0.001
-527.033	-200.000	-0.028	-0.158
-526.018	-16.019	-0.098	-0.063
-525.004	17.922	0.029	-0.023
-523.989	142.846	-0.225	-0.300
-522.975	800.000	-0.037	-0.108
-521.960	369.016	-0.101	0.205
-520.945	800.000	-0.015	-0.051
-519.931	-80.815	0.156	0.052
-518.916	-200.000	-0.033	-0.150
-517.902	-200.000	0.006	-0.098
-516.887	88.763	0.108	0.121
-515.872	376.676	0.079	-0.161
-514.858	-200.000	-0.073	-0.549
-513.843	-75.859	0.141	-0.050
-512.829	31.112	-0.133	-0.114
-511.814	245.791	-0.250	-0.422
-510.799	-200.000	0.015	-0.411
-509.785	99.416	0.196	-0.227
-508.770	-200.000	0.012	-0.110
-507.756	-50.352	-0.047	0.022
-506.741	800.000	-0.085	-0.265
-505.726	-151.523	-0.202	-0.015
-504.712	-51.122	0.226	-0.106
-503.697	800.000	0.074	-0.223
-502.683	800.000	-0.064	0.273
-501.668	57.690	0.213	0.208
-500.653	-42.542	-0.052	0.027
-499.639	669.625	0.065	-0.170
-498.624	-76.420	0.150	-0.053
-497.610	78.985	0.178	-0.191
-496.595	-125.840	0.179	0.027
-495.581	74.037	-0.147	-0.154
-494.566	-100.080	-0.126	0.031
-493.551	80.233	0.090	-0.097
-492.537	800.000	0.094	0.261
-491.522	-62.708	-0.255	0.106
-490.508	-77.566	0.335	-0.116
-489.493	354.444	-0.140	0.279
-488.478	-111.625	-0.406	-0.083
-487.464	-1.878	-0.232	0.163
-486.449	-120.388	-0.149	0.025
-485.435	151.598	0.240	0.327
-484.420	800.000	-0.035	0.136
-483.405	25.797	-0.281	0.234
-482.391	221.359	0.043	-0.070
-481.376	66.251	-0.156	-0.159
-480.362	-200.000	0.004	0.116
-479.347	177.686	0.091	-0.133
-478.332	550.575	-0.069	-0.167
-477.318	-15.482	-0.420	-0.268
-476.303	-107.404	0.170	0.037
-475.289	-62.238	0.228	-0.095
-474.274	30.048	-0.282	-0.241
-473.259	8.044	-0.096	-0.072
-472.245	-75.149	0.105	-0.038
-471.230	-122.638	-0.157	-0.025
-470.216	-200.000	0.038	-0.177
-469.201	-174.506	0.363	-0.010
-468.186	800.000	-0.074	0.258
-467.172	-0.752	-0.345	-0.245
-466.157	-200.000	0.031	-0.310
-465.143	-91.694	0.069	-0.020
-464.128	-33.066	-0.187	0.104
-463.113	-64.402	-0.271	0.110
-462.099	332.250	-0.035	0.068
-461.084	31.267	0.042	0.036
-460.070	237.049	0.038	-0.063
-459.055	-200.000	-0.019	0.153
-458.040	3.099	0.172	0.125
-457.026	-101.427	0.191	-0.046
-456.011	-74.681	0.226	0.081
-454.997	1.499	0.048	-0.034
-453.982	16.544	0.171	0.135
-452.968	-57.060	0.379	0.167
-451.953	-200.000	-0.016	0.255
-450.938	-36.509	0.153	0.082
-449.924	-10.046	0.145	-0.096
-448.909	152.277	0.196	-0.268
-447.895	102.057	0.097	-0.114
-446.880	-84.216	0.174	-0.055
-445.865	6.650	0.219	0.163
-444.851	-39.166	0.087	0.046
-443.836	-168.606	0.425	-0.016
-442.822	-200.000	0.041	0.234
-441.807	269.975	0.142	0.249
-440.792	14.600	0.273	-0.213
-439.778	-151.440	0.340	-0.025
-438.763	28.491	0.079	-0.067
-437.749	212.591	-0.081	-0.128
-436.734	-200.000	-0.048	-0.404
-435.719	116.942	0.186	-0.228
-434.705	-151.728	-0.060	0.004
-433.690	138.549	0.118	0.155
-432.676	206.794	0.152	0.236
-431.661	20.087	0.014	-0.011
-430.646	782.820	-0.050	0.136
-429.632	-156.326	-0.213	-0.013
-428.617	99.963	-0.095	-0.110
-427.603	13.968	0.163	-0.127
-426.588	231.122	0.144	0.236
-425.573	800.000	0.148	0.519
-424.559	-13.236	-0.191	0.124
-423.544	130.138	-0.119	0.152
-422.530	100.657	0.193	0.224
-421.515	739.933	0.112	-0.299
-420.500	649.030	-0.081	0.208
-419.486	-115.575	0.338	-0.063
-418.471	-159.317	0.051	-0.003
-417.457	115.222	-0.132	-0.161
-416.442	-140.930	0.188	-0.019
-415.428	800.000	0.049	-0.145
-414.413	-45.809	-0.397	-0.196
-413.398	-200.000	0.025	-0.255
-412.384	-11.037	0.167	0.110
-411.369	35.678	-0.334	0.293
-410.355	13.296	0.031	-0.024
-409.340	186.219	-0.070	-0.104
-408.325	185.093	0.150	-0.222
-407.311	439.485	-0.115	0.251
-406.296	-144.703	-0.018	0.002
-405.282	-5.145	-0.064	0.044
-404.267	800.000	-0.099	0.419
-403.252	7.604	0.178	-0.133
-402.238	149.354	-0.148	0.199
-401.223	-149.613	0.166	-0.013
-400.209	-60.577	0.187	0.079
-399.194	9.466	0.112	-0.085
-398.179	800.000	0.072	0.283
-397.165	-75.121	0.145	0.052
-396.150	148.127	-0.122	-0.164
-395.136	800.000	-0.040	-0.134
-394.121	105.561	-0.140	-0.165
-393.106	-200.000	0.043	-0.370
-392.092	-160.448	0.095	-0.005
-391.077	-144.121	0.253	-0.024
-390.063	186.103	-0.100	0.149
-389.048	55.269	-0.174	0.168
-388.033	800.000	-0.043	0.136
-387.019	-200.000	0.067	0.309
-386.004	-178.131	-0.339	0.008
-384.990	-17.137	-0.206	-0.129
-383.975	-200.000	0.066	-0.319
-382.960	-68.937	0.073	-0.028
-381.946	-67.514	0.276	0.108
-380.931	800.000	0.019	-0.072
-379.917	-134.072	-0.319	-0.039
-378.902	15.820	-0.211	0.166
-377.888	-6.147	-0.197	0.134
-376.873	-200.000	-0.037	0.237
-375.858	800.000	0.041	0.119
-374.844	68.378	-0.271	0.277
-373.829	594.109	0.107	-0.263
-372.815	264.627	-0.130	0.226
-371.800	-200.000	-0.048	0.249
-370.785	-200.000	-0.028	0.139
-369.771	-200.000	-0.055	-0.296
-368.756	-5.835	-0.183	0.125
-367.742	4.260	0.178	0.130
-366.727	141.967	0.212	0.281
-365.712	-200.000	0.017	0.232
-364.698	145.574	-0.037	-0.049
-363.683	44.195	-0.205	-0.187
-362.669	-136.738	-0.098	0.011
-361.654	272.841	0.161	0.283
-360.639	-62.669	-0.294	-0.121
-359.625	800.000	0.106	0.319
-358.610	800.000	-0.080	0.332
-357.596	629.218	-0.126	-0.318
-356.581	-37.026	0.030	0.016
-355.566	-54.322	-0.124	-0.056
-354.552	527.324	-0.034	0.080
-353.537	188.123	-0.140	-0.209
-352.523	4.214	-0.215	-0.157
-351.508	-192.144	0.344	-0.003
-350.493	-17.351	0.282	-0.177
-349.479	-200.000	0.017	0.227
-348.464	-24.770	0.068	0.040
-347.450	800.000	0.020	-0.077
-346.435	800.000	-0.042	0.119
-345.420	14.590	0.078	0.060
-344.406	538.761	-0.062	-0.147
-343.391	-92.108	-0.470	0.132
-342.377	-3.419	-0.348	-0.241
-341.362	-34.746	0.151	-0.082
-340.348	59.724	-0.149	0.146
-339.333	85.407	-0.221	0.241
-338.318	-1.714	-0.268	0.188
-337.304	-66.457	0.217	-0.086
-336.289	-63.748	0.268	0.109
-335.275	132.139	-0.161	-0.207
-334.260	254.896	-0.071	-0.121
-333.245	-189.716	-0.444	-0.005
-332.231	-107.639	-0.285	-0.062
-331.216	-84.384	-0.212	0.067
-330.202	23.402	0.202	-0.165
-329.187	-76.282	-0.257	-0.090
-328.172	454.966	0.149	0.329
-327.158	-200.000	-0.070	-0.350
-326.143	-200.000	-0.029	0.293
-325.129	464.943	0.122	0.272
-324.114	-200.000	-0.050	-0.242
-323.099	336.499	-0.129	-0.248
-322.085	224.083	-0.247	-0.397
-321.070	12.143	-0.178	0.136
-320.056	-200.000	-0.030	-0.298
-319.041	32.602	0.136	0.117
-318.026	-96.856	-0.074	0.019
-317.012	-111.717	-0.464	0.093
-315.997	227.970	-0.095	-0.153
-314.983	-117.808	0.141	-0.025
-313.968	30.799	-0.017	-0.014
-312.953	-12.977	0.204	-0.132
-311.939	125.187	-0.055	-0.068
-310.924	-200.000	0.031	0.149
-309.910	141.607	0.115	0.151
-308.895	-164.420	0.576	-0.026
-307.880	-200.000	-0.021	-0.150
-306.866	450.659	-0.087	0.191
-305.851	-148.458	0.087	-0.007
-304.837	51.825	0.110	-0.104
-303.822	-77.893	-0.068	0.023
-302.807	-126.529	0.266	0.039
-301.793	78.554	-0.086	-0.092
-300.778	121.695	-0.231	-0.287
-299.764	-15.361	0.119	-0.076
-298.749	-200.000	0.055	-0.241
-297.735	106.443	0.258	0.304
-296.720	149.492	0.229	-0.308
-295.705	-37.454	0.085	-0.045
-294.691	197.417	-0.084	-0.127
-293.676	190.418	0.050	-0.075
-292.662	-157.275	-0.509	-0.031
-291.647	-85.670	0.066	0.020
-290.632	-90.760	0.094	0.027
-289.618	-82.790	-0.210	0.067
-288.603	298.420	-0.082	0.150
-287.589	-131.721	0.229	-0.030
-286.574	800.000	0.010	0.028
-285.559	254.730	-0.160	-0.272
-284.545	-46.881	-0.183	-0.089
-283.530	74.303	0.208	-0.217
-282.516	359.165	0.067	0.133
-281.501	241.103	-0.073	-0.121
-280.486	-93.787	0.095	0.026
-279.472	33.579	-0.024	-0.020
-278.457	-78.834	-0.521	-0.176
-277.443	-200.000	0.007	0.088
-276.428	264.639	0.168	0.291
-275.413	800.000	0.041	0.175
-274.399	272.752	0.074	0.130
-273.384	-153.174	-0.070	0.005
-272.370	41.477	0.054	-0.049
-271.355	384.009	0.119	0.243
-270.340	-25.456	0.177	-0.104
-269.326	-42.462	-0.245	0.124
-268.311	-86.151	0.238	0.073
-267.297	-200.000	0.006	-0.146
-266.282	-113.264	0.204	-0.040
-265.267	111.047	0.223	0.267
-264.253	149.471	-0.227	0.306
-263.238	4.404	-0.040	-0.029
-262.224	175.692	-0.085	0.123
-261.209	800.000	0.110	0.397
-260.195	-160.332	0.280	0.015
-259.180	-136.541	-0.150	0.017
-258.165	628.485	0.176	-0.443
-257.151	-75.322	0.338	0.120
-256.136	-82.606	0.107	0.034
-255.122	-128.418	-0.249	-0.035
-254.107	15.236	0.217	0.169
-253.092	53.431	-0.057	0.054
-252.078	-200.000	0.073	-0.417
-251.063	-63.378	-0.265	0.108
-250.049	176.832	0.131	0.189
-249.034	800.000	-0.048	0.147
-248.019	-124.492	0.248	0.038
-247.005	-200.000	-0.019	-0.308
-245.990	322.819	0.179	-0.338
-244.976	475.724	-0.164	-0.366
-243.961	-200.000	-0.033	-0.160
-242.946	-200.000	-0.001	0.081
-241.932	150.042	-0.200	0.270
-240.917	-138.971	-0.061	-0.007
-239.903	-93.823	-0.033	-0.009
-238.888	556.134	-0.075	-0.179
-237.873	-144.272	-0.217	-0.020
-236.859	8.263	-0.133	-0.099
-235.844	-125.762	0.225	-0.034
-234.830	-28.602	0.245	0.140
-233.815	-126.159	0.162	0.024
-232.800	-126.672	-0.258	0.038
-231.786	-74.778	0.092	-0.033
-230.771	800.000	-0.042	-0.132
-229.757	-176.588	0.123	-0.003
-228.742	480.807	0.129	0.290
-227.727	-200.000	-0.019	0.204
-226.713	-115.708	-0.241	-0.045
-225.698	-155.708	0.283	-0.018
-224.684	800.000	0.022	0.066
-223.669	-152.941	0.174	-0.012
-222.655	147.373	-0.074	0.099
-221.640	-9.720	0.308	-0.203
-220.625	-17.180	0.178	0.111
-219.611	228.850	-0.129	0.208
-218.596	-98.109	0.480	0.122
-217.582	-200.000	0.041	0.190
-216.567	339.694	-0.049	0.094
-215.552	607.883	-0.074	-0.183
-214.538	25.302	-0.067	-0.055
-213.523	-42.638	-0.494	0.249
-212.509	-200.000	-0.001	0.194
-211.494	467.127	-0.108	-0.240
-210.479	648.134	0.093	0.235
-209.465	-101.688	-0.273	0.066
-208.450	262.506	-0.043	-0.075
-207.436	-76.521	-0.146	0.051
-206.421	-26.947	0.118	-0.068
-205.406	-25.491	0.102	0.060
-204.392	-200.000	0.011	-0.278
-203.377	-200.000	-0.020	0.144
-202.363	-3.639	-0.236	0.162
-201.348	32.632	0.244	-0.209
-200.333	416.276	-0.063	0.133
-199.319	-59.947	0.107	0.045
-198.304	56.008	-0.116	-0.111
-197.290	800.000	-0.026	-0.094
-196.275	137.951	-0.101	0.131
-195.260	-8.470	0.132	0.088
-194.246	-145.372	0.419	-0.037
-193.231	-17.956	0.328	0.204
-192.217	311.495	-0.104	-0.194
-191.202	559.972	0.099	-0.238
-190.187	134.070	0.118	0.151
-189.173	-105.018	-0.062	0.014
-188.158	241.222	-0.040	-0.067
-187.144	-200.000	-0.021	0.224
-186.129	-25.801	-0.155	-0.091
-185.114	-127.595	-0.244	-0.035
-184.100	800.000	-0.109	-0.333
-183.085	-200.000	-0.010	0.287
-182.071	-53.579	0.004	-0.002
-181.056	-163.170	0.240	0.011
-180.042	-50.604	0.273	0.127
-179.027	-113.634	0.142	0.027
-178.012	134.878	-0.313	-0.402
-176.998	-136.227	0.231	0.027
-175.983	-108.699	-0.141	0.030
-174.969	-7.226	0.288	-0.193
-173.954	-118.077	0.160	0.028
-172.939	-200.000	-0.027	0.186
-171.925	800.000	0.090	0.250
-170.910	-178.206	-0.178	0.004
-169.896	800.000	-0.042	0.176
-168.881	-123.326	-0.147	0.023
-167.866	-26.589	0.386	0.223
-166.852	-31.876	0.356	-0.197
-165.837	445.418	0.081	-0.175
-164.823	276.923	-0.144	0.253
-163.808	-200.000	0.006	0.081
-162.793	-200.000	0.006	-0.050
-161.779	800.000	0.042	-0.137
-160.764	-30.367	-0.294	-0.165
-159.750	412.056	0.107	0.224
-158.735	82.871	0.327	0.352
-157.720	-200.000	-0.002	0.186
-156.706	-51.244	0.098	-0.045
-155.691	210.541	0.075	0.117
-154.677	-14.892	-0.230	-0.146
-153.662	-38.176	-0.263	-0.138
-152.647	-200.000	0.169	-0.000
-151.633	-192.800	-0.313	-0.003
-150.618	-132.850	-0.165	-0.021
-149.604	531.279	0.035	0.082
-148.589	53.298	0.163	0.154
-147.574	773.467	0.067	-0.180
-146.560	-66.431	-0.111	0.044
-145.545	-61.820	-0.319	-0.132
-144.531	-110.426	-0.237	-0.049
-143.516	-200.000	-0.027	0.410
-142.502	99.068	0.080	0.091
-141.487	-177.397	-0.385	-0.009
-140.472	-200.000	-0.015	-0.147
-139.458	-154.225	0.274	0.018
-138.443	-200.000	-0.006	-0.050
-137.429	554.224	-0.049	-0.117
-136.414	-1.064	0.163	-0.114
-135.399	-80.175	0.061	0.020
-134.385	-200.000	-0.003	-0.080
-133.370	-122.843	0.079	-0.013
-132.356	312.762	0.129	0.240
-131.341	-7.191	0.158	-0.106
-130.326	141.800	0.178	-0.233
-129.312	693.123	0.139	-0.359
-128.297	16.505	-0.329	0.257
-127.283	19.039	0.110	-0.087
-126.268	88.930	0.272	-0.299
-125.253	800.000	-0.064	-0.208
-124.239	-42.839	0.293	-0.147
-123.224	546.378	-0.013	-0.030
-122.210	262.117	-0.047	-0.080
-121.195	572.014	0.113	-0.271
-120.180	79.540	0.070	-0.074
-119.166	8.143	0.339	-0.251
-118.151	3.110	-0.216	0.155
-117.137	-200.000	-0.055	0.256
-116.122	-151.250	0.266	-0.020
-115.107	-18.410	0.330	0.203
-114.093	-200.000	-0.034	0.260
-113.078	275.518	-0.060	-0.105
-112.064	68.350	-0.018	-0.018
-111.049	-33.183	-0.142	-0.078
-110.034	800.000	-0.098	0.288
-109.020	800.000	-0.092	0.350
-108.005	-200.000	0.016	0.088
-106.991	-200.000	0.012	-0.150
-105.976	-104.928	-0.198	-0.045
-104.962	175.519	-0.219	0.313
-103.947	-70.001	0.190	-0.072
-102.932	101.755	0.157	0.180
-101.918	800.000	-0.043	-0.144
-100.903	-157.791	0.203	-0.012
-99.889	78.682	-0.294	0.310
-98.874	-70.917	-0.205	0.076
-97.859	46.714	-0.075	-0.069
-96.845	-141.312	-0.438	-0.044
-95.830	800.000	-0.058	0.180
-94.816	-130.485	-0.299	0.040
-93.801	-72.644	0.244	0.089
-92.786	-108.254	0.374	0.080
-91.772	-25.011	0.224	0.131
-90.757	-48.755	0.242	0.114
-89.743	156.523	0.185	-0.252
-88.728	-200.000	0.019	0.174
-87.713	-149.527	0.333	0.026
-86.699	-200.000	-0.037	-0.179
-85.684	-28.540	-0.359	0.204
-84.670	-95.227	-0.173	-0.046
-83.655	-200.000	-0.048	-0.394
-82.640	-181.208	0.387	0.008
-81.626	-107.101	-0.147	0.032
-80.611	-103.931	0.355	-0.082
-79.597	-25.184	-0.156	-0.091
-78.582	68.050	0.049	0.049
-77.567	800.000	-0.008	-0.033
-76.553	392.355	0.100	0.205
-75.538	206.004	-0.144	-0.220
-74.524	-200.000	-0.015	-0.139
-73.509	-82.517	0.516	-0.165
-72.494	446.114	-0.057	-0.124
-71.480	-200.000	-0.001	0.132
-70.465	709.084	0.016	-0.042
-69.451	-83.572	-0.286	0.090
-68.436	54.484	-0.171	0.162
-67.422	-160.428	-0.396	-0.021
-66.407	-127.812	0.294	0.042
-65.392	42.792	0.028	-0.025
-64.378	-200.000	0.022	0.124
-63.363	219.629	-0.093	-0.147
-62.349	-109.574	0.353	0.073
-61.334	47.678	-0.911	-0.837
-60.319	372.598	0.101	0.203
-59.305	-200.000	-0.036	-1.011
-58.290	101.364	0.687	0.787
-57.276	655.250	0.564	1.426
-56.261	-200.000	102.486	654.114
-55.246	626.609	1461.732	3632.216
-54.232	177.749	2678.587	3843.807
-53.217	120.090	2191.733	2676.372
-52.203	44.630	1630.762	1475.701
-51.188	35.769	1365.719	1181.678
-50.173	32.566	1323.149	1125.696
-49.159	57.877	1374.878	1324.212
-48.144	59.928	1390.638	1351.764
-47.130	36.145	1344.771	1165.640
-46.115	32.589	1326.678	1128.656
-45.100	32.253	1322.480	1123.032
-44.086	32.139	1319.634	1119.894
-43.071	32.242	1317.322	1118.496
-42.057	32.162	1314.977	1115.989
-41.042	32.147	1314.083	1115.098
-40.027	32.206	1312.101	1113.721
-39.013	32.200	1310.390	1112.187
-37.998	32.121	1308.666	1110.212
-36.984	32.317	1306.885	1109.816
-35.969	32.346	1304.602	1108.001
-34.954	32.435	1303.116	1107.218
-33.940	32.443	1301.839	1106.136
-32.925	32.344	1300.999	1104.797
-31.911	32.449	1299.167	1103.814
-30.896	32.490	1297.207	1102.345
-29.881	32.443	1296.385	1101.333
-28.867	32.484	1294.597	1100.005
-27.852	32.495	1293.226	1098.865
-26.838	32.511	1291.844	1097.735
-25.823	32.535	1290.169	1096.411
-24.809	32.475	1289.145	1095.146
-23.794	32.374	1287.964	1093.512
-22.779	32.373	1286.305	1092.058
-21.765	32.438	1285.345	1091.574
-20.750	32.419	1283.697	1090.022
-19.736	32.341	1282.491	1088.502
-18.721	32.314	1281.481	1087.449
-17.706	32.294	1280.394	1086.366
-16.692	32.358	1278.862	1085.395
-15.677	32.253	1278.324	1084.286
-14.663	32.263	1276.848	1083.048
-13.648	32.225	1275.716	1081.828
-12.633	32.310	1274.759	1081.462
-11.619	32.289	1273.819	1080.500
-10.604	32.231	1273.140	1079.548
-9.590	32.256	1272.255	1078.899
-8.575	32.290	1271.227	1078.181
-7.560	32.309	1270.063	1077.257
-6.546	32.268	1269.628	1076.613
-5.531	32.230	1268.586	1075.469
-4.517	32.274	1267.792	1075.004
-3.502	32.322	1266.899	1074.476
-2.487	32.292	1266.206	1073.675
-1.473	32.223	1262.595	1070.181
-0.458	31.312	1247.633	1052.329
0.556	50.431	1230.037	1017.244
1.571	46.611	1235.930	1003.473
2.586	45.651	1251.384	1011.196
3.600	44.568	1239.518	996.220
4.615	36.925	1164.337	900.375
5.629	25.176	1085.487	788.060
6.644	20.238	1064.548	751.453
7.659	19.783	1062.517	747.986
8.673	19.836	1060.296	746.587
9.688	19.674	1059.602	745.333
10.702	20.202	1057.715	746.210
11.717	27.708	1067.581	785.568
12.731	38.771	1081.658	843.801
13.746	43.900	1086.970	869.974
14.761	44.725	1087.975	874.246
15.775	44.806	1087.447	874.089
16.790	44.561	1086.344	872.075
17.804	44.497	1086.310	871.695
18.819	44.793	1085.228	872.017
19.834	44.695	1084.963	871.310
20.848	44.924	1084.343	871.714
21.863	44.840	1084.129	871.104
22.877	44.668	1083.398	869.706
23.892	44.576	1082.499	868.513
24.907	44.743	1081.857	868.635
25.921	44.778	1080.778	867.841
26.936	44.729	1079.122	866.225
27.950	44.596	1078.051	864.723
28.965	44.562	1075.594	862.535
29.980	44.648	1073.982	861.527
30.994	44.867	1073.097	861.667
32.009	44.822	1072.025	860.541
33.023	44.604	1071.149	858.842
34.038	44.750	1070.072	858.518
35.053	44.878	1069.717	858.697
36.067	44.811	1069.048	857.802
37.082	44.881	1067.864	857.072
38.096	45.156	1067.303	857.701
39.111	45.165	1066.790	857.251
40.126	44.982	1064.848	854.847
41.140	44.493	1063.343	851.512
42.155	44.359	1062.151	849.926
43.169	44.414	1060.770	848.974
44.184	44.438	1059.731	848.166
45.199	44.296	1058.870	846.812
46.213	44.270	1058.185	846.081
47.228	44.565	1057.371	846.584
48.242	44.516	1056.137	845.317
49.257	44.708	1055.757	845.734
50.271	44.827	1054.837	845.418
51.286	44.944	1053.201	844.516
52.301	44.817	1053.382	844.057
53.315	44.768	1052.115	842.766
54.330	44.821	1050.728	841.801
55.344	44.798	1050.389	841.357
56.359	44.646	1049.334	839.814
57.374	44.549	1048.208	838.436
58.388	44.468	1047.536	837.493
59.403	44.522	1046.757	837.016
60.417	44.289	1045.498	834.977
61.432	44.491	1044.826	835.198
62.447	44.525	1044.043	834.636
63.461	44.678	1043.506	834.761
64.476	44.623	1042.163	833.387
65.490	44.482	1041.186	831.958
66.505	44.549	1040.476	831.590
67.520	44.549	1040.272	831.354
68.534	44.304	1038.572	828.922
69.549	44.135	1037.539	827.335
70.563	43.972	1037.059	826.214
71.578	43.940	1036.322	825.422
72.593	43.790	1035.297	823.924
73.607	43.971	1034.713	824.120
74.622	44.395	1034.179	825.344
75.636	44.344	1033.779	824.746
76.651	44.107	1033.274	823.308
77.666	44.137	1031.995	822.339
78.680	44.242	1031.561	822.345
79.695	44.291	1030.918	821.959
80.709	44.420	1030.043	821.710
81.724	44.346	1029.120	820.603
82.739	44.252	1028.606	819.740
83.753	44.798	1027.642	821.102
84.768	45.250	1026.571	821.991
85.782	45.134	1026.171	821.130
86.797	45.019	1024.916	819.591
87.812	44.843	1023.692	817.836
88.826	45.063	1022.815	817.943
89.841	45.190	1021.967	817.703
90.855	45.027	1021.427	816.545
91.870	44.887	1020.481	815.159
92.884	44.907	1019.044	814.018
93.899	44.722	1018.288	812.602
94.914	44.999	1017.143	812.721
95.928	44.735	1016.332	810.949
96.943	44.618	1014.763	809.162
97.957	44.246	1014.091	807.075
98.972	44.092	1012.791	805.359
99.987	44.402	1012.220	806.061
101.001	44.650	1011.301	806.242
102.016	44.705	1010.655	805.874
103.030	44.495	1009.808	804.295
104.045	44.488	1008.274	802.978
105.060	44.184	1007.555	801.131
106.074	44.428	1006.993	801.577
107.089	44.885	1006.249	802.715
108.103	44.748	1005.061	801.157
109.118	44.482	1003.942	799.150
110.133	44.454	1003.038	798.248
111.147	44.327	1001.801	796.697
112.162	44.241	1000.351	795.136
113.176	44.524	1000.110	795.980
114.191	44.149	999.658	794.085
115.206	43.935	998.280	792.080
116.220	43.926	997.467	791.333
117.235	44.088	996.340	790.999
118.249	44.341	995.407	791.175
119.264	44.083	994.772	789.594
120.279	44.051	994.329	789.048
121.293	44.162	993.327	788.614
122.308	44.266	991.938	787.846
123.322	44.202	990.913	786.717
124.337	44.044	989.596	784.989
125.352	43.579	987.639	781.568
126.366	43.437	986.891	780.358
127.381	44.156	987.236	783.339
128.395	44.669	986.762	784.874
129.410	45.023	985.023	784.785
130.424	44.743	984.392	783.134
131.439	44.668	983.789	782.297
132.454	44.709	982.521	781.376
133.468	44.764	981.253	780.510
134.483	44.828	980.928	780.429
135.497	44.953	980.164	780.230
136.512	44.979	979.208	779.499
137.527	45.057	978.436	779.114
138.541	45.257	977.022	778.682
139.556	45.068	976.723	777.652
140.570	45.176	976.209	777.586
141.585	45.017	975.381	776.254
142.600	45.154	973.903	775.529
143.614	45.226	973.580	775.477
144.629	45.321	972.694	775.062
145.643	45.115	971.270	773.078
146.658	44.975	969.937	771.421
147.673	44.874	968.922	770.162
148.687	44.795	968.372	769.358
149.702	44.728	967.161	768.076
150.716	44.592	966.719	767.144
151.731	44.941	965.973	767.800
152.746	45.049	965.420	767.697
153.760	45.160	964.600	767.393
154.775	45.318	963.320	766.904
155.789	45.204	962.833	766.020
156.804	45.159	961.982	765.105
157.819	45.305	961.094	764.877
158.833	45.264	960.678	764.326
159.848	45.308	959.049	763.128
160.862	45.209	958.178	761.999
161.877	45.327	957.177	761.572
162.892	45.229	955.885	760.113
163.906	45.150	955.060	759.095
164.921	45.274	953.832	758.514
165.935	45.254	953.517	758.122
166.950	45.222	952.299	756.967
167.964	45.183	951.513	756.132
168.979	45.078	950.260	754.682
169.994	45.136	949.211	753.994
171.008	45.359	949.287	754.813
172.023	45.245	948.340	753.572
173.037	44.908	947.129	751.302
174.052	44.860	945.825	750.025
175.067	44.848	945.620	749.751
176.081	44.986	945.131	749.804
177.096	44.896	944.075	748.568
178.110	44.582	942.998	746.496
179.125	44.575	941.859	745.503
180.140	44.625	942.019	745.747
181.154	44.563	941.802	745.282
182.169	44.984	941.468	746.492
183.183	45.193	940.896	746.737
184.198	45.045	940.027	745.440
185.213	45.039	939.615	745.027
186.227	45.329	938.665	745.267
187.242	45.197	938.019	744.207
188.256	45.102	937.471	743.361
189.271	45.345	936.346	743.287
190.286	44.967	935.352	741.058
191.300	44.506	933.697	738.008
192.315	43.553	932.420	733.478
193.329	43.423	931.885	732.522
194.344	44.498	932.611	736.924
195.359	44.942	932.427	738.324
196.373	45.246	931.639	738.734
197.388	44.856	931.108	736.838
198.402	45.075	930.620	737.177
199.417	45.080	929.758	736.447
200.432	44.754	928.645	734.324
201.446	44.487	928.078	732.851
202.461	44.563	927.451	732.564
203.475	43.623	925.401	727.499
204.490	42.791	923.919	723.282
205.504	43.856	924.669	727.632
206.519	44.669	924.572	730.411
207.534	44.667	924.202	730.048
208.548	45.268	923.912	731.907
209.563	45.026	922.812	730.105
210.577	44.858	922.438	729.142
211.592	45.340	921.977	730.436
212.607	45.186	921.138	729.158
213.621	45.404	920.254	729.172
214.636	45.413	919.512	728.551
215.650	45.192	918.932	727.240
216.665	45.395	918.554	727.597
217.680	45.262	917.752	726.427
218.694	44.748	916.390	723.459
219.709	44.670	915.412	722.344
220.723	44.938	915.394	723.219
221.738	45.044	914.632	722.927
222.753	45.054	913.992	722.395
223.767	45.257	913.507	722.665
224.782	45.419	913.253	722.974
225.796	45.278	912.685	721.959
226.811	44.610	910.882	718.113
227.826	43.973	909.617	714.807
228.840	44.096	909.313	714.939
229.855	44.314	908.376	714.907
230.869	43.825	907.709	712.598
231.884	44.393	907.609	714.456
232.899	45.106	907.714	716.979
233.913	45.018	906.623	715.747
234.928	45.034	906.551	715.681
235.942	44.917	905.984	714.759
236.957	44.584	904.715	712.530
237.972	44.663	903.822	712.040
238.986	44.770	903.747	712.291
240.001	44.716	903.294	711.685
241.015	44.953	902.437	711.774
242.030	44.985	901.854	711.363
243.045	45.154	901.479	711.592
244.059	45.259	901.016	711.529
245.074	44.929	900.444	709.865
246.088	44.677	898.819	707.648
247.103	44.956	898.397	708.221
248.117	45.679	899.040	711.176
249.132	45.823	898.273	711.004
250.147	45.980	897.687	711.022
251.161	46.057	897.269	710.894
252.176	45.873	896.611	709.675
253.190	46.086	896.028	709.887
254.205	46.195	895.604	709.864
255.220	46.168	895.277	709.451
256.234	46.013	893.894	707.758
257.249	45.895	893.450	706.935
258.263	46.080	892.392	706.674
259.278	46.138	891.796	706.338
260.293	46.129	891.400	705.930
261.307	45.995	890.604	704.776
262.322	45.737	889.587	703.027
263.336	44.853	887.760	698.491
264.351	43.669	886.099	693.070
265.366	43.922	885.732	693.586
266.380	45.144	886.312	698.161
267.395	45.751	885.787	699.760
268.409	45.607	884.823	698.447
269.424	45.830	884.619	698.982
270.439	45.857	883.869	698.421
271.453	45.917	883.418	698.207
272.468	46.071	883.174	698.475
273.482	46.009	882.793	697.900
274.497	45.576	881.329	695.211
275.512	45.215	880.669	693.406
276.526	45.773	880.669	695.239
277.541	45.834	880.495	695.247
278.555	45.645	879.470	693.733
279.570	45.443	878.420	692.163
280.585	45.727	877.832	692.599
281.599	45.601	877.073	691.513
282.614	45.035	875.727	688.479
283.628	45.158	875.046	688.299
284.643	45.526	874.914	689.372
285.657	44.992	873.628	686.502
286.672	44.568	872.901	684.443
287.687	45.328	873.079	687.080
288.701	45.412	872.604	686.926
289.716	45.154	871.011	684.745
290.730	45.125	870.394	684.104
291.745	44.634	869.727	681.875
292.760	45.076	869.742	683.308
293.774	46.162	870.053	687.123
294.789	46.456	870.000	688.006
295.803	46.475	869.634	687.718
296.818	46.438	868.675	686.774
297.833	46.101	867.548	684.702
298.847	46.083	866.548	683.792
299.862	46.305	866.321	684.290
300.876	46.525	866.208	684.871
301.891	46.358	865.166	683.432
302.906	45.963	864.316	681.389
303.920	46.194	863.956	681.811
304.935	46.591	863.616	682.799
305.949	46.417	863.053	681.718
306.964	46.223	862.507	680.585
307.979	46.280	862.179	680.454
308.993	46.618	861.576	681.035
310.008	46.660	861.458	681.020
311.022	46.328	860.601	679.185
312.037	46.056	860.035	677.781
313.052	45.896	858.928	676.322
314.066	44.964	857.262	671.882
315.081	44.605	856.833	670.304
316.095	45.663	857.036	673.887
317.110	46.062	856.810	674.961
318.125	45.057	855.320	670.429
319.139	44.033	853.703	665.742
320.154	44.113	853.473	665.765
321.168	45.054	853.846	669.084
322.183	45.819	853.771	671.474
323.197	46.064	853.263	671.815
324.212	46.276	853.248	672.439
325.227	46.302	852.490	671.866
326.241	46.140	851.863	670.783
327.256	46.073	851.124	669.923
328.270	46.012	850.525	669.193
329.285	45.788	849.638	667.707
330.300	45.405	848.901	665.825
331.314	45.795	848.722	666.893
332.329	46.226	848.512	668.071
333.343	46.339	848.285	668.198
334.358	46.359	847.921	667.919
335.373	46.464	847.279	667.693
336.387	46.714	847.411	668.552
337.402	46.925	847.006	668.854
338.416	46.778	846.490	667.912
339.431	46.845	846.321	667.938
340.446	46.903	846.112	667.898
341.460	46.687	845.588	666.729
342.475	46.720	844.871	666.211
343.489	46.787	844.379	665.982
344.504	46.946	844.266	666.345
345.519	47.110	843.889	666.516
346.533	47.107	843.785	666.368
347.548	47.357	843.106	666.576
348.562	47.284	842.073	665.466
349.577	46.993	841.860	664.305
350.592	47.169	840.812	663.982
351.606	47.243	840.374	663.817
352.621	47.046	839.180	662.184
353.635	46.916	838.595	661.246
354.650	46.044	837.143	657.252
355.665	45.200	835.562	653.255
356.679	45.524	835.618	654.279
357.694	46.129	835.342	655.937
358.708	45.948	834.541	654.672
359.723	46.490	834.506	656.314
360.738	46.741	834.384	656.960
361.752	46.878	833.867	656.932
362.767	47.325	833.490	657.997
363.781	47.741	832.693	658.630
364.796	47.686	832.449	658.205
365.810	47.545	832.284	657.570
366.825	47.549	831.651	657.024
367.840	47.332	830.655	655.490
368.854	46.734	830.253	653.225
369.869	46.990	829.542	653.417
370.883	46.973	829.085	652.945
371.898	46.800	828.617	651.971
372.913	47.044	828.067	652.251
373.927	47.038	827.756	651.930
374.942	47.306	827.596	652.592
375.956	47.319	827.304	652.346
376.971	47.545	826.590	652.435
377.986	47.610	826.420	652.447
379.000	47.456	825.998	651.574
380.015	47.435	824.960	650.631
381.029	47.393	824.619	650.172
382.044	47.588	823.941	650.191
383.059	47.490	823.956	649.839
384.073	47.684	823.045	649.669
385.088	47.705	822.220	649.027
386.102	47.388	821.783	647.635
387.117	47.191	821.214	646.512
388.132	46.943	819.679	644.472
389.146	46.392	818.842	642.040
390.161	46.770	818.975	643.264
391.175	47.363	818.684	644.827
392.190	46.989	817.322	642.533
393.205	45.496	815.533	636.434
394.219	43.556	813.865	629.047
395.234	43.574	814.226	629.324
396.248	45.452	815.444	636.056
397.263	47.195	816.089	641.919
398.278	47.150	815.600	641.340
399.292	46.798	815.040	639.752
400.307	46.795	814.345	639.139
401.321	46.933	813.970	639.217
402.336	47.501	814.014	640.952
403.350	47.676	814.281	641.646
404.365	48.116	813.632	642.438
405.380	48.246	813.439	642.632
406.394	48.473	812.762	642.739
407.409	48.474	812.038	642.111
408.423	48.369	811.881	641.610
409.438	48.308	811.463	641.032
410.453	48.452	811.331	641.315
411.467	48.490	810.427	640.661
412.482	48.271	810.074	639.653
413.496	48.418	810.105	640.073
414.511	48.387	809.641	639.553
415.526	48.399	809.088	639.097
416.540	48.412	807.772	638.040
417.555	47.853	807.598	636.133
418.569	48.151	806.837	636.392
419.584	48.069	806.438	635.770
420.599	47.814	806.188	634.738
421.613	207.507	1365.465	1796.697
422.628	182.014	1446.944	1796.782
