DTS Sentinel unit serial number:	SN413079Multiplexer serial number:	ORYXHardware model number:	OX4-SRSoftware version number:	ORYX F/W v4.00 Oryx Data Collector v3.7.2.0data status	okinstallation	princeton_trtdifferential loss correction	single-endedforward channel	channel 1reverse channel	N/Adate	2019/09/12time	07:36:11forward acquisition time	60.00reverse acquisition time	0.00gamma	496.2192k internal	0.2316k external	0.2316temperature offset calibration	1.0038default loss term (dB/km)	0.3790temperature slope calibration	1.0000multiplexer offset coefficient	1.0000multiplexer slope coefficient	1.0000fibre end	0.00T internal ref (°C)	32.62T ext. ref 1 (°C)	1.62T ext. ref 2 (°C)	29.17length (m)	temperature (°C)	Stokes	anti-Stokes-747.200	-200.000	-0.021	-0.160
-746.185	554.392	-0.068	-0.166
-745.171	21.131	-0.314	-0.258
-744.156	373.959	0.199	0.411
-743.142	54.767	0.163	-0.160
-742.127	283.554	0.096	-0.175
-741.112	-81.389	-0.110	-0.037
-740.098	747.894	-0.108	0.295
-739.083	-156.385	0.214	-0.014
-738.069	-63.841	-0.329	0.136
-737.054	148.431	-0.140	0.191
-736.039	48.933	-0.332	0.316
-735.025	-158.850	0.466	0.027
-734.010	-147.086	0.073	-0.006
-732.996	800.000	0.075	0.315
-731.981	800.000	0.052	-0.226
-730.966	800.000	-0.058	0.240
-729.952	26.730	0.198	-0.168
-728.937	7.003	-0.289	-0.218
-727.923	-32.749	-0.125	-0.070
-726.908	-200.000	0.057	-0.257
-725.894	49.751	-0.176	-0.168
-724.879	292.421	-0.056	-0.103
-723.864	800.000	0.085	-0.248
-722.850	-80.941	0.179	-0.060
-721.835	-200.000	-0.002	-0.045
-720.821	-55.431	0.224	0.102
-719.806	-101.803	0.309	-0.076
-718.791	251.411	0.144	-0.247
-717.777	167.254	-0.215	0.309
-716.762	-88.360	0.109	-0.033
-715.748	-200.000	-0.009	-0.183
-714.733	-34.115	-0.143	-0.080
-713.718	-120.127	-0.234	-0.040
-712.704	563.604	-0.041	0.101
-711.689	-1.549	0.283	-0.202
-710.675	333.398	-0.112	-0.219
-709.660	-114.506	0.353	0.068
-708.645	703.498	-0.097	0.259
-707.631	-200.000	-0.010	0.263
-706.616	800.000	-0.067	-0.238
-705.602	-77.780	-0.039	0.014
-704.587	-115.312	0.194	0.037
-703.572	667.196	-0.080	-0.209
-702.558	43.697	-0.053	0.049
-701.543	141.112	-0.154	0.206
-700.529	-105.861	-0.297	0.068
-699.514	48.034	0.141	0.133
-698.499	119.709	-0.114	0.143
-697.485	-200.000	-0.042	-0.339
-696.470	276.328	-0.064	0.115
-695.456	-76.412	-0.160	-0.057
-694.441	34.646	-0.112	0.099
-693.426	205.020	0.130	-0.203
-692.412	-64.836	0.075	0.031
-691.397	799.430	-0.038	-0.105
-690.383	-200.000	-0.005	-0.098
-689.368	11.839	-0.152	-0.118
-688.354	-157.834	-0.058	-0.003
-687.339	-82.939	0.195	-0.063
-686.324	157.881	-0.090	-0.126
-685.310	142.703	-0.114	0.153
-684.295	800.000	-0.117	-0.326
-683.281	-200.000	0.009	0.109
-682.266	213.180	0.147	-0.235
-681.251	102.221	0.262	-0.310
-680.237	147.382	-0.136	0.185
-679.222	-147.377	-0.257	0.022
-678.208	-107.137	-0.243	-0.054
-677.193	-155.410	0.040	0.003
-676.178	4.623	-0.096	-0.072
-675.164	-200.000	-0.023	0.159
-674.149	800.000	0.057	-0.212
-673.135	800.000	0.084	-0.308
-672.120	-90.697	0.344	-0.100
-671.105	800.000	0.033	-0.134
-670.091	-200.000	-0.108	-0.000
-669.076	-200.000	-0.006	-0.472
-668.062	9.352	-0.206	-0.157
-667.047	544.245	-0.076	0.184
-666.032	255.377	-0.020	0.035
-665.018	800.000	0.101	-0.321
-664.003	262.718	-0.051	0.088
-662.989	92.552	-0.269	0.306
-661.974	-161.187	0.308	-0.016
-660.959	96.784	-0.029	-0.034
-659.945	226.272	-0.079	0.130
-658.930	372.636	0.016	-0.033
-657.916	-58.184	0.430	0.189
-656.901	-100.157	-0.282	-0.071
-655.886	17.932	0.077	-0.062
-654.872	116.112	-0.041	0.051
-653.857	-143.562	-0.277	0.027
-652.843	-181.479	-0.184	0.004
-651.828	-190.094	0.177	-0.002
-650.814	267.036	0.080	-0.142
-649.799	59.202	-0.064	0.064
-648.784	317.908	0.057	-0.108
-647.770	-128.285	-0.104	0.015
-646.755	-200.000	-0.016	-0.128
-645.741	800.000	-0.088	0.261
-644.726	566.448	-0.031	0.075
-643.711	465.371	0.070	0.158
-642.697	-26.308	-0.307	-0.181
-641.682	-18.287	-0.138	0.087
-640.668	108.168	0.290	0.349
-639.653	-41.265	-0.447	0.233
-638.638	-200.000	0.007	-0.110
-637.624	27.415	0.282	-0.239
-636.609	-200.000	0.028	-0.256
-635.595	800.000	0.052	-0.170
-634.580	800.000	-0.070	0.244
-633.565	800.000	-0.033	-0.112
-632.551	16.922	-0.122	0.098
-631.536	-84.184	-0.118	-0.038
-630.522	-83.869	0.182	-0.058
-629.507	178.220	-0.176	-0.259
-628.492	634.039	-0.021	-0.053
-627.478	453.217	0.093	-0.207
-626.463	584.512	0.047	-0.115
-625.449	-140.053	-0.093	0.010
-624.434	-35.988	0.119	0.065
-623.419	118.516	0.105	0.130
-622.405	121.808	0.152	0.191
-621.390	-79.933	-0.044	-0.015
-620.376	800.000	0.066	0.187
-619.361	272.688	0.086	0.152
-618.346	16.019	0.045	-0.036
-617.332	126.594	0.209	-0.267
-616.317	-126.022	-0.063	0.010
-615.303	346.870	0.103	0.203
-614.288	581.287	-0.145	-0.359
-613.273	30.744	-0.160	-0.138
-612.259	219.263	-0.094	-0.152
-611.244	-200.000	0.010	-0.099
-610.230	146.575	-0.061	-0.082
-609.215	-200.000	-0.021	-0.247
-608.201	98.029	0.128	-0.149
-607.186	-200.000	-0.045	0.266
-606.171	88.950	-0.231	0.259
-605.157	-200.000	0.038	-0.289
-604.142	-67.069	-0.170	0.068
-603.128	42.321	-0.110	0.101
-602.113	95.030	0.133	-0.152
-601.098	-200.000	-0.015	0.080
-600.084	-43.457	-0.207	0.105
-599.069	720.234	-0.131	0.351
-598.055	464.195	-0.046	0.103
-597.040	-98.378	-0.038	-0.010
-596.025	-200.000	0.000	0.013
-595.011	-104.702	0.361	0.084
-593.996	-200.000	0.005	-0.161
-592.982	273.615	0.094	-0.168
-591.967	765.271	0.121	0.332
-590.952	-104.742	-0.294	0.068
-589.938	503.768	-0.030	-0.069
-588.923	-110.478	0.130	0.027
-587.909	-25.322	0.103	0.062
-586.894	29.356	-0.094	0.080
-585.879	-102.745	-0.351	0.084
-584.865	-200.000	-0.019	0.411
-583.850	204.149	0.024	0.038
-582.836	-200.000	-0.016	-0.297
-581.821	579.269	-0.132	0.325
-580.806	-115.068	0.221	-0.042
-579.792	-90.662	-0.332	0.096
-578.777	-40.431	-0.457	-0.239
-577.763	302.536	-0.077	0.143
-576.748	16.917	-0.187	-0.149
-575.733	800.000	-0.102	0.344
-574.719	-40.659	-0.396	-0.206
-573.704	91.021	-0.229	-0.258
-572.690	-109.401	0.217	-0.046
-571.675	-19.270	0.084	0.052
-570.661	800.000	0.059	-0.182
-569.646	-13.087	0.135	0.088
-568.631	-31.535	-0.335	0.189
-567.617	701.494	0.100	0.264
-566.602	-92.748	0.428	0.120
-565.588	-200.000	-0.028	-0.236
-564.573	97.704	-0.260	0.300
-563.558	442.469	0.026	0.057
-562.544	-90.704	0.111	0.032
-561.529	40.791	-0.159	-0.145
-560.515	77.092	0.134	-0.143
-559.500	-200.000	0.009	-0.183
-558.485	39.678	-0.131	0.118
-557.471	168.704	-0.082	0.117
-556.456	-200.000	0.014	0.149
-555.442	88.179	-0.322	0.359
-554.427	27.122	0.196	0.165
-553.412	-200.000	0.037	-0.299
-552.398	-25.592	0.234	0.139
-551.383	-174.659	-0.163	0.005
-550.369	30.146	0.206	-0.176
-549.354	-200.000	-0.582	0.002
-548.339	-59.143	-0.192	-0.083
-547.325	12.229	-0.132	-0.102
-546.310	12.576	0.140	-0.108
-545.296	101.108	0.042	-0.049
-544.281	-144.015	-0.065	-0.006
-543.266	42.777	-0.193	-0.176
-542.252	515.624	0.075	0.177
-541.237	-3.272	-0.101	0.071
-540.223	800.000	-0.007	-0.029
-539.208	-97.011	-0.375	-0.099
-538.193	-91.062	-0.097	-0.028
-537.179	-48.360	0.199	0.096
-536.164	800.000	-0.066	0.192
-535.150	54.282	-0.144	0.140
-534.135	55.888	0.028	0.028
-533.121	86.355	0.276	0.305
-532.106	548.490	-0.104	0.250
-531.091	-200.000	-0.150	0.000
-530.077	61.606	-0.290	-0.290
-529.062	42.857	0.196	-0.179
-528.048	800.000	-0.012	-0.049
-527.033	-44.192	0.184	0.092
-526.018	-200.000	-0.004	-0.213
-525.004	-65.692	-0.485	0.195
-523.989	767.923	-0.132	-0.361
-522.975	440.151	-0.110	-0.242
-521.960	800.000	0.042	0.162
-520.945	161.563	0.265	0.372
-519.931	-161.486	-0.131	0.007
-518.916	145.949	0.209	-0.281
-517.902	-200.000	-0.064	0.334
-516.887	-200.000	-0.035	-0.213
-515.872	360.104	0.153	-0.307
-514.858	-200.000	-0.003	0.125
-513.843	-32.172	0.187	0.105
-512.829	62.427	-0.190	-0.191
-511.814	157.942	0.052	0.072
-510.799	196.183	0.057	0.087
-509.785	-20.243	-0.014	0.009
-508.770	-112.959	0.178	-0.035
-507.756	800.000	-0.078	0.295
-506.741	99.731	-0.061	0.071
-505.726	-59.469	-0.338	-0.146
-504.712	118.497	0.110	-0.136
-503.697	-82.553	0.214	-0.070
-502.683	800.000	-0.089	0.312
-501.668	-149.020	0.303	0.024
-500.653	-2.497	-0.234	0.164
-499.639	-200.000	-0.028	-0.281
-498.624	-200.000	0.016	0.268
-497.610	314.649	-0.132	0.249
-496.595	646.171	-0.058	0.149
-495.581	-106.632	0.365	0.081
-494.566	-8.431	-0.171	0.115
-493.551	-200.000	-0.061	0.326
-492.537	147.154	-0.101	-0.136
-491.522	572.066	-0.142	-0.347
-490.508	498.089	0.074	0.171
-489.493	-200.000	-0.003	0.187
-488.478	-200.000	0.057	0.257
-487.464	-17.204	-0.265	-0.167
-486.449	-27.046	-0.075	0.044
-485.435	-92.552	-0.550	-0.155
-484.420	439.833	-0.088	0.194
-483.405	-110.358	-0.150	-0.031
-482.391	-200.000	0.018	-0.370
-481.376	-16.280	-0.180	0.114
-480.362	-55.684	0.300	0.135
-479.347	-135.159	-0.171	0.021
-478.332	-65.090	-0.106	-0.043
-477.318	-101.876	0.116	-0.028
-476.303	800.000	-0.003	0.011
-475.289	753.244	0.131	0.355
-474.274	182.625	0.084	0.125
-473.259	47.275	-0.060	-0.056
-472.245	571.804	-0.109	-0.266
-471.230	-200.000	-0.002	-0.158
-470.216	-175.625	-0.430	-0.012
-469.201	93.447	-0.161	-0.183
-468.186	164.665	-0.117	-0.165
-467.172	-131.972	0.117	-0.015
-466.157	-200.000	0.026	-0.139
-465.143	-160.999	0.148	0.008
-464.128	-144.371	0.241	0.022
-463.113	-120.901	0.065	0.011
-462.099	27.747	-0.247	-0.208
-461.084	-106.589	-0.329	-0.073
-460.070	90.688	-0.133	-0.149
-459.055	181.901	-0.139	0.205
-458.040	800.000	-0.121	0.384
-457.026	-83.184	-0.142	0.046
-456.011	-200.000	0.022	-0.241
-454.997	-1.083	0.143	-0.101
-453.982	283.767	0.086	-0.154
-452.968	-171.441	-0.277	-0.009
-451.953	78.825	-0.021	-0.022
-450.938	513.731	-0.002	-0.004
-449.924	551.154	0.019	0.045
-448.909	-113.486	-0.215	-0.042
-447.895	30.867	-0.054	-0.046
-446.880	12.737	0.258	-0.200
-445.865	-73.425	0.094	-0.034
-444.851	-129.150	0.145	-0.020
-443.836	-200.000	-0.056	-0.389
-442.822	-200.000	-0.009	-0.151
-441.807	15.066	0.227	-0.178
-440.792	88.332	-0.153	-0.170
-439.778	65.186	-0.050	0.051
-438.763	-200.000	-0.022	0.119
-437.749	-30.017	0.083	0.048
-436.734	45.899	0.066	0.061
-435.719	7.124	-0.191	-0.143
-434.705	-20.972	0.390	0.239
-433.690	278.147	-0.124	0.222
-432.676	-200.000	0.022	-0.273
-431.661	-53.236	-0.068	-0.031
-430.646	-113.462	-0.308	0.060
-429.632	-77.864	-0.131	0.045
-428.617	-200.000	-0.032	-0.407
-427.603	234.673	0.096	-0.159
-426.588	358.828	-0.063	-0.125
-425.573	800.000	-0.009	-0.026
-424.559	156.420	0.096	-0.133
-423.544	524.383	0.070	-0.165
-422.530	52.827	0.102	-0.098
-421.515	-85.603	0.229	-0.071
-420.500	20.090	0.086	-0.069
-419.486	-200.000	0.027	-0.146
-418.471	800.000	-0.084	0.234
-417.457	-200.000	0.031	-0.263
-416.442	750.053	0.100	0.269
-415.428	-200.000	0.004	-0.152
-414.413	77.653	-0.110	-0.117
-413.398	-200.000	-0.002	-0.235
-412.384	444.278	-0.124	-0.272
-411.369	118.476	-0.258	-0.319
-410.355	253.465	-0.184	0.314
-409.340	-67.154	0.227	-0.090
-408.325	-45.696	-0.217	-0.107
-407.311	-200.000	-0.037	0.324
-406.296	10.990	0.104	0.080
-405.282	-156.060	-0.172	0.011
-404.267	-200.000	0.018	0.118
-403.252	-3.108	0.361	-0.252
-402.238	800.000	-0.065	-0.211
-401.223	-101.081	-0.092	0.022
-400.209	679.910	-0.089	-0.231
-399.194	-200.000	0.070	0.323
-398.179	800.000	-0.072	-0.205
-397.165	285.612	0.047	-0.084
-396.150	-101.797	0.242	-0.059
-395.136	-133.259	0.388	-0.049
-394.121	330.912	0.072	0.139
-393.106	17.503	0.127	-0.101
-392.092	75.454	0.218	0.230
-391.077	-82.121	-0.045	-0.015
-390.063	40.871	-0.149	0.134
-389.048	-98.483	-0.392	-0.100
-388.033	800.000	0.033	-0.136
-387.019	774.234	-0.022	-0.060
-386.004	-200.000	0.014	0.324
-384.990	68.905	0.115	-0.118
-383.975	153.317	0.173	0.237
-382.960	-111.229	0.236	0.048
-381.946	-200.000	0.019	0.330
-380.931	180.144	0.187	-0.274
-379.917	-86.880	0.139	-0.042
-378.902	-0.531	0.295	-0.209
-377.888	-200.000	-0.022	-0.145
-376.873	223.946	0.142	0.229
-375.858	-110.570	0.130	0.027
-374.844	255.661	-0.154	0.264
-373.829	-35.633	-0.164	0.089
-372.815	406.272	0.138	0.290
-371.800	-64.267	-0.397	-0.162
-370.785	-200.000	0.000	0.098
-369.771	14.706	0.132	-0.103
-368.756	-125.131	0.252	0.039
-367.742	800.000	0.065	0.191
-366.727	-200.000	-0.053	0.286
-365.712	-67.097	-0.234	0.092
-364.698	-40.506	0.175	-0.091
-363.683	529.546	0.121	0.284
-362.669	-200.000	-0.041	-0.278
-361.654	555.090	0.108	-0.258
-360.639	-200.000	-0.010	-0.073
-359.625	-80.556	-0.229	-0.076
-358.610	-200.000	0.017	-0.163
-357.596	800.000	0.034	-0.123
-356.581	690.217	0.071	0.185
-355.566	643.329	-0.051	0.130
-354.552	-101.392	0.104	-0.025
-353.537	-200.000	-0.004	0.064
-352.523	-200.000	-0.007	-0.196
-351.508	131.905	-0.128	-0.164
-350.493	-11.157	-0.101	0.066
-349.479	435.874	0.181	0.392
-348.464	-11.845	0.253	0.166
-347.450	745.192	-0.202	0.542
-346.435	-116.531	0.292	0.054
-345.420	-200.000	0.044	0.205
-344.406	-167.069	0.203	-0.008
-343.391	-200.000	0.016	-0.270
-342.377	51.716	-0.037	0.036
-341.362	50.075	0.073	0.068
-340.348	-73.555	-0.248	0.090
-339.333	268.680	0.180	0.314
-338.318	46.143	0.315	0.291
-337.304	-200.000	-0.064	-0.493
-336.289	229.366	-0.199	-0.324
-335.275	523.575	0.127	-0.297
-334.260	-183.217	-0.215	0.004
-333.245	800.000	0.071	-0.241
-332.231	-37.291	-0.231	-0.123
-331.216	-200.000	0.022	0.165
-330.202	-12.637	-0.192	0.125
-329.187	18.720	0.196	0.156
-328.172	-85.327	-0.069	0.021
-327.158	75.402	0.086	-0.090
-326.143	-167.438	0.176	0.007
-325.129	800.000	0.073	-0.214
-324.114	-200.000	-0.069	-0.357
-323.099	364.379	0.084	0.169
-322.085	52.683	0.204	0.194
-321.070	255.340	-0.066	0.113
-320.056	-109.878	0.377	0.079
-319.041	213.834	-0.088	-0.138
-318.026	-38.761	0.124	-0.065
-317.012	-139.319	-0.163	-0.017
-315.997	-111.643	0.132	-0.027
-314.983	63.456	0.172	0.172
-313.968	-100.826	0.036	0.009
-312.953	800.000	0.103	0.295
-311.939	800.000	0.082	0.316
-310.924	800.000	0.067	-0.201
-309.910	-200.000	-0.002	-0.082
-308.895	424.293	-0.107	0.230
-307.880	278.216	0.109	0.194
-306.866	246.530	-0.179	0.300
-305.851	-200.000	0.003	-0.071
-304.837	-200.000	0.041	-0.273
-303.822	61.006	0.174	0.172
-302.807	205.207	-0.120	0.185
-301.793	75.069	-0.049	-0.051
-300.778	5.032	0.202	-0.148
-299.764	31.379	-0.164	0.140
-298.749	9.109	0.328	-0.247
-297.735	-154.929	-0.144	-0.009
-296.720	-41.398	-0.130	0.066
-295.705	67.304	-0.069	-0.070
-294.691	-18.354	-0.074	0.046
-293.676	-158.379	-0.310	-0.018
-292.662	106.258	0.040	0.047
-291.647	-83.909	0.233	0.074
-290.632	250.569	0.105	-0.178
-289.618	84.583	0.053	0.058
-288.603	191.952	-0.156	0.234
-287.589	-200.000	0.025	0.134
-286.574	133.837	-0.169	0.217
-285.559	139.612	-0.122	0.160
-284.545	-49.842	0.281	-0.133
-283.530	-86.735	0.079	0.024
-282.516	356.235	0.132	-0.261
-281.501	309.521	-0.171	-0.317
-280.486	-70.089	-0.284	-0.107
-279.472	-132.280	0.086	0.011
-278.457	-31.886	0.127	0.071
-277.443	-8.676	0.176	-0.117
-276.428	155.093	0.128	0.174
-275.413	-64.934	0.258	0.104
-274.399	-78.288	0.194	-0.066
-273.384	-29.246	0.239	-0.136
-272.370	245.313	-0.162	0.270
-271.355	-114.746	0.258	0.049
-270.340	375.174	0.097	-0.197
-269.326	-104.509	-0.077	-0.018
-268.311	155.172	-0.197	0.269
-267.297	97.140	0.161	-0.183
-266.282	-99.193	0.085	-0.021
-265.267	-116.920	-0.336	0.061
-264.253	5.125	-0.193	0.141
-263.238	-80.992	-0.219	0.072
-262.224	-147.564	-0.265	0.022
-261.209	800.000	0.103	0.324
-260.195	16.286	0.168	0.132
-259.180	443.776	-0.133	-0.289
-258.165	-88.590	0.249	-0.074
-257.151	-200.000	-0.042	0.190
-256.136	-147.677	0.388	-0.032
-255.122	800.000	0.106	0.294
-254.107	-200.000	0.004	-0.102
-253.092	800.000	-0.032	-0.132
-252.078	68.477	-0.032	-0.032
-251.063	-20.754	0.105	0.064
-250.049	111.262	0.057	-0.068
-249.034	-159.652	0.307	-0.017
-248.019	-124.821	0.185	-0.028
-247.005	68.298	0.143	0.145
-245.990	-57.841	0.104	-0.045
-244.976	26.422	0.240	0.199
-243.961	-31.939	0.170	0.094
-242.946	-95.251	0.229	-0.061
-241.932	-135.634	-0.163	-0.019
-240.917	800.000	-0.130	0.424
-239.903	-102.897	0.137	0.032
-238.888	685.047	-0.043	-0.112
-237.873	-200.000	0.027	0.238
-236.859	-139.651	0.124	-0.013
-235.844	-72.633	0.222	-0.081
-234.830	-153.248	-0.589	-0.041
-233.815	-162.610	0.271	-0.013
-232.800	-41.735	0.329	-0.168
-231.786	-100.080	-0.111	0.027
-230.771	196.398	0.079	-0.120
-229.757	164.698	-0.083	0.116
-228.742	-200.000	-0.022	0.285
-227.727	-200.000	-0.009	0.126
-226.713	-49.088	-0.063	-0.030
-225.698	217.230	-0.074	-0.117
-224.684	-64.967	-0.113	-0.045
-223.669	-130.680	-0.358	0.048
-222.655	-120.922	-0.157	-0.026
-221.640	152.634	-0.049	0.066
-220.625	261.477	0.067	-0.115
-219.611	-42.665	0.310	0.156
-218.596	-81.913	0.310	-0.101
-217.582	-58.872	-0.136	0.058
-216.567	642.055	0.068	-0.172
-215.552	-200.000	0.007	0.044
-214.538	-56.303	-0.064	-0.028
-213.523	-124.274	0.327	-0.051
-212.509	89.632	-0.154	-0.171
-211.494	800.000	0.097	-0.373
-210.479	738.039	0.070	-0.185
-209.465	3.953	-0.276	-0.200
-208.450	800.000	-0.073	0.308
-207.436	168.091	0.172	-0.243
-206.421	-23.276	-0.180	-0.108
-205.406	-161.293	0.198	0.010
-204.392	-28.119	0.136	0.078
-203.377	800.000	-0.073	-0.201
-202.363	-200.000	-0.024	0.389
-201.348	800.000	-0.107	-0.305
-200.333	171.778	-0.066	0.094
-199.319	800.000	-0.100	-0.319
-198.304	-57.868	0.479	-0.208
-197.290	-61.906	-0.364	0.151
-196.275	-54.429	0.199	0.089
-195.260	800.000	-0.009	0.032
-194.246	-6.534	0.112	-0.076
-193.231	-200.000	0.004	-0.091
-192.217	68.092	0.111	0.113
-191.202	-64.719	0.087	-0.035
-190.187	73.447	-0.032	0.033
-189.173	-200.000	0.040	0.223
-188.158	43.788	-0.080	-0.072
-187.144	-186.820	0.090	-0.001
-186.129	-200.000	0.017	-0.158
-185.114	-54.097	0.223	0.101
-184.100	98.874	-0.109	-0.125
-183.085	-200.000	-0.030	-0.313
-182.071	289.104	0.118	0.212
-181.056	128.553	0.197	0.249
-180.042	-108.940	-0.334	0.071
-179.027	-160.659	0.316	-0.017
-178.012	800.000	-0.074	0.213
-176.998	-39.863	0.311	0.161
-175.983	17.682	0.169	-0.133
-174.969	-56.702	-0.338	-0.148
-173.954	410.116	0.158	-0.331
-172.939	267.816	0.123	-0.213
-171.925	-23.053	-0.275	-0.164
-170.910	-163.701	-0.364	-0.017
-169.896	-89.021	-0.382	-0.112
-168.881	431.458	-0.036	0.078
-167.866	-48.971	0.062	-0.029
-166.852	370.088	-0.087	-0.174
-165.837	-180.167	-0.118	-0.002
-164.823	-7.614	-0.286	-0.191
-163.808	800.000	0.059	-0.205
-162.793	-24.638	0.069	-0.041
-161.779	24.792	0.239	0.196
-160.764	-132.969	0.374	-0.047
-159.750	-130.902	0.054	0.007
-158.735	-157.991	0.281	0.016
-157.720	-138.199	-0.030	0.003
-156.706	220.392	-0.046	-0.074
-155.691	248.694	0.126	-0.211
-154.677	392.606	0.088	0.182
-153.662	284.692	-0.152	0.270
-152.647	257.855	0.104	0.178
-151.633	-200.000	-0.011	-0.113
-150.618	-148.559	-0.190	0.015
-149.604	-106.953	0.329	-0.072
-148.589	96.445	-0.061	0.069
-147.574	193.647	0.168	0.252
-146.560	546.421	-0.086	-0.203
-145.545	-25.118	0.164	0.096
-144.531	-49.017	0.142	0.067
-143.516	-124.904	0.344	-0.052
-142.502	421.172	0.092	-0.196
-141.487	-200.000	0.010	0.099
-140.472	800.000	0.094	0.292
-139.458	11.611	-0.080	-0.061
-138.443	-140.677	-0.086	0.009
-137.429	800.000	0.044	-0.121
-136.414	800.000	-0.019	0.068
-135.399	-85.244	-0.347	-0.107
-134.385	-200.000	0.040	-0.263
-133.370	-131.221	-0.319	-0.042
-132.356	95.919	-0.068	-0.076
-131.341	-1.322	-0.158	-0.110
-130.326	298.926	0.075	-0.136
-129.312	22.814	0.186	-0.151
-128.297	-147.884	0.176	0.014
-127.283	-137.180	0.177	-0.020
-126.268	40.262	0.039	-0.035
-125.253	-9.529	0.084	-0.056
-124.239	-200.000	0.013	0.146
-123.224	211.588	-0.076	-0.119
-122.210	-16.788	0.454	0.284
-121.195	-200.000	-0.006	-0.058
-120.180	332.470	0.145	0.277
-119.166	152.813	-0.173	0.234
-118.151	-200.000	-0.055	-0.264
-117.137	-74.926	-0.182	-0.065
-116.122	80.919	-0.278	0.297
-115.107	-104.637	0.276	0.063
-114.093	468.381	0.114	0.253
-113.078	800.000	0.056	0.191
-112.064	562.699	-0.138	0.329
-111.049	-200.000	-0.033	-0.153
-110.034	-68.395	0.360	0.138
-109.020	-200.000	-0.008	-0.230
-108.005	147.481	-0.157	0.209
-106.991	-140.053	0.183	0.019
-105.976	745.375	0.109	0.289
-104.962	800.000	0.044	-0.174
-103.947	-19.283	0.205	0.126
-102.932	1.020	-0.229	0.162
-101.918	29.171	-0.032	0.027
-100.903	25.065	0.302	0.247
-99.889	-73.895	-0.199	-0.071
-98.874	800.000	0.109	-0.325
-97.859	315.217	-0.152	0.282
-96.845	-39.269	0.290	0.150
-95.830	-124.054	-0.406	-0.063
-94.816	643.609	-0.188	-0.474
-93.801	415.665	0.138	0.290
-92.786	-60.420	0.311	-0.131
-91.772	31.446	0.323	0.274
-90.757	-92.479	-0.075	0.021
-89.743	-67.184	0.082	0.032
-88.728	69.876	0.180	0.183
-87.713	800.000	-0.036	0.110
-86.699	800.000	0.078	0.280
-85.684	32.991	0.180	0.154
-84.670	-66.620	-0.195	-0.076
-83.655	-1.032	0.081	0.057
-82.640	-200.000	-0.024	0.344
-81.626	-37.767	0.444	-0.233
-80.611	800.000	0.043	0.131
-79.597	-139.409	0.497	0.053
-78.582	-200.000	-0.007	0.115
-77.567	176.989	0.199	0.286
-76.553	-123.048	-0.209	0.033
-75.538	-200.000	0.006	-0.036
-74.524	-32.643	-0.269	0.148
-73.509	-200.000	-0.006	0.213
-72.494	308.300	0.064	-0.118
-71.480	462.513	-0.064	-0.140
-70.465	166.082	-0.150	0.210
-69.451	-117.977	-0.117	-0.021
-68.436	154.916	0.241	0.327
-67.422	-6.936	0.053	0.036
-66.407	38.384	-0.210	-0.185
-65.392	319.040	0.082	-0.152
-64.378	78.391	0.314	-0.331
-63.363	-116.900	0.295	-0.053
-62.349	-75.066	0.385	-0.136
-61.334	20.414	-1.179	-0.940
-60.319	800.000	0.158	0.522
-59.305	279.532	-0.585	-1.029
-58.290	162.844	0.666	0.922
-57.276	484.434	0.639	1.433
-56.261	-200.000	97.443	589.583
-55.246	544.365	1399.194	3294.039
-54.232	155.366	2582.469	3504.027
-53.217	112.125	2157.444	2570.463
-52.203	44.316	1612.974	1459.513
-51.188	36.204	1349.174	1171.735
-50.173	32.914	1307.300	1115.917
-49.159	55.530	1354.387	1292.499
-48.144	57.533	1371.521	1320.824
-47.130	36.368	1329.325	1155.297
-46.115	32.809	1311.698	1118.871
-45.100	32.539	1307.094	1113.303
-44.086	32.620	1304.463	1111.496
-43.071	32.547	1302.183	1109.079
-42.057	32.487	1300.002	1106.824
-41.042	32.552	1298.383	1105.784
-40.027	32.568	1296.960	1104.623
-39.013	32.584	1295.614	1103.523
-37.998	32.621	1293.195	1101.637
-36.984	32.573	1291.958	1100.258
-35.969	32.729	1289.877	1099.355
-34.954	32.736	1288.258	1097.970
-33.940	32.660	1287.027	1096.437
-32.925	32.573	1285.806	1094.844
-31.911	32.760	1283.991	1094.342
-30.896	32.721	1282.968	1093.200
-29.881	32.723	1281.567	1091.975
-28.867	32.729	1279.898	1090.545
-27.852	32.734	1278.340	1089.202
-26.838	32.799	1276.928	1088.330
-25.823	32.799	1275.552	1087.118
-24.809	32.608	1274.678	1085.227
-23.794	32.693	1273.045	1084.281
-22.779	32.763	1271.438	1083.273
-21.765	32.821	1270.576	1082.830
-20.750	32.762	1268.832	1080.963
-19.736	32.599	1268.176	1079.428
-18.721	32.553	1267.033	1078.147
-17.706	32.640	1265.815	1077.565
-16.692	32.529	1264.503	1075.773
-15.677	32.580	1263.663	1075.308
-14.663	32.613	1262.057	1074.084
-13.648	32.552	1261.144	1072.917
-12.633	32.496	1260.314	1071.850
-11.619	32.504	1260.149	1071.714
-10.604	32.516	1258.675	1070.482
-9.590	32.517	1257.270	1069.253
-8.575	32.575	1256.438	1068.831
-7.560	32.448	1256.129	1067.807
-6.546	32.525	1255.312	1067.508
-5.531	32.449	1254.124	1066.025
-4.517	32.479	1253.266	1065.420
-3.502	32.571	1252.461	1065.214
-2.487	32.535	1251.454	1064.113
-1.473	32.622	1247.665	1061.338
-0.458	31.570	1232.643	1042.661
0.556	27.949	1216.004	1006.294
1.571	24.462	1221.408	991.349
2.586	23.811	1235.593	999.111
3.600	22.954	1224.544	985.314
4.615	16.157	1150.247	889.719
5.629	6.030	1073.332	780.076
6.644	1.952	1053.121	745.418
7.659	1.448	1050.838	741.282
8.673	1.586	1049.231	740.752
9.688	1.485	1047.604	739.049
10.702	1.543	1046.306	738.347
11.717	7.621	1054.782	773.945
12.731	18.091	1069.790	836.375
13.746	23.640	1077.073	869.249
14.761	24.838	1078.139	875.900
15.775	24.838	1077.460	875.268
16.790	24.588	1076.927	873.538
17.804	24.600	1076.143	872.881
18.819	24.709	1076.226	873.404
19.834	24.976	1075.443	873.996
20.848	24.872	1075.239	873.243
21.863	24.914	1074.378	872.672
22.877	24.789	1074.225	871.863
23.892	24.753	1073.284	870.847
24.907	24.757	1072.728	870.335
25.921	24.806	1071.627	869.603
26.936	24.788	1069.989	868.110
27.950	24.861	1067.959	866.742
28.965	24.612	1066.733	864.463
29.980	24.734	1065.634	864.088
30.994	24.808	1064.782	863.675
32.009	24.874	1063.827	863.143
33.023	24.717	1062.493	861.229
34.038	24.741	1061.518	860.481
35.053	24.763	1061.461	860.464
36.067	24.770	1060.172	859.373
37.082	24.968	1059.269	859.517
38.096	25.058	1058.955	859.618
39.111	25.164	1058.328	859.543
40.126	24.931	1056.952	857.234
41.140	24.535	1054.945	853.636
42.155	24.396	1053.381	851.630
43.169	24.439	1052.686	851.200
44.184	24.424	1052.297	850.736
45.199	24.404	1050.442	849.069
46.213	24.521	1050.094	849.267
47.228	24.715	1049.049	849.268
48.242	24.780	1048.224	848.834
49.257	24.786	1047.706	848.370
50.271	24.999	1046.930	848.676
51.286	24.876	1045.987	847.252
52.301	24.972	1045.287	847.066
53.315	24.837	1044.420	845.649
54.330	24.851	1043.257	844.698
55.344	24.696	1042.818	843.536
56.359	24.702	1041.752	842.630
57.374	24.594	1041.022	841.453
58.388	24.638	1040.166	840.897
59.403	24.516	1039.514	839.720
60.417	24.415	1038.403	838.275
61.432	24.701	1037.328	838.673
62.447	24.717	1036.894	838.324
63.461	24.729	1036.190	837.737
64.476	24.652	1035.639	836.858
65.490	24.526	1034.299	835.112
66.505	24.502	1034.030	834.710
67.520	24.665	1033.444	834.922
68.534	24.293	1032.379	832.251
69.549	23.954	1031.387	829.796
70.563	24.117	1030.275	829.589
71.578	23.948	1029.837	828.376
72.593	24.000	1028.439	827.421
73.607	23.958	1028.394	827.114
74.622	24.312	1028.099	828.449
75.636	24.358	1027.201	827.866
76.651	24.259	1025.731	826.152
77.666	24.221	1025.317	825.567
78.680	24.242	1024.542	824.968
79.695	24.352	1023.872	824.863
80.709	24.381	1023.334	824.490
81.724	24.352	1022.613	823.705
82.739	24.483	1022.037	823.769
83.753	24.870	1021.554	825.093
84.768	25.170	1020.403	825.472
85.782	25.187	1019.751	824.948
86.797	25.041	1018.618	823.287
87.812	24.928	1017.835	822.066
88.826	24.970	1016.895	821.426
89.841	25.115	1016.128	821.396
90.855	25.082	1015.171	820.401
91.870	24.985	1014.264	819.150
92.884	24.945	1012.982	817.863
93.899	24.915	1011.952	816.819
94.914	25.136	1011.602	817.472
95.928	24.971	1010.383	815.666
96.943	24.744	1009.028	813.465
97.957	24.494	1007.717	811.199
98.972	24.396	1007.023	810.127
99.987	24.648	1006.454	810.741
101.001	24.824	1005.176	810.434
102.016	24.840	1004.957	810.262
103.030	24.577	1004.329	808.492
104.045	24.512	1002.855	806.940
105.060	24.411	1001.912	805.654
106.074	24.552	1001.297	805.723
107.089	24.799	1000.728	806.309
108.103	24.711	999.616	804.946
109.118	24.542	997.951	802.774
110.133	24.501	997.361	802.043
111.147	24.223	996.382	799.936
112.162	24.362	994.710	799.149
113.176	24.605	994.287	799.823
114.191	24.374	993.681	798.235
115.206	24.101	992.254	795.794
116.220	24.074	992.162	795.532
117.235	24.205	991.042	795.146
118.249	24.114	990.655	794.360
119.264	24.009	989.600	792.976
120.279	24.176	989.303	793.414
121.293	24.286	988.376	793.088
122.308	24.184	987.620	791.958
123.322	24.224	985.823	790.623
124.337	23.998	984.932	788.836
125.352	23.435	983.348	785.006
126.366	23.566	982.024	784.460
127.381	24.281	982.528	787.954
128.395	24.672	981.973	789.166
129.410	24.757	981.207	788.858
130.424	24.730	980.216	787.872
131.439	24.758	979.250	787.150
132.454	24.697	978.558	786.254
133.468	24.642	977.070	784.747
134.483	24.930	976.712	785.654
135.497	24.962	975.964	785.121
136.512	24.976	975.207	784.506
137.527	24.938	974.770	783.918
138.541	25.001	973.833	783.368
139.556	25.061	973.017	782.909
140.570	25.089	972.207	782.309
141.585	25.265	970.602	781.715
142.600	24.883	970.641	780.013
143.614	25.169	969.227	780.050
144.629	25.355	968.538	780.236
145.643	25.203	967.375	778.571
146.658	25.045	965.988	776.703
147.673	24.825	965.005	774.891
148.687	24.781	963.970	773.798
149.702	24.686	963.343	772.817
150.716	24.731	962.216	772.038
151.731	24.907	961.460	772.123
152.746	25.157	961.170	772.900
153.760	25.264	960.549	772.793
154.775	25.190	959.978	771.948
155.789	25.183	958.479	770.642
156.804	25.019	957.964	769.456
157.819	25.142	957.467	769.517
158.833	25.376	956.491	769.665
159.848	25.378	955.364	768.700
160.862	25.093	954.547	766.758
161.877	25.220	953.175	766.129
162.892	25.203	952.433	765.390
163.906	25.156	951.440	764.325
164.921	25.007	951.019	763.286
165.935	25.172	949.454	762.665
166.950	25.102	949.086	762.002
167.964	25.084	948.166	761.121
168.979	25.035	946.918	759.844
169.994	24.992	945.696	758.612
171.008	25.174	945.830	759.424
172.023	25.206	944.714	758.595
173.037	25.025	943.672	756.929
174.052	24.968	942.356	755.565
175.067	24.914	941.978	754.969
176.081	24.965	941.932	755.079
177.096	24.913	941.035	754.076
178.110	24.617	940.008	751.938
179.125	24.534	939.339	750.990
180.140	24.598	939.027	750.940
181.154	24.608	938.889	750.808
182.169	24.975	938.882	752.277
183.183	25.219	938.174	752.664
184.198	25.210	936.866	751.511
185.213	25.009	936.363	750.199
186.227	25.277	935.496	750.563
187.242	25.360	935.045	750.478
188.256	25.246	934.661	749.630
189.271	25.361	934.148	749.630
190.286	24.950	932.865	746.822
191.300	24.107	931.667	742.286
192.315	23.368	929.941	737.769
193.329	23.447	929.281	737.508
194.344	24.482	929.693	742.075
195.359	25.088	929.350	744.251
196.373	25.093	929.362	744.215
197.388	25.032	928.545	743.244
198.402	24.996	928.251	742.793
199.417	25.085	927.284	742.322
200.432	24.816	926.061	740.163
201.446	24.735	925.593	739.391
202.461	24.560	925.406	738.453
203.475	23.828	923.164	733.577
204.490	23.001	922.040	729.207
205.504	24.054	922.200	733.612
206.519	24.701	921.956	736.018
207.534	24.715	921.768	735.860
208.548	25.137	921.229	737.099
209.563	24.947	920.551	735.714
210.577	24.839	920.394	735.077
211.592	25.211	919.768	736.038
212.607	25.196	918.965	735.272
213.621	25.256	918.124	734.777
214.636	25.261	917.671	734.372
215.650	25.170	916.802	733.237
216.665	25.293	916.328	733.298
217.680	25.276	915.205	732.265
218.694	24.763	914.461	729.511
219.709	24.709	913.469	728.436
220.723	24.978	913.193	729.247
221.738	25.105	913.028	729.566
222.753	25.016	912.161	728.449
223.767	25.184	911.821	728.795
224.782	25.560	911.320	729.857
225.796	25.427	910.950	728.959
226.811	24.712	909.216	724.610
227.826	23.998	908.178	720.824
228.840	24.158	907.803	721.110
229.855	24.312	906.752	720.835
230.869	23.909	905.800	718.387
231.884	24.359	905.924	720.240
232.899	25.011	906.130	722.974
233.913	25.059	904.956	722.163
234.928	25.058	904.543	721.768
235.942	24.916	903.876	720.598
236.957	24.691	902.957	718.901
237.972	24.663	902.847	718.633
238.986	24.753	902.389	718.568
240.001	24.703	901.525	717.615
241.015	24.902	900.786	717.761
242.030	24.971	900.684	717.892
243.045	25.008	900.339	717.703
244.059	25.142	899.772	717.723
245.074	24.966	898.933	716.287
246.088	24.760	897.564	714.312
247.103	25.045	897.197	715.094
248.117	25.554	897.849	717.582
249.132	25.689	897.451	717.738
250.147	25.765	896.648	717.337
251.161	25.850	896.518	717.506
252.176	25.881	895.653	716.873
253.190	26.040	895.240	717.111
254.205	26.113	894.760	716.956
255.220	25.999	894.317	716.083
256.234	25.969	892.984	714.833
257.249	25.902	892.270	713.936
258.263	25.945	891.684	713.570
259.278	25.911	891.330	713.091
260.293	26.112	890.252	712.959
261.307	25.961	889.736	711.887
262.322	25.714	889.057	710.305
263.336	24.899	887.045	705.425
264.351	23.952	885.125	700.110
265.366	24.065	885.371	700.690
266.380	25.116	885.746	705.059
267.395	25.563	885.105	706.244
268.409	25.415	884.605	705.199
269.424	25.793	884.025	706.158
270.439	25.783	883.562	705.685
271.453	25.816	883.356	705.587
272.468	25.871	883.039	705.488
273.482	26.006	882.387	705.435
274.497	25.529	881.061	702.448
275.512	25.274	879.838	700.413
276.526	25.707	880.218	702.346
277.541	25.777	879.948	702.341
278.555	25.628	879.040	700.973
279.570	25.588	878.189	700.077
280.585	25.749	877.766	700.303
281.599	25.515	876.817	698.578
282.614	24.797	876.078	695.136
283.628	24.858	875.162	694.587
284.643	25.462	874.645	696.456
285.657	24.997	873.932	694.024
286.672	24.706	872.998	692.096
287.687	25.425	872.828	694.683
288.701	25.211	873.048	693.966
289.716	24.885	871.904	691.736
290.730	24.967	870.914	691.205
291.745	24.749	870.030	689.602
292.760	24.934	870.170	690.367
293.774	25.993	870.352	694.531
294.789	26.316	870.017	695.443
295.803	26.338	869.278	694.876
296.818	26.346	868.662	694.356
297.833	25.869	867.697	691.690
298.847	25.715	867.366	690.775
299.862	25.936	867.160	691.397
300.876	26.421	866.561	692.718
301.891	26.134	865.893	691.023
302.906	25.880	864.493	688.873
303.920	26.032	864.324	689.260
304.935	26.294	864.389	690.250
305.949	26.244	863.685	689.438
306.964	26.027	862.358	687.491
307.979	25.999	862.562	687.483
308.993	26.418	862.441	688.922
310.008	26.546	861.589	688.668
311.022	26.109	860.549	686.116
312.037	26.131	859.924	685.640
313.052	25.653	859.093	683.102
314.066	24.848	857.766	678.936
315.081	24.642	857.002	677.489
316.095	25.402	857.720	680.878
317.110	25.848	857.521	682.350
318.125	24.869	855.961	677.344
319.139	23.933	854.256	672.401
320.154	24.104	853.710	672.558
321.168	25.009	854.517	676.552
322.183	25.636	854.419	678.780
323.197	25.662	854.457	678.848
324.212	25.989	853.619	679.356
325.227	26.025	853.397	679.253
326.241	25.963	852.447	678.204
327.256	25.759	851.943	676.977
328.270	25.713	851.293	676.229
329.285	25.482	850.538	674.701
330.300	25.387	849.509	673.471
331.314	25.531	849.534	673.968
332.329	26.063	849.289	675.709
333.343	26.345	848.776	676.296
334.358	26.148	848.194	675.037
335.373	26.391	847.963	675.701
336.387	26.475	847.876	675.884
337.402	26.566	847.686	676.015
338.416	26.517	847.460	675.591
339.431	26.777	847.203	676.297
340.446	26.760	846.755	675.815
341.460	26.518	846.557	674.693
342.475	26.443	845.817	673.768
343.489	26.654	845.355	674.124
344.504	26.928	844.914	674.731
345.519	27.016	844.793	674.902
346.533	27.079	844.524	674.861
347.548	26.949	843.914	673.831
348.562	26.966	843.301	673.345
349.577	26.891	842.689	672.519
350.592	26.844	841.624	671.436
351.606	26.842	841.182	671.018
352.621	26.576	840.600	669.508
353.635	26.657	839.685	669.022
354.650	25.990	838.018	665.172
355.665	25.042	836.825	660.674
356.679	25.530	836.362	662.050
357.694	26.085	835.802	663.589
358.708	25.816	835.535	662.328
359.723	26.368	835.461	664.241
360.738	26.709	835.083	665.133
361.752	26.594	834.726	664.367
362.767	26.947	834.562	665.472
363.781	27.279	834.053	666.226
364.796	27.407	833.629	666.296
365.810	27.367	833.296	665.824
366.825	27.370	832.682	665.286
367.840	27.018	831.755	663.202
368.854	26.739	830.840	661.393
369.869	26.727	830.801	661.260
370.883	26.707	830.204	660.654
371.898	26.666	829.614	659.978
372.913	26.820	829.284	660.215
373.927	27.021	828.807	660.509
374.942	26.991	828.314	659.948
375.956	27.006	828.473	660.071
376.971	27.367	827.803	660.791
377.986	27.286	827.771	660.412
379.000	27.229	826.736	659.321
380.015	27.111	826.489	658.640
381.029	27.108	826.136	658.289
382.044	27.268	825.431	658.248
383.059	27.328	824.524	657.684
384.073	27.432	824.460	657.949
385.088	27.243	823.982	656.829
386.102	27.214	822.644	655.600
387.117	26.911	822.161	654.062
388.132	26.547	821.097	651.848
389.146	26.262	820.201	650.054
390.161	26.436	820.324	650.719
391.175	27.069	819.959	652.648
392.190	26.640	818.929	650.231
393.205	25.307	816.628	643.572
394.219	23.922	814.988	637.263
395.234	23.745	815.006	636.585
396.248	25.504	816.207	643.774
397.263	26.827	817.046	649.119
398.278	26.987	816.339	649.069
399.292	26.574	815.940	647.219
400.307	26.455	815.985	646.774
401.321	26.722	815.032	646.913
402.336	27.137	814.762	648.121
403.350	27.246	815.357	648.929
404.365	27.659	815.185	650.208
405.380	27.944	814.788	650.846
406.394	28.165	813.743	650.740
407.409	27.982	813.297	649.675
408.423	27.866	813.051	649.010
409.438	27.904	812.828	648.910
410.453	28.020	812.372	648.900
411.467	28.032	811.780	648.411
412.482	27.932	811.273	647.595
413.496	27.877	811.216	647.299
414.511	28.039	810.644	647.358
415.526	27.923	810.553	646.819
416.540	27.949	809.340	645.883
417.555	27.494	808.724	643.728
418.569	27.598	808.682	644.004
419.584	27.618	808.024	643.494
420.599	27.579	807.278	642.708
421.613	109.289	1285.685	1456.103
422.628	94.375	1355.400	1456.198
