DTS Sentinel unit serial number:	SN413079Multiplexer serial number:	ORYXHardware model number:	OX4-SRSoftware version number:	ORYX F/W v4.00 Oryx Data Collector v3.7.2.0data status	okinstallation	princeton_trtdifferential loss correction	single-endedforward channel	channel 1reverse channel	N/Adate	2019/09/14time	15:18:35forward acquisition time	60.00reverse acquisition time	0.00gamma	496.2192k internal	0.2293k external	0.2293temperature offset calibration	1.0078default loss term (dB/km)	0.3790temperature slope calibration	1.0000multiplexer offset coefficient	1.0000multiplexer slope coefficient	1.0000fibre end	0.00T internal ref (°C)	39.06T ext. ref 1 (°C)	5.14T ext. ref 2 (°C)	34.22length (m)	temperature (°C)	Stokes	anti-Stokes-747.200	-93.743	-0.259	-0.073
-746.185	82.420	-0.117	-0.130
-745.171	-80.130	-0.395	0.135
-744.156	-40.127	0.084	-0.045
-743.142	-200.000	0.009	-0.065
-742.127	-200.000	-0.099	0.458
-741.112	223.119	0.137	0.226
-740.098	295.239	-0.039	-0.072
-739.083	129.810	-0.198	0.259
-738.069	-21.734	-0.125	0.078
-737.054	-158.611	-0.205	0.012
-736.039	-200.000	-0.048	-0.420
-735.025	326.753	0.146	0.287
-734.010	800.000	-0.008	-0.031
-732.996	546.831	0.044	-0.107
-731.981	800.000	0.108	-0.311
-730.966	-68.536	0.022	-0.009
-729.952	-113.361	-0.246	-0.049
-728.937	112.231	-0.255	-0.316
-727.923	-17.450	-0.276	-0.178
-726.908	-5.487	-0.072	-0.051
-725.894	-200.000	-0.005	-0.238
-724.879	260.258	0.084	-0.149
-723.864	-200.000	0.047	0.273
-722.850	-124.677	-0.290	0.046
-721.835	-114.414	0.144	-0.028
-720.821	156.305	-0.111	0.157
-719.806	800.000	0.053	-0.225
-718.791	14.072	-0.112	-0.089
-717.777	122.075	0.201	-0.257
-716.762	-141.782	-0.151	-0.015
-715.748	-155.611	-0.065	0.004
-714.733	-144.022	0.093	-0.009
-713.718	157.419	0.127	-0.180
-712.704	-161.469	-0.280	0.015
-711.689	69.709	0.132	-0.139
-710.675	-200.000	-0.016	-0.233
-709.660	-200.000	0.046	0.298
-708.645	-179.208	0.182	-0.004
-707.631	-46.926	-0.291	0.145
-706.616	80.685	0.295	-0.325
-705.602	800.000	-0.106	-0.416
-704.587	-200.000	-0.011	-0.077
-703.572	66.109	-0.235	-0.244
-702.558	27.815	0.166	0.143
-701.543	403.572	0.073	0.157
-700.529	8.367	-0.273	0.209
-699.514	-16.681	-0.264	-0.170
-698.499	150.487	-0.189	0.261
-697.485	-36.221	-0.144	0.079
-696.470	-175.400	-0.309	0.009
-695.456	124.055	-0.144	0.185
-694.441	800.000	-0.009	-0.036
-693.426	-200.000	-0.028	0.212
-692.412	800.000	0.030	-0.126
-691.397	18.394	-0.202	-0.165
-690.383	-200.000	0.033	-0.276
-689.368	-178.988	-0.258	-0.006
-688.354	75.882	0.075	-0.080
-687.339	604.827	-0.056	-0.142
-686.324	800.000	-0.125	0.434
-685.310	-57.494	0.159	0.071
-684.295	273.666	-0.100	-0.181
-683.281	800.000	-0.130	-0.449
-682.266	117.247	0.279	-0.350
-681.251	-29.950	-0.103	-0.060
-680.237	343.570	0.056	0.112
-679.222	-105.548	0.158	0.037
-678.208	-200.000	-0.053	-0.253
-677.193	196.147	-0.096	-0.149
-676.178	-164.514	-0.231	0.011
-675.164	-200.000	-0.002	0.070
-674.149	-65.606	-0.138	0.056
-673.135	154.702	-0.173	-0.242
-672.120	-200.000	0.060	0.320
-671.105	800.000	-0.118	0.352
-670.091	238.719	0.127	-0.215
-669.076	-200.000	0.000	-0.279
-668.062	-200.000	-0.001	0.073
-667.047	172.915	0.092	-0.136
-666.032	-169.052	-0.243	0.009
-665.018	166.312	-0.042	0.061
-664.003	-59.195	-0.301	0.132
-662.989	320.100	0.064	0.124
-661.974	-119.671	-0.023	0.004
-660.959	-200.000	-0.019	-0.140
-659.945	-200.000	-0.043	-0.270
-658.930	-13.448	0.164	-0.108
-657.916	41.535	-0.187	-0.173
-656.901	-5.792	-0.073	-0.051
-655.886	-130.605	0.237	0.033
-654.872	15.104	-0.039	0.031
-653.857	-1.536	-0.141	0.102
-652.843	54.607	-0.147	-0.145
-651.828	-136.078	-0.323	0.039
-650.814	-200.000	-0.000	-0.174
-649.799	-58.419	-0.291	0.129
-648.784	-44.786	0.250	-0.127
-647.770	-77.199	-0.270	0.096
-646.755	255.055	0.145	-0.253
-645.741	-50.661	-0.184	0.088
-644.726	-49.376	0.106	-0.052
-643.711	-200.000	0.042	0.461
-642.697	-138.234	-0.112	0.013
-641.682	800.000	0.053	0.168
-640.668	616.350	-0.105	-0.267
-639.653	116.615	0.010	0.012
-638.638	-200.000	-0.033	-0.259
-637.624	-97.672	-0.164	-0.043
-636.609	348.322	0.126	0.253
-635.595	-34.930	0.114	-0.063
-634.580	126.210	-0.120	-0.155
-633.565	800.000	-0.037	-0.120
-632.551	40.540	-0.240	0.220
-631.536	214.274	0.115	-0.185
-630.522	-63.905	-0.098	0.041
-629.507	134.148	0.165	-0.217
-628.492	-200.000	0.006	0.139
-627.478	23.207	0.253	-0.212
-626.463	-95.278	-0.084	-0.023
-625.449	-104.923	-0.243	-0.057
-624.434	-45.935	-0.027	-0.014
-623.419	68.159	0.297	-0.309
-622.405	-0.101	-0.261	-0.189
-621.390	-200.000	0.022	-0.294
-620.376	-167.429	0.298	-0.012
-619.361	-132.968	-0.034	-0.004
-618.346	325.518	-0.049	0.095
-617.332	-200.000	-0.013	-0.264
-616.317	547.338	-0.064	-0.155
-615.303	10.017	-0.122	0.094
-614.288	82.806	0.257	0.285
-613.273	76.890	0.167	-0.181
-612.259	-79.329	-0.323	-0.111
-611.244	93.650	0.168	0.194
-610.230	-200.000	0.049	-0.460
-609.215	-160.935	0.205	0.011
-608.201	490.164	-0.076	0.178
-607.186	393.610	-0.084	-0.179
-606.171	-116.776	-0.225	0.042
-605.157	228.583	-0.097	-0.161
-604.142	-175.666	-0.390	-0.011
-603.128	800.000	-0.013	-0.041
-602.113	-83.783	-0.316	-0.102
-601.098	508.294	0.008	-0.020
-600.084	-8.588	0.170	-0.116
-599.069	250.830	-0.170	0.293
-598.055	5.408	0.250	-0.188
-597.040	162.115	0.090	0.129
-596.025	-6.974	0.077	-0.053
-595.011	167.634	-0.048	0.070
-593.996	800.000	0.054	0.165
-592.982	-55.893	-0.093	0.042
-591.967	-113.625	-0.240	0.048
-590.952	800.000	-0.056	0.221
-589.938	-109.863	-0.082	-0.018
-588.923	-27.001	-0.113	0.067
-587.909	-200.000	-0.011	-0.308
-586.894	127.586	-0.031	-0.039
-585.879	233.358	0.215	0.360
-584.865	-64.319	0.119	0.049
-583.850	-62.932	-0.291	0.122
-582.836	306.128	-0.150	-0.284
-581.821	-77.380	-0.219	0.077
-580.806	19.657	0.295	-0.241
-579.792	-65.144	-0.041	-0.017
-578.777	-33.997	0.346	0.194
-577.763	-200.000	0.012	-0.113
-576.748	-157.266	-0.195	-0.012
-575.733	724.281	0.094	0.254
-574.719	-200.000	0.035	-0.170
-573.704	184.781	0.163	0.246
-572.690	-200.000	0.015	0.494
-571.675	-193.391	0.335	0.003
-570.661	335.688	-0.090	-0.178
-569.646	-188.519	-0.493	-0.006
-568.631	53.445	0.358	-0.349
-567.617	-200.000	0.009	0.135
-566.602	-85.205	-0.195	-0.062
-565.588	-200.000	-0.009	-0.308
-564.573	29.700	0.372	0.322
-563.558	-200.000	-0.037	0.233
-562.544	-200.000	0.046	0.213
-561.529	800.000	-0.100	0.417
-560.515	-83.958	0.566	-0.183
-559.500	12.727	-0.045	-0.035
-558.485	412.821	0.113	0.244
-557.471	-200.000	0.055	-0.391
-556.456	173.395	0.177	-0.259
-555.442	-200.000	0.013	0.179
-554.427	-86.693	-0.025	0.008
-553.412	457.155	0.135	0.304
-552.398	238.321	0.116	0.196
-551.383	99.828	0.161	0.190
-550.369	-200.000	0.010	-0.108
-549.354	146.268	-0.192	0.261
-548.339	77.252	-0.215	-0.232
-547.325	166.870	-0.141	-0.202
-546.310	-78.322	-0.316	-0.110
-545.296	219.859	-0.135	-0.219
-544.281	-169.204	-0.083	-0.003
-543.266	-183.526	-0.246	-0.004
-542.252	106.117	-0.129	-0.156
-541.237	5.536	-0.174	-0.130
-540.223	-19.121	-0.380	0.239
-539.208	85.711	-0.187	-0.209
-538.193	-61.984	-0.217	0.092
-537.179	-200.000	-0.018	0.181
-536.164	749.122	-0.047	-0.127
-535.150	-26.716	0.159	0.094
-534.135	-85.408	0.124	0.039
-533.121	-178.871	0.265	-0.006
-532.106	-74.509	0.151	0.055
-531.091	102.236	0.078	-0.092
-530.077	-121.637	-0.102	0.017
-529.062	589.922	0.057	-0.142
-528.048	544.406	0.071	0.172
-527.033	800.000	-0.032	-0.131
-526.018	692.335	0.084	0.224
-525.004	-3.604	-0.067	-0.047
-523.989	-98.650	-0.344	0.089
-522.975	-200.000	0.014	-0.190
-521.960	51.551	0.153	-0.147
-520.945	-187.428	0.174	0.002
-519.931	-50.811	-0.248	-0.118
-518.916	-200.000	0.000	-0.166
-517.902	288.773	-0.101	-0.186
-516.887	800.000	0.153	-0.450
-515.872	257.850	-0.063	-0.111
-514.858	25.290	-0.091	0.076
-513.843	-124.664	0.297	-0.047
-512.829	201.032	0.079	-0.123
-511.814	35.841	-0.224	0.200
-510.799	-32.574	0.116	0.066
-509.785	351.757	0.137	0.274
-508.770	35.225	0.061	-0.054
-507.756	356.957	-0.145	-0.294
-506.741	-200.000	-0.021	0.244
-505.726	-200.000	0.023	-0.373
-504.712	103.210	0.198	0.236
-503.697	16.741	0.073	0.058
-502.683	-12.179	-0.076	0.050
-501.668	-75.481	0.104	-0.038
-500.653	746.195	0.064	-0.175
-499.639	-101.874	-0.165	-0.040
-498.624	19.905	0.297	-0.242
-497.610	-85.339	0.180	0.057
-496.595	-13.366	-0.327	-0.215
-495.581	100.737	-0.248	0.292
-494.566	591.467	-0.031	-0.078
-493.551	54.625	0.172	0.168
-492.537	-59.535	0.456	-0.198
-491.522	-200.000	-0.016	-0.092
-490.508	-200.000	0.034	0.229
-489.493	252.142	0.055	-0.095
-488.478	-152.112	0.240	-0.018
-487.464	800.000	0.044	-0.167
-486.449	-89.760	-0.090	-0.027
-485.435	129.332	-0.445	0.576
-484.420	200.239	0.077	0.120
-483.405	167.255	-0.219	-0.314
-482.391	110.535	0.241	-0.294
-481.376	-19.720	-0.169	0.106
-480.362	-17.533	-0.119	-0.076
-479.347	236.184	0.056	0.093
-478.332	202.066	-0.130	0.203
-477.318	800.000	0.019	0.082
-476.303	97.843	0.038	-0.044
-475.289	379.415	-0.041	0.085
-474.274	51.199	-0.177	-0.170
-473.259	6.245	0.091	0.068
-472.245	238.032	-0.191	-0.320
-471.230	800.000	0.084	-0.248
-470.216	4.828	0.121	0.090
-469.201	-200.000	-0.019	0.193
-468.186	5.543	-0.304	0.228
-467.172	46.800	0.179	-0.169
-466.157	-103.683	-0.175	0.041
-465.143	-200.000	-0.031	0.163
-464.128	228.290	0.123	0.202
-463.113	-50.470	-0.197	0.094
-462.099	-76.610	0.380	0.135
-461.084	-200.000	-0.041	-0.230
-460.070	800.000	-0.124	-0.430
-459.055	-200.000	-0.008	-0.330
-458.040	-14.437	0.298	0.194
-457.026	104.237	-0.242	0.287
-456.011	-200.000	0.035	-0.408
-454.997	12.071	0.197	0.154
-453.982	31.862	0.032	0.028
-452.968	-200.000	-0.014	-0.093
-451.953	77.257	-0.329	0.354
-450.938	-79.185	0.026	0.009
-449.924	150.362	0.088	-0.121
-448.909	7.400	-0.235	-0.178
-447.895	-200.000	-0.008	0.154
-446.880	231.566	0.032	-0.053
-445.865	800.000	0.083	0.317
-444.851	800.000	0.097	0.295
-443.836	347.864	-0.163	0.324
-442.822	33.912	-0.147	0.129
-441.807	-130.288	0.405	0.056
-440.792	-103.313	-0.040	-0.009
-439.778	-200.000	0.014	-0.331
-438.763	-37.581	-0.265	-0.143
-437.749	-200.000	0.008	0.039
-436.734	54.549	-0.252	0.245
-435.719	-28.329	0.160	-0.094
-434.705	800.000	0.036	0.125
-433.690	89.866	0.165	-0.186
-432.676	-200.000	0.002	0.045
-431.661	-16.801	-0.178	-0.114
-430.646	-200.000	-0.072	-0.415
-429.632	-184.662	0.292	0.005
-428.617	-14.399	0.196	0.127
-427.603	-121.503	0.289	-0.049
-426.588	98.375	0.215	0.250
-425.573	60.451	0.145	-0.145
-424.559	-102.493	0.226	-0.055
-423.544	-142.966	0.074	-0.007
-422.530	132.393	0.076	-0.098
-421.515	33.430	0.303	-0.266
-420.500	-200.000	0.012	-0.311
-419.486	54.510	-0.129	0.126
-418.471	-21.920	0.421	0.258
-417.457	-200.000	0.012	-0.062
-416.442	-90.089	0.103	0.030
-415.428	761.966	0.106	0.290
-414.413	598.997	0.079	-0.198
-413.398	-21.210	-0.334	-0.206
-412.384	-93.456	-0.258	0.072
-411.369	-18.607	-0.140	-0.088
-410.355	-2.223	0.191	-0.135
-409.340	580.392	-0.033	0.083
-408.325	800.000	-0.040	0.147
-407.311	-41.436	0.321	0.167
-406.296	800.000	-0.112	-0.430
-405.282	427.405	-0.042	-0.092
-404.267	-107.737	0.027	-0.006
-403.252	45.823	0.127	0.118
-402.238	-200.000	0.006	-0.253
-401.223	-13.113	-0.085	-0.056
-400.209	-39.513	0.252	-0.133
-399.194	-25.222	0.217	0.130
-398.179	-200.000	0.063	-0.284
-397.165	102.243	0.157	-0.185
-396.150	15.746	0.205	-0.163
-395.136	-117.064	-0.182	-0.034
-394.121	-106.809	-0.142	-0.032
-393.106	-44.298	0.226	-0.114
-392.092	-200.000	0.007	0.251
-391.077	519.001	-0.068	0.161
-390.063	23.025	-0.227	-0.188
-389.048	800.000	0.045	0.156
-388.033	-85.559	0.113	-0.035
-387.019	-56.767	-0.149	-0.067
-386.004	-77.373	-0.097	0.034
-384.990	128.351	-0.010	0.013
-383.975	-200.000	0.005	0.247
-382.960	612.833	-0.163	0.411
-381.946	-200.000	0.010	-0.222
-380.931	57.169	0.191	0.188
-379.917	800.000	0.045	-0.163
-378.902	651.967	-0.036	-0.094
-377.888	-168.810	-0.488	-0.019
-376.873	-200.000	0.023	-0.105
-375.858	-200.000	0.037	0.173
-374.844	-61.656	0.234	-0.099
-373.829	-113.384	0.188	-0.037
-372.815	49.152	0.129	0.123
-371.800	269.907	0.221	-0.392
-370.785	313.284	0.161	-0.305
-369.771	800.000	0.068	0.199
-368.756	88.824	-0.230	0.258
-367.742	386.230	0.080	0.167
-366.727	-92.335	-0.122	-0.035
-365.712	-150.887	-0.240	0.018
-364.698	-10.083	-0.110	0.073
-363.683	608.578	-0.109	0.275
-362.669	33.753	-0.200	0.175
-361.654	663.989	-0.076	0.198
-360.639	119.268	0.119	0.149
-359.625	48.216	-0.091	-0.085
-358.610	44.358	-0.137	0.127
-357.596	-1.586	-0.197	-0.140
-356.581	405.791	-0.108	0.230
-355.566	266.699	-0.070	-0.123
-354.552	-200.000	0.001	0.051
-353.537	-92.981	0.230	-0.065
-352.523	48.320	0.114	0.107
-351.508	-200.000	-0.046	0.454
-350.493	183.947	0.004	0.006
-349.479	49.108	0.044	0.042
-348.464	93.896	-0.125	0.143
-347.450	-137.180	-0.217	-0.025
-346.435	80.565	-0.233	0.253
-345.420	-11.818	0.047	-0.031
-344.406	64.905	0.214	0.218
-343.391	-200.000	0.003	-0.106
-342.377	-3.813	0.261	0.183
-341.362	4.492	0.091	-0.067
-340.348	40.072	0.234	0.212
-339.333	-25.521	0.328	-0.195
-338.318	800.000	-0.080	-0.263
-337.304	108.770	-0.154	0.185
-336.289	98.634	0.144	-0.167
-335.275	14.682	0.150	0.118
-334.260	132.066	0.199	0.259
-333.245	419.224	-0.078	0.169
-332.231	-140.237	0.300	-0.032
-331.216	-15.375	-0.137	0.088
-330.202	44.098	-0.168	0.155
-329.187	-200.000	0.015	0.417
-328.172	-144.099	0.220	-0.021
-327.158	-200.000	-0.011	0.056
-326.143	-3.713	-0.103	-0.072
-325.129	40.241	0.044	0.040
-324.114	-49.735	-0.224	0.107
-323.099	-200.000	0.085	-0.569
-322.085	712.796	-0.085	-0.226
-321.070	-37.304	-0.119	0.064
-320.056	-152.478	0.409	0.030
-319.041	34.093	-0.226	-0.198
-318.026	309.885	0.031	-0.058
-317.012	-77.140	-0.226	-0.079
-315.997	-35.385	-0.239	-0.131
-314.983	65.979	0.124	0.127
-313.968	-72.180	-0.155	0.058
-312.953	-53.894	0.228	0.105
-311.939	707.162	-0.026	-0.069
-310.924	800.000	-0.065	-0.269
-309.910	-120.202	-0.215	-0.037
-308.895	-33.874	0.026	-0.014
-307.880	800.000	0.048	0.193
-306.866	-4.279	-0.345	-0.240
-305.851	-140.501	-0.291	0.030
-304.837	231.409	-0.068	-0.112
-303.822	0.040	-0.192	-0.137
-302.807	-124.034	0.308	0.049
-301.793	-80.771	0.155	0.052
-300.778	139.954	-0.154	0.204
-299.764	230.305	0.046	0.076
-298.749	-17.818	-0.082	-0.051
-297.735	-32.451	-0.164	-0.092
-296.720	144.870	0.076	-0.103
-295.705	-76.243	0.448	0.159
-294.691	800.000	0.098	0.387
-293.676	800.000	-0.047	-0.169
-292.662	-53.753	0.147	0.068
-291.647	531.191	-0.104	0.246
-290.632	144.910	-0.305	0.409
-289.618	-118.950	-0.401	0.071
-288.603	107.960	-0.132	-0.157
-287.589	28.332	-0.055	0.047
-286.574	800.000	-0.017	-0.065
-285.559	63.724	-0.158	0.160
-284.545	365.774	-0.044	0.089
-283.530	110.731	-0.262	-0.317
-282.516	-22.796	0.151	0.092
-281.501	-22.809	-0.215	-0.130
-280.486	-91.488	0.186	-0.053
-279.472	-132.626	0.278	-0.036
-278.457	-105.215	-0.167	-0.038
-277.443	-89.583	0.154	0.045
-276.428	-200.000	0.006	-0.200
-275.413	359.484	0.076	-0.152
-274.399	225.078	0.116	-0.189
-273.384	-88.700	0.234	0.070
-272.370	-8.703	-0.117	-0.079
-271.355	-140.486	-0.368	-0.038
-270.340	800.000	-0.089	0.324
-269.326	-200.000	-0.392	-0.001
-268.311	-200.000	-0.013	-0.127
-267.297	-181.443	-0.166	-0.003
-266.282	68.370	0.149	0.154
-265.267	-91.050	-0.254	0.073
-264.253	800.000	-0.049	0.181
-263.238	-200.000	-0.031	-0.221
-262.224	-12.812	-0.179	-0.117
-261.209	-58.288	0.014	0.006
-260.195	114.650	-0.231	-0.283
-259.180	715.103	0.057	-0.152
-258.165	-85.913	0.143	0.045
-257.151	-200.000	0.022	0.165
-256.136	-164.625	-0.183	-0.008
-255.122	-2.808	0.133	-0.093
-254.107	-66.418	0.189	-0.075
-253.092	343.084	0.127	0.250
-252.078	-200.000	-0.023	0.203
-251.063	-121.067	-0.256	-0.043
-250.049	-63.446	0.297	-0.123
-249.034	-147.684	-0.106	0.009
-248.019	800.000	-0.044	-0.154
-247.005	-200.000	-0.003	0.281
-245.990	54.663	0.091	0.088
-244.976	800.000	-0.096	-0.327
-243.961	63.086	-0.249	-0.251
-242.946	247.019	-0.064	-0.108
-241.932	-5.959	0.036	0.025
-240.917	-127.543	-0.319	-0.046
-239.903	-57.022	-0.117	-0.052
-238.888	-56.515	0.293	0.130
-237.873	360.974	0.170	-0.342
-236.859	-200.000	-0.024	0.324
-235.844	-109.179	0.141	-0.030
-234.830	800.000	0.049	0.196
-233.815	-84.986	-0.219	0.069
-232.800	-23.436	-0.372	-0.224
-231.786	-38.588	0.388	0.205
-230.771	144.768	-0.055	-0.073
-229.757	196.471	0.093	0.142
-228.742	-94.738	-0.279	0.076
-227.727	133.845	0.249	-0.323
-226.713	152.710	-0.160	0.220
-225.698	-112.838	-0.232	-0.046
-224.684	-97.167	-0.159	0.042
-223.669	69.181	-0.208	-0.214
-222.655	-200.000	-0.006	0.029
-221.640	-42.621	0.164	-0.084
-220.625	479.615	0.075	0.171
-219.611	-87.153	0.097	0.029
-218.596	796.500	0.033	-0.092
-217.582	800.000	-0.068	0.194
-216.567	290.893	-0.101	-0.184
-215.552	-129.012	-0.165	0.023
-214.538	136.019	-0.204	-0.267
-213.523	-200.000	0.040	-0.206
-212.509	-122.385	-0.075	-0.012
-211.494	-200.000	0.072	0.401
-210.479	108.426	-0.084	-0.100
-209.465	-49.917	0.220	0.104
-208.450	-64.976	-0.186	-0.075
-207.436	-96.761	0.151	0.040
-206.421	208.881	0.244	0.382
-205.406	-200.000	0.003	0.298
-204.392	175.294	0.089	0.129
-203.377	-23.889	-0.114	-0.068
-202.363	-106.565	-0.067	-0.015
-201.348	5.652	0.443	0.328
-200.333	-31.801	0.329	-0.185
-199.319	-114.089	-0.256	-0.050
-198.304	-74.104	-0.097	0.035
-197.290	236.466	0.160	0.265
-196.275	-30.390	0.260	0.148
-195.260	-200.000	0.003	-0.373
-194.246	-200.000	-0.007	-0.190
-193.231	44.926	-0.155	0.143
-192.217	-134.873	0.044	0.005
-191.202	-79.449	-0.091	0.031
-190.187	-30.809	0.115	0.065
-189.173	800.000	0.059	-0.181
-188.158	800.000	0.035	0.145
-187.144	-200.000	-0.002	0.218
-186.129	287.308	-0.123	0.223
-185.114	-130.829	0.306	-0.041
-184.100	800.000	0.045	-0.193
-183.085	-53.436	-0.191	0.088
-182.071	-54.666	-0.142	0.064
-181.056	-126.650	-0.039	0.006
-180.042	61.802	0.166	-0.165
-179.027	-200.000	0.003	0.028
-178.012	-135.212	0.355	-0.043
-176.998	-200.000	-0.012	-0.059
-175.983	116.239	0.052	-0.064
-174.969	800.000	-0.033	-0.094
-173.954	263.924	0.192	0.334
-172.939	53.774	0.151	0.145
-171.925	-77.882	0.308	-0.106
-170.910	-25.703	0.050	-0.030
-169.896	-200.000	0.090	-0.417
-168.881	-200.000	0.027	0.240
-167.866	154.689	-0.268	0.368
-166.852	42.831	0.080	0.073
-165.837	-83.282	0.384	0.123
-164.823	103.806	0.226	0.265
-163.808	800.000	0.056	0.213
-162.793	84.185	0.080	0.087
-161.779	351.523	0.115	-0.227
-160.764	619.964	-0.010	0.024
-159.750	800.000	-0.120	-0.522
-158.735	-110.729	-0.332	0.069
-157.720	800.000	-0.076	-0.315
-156.706	157.145	-0.158	-0.218
-155.691	128.572	0.160	-0.204
-154.677	-161.214	-0.091	-0.005
-153.662	78.181	0.178	0.190
-152.647	-99.102	0.209	0.053
-151.633	-89.541	-0.161	0.047
-150.618	45.711	0.228	0.210
-149.604	-200.000	-0.039	0.270
-148.589	800.000	0.108	0.315
-147.574	-47.934	0.302	0.146
-146.560	23.622	-0.188	0.155
-145.545	-200.000	-0.004	-0.031
-144.531	44.331	0.029	-0.027
-143.516	-132.190	0.131	0.017
-142.502	-200.000	0.014	0.152
-141.487	-80.352	0.229	0.077
-140.472	800.000	0.145	0.411
-139.458	120.130	0.315	-0.390
-138.443	-48.655	-0.233	0.112
-137.429	-2.637	0.226	0.158
-136.414	-121.968	-0.164	-0.027
-135.399	-200.000	-0.024	-0.128
-134.385	365.059	-0.028	-0.056
-133.370	-200.000	0.007	-0.059
-132.356	-72.552	-0.202	-0.075
-131.341	106.901	-0.032	0.038
-130.326	-98.822	-0.098	0.025
-129.312	800.000	-0.046	-0.143
-128.297	-41.045	-0.205	-0.106
-127.283	800.000	0.077	0.246
-126.268	516.683	-0.022	-0.051
-125.253	62.075	0.233	-0.232
-124.239	-50.604	0.357	0.168
-123.224	-200.000	-0.007	0.173
-122.210	272.261	0.072	0.127
-121.195	800.000	0.101	0.356
-120.180	-138.938	-0.222	-0.024
-119.166	-200.000	-0.059	0.377
-118.151	-159.313	0.231	-0.013
-117.137	-200.000	-0.007	0.148
-116.122	214.049	-0.296	0.467
-115.107	-6.592	-0.245	-0.167
-114.093	62.772	-0.067	0.067
-113.078	-200.000	-0.055	-0.276
-112.064	-65.748	0.226	0.090
-111.049	-159.559	-0.102	-0.006
-110.034	-18.000	-0.333	-0.208
-109.020	694.806	0.068	0.177
-108.005	92.723	-0.262	0.295
-106.991	38.066	0.169	-0.150
-105.976	-37.852	0.074	-0.039
-104.962	-80.612	0.539	-0.179
-103.947	-200.000	0.025	0.111
-102.932	75.872	0.220	0.232
-101.918	-189.839	-0.303	0.003
-100.903	-52.586	-0.125	0.058
-99.889	-62.974	-0.302	0.124
-98.874	7.409	0.214	-0.159
-97.859	-200.000	-0.047	-0.235
-96.845	800.000	0.013	0.051
-95.830	569.425	0.110	-0.266
-94.816	800.000	-0.096	-0.288
-93.801	77.151	0.112	0.118
-92.786	-200.000	-0.026	0.138
-91.772	26.242	-0.125	-0.104
-90.757	53.475	0.023	-0.022
-89.743	221.544	0.280	-0.449
-88.728	800.000	0.182	0.525
-87.713	800.000	-0.140	0.412
-86.699	56.842	-0.181	-0.175
-85.684	-77.970	-0.118	-0.041
-84.670	-113.517	-0.026	0.005
-83.655	-200.000	0.063	0.293
-82.640	-15.257	-0.310	0.198
-81.626	1.638	-0.051	0.037
-80.611	31.870	0.201	0.173
-79.597	300.713	0.099	-0.182
-78.582	-140.648	0.198	0.020
-77.567	-88.128	-0.313	-0.094
-76.553	-7.714	0.209	-0.141
-75.538	-133.128	-0.220	-0.028
-74.524	3.871	0.077	-0.056
-73.509	-50.959	-0.198	0.093
-72.494	-12.096	0.218	-0.142
-71.480	14.713	-0.093	-0.072
-70.465	78.181	0.193	-0.205
-69.451	-52.748	0.105	-0.048
-68.436	-200.000	-0.015	0.214
-67.422	90.398	0.146	-0.163
-66.407	-10.363	0.546	-0.361
-65.392	270.309	-0.129	-0.226
-64.378	-56.402	0.235	-0.104
-63.363	170.273	-0.113	0.161
-62.349	-112.513	0.142	0.028
-61.334	103.701	-0.763	-0.893
-60.319	-94.542	0.550	-0.149
-59.305	679.994	0.273	-0.708
-58.290	483.916	0.423	0.958
-57.276	366.327	0.771	1.549
-56.261	-200.000	82.153	497.174
-55.246	553.986	1361.772	3260.974
-54.232	183.880	2586.294	3809.895
-53.217	120.227	2238.290	2765.890
-52.203	49.997	1690.202	1587.735
-51.188	42.388	1421.707	1286.918
-50.173	39.155	1377.159	1226.411
-49.159	57.003	1416.106	1374.155
-48.144	62.357	1435.121	1426.357
-47.130	42.950	1395.827	1266.830
-46.115	39.200	1378.999	1228.139
-45.100	38.998	1374.281	1222.629
-44.086	38.831	1372.256	1219.743
-43.071	38.889	1369.281	1217.412
-42.057	38.914	1367.161	1215.633
-41.042	38.875	1365.568	1213.925
-40.027	38.960	1364.146	1213.140
-39.013	39.010	1362.144	1211.619
-37.998	38.924	1360.481	1209.558
-36.984	38.999	1358.566	1208.274
-35.969	39.095	1356.638	1207.101
-34.954	39.050	1354.988	1205.308
-33.940	39.095	1353.498	1204.207
-32.925	39.160	1351.915	1203.152
-31.911	39.126	1350.808	1201.913
-30.896	39.209	1349.126	1200.872
-29.881	39.183	1347.578	1199.291
-28.867	39.245	1346.298	1198.479
-27.852	39.130	1344.730	1196.337
-26.838	39.201	1343.480	1195.610
-25.823	39.138	1341.964	1193.827
-24.809	39.071	1340.635	1192.193
-23.794	39.263	1338.786	1191.665
-22.779	39.153	1337.405	1189.726
-21.765	39.099	1336.158	1188.238
-20.750	39.104	1335.177	1187.350
-19.736	39.209	1333.118	1186.104
-18.721	39.065	1332.736	1184.848
-17.706	39.009	1331.296	1183.186
-16.692	39.023	1329.813	1181.906
-15.677	39.000	1328.835	1180.850
-14.663	39.030	1327.834	1180.093
-13.648	39.094	1326.592	1179.327
-12.633	38.946	1326.193	1178.039
-11.619	38.917	1325.589	1177.278
-10.604	38.883	1324.212	1175.810
-9.590	38.973	1322.968	1175.197
-8.575	38.932	1322.136	1174.163
-7.560	38.996	1321.117	1173.594
-6.546	39.060	1320.137	1173.058
-5.531	38.968	1319.317	1171.738
-4.517	38.910	1318.825	1170.907
-3.502	39.041	1317.505	1170.471
-2.487	39.049	1316.070	1169.196
-1.473	39.001	1312.402	1165.605
-0.458	37.626	1296.861	1143.686
0.556	34.085	1276.223	1098.019
1.571	29.680	1278.857	1074.644
2.586	28.045	1293.663	1077.361
3.600	26.363	1281.452	1057.274
4.615	19.789	1204.993	957.822
5.629	9.944	1124.007	842.262
6.644	5.299	1101.377	801.446
7.659	4.985	1098.491	797.671
8.673	5.134	1097.658	797.756
9.688	5.123	1096.116	796.510
10.702	5.358	1094.705	796.613
11.717	10.698	1102.372	829.461
12.731	19.067	1114.744	881.759
13.746	21.525	1116.470	895.640
14.761	19.930	1113.857	885.313
15.775	18.711	1111.648	877.255
16.790	17.662	1109.584	870.198
17.804	17.026	1108.096	865.706
18.819	16.595	1107.132	862.683
19.834	16.314	1106.163	860.419
20.848	16.107	1105.324	858.634
21.863	15.908	1104.491	856.899
22.877	15.673	1103.751	855.055
23.892	15.861	1102.155	854.698
24.907	15.900	1101.682	854.455
25.921	15.813	1100.601	853.099
26.936	15.874	1099.299	852.321
27.950	15.866	1098.052	851.242
28.965	15.920	1097.024	850.640
29.980	16.109	1094.919	849.883
30.994	16.123	1093.923	849.108
32.009	16.257	1092.685	848.747
33.023	15.965	1092.299	846.901
34.038	15.985	1090.844	845.797
35.053	15.982	1090.183	845.197
36.067	15.927	1088.704	843.700
37.082	15.959	1088.135	843.348
38.096	16.062	1087.274	843.119
39.111	16.059	1086.391	842.343
40.126	15.982	1085.175	840.942
41.140	15.751	1083.824	838.669
42.155	15.682	1082.552	837.268
43.169	15.706	1081.308	836.351
44.184	15.776	1080.192	835.762
45.199	15.641	1079.477	834.462
46.213	15.693	1078.374	833.798
47.228	15.852	1077.507	833.841
48.242	15.858	1076.528	833.040
49.257	16.091	1075.197	833.084
50.271	15.905	1074.869	831.839
51.286	15.911	1073.611	830.821
52.301	15.855	1072.739	829.799
53.315	15.828	1071.417	828.567
54.330	15.734	1070.598	827.400
55.344	15.777	1069.508	826.695
56.359	15.867	1068.875	826.576
57.374	15.715	1068.469	825.440
58.388	15.686	1067.315	824.336
59.403	15.693	1066.088	823.349
60.417	15.593	1065.700	822.484
61.432	15.521	1064.966	821.492
62.447	15.576	1063.953	820.912
63.461	15.527	1063.102	819.939
64.476	15.608	1062.252	819.606
65.490	15.542	1061.189	818.393
66.505	15.604	1060.276	817.919
67.520	15.623	1059.680	817.480
68.534	15.682	1059.239	817.351
69.549	15.569	1058.545	816.195
70.563	15.480	1058.004	815.276
71.578	15.381	1056.997	813.946
72.593	15.470	1055.799	813.385
73.607	15.427	1055.339	812.750
74.622	15.552	1054.624	812.732
75.636	15.517	1053.654	811.742
76.651	15.474	1053.194	811.108
77.666	15.556	1052.695	811.047
78.680	15.513	1052.087	810.301
79.695	15.583	1051.206	809.889
80.709	15.736	1050.574	810.066
81.724	15.698	1049.907	809.298
82.739	15.853	1049.385	809.568
83.753	15.917	1048.728	809.297
84.768	16.048	1047.563	808.956
85.782	16.142	1047.021	808.915
86.797	16.004	1045.730	807.189
87.812	15.965	1044.939	806.319
88.826	16.001	1043.869	805.595
89.841	15.837	1043.040	804.101
90.855	16.198	1042.068	805.003
91.870	16.115	1041.356	803.985
92.884	16.171	1040.271	803.341
93.899	16.042	1039.702	802.220
94.914	16.170	1038.948	802.171
95.928	16.125	1038.116	801.245
96.943	15.960	1037.292	799.756
97.957	16.082	1035.895	799.186
98.972	16.121	1034.892	798.528
99.987	16.065	1034.257	797.703
101.001	16.121	1033.068	796.978
102.016	15.995	1032.585	795.940
103.030	16.146	1031.590	795.816
104.045	16.035	1031.131	794.866
105.060	16.050	1029.836	793.870
106.074	15.817	1028.996	792.057
107.089	15.901	1027.429	791.175
108.103	15.678	1026.751	789.534
109.118	15.721	1025.888	789.004
110.133	15.763	1024.963	788.420
111.147	15.770	1023.843	787.522
112.162	15.680	1023.539	786.796
113.176	15.841	1022.157	786.415
114.191	15.836	1021.747	786.009
115.206	15.780	1021.057	785.145
116.220	15.653	1020.614	784.145
117.235	15.784	1019.421	783.769
118.249	15.777	1018.250	782.766
119.264	15.785	1017.431	782.102
120.279	15.736	1016.394	781.010
121.293	15.725	1016.212	780.749
122.308	15.696	1014.934	779.563
123.322	15.596	1013.980	778.299
124.337	15.562	1013.250	777.511
125.352	15.635	1011.431	776.384
126.366	15.473	1010.863	775.131
127.381	15.674	1009.739	775.131
128.395	15.774	1008.597	774.644
129.410	15.838	1007.579	774.086
130.424	15.781	1006.934	773.262
131.439	15.841	1005.813	772.611
132.454	15.869	1005.415	772.362
133.468	15.858	1004.793	771.767
134.483	15.940	1003.601	771.158
135.497	16.032	1002.877	770.954
136.512	15.825	1001.860	769.158
137.527	15.952	1001.135	769.112
138.541	15.939	1000.090	768.185
139.556	15.957	999.572	767.800
140.570	16.020	999.386	767.876
141.585	16.106	998.152	767.253
142.600	16.248	997.160	767.066
143.614	16.235	996.275	766.260
144.629	16.283	995.882	766.107
145.643	16.150	994.737	764.555
146.658	16.140	993.557	763.535
147.673	16.039	992.822	762.448
148.687	15.837	991.863	760.730
149.702	15.992	990.764	760.517
150.716	15.869	990.032	759.334
151.731	15.845	989.598	758.826
152.746	16.075	988.136	758.672
153.760	16.016	987.831	758.105
154.775	15.992	987.491	757.669
155.789	16.120	986.566	757.469
156.804	16.044	985.901	756.552
157.819	16.125	984.869	756.054
158.833	16.109	984.852	755.903
159.848	16.351	983.264	755.699
160.862	16.178	982.606	754.356
161.877	16.093	981.352	752.947
162.892	15.934	980.259	751.330
163.906	16.080	978.756	750.761
164.921	15.993	978.498	750.108
165.935	15.909	978.026	749.309
166.950	16.045	976.806	748.912
167.964	16.061	975.997	748.294
168.979	16.028	975.131	747.419
169.994	16.127	974.342	747.185
171.008	15.958	973.682	745.869
172.023	16.220	972.957	746.405
173.037	16.348	971.984	746.160
174.052	16.197	971.149	744.786
175.067	16.035	970.679	743.643
176.081	15.903	969.922	742.416
177.096	16.034	969.327	742.472
178.110	16.081	968.895	742.281
179.125	15.998	968.186	741.308
180.140	16.185	967.391	741.456
181.154	16.346	966.822	741.660
182.169	16.329	966.511	741.283
183.183	16.290	965.782	740.485
184.198	16.400	965.228	740.478
185.213	16.323	964.382	739.425
186.227	16.354	963.671	738.952
187.242	16.468	962.881	738.779
188.256	16.498	962.778	738.765
189.271	16.492	961.862	737.970
190.286	16.199	960.754	735.777
191.300	15.995	960.082	734.311
192.315	15.985	959.234	733.552
193.329	16.003	958.568	733.058
194.344	16.205	957.850	733.320
195.359	16.288	957.074	733.022
196.373	16.387	956.425	732.888
197.388	16.445	956.496	733.129
198.402	16.621	955.903	733.374
199.417	16.703	954.969	732.948
200.432	16.685	954.614	732.533
201.446	16.706	954.454	732.435
202.461	16.819	953.459	732.096
203.475	16.791	952.835	731.431
204.490	16.665	952.318	730.424
205.504	16.615	951.567	729.571
206.519	16.514	950.445	728.211
207.534	16.457	949.838	727.434
208.548	16.458	949.472	727.095
209.563	16.579	948.689	726.948
210.577	16.663	947.519	726.350
211.592	16.777	947.165	726.503
212.607	16.826	946.121	725.846
213.621	16.645	945.880	724.823
214.636	16.727	945.034	724.460
215.650	16.814	944.140	724.083
216.665	16.771	943.605	723.425
217.680	16.864	942.759	723.110
218.694	16.801	942.280	722.411
219.709	16.919	941.223	722.040
220.723	16.872	940.789	721.441
221.738	16.873	940.020	720.791
222.753	16.929	939.196	720.336
223.767	16.922	938.815	719.950
224.782	16.984	938.267	719.727
225.796	16.981	937.568	719.115
226.811	17.022	936.853	718.677
227.826	16.916	936.141	717.620
228.840	16.953	935.398	717.141
229.855	16.863	935.081	716.455
230.869	16.934	933.808	715.719
231.884	16.953	933.008	715.119
232.899	16.884	932.363	714.274
233.913	16.768	931.837	713.317
234.928	16.669	931.025	712.218
235.942	16.745	930.034	711.716
236.957	16.842	929.933	711.983
237.972	16.845	929.347	711.481
238.986	16.733	928.518	710.314
240.001	16.743	928.207	710.056
241.015	16.786	927.405	709.560
242.030	16.991	926.857	709.936
243.045	16.943	926.366	709.296
244.059	17.121	925.212	709.095
245.074	17.122	924.493	708.483
246.088	17.037	924.055	707.732
247.103	17.122	923.317	707.459
248.117	17.398	923.134	708.403
249.132	17.401	922.652	707.984
250.147	17.486	922.044	707.810
251.161	17.510	921.334	707.299
252.176	17.547	920.979	707.120
253.190	17.614	920.137	706.689
254.205	17.548	919.465	705.838
255.220	17.631	918.678	705.512
256.234	17.569	918.260	704.872
257.249	17.607	917.611	704.468
258.263	17.572	916.947	703.751
259.278	17.597	916.247	703.254
260.293	17.661	915.640	702.992
261.307	17.761	914.505	702.472
262.322	17.701	914.125	701.871
263.336	17.820	913.079	701.492
264.351	17.678	912.822	700.652
265.366	17.704	912.028	700.086
266.380	17.706	911.585	699.693
267.395	17.808	910.810	699.452
268.409	17.771	909.547	698.272
269.424	17.817	908.516	697.605
270.439	17.679	908.195	696.733
271.453	17.678	907.567	696.185
272.468	17.537	907.400	695.420
273.482	17.477	906.767	694.628
274.497	17.692	905.994	694.850
275.512	17.781	905.359	694.666
276.526	17.679	904.993	693.908
277.541	17.837	904.342	693.988
278.555	17.765	904.165	693.499
279.570	17.949	903.233	693.472
280.585	17.890	902.558	692.652
281.599	17.793	901.792	691.609
282.614	17.740	901.298	690.954
283.628	17.835	900.044	690.318
284.643	17.829	899.757	690.009
285.657	17.965	898.819	689.778
286.672	17.861	898.249	688.863
287.687	17.997	897.805	689.010
288.701	17.874	897.411	688.150
289.716	17.898	896.562	687.534
290.730	17.839	896.474	687.167
291.745	18.098	895.360	687.294
292.760	17.950	894.868	686.261
293.774	17.972	894.495	686.004
294.789	18.004	893.649	685.424
295.803	18.025	892.617	684.656
296.818	17.994	891.982	683.982
297.833	18.041	891.133	683.458
298.847	18.126	890.613	683.341
299.862	18.175	890.148	683.117
300.876	18.201	889.871	682.949
301.891	18.193	889.112	682.275
302.906	18.282	888.767	682.303
303.920	18.430	888.230	682.420
304.935	18.311	887.786	681.546
305.949	18.446	886.990	681.411
306.964	18.293	886.425	680.307
307.979	18.191	885.836	679.392
308.993	18.332	885.085	679.316
310.008	18.272	884.845	678.831
311.022	18.307	883.788	678.099
312.037	18.218	883.000	677.083
313.052	18.049	883.016	676.365
314.066	18.194	881.968	676.078
315.081	18.058	881.552	675.160
316.095	18.144	880.576	674.694
317.110	18.214	880.027	674.489
318.125	18.177	879.784	674.097
319.139	18.141	879.650	673.793
320.154	18.218	878.909	673.470
321.168	18.084	878.456	672.537
322.183	18.326	877.806	672.927
323.197	18.282	877.185	672.221
324.212	18.238	876.505	671.469
325.227	18.317	875.776	671.161
326.241	18.297	875.574	670.867
327.256	18.355	874.635	670.314
328.270	18.172	874.605	669.518
329.285	18.110	873.552	668.410
330.300	18.293	872.927	668.586
331.314	18.406	872.451	668.604
332.329	18.540	871.994	668.718
333.343	18.440	871.724	668.061
334.358	18.535	870.863	667.713
335.373	18.462	870.547	667.126
336.387	18.501	870.548	667.220
337.402	18.537	870.430	667.210
338.416	18.670	869.861	667.232
339.431	18.766	869.674	667.401
340.446	18.732	869.112	666.778
341.460	18.721	868.933	666.542
342.475	18.790	868.526	666.436
343.489	19.065	867.695	666.808
344.504	18.958	867.319	666.046
345.519	19.017	866.970	665.947
346.533	18.879	866.447	664.952
347.548	18.706	865.314	663.353
348.562	18.593	865.311	662.858
349.577	18.655	864.271	662.241
350.592	18.792	863.476	662.102
351.606	18.557	863.028	660.795
352.621	18.577	862.603	660.486
353.635	18.665	862.064	660.354
354.650	18.665	861.224	659.653
355.665	18.817	860.229	659.417
356.679	18.879	859.629	659.136
357.694	18.875	858.573	658.250
358.708	19.016	858.346	658.558
359.723	18.775	858.058	657.357
360.738	18.853	857.141	656.895
361.752	19.038	856.778	657.267
362.767	19.031	856.544	657.002
363.781	18.907	856.007	656.058
364.796	19.152	855.289	656.385
365.810	19.092	855.224	656.047
366.825	19.124	855.043	655.971
367.840	19.181	853.928	655.275
368.854	19.166	853.579	654.894
369.869	19.060	853.365	654.266
370.883	19.097	852.484	653.674
371.898	19.200	852.449	653.980
372.913	19.332	851.825	653.945
373.927	19.263	851.038	653.023
374.942	19.266	851.113	653.033
375.956	19.261	850.741	652.669
376.971	19.433	849.890	652.609
377.986	19.416	849.459	652.157
379.000	19.473	849.197	652.113
380.015	19.451	848.342	651.317
381.029	19.483	847.826	650.985
382.044	19.473	847.434	650.589
383.059	19.539	846.580	650.122
384.073	19.587	845.888	649.715
385.088	19.389	845.267	648.437
386.102	19.351	844.542	647.679
387.117	19.274	843.859	646.811
388.132	19.272	843.743	646.658
389.146	19.387	843.192	646.608
390.161	19.449	842.772	646.461
391.175	19.575	842.318	646.527
392.190	19.434	841.600	645.391
393.205	19.401	841.193	644.899
394.219	19.418	840.785	644.594
395.234	19.373	840.352	644.036
396.248	19.296	839.770	643.245
397.263	19.200	839.265	642.442
398.278	19.144	839.413	642.290
399.292	19.211	838.463	641.758
400.307	19.226	838.211	641.563
401.321	19.372	837.508	641.511
402.336	19.471	836.756	641.246
403.350	19.497	836.704	641.246
404.365	19.613	836.127	641.179
405.380	19.726	835.653	641.176
406.394	19.770	834.794	640.625
407.409	19.779	834.583	640.439
408.423	19.957	834.390	640.893
409.438	19.901	834.155	640.449
410.453	19.957	833.304	639.944
411.467	19.994	833.042	639.826
412.482	19.932	832.578	639.182
413.496	20.035	832.210	639.224
414.511	19.973	832.165	638.904
415.526	20.048	831.266	638.434
416.540	20.051	830.800	638.030
417.555	19.947	830.532	637.386
418.569	19.914	829.953	636.765
419.584	20.054	829.491	636.866
420.599	20.004	829.344	636.513
421.613	149.878	1365.802	1762.436
422.628	130.757	1444.011	1762.549
