DTS Sentinel unit serial number:	SN413079Multiplexer serial number:	ORYXHardware model number:	OX4-SRSoftware version number:	ORYX F/W v4.00 Oryx Data Collector v3.7.2.0data status	okinstallation	princeton_trtdifferential loss correction	single-endedforward channel	channel 1reverse channel	N/Adate	2019/09/12time	14:08:11forward acquisition time	60.00reverse acquisition time	0.00gamma	496.2192k internal	0.2294k external	0.2294temperature offset calibration	1.0060default loss term (dB/km)	0.3790temperature slope calibration	1.0000multiplexer offset coefficient	1.0000multiplexer slope coefficient	1.0000fibre end	0.00T internal ref (°C)	40.37T ext. ref 1 (°C)	2.21T ext. ref 2 (°C)	35.51length (m)	temperature (°C)	Stokes	anti-Stokes-747.200	1.634	0.105	-0.077
-746.185	327.775	-0.251	0.492
-745.171	-102.082	0.174	0.043
-744.156	159.571	0.264	0.376
-743.142	-7.731	-0.205	-0.141
-742.127	800.000	0.109	0.337
-741.112	-146.627	-0.360	0.032
-740.098	-200.000	-0.046	0.943
-739.083	162.102	-0.128	0.183
-738.069	83.434	-0.138	0.153
-737.054	16.684	-0.218	0.176
-736.039	-19.514	0.137	0.087
-735.025	-75.152	0.167	-0.061
-734.010	-28.307	0.250	-0.148
-732.996	800.000	-0.081	0.278
-731.981	120.796	-0.161	0.204
-730.966	-48.292	0.028	-0.014
-729.952	-159.597	-0.245	0.014
-728.937	-53.132	0.055	-0.026
-727.923	-158.705	-0.430	0.025
-726.908	-85.967	-0.149	-0.047
-725.894	74.935	-0.144	-0.155
-724.879	-200.000	-0.096	0.531
-723.864	-101.411	-0.222	-0.055
-722.850	-174.503	0.297	-0.009
-721.835	-200.000	0.007	0.245
-720.821	-99.746	-0.368	-0.094
-719.806	338.650	-0.121	-0.240
-718.791	-31.832	0.235	-0.134
-717.777	-200.000	0.143	0.000
-716.762	-200.000	-0.033	-0.202
-715.748	-6.764	-0.095	-0.066
-714.733	362.718	0.131	0.268
-713.718	729.169	0.104	0.285
-712.704	-200.000	-0.027	-0.134
-711.689	-82.892	0.435	-0.144
-710.675	-5.350	0.271	0.190
-709.660	-1.778	-0.156	-0.112
-708.645	-200.000	-0.005	0.054
-707.631	-54.352	0.315	-0.146
-706.616	13.982	-0.098	-0.078
-705.602	695.774	0.177	-0.474
-704.587	-54.267	-0.444	-0.206
-703.572	-62.710	0.120	0.051
-702.558	-200.000	-0.008	0.125
-701.543	62.721	-0.248	-0.254
-700.529	-64.105	-0.090	-0.038
-699.514	17.894	-0.315	-0.256
-698.499	53.716	0.190	-0.186
-697.485	-129.983	0.338	-0.047
-696.470	6.061	0.206	-0.156
-695.456	793.114	0.076	-0.214
-694.441	-63.981	-0.029	-0.012
-693.426	92.466	0.173	0.199
-692.412	-200.000	0.056	0.584
-691.397	-177.300	-0.245	0.006
-690.383	15.647	-0.129	0.103
-689.368	-104.250	-0.581	0.138
-688.354	-200.000	-0.003	0.282
-687.339	-157.470	-0.269	-0.017
-686.324	-81.167	-0.127	0.043
-685.310	282.106	0.188	0.343
-684.295	341.609	-0.064	-0.127
-683.281	-41.883	0.281	-0.147
-682.266	180.667	0.267	0.399
-681.251	-61.246	0.117	0.050
-680.237	-91.876	-0.227	-0.066
-679.222	385.570	0.146	-0.307
-678.208	-200.000	0.129	-0.594
-677.193	310.220	0.071	-0.135
-676.178	-200.000	-0.008	0.053
-675.164	-200.000	-0.038	-0.219
-674.149	800.000	0.100	0.326
-673.135	-100.077	0.167	0.043
-672.120	-144.386	-0.341	0.032
-671.105	27.553	0.237	0.203
-670.091	778.598	-0.079	-0.220
-669.076	135.426	-0.095	0.127
-668.062	188.752	0.023	-0.035
-667.047	-18.594	0.147	-0.093
-666.032	621.987	-0.073	-0.189
-665.018	-200.000	-0.032	0.155
-664.003	438.590	0.166	-0.370
-662.989	-47.783	-0.143	0.071
-661.974	-26.836	0.103	0.061
-660.959	-35.570	-0.325	0.180
-659.945	-44.751	0.105	0.053
-658.930	774.513	-0.128	0.355
-657.916	-144.648	0.242	0.023
-656.901	355.835	0.070	-0.142
-655.886	-200.000	0.047	-0.241
-654.872	278.300	0.091	-0.166
-653.857	105.592	-0.463	-0.558
-652.843	676.272	-0.057	-0.152
-651.828	-29.481	-0.178	-0.104
-650.814	-12.307	0.664	-0.443
-649.799	502.054	-0.094	-0.222
-648.784	104.195	-0.124	0.148
-647.770	-144.160	-0.166	0.016
-646.755	94.181	0.103	-0.120
-645.741	14.198	0.064	0.051
-644.726	-200.000	0.009	-0.042
-643.711	63.832	0.148	0.152
-642.697	-200.000	0.006	-0.140
-641.682	-100.598	-0.329	0.083
-640.668	-152.693	-0.095	-0.007
-639.653	-185.397	-0.176	-0.003
-638.638	-200.000	-0.004	-0.299
-637.624	221.105	0.224	-0.367
-636.609	-6.911	-0.243	-0.168
-635.595	-200.000	0.031	-0.178
-634.580	-43.584	0.200	-0.103
-633.565	553.247	-0.067	-0.164
-632.551	32.667	0.200	0.176
-631.536	-200.000	-0.003	0.192
-630.522	141.553	0.086	0.116
-629.507	-39.581	-0.131	-0.070
-628.492	156.419	0.061	0.086
-627.478	747.335	0.022	-0.059
-626.463	-33.835	-0.126	0.071
-625.449	437.293	0.094	0.210
-624.434	-134.448	0.637	-0.079
-623.419	367.103	0.171	0.351
-622.405	-200.000	-0.007	0.070
-621.390	492.583	-0.029	-0.067
-620.376	169.121	-0.075	0.109
-619.361	45.246	-0.150	0.140
-618.346	198.364	-0.168	-0.262
-617.332	595.389	0.063	-0.159
-616.317	-131.442	-0.092	0.012
-615.303	-200.000	-0.038	-0.257
-614.288	48.669	-0.128	-0.122
-613.273	-200.000	-0.029	0.159
-612.259	117.107	0.015	-0.019
-611.244	260.180	0.069	0.121
-610.230	24.856	0.193	0.163
-609.215	37.870	-0.249	-0.225
-608.201	800.000	-0.067	0.233
-607.186	-128.800	-0.308	-0.044
-606.171	92.165	0.064	0.073
-605.157	16.873	0.028	-0.022
-604.142	-119.943	-0.311	-0.054
-603.128	291.382	0.067	0.125
-602.113	260.881	0.054	0.095
-601.098	102.110	0.210	0.249
-600.084	-200.000	0.000	-0.040
-599.069	-54.745	0.184	-0.085
-598.055	-164.824	-0.331	0.015
-597.040	221.672	0.143	-0.234
-596.025	-200.000	0.002	0.076
-595.011	-96.428	-0.096	0.026
-593.996	-82.140	-0.135	0.045
-592.982	16.022	0.264	-0.212
-591.967	-57.096	0.244	0.109
-590.952	-87.632	0.141	-0.043
-589.938	-200.000	0.011	0.151
-588.923	-200.000	-0.022	-0.132
-587.909	-200.000	-0.090	-0.502
-586.894	-38.680	0.104	-0.056
-585.879	-126.149	0.157	0.024
-584.865	800.000	0.015	0.041
-583.850	-10.262	-0.210	-0.142
-582.836	64.897	-0.131	0.134
-581.821	120.488	-0.077	0.097
-580.806	16.305	-0.405	-0.324
-579.792	-100.025	0.072	0.018
-578.777	627.654	0.121	-0.310
-577.763	-200.000	-0.009	0.097
-576.748	-145.327	0.124	0.011
-575.733	-200.000	0.039	-0.476
-574.719	800.000	-0.033	-0.092
-573.704	-164.601	-0.478	-0.022
-572.690	-104.325	-0.511	0.120
-571.675	-111.134	0.219	-0.046
-570.661	140.128	-0.144	-0.193
-569.646	-25.544	-0.090	-0.054
-568.631	30.946	0.072	-0.063
-567.617	446.337	-0.135	-0.302
-566.602	-104.275	-0.208	-0.049
-565.588	489.195	-0.055	0.129
-564.573	157.106	0.092	0.130
-563.558	800.000	0.046	0.186
-562.544	172.466	-0.112	-0.163
-561.529	-36.109	0.039	0.021
-560.515	43.868	-0.155	0.144
-559.500	138.077	-0.073	0.097
-558.485	348.304	0.081	0.161
-557.471	-17.025	-0.241	-0.154
-556.456	-87.096	-0.087	-0.027
-555.442	-85.958	-0.349	-0.110
-554.427	-44.306	0.045	0.023
-553.412	800.000	0.071	-0.249
-552.398	-81.321	0.301	-0.101
-551.383	-110.310	-0.242	-0.051
-550.369	-61.957	-0.084	-0.036
-549.354	532.306	-0.126	0.303
-548.339	210.666	0.042	-0.068
-547.325	800.000	0.083	0.315
-546.310	135.852	0.026	-0.034
-545.296	800.000	0.056	0.208
-544.281	-109.750	-0.036	-0.008
-543.266	112.040	-0.056	-0.069
-542.252	57.032	-0.054	0.053
-541.237	39.019	0.116	0.105
-540.223	-105.292	0.368	0.085
-539.208	34.813	-0.100	-0.088
-538.193	53.301	-0.166	0.161
-537.179	189.993	0.088	0.133
-536.164	-119.867	-0.233	-0.041
-535.150	-163.469	-0.224	0.011
-534.135	-200.000	0.012	0.082
-533.121	-66.161	-0.245	-0.099
-532.106	-200.000	-0.002	-0.357
-531.091	-76.222	0.238	0.085
-530.077	800.000	-0.145	0.419
-529.062	-119.923	0.188	0.033
-528.048	-181.683	-0.299	-0.006
-527.033	0.990	-0.294	0.214
-526.018	637.552	-0.029	0.075
-525.004	-105.973	0.067	0.015
-523.989	-4.755	-0.102	-0.071
-522.975	-71.454	-0.290	-0.110
-521.960	-200.000	0.004	-0.235
-520.945	-200.000	0.017	0.232
-519.931	585.094	-0.101	-0.252
-518.916	100.609	0.038	0.045
-517.902	-169.881	-0.365	0.013
-516.887	800.000	-0.020	0.087
-515.872	162.170	-0.227	-0.322
-514.858	-66.351	-0.158	-0.064
-513.843	-200.000	0.059	0.291
-512.829	192.089	0.147	-0.225
-511.814	611.416	0.069	0.174
-510.799	-93.387	-0.142	-0.040
-509.785	-108.111	-0.053	0.012
-508.770	-129.007	0.238	-0.034
-507.756	102.246	0.268	0.318
-506.741	800.000	-0.032	0.135
-505.726	-200.000	-0.089	0.479
-504.712	-81.892	-0.171	-0.057
-503.697	-14.443	-0.032	-0.021
-502.683	667.697	0.044	-0.116
-501.668	117.724	-0.197	0.245
-500.653	-163.202	0.182	0.009
-499.639	205.824	0.145	-0.228
-498.624	800.000	0.094	-0.296
-497.610	800.000	-0.007	0.026
-496.595	-182.248	-0.214	-0.004
-495.581	800.000	-0.077	-0.226
-494.566	-200.000	0.035	0.208
-493.551	215.513	0.076	-0.122
-492.537	-14.757	0.317	-0.206
-491.522	17.243	0.181	-0.145
-490.508	-200.000	-0.018	-0.159
-489.493	-87.013	0.288	-0.089
-488.478	-65.727	0.168	-0.068
-487.464	-21.932	-0.249	0.153
-486.449	-36.146	0.237	0.129
-485.435	-138.133	-0.224	0.025
-484.420	-45.678	-0.061	0.031
-483.405	-88.272	0.161	0.049
-482.391	-119.894	-0.208	0.036
-481.376	60.534	0.104	0.104
-480.362	800.000	-0.041	0.123
-479.347	-200.000	-0.060	0.409
-478.332	800.000	-0.043	0.189
-477.318	-59.010	0.288	0.126
-476.303	-75.021	0.108	-0.039
-475.289	251.955	-0.154	-0.265
-474.274	-200.000	0.048	-0.240
-473.259	-200.000	-0.021	0.185
-472.245	-73.410	-0.359	0.133
-471.230	108.750	0.054	-0.065
-470.216	-66.033	0.130	0.053
-469.201	-98.640	0.211	-0.055
-468.186	-200.000	-0.061	-0.315
-467.172	800.000	-0.052	-0.209
-466.157	566.925	0.140	-0.344
-465.143	54.007	0.055	0.054
-464.128	-148.876	0.154	0.013
-463.113	-200.000	-0.006	0.199
-462.099	337.188	-0.187	0.367
-461.084	-115.174	-0.078	0.015
-460.070	-75.276	0.236	0.085
-459.055	271.077	0.110	-0.196
-458.040	94.694	-0.139	-0.160
-457.026	-3.907	0.092	-0.065
-456.011	13.804	-0.120	-0.095
-454.997	-15.820	0.209	0.135
-453.982	-138.244	0.391	-0.044
-452.968	800.000	-0.039	0.119
-451.953	800.000	0.040	-0.145
-450.938	-148.820	-0.309	0.025
-449.924	467.696	0.076	0.173
-448.909	27.901	-0.297	-0.253
-447.895	-35.916	-0.249	-0.136
-446.880	-200.000	-0.070	-0.356
-445.865	-200.000	-0.013	-0.117
-444.851	-15.108	-0.160	-0.104
-443.836	26.750	-0.235	-0.199
-442.822	622.648	-0.072	-0.183
-441.807	119.093	0.124	0.155
-440.792	-200.000	-0.007	-0.087
-439.778	454.417	-0.128	0.286
-438.763	20.069	0.107	-0.087
-437.749	-200.000	0.009	-0.045
-436.734	-59.685	-0.075	0.032
-435.719	-100.884	-0.349	-0.087
-434.705	58.711	0.368	0.366
-433.690	58.143	0.232	0.230
-432.676	-126.727	0.213	0.032
-431.661	92.251	-0.147	-0.168
-430.646	-200.000	-0.004	-0.082
-429.632	-200.000	-0.025	-0.138
-428.617	71.596	-0.345	0.362
-427.603	73.650	0.021	-0.022
-426.588	-200.000	0.053	0.295
-425.573	166.380	-0.168	-0.241
-424.559	800.000	-0.049	0.168
-423.544	-200.000	-0.008	0.436
-422.530	26.703	-0.176	0.149
-421.515	174.894	-0.119	0.175
-420.500	753.729	-0.129	0.353
-419.486	-148.089	0.152	0.013
-418.471	-66.507	-0.059	-0.024
-417.457	92.265	0.191	0.217
-416.442	-46.286	-0.374	0.186
-415.428	7.251	-0.197	-0.148
-414.413	-11.296	0.359	-0.239
-413.398	705.727	-0.064	0.170
-412.384	-82.620	-0.183	0.060
-411.369	800.000	-0.092	0.365
-410.355	182.013	-0.126	-0.188
-409.340	-51.717	0.339	0.159
-408.325	-200.000	-0.007	-0.055
-407.311	800.000	-0.078	-0.344
-406.296	-200.000	0.078	0.396
-405.282	-200.000	0.057	-0.277
-404.267	185.641	0.144	0.216
-403.252	206.597	-0.150	0.236
-402.238	386.851	0.025	-0.052
-401.223	672.136	-0.116	-0.303
-400.209	800.000	-0.067	0.226
-399.194	-95.335	-0.343	0.093
-398.179	-200.000	-0.028	-0.207
-397.165	474.743	-0.017	-0.040
-396.150	-1.263	-0.101	0.072
-395.136	213.990	0.191	-0.305
-394.121	-9.730	-0.318	0.214
-393.106	314.913	-0.092	-0.175
-392.092	73.578	-0.126	-0.133
-391.077	64.050	0.162	-0.164
-390.063	-128.014	-0.136	0.020
-389.048	53.402	-0.246	-0.238
-388.033	-200.000	0.037	-0.189
-387.019	-120.393	-0.052	0.009
-386.004	-35.142	0.233	-0.128
-384.990	800.000	-0.048	0.195
-383.975	189.647	0.090	-0.137
-382.960	-153.161	0.217	-0.015
-381.946	-26.878	0.127	-0.075
-380.931	-16.879	-0.019	0.012
-379.917	99.938	0.074	0.086
-378.902	-8.371	0.247	-0.167
-377.888	443.005	-0.078	-0.173
-376.873	269.648	0.131	0.231
-375.858	-120.761	0.044	0.007
-374.844	549.454	0.161	0.390
-373.829	-82.740	-0.232	0.076
-372.815	-126.152	0.297	-0.045
-371.800	175.847	-0.130	-0.190
-370.785	569.600	-0.103	0.252
-369.771	-75.924	-0.175	-0.063
-368.756	-200.000	0.061	-0.378
-367.742	20.599	0.117	0.095
-366.727	15.669	-0.111	-0.088
-365.712	353.965	0.205	0.411
-364.698	-75.099	0.187	-0.067
-363.683	-22.280	0.250	-0.153
-362.669	-28.410	-0.312	-0.181
-361.654	-200.000	-0.084	0.514
-360.639	800.000	0.035	0.118
-359.625	727.866	0.032	0.085
-358.610	-81.069	-0.306	0.102
-357.596	-85.700	0.277	-0.087
-356.581	19.911	-0.061	0.049
-355.566	162.983	0.159	0.226
-354.552	-101.359	0.181	-0.045
-353.537	-132.026	0.131	0.017
-352.523	-25.749	0.250	-0.148
-351.508	96.626	0.025	0.029
-350.493	14.522	0.111	0.088
-349.479	800.000	0.026	-0.106
-348.464	-122.435	-0.169	-0.028
-347.450	800.000	0.119	-0.349
-346.435	800.000	0.142	0.432
-345.420	-177.927	-0.299	0.007
-344.406	280.775	-0.107	-0.193
-343.391	-130.337	-0.106	0.014
-342.377	800.000	-0.099	0.327
-341.362	-121.077	-0.109	0.018
-340.348	106.720	-0.167	-0.200
-339.333	238.316	0.153	-0.255
-338.318	2.088	0.181	0.131
-337.304	72.332	0.287	-0.302
-336.289	91.893	-0.257	-0.292
-335.275	800.000	-0.084	0.324
-334.260	800.000	-0.040	0.132
-333.245	-23.351	0.395	-0.239
-332.231	-166.237	0.280	-0.012
-331.216	-200.000	0.009	-0.315
-330.202	-141.804	0.427	-0.043
-329.187	-184.869	-0.163	0.003
-328.172	-11.129	0.236	-0.157
-327.158	-200.000	0.013	-0.331
-326.143	800.000	0.047	-0.188
-325.129	723.930	-0.063	-0.169
-324.114	-106.259	0.062	0.014
-323.099	-200.000	0.020	0.217
-322.085	-21.315	-0.174	0.107
-321.070	71.418	0.113	-0.118
-320.056	48.934	0.077	-0.073
-319.041	330.027	-0.070	0.136
-318.026	-152.127	-0.227	0.017
-317.012	-114.587	0.351	0.068
-315.997	-200.000	0.003	0.167
-314.983	59.428	-0.168	0.166
-313.968	-32.971	-0.194	0.108
-312.953	123.185	0.214	-0.270
-311.939	-158.153	0.283	-0.017
-310.924	-91.864	-0.283	-0.081
-309.910	14.773	-0.477	-0.375
-308.895	425.737	0.183	0.397
-307.880	123.594	0.124	-0.156
-306.866	-104.422	0.164	-0.038
-305.851	-58.760	0.118	0.051
-304.837	5.827	0.048	-0.035
-303.822	372.616	0.053	0.108
-302.807	-62.774	0.195	0.081
-301.793	337.194	0.042	-0.082
-300.778	-171.040	-0.350	-0.012
-299.764	385.491	-0.045	0.093
-298.749	-59.034	0.185	0.080
-297.735	-80.757	0.196	-0.065
-296.720	-50.926	-0.241	0.114
-295.705	-200.000	0.084	0.440
-294.691	-50.159	-0.173	0.082
-293.676	-103.903	-0.280	-0.066
-292.662	-52.235	-0.164	-0.076
-291.647	-157.850	-0.260	-0.015
-290.632	-89.440	-0.249	-0.074
-289.618	-112.583	0.285	0.057
-288.603	30.174	-0.127	0.109
-287.589	29.683	-0.054	-0.046
-286.574	-11.957	0.236	-0.156
-285.559	24.021	0.301	0.250
-284.545	-200.000	0.025	0.158
-283.530	-150.303	-0.342	0.027
-282.516	-200.000	0.015	-0.141
-281.501	-200.000	0.133	0.000
-280.486	-173.159	-0.041	-0.001
-279.472	476.227	0.109	0.248
-278.457	-6.546	-0.101	0.069
-277.443	800.000	-0.090	-0.252
-276.428	-102.695	0.217	-0.052
-275.413	-23.559	-0.238	0.144
-274.399	800.000	-0.055	-0.232
-273.384	124.218	-0.058	-0.073
-272.370	-32.702	-0.340	-0.190
-271.355	20.308	0.111	-0.090
-270.340	800.000	0.127	0.399
-269.326	104.550	0.083	-0.098
-268.311	129.255	-0.119	-0.153
-267.297	161.897	-0.053	-0.074
-266.282	-163.173	0.146	0.007
-265.267	-88.588	0.544	-0.163
-264.253	305.310	0.162	0.302
-263.238	-59.601	0.178	0.077
-262.224	-67.731	-0.079	-0.031
-261.209	-200.000	-0.018	0.171
-260.195	-9.873	-0.071	0.048
-259.180	-51.774	-0.094	-0.044
-258.165	642.865	-0.079	0.202
-257.151	-200.000	0.015	0.144
-256.136	123.680	0.100	0.126
-255.122	80.683	-0.138	0.149
-254.107	-111.951	0.110	-0.022
-253.092	800.000	0.047	0.136
-252.078	-14.559	0.207	0.134
-251.063	-32.369	-0.172	0.096
-250.049	119.738	0.104	-0.130
-249.034	800.000	0.060	-0.175
-248.019	187.303	0.037	0.055
-247.005	265.220	0.037	-0.064
-245.990	38.098	0.240	0.214
-244.976	407.454	-0.124	-0.264
-243.961	34.519	0.193	0.169
-242.946	232.512	-0.151	-0.248
-241.932	-100.524	0.088	0.022
-240.917	70.707	0.114	-0.118
-239.903	-28.844	0.260	0.150
-238.888	-200.000	-0.001	0.317
-237.873	122.475	-0.170	-0.213
-236.859	69.681	-0.031	0.032
-235.844	67.025	-0.309	-0.316
-234.830	-200.000	0.017	-0.116
-233.815	216.729	0.100	-0.159
-232.800	117.734	-0.254	-0.313
-231.786	800.000	-0.030	-0.113
-230.771	-64.124	0.332	-0.136
-229.757	-200.000	0.012	0.069
-228.742	269.664	0.061	-0.108
-227.727	800.000	0.009	-0.036
-226.713	107.337	-0.342	0.407
-225.698	469.653	-0.055	-0.124
-224.684	800.000	-0.076	0.212
-223.669	-200.000	-0.003	-0.197
-222.655	-45.152	0.027	-0.013
-221.640	-93.198	0.125	0.035
-220.625	728.684	0.029	-0.076
-219.611	475.115	0.195	-0.442
-218.596	-34.899	0.198	-0.108
-217.582	175.383	0.185	-0.268
-216.567	-121.354	-0.107	0.018
-215.552	125.508	-0.124	0.156
-214.538	660.886	0.155	0.400
-213.523	-142.515	-0.049	0.005
-212.509	-79.571	0.169	-0.057
-211.494	800.000	-0.061	0.213
-210.479	0.791	-0.155	0.111
-209.465	429.630	-0.064	-0.139
-208.450	624.651	-0.075	-0.189
-207.436	-200.000	-0.011	0.075
-206.421	-73.859	-0.209	0.076
-205.406	-182.987	0.187	0.003
-204.392	129.411	0.054	0.070
-203.377	-61.996	-0.117	0.049
-202.363	-138.598	0.311	-0.034
-201.348	-200.000	-0.002	-0.075
-200.333	612.092	0.040	-0.099
-199.319	-127.369	0.197	0.029
-198.304	-119.533	0.276	-0.048
-197.290	266.157	0.145	0.253
-196.275	519.797	0.080	0.187
-195.260	292.243	-0.142	-0.260
-194.246	-127.197	-0.258	0.038
-193.231	-65.405	-0.140	0.056
-192.217	-6.313	0.226	0.154
-191.202	518.859	0.121	0.283
-190.187	-126.491	-0.129	0.019
-189.173	7.928	-0.070	0.053
-188.158	-200.000	0.024	0.432
-187.144	118.011	0.122	-0.151
-186.129	81.914	-0.042	0.046
-185.114	45.795	-0.139	0.128
-184.100	476.518	0.057	-0.129
-183.085	25.464	-0.065	0.054
-182.071	280.862	-0.128	-0.228
-181.056	800.000	-0.058	-0.194
-180.042	-175.439	0.224	-0.006
-179.027	70.038	-0.055	0.057
-178.012	800.000	0.086	0.295
-176.998	800.000	0.027	-0.106
-175.983	-200.000	-0.050	0.289
-174.969	729.804	-0.072	0.192
-173.954	787.410	-0.052	-0.142
-172.939	11.737	0.090	-0.069
-171.925	385.957	0.161	-0.333
-170.910	-53.422	0.261	0.120
-169.896	326.787	-0.057	-0.110
-168.881	-200.000	0.000	0.135
-167.866	-43.765	0.326	0.164
-166.852	104.903	0.176	-0.208
-165.837	-15.684	0.221	-0.141
-164.823	-68.379	0.192	-0.075
-163.808	193.082	-0.034	-0.051
-162.793	-200.000	-0.034	0.269
-161.779	-20.536	0.060	0.037
-160.764	157.514	0.183	-0.254
-159.750	330.809	0.122	0.235
-158.735	-17.410	0.195	-0.123
-157.720	-53.499	0.120	-0.055
-156.706	-0.702	-0.154	-0.109
-155.691	135.017	0.157	-0.203
-154.677	196.496	-0.151	0.230
-153.662	-59.016	-0.327	0.141
-152.647	-82.433	0.258	0.084
-151.633	-200.000	0.002	0.058
-150.618	-200.000	0.041	0.367
-149.604	164.162	0.121	-0.170
-148.589	330.425	0.113	0.218
-147.574	-89.317	-0.236	0.070
-146.560	-125.651	0.197	-0.030
-145.545	-20.943	0.170	0.104
-144.531	-66.636	0.215	0.085
-143.516	146.224	0.073	-0.098
-142.502	-73.358	0.209	0.076
-141.487	-118.446	-0.073	-0.013
-140.472	-10.683	-0.105	0.069
-139.458	46.779	-0.119	-0.110
-138.443	-200.000	0.011	0.135
-137.429	-133.189	0.109	0.014
-136.414	20.361	-0.139	-0.112
-135.399	-200.000	-0.036	-0.160
-134.385	275.212	-0.033	0.059
-133.370	-200.000	0.043	-0.203
-132.356	-200.000	0.020	0.266
-131.341	492.415	-0.131	-0.300
-130.326	-68.136	-0.164	-0.064
-129.312	-139.151	0.185	-0.020
-128.297	-31.969	0.163	-0.091
-127.283	-200.000	-0.053	-0.387
-126.268	179.007	-0.150	0.220
-125.253	59.533	-0.276	0.272
-124.239	-87.095	0.051	0.015
-123.224	7.336	-0.081	-0.060
-122.210	-110.425	-0.184	-0.038
-121.195	24.303	-0.109	-0.090
-120.180	-126.902	0.153	0.022
-119.166	7.404	0.378	-0.282
-118.151	-14.953	-0.097	-0.062
-117.137	-56.716	-0.189	-0.083
-116.122	-133.345	-0.095	0.012
-115.107	252.355	-0.143	0.244
-114.093	191.370	-0.173	-0.260
-113.078	-27.715	-0.291	0.168
-112.064	14.899	0.065	0.051
-111.049	90.322	-0.270	0.302
-110.034	800.000	-0.069	-0.247
-109.020	-200.000	-0.070	-0.334
-108.005	-15.005	0.291	0.186
-106.991	-200.000	-0.011	0.113
-105.976	-200.000	-0.033	-0.378
-104.962	127.271	0.075	0.094
-103.947	-66.885	-0.244	0.096
-102.932	-200.000	-0.011	-0.166
-101.918	-200.000	0.016	-0.441
-100.903	-200.000	0.014	0.303
-99.889	-142.004	0.087	0.009
-98.874	-52.612	0.284	-0.131
-97.859	92.520	-0.157	0.176
-96.845	136.961	0.240	-0.313
-95.830	201.593	0.218	-0.336
-94.816	175.695	-0.051	0.074
-93.801	-52.503	-0.143	-0.066
-92.786	800.000	0.152	0.470
-91.772	-21.793	-0.340	0.206
-90.757	106.234	0.053	-0.063
-89.743	-135.195	-0.184	-0.022
-88.728	-200.000	-0.007	-0.183
-87.713	-113.552	0.267	-0.052
-86.699	-200.000	-0.009	-0.146
-85.684	-80.780	0.070	-0.023
-84.670	719.144	-0.029	0.076
-83.655	309.290	0.162	0.302
-82.640	-23.063	-0.139	0.084
-81.626	15.411	-0.044	-0.034
-80.611	11.103	0.047	-0.036
-79.597	-200.000	0.014	-0.242
-78.582	-200.000	-0.014	-0.143
-77.567	250.064	-0.073	0.124
-76.553	84.308	0.119	0.129
-75.538	-48.036	0.230	0.111
-74.524	-22.939	0.230	-0.138
-73.509	263.896	0.088	-0.152
-72.494	-187.062	-0.122	-0.002
-71.480	-0.065	-0.080	0.056
-70.465	160.781	0.208	-0.289
-69.451	142.877	0.082	-0.108
-68.436	-106.727	0.259	-0.057
-67.422	179.201	-0.130	-0.190
-66.407	800.000	0.129	0.392
-65.392	148.361	-0.198	0.267
-64.378	116.329	-0.109	-0.133
-63.363	800.000	0.046	0.186
-62.349	800.000	-0.054	0.152
-61.334	18.694	-0.815	-0.650
-60.319	-65.573	0.521	0.208
-59.305	-200.000	0.065	-0.498
-58.290	58.481	0.562	0.549
-57.276	292.927	0.794	1.442
-56.261	-200.000	77.853	511.395
-55.246	511.597	1332.231	3088.246
-54.232	147.902	2557.991	3434.047
-53.217	115.485	2224.928	2707.157
-52.203	51.755	1677.800	1589.104
-51.188	43.933	1405.954	1282.336
-50.173	40.451	1360.709	1219.645
-49.159	58.647	1396.981	1365.613
-48.144	65.438	1415.774	1426.071
-47.130	44.381	1377.929	1259.357
-46.115	40.511	1360.896	1219.989
-45.100	40.301	1356.243	1214.481
-44.086	40.225	1354.073	1212.025
-43.071	40.136	1351.698	1209.306
-42.057	40.094	1349.560	1207.090
-41.042	40.305	1347.165	1206.182
-40.027	40.248	1346.410	1205.113
-39.013	40.249	1344.059	1202.968
-37.998	40.302	1341.974	1201.377
-36.984	40.351	1340.441	1200.251
-35.969	40.402	1338.520	1198.793
-34.954	40.460	1336.609	1197.381
-33.940	40.419	1335.106	1195.741
-32.925	40.521	1334.078	1195.388
-31.911	40.533	1332.765	1194.236
-30.896	40.440	1331.369	1192.380
-29.881	40.460	1329.824	1191.066
-28.867	40.476	1328.243	1189.704
-27.852	40.538	1326.853	1188.784
-26.838	40.505	1325.359	1187.196
-25.823	40.399	1324.150	1185.433
-24.809	40.359	1322.735	1183.884
-23.794	40.517	1321.106	1183.321
-22.779	40.441	1319.602	1181.472
-21.765	40.415	1318.487	1180.275
-20.750	40.384	1317.379	1179.049
-19.736	40.385	1315.476	1177.306
-18.721	40.265	1314.509	1175.682
-17.706	40.273	1313.417	1174.702
-16.692	40.377	1311.590	1173.639
-15.677	40.362	1310.873	1172.863
-14.663	40.329	1309.909	1171.756
-13.648	40.303	1308.927	1170.681
-12.633	40.331	1307.740	1169.739
-11.619	40.242	1307.022	1168.523
-10.604	40.329	1306.388	1168.425
-9.590	40.348	1305.304	1167.520
-8.575	40.301	1304.377	1166.368
-7.560	40.282	1303.258	1165.208
-6.546	40.379	1302.029	1164.636
-5.531	40.325	1301.536	1163.829
-4.517	40.296	1300.696	1162.863
-3.502	40.324	1299.681	1162.073
-2.487	40.414	1298.571	1161.562
-1.473	40.247	1294.629	1157.013
-0.458	38.923	1279.252	1135.572
0.556	35.195	1259.201	1091.603
1.571	31.026	1263.139	1071.030
2.586	29.836	1277.877	1076.516
3.600	28.369	1267.161	1058.919
4.615	20.639	1189.135	951.519
5.629	8.320	1105.078	821.178
6.644	2.642	1080.901	774.510
7.659	2.199	1078.272	770.329
8.673	2.086	1076.242	768.240
9.688	1.935	1075.339	766.770
10.702	2.452	1073.970	768.320
11.717	9.168	1084.630	809.834
12.731	20.428	1100.311	878.755
13.746	25.200	1106.788	908.071
14.761	25.649	1106.765	910.244
15.775	25.631	1105.962	909.413
16.790	25.394	1105.273	907.566
17.804	25.362	1104.514	906.704
18.819	25.447	1104.329	906.896
19.834	25.570	1103.591	906.833
20.848	25.579	1103.860	907.018
21.863	25.697	1102.570	906.474
22.877	25.540	1102.043	905.169
23.892	25.511	1101.427	904.439
24.907	25.568	1100.270	903.692
25.921	25.481	1099.580	902.611
26.936	25.497	1098.510	901.730
27.950	25.458	1096.785	900.041
28.965	25.411	1094.778	898.079
29.980	25.533	1093.253	897.357
30.994	25.699	1092.672	897.629
32.009	25.561	1091.688	896.053
33.023	25.503	1090.313	894.560
34.038	25.473	1089.651	893.786
35.053	25.606	1088.933	893.780
36.067	25.525	1088.170	892.672
37.082	25.580	1087.745	892.519
38.096	25.792	1086.898	892.793
39.111	25.915	1086.354	892.879
40.126	25.695	1084.857	890.478
41.140	25.322	1083.049	887.076
42.155	25.178	1081.595	885.094
43.169	25.154	1081.022	884.431
44.184	25.184	1079.931	883.607
45.199	25.053	1079.096	882.198
46.213	25.114	1077.705	881.285
47.228	25.346	1077.258	881.981
48.242	25.366	1076.445	881.335
49.257	25.392	1075.471	880.589
50.271	25.540	1074.709	880.613
51.286	25.651	1074.009	880.500
52.301	25.710	1073.040	879.920
53.315	25.592	1072.105	878.495
54.330	25.484	1071.482	877.379
55.344	25.415	1070.451	876.124
56.359	25.430	1069.606	875.427
57.374	25.298	1068.844	874.081
58.388	25.180	1068.194	872.899
59.403	25.162	1067.244	871.961
60.417	25.128	1066.007	870.705
61.432	25.128	1065.684	870.366
62.447	25.301	1064.961	870.536
63.461	25.290	1064.456	869.995
64.476	25.202	1063.466	868.683
65.490	25.126	1062.284	867.271
66.505	25.308	1061.535	867.464
67.520	25.309	1061.027	866.978
68.534	25.065	1060.307	865.134
69.549	24.721	1059.264	862.546
70.563	24.791	1058.018	861.793
71.578	24.838	1056.783	860.936
72.593	24.609	1056.105	859.206
73.607	24.685	1055.746	859.206
74.622	25.060	1055.049	860.365
75.636	25.118	1054.654	860.242
76.651	24.867	1053.451	857.981
77.666	24.890	1052.842	857.519
78.680	24.994	1052.051	857.297
79.695	25.011	1051.377	856.751
80.709	25.157	1050.659	856.790
81.724	25.090	1050.222	856.039
82.739	25.103	1049.346	855.310
83.753	25.491	1048.876	856.701
84.768	25.749	1048.347	857.421
85.782	25.931	1047.269	857.330
86.797	25.879	1046.473	856.355
87.812	25.748	1045.009	854.461
88.826	25.743	1044.357	853.829
89.841	25.743	1043.750	853.258
90.855	25.848	1042.421	852.589
91.870	25.810	1041.542	851.618
92.884	25.672	1040.749	850.241
93.899	25.598	1039.606	848.885
94.914	25.753	1038.814	848.895
95.928	25.579	1037.708	847.093
96.943	25.340	1036.726	845.091
97.957	25.196	1035.255	843.144
98.972	24.964	1034.411	841.290
99.987	25.247	1033.763	842.017
101.001	25.465	1032.837	842.212
102.016	25.407	1032.274	841.405
103.030	25.453	1030.810	840.355
104.045	25.321	1030.510	839.416
105.060	25.071	1029.508	837.357
106.074	25.353	1028.365	837.669
107.089	25.533	1028.122	838.239
108.103	25.433	1027.220	836.963
109.118	25.291	1025.340	834.698
110.133	25.220	1024.571	833.669
111.147	25.114	1023.204	831.987
112.162	24.949	1022.849	830.863
113.176	25.209	1022.189	831.454
114.191	25.178	1021.216	830.448
115.206	24.724	1020.509	827.697
116.220	24.734	1019.404	826.777
117.235	24.922	1018.456	826.801
118.249	24.970	1017.849	826.457
119.264	24.787	1017.068	824.906
120.279	24.844	1016.179	824.376
121.293	24.876	1015.688	824.049
122.308	25.029	1014.511	823.728
123.322	24.882	1013.151	821.874
124.337	24.692	1012.055	820.039
125.352	24.218	1010.831	816.805
126.366	24.231	1009.324	815.575
127.381	24.834	1009.553	818.448
128.395	25.319	1009.393	820.459
129.410	25.454	1008.539	820.311
130.424	25.591	1007.537	820.048
131.439	25.442	1006.704	818.619
132.454	25.496	1005.408	817.740
133.468	25.399	1004.722	816.667
134.483	25.580	1004.039	816.863
135.497	25.861	1002.929	817.160
136.512	25.814	1002.066	816.174
137.527	25.671	1001.936	815.346
138.541	25.891	1000.398	815.017
139.556	25.745	1000.204	814.127
140.570	25.834	999.573	813.946
141.585	25.735	998.537	812.581
142.600	25.733	997.633	811.766
143.614	26.059	996.612	812.330
144.629	26.120	995.585	811.696
145.643	25.918	994.741	810.030
146.658	25.650	993.486	807.732
147.673	25.614	992.193	806.447
148.687	25.523	991.209	805.169
149.702	25.340	990.581	803.767
150.716	25.398	989.423	803.018
151.731	25.536	988.898	803.135
152.746	25.910	988.018	804.020
153.760	25.983	987.380	803.755
154.775	25.984	987.003	803.382
155.789	25.924	985.773	802.041
156.804	25.783	985.123	800.813
157.819	25.855	984.478	800.539
158.833	26.106	983.481	800.770
159.848	26.031	982.374	799.466
160.862	25.754	981.358	797.342
161.877	25.934	980.057	797.011
162.892	25.875	979.238	796.013
163.906	25.898	978.016	795.053
164.921	25.824	977.218	794.008
165.935	25.871	976.469	793.538
166.950	25.792	975.453	792.293
167.964	25.842	974.414	791.597
168.979	25.637	972.902	789.402
169.994	25.736	971.854	788.916
171.008	25.892	972.271	789.866
172.023	25.828	971.457	788.856
173.037	25.772	969.956	787.320
174.052	25.499	969.094	785.357
175.067	25.488	968.994	785.162
176.081	25.626	968.030	784.914
177.096	25.587	967.536	784.274
178.110	25.327	966.208	781.996
179.125	25.242	965.674	781.125
180.140	25.342	965.158	781.073
181.154	25.391	964.658	780.809
182.169	25.635	964.616	781.768
183.183	25.866	964.460	782.576
184.198	25.818	963.448	781.475
185.213	25.782	962.495	780.478
186.227	25.857	962.088	780.404
187.242	25.994	961.033	780.073
188.256	25.838	960.803	779.141
189.271	25.966	959.955	778.938
190.286	25.612	959.062	776.616
191.300	24.907	957.454	772.204
192.315	24.179	955.676	767.570
193.329	24.070	955.632	766.998
194.344	25.025	955.803	771.177
195.359	25.665	955.599	773.699
196.373	25.893	955.257	774.334
197.388	25.652	954.254	772.419
198.402	25.737	954.028	772.530
199.417	25.736	952.968	771.599
200.432	25.429	952.795	770.074
201.446	25.149	951.945	768.122
202.461	25.377	950.635	767.972
203.475	24.550	948.607	762.736
204.490	23.733	947.779	758.515
205.504	24.578	947.971	762.209
206.519	25.404	948.019	765.702
207.534	25.410	947.658	765.367
208.548	25.699	947.394	766.319
209.563	25.624	946.051	764.844
210.577	25.516	945.937	764.224
211.592	25.892	946.032	765.835
212.607	25.876	945.122	764.959
213.621	25.921	944.239	764.367
214.636	25.979	943.654	764.075
215.650	25.796	942.897	762.620
216.665	25.952	942.069	762.543
217.680	25.887	941.268	761.549
218.694	25.582	939.960	759.136
219.709	25.404	939.454	757.910
220.723	25.693	938.677	758.436
221.738	25.801	938.064	758.329
222.753	25.792	937.339	757.638
223.767	25.853	937.568	758.009
224.782	26.055	936.924	758.274
225.796	26.037	936.641	757.901
226.811	25.364	935.197	753.842
227.826	24.641	933.905	749.700
228.840	24.758	933.284	749.626
229.855	25.044	932.479	750.112
230.869	24.492	931.764	747.160
231.884	25.070	931.412	749.228
232.899	25.823	931.305	752.225
233.913	25.553	931.108	750.870
234.928	25.490	930.793	750.288
235.942	25.520	929.687	749.452
236.957	25.300	928.594	747.590
237.972	25.237	928.032	746.808
238.986	25.599	927.272	747.637
240.001	25.353	927.197	746.485
241.015	25.585	926.280	746.646
242.030	25.691	925.829	746.655
243.045	25.643	925.739	746.318
244.059	25.869	924.983	746.580
245.074	25.910	923.897	745.806
246.088	25.452	922.874	743.022
247.103	25.596	922.961	743.621
248.117	26.044	923.183	745.588
249.132	26.492	922.682	746.966
250.147	26.538	922.163	746.669
251.161	26.690	921.497	746.692
252.176	26.594	920.641	745.537
253.190	26.582	920.412	745.233
254.205	26.916	919.942	746.163
255.220	26.769	919.483	745.119
256.234	26.692	918.356	743.826
257.249	26.638	917.649	742.965
258.263	26.675	916.974	742.505
259.278	26.738	916.165	742.041
260.293	26.729	915.744	741.598
261.307	26.635	915.260	740.755
262.322	26.429	914.272	739.046
263.336	25.772	912.314	734.720
264.351	24.636	910.154	728.289
265.366	24.690	910.239	728.512
266.380	25.878	910.485	733.483
267.395	26.248	910.536	734.968
268.409	26.148	909.980	734.046
269.424	26.293	909.590	734.255
270.439	26.450	908.607	734.033
271.453	26.507	908.073	733.768
272.468	26.528	908.137	733.842
273.482	26.588	907.546	733.543
274.497	26.278	906.206	731.141
275.512	25.817	905.285	728.468
276.526	26.331	905.434	730.599
277.541	26.273	905.570	730.410
278.555	26.121	904.322	728.727
279.570	26.206	903.204	728.103
280.585	26.316	902.776	728.139
281.599	26.296	901.784	727.194
282.614	25.632	900.416	723.358
283.628	25.643	900.005	723.008
284.643	26.007	899.920	724.336
285.657	25.833	898.487	722.421
286.672	25.250	898.282	719.853
287.687	25.970	897.991	722.442
288.701	25.994	897.137	721.790
289.716	25.679	896.402	719.876
290.730	25.580	895.822	718.949
291.745	25.395	894.646	717.204
292.760	25.531	894.731	717.751
293.774	26.637	895.094	722.392
294.789	27.042	894.658	723.592
295.803	26.930	894.514	722.962
296.818	26.988	893.707	722.478
297.833	26.636	892.268	719.852
298.847	26.406	891.691	718.409
299.862	26.802	891.415	719.697
300.876	27.071	891.237	720.554
301.891	26.944	890.649	719.512
302.906	26.387	889.485	716.303
303.920	26.634	888.987	716.818
304.935	27.040	888.840	718.242
305.949	27.023	888.106	717.515
306.964	26.743	887.630	715.964
307.979	26.759	886.989	715.445
308.993	27.179	886.954	717.013
310.008	27.088	886.178	715.964
311.022	26.706	885.456	713.810
312.037	26.684	884.749	713.091
313.052	26.495	884.043	711.716
314.066	25.503	882.332	706.377
315.081	25.160	881.526	704.323
316.095	26.092	882.076	708.361
317.110	26.607	881.304	709.697
318.125	25.809	880.014	705.473
319.139	24.734	878.485	699.979
320.154	24.623	878.233	699.281
321.168	25.602	878.520	703.279
322.183	26.285	878.668	706.005
323.197	26.435	878.593	706.469
324.212	26.608	878.175	706.742
325.227	26.641	877.541	706.300
326.241	26.535	876.862	705.277
327.256	26.413	876.104	704.131
328.270	26.432	875.638	703.770
329.285	26.246	874.792	702.302
330.300	25.997	873.944	700.592
331.314	26.335	873.350	701.366
332.329	26.624	873.169	702.281
333.343	26.868	873.091	703.103
334.358	26.813	872.588	702.420
335.373	26.843	872.488	702.395
336.387	26.976	872.702	703.017
337.402	27.330	872.059	703.807
338.416	27.100	871.964	702.782
339.431	27.114	871.582	702.464
340.446	27.502	871.242	703.625
341.460	27.358	870.583	702.478
342.475	27.108	870.115	701.072
343.489	27.235	869.920	701.345
344.504	27.596	869.144	702.047
345.519	27.701	868.726	702.052
346.533	27.708	868.631	701.939
347.548	27.659	867.925	701.117
348.562	27.686	867.134	700.520
349.577	27.560	867.051	699.907
350.592	27.397	866.121	698.468
351.606	27.462	865.392	698.068
352.621	27.297	864.620	696.754
353.635	27.380	863.643	696.222
354.650	26.739	861.665	692.119
355.665	25.714	860.629	687.314
356.679	26.114	860.434	688.623
357.694	26.754	860.011	690.663
358.708	26.427	859.395	688.862
359.723	26.880	858.919	690.144
360.738	27.119	859.067	691.109
361.752	27.355	858.482	691.475
362.767	27.719	858.007	692.413
363.781	27.991	857.769	693.194
364.796	27.999	857.342	692.815
365.810	28.103	856.811	692.718
366.825	28.033	856.331	692.004
367.840	27.693	855.673	690.127
368.854	27.232	854.632	687.482
369.869	27.296	854.364	687.449
370.883	27.520	853.668	687.674
371.898	27.285	853.194	686.343
372.913	27.414	852.932	686.557
373.927	27.437	852.485	686.225
374.942	27.538	852.299	686.396
375.956	27.765	851.932	686.893
376.971	27.809	851.676	686.793
377.986	28.000	851.474	687.287
379.000	27.954	850.552	686.309
380.015	27.775	850.029	685.154
381.029	27.838	849.225	684.682
382.044	27.997	848.822	684.892
383.059	27.931	848.587	684.395
384.073	28.033	847.799	684.079
385.088	27.972	847.185	683.298
386.102	27.526	846.707	681.182
387.117	27.627	845.719	680.705
388.132	27.345	844.346	678.488
389.146	26.911	843.220	675.906
390.161	27.206	843.581	677.238
391.175	27.663	843.279	678.635
392.190	27.312	842.145	676.357
393.205	25.858	840.246	669.375
394.219	24.477	838.103	662.488
395.234	24.342	838.147	661.961
396.248	25.889	839.510	668.727
397.263	27.367	840.985	675.330
398.278	27.425	840.262	674.904
399.292	27.328	839.273	673.694
400.307	27.185	838.944	672.838
401.321	27.319	838.259	672.726
402.336	27.565	838.658	673.895
403.350	28.129	838.410	675.723
404.365	28.324	838.228	676.235
405.380	28.556	837.807	676.691
406.394	28.753	837.091	676.780
407.409	28.555	836.707	675.680
408.423	28.550	836.267	675.248
409.438	28.643	835.994	675.308
410.453	28.659	835.855	675.196
411.467	28.554	835.389	674.372
412.482	28.734	834.437	674.206
413.496	28.744	834.283	674.060
414.511	28.688	833.848	673.443
415.526	28.797	833.106	673.183
416.540	28.470	832.519	671.452
417.555	28.287	831.873	670.199
418.569	28.365	831.782	670.353
419.584	28.309	830.972	669.436
420.599	28.226	830.348	668.571
421.613	96.579	1269.738	1385.994
422.628	83.545	1333.791	1386.107
