DTS Sentinel unit serial number:	SN413079Multiplexer serial number:	ORYXHardware model number:	OX4-SRSoftware version number:	ORYX F/W v4.00 Oryx Data Collector v3.7.2.0data status	okinstallation	princeton_trtdifferential loss correction	single-endedforward channel	channel 1reverse channel	N/Adate	2019/09/17time	00:42:35forward acquisition time	60.00reverse acquisition time	0.00gamma	496.2192k internal	0.2324k external	0.2324temperature offset calibration	0.9959default loss term (dB/km)	0.3790temperature slope calibration	1.0000multiplexer offset coefficient	1.0000multiplexer slope coefficient	1.0000fibre end	0.00T internal ref (°C)	29.44T ext. ref 1 (°C)	0.10T ext. ref 2 (°C)	24.04length (m)	temperature (°C)	Stokes	anti-Stokes-747.200	212.628	-0.052	0.083
-746.185	-72.296	-0.122	0.046
-745.171	365.265	-0.096	0.195
-744.156	77.886	-0.211	0.227
-743.142	399.945	0.069	-0.146
-742.127	411.606	-0.124	-0.267
-741.112	800.000	-0.023	0.074
-740.098	-58.427	-0.245	0.107
-739.083	-200.000	0.005	-0.031
-738.069	800.000	-0.157	0.614
-737.054	-16.513	-0.209	0.134
-736.039	-59.003	-0.405	-0.176
-735.025	-200.000	-0.008	0.376
-734.010	-113.340	-0.238	-0.047
-732.996	-200.000	0.001	0.004
-731.981	85.327	-0.155	-0.172
-730.966	800.000	0.063	-0.250
-729.952	-22.064	-0.153	0.094
-728.937	-184.716	0.277	-0.004
-727.923	123.349	0.046	0.058
-726.908	-108.704	-0.115	-0.025
-725.894	42.909	0.177	0.163
-724.879	-81.338	0.150	0.050
-723.864	253.714	-0.157	-0.270
-722.850	-200.000	0.300	0.000
-721.835	613.526	0.057	-0.144
-720.821	159.678	0.202	-0.284
-719.806	800.000	-0.094	0.336
-718.791	103.753	-0.154	-0.183
-717.777	78.553	-0.075	-0.080
-716.762	-86.092	-0.147	-0.046
-715.748	-123.204	-0.141	0.023
-714.733	7.409	0.151	-0.114
-713.718	800.000	-0.010	0.034
-712.704	-122.400	0.215	0.035
-711.689	500.858	-0.062	-0.143
-710.675	19.454	-0.135	0.109
-709.660	-200.000	0.005	-0.316
-708.645	-67.813	0.264	-0.104
-707.631	-65.790	-0.152	-0.061
-706.616	-200.000	0.046	-0.310
-705.602	800.000	0.077	0.269
-704.587	42.917	-0.062	-0.057
-703.572	744.334	0.047	-0.128
-702.558	101.847	0.232	0.273
-701.543	-43.766	-0.272	-0.138
-700.529	59.966	-0.287	0.286
-699.514	-200.000	-0.034	-0.149
-698.499	396.348	-0.198	-0.417
-697.485	22.211	0.324	0.267
-696.470	-9.737	-0.183	0.123
-695.456	383.498	0.048	-0.100
-694.441	-75.827	0.115	-0.041
-693.426	505.357	-0.098	0.229
-692.412	-103.846	0.336	-0.079
-691.397	-6.179	0.190	0.131
-690.383	-163.279	0.206	0.010
-689.368	800.000	0.054	-0.195
-688.354	-106.416	-0.145	0.033
-687.339	94.095	0.153	0.175
-686.324	-200.000	0.052	-0.487
-685.310	-200.000	0.005	-0.077
-684.295	-24.713	0.046	-0.027
-683.281	108.195	0.109	-0.131
-682.266	-102.968	-0.116	-0.028
-681.251	-174.971	-0.029	0.001
-680.237	-55.139	0.318	0.144
-679.222	-69.522	0.098	-0.038
-678.208	-10.209	0.091	-0.061
-677.193	-200.000	-0.043	-0.230
-676.178	-100.307	-0.056	0.014
-675.164	800.000	-0.082	-0.294
-674.149	481.242	0.076	-0.174
-673.135	285.456	-0.064	-0.116
-672.120	-177.673	-0.127	0.003
-671.105	145.170	-0.096	0.130
-670.091	259.095	0.083	-0.145
-669.076	-28.146	0.158	-0.092
-668.062	102.324	-0.187	0.219
-667.047	-128.454	-0.172	-0.025
-666.032	-168.390	0.215	0.008
-665.018	680.856	-0.129	-0.337
-664.003	-56.883	0.281	-0.125
-662.989	-138.992	-0.237	0.026
-661.974	148.080	-0.143	-0.194
-660.959	-8.707	-0.127	-0.086
-659.945	79.099	0.216	-0.233
-658.930	130.165	-0.104	0.133
-657.916	166.002	-0.090	0.129
-656.901	-200.000	-0.039	-0.192
-655.886	-4.465	-0.218	-0.152
-654.872	113.882	0.086	0.105
-653.857	90.040	-0.228	0.256
-652.843	-43.268	0.147	-0.075
-651.828	-92.975	-0.288	-0.081
-650.814	632.001	-0.141	0.359
-649.799	645.599	0.071	-0.182
-648.784	-105.733	-0.092	0.021
-647.770	-120.152	-0.343	0.059
-646.755	-151.810	0.202	0.015
-645.741	-200.000	-0.002	0.206
-644.726	-121.702	-0.335	-0.056
-643.711	213.563	-0.028	-0.045
-642.697	-200.000	-0.023	-0.236
-641.682	-200.000	0.002	0.067
-640.668	212.815	-0.155	-0.246
-639.653	146.398	-0.174	0.235
-638.638	-200.000	0.032	-0.141
-637.624	-117.553	0.178	0.032
-636.609	-116.733	-0.168	0.031
-635.595	420.915	-0.029	0.063
-634.580	286.932	-0.080	-0.146
-633.565	-60.561	0.241	-0.103
-632.551	800.000	0.026	0.107
-631.536	-200.000	0.022	-0.229
-630.522	-10.765	-0.077	-0.051
-629.507	-200.000	0.001	0.218
-628.492	117.095	-0.179	-0.221
-627.478	-46.848	0.037	0.018
-626.463	-132.631	-0.202	-0.026
-625.449	-1.063	0.077	0.055
-624.434	-200.000	-0.057	-0.304
-623.419	-200.000	-0.062	-0.278
-622.405	-200.000	-0.000	0.020
-621.390	-81.452	-0.121	-0.040
-620.376	-200.000	0.072	-0.329
-619.361	-62.234	0.264	0.111
-618.346	800.000	-0.105	0.340
-617.332	-42.636	-0.346	-0.177
-616.317	800.000	0.101	-0.289
-615.303	204.181	0.185	-0.289
-614.288	-136.362	0.318	-0.037
-613.273	-200.000	0.041	0.258
-612.259	-67.472	-0.073	-0.029
-611.244	-200.000	0.018	-0.099
-610.230	800.000	0.124	0.374
-609.215	-80.178	-0.111	-0.037
-608.201	575.260	0.056	-0.137
-607.186	26.831	0.046	-0.039
-606.171	-70.913	-0.319	0.121
-605.157	-108.601	0.121	-0.026
-604.142	29.073	-0.112	0.096
-603.128	241.877	0.206	0.346
-602.113	-200.000	0.013	0.204
-601.098	178.420	-0.061	-0.089
-600.084	546.905	0.101	-0.242
-599.069	468.236	0.023	0.053
-598.055	800.000	-0.103	-0.348
-597.040	800.000	0.073	-0.218
-596.025	-200.000	0.007	-0.084
-595.011	-56.710	0.255	-0.113
-593.996	52.029	-0.189	-0.180
-592.982	411.549	0.074	0.157
-591.967	242.064	0.186	-0.312
-590.952	-13.446	-0.135	0.088
-589.938	800.000	-0.106	0.331
-588.923	-200.000	0.092	-0.441
-587.909	-132.265	0.292	-0.038
-586.894	110.804	0.171	0.207
-585.879	-41.000	-0.034	-0.018
-584.865	255.129	-0.078	-0.134
-583.850	118.762	0.252	-0.312
-582.836	39.892	-0.179	-0.161
-581.821	309.221	-0.113	-0.212
-580.806	167.951	0.045	-0.064
-579.792	172.564	0.180	0.260
-578.777	79.707	-0.026	-0.028
-577.763	-200.000	-0.045	-0.372
-576.748	-150.067	0.257	0.020
-575.733	112.889	0.160	-0.194
-574.719	239.450	-0.137	0.228
-573.704	-53.543	-0.332	0.152
-572.690	-9.059	-0.160	0.108
-571.675	2.233	-0.153	0.111
-570.661	21.792	-0.273	-0.223
-569.646	800.000	0.098	-0.288
-568.631	-200.000	-0.056	-0.296
-567.617	-6.349	-0.197	0.135
-566.602	-83.374	0.440	-0.141
-565.588	13.991	0.215	0.167
-564.573	-107.287	-0.248	0.055
-563.558	46.416	0.265	0.247
-562.544	800.000	-0.059	-0.181
-561.529	41.066	0.228	-0.207
-560.515	-150.952	0.183	-0.014
-559.500	6.067	0.089	-0.066
-558.485	800.000	0.020	-0.055
-557.471	33.464	0.235	0.204
-556.456	55.805	-0.098	0.095
-555.442	685.365	0.051	0.132
-554.427	-40.368	0.440	-0.229
-553.412	436.430	0.065	-0.141
-552.398	-200.000	-0.016	-0.165
-551.383	-23.923	-0.405	0.243
-550.369	150.586	0.135	0.184
-549.354	747.248	0.107	0.288
-548.339	-97.277	0.333	0.087
-547.325	-200.000	0.012	-0.201
-546.310	-155.602	0.289	-0.019
-545.296	800.000	-0.021	-0.070
-544.281	800.000	-0.027	0.082
-543.266	-74.134	-0.107	-0.039
-542.252	-81.706	-0.088	-0.029
-541.237	-170.172	-0.178	-0.006
-540.223	138.515	0.086	0.113
-539.208	61.198	-0.277	0.276
-538.193	63.313	-0.235	0.236
-537.179	-115.325	0.390	0.074
-536.164	30.854	-0.265	-0.227
-535.150	643.628	0.097	-0.247
-534.135	-200.000	-0.079	-0.378
-533.121	191.996	0.134	0.202
-532.106	-60.513	0.270	0.115
-531.091	-200.000	0.009	0.281
-530.077	142.352	-0.062	-0.082
-529.062	-200.000	0.155	-0.001
-528.048	-12.545	0.236	-0.154
-527.033	-107.909	-0.196	0.043
-526.018	-200.000	0.020	-0.254
-525.004	800.000	-0.112	-0.406
-523.989	107.128	-0.149	-0.177
-522.975	199.318	0.235	-0.360
-521.960	-27.194	0.084	-0.049
-520.945	-49.704	-0.219	-0.104
-519.931	66.474	0.278	0.282
-518.916	-200.000	0.002	-0.314
-517.902	569.886	0.116	-0.283
-516.887	52.401	-0.112	-0.106
-515.872	-185.647	-0.609	0.009
-514.858	534.445	0.123	0.292
-513.843	-200.000	0.008	0.176
-512.829	-200.000	0.006	-0.031
-511.814	168.100	-0.089	-0.126
-510.799	-200.000	0.002	-0.180
-509.785	561.330	-0.082	-0.199
-508.770	163.803	0.222	0.312
-507.756	530.084	0.155	-0.367
-506.741	-2.200	-0.105	-0.073
-505.726	-200.000	-0.027	0.363
-504.712	229.037	0.228	-0.373
-503.697	-134.576	-0.268	-0.033
-502.683	564.411	0.187	0.453
-501.668	226.900	0.089	0.145
-500.653	-105.292	-0.195	-0.045
-499.639	127.644	-0.299	-0.380
-498.624	67.531	-0.014	-0.014
-497.610	-135.111	0.099	0.012
-496.595	800.000	-0.072	-0.220
-495.581	-71.129	-0.217	0.081
-494.566	126.192	-0.177	-0.224
-493.551	50.030	-0.089	0.084
-492.537	-200.000	-0.060	0.297
-491.522	16.953	0.068	0.054
-490.508	-194.091	-0.082	-0.001
-489.493	-105.641	-0.241	0.055
-488.478	247.082	0.026	-0.044
-487.464	-85.864	-0.233	0.072
-486.449	-200.000	-0.025	0.206
-485.435	407.644	0.077	-0.162
-484.420	541.336	0.252	0.599
-483.405	640.586	-0.051	0.130
-482.391	800.000	0.084	-0.247
-481.376	14.246	0.112	0.087
-480.362	-61.757	0.024	-0.010
-479.347	-200.000	0.028	0.368
-478.332	-49.077	0.287	-0.137
-477.318	263.009	-0.217	0.376
-476.303	268.547	0.191	0.335
-475.289	-127.054	0.271	0.040
-474.274	-200.000	0.056	-0.362
-473.259	135.864	0.083	0.108
-472.245	800.000	-0.057	-0.203
-471.230	-200.000	-0.006	-0.145
-470.216	87.895	-0.083	-0.092
-469.201	-149.001	-0.028	-0.002
-468.186	800.000	0.065	0.217
-467.172	-196.300	-0.236	0.002
-466.157	472.881	-0.082	-0.185
-465.143	-110.818	0.105	-0.022
-464.128	-200.000	0.020	-0.227
-463.113	26.883	-0.152	0.127
-462.099	252.903	-0.081	0.138
-461.084	-150.330	0.239	0.018
-460.070	-54.856	-0.154	0.069
-459.055	185.697	-0.095	0.141
-458.040	-13.429	0.075	0.048
-457.026	-141.236	0.098	0.010
-456.011	326.321	-0.070	0.133
-454.997	-200.000	-0.006	-0.117
-453.982	-134.187	0.177	-0.022
-452.968	295.293	0.052	0.094
-451.953	110.743	-0.115	0.138
-450.938	-169.241	0.261	0.010
-449.924	76.666	-0.107	0.113
-448.909	66.786	0.152	-0.155
-447.895	-47.625	-0.102	0.050
-446.880	289.554	0.042	-0.077
-445.865	-200.000	0.008	0.055
-444.851	-11.143	0.304	0.200
-443.836	335.603	-0.060	-0.117
-442.822	218.842	-0.072	-0.114
-441.807	-173.940	0.336	0.010
-440.792	-200.000	0.047	0.485
-439.778	32.120	-0.174	-0.150
-438.763	117.260	-0.216	0.264
-437.749	-135.647	-0.261	-0.031
-436.734	213.782	0.136	0.215
-435.719	304.112	0.188	0.348
-434.705	-200.000	-0.033	0.261
-433.690	-200.000	0.003	0.163
-432.676	-54.496	-0.204	-0.092
-431.661	-200.000	-0.033	0.230
-430.646	232.257	-0.245	-0.401
-429.632	64.260	-0.077	-0.078
-428.617	-29.971	0.328	-0.186
-427.603	-171.812	-0.398	0.013
-426.588	-20.249	0.232	-0.142
-425.573	-200.000	0.010	0.072
-424.559	116.729	-0.065	-0.079
-423.544	68.602	-0.132	-0.135
-422.530	16.085	0.278	0.218
-421.515	-89.836	0.057	0.017
-420.500	-141.528	-0.273	-0.027
-419.486	667.565	0.190	0.489
-418.471	-28.612	-0.246	0.141
-417.457	-53.350	-0.056	-0.025
-416.442	-200.000	-0.024	-0.238
-415.428	-200.000	0.043	0.317
-414.413	161.778	0.122	0.170
-413.398	-143.069	-0.293	-0.028
-412.384	-26.160	-0.180	0.105
-411.369	213.128	0.041	0.065
-410.355	-21.074	0.068	-0.041
-409.340	800.000	-0.041	-0.142
-408.325	-200.000	-0.029	-0.141
-407.311	200.706	0.028	-0.043
-406.296	-101.639	-0.069	0.017
-405.282	188.145	-0.122	0.181
-404.267	-200.000	0.001	-0.031
-403.252	455.182	0.198	0.438
-402.238	800.000	-0.152	0.516
-401.223	597.013	-0.061	0.151
-400.209	125.145	-0.267	-0.335
-399.194	334.877	-0.077	-0.148
-398.179	199.767	0.084	-0.129
-397.165	-117.458	-0.250	0.045
-396.150	-200.000	-0.003	-0.231
-395.136	-70.227	0.100	-0.038
-394.121	344.568	-0.050	-0.097
-393.106	-200.000	-0.007	-0.058
-392.092	64.789	-0.074	-0.074
-391.077	-200.000	-0.004	0.175
-390.063	406.722	0.058	-0.122
-389.048	200.106	0.101	0.154
-388.033	-49.678	-0.106	0.050
-387.019	465.758	0.129	0.287
-386.004	-10.303	-0.153	0.101
-384.990	19.739	0.182	0.146
-383.975	59.157	-0.129	-0.126
-382.960	800.000	-0.103	0.382
-381.946	-200.000	0.029	0.146
-380.931	-79.247	0.200	-0.068
-379.917	8.737	-0.256	-0.192
-378.902	147.076	0.036	0.048
-377.888	-124.639	0.153	-0.024
-376.873	-31.304	-0.146	0.082
-375.858	-29.045	0.286	-0.163
-374.844	-26.898	-0.276	0.160
-373.829	-200.000	0.029	0.238
-372.815	7.647	0.131	0.098
-371.800	244.324	0.093	-0.155
-370.785	99.321	-0.143	-0.165
-369.771	44.573	0.129	0.117
-368.756	-200.000	-0.051	-0.326
-367.742	-200.000	0.003	-0.021
-366.727	101.979	-0.155	0.180
-365.712	800.000	-0.024	-0.097
-364.698	-137.745	0.290	-0.032
-363.683	-200.000	-0.034	-0.418
-362.669	-17.900	0.083	0.052
-361.654	33.414	-0.118	-0.102
-360.639	800.000	-0.122	-0.384
-359.625	800.000	0.097	0.346
-358.610	-200.000	-0.009	-0.146
-357.596	-24.242	-0.240	0.143
-356.581	-79.193	-0.173	0.058
-355.566	-58.687	-0.087	0.037
-354.552	685.855	-0.039	-0.102
-353.537	-39.753	-0.210	-0.109
-352.523	-60.084	-0.034	-0.014
-351.508	800.000	-0.022	-0.089
-350.493	-200.000	0.001	0.177
-349.479	-53.639	-0.142	-0.064
-348.464	-104.725	0.333	-0.076
-347.450	-200.000	-0.002	0.201
-346.435	15.186	0.177	0.138
-345.420	-200.000	0.004	-0.023
-344.406	371.083	0.133	-0.268
-343.391	-72.316	0.142	-0.052
-342.377	29.963	-0.314	0.266
-341.362	262.159	-0.157	0.271
-340.348	-186.375	0.192	0.003
-339.333	800.000	0.006	-0.018
-338.318	319.093	0.115	-0.216
-337.304	353.054	0.048	0.094
-336.289	-149.425	0.280	-0.022
-335.275	99.228	-0.139	0.160
-334.260	-40.520	-0.106	0.055
-333.245	-175.167	0.259	0.007
-332.231	-114.871	0.214	0.040
-331.216	-65.102	0.267	0.107
-330.202	-75.985	-0.100	-0.035
-329.187	291.768	0.108	-0.194
-328.172	-169.963	-0.236	0.008
-327.158	-92.305	0.187	-0.052
-326.143	-200.000	-0.002	0.379
-325.129	-155.314	-0.435	-0.028
-324.114	49.223	0.274	-0.255
-323.099	800.000	-0.050	0.142
-322.085	-107.634	0.291	-0.063
-321.070	151.883	0.212	0.287
-320.056	-119.307	-0.229	0.040
-319.041	-42.085	0.160	-0.081
-318.026	-79.229	-0.269	0.090
-317.012	-48.274	-0.450	0.216
-315.997	800.000	-0.106	-0.334
-314.983	-14.901	0.293	0.186
-313.968	-200.000	0.018	0.257
-312.953	49.631	-0.198	0.185
-311.939	-94.176	-0.111	0.030
-310.924	-70.162	0.450	0.170
-309.910	21.189	0.128	-0.103
-308.895	-43.134	-0.161	0.081
-307.880	299.181	-0.082	-0.150
-306.866	-151.362	-0.251	0.019
-305.851	-130.669	-0.280	0.037
-304.837	-200.000	0.020	-0.295
-303.822	-107.123	0.240	-0.053
-302.807	98.694	0.052	0.060
-301.793	-158.581	0.178	0.010
-300.778	-200.000	-0.008	0.230
-299.764	112.094	-0.124	0.149
-298.749	-200.000	0.023	0.118
-297.735	713.548	-0.136	0.358
-296.720	160.966	-0.032	0.044
-295.705	75.987	0.243	-0.255
-294.691	331.322	-0.033	0.064
-293.676	-200.000	-0.076	-0.390
-292.662	-125.378	-0.209	0.032
-291.647	800.000	-0.028	0.107
-290.632	-123.971	-0.192	-0.030
-289.618	-49.885	-0.118	0.056
-288.603	154.320	-0.087	0.119
-287.589	55.067	0.155	0.148
-286.574	414.796	-0.093	0.197
-285.559	-47.958	-0.177	-0.085
-284.545	-200.000	0.021	-0.174
-283.530	-24.881	-0.159	-0.094
-282.516	-45.824	0.231	0.113
-281.501	-200.000	0.009	-0.281
-280.486	800.000	-0.087	-0.335
-279.472	0.509	0.118	0.084
-278.457	79.092	-0.133	-0.142
-277.443	-200.000	0.021	-0.119
-276.428	-70.881	0.114	0.043
-275.413	-34.636	0.122	0.066
-274.399	-200.000	0.016	0.159
-273.384	-200.000	-0.040	-0.219
-272.370	-200.000	-0.017	-0.145
-271.355	49.250	0.056	-0.052
-270.340	-133.923	-0.205	0.025
-269.326	-48.280	0.162	-0.077
-268.311	-83.129	0.278	-0.089
-267.297	316.452	0.069	0.130
-266.282	-75.137	0.190	-0.067
-265.267	616.665	-0.135	0.335
-264.253	-177.519	0.044	-0.001
-263.238	-57.899	-0.170	-0.073
-262.224	299.264	0.085	0.154
-261.209	551.360	-0.170	0.405
-260.195	104.422	0.122	-0.142
-259.180	-200.000	0.051	-0.433
-258.165	-144.943	0.313	0.028
-257.151	-156.617	-0.379	0.023
-256.136	-200.000	-0.021	-0.145
-255.122	607.044	0.050	-0.123
-254.107	41.301	0.075	-0.067
-253.092	-54.097	0.293	-0.132
-252.078	-200.000	-0.038	-0.270
-251.063	-147.100	0.115	-0.010
-250.049	258.012	-0.124	-0.211
-249.034	-171.584	-0.079	0.003
-248.019	-200.000	-0.005	0.030
-247.005	255.124	0.027	0.045
-245.990	-65.964	-0.176	-0.070
-244.976	642.453	0.077	-0.194
-243.961	-111.118	-0.122	0.025
-242.946	800.000	-0.038	0.113
-241.932	-132.674	0.268	-0.034
-240.917	-200.000	-0.015	0.329
-239.903	-85.100	-0.320	0.099
-238.888	-119.136	-0.361	0.062
-237.873	585.713	0.165	0.402
-236.859	-32.398	-0.372	0.205
-235.844	-147.732	0.227	0.019
-234.830	41.809	0.108	0.097
-233.815	-147.749	0.110	-0.009
-232.800	28.681	0.258	-0.216
-231.786	23.939	-0.110	0.089
-230.771	-1.442	-0.097	0.068
-229.757	-128.763	-0.313	0.044
-228.742	440.572	-0.087	-0.188
-227.727	-200.000	-0.034	-0.237
-226.713	-10.194	-0.300	0.197
-225.698	800.000	0.036	-0.156
-224.684	-113.176	-0.100	0.020
-223.669	42.422	-0.032	0.029
-222.655	131.895	0.159	-0.202
-221.640	-200.000	-0.040	-0.385
-220.625	535.745	-0.098	-0.231
-219.611	148.359	0.210	0.280
-218.596	128.341	-0.230	0.290
-217.582	-200.000	0.024	0.115
-216.567	-53.242	-0.135	-0.061
-215.552	-200.000	0.023	0.287
-214.538	60.924	0.286	0.280
-213.523	-150.345	0.318	-0.024
-212.509	-155.009	-0.260	-0.017
-211.494	800.000	0.053	0.149
-210.479	605.880	-0.102	0.252
-209.465	-200.000	-0.038	-0.344
-208.450	617.773	0.039	-0.097
-207.436	156.900	0.185	0.253
-206.421	-200.000	0.031	-0.351
-205.406	-200.000	-0.019	0.191
-204.392	800.000	0.104	0.351
-203.377	-200.000	0.007	0.187
-202.363	-200.000	-0.019	0.133
-201.348	243.269	-0.112	0.185
-200.333	800.000	-0.045	0.185
-199.319	-47.902	-0.355	0.170
-198.304	-36.095	0.248	-0.133
-197.290	-125.667	0.215	0.032
-196.275	238.871	0.036	0.059
-195.260	-48.961	-0.092	0.043
-194.246	144.749	0.158	-0.208
-193.231	660.419	-0.048	-0.121
-192.217	-200.000	0.021	-0.137
-191.202	-116.206	0.319	-0.059
-190.187	294.951	0.141	-0.255
-189.173	-134.387	0.129	0.016
-188.158	800.000	0.056	-0.216
-187.144	-76.741	-0.120	-0.041
-186.129	-15.844	-0.077	0.049
-185.114	-110.159	0.247	0.051
-184.100	-83.818	0.085	0.027
-183.085	-70.177	0.163	0.061
-182.071	24.302	0.258	0.211
-181.056	-87.541	-0.221	0.066
-180.042	720.757	0.083	0.219
-179.027	-200.000	-0.009	-0.141
-178.012	-150.103	-0.125	0.010
-176.998	-200.000	-0.067	-0.355
-175.983	319.592	0.187	-0.350
-174.969	-110.234	-0.359	-0.074
-173.954	154.660	0.233	-0.315
-172.939	-200.000	-0.024	0.205
-171.925	-95.145	0.194	-0.052
-170.910	-163.502	-0.133	0.006
-169.896	8.012	-0.200	0.148
-168.881	593.449	-0.125	-0.306
-167.866	-11.649	0.186	-0.121
-166.852	-200.000	0.018	0.239
-165.837	-137.537	0.045	0.005
-164.823	604.366	-0.123	-0.303
-163.808	-200.000	0.007	0.203
-162.793	352.224	0.051	0.100
-161.779	-92.213	0.153	0.043
-160.764	311.130	0.122	-0.226
-159.750	65.572	-0.137	-0.137
-158.735	-200.000	-0.004	0.096
-157.720	-200.000	0.022	-0.248
-156.706	-53.966	0.178	0.080
-155.691	-171.781	0.333	-0.011
-154.677	-95.471	-0.206	-0.055
-153.662	-107.209	-0.289	0.063
-152.647	-200.000	0.012	-0.098
-151.633	-200.000	0.008	0.354
-150.618	-93.948	-0.076	0.020
-149.604	585.013	0.182	-0.442
-148.589	-24.678	0.074	0.044
-147.574	-74.242	-0.303	0.108
-146.560	-200.000	0.002	0.226
-145.545	422.856	-0.132	-0.279
-144.531	61.154	-0.034	-0.033
-143.516	-78.631	-0.110	-0.037
-142.502	-92.482	0.157	-0.043
-141.487	-94.277	-0.173	0.047
-140.472	-125.048	0.084	0.013
-139.458	-131.241	0.563	0.074
-138.443	800.000	0.073	-0.216
-137.429	-44.614	-0.165	0.081
-136.414	800.000	-0.034	-0.110
-135.399	145.595	-0.103	0.136
-134.385	-148.129	0.148	-0.012
-133.370	-146.275	-0.271	-0.023
-132.356	38.798	0.181	-0.159
-131.341	-73.333	-0.146	0.053
-130.326	115.882	0.294	-0.354
-129.312	116.999	-0.351	-0.424
-128.297	-200.000	0.080	-0.410
-127.283	-163.627	0.254	0.012
-126.268	-117.121	0.225	-0.040
-125.253	-61.899	-0.216	0.089
-124.239	-77.962	0.283	-0.096
-123.224	356.162	-0.061	-0.120
-122.210	800.000	-0.112	-0.317
-121.195	149.997	0.211	-0.281
-120.180	7.783	-0.168	-0.124
-119.166	-149.941	0.144	-0.011
-118.151	166.116	-0.121	0.169
-117.137	-95.409	0.379	-0.100
-116.122	-200.000	-0.003	-0.028
-115.107	-104.103	0.136	-0.031
-114.093	324.529	0.064	0.121
-113.078	26.710	-0.215	-0.177
-112.064	-200.000	-0.016	0.072
-111.049	-106.704	0.332	0.073
-110.034	-46.581	-0.233	0.112
-109.020	514.562	-0.149	-0.343
-108.005	-162.273	0.127	0.006
-106.991	28.857	0.068	-0.057
-105.976	-200.000	-0.009	0.077
-104.962	800.000	-0.054	0.152
-103.947	97.693	0.095	-0.107
-102.932	173.307	0.142	-0.201
-101.918	-200.000	0.050	-0.300
-100.903	800.000	0.063	-0.200
-99.889	329.409	0.119	-0.226
-98.874	-200.000	0.026	-0.356
-97.859	-10.743	0.283	-0.184
-96.845	-74.164	0.126	0.045
-95.830	98.812	-0.229	-0.260
-94.816	100.653	-0.068	-0.078
-93.801	408.537	0.132	0.274
-92.786	-24.259	-0.203	-0.119
-91.772	90.510	-0.169	-0.186
-90.757	-200.000	-0.007	-0.096
-89.743	-110.487	-0.086	-0.018
-88.728	-21.406	0.103	-0.062
-87.713	-107.785	0.270	-0.058
-86.699	326.575	-0.045	-0.084
-85.684	199.470	-0.238	-0.359
-84.670	308.209	0.083	0.151
-83.655	157.400	0.144	0.196
-82.640	59.276	0.236	0.229
-81.626	660.290	0.094	0.238
-80.611	-200.000	-0.019	0.163
-79.597	-200.000	0.036	-0.164
-78.582	61.440	0.114	0.111
-77.567	23.208	0.102	-0.082
-76.553	-118.555	-0.048	0.008
-75.538	-200.000	0.025	0.337
-74.524	-20.791	-0.064	0.038
-73.509	81.352	0.353	0.375
-72.494	-117.990	-0.200	-0.035
-71.480	-93.180	-0.236	-0.064
-70.465	-200.000	0.027	0.228
-69.451	-200.000	0.019	0.132
-68.436	-150.128	-0.102	0.008
-67.422	-200.000	0.004	0.092
-66.407	-200.000	-0.019	0.160
-65.392	-200.000	0.016	-0.225
-64.378	800.000	0.049	-0.193
-63.363	-74.579	0.207	0.073
-62.349	800.000	0.067	0.190
-61.334	89.825	-0.834	-0.915
-60.319	128.009	0.557	0.697
-59.305	800.000	-0.307	-1.180
-58.290	181.221	0.668	0.965
-57.276	184.403	0.798	1.162
-56.261	-200.000	109.893	599.105
-55.246	442.298	1490.487	3206.769
-54.232	146.121	2668.322	3517.048
-53.217	105.803	2154.047	2503.175
-52.203	40.751	1604.524	1421.387
-51.188	32.892	1346.083	1144.960
-50.173	29.723	1306.329	1092.414
-49.159	54.744	1360.135	1288.827
-48.144	54.635	1375.730	1302.896
-47.130	32.958	1330.875	1132.240
-46.115	29.547	1313.126	1096.879
-45.100	29.367	1308.281	1091.718
-44.086	29.360	1305.522	1089.332
-43.071	29.287	1303.363	1087.057
-42.057	29.255	1301.149	1084.978
-41.042	29.245	1299.338	1083.368
-40.027	29.335	1297.665	1082.459
-39.013	29.339	1295.710	1080.805
-37.998	29.352	1294.137	1079.532
-36.984	29.447	1292.260	1078.474
-35.969	29.243	1290.739	1075.976
-34.954	29.342	1289.249	1075.267
-33.940	29.391	1288.155	1074.595
-32.925	29.612	1286.272	1074.265
-31.911	29.439	1284.721	1071.923
-30.896	29.610	1283.236	1071.633
-29.881	29.483	1282.138	1069.939
-28.867	29.658	1280.228	1069.315
-27.852	29.535	1279.604	1068.044
-26.838	29.599	1277.561	1066.662
-25.823	29.540	1276.536	1065.423
-24.809	29.472	1275.179	1063.861
-23.794	29.531	1273.749	1062.963
-22.779	29.542	1272.533	1061.968
-21.765	29.598	1271.234	1061.165
-20.750	29.481	1270.298	1059.671
-19.736	29.476	1269.004	1058.521
-18.721	29.454	1267.688	1057.253
-17.706	29.426	1266.732	1056.255
-16.692	29.365	1265.392	1054.744
-15.677	29.419	1264.439	1054.217
-14.663	29.400	1263.326	1053.142
-13.648	29.340	1262.478	1052.047
-12.633	29.267	1261.494	1050.768
-11.619	29.421	1260.367	1050.667
-10.604	29.524	1259.121	1050.175
-9.590	29.396	1258.645	1049.005
-8.575	29.388	1257.360	1047.847
-7.560	29.372	1256.387	1046.907
-6.546	29.305	1256.126	1046.268
-5.531	29.331	1255.184	1045.589
-4.517	29.460	1253.751	1045.081
-3.502	29.323	1253.288	1043.879
-2.487	29.481	1252.094	1043.738
-1.473	29.331	1248.299	1039.688
-0.458	27.936	1233.367	1019.430
0.556	22.829	1216.889	983.129
1.571	19.362	1223.131	968.641
2.586	18.574	1237.995	975.848
3.600	18.336	1226.711	965.525
4.615	13.383	1153.682	881.634
5.629	4.638	1078.155	780.130
6.644	0.476	1057.966	744.935
7.659	0.115	1055.987	741.698
8.673	-0.033	1054.866	740.117
9.688	-0.156	1054.056	738.881
10.702	0.326	1051.713	739.537
11.717	5.355	1058.603	769.105
12.731	13.922	1069.568	819.435
13.746	17.519	1073.497	840.153
14.761	16.989	1072.087	836.364
15.775	16.091	1069.845	830.120
16.790	14.983	1067.966	823.144
17.804	14.395	1066.100	818.742
18.819	13.946	1065.607	816.084
19.834	13.623	1064.837	813.837
20.848	13.368	1063.999	811.873
21.863	13.120	1062.755	809.638
22.877	13.114	1062.039	808.989
23.892	12.916	1061.518	807.553
24.907	12.945	1060.849	807.115
25.921	13.208	1059.956	807.651
26.936	13.127	1059.061	806.501
27.950	13.122	1058.328	805.849
28.965	13.245	1056.800	805.212
29.980	13.291	1055.562	804.420
30.994	13.384	1054.592	804.061
32.009	13.232	1054.166	802.926
33.023	13.302	1053.037	802.337
34.038	13.246	1052.221	801.370
35.053	13.334	1050.530	800.442
36.067	13.240	1050.084	799.573
37.082	13.301	1049.268	799.177
38.096	13.236	1048.760	798.403
39.111	13.287	1047.444	797.578
40.126	13.141	1046.724	796.257
41.140	13.075	1045.344	794.819
42.155	12.998	1044.376	793.640
43.169	13.046	1043.671	793.266
44.184	13.006	1042.359	792.009
45.199	13.111	1041.449	791.752
46.213	13.046	1040.188	790.408
47.228	13.246	1039.290	790.611
48.242	13.121	1038.330	789.216
49.257	13.128	1037.840	788.809
50.271	13.179	1036.759	788.160
51.286	13.152	1035.975	787.363
52.301	13.152	1034.864	786.450
53.315	13.061	1034.188	785.437
54.330	13.129	1032.574	784.463
55.344	13.040	1032.416	783.849
56.359	13.044	1031.222	782.894
57.374	12.968	1030.402	781.840
58.388	13.054	1029.546	781.531
59.403	12.993	1028.735	780.559
60.417	13.041	1027.883	780.070
61.432	13.042	1026.995	779.331
62.447	12.831	1026.688	778.033
63.461	12.991	1025.695	777.965
64.476	12.902	1024.723	776.738
65.490	13.065	1023.351	776.396
66.505	12.889	1023.190	775.381
67.520	13.047	1022.659	775.650
68.534	12.895	1021.945	774.326
69.549	12.956	1020.960	773.799
70.563	12.975	1020.269	773.296
71.578	12.967	1019.002	772.230
72.593	12.863	1018.892	771.590
73.607	12.892	1018.229	771.154
74.622	12.865	1017.343	770.290
75.636	12.908	1016.450	769.745
76.651	12.869	1015.908	769.085
77.666	12.935	1015.078	768.696
78.680	12.880	1014.411	767.868
79.695	12.863	1013.698	767.182
80.709	12.952	1013.011	767.009
81.724	13.012	1012.725	767.000
82.739	13.124	1011.491	766.521
83.753	13.140	1011.268	766.355
84.768	13.147	1010.492	765.734
85.782	13.258	1009.363	765.326
86.797	13.164	1008.602	764.244
87.812	13.065	1007.739	763.066
88.826	13.159	1006.540	762.522
89.841	13.070	1005.876	761.543
90.855	13.345	1004.678	761.833
91.870	13.341	1003.777	761.065
92.884	13.258	1003.117	760.117
93.899	13.222	1002.398	759.340
94.914	13.288	1001.711	759.053
95.928	13.316	1000.656	758.318
96.943	13.362	999.666	757.709
97.957	13.272	998.844	756.606
98.972	13.356	998.066	756.334
99.987	13.344	996.778	755.239
101.001	13.313	995.923	754.384
102.016	13.222	995.642	753.686
103.030	13.200	994.981	753.021
104.045	13.239	993.719	752.174
105.060	13.167	992.890	751.156
106.074	13.176	991.624	750.172
107.089	12.978	991.134	748.836
108.103	12.941	990.020	747.761
109.118	13.038	989.041	747.393
110.133	13.118	988.293	747.125
111.147	13.130	987.458	746.482
112.162	13.069	987.152	745.909
113.176	13.130	985.753	745.061
114.191	13.212	984.930	744.743
115.206	13.215	984.236	744.165
116.220	13.139	983.255	743.014
117.235	13.139	982.458	742.345
118.249	13.235	981.356	741.881
119.264	13.110	981.173	741.117
120.279	13.035	980.221	739.992
121.293	13.121	979.383	739.683
122.308	13.104	978.328	738.743
123.322	13.073	977.330	737.787
124.337	13.087	976.375	737.060
125.352	13.267	975.156	736.880
126.366	13.082	973.935	735.066
127.381	13.110	973.363	734.697
128.395	13.194	972.386	734.266
129.410	13.118	971.305	733.045
130.424	13.097	970.946	732.620
131.439	13.266	969.866	732.487
132.454	13.180	969.303	731.616
133.468	13.235	968.362	731.085
134.483	13.215	967.450	730.244
135.497	13.443	966.178	730.225
136.512	13.165	965.813	728.658
137.527	13.220	964.909	728.155
138.541	13.215	964.217	727.545
139.556	13.301	963.217	727.104
140.570	13.222	962.809	726.385
141.585	13.345	962.029	726.274
142.600	13.204	961.580	725.250
143.614	13.387	960.128	724.893
144.629	13.391	959.265	724.196
145.643	13.300	958.642	723.263
146.658	13.314	957.640	722.505
147.673	13.291	956.857	721.748
148.687	13.211	956.145	720.798
149.702	13.191	955.460	720.130
150.716	13.166	954.580	719.295
151.731	13.294	953.653	719.092
152.746	13.293	952.848	718.414
153.760	13.283	952.313	717.903
154.775	13.435	951.437	717.839
155.789	13.528	950.975	717.833
156.804	13.454	950.355	716.980
157.819	13.475	949.583	716.424
158.833	13.596	949.105	716.525
159.848	13.645	948.051	715.875
160.862	13.720	946.987	715.331
161.877	13.402	946.197	713.303
162.892	13.451	945.082	712.612
163.906	13.486	944.445	712.217
164.921	13.406	943.558	711.142
165.935	13.417	942.860	710.600
166.950	13.408	942.046	709.883
167.964	13.384	941.534	709.331
168.979	13.442	940.411	708.671
169.994	13.506	939.148	707.932
171.008	13.566	938.536	707.663
172.023	13.480	938.022	706.847
173.037	13.465	937.527	706.348
174.052	13.535	936.622	705.900
175.067	13.420	935.881	704.790
176.081	13.412	935.643	704.515
177.096	13.578	934.896	704.598
178.110	13.475	934.091	703.491
179.125	13.538	933.505	703.252
180.140	13.608	932.856	702.999
181.154	13.467	932.662	702.193
182.169	13.627	932.406	702.615
183.183	13.649	931.262	701.787
184.198	13.811	930.178	701.593
185.213	13.688	929.978	700.858
186.227	13.637	929.702	700.372
187.242	13.712	929.180	700.234
188.256	13.793	928.097	699.698
189.271	13.779	927.492	699.119
190.286	13.580	926.558	697.517
191.300	13.531	926.005	696.832
192.315	13.589	925.160	696.380
193.329	13.696	924.702	696.421
194.344	13.649	923.843	695.518
195.359	13.643	923.556	695.215
196.373	13.725	922.947	695.039
197.388	13.754	922.454	694.728
198.402	13.872	921.892	694.737
199.417	13.932	921.388	694.545
200.432	13.985	920.610	694.120
201.446	14.015	920.354	693.990
202.461	14.011	920.022	693.662
203.475	14.008	919.047	692.851
204.490	14.007	918.359	692.268
205.504	13.867	917.923	691.295
206.519	14.013	917.000	691.145
207.534	14.072	915.997	690.575
208.548	13.961	915.797	689.901
209.563	13.926	914.911	689.027
210.577	14.064	914.336	689.104
211.592	14.062	914.046	688.817
212.607	14.002	913.130	687.818
213.621	14.061	912.165	687.274
214.636	14.056	911.307	686.545
215.650	14.127	911.047	686.584
216.665	14.245	910.229	686.391
217.680	14.091	909.432	685.095
218.694	14.302	908.768	685.405
219.709	14.181	908.498	684.643
220.723	14.173	907.582	683.860
221.738	14.241	906.687	683.403
222.753	14.332	906.096	683.270
223.767	14.225	905.546	682.357
224.782	14.213	905.035	681.861
225.796	14.351	904.646	682.072
226.811	14.303	903.664	681.074
227.826	14.325	903.432	680.929
228.840	14.282	902.604	680.070
229.855	14.212	901.106	678.598
230.869	14.319	900.699	678.665
231.884	14.367	899.691	678.044
232.899	14.344	898.991	677.361
233.913	14.311	898.357	676.688
234.928	14.336	897.899	676.384
235.942	14.403	897.341	676.176
236.957	14.219	897.348	675.377
237.972	14.272	896.303	674.744
238.986	14.382	895.440	674.479
240.001	14.289	894.998	673.712
241.015	14.258	894.740	673.334
242.030	14.314	893.673	672.694
243.045	14.351	893.321	672.521
244.059	14.510	892.761	672.680
245.074	14.516	891.763	671.894
246.088	14.614	891.012	671.664
247.103	14.544	890.336	670.811
248.117	14.639	890.044	670.913
249.132	14.566	889.924	670.472
250.147	14.553	889.094	669.737
251.161	14.767	888.322	669.953
252.176	14.785	887.733	669.520
253.190	14.826	886.703	668.849
254.205	14.823	886.341	668.503
255.220	14.747	886.049	667.923
256.234	14.853	885.166	667.620
257.249	14.824	884.436	666.896
258.263	14.865	883.595	666.367
259.278	14.922	883.147	666.196
260.293	14.811	882.724	665.375
261.307	15.007	882.031	665.572
262.322	15.142	881.231	665.448
263.336	15.115	880.347	664.615
264.351	15.047	879.677	663.779
265.366	15.042	879.244	663.373
266.380	15.086	878.818	663.168
267.395	14.910	878.126	661.891
268.409	15.018	877.258	661.605
269.424	15.052	876.306	660.963
270.439	14.917	876.035	660.167
271.453	15.135	874.751	660.002
272.468	15.036	874.810	659.598
273.482	14.996	873.956	658.737
274.497	15.060	873.509	658.592
275.512	15.075	873.099	658.287
276.526	15.185	872.358	658.100
277.541	15.142	871.687	657.367
278.555	15.032	871.602	656.815
279.570	15.243	870.603	656.830
280.585	15.229	869.731	656.060
281.599	15.193	868.902	655.236
282.614	15.259	868.675	655.264
283.628	15.177	868.332	654.625
284.643	15.046	867.853	653.697
285.657	15.265	866.927	653.794
286.672	15.229	866.514	653.285
287.687	15.224	865.513	652.451
288.701	15.355	864.857	652.410
289.716	15.262	864.528	651.742
290.730	15.329	863.905	651.478
291.745	15.492	863.006	651.374
292.760	15.337	862.692	650.478
293.774	15.401	862.504	650.527
294.789	15.365	861.325	649.439
295.803	15.450	860.777	649.298
296.818	15.400	860.389	648.753
297.833	15.418	859.627	648.191
298.847	15.485	858.788	647.762
299.862	15.479	858.063	647.134
300.876	15.471	857.532	646.643
301.891	15.674	856.862	646.863
302.906	15.540	856.201	645.791
303.920	15.623	856.116	645.989
304.935	15.694	855.526	645.760
305.949	15.627	855.018	645.064
306.964	15.595	854.322	644.357
307.979	15.510	853.870	643.634
308.993	15.606	853.275	643.494
310.008	15.811	852.502	643.642
311.022	15.683	851.954	642.679
312.037	15.699	851.388	642.259
313.052	15.552	850.854	641.235
314.066	15.604	850.422	641.052
315.081	15.672	849.553	640.600
316.095	15.645	848.914	639.960
317.110	15.632	848.622	639.631
318.125	15.662	848.299	639.447
319.139	15.746	847.785	639.322
320.154	15.638	847.648	638.752
321.168	15.610	846.705	637.877
322.183	15.742	846.026	637.812
323.197	15.687	845.709	637.307
324.212	15.834	845.062	637.319
325.227	15.641	844.695	636.257
326.241	15.735	843.758	635.848
327.256	15.779	843.251	635.578
328.270	15.719	842.873	635.008
329.285	15.727	842.260	634.521
330.300	15.895	841.821	634.768
331.314	15.964	840.919	634.293
332.329	15.834	841.104	633.885
333.343	15.951	840.441	633.768
334.358	15.893	840.049	633.200
335.373	15.911	839.596	632.870
336.387	15.997	839.281	632.901
337.402	16.025	838.964	632.709
338.416	16.009	838.586	632.308
339.431	15.837	838.453	631.506
340.446	16.095	837.731	631.876
341.460	16.143	837.007	631.454
342.475	16.271	836.684	631.631
343.489	16.151	836.517	631.002
344.504	16.176	836.094	630.719
345.519	16.096	835.606	629.998
346.533	16.297	834.766	630.058
347.548	16.149	834.747	629.437
348.562	16.119	833.906	628.635
349.577	16.228	833.130	628.401
350.592	16.053	832.672	627.349
351.606	16.122	831.960	627.012
352.621	16.175	831.145	626.538
353.635	16.202	830.765	626.297
354.650	16.266	829.979	625.888
355.665	16.199	829.556	625.265
356.679	16.374	828.656	625.179
357.694	16.463	828.025	624.976
358.708	16.272	827.878	624.104
359.723	16.262	827.154	623.466
360.738	16.415	826.494	623.476
361.752	16.226	826.070	622.405
362.767	16.334	825.872	622.601
363.781	16.390	824.939	622.048
364.796	16.543	824.576	622.280
365.810	16.555	824.133	621.935
366.825	16.708	823.481	621.952
367.840	16.503	823.238	620.958
368.854	16.553	823.074	620.964
369.869	16.628	822.237	620.554
370.883	16.633	821.907	620.266
371.898	16.665	821.502	620.023
372.913	16.643	821.317	619.749
373.927	16.614	820.630	619.068
374.942	16.599	820.200	618.635
375.956	16.732	819.623	618.631
376.971	16.634	819.566	618.175
377.986	16.716	819.028	618.016
379.000	16.721	818.491	617.572
380.015	16.900	817.741	617.603
381.029	16.794	817.114	616.689
382.044	16.903	816.308	616.424
383.059	16.913	815.593	615.867
384.073	16.809	815.271	615.191
385.088	16.832	815.147	615.127
386.102	16.859	814.406	614.612
387.117	16.722	813.975	613.733
388.132	16.808	813.474	613.614
389.146	16.840	812.815	613.177
390.161	16.839	812.597	612.954
391.175	16.843	812.133	612.567
392.190	16.938	811.389	612.292
393.205	16.810	810.871	611.387
394.219	16.903	810.490	611.380
395.234	16.776	810.362	610.771
396.248	16.913	809.709	610.718
397.263	16.807	809.273	609.954
398.278	16.854	809.123	609.957
399.292	16.903	808.739	609.789
400.307	16.763	807.889	608.593
401.321	16.910	807.561	608.818
402.336	16.890	807.223	608.439
403.350	16.883	806.864	608.088
404.365	16.973	806.416	608.021
405.380	17.091	805.680	607.834
406.394	17.130	804.898	607.329
407.409	17.216	804.417	607.220
408.423	17.182	804.894	607.403
409.438	17.341	803.882	607.153
410.453	16.977	803.837	605.766
411.467	17.258	803.331	606.335
412.482	17.300	802.751	605.993
413.496	17.494	801.917	606.000
414.511	17.365	802.203	605.702
415.526	17.404	801.422	605.199
416.540	17.327	801.165	604.677
417.555	17.257	800.669	604.001
418.569	17.335	800.302	603.950
419.584	17.325	799.698	603.405
420.599	17.350	799.408	603.219
421.613	108.872	1293.270	1469.209
422.628	93.631	1365.197	1469.299
