DTS Sentinel unit serial number:	SN413079Multiplexer serial number:	ORYXHardware model number:	OX4-SRSoftware version number:	ORYX F/W v4.00 Oryx Data Collector v3.7.2.0data status	okinstallation	princeton_trtdifferential loss correction	single-endedforward channel	channel 1reverse channel	N/Adate	2019/09/18time	12:42:35forward acquisition time	60.00reverse acquisition time	0.00gamma	496.2192k internal	0.2317k external	0.2317temperature offset calibration	0.9978default loss term (dB/km)	0.3790temperature slope calibration	1.0000multiplexer offset coefficient	1.0000multiplexer slope coefficient	1.0000fibre end	0.00T internal ref (°C)	32.78T ext. ref 1 (°C)	0.53T ext. ref 2 (°C)	30.95length (m)	temperature (°C)	Stokes	anti-Stokes-747.200	-200.000	-0.035	0.246
-746.185	185.342	-0.129	0.194
-745.171	-115.630	0.157	-0.030
-744.156	-98.214	-0.310	0.081
-743.142	-121.087	-0.072	-0.012
-742.127	-135.636	-0.370	0.044
-741.112	-27.913	0.082	0.048
-740.098	-200.000	-0.024	0.125
-739.083	-113.957	-0.121	-0.024
-738.069	550.072	0.126	0.307
-737.054	591.734	-0.039	0.098
-736.039	64.040	-0.242	0.246
-735.025	-127.390	-0.120	-0.018
-734.010	-98.830	0.381	0.098
-732.996	-39.210	-0.200	0.106
-731.981	-58.700	-0.187	0.082
-730.966	-90.259	0.208	-0.061
-729.952	149.451	0.315	0.432
-728.937	-93.273	-0.369	0.104
-727.923	800.000	-0.009	-0.031
-726.908	-118.610	-0.248	0.044
-725.894	42.758	-0.030	-0.028
-724.879	-200.000	-0.110	-0.572
-723.864	-48.246	0.293	-0.143
-722.850	315.549	-0.093	-0.177
-721.835	-183.731	-0.178	0.003
-720.821	-116.467	-0.238	0.044
-719.806	-200.000	-0.078	-0.589
-718.791	37.988	-0.273	-0.246
-717.777	-173.938	-0.322	0.010
-716.762	139.011	0.121	-0.161
-715.748	-109.199	-0.396	0.085
-714.733	47.698	-0.188	0.177
-713.718	-200.000	-0.034	-0.217
-712.704	299.101	0.081	0.151
-711.689	129.224	0.112	-0.145
-710.675	-200.000	0.056	-0.397
-709.660	-51.479	-0.155	0.073
-708.645	800.000	0.126	-0.354
-707.631	-49.614	0.200	0.096
-706.616	-163.997	-0.121	0.006
-705.602	197.456	-0.245	-0.379
-704.587	-200.000	0.018	0.090
-703.572	-67.992	0.208	0.082
-702.558	457.817	-0.043	-0.097
-701.543	-41.956	0.236	0.122
-700.529	-200.000	0.003	-0.224
-699.514	-148.763	-0.403	-0.033
-698.499	-172.907	0.201	0.006
-697.485	-56.078	-0.028	0.013
-696.470	-112.192	-0.087	0.018
-695.456	-200.000	0.026	-0.127
-694.441	-87.627	0.167	-0.051
-693.426	102.913	0.094	-0.112
-692.412	-0.723	0.027	-0.019
-691.397	263.288	0.021	0.036
-690.383	-88.340	0.083	-0.025
-689.368	-113.315	-0.481	0.096
-688.354	156.997	-0.154	-0.215
-687.339	19.007	0.078	0.063
-686.324	259.406	-0.123	-0.215
-685.310	22.453	-0.126	0.104
-684.295	228.598	-0.141	0.233
-683.281	-200.000	-0.032	0.323
-682.266	58.798	-0.141	0.140
-681.251	-141.653	-0.128	0.013
-680.237	-109.131	0.115	-0.025
-679.222	-24.547	0.138	0.083
-678.208	285.338	-0.176	0.320
-677.193	-200.000	-0.015	0.092
-676.178	18.248	0.214	0.173
-675.164	-14.202	-0.385	0.251
-674.149	119.814	0.218	-0.273
-673.135	800.000	-0.033	0.127
-672.120	-39.455	0.174	-0.092
-671.105	-135.391	-0.319	-0.039
-670.091	-35.739	-0.012	-0.007
-669.076	-161.582	0.088	0.005
-668.062	277.698	-0.127	-0.229
-667.047	-200.000	-0.066	-0.373
-666.032	735.254	0.032	0.087
-665.018	-59.901	-0.374	0.162
-664.003	323.468	0.257	0.495
-662.989	-200.000	-0.001	0.154
-661.974	-54.364	0.303	-0.139
-660.959	-118.812	0.128	-0.023
-659.945	279.518	0.080	-0.144
-658.930	22.682	-0.112	0.093
-657.916	-77.356	0.269	-0.094
-656.901	-87.130	-0.218	0.067
-655.886	160.565	-0.067	-0.095
-654.872	261.719	-0.061	0.107
-653.857	328.829	-0.081	-0.157
-652.843	800.000	-0.049	-0.157
-651.828	163.734	0.155	-0.220
-650.814	-5.308	0.178	-0.124
-649.799	327.554	-0.168	-0.324
-648.784	-46.100	-0.036	-0.018
-647.770	800.000	0.106	-0.323
-646.755	-200.000	-0.005	-0.305
-645.741	46.230	0.125	0.117
-644.726	-38.896	0.157	0.084
-643.711	-138.915	-0.368	-0.040
-642.697	117.991	-0.148	0.184
-641.682	292.354	0.091	0.167
-640.668	-165.701	-0.192	-0.008
-639.653	217.653	-0.027	-0.044
-638.638	-200.000	-0.002	-0.108
-637.624	264.584	-0.021	0.037
-636.609	34.313	-0.413	-0.363
-635.595	238.672	0.103	-0.172
-634.580	269.405	0.165	-0.293
-633.565	-90.043	0.313	0.092
-632.551	200.182	0.124	-0.191
-631.536	-39.177	-0.324	-0.172
-630.522	121.484	0.071	0.089
-629.507	-48.405	-0.234	0.113
-628.492	-63.375	-0.173	0.072
-627.478	248.017	-0.182	-0.310
-626.463	-121.053	0.204	0.035
-625.449	800.000	-0.067	0.281
-624.434	-195.242	-0.268	0.002
-623.419	-110.301	-0.347	-0.073
-622.405	104.176	0.081	-0.096
-621.390	-164.033	0.459	-0.021
-620.376	-135.829	0.080	-0.010
-619.361	-163.009	0.141	0.007
-618.346	-155.069	0.130	0.009
-617.332	8.918	0.229	0.174
-616.317	-93.447	0.130	-0.036
-615.303	-200.000	-0.004	-0.366
-614.288	-30.920	0.068	0.039
-613.273	480.145	0.070	0.159
-612.259	495.484	-0.120	-0.279
-611.244	280.586	0.190	-0.342
-610.230	-200.000	-0.003	-0.187
-609.215	-200.000	0.007	-0.171
-608.201	-102.455	0.114	-0.028
-607.186	151.721	0.142	-0.194
-606.171	415.924	-0.120	-0.257
-605.157	12.761	-0.120	-0.093
-604.142	26.990	0.053	0.044
-603.128	227.249	-0.107	-0.175
-602.113	-126.257	-0.456	-0.069
-601.098	-200.000	-0.009	0.135
-600.084	-200.000	-0.040	0.190
-599.069	189.998	-0.153	-0.232
-598.055	-36.371	0.294	0.160
-597.040	-200.000	0.032	-0.459
-596.025	-200.000	-0.034	-0.213
-595.011	735.745	0.033	0.089
-593.996	751.349	0.098	-0.265
-592.982	97.687	-0.135	-0.157
-591.967	-127.308	-0.168	0.025
-590.952	96.295	0.124	-0.143
-589.938	800.000	-0.112	0.421
-588.923	215.615	-0.123	0.196
-587.909	-200.000	0.005	-0.157
-586.894	-60.972	-0.196	-0.083
-585.879	237.134	-0.145	0.242
-584.865	727.280	0.028	0.075
-583.850	-200.000	0.002	-0.198
-582.836	800.000	0.062	-0.251
-581.821	-184.916	0.041	-0.001
-580.806	-63.371	0.085	-0.035
-579.792	-85.141	0.319	-0.100
-578.777	668.255	0.114	0.296
-577.763	800.000	-0.030	-0.094
-576.748	-24.745	-0.305	-0.182
-575.733	-200.000	-0.013	-0.304
-574.719	-21.401	-0.073	-0.045
-573.704	-95.111	-0.250	0.068
-572.690	-200.000	-0.034	0.253
-571.675	-44.062	0.051	0.026
-570.661	-200.000	0.087	-0.428
-569.646	140.521	0.080	-0.106
-568.631	-91.522	-0.224	-0.064
-567.617	-200.000	-0.056	0.304
-566.602	664.631	0.042	0.110
-565.588	800.000	-0.075	0.291
-564.573	-200.000	0.037	-0.234
-563.558	-34.033	-0.025	-0.014
-562.544	39.414	0.179	0.161
-561.529	154.803	0.110	0.152
-560.515	800.000	0.105	-0.348
-559.500	64.306	-0.063	-0.063
-558.485	-29.327	-0.137	-0.079
-557.471	-72.461	-0.348	0.129
-556.456	163.555	-0.077	-0.109
-555.442	3.013	-0.192	-0.140
-554.427	-163.533	-0.413	0.020
-553.412	-4.161	0.198	0.138
-552.398	-70.333	0.027	-0.010
-551.383	-69.697	-0.086	-0.033
-550.369	215.344	-0.036	0.057
-549.354	117.460	0.231	-0.286
-548.339	-180.565	0.205	-0.004
-547.325	658.809	0.049	0.127
-546.310	121.298	-0.153	-0.192
-545.296	65.135	0.270	0.274
-544.281	-200.000	-0.007	0.074
-543.266	800.000	-0.057	-0.189
-542.252	93.101	0.067	0.076
-541.237	134.377	-0.208	0.271
-540.223	107.973	0.133	-0.159
-539.208	-200.000	0.038	0.250
-538.193	42.641	0.293	0.268
-537.179	-13.032	0.314	0.205
-536.164	474.732	0.022	-0.050
-535.150	-35.006	0.573	-0.314
-534.135	367.240	-0.073	0.148
-533.121	800.000	-0.068	0.209
-532.106	-58.932	-0.010	0.004
-531.091	800.000	-0.021	0.092
-530.077	41.093	0.158	-0.143
-529.062	112.884	0.103	-0.125
-528.048	-110.566	0.351	-0.073
-527.033	-44.774	-0.310	-0.155
-526.018	86.443	-0.275	0.305
-525.004	2.488	0.112	0.081
-523.989	87.920	0.168	0.187
-522.975	-200.000	-0.033	-0.228
-521.960	-135.108	-0.412	0.050
-520.945	800.000	0.054	-0.181
-519.931	-200.000	0.004	0.432
-518.916	800.000	0.063	-0.243
-517.902	35.896	0.307	0.271
-516.887	-200.000	0.046	-0.400
-515.872	317.595	0.096	0.182
-514.858	374.846	-0.197	-0.403
-513.843	60.736	-0.030	0.030
-512.829	218.934	-0.230	0.369
-511.814	-58.516	-0.178	0.078
-510.799	-80.183	-0.052	0.017
-509.785	491.529	0.066	-0.151
-508.770	250.443	-0.092	-0.156
-507.756	-200.000	0.027	0.280
-506.741	-183.163	0.173	0.003
-505.726	-56.509	0.312	0.139
-504.712	-136.390	-0.212	-0.025
-503.697	-140.717	-0.236	-0.024
-502.683	-170.310	-0.086	-0.003
-501.668	-64.652	-0.098	0.040
-500.653	71.977	-0.144	-0.150
-499.639	-84.192	-0.176	-0.056
-498.624	-131.732	-0.211	0.028
-497.610	20.282	0.280	0.227
-496.595	-79.266	-0.165	0.056
-495.581	168.390	-0.254	-0.363
-494.566	-200.000	-0.004	-0.309
-493.551	-200.000	-0.019	0.218
-492.537	82.889	0.192	-0.209
-491.522	-200.000	0.036	-0.262
-490.508	83.870	0.093	0.102
-489.493	553.867	0.073	-0.175
-488.478	800.000	-0.086	-0.309
-487.464	-149.776	0.356	0.028
-486.449	-16.917	0.168	0.107
-485.435	800.000	-0.039	-0.168
-484.420	333.129	0.043	-0.083
-483.405	4.741	-0.161	-0.119
-482.391	-200.000	-0.064	0.513
-481.376	686.919	-0.172	0.451
-480.362	-200.000	0.021	0.292
-479.347	-200.000	-0.004	0.248
-478.332	491.907	0.080	0.184
-477.318	800.000	-0.040	0.113
-476.303	-76.314	-0.174	-0.062
-475.289	14.318	-0.196	0.153
-474.274	48.981	-0.147	-0.139
-473.259	218.738	-0.215	-0.344
-472.245	-15.370	-0.100	-0.064
-471.230	800.000	-0.058	0.205
-470.216	-200.000	-0.034	-0.238
-469.201	584.519	-0.054	-0.132
-468.186	228.310	0.053	-0.087
-467.172	170.480	-0.110	0.157
-466.157	30.997	0.228	-0.196
-465.143	39.731	-0.104	-0.093
-464.128	-1.731	0.277	0.195
-463.113	-19.896	-0.062	-0.038
-462.099	-200.000	0.077	-0.479
-461.084	147.355	-0.188	0.254
-460.070	-4.140	-0.220	0.152
-459.055	23.458	0.225	0.185
-458.040	-85.388	0.151	-0.047
-457.026	704.316	-0.083	-0.220
-456.011	39.007	-0.013	-0.011
-454.997	-28.198	-0.290	-0.168
-453.982	-51.172	-0.085	-0.040
-452.968	-128.516	0.311	0.044
-451.953	800.000	-0.068	-0.239
-450.938	-174.061	-0.418	-0.012
-449.924	134.565	-0.176	-0.229
-448.909	309.425	-0.065	-0.122
-447.895	-0.381	-0.203	0.145
-446.880	800.000	-0.080	0.287
-445.865	800.000	0.089	0.332
-444.851	223.602	0.249	0.402
-443.836	199.172	-0.069	-0.106
-442.822	-44.703	0.367	-0.183
-441.807	45.532	-0.222	-0.205
-440.792	5.704	-0.305	0.226
-439.778	-97.933	-0.223	-0.058
-438.763	795.392	0.048	-0.132
-437.749	-200.000	0.017	-0.159
-436.734	-113.052	-0.191	-0.038
-435.719	-22.490	0.407	0.246
-434.705	800.000	0.151	-0.499
-433.690	490.472	0.109	-0.248
-432.676	-127.296	-0.258	-0.038
-431.661	42.064	-0.263	-0.238
-430.646	-200.000	-0.015	-0.075
-429.632	-20.640	-0.194	-0.119
-428.617	-200.000	-0.033	0.291
-427.603	-200.000	-0.009	0.080
-426.588	-200.000	-0.004	-0.153
-425.573	668.606	0.143	0.370
-424.559	-43.104	0.238	-0.120
-423.544	-200.000	-0.004	-0.081
-422.530	-168.867	-0.152	-0.006
-421.515	133.569	-0.176	-0.228
-420.500	-200.000	0.082	-0.414
-419.486	-200.000	0.012	-0.239
-418.471	111.413	-0.050	-0.060
-417.457	-126.018	-0.426	-0.064
-416.442	-200.000	-0.006	-0.066
-415.428	59.137	0.221	0.217
-414.413	-200.000	-0.011	0.131
-413.398	-82.248	-0.196	-0.064
-412.384	109.981	0.271	0.325
-411.369	61.419	0.285	0.283
-410.355	-74.314	-0.182	0.066
-409.340	800.000	0.037	0.145
-408.325	448.178	0.065	0.142
-407.311	800.000	-0.080	-0.253
-406.296	118.435	-0.124	0.152
-405.282	-172.911	0.136	-0.004
-404.267	52.564	-0.068	0.065
-403.252	-105.309	0.095	0.022
-402.238	-114.935	-0.150	-0.028
-401.223	-200.000	0.014	0.320
-400.209	86.910	-0.055	0.060
-399.194	-23.128	-0.144	-0.086
-398.179	-58.035	0.100	0.044
-397.165	-200.000	0.001	0.531
-396.150	-69.445	0.232	0.089
-395.136	417.369	0.022	0.048
-394.121	218.510	-0.036	-0.057
-393.106	179.800	0.070	-0.102
-392.092	800.000	-0.109	0.421
-391.077	-62.524	0.024	-0.010
-390.063	-83.104	0.248	-0.080
-389.048	525.252	-0.070	-0.164
-388.033	117.214	0.127	0.156
-387.019	-106.743	-0.081	-0.018
-386.004	-200.000	-0.003	-0.347
-384.990	5.594	0.199	0.147
-383.975	114.547	0.064	0.078
-382.960	-11.904	0.093	0.061
-381.946	800.000	-0.060	-0.233
-380.931	185.737	-0.099	0.147
-379.917	58.251	-0.227	-0.222
-378.902	-89.652	0.225	0.066
-377.888	-95.754	-0.570	0.152
-376.873	-25.786	-0.183	0.108
-375.858	194.221	-0.343	0.519
-374.844	310.146	-0.018	0.033
-373.829	-3.405	0.179	-0.125
-372.815	32.361	0.084	0.072
-371.800	-151.692	-0.161	-0.012
-370.785	-52.674	0.254	-0.117
-369.771	-200.000	-0.027	-0.205
-368.756	128.256	0.087	-0.110
-367.742	-119.454	-0.084	-0.014
-366.727	-59.339	0.133	0.057
-365.712	-186.544	-0.078	0.001
-364.698	257.190	0.039	-0.067
-363.683	455.500	0.163	0.361
-362.669	-64.402	0.239	0.097
-361.654	-55.475	-0.167	0.075
-360.639	-200.000	-0.008	0.128
-359.625	136.916	0.145	0.189
-358.610	-18.853	0.108	0.067
-357.596	245.709	0.030	0.051
-356.581	-125.703	0.274	0.041
-355.566	-88.736	0.173	0.051
-354.552	287.431	0.119	-0.215
-353.537	63.965	-0.062	-0.062
-352.523	51.215	0.269	-0.254
-351.508	28.133	-0.278	0.234
-350.493	-139.814	-0.451	-0.048
-349.479	-147.210	-0.065	0.006
-348.464	117.989	0.303	0.372
-347.450	-200.000	-0.409	0.001
-346.435	-200.000	0.031	-0.207
-345.420	-96.946	-0.118	0.031
-344.406	317.968	0.071	-0.134
-343.391	-82.271	0.253	0.082
-342.377	-68.278	-0.085	-0.033
-341.362	-68.960	0.346	-0.133
-340.348	106.695	0.294	-0.348
-339.333	-114.164	0.363	0.070
-338.318	-9.309	-0.251	0.167
-337.304	-20.035	0.229	0.141
-336.289	730.539	-0.134	0.358
-335.275	-130.169	-0.155	0.021
-334.260	-200.000	-0.032	-0.289
-333.245	-161.985	0.211	-0.011
-332.231	-33.578	0.202	0.111
-331.216	-145.251	0.198	0.018
-330.202	-73.102	-0.088	0.032
-329.187	-4.184	0.143	-0.098
-328.172	62.846	-0.264	-0.263
-327.158	800.000	0.027	-0.112
-326.143	-200.000	-0.040	-0.276
-325.129	-96.336	0.230	-0.061
-324.114	-10.468	-0.399	0.263
-323.099	-127.997	0.093	0.013
-322.085	-173.759	0.217	-0.006
-321.070	67.944	-0.087	0.089
-320.056	-200.000	0.044	0.240
-319.041	800.000	-0.046	-0.139
-318.026	-200.000	0.083	0.483
-317.012	-8.992	0.191	0.127
-315.997	-200.000	-0.019	0.135
-314.983	98.385	0.076	-0.087
-313.968	-200.000	0.026	-0.227
-312.953	212.569	-0.179	0.280
-311.939	-52.326	0.370	-0.171
-310.924	569.771	0.108	-0.263
-309.910	-16.581	0.138	-0.087
-308.895	-200.000	-0.002	0.028
-307.880	68.191	-0.094	-0.096
-306.866	-200.000	-0.093	-0.000
-305.851	-43.490	0.129	0.065
-304.837	800.000	-0.037	-0.151
-303.822	-200.000	0.005	-0.197
-302.807	261.799	0.109	0.188
-301.793	-11.223	0.179	-0.117
-300.778	-143.985	0.322	-0.030
-299.764	64.157	0.207	0.208
-298.749	268.525	-0.117	-0.204
-297.735	-200.000	0.020	-0.163
-296.720	122.889	-0.096	-0.119
-295.705	39.521	0.091	-0.081
-294.691	-200.000	0.019	0.179
-293.676	-17.423	-0.180	-0.113
-292.662	66.360	-0.097	0.098
-291.647	63.660	0.147	0.146
-290.632	187.524	-0.134	-0.198
-289.618	-200.000	0.008	-0.055
-288.603	39.226	-0.196	-0.174
-287.589	147.607	-0.188	0.252
-286.574	800.000	-0.037	0.117
-285.559	-200.000	0.004	0.017
-284.545	-139.030	0.050	-0.005
-283.530	335.167	0.161	0.310
-282.516	-153.804	0.219	0.015
-281.501	793.072	-0.089	0.244
-280.486	-145.495	0.290	-0.026
-279.472	5.611	0.178	-0.131
-278.457	-80.338	-0.275	0.091
-277.443	-147.266	-0.096	0.008
-276.428	-101.507	0.356	-0.086
-275.413	800.000	-0.066	0.257
-274.399	-82.527	0.054	-0.017
-273.384	-200.000	-0.015	-0.398
-272.370	15.972	0.092	-0.072
-271.355	11.931	0.193	0.147
-270.340	800.000	-0.116	0.377
-269.326	-73.132	0.428	0.156
-268.311	-47.747	0.201	-0.097
-267.297	488.283	-0.109	-0.246
-266.282	177.325	0.151	-0.218
-265.267	-59.731	-0.312	-0.133
-264.253	55.198	0.192	0.185
-263.238	-143.286	-0.117	-0.011
-262.224	800.000	0.057	-0.214
-261.209	-146.964	-0.304	0.026
-260.195	80.334	-0.233	0.249
-259.180	800.000	0.068	0.226
-258.165	800.000	0.029	0.126
-257.151	-33.582	0.203	-0.112
-256.136	-53.290	-0.253	-0.115
-255.122	608.781	-0.070	-0.173
-254.107	31.683	0.065	-0.056
-253.092	-195.100	0.263	-0.002
-252.078	-43.202	0.222	-0.112
-251.063	-32.818	0.031	-0.017
-250.049	-86.651	0.370	0.113
-249.034	-200.000	-0.020	0.263
-248.019	6.524	0.146	-0.107
-247.005	-130.704	0.434	0.058
-245.990	-200.000	0.056	0.328
-244.976	197.377	-0.321	0.486
-243.961	-200.000	0.068	0.318
-242.946	74.057	-0.114	-0.119
-241.932	521.129	0.044	-0.101
-240.917	800.000	0.105	-0.358
-239.903	2.246	0.153	0.109
-238.888	177.101	0.092	-0.133
-237.873	240.442	0.125	0.207
-236.859	755.153	0.128	-0.345
-235.844	-41.991	-0.146	0.074
-234.830	800.000	0.080	0.338
-233.815	-124.204	0.310	-0.048
-232.800	-200.000	-0.002	0.206
-231.786	187.180	-0.032	0.047
-230.771	-147.293	0.110	0.009
-229.757	448.724	-0.144	0.314
-228.742	-58.691	0.144	0.062
-227.727	362.103	0.041	0.083
-226.713	-200.000	-0.004	0.086
-225.698	-8.417	-0.159	0.106
-224.684	-119.536	-0.197	0.034
-223.669	-200.000	0.028	0.359
-222.655	96.572	-0.218	0.248
-221.640	14.066	0.035	-0.027
-220.625	-200.000	0.012	0.114
-219.611	219.068	0.082	0.131
-218.596	146.136	-0.096	0.128
-217.582	-138.176	0.079	-0.009
-216.567	227.880	-0.064	0.104
-215.552	65.166	0.179	0.179
-214.538	-100.797	-0.340	0.083
-213.523	239.809	-0.104	-0.171
-212.509	-32.210	0.112	0.062
-211.494	-134.439	-0.199	0.024
-210.479	-96.333	-0.265	0.070
-209.465	-93.757	-0.234	-0.064
-208.450	286.227	0.049	0.088
-207.436	-91.447	-0.175	-0.050
-206.421	-200.000	0.012	-0.070
-205.406	35.521	0.124	-0.108
-204.392	-11.812	-0.127	0.082
-203.377	136.884	0.154	0.200
-202.363	800.000	0.066	0.198
-201.348	-49.503	-0.171	0.081
-200.333	691.554	-0.073	0.190
-199.319	-130.036	-0.044	-0.006
-198.304	50.326	0.143	0.134
-197.290	9.981	0.073	0.055
-196.275	-31.349	-0.102	0.057
-195.260	250.477	0.102	-0.172
-194.246	123.422	0.090	-0.112
-193.231	-60.405	0.182	-0.077
-192.217	-75.319	0.326	-0.115
-191.202	-34.909	-0.381	-0.206
-190.187	-200.000	0.067	-0.299
-189.173	208.097	-0.083	-0.128
-188.158	-82.395	-0.376	0.121
-187.144	-92.491	-0.264	0.074
-186.129	-138.387	0.415	0.045
-185.114	-200.000	0.054	-0.312
-184.100	210.998	0.163	0.254
-183.085	20.127	-0.196	-0.157
-182.071	-91.056	0.101	-0.029
-181.056	61.559	-0.192	-0.189
-180.042	-57.906	-0.233	-0.101
-179.027	800.000	-0.064	0.199
-178.012	800.000	0.092	0.255
-176.998	-51.594	-0.079	-0.036
-175.983	-10.104	0.015	0.010
-174.969	350.364	0.159	-0.311
-173.954	42.320	-0.111	0.100
-172.939	800.000	0.064	0.195
-171.925	-116.462	0.202	-0.037
-170.910	-43.238	-0.110	-0.055
-169.896	-6.856	-0.170	-0.115
-168.881	64.464	0.116	-0.116
-167.866	119.505	-0.007	0.008
-166.852	608.723	-0.115	-0.285
-165.837	-38.645	-0.479	0.250
-164.823	112.862	0.111	0.133
-163.808	-144.039	-0.202	0.019
-162.793	97.046	0.033	0.037
-161.779	53.636	0.113	0.107
-160.764	64.160	-0.069	-0.069
-159.750	212.543	-0.143	0.224
-158.735	-9.097	0.171	0.113
-157.720	514.626	0.013	-0.031
-156.706	-2.779	0.131	-0.091
-155.691	-200.000	-0.009	-0.257
-154.677	681.031	0.109	-0.281
-153.662	23.618	-0.112	0.092
-152.647	-16.782	0.109	-0.068
-151.633	5.480	-0.281	0.205
-150.618	-200.000	0.024	0.126
-149.604	11.940	-0.323	0.246
-148.589	-40.203	-0.185	0.095
-147.574	-144.319	-0.125	-0.011
-146.560	30.437	0.147	-0.124
-145.545	-67.080	0.133	-0.052
-144.531	-200.000	-0.052	-0.392
-143.516	-20.513	0.117	0.071
-142.502	52.833	-0.322	-0.304
-141.487	800.000	-0.061	-0.176
-140.472	800.000	-0.107	-0.366
-139.458	155.862	0.136	0.185
-138.443	-200.000	-0.022	0.116
-137.429	-73.657	-0.438	-0.158
-136.414	-200.000	-0.016	-0.148
-135.399	-64.622	-0.177	-0.071
-134.385	144.042	-0.115	-0.151
-133.370	-200.000	-0.033	0.171
-132.356	-200.000	0.011	0.282
-131.341	132.978	0.174	0.222
-130.326	90.689	0.229	0.254
-129.312	-22.180	-0.397	-0.238
-128.297	10.628	-0.184	-0.138
-127.283	634.692	-0.134	-0.335
-126.268	48.415	0.118	0.109
-125.253	-200.000	-0.063	0.364
-124.239	-74.662	0.108	-0.038
-123.224	766.615	-0.026	-0.069
-122.210	221.701	-0.146	0.231
-121.195	-55.744	0.174	0.077
-120.180	-15.591	0.074	-0.047
-119.166	800.000	-0.040	0.130
-118.151	0.808	0.137	0.097
-117.137	800.000	0.056	0.158
-116.122	83.860	0.065	-0.070
-115.107	688.760	0.112	0.288
-114.093	0.444	-0.224	-0.158
-113.078	190.357	0.187	0.278
-112.064	-102.669	0.031	0.007
-111.049	-156.899	-0.185	0.011
-110.034	3.365	0.070	0.050
-109.020	-177.106	0.377	0.009
-108.005	727.680	-0.093	-0.245
-106.991	91.140	-0.102	-0.113
-105.976	-50.121	-0.130	0.061
-104.962	295.605	-0.174	0.315
-103.947	631.776	0.065	0.161
-102.932	758.165	0.118	0.316
-101.918	204.108	-0.086	0.132
-100.903	147.654	0.234	-0.311
-99.889	774.685	-0.054	-0.145
-98.874	-139.251	-0.318	0.034
-97.859	41.986	-0.149	-0.134
-96.845	800.000	0.073	0.200
-95.830	137.647	0.109	0.140
-94.816	800.000	0.076	-0.219
-93.801	54.004	0.157	-0.149
-92.786	-141.092	0.453	0.046
-91.772	79.594	-0.108	0.114
-90.757	163.271	-0.112	-0.156
-89.743	-200.000	0.026	0.345
-88.728	-200.000	0.026	0.395
-87.713	368.206	-0.011	-0.022
-86.699	246.883	-0.032	-0.052
-85.684	-200.000	-0.101	-0.457
-84.670	295.591	-0.137	0.248
-83.655	-56.683	0.074	0.032
-82.640	-68.215	-0.168	0.065
-81.626	25.106	0.173	-0.142
-80.611	193.702	-0.070	0.104
-79.597	800.000	-0.027	-0.079
-78.582	-200.000	-0.023	-0.238
-77.567	-105.961	-0.288	-0.064
-76.553	-200.000	-0.037	-0.331
-75.538	-141.860	-0.356	-0.035
-74.524	-115.306	0.082	0.015
-73.509	104.182	0.366	-0.425
-72.494	741.394	0.088	-0.234
-71.480	287.646	0.061	0.108
-70.465	-200.000	0.030	0.250
-69.451	241.717	-0.099	0.164
-68.436	478.818	-0.130	0.290
-67.422	-48.393	0.206	-0.098
-66.407	-80.375	-0.310	0.102
-65.392	-24.854	0.014	-0.008
-64.378	-200.000	-0.075	0.343
-63.363	-105.669	0.180	0.040
-62.349	11.707	0.135	0.102
-61.334	50.136	-0.872	-0.811
-60.319	-44.638	0.533	0.262
-59.305	525.895	-0.454	-1.054
-58.290	338.596	0.625	1.200
-57.276	800.000	0.338	1.348
-56.261	-200.000	94.812	540.565
-55.246	477.505	1439.566	3209.668
-54.232	147.218	2642.328	3504.529
-53.217	108.978	2215.173	2610.539
-52.203	44.233	1653.161	1494.774
-51.188	36.201	1383.533	1201.163
-50.173	33.020	1340.358	1144.404
-49.159	54.181	1385.665	1313.716
-48.144	56.388	1402.997	1343.668
-47.130	36.410	1361.991	1183.555
-46.115	33.019	1344.171	1147.466
-45.100	32.809	1339.435	1142.110
-44.086	32.629	1337.472	1139.299
-43.071	32.704	1335.153	1137.736
-42.057	32.573	1333.775	1135.727
-41.042	32.714	1331.464	1134.559
-40.027	32.732	1329.852	1133.247
-39.013	32.749	1327.746	1131.511
-37.998	32.658	1326.046	1129.473
-36.984	32.742	1324.703	1128.787
-35.969	32.780	1322.518	1127.108
-34.954	32.847	1321.027	1126.190
-33.940	32.927	1319.211	1125.078
-32.925	32.848	1318.085	1123.602
-31.911	32.933	1316.278	1122.521
-30.896	32.888	1315.144	1121.244
-29.881	32.924	1313.466	1119.979
-28.867	32.943	1312.201	1118.973
-27.852	32.938	1310.465	1117.418
-26.838	32.909	1309.394	1116.288
-25.823	33.006	1307.766	1115.427
-24.809	32.897	1306.448	1113.617
-23.794	32.822	1305.075	1111.957
-22.779	32.872	1303.571	1110.926
-21.765	32.797	1302.739	1109.735
-20.750	32.862	1301.589	1109.094
-19.736	32.762	1300.740	1107.736
-18.721	32.691	1299.465	1106.190
-17.706	32.687	1297.828	1104.729
-16.692	32.695	1296.746	1103.812
-15.677	32.763	1295.325	1102.957
-14.663	32.623	1294.914	1101.746
-13.648	32.703	1293.725	1101.155
-12.633	32.716	1292.471	1100.123
-11.619	32.678	1291.877	1099.350
-10.604	32.706	1290.437	1098.246
-9.590	32.625	1289.748	1097.143
-8.575	32.730	1288.422	1096.585
-7.560	32.664	1288.231	1095.994
-6.546	32.768	1286.910	1095.427
-5.531	32.636	1286.544	1094.306
-4.517	32.745	1285.074	1093.648
-3.502	32.711	1284.585	1092.989
-2.487	32.661	1283.690	1091.896
-1.473	32.791	1279.666	1089.180
-0.458	32.002	1265.580	1072.640
0.556	27.523	1248.208	1036.439
1.571	23.715	1253.470	1018.917
2.586	22.170	1268.067	1021.714
3.600	21.144	1255.919	1005.924
4.615	15.455	1179.844	914.019
5.629	5.704	1100.055	802.408
6.644	0.889	1078.321	762.278
7.659	0.513	1076.159	758.790
8.673	0.346	1075.437	757.374
9.688	0.384	1073.566	756.180
10.702	0.660	1071.870	756.303
11.717	6.142	1079.654	789.311
12.731	14.706	1091.094	840.898
13.746	17.636	1093.867	857.731
14.761	17.078	1092.929	854.114
15.775	16.348	1090.769	848.683
16.790	15.280	1088.888	841.784
17.804	14.714	1086.892	837.327
18.819	14.238	1085.711	833.960
19.834	13.990	1084.772	831.924
20.848	13.542	1084.222	829.185
21.863	13.414	1082.901	827.460
22.877	13.367	1082.229	826.639
23.892	13.361	1081.437	825.931
24.907	13.167	1081.123	824.651
25.921	13.229	1080.721	824.582
26.936	13.396	1079.181	824.164
27.950	13.324	1078.691	823.358
28.965	13.381	1077.214	822.444
29.980	13.365	1075.824	821.229
30.994	13.495	1074.351	820.677
32.009	13.540	1073.509	820.185
33.023	13.396	1072.846	818.894
34.038	13.460	1071.915	818.426
35.053	13.445	1071.028	817.599
36.067	13.438	1070.210	816.868
37.082	13.480	1069.153	816.198
38.096	13.532	1068.568	815.937
39.111	13.496	1067.438	814.824
40.126	13.287	1066.440	812.964
41.140	13.261	1065.150	811.778
42.155	13.313	1064.120	811.176
43.169	13.315	1063.079	810.320
44.184	13.194	1061.802	808.685
45.199	13.343	1060.958	808.698
46.213	13.379	1059.779	807.905
47.228	13.305	1058.790	806.719
48.242	13.413	1057.446	806.150
49.257	13.455	1056.741	805.745
50.271	13.292	1056.201	804.468
51.286	13.460	1055.106	804.380
52.301	13.440	1053.789	803.206
53.315	13.414	1053.157	802.530
54.330	13.322	1051.877	801.036
55.344	13.399	1050.955	800.638
56.359	13.227	1050.624	799.483
57.374	13.341	1049.416	799.042
58.388	13.353	1048.758	798.530
59.403	13.331	1047.753	797.585
60.417	13.271	1046.956	796.619
61.432	13.314	1046.129	796.128
62.447	13.170	1045.778	795.095
63.461	13.244	1044.584	794.474
64.476	13.178	1043.911	793.576
65.490	13.278	1042.856	793.185
66.505	13.192	1042.799	792.658
67.520	13.246	1041.771	792.066
68.534	13.278	1040.883	791.474
69.549	13.245	1040.069	790.626
70.563	13.273	1039.281	790.088
71.578	13.350	1038.330	789.665
72.593	13.096	1038.303	788.362
73.607	13.259	1037.331	788.329
74.622	13.185	1036.707	787.434
75.636	13.096	1036.184	786.543
76.651	13.133	1035.386	786.045
77.666	13.250	1034.708	786.017
78.680	13.289	1033.856	785.488
79.695	13.233	1033.392	784.799
80.709	13.210	1032.631	784.039
81.724	13.357	1031.846	784.074
82.739	13.331	1031.694	783.766
83.753	13.396	1030.677	783.230
84.768	13.538	1029.222	782.725
85.782	13.610	1028.765	782.651
86.797	13.463	1027.894	781.222
87.812	13.376	1026.713	779.845
88.826	13.344	1025.884	778.999
89.841	13.505	1024.791	778.859
90.855	13.434	1024.064	777.902
91.870	13.543	1023.253	777.727
92.884	13.481	1022.840	777.053
93.899	13.500	1022.048	776.475
94.914	13.649	1020.670	776.057
95.928	13.548	1019.698	774.775
96.943	13.464	1018.928	773.731
97.957	13.432	1018.092	772.877
98.972	13.359	1017.590	772.087
99.987	13.535	1016.617	772.098
101.001	13.462	1015.286	770.682
102.016	13.451	1014.534	769.993
103.030	13.561	1013.780	769.861
104.045	13.491	1013.237	769.056
105.060	13.475	1012.509	768.359
106.074	13.526	1011.446	767.722
107.089	13.289	1010.769	766.042
108.103	13.373	1010.110	765.865
109.118	13.379	1008.350	764.488
110.133	13.303	1008.140	763.911
111.147	13.399	1006.896	763.346
112.162	13.467	1006.254	763.103
113.176	13.506	1005.662	762.768
114.191	13.482	1004.554	761.751
115.206	13.462	1003.817	761.031
116.220	13.456	1003.235	760.493
117.235	13.482	1002.138	759.717
118.249	13.422	1001.319	758.750
119.264	13.504	1000.952	758.784
120.279	13.393	1000.140	757.594
121.293	13.396	999.183	756.812
122.308	13.503	997.993	756.336
123.322	13.458	997.082	755.372
124.337	13.452	996.031	754.481
125.352	13.454	995.220	753.809
126.366	13.429	993.816	752.567
127.381	13.556	992.957	752.426
128.395	13.425	992.061	751.085
129.410	13.475	990.922	750.383
130.424	13.508	990.329	750.016
131.439	13.586	989.414	749.609
132.454	13.457	989.361	748.919
133.468	13.511	987.627	747.784
134.483	13.505	987.090	747.285
135.497	13.578	986.059	746.766
136.512	13.634	985.267	746.357
137.527	13.517	984.177	744.935
138.541	13.638	983.687	745.044
139.556	13.622	983.121	744.479
140.570	13.583	982.298	743.613
141.585	13.691	980.895	742.970
142.600	13.690	980.369	742.502
143.614	13.793	979.371	742.139
144.629	13.673	979.094	741.327
145.643	13.508	978.101	739.772
146.658	13.667	976.799	739.435
147.673	13.597	975.935	738.403
148.687	13.591	974.905	737.531
149.702	13.471	974.646	736.736
150.716	13.462	973.732	735.941
151.731	13.569	972.726	735.589
152.746	13.629	972.174	735.374
153.760	13.667	971.388	734.879
154.775	13.674	970.748	734.365
155.789	13.756	969.979	734.078
156.804	13.801	969.579	733.912
157.819	13.691	969.009	732.927
158.833	13.752	968.114	732.455
159.848	13.725	967.101	731.504
160.862	13.579	966.693	730.485
161.877	13.767	964.915	729.908
162.892	13.658	964.167	728.798
163.906	13.739	963.208	728.363
164.921	13.712	962.757	727.841
165.935	13.904	961.298	727.512
166.950	13.704	960.858	726.240
167.964	13.735	959.772	725.491
168.979	13.647	959.165	724.584
169.994	13.750	957.945	724.048
171.008	13.793	957.115	723.543
172.023	13.944	956.186	723.436
173.037	13.916	955.879	723.017
174.052	13.828	955.348	722.166
175.067	13.800	954.234	721.139
176.081	13.795	953.772	720.707
177.096	13.735	953.691	720.320
178.110	13.808	952.867	719.949
179.125	13.838	952.465	719.714
180.140	14.018	951.389	719.614
181.154	13.939	950.861	718.811
182.169	13.935	950.615	718.546
183.183	14.007	949.643	718.058
184.198	14.020	949.213	717.725
185.213	14.064	948.190	717.076
186.227	13.996	947.714	716.359
187.242	14.154	947.091	716.507
188.256	13.964	946.740	715.359
189.271	14.004	945.771	714.737
190.286	14.104	944.922	714.462
191.300	13.989	944.204	713.363
192.315	13.876	943.590	712.349
193.329	13.818	943.199	711.742
194.344	13.986	942.456	711.839
195.359	14.064	941.773	711.594
196.373	14.052	941.265	711.097
197.388	14.129	940.915	711.096
198.402	14.232	940.117	710.873
199.417	14.350	939.343	710.726
200.432	14.372	938.823	710.366
201.446	14.411	938.139	709.950
202.461	14.329	937.762	709.255
203.475	14.226	937.252	708.365
204.490	14.223	936.566	707.774
205.504	14.231	935.853	707.206
206.519	14.281	934.846	706.593
207.534	14.225	934.191	705.800
208.548	14.252	933.894	705.625
209.563	14.362	932.755	705.171
210.577	14.343	932.202	704.608
211.592	14.608	931.305	704.988
212.607	14.561	930.555	704.158
213.621	14.567	929.799	703.551
214.636	14.432	929.378	702.600
215.650	14.479	928.556	702.114
216.665	14.457	927.788	701.380
217.680	14.571	926.951	701.163
218.694	14.456	926.717	700.440
219.709	14.479	925.889	699.847
220.723	14.625	925.163	699.853
221.738	14.616	924.346	699.134
222.753	14.677	923.635	698.790
223.767	14.733	922.992	698.475
224.782	14.709	922.833	698.192
225.796	14.631	922.155	697.294
226.811	14.667	921.561	696.932
227.826	14.565	920.640	695.746
228.840	14.570	919.875	695.130
229.855	14.681	918.677	694.624
230.869	14.624	918.199	693.962
231.884	14.603	917.884	693.576
232.899	14.556	916.841	692.531
233.913	14.638	916.178	692.311
234.928	14.621	915.511	691.673
235.942	14.530	915.417	691.168
236.957	14.625	914.799	691.030
237.972	14.700	913.829	690.548
238.986	14.678	913.161	689.891
240.001	14.773	912.419	689.662
241.015	14.808	911.854	689.317
242.030	14.690	911.359	688.398
243.045	14.829	910.462	688.229
244.059	14.876	910.049	688.050
245.074	14.850	909.570	687.518
246.088	14.840	908.690	686.752
247.103	14.719	908.253	685.866
248.117	14.897	907.524	685.984
249.132	14.992	906.818	685.779
250.147	14.966	906.601	685.449
251.161	14.980	905.586	684.679
252.176	15.008	905.023	684.305
253.190	15.082	904.229	683.949
254.205	15.161	903.432	683.606
255.220	15.135	902.934	683.064
256.234	15.042	902.580	682.357
257.249	15.072	901.932	681.928
258.263	15.092	901.167	681.372
259.278	15.203	900.126	680.976
260.293	15.252	899.172	680.391
261.307	15.233	898.699	679.894
262.322	15.247	898.292	679.583
263.336	15.329	897.624	679.350
264.351	15.325	897.018	678.817
265.366	15.294	896.257	678.054
266.380	15.281	895.893	677.665
267.395	15.437	894.618	677.271
268.409	15.451	894.071	676.855
269.424	15.436	893.000	675.923
270.439	15.392	892.803	675.539
271.453	15.350	892.127	674.798
272.468	15.306	891.974	674.444
273.482	15.317	891.142	673.799
274.497	15.344	890.768	673.567
275.512	15.494	889.969	673.502
276.526	15.349	889.588	672.576
277.541	15.392	889.004	672.246
278.555	15.358	888.411	671.602
279.570	15.502	887.486	671.418
280.585	15.584	886.764	671.140
281.599	15.524	886.143	670.374
282.614	15.704	885.165	670.290
283.628	15.635	884.709	669.611
284.643	15.625	884.013	668.985
285.657	15.598	883.326	668.298
286.672	15.507	883.206	667.789
287.687	15.580	882.295	667.331
288.701	15.569	881.652	666.739
289.716	15.566	881.005	666.181
290.730	15.587	880.154	665.562
291.745	15.801	879.669	665.984
292.760	15.705	879.397	665.338
293.774	15.750	878.650	664.893
294.789	15.840	877.637	664.424
295.803	15.847	877.106	663.988
296.818	15.627	876.637	662.707
297.833	15.592	876.484	662.394
298.847	15.727	875.395	662.044
299.862	15.782	874.828	661.774
300.876	15.934	874.388	661.978
301.891	15.877	873.518	661.039
302.906	15.967	873.070	660.996
303.920	15.862	872.588	660.160
304.935	15.969	872.043	660.109
305.949	15.921	871.348	659.337
306.964	15.804	871.112	658.639
307.979	15.856	870.408	658.253
308.993	16.081	869.521	658.403
310.008	16.132	868.862	658.046
311.022	16.045	868.224	657.164
312.037	15.985	867.748	656.513
313.052	16.030	866.927	656.010
314.066	16.018	866.573	655.635
315.081	15.926	866.060	654.833
316.095	15.928	865.444	654.315
317.110	16.012	865.178	654.384
318.125	16.030	864.565	653.930
319.139	16.017	863.886	653.308
320.154	15.993	863.488	652.856
321.168	16.032	863.290	652.801
322.183	16.231	862.388	652.830
323.197	16.103	861.666	651.731
324.212	16.151	861.224	651.527
325.227	16.207	860.370	651.040
326.241	16.171	860.237	650.740
327.256	16.264	859.314	650.342
328.270	16.086	859.037	649.392
329.285	16.132	858.381	649.014
330.300	16.243	857.689	648.860
331.314	16.078	857.380	647.937
332.329	16.156	856.990	647.882
333.343	16.230	856.627	647.834
334.358	16.231	855.871	647.210
335.373	16.307	855.775	647.370
336.387	16.386	854.944	646.989
337.402	16.313	854.883	646.606
338.416	16.166	855.075	646.130
339.431	16.423	854.090	646.310
340.446	16.475	853.762	646.203
341.460	16.419	853.337	645.614
342.475	16.401	853.350	645.497
343.489	16.374	852.585	644.755
344.504	16.505	852.042	644.789
345.519	16.602	851.046	644.348
346.533	16.617	850.949	644.274
347.548	16.435	850.518	643.198
348.562	16.444	850.040	642.814
349.577	16.503	849.183	642.334
350.592	16.545	848.642	642.026
351.606	16.481	848.241	641.424
352.621	16.511	847.445	640.877
353.635	16.567	846.545	640.355
354.650	16.641	845.762	639.985
355.665	16.648	845.488	639.747
356.679	16.588	844.697	638.866
357.694	16.673	843.877	638.509
358.708	16.607	843.608	638.000
359.723	16.805	842.953	638.195
360.738	16.776	842.300	637.533
361.752	16.655	841.657	636.536
362.767	16.796	841.138	636.616
363.781	16.797	840.555	636.122
364.796	16.948	839.901	636.140
365.810	16.793	839.913	635.511
366.825	16.916	839.265	635.424
367.840	16.945	838.855	635.166
368.854	16.922	838.386	634.668
369.869	16.885	837.777	634.014
370.883	16.801	837.570	633.487
371.898	17.074	836.873	633.922
372.913	17.086	836.588	633.697
373.927	16.980	836.374	633.080
374.942	16.961	835.820	632.535
375.956	17.037	835.460	632.490
376.971	17.204	834.641	632.435
377.986	17.088	834.496	631.840
379.000	17.167	833.925	631.646
380.015	17.087	833.684	631.108
381.029	17.066	833.109	630.540
382.044	17.220	832.125	630.310
383.059	17.089	831.835	629.551
384.073	17.180	831.052	629.239
385.088	17.290	830.256	628.986
386.102	17.274	829.646	628.410
387.117	17.123	829.503	627.686
388.132	17.288	828.918	627.798
389.146	17.185	828.477	627.029
390.161	17.352	827.877	627.135
391.175	17.113	827.546	625.947
392.190	17.262	826.795	625.872
393.205	17.114	826.425	624.994
394.219	17.208	825.950	624.926
395.234	17.423	825.202	625.094
396.248	17.280	825.197	624.508
397.263	17.191	824.602	623.676
398.278	17.340	824.111	623.795
399.292	17.289	823.668	623.220
400.307	17.201	823.609	622.797
401.321	17.176	823.045	622.222
402.336	17.168	822.525	621.748
403.350	17.477	822.093	622.494
404.365	17.392	821.591	621.749
405.380	17.382	821.050	621.248
406.394	17.438	820.358	620.874
407.409	17.490	820.303	620.967
408.423	17.692	819.439	620.992
409.438	17.591	819.198	620.388
410.453	17.493	819.008	619.834
411.467	17.619	818.452	619.817
412.482	17.659	817.697	619.334
413.496	17.731	817.501	619.393
414.511	17.712	816.915	618.826
415.526	17.802	816.441	618.739
416.540	17.793	816.069	618.368
417.555	17.873	815.684	618.311
418.569	17.684	815.743	617.617
419.584	17.772	814.784	617.155
420.599	17.827	814.383	616.995
421.613	106.781	1289.752	1456.549
422.628	92.197	1359.001	1456.658
