DTS Sentinel unit serial number:	SN413079Multiplexer serial number:	ORYXHardware model number:	OX4-SRSoftware version number:	ORYX F/W v4.00 Oryx Data Collector v3.7.2.0data status	okinstallation	princeton_trtdifferential loss correction	single-endedforward channel	channel 1reverse channel	N/Adate	2019/09/14time	01:14:35forward acquisition time	60.00reverse acquisition time	0.00gamma	496.2192k internal	0.2336k external	0.2336temperature offset calibration	1.0080default loss term (dB/km)	0.3790temperature slope calibration	1.0000multiplexer offset coefficient	1.0000multiplexer slope coefficient	1.0000fibre end	0.00T internal ref (°C)	26.37T ext. ref 1 (°C)	3.18T ext. ref 2 (°C)	21.37length (m)	temperature (°C)	Stokes	anti-Stokes-747.200	-113.818	0.232	0.045
-746.185	-91.090	-0.281	-0.081
-745.171	-39.064	0.193	-0.102
-744.156	652.425	-0.127	0.327
-743.142	11.706	-0.114	-0.088
-742.127	80.668	0.012	-0.012
-741.112	25.338	0.297	-0.248
-740.098	-38.590	0.182	0.096
-739.083	800.000	-0.077	-0.318
-738.069	-89.345	-0.397	0.117
-737.054	-200.000	-0.033	0.162
-736.039	-94.241	-0.162	0.045
-735.025	-200.000	0.006	0.094
-734.010	-111.129	-0.096	-0.020
-732.996	-165.664	-0.256	-0.011
-731.981	-66.121	-0.233	-0.093
-730.966	667.347	0.101	-0.262
-729.952	207.951	-0.079	0.123
-728.937	516.362	-0.040	0.095
-727.923	216.942	-0.233	-0.373
-726.908	-97.121	-0.035	-0.009
-725.894	-152.844	-0.219	0.016
-724.879	-200.000	0.005	-0.141
-723.864	-0.797	-0.230	0.164
-722.850	2.978	0.067	0.049
-721.835	800.000	-0.086	0.255
-720.821	82.637	-0.092	0.100
-719.806	144.760	-0.100	-0.133
-718.791	-200.000	0.005	-0.025
-717.777	-200.000	0.055	-0.355
-716.762	800.000	0.062	-0.268
-715.748	800.000	-0.060	-0.179
-714.733	800.000	0.086	-0.291
-713.718	800.000	-0.058	-0.247
-712.704	-105.332	-0.309	-0.071
-711.689	104.401	-0.142	0.167
-710.675	-4.678	0.206	-0.142
-709.660	-200.000	-0.061	-0.438
-708.645	800.000	-0.122	0.382
-707.631	145.054	-0.163	0.219
-706.616	-200.000	-0.008	-0.401
-705.602	-11.753	-0.258	-0.170
-704.587	-103.813	0.332	0.078
-703.572	800.000	0.118	-0.390
-702.558	-105.986	0.125	0.028
-701.543	-142.639	-0.213	-0.021
-700.529	-87.510	-0.501	-0.152
-699.514	282.277	-0.164	0.294
-698.499	-51.056	0.154	-0.072
-697.485	-48.942	0.044	-0.021
-696.470	320.546	0.118	-0.224
-695.456	0.094	-0.176	0.126
-694.441	-148.541	0.258	-0.021
-693.426	-158.601	0.054	0.003
-692.412	-131.230	0.376	-0.050
-691.397	-50.412	-0.281	0.133
-690.383	316.286	-0.058	-0.109
-689.368	-200.000	0.047	0.212
-688.354	-181.296	-0.150	0.003
-687.339	-200.000	-0.006	-0.046
-686.324	203.515	-0.075	-0.117
-685.310	289.435	0.303	0.551
-684.295	-40.903	-0.401	-0.208
-683.281	-26.132	0.314	-0.185
-682.266	-200.000	-0.036	-0.194
-681.251	-120.538	-0.131	-0.022
-680.237	-39.909	-0.096	0.050
-679.222	-73.401	0.064	-0.023
-678.208	-71.480	-0.231	-0.087
-677.193	189.491	-0.139	0.209
-676.178	23.690	0.159	0.131
-675.164	-92.124	0.125	0.035
-674.149	-80.799	-0.423	-0.141
-673.135	-174.984	0.138	-0.004
-672.120	-22.906	0.169	0.102
-671.105	800.000	0.093	0.312
-670.091	285.790	0.123	-0.222
-669.076	546.714	-0.045	-0.109
-668.062	9.648	-0.163	0.124
-667.047	-200.000	0.005	-0.160
-666.032	-22.459	-0.368	-0.223
-665.018	267.271	-0.063	0.110
-664.003	-102.105	-0.048	0.012
-662.989	23.833	0.181	-0.150
-661.974	-101.138	0.230	0.056
-660.959	-81.050	0.114	-0.038
-659.945	-53.924	0.209	-0.095
-658.930	-60.301	-0.296	0.126
-657.916	586.196	-0.039	0.096
-656.901	800.000	0.080	0.316
-655.886	-153.083	-0.258	0.018
-654.872	-76.053	-0.184	-0.065
-653.857	-105.224	-0.121	0.028
-652.843	-59.293	0.201	0.087
-651.828	-95.110	-0.183	-0.049
-650.814	-16.068	-0.159	0.101
-649.799	-74.088	-0.200	-0.072
-648.784	-200.000	0.026	0.290
-647.770	441.552	0.045	-0.099
-646.755	-200.000	0.191	0.001
-645.741	705.397	-0.045	-0.118
-644.726	-125.976	-0.314	0.047
-643.711	130.043	0.027	-0.035
-642.697	-66.068	-0.198	-0.079
-641.682	22.210	0.315	-0.257
-640.668	672.483	-0.118	0.306
-639.653	134.386	-0.055	0.072
-638.638	29.278	-0.159	0.135
-637.624	76.330	0.071	0.075
-636.609	288.131	-0.060	0.109
-635.595	-96.222	0.523	0.139
-634.580	-149.462	-0.135	0.011
-633.565	-124.454	0.126	0.020
-632.551	800.000	0.016	-0.059
-631.536	-200.000	-0.059	-0.279
-630.522	-200.000	0.044	0.336
-629.507	-22.754	-0.210	0.127
-628.492	230.405	-0.077	0.126
-627.478	800.000	0.076	-0.293
-626.463	-119.074	-0.094	-0.016
-625.449	-200.000	0.044	-0.234
-624.434	-52.602	0.117	0.054
-623.419	-105.785	0.167	0.038
-622.405	-11.635	0.262	0.172
-621.390	-23.913	-0.172	0.103
-620.376	-137.899	0.145	-0.016
-619.361	18.705	0.148	-0.118
-618.346	308.736	0.126	-0.235
-617.332	-1.386	-0.047	-0.033
-616.317	5.569	0.127	-0.094
-615.303	-138.843	-0.221	0.024
-614.288	-35.174	-0.092	0.050
-613.273	-79.230	-0.323	-0.109
-612.259	7.366	0.193	0.144
-611.244	482.111	0.086	-0.196
-610.230	-45.754	-0.276	0.136
-609.215	-200.000	-0.037	-0.227
-608.201	-200.000	-0.018	-0.094
-607.186	653.996	-0.128	-0.327
-606.171	-200.000	-0.001	0.216
-605.157	463.790	-0.034	-0.076
-604.142	264.084	0.177	0.307
-603.128	800.000	-0.136	-0.442
-602.113	418.711	0.066	-0.142
-601.098	609.699	0.104	0.258
-600.084	86.632	0.128	0.141
-599.069	-200.000	0.004	-0.421
-598.055	439.677	-0.155	-0.338
-597.040	40.515	0.268	-0.241
-596.025	-113.437	-0.268	-0.052
-595.011	-69.868	-0.226	-0.086
-593.996	16.365	-0.089	-0.070
-592.982	-200.000	0.053	0.353
-591.967	-114.017	0.229	0.044
-590.952	800.000	0.016	-0.049
-589.938	135.832	0.214	-0.278
-588.923	-95.285	-0.113	-0.030
-587.909	800.000	0.038	-0.142
-586.894	369.830	-0.085	-0.172
-585.879	36.123	-0.100	0.088
-584.865	800.000	-0.058	-0.219
-583.850	-200.000	0.020	-0.240
-582.836	-114.210	0.408	-0.079
-581.821	70.924	0.139	0.143
-580.806	-200.000	-0.016	0.317
-579.792	54.989	0.317	0.305
-578.777	800.000	0.093	0.380
-577.763	330.201	-0.093	0.179
-576.748	-73.369	0.217	-0.079
-575.733	-17.777	0.240	-0.150
-574.719	278.509	0.076	0.136
-573.704	97.594	-0.141	0.161
-572.690	81.929	-0.128	-0.139
-571.675	-200.000	-0.027	-0.313
-570.661	-182.932	-0.199	0.004
-569.646	259.796	-0.116	-0.200
-568.631	-167.527	-0.160	-0.006
-567.617	110.283	-0.083	-0.099
-566.602	-200.000	0.013	-0.163
-565.588	-200.000	-0.043	-0.266
-564.573	740.651	0.057	-0.153
-563.558	-200.000	-0.047	-0.385
-562.544	139.548	0.032	-0.042
-561.529	561.532	0.157	-0.380
-560.515	139.489	-0.040	0.052
-559.500	-133.631	-0.417	-0.052
-558.485	-187.868	-0.251	0.003
-557.471	-200.000	-0.037	0.187
-556.456	-112.373	0.268	0.053
-555.442	121.475	-0.195	-0.242
-554.427	-85.632	-0.271	-0.084
-553.412	418.602	-0.029	-0.063
-552.398	-84.427	-0.284	-0.090
-551.383	511.775	0.048	-0.111
-550.369	21.988	0.252	-0.205
-549.354	93.907	0.125	0.141
-548.339	800.000	-0.045	0.152
-547.325	71.861	0.210	-0.218
-546.310	-78.017	0.323	0.111
-545.296	257.968	0.093	0.159
-544.281	-75.725	-0.270	-0.096
-543.266	123.702	-0.228	0.284
-542.252	-45.980	0.083	0.041
-541.237	-98.755	0.338	0.086
-540.223	-125.309	0.235	0.036
-539.208	-200.000	0.027	-0.155
-538.193	-85.882	0.210	-0.065
-537.179	90.309	-0.098	-0.109
-536.164	-200.000	-0.024	0.126
-535.150	-200.000	-0.057	0.272
-534.135	800.000	-0.004	0.013
-533.121	21.526	-0.091	-0.074
-532.106	-37.235	0.188	-0.100
-531.091	-20.445	0.155	-0.095
-530.077	-62.322	0.252	-0.104
-529.062	522.878	0.100	0.233
-528.048	-18.985	0.025	-0.016
-527.033	800.000	-0.027	-0.090
-526.018	41.419	0.145	-0.130
-525.004	-25.829	-0.106	-0.062
-523.989	418.234	-0.117	0.249
-522.975	-67.649	0.291	-0.114
-521.960	-200.000	-0.026	0.255
-520.945	-193.944	-0.215	0.002
-519.931	-186.340	-0.414	-0.006
-518.916	108.481	0.136	0.162
-517.902	-200.000	-0.002	-0.041
-516.887	29.525	0.224	-0.190
-515.872	-69.698	0.079	-0.030
-514.858	413.030	0.052	0.111
-513.843	437.855	0.167	-0.362
-512.829	60.160	-0.152	0.149
-511.814	120.871	-0.108	0.134
-510.799	14.304	-0.310	-0.241
-509.785	-41.907	-0.355	-0.181
-508.770	62.881	-0.121	-0.121
-507.756	665.977	-0.116	-0.299
-506.741	-200.000	-0.001	-0.239
-505.726	-200.000	0.047	-0.234
-504.712	800.000	0.044	-0.134
-503.697	-200.000	0.028	-0.287
-502.683	267.819	-0.194	0.338
-501.668	153.844	0.193	0.263
-500.653	74.814	-0.185	0.193
-499.639	602.415	0.062	-0.154
-498.624	-133.152	0.333	0.042
-497.610	101.854	0.120	0.139
-496.595	-118.886	0.600	0.105
-495.581	-134.013	0.242	-0.030
-494.566	-2.723	-0.108	-0.075
-493.551	8.954	0.309	-0.232
-492.537	48.774	0.149	-0.139
-491.522	-63.507	-0.146	0.060
-490.508	370.998	0.052	-0.105
-489.493	800.000	-0.042	0.132
-488.478	-76.785	-0.476	0.166
-487.464	-139.869	-0.142	0.015
-486.449	-45.173	0.134	-0.066
-485.435	212.184	0.214	0.336
-484.420	98.583	0.064	0.074
-483.405	153.274	-0.139	0.190
-482.391	-130.719	-0.457	0.061
-481.376	10.920	-0.368	0.280
-480.362	217.354	0.136	0.216
-479.347	445.038	0.108	0.236
-478.332	72.967	0.083	0.086
-477.318	159.172	-0.188	0.260
-476.303	-25.705	0.117	0.068
-475.289	-58.260	-0.277	-0.120
-474.274	9.657	0.207	0.156
-473.259	-200.000	0.020	0.188
-472.245	-33.054	0.057	-0.031
-471.230	-200.000	0.005	0.109
-470.216	286.899	0.059	-0.107
-469.201	-11.201	-0.183	0.120
-468.186	-118.858	-0.321	0.056
-467.172	-200.000	-0.048	-0.222
-466.157	570.872	-0.166	-0.402
-465.143	86.289	0.177	0.193
-464.128	125.453	-0.064	-0.080
-463.113	-115.710	0.252	-0.047
-462.099	-200.000	-0.007	0.178
-461.084	374.420	-0.094	-0.190
-460.070	311.473	0.119	-0.221
-459.055	44.445	0.288	0.263
-458.040	482.825	0.095	0.214
-457.026	23.279	0.106	0.087
-456.011	14.324	0.208	-0.161
-454.997	21.471	-0.309	0.250
-453.982	296.780	-0.082	0.150
-452.968	-99.470	-0.418	0.104
-451.953	11.528	-0.069	0.053
-450.938	-140.737	-0.365	-0.037
-449.924	175.390	0.044	0.064
-448.909	-171.899	0.349	0.011
-447.895	-200.000	-0.008	-0.308
-446.880	436.784	0.040	-0.087
-445.865	-43.222	-0.372	-0.187
-444.851	259.688	-0.027	-0.047
-443.836	127.581	0.265	-0.334
-442.822	53.123	0.115	0.110
-441.807	-115.736	0.259	-0.048
-440.792	-74.888	0.402	-0.143
-439.778	196.208	0.071	-0.108
-438.763	476.934	0.078	-0.176
-437.749	-200.000	0.004	0.179
-436.734	-123.434	0.177	-0.028
-435.719	-133.701	-0.113	0.014
-434.705	-84.114	-0.152	0.048
-433.690	160.861	-0.118	-0.164
-432.676	-46.224	0.123	0.060
-431.661	-198.277	-0.231	-0.001
-430.646	-95.783	0.135	0.036
-429.632	-200.000	0.008	-0.205
-428.617	8.820	-0.229	-0.171
-427.603	-38.466	-0.122	-0.064
-426.588	-92.361	-0.221	0.062
-425.573	163.856	0.304	0.425
-424.559	-146.912	0.259	0.022
-423.544	14.045	-0.041	-0.032
-422.530	-38.699	-0.475	-0.249
-421.515	-93.210	0.315	-0.087
-420.500	768.904	-0.046	-0.124
-419.486	62.505	-0.166	-0.164
-418.471	-20.135	0.171	-0.104
-417.457	800.000	-0.051	0.157
-416.442	-92.670	-0.311	0.086
-415.428	-119.082	-0.235	-0.041
-414.413	-118.645	0.366	0.064
-413.398	-200.000	-0.009	-0.220
-412.384	130.713	-0.181	0.231
-411.369	-200.000	-0.072	0.477
-410.355	800.000	-0.060	-0.242
-409.340	-79.478	-0.191	-0.064
-408.325	63.364	-0.158	0.157
-407.311	-200.000	-0.004	0.023
-406.296	125.521	0.046	0.057
-405.282	26.717	-0.174	0.144
-404.267	62.216	0.060	-0.060
-403.252	800.000	-0.100	0.361
-402.238	-190.148	-0.391	0.004
-401.223	434.958	0.035	-0.076
-400.209	800.000	-0.033	0.111
-399.194	-87.927	-0.488	0.146
-398.179	-91.326	-0.250	-0.071
-397.165	-85.639	0.399	-0.123
-396.150	286.151	0.082	0.146
-395.136	-48.107	-0.119	0.057
-394.121	-200.000	-0.024	0.122
-393.106	48.209	0.060	-0.056
-392.092	-82.710	-0.094	-0.030
-391.077	-102.004	0.271	-0.065
-390.063	-133.436	-0.208	-0.026
-389.048	64.095	0.186	0.185
-388.033	-62.001	0.092	0.038
-387.019	545.623	-0.085	0.202
-386.004	-104.679	0.106	-0.024
-384.990	184.996	-0.211	-0.310
-383.975	800.000	-0.100	-0.332
-382.960	260.225	-0.064	-0.110
-381.946	-152.415	0.259	0.018
-380.931	-123.099	-0.217	0.034
-379.917	6.148	-0.198	0.145
-378.902	800.000	0.068	0.255
-377.888	-51.817	-0.259	-0.119
-376.873	-91.064	0.512	-0.145
-375.858	-104.598	0.254	0.058
-374.844	-119.037	-0.063	0.011
-373.829	306.513	-0.086	-0.158
-372.815	-200.000	-0.055	0.293
-371.800	7.366	0.070	0.052
-370.785	-175.520	0.193	0.005
-369.771	-99.923	-0.272	0.067
-368.756	28.979	0.247	0.207
-367.742	-76.128	0.489	0.171
-366.727	-200.000	-0.072	-0.318
-365.712	-200.000	0.001	-0.099
-364.698	-88.040	-0.195	0.058
-363.683	800.000	-0.051	-0.171
-362.669	-30.538	-0.217	-0.122
-361.654	90.858	0.131	-0.146
-360.639	-57.484	-0.184	0.080
-359.625	312.953	-0.030	0.056
-358.610	-80.353	0.237	-0.078
-357.596	5.521	0.163	0.119
-356.581	-128.207	0.427	-0.060
-355.566	142.591	0.031	0.041
-354.552	-73.645	-0.106	0.038
-353.537	350.082	0.112	-0.218
-352.523	-99.375	-0.184	-0.046
-351.508	-159.157	-0.128	-0.007
-350.493	31.131	-0.278	0.236
-349.479	45.950	0.170	-0.156
-348.464	-200.000	0.007	0.290
-347.450	307.427	-0.123	0.226
-346.435	296.987	0.174	0.315
-345.420	-149.248	0.150	-0.012
-344.406	800.000	0.017	0.064
-343.391	-101.951	0.146	-0.035
-342.377	-48.105	0.207	-0.099
-341.362	-200.000	-0.011	0.143
-340.348	-73.471	0.169	-0.061
-339.333	612.516	-0.070	0.172
-338.318	198.680	0.042	0.064
-337.304	49.267	-0.135	0.126
-336.289	800.000	0.040	0.160
-335.275	-96.477	0.206	0.054
-334.260	92.151	0.108	0.120
-333.245	-110.009	0.523	-0.108
-332.231	109.764	0.182	-0.215
-331.216	-173.435	0.318	0.009
-330.202	110.185	0.137	0.162
-329.187	-200.000	-0.031	0.230
-328.172	-200.000	0.037	0.189
-327.158	-40.427	0.080	0.041
-326.143	-200.000	0.001	0.277
-325.129	402.081	0.080	-0.166
-324.114	-112.916	-0.326	0.064
-323.099	365.381	0.075	-0.150
-322.085	36.649	0.398	0.347
-321.070	57.521	-0.168	0.162
-320.056	-200.000	0.049	-0.274
-319.041	59.056	0.103	0.100
-318.026	-97.197	-0.286	0.074
-317.012	165.007	-0.146	-0.203
-315.997	-134.260	0.100	-0.012
-314.983	-71.758	0.213	0.079
-313.968	-200.000	-0.029	-0.211
-312.953	17.134	-0.190	0.149
-311.939	-8.517	0.171	-0.113
-310.924	-200.000	0.021	0.156
-309.910	0.480	-0.232	0.164
-308.895	-113.296	-0.341	-0.066
-307.880	-43.614	0.313	-0.156
-306.866	-152.070	0.161	-0.012
-305.851	-26.877	-0.173	-0.100
-304.837	800.000	-0.074	0.215
-303.822	-88.507	-0.046	-0.014
-302.807	165.115	-0.013	-0.019
-301.793	-43.376	-0.236	0.118
-300.778	323.415	-0.229	0.432
-299.764	693.207	-0.083	0.215
-298.749	-109.303	0.233	-0.049
-297.735	-122.009	-0.250	0.041
-296.720	158.076	0.120	0.165
-295.705	-58.135	-0.125	0.054
-294.691	55.776	0.125	0.119
-293.676	-200.000	0.016	-0.218
-292.662	-47.709	0.306	0.146
-291.647	-48.873	-0.260	-0.123
-290.632	-81.219	0.306	0.100
-289.618	8.634	0.252	-0.187
-288.603	191.279	-0.134	-0.199
-287.589	102.267	0.037	-0.043
-286.574	374.878	0.210	0.422
-285.559	-200.000	-0.022	0.323
-284.545	740.549	-0.098	-0.260
-283.530	139.852	0.243	-0.316
-282.516	26.742	-0.081	-0.067
-281.501	-200.000	-0.004	0.173
-280.486	24.442	0.101	-0.082
-279.472	211.859	0.141	0.219
-278.457	-200.000	-0.008	-0.121
-277.443	284.804	0.157	-0.280
-276.428	252.144	-0.112	0.188
-275.413	194.756	-0.193	-0.288
-274.399	800.000	0.056	0.179
-273.384	-31.584	-0.195	0.108
-272.370	59.434	-0.342	-0.332
-271.355	174.347	0.043	-0.062
-270.340	-200.000	0.026	0.154
-269.326	668.220	-0.012	-0.030
-268.311	155.990	0.048	-0.065
-267.297	-159.001	-0.422	-0.024
-266.282	668.725	0.059	0.151
-265.267	-95.173	-0.098	0.026
-264.253	219.313	-0.160	-0.252
-263.238	800.000	0.045	-0.180
-262.224	-20.567	0.389	-0.235
-261.209	-200.000	-0.070	-0.378
-260.195	40.969	-0.154	0.137
-259.180	-126.282	0.250	-0.037
-258.165	221.076	-0.295	0.467
-257.151	-40.485	0.219	-0.112
-256.136	-28.349	0.124	-0.070
-255.122	800.000	0.004	0.016
-254.107	3.308	-0.550	0.394
-253.092	-44.083	0.035	0.017
-252.078	23.959	0.112	-0.091
-251.063	73.004	-0.044	0.045
-250.049	-71.506	-0.345	0.127
-249.034	17.477	0.241	-0.189
-248.019	-60.588	0.049	-0.021
-247.005	-200.000	0.070	-0.401
-245.990	-42.986	-0.083	-0.041
-244.976	-81.452	0.101	-0.033
-243.961	-200.000	-0.013	-0.279
-242.946	262.141	0.108	0.185
-241.932	-76.684	0.374	-0.129
-240.917	-200.000	-0.009	-0.231
-239.903	272.131	-0.104	-0.181
-238.888	105.945	-0.142	-0.166
-237.873	2.863	-0.163	0.117
-236.859	32.365	0.235	0.200
-235.844	54.634	-0.206	-0.195
-234.830	570.894	-0.059	0.142
-233.815	259.323	-0.129	-0.219
-232.800	-200.000	-0.013	-0.131
-231.786	800.000	0.061	0.220
-230.771	319.603	-0.149	-0.277
-229.757	-61.973	0.036	-0.015
-228.742	-160.322	0.078	0.004
-227.727	752.120	-0.085	0.225
-226.713	-200.000	0.013	-0.058
-225.698	-91.503	0.324	0.091
-224.684	800.000	-0.093	0.352
-223.669	547.898	0.101	-0.238
-222.655	-166.747	-0.405	-0.016
-221.640	-104.446	0.279	-0.064
-220.625	121.619	-0.057	-0.070
-219.611	-108.992	-0.202	0.042
-218.596	-147.029	-0.065	-0.005
-217.582	171.438	-0.138	0.194
-216.567	-89.425	0.281	0.081
-215.552	-200.000	-0.019	0.199
-214.538	-200.000	0.075	-0.325
-213.523	717.521	0.055	-0.143
-212.509	-32.097	-0.303	0.167
-211.494	2.516	-0.077	0.055
-210.479	-200.000	0.002	0.205
-209.465	547.969	0.125	0.294
-208.450	800.000	-0.075	0.227
-207.436	77.108	-0.075	0.078
-206.421	215.679	0.013	0.020
-205.406	373.878	0.126	-0.251
-204.392	-66.911	-0.329	0.128
-203.377	-182.745	-0.150	0.003
-202.363	33.649	0.121	-0.104
-201.348	-122.629	-0.161	-0.026
-200.333	129.893	-0.113	0.142
-199.319	-54.822	0.278	0.123
-198.304	-99.401	0.219	-0.054
-197.290	-200.000	-0.007	0.111
-196.275	435.513	0.096	-0.206
-195.260	-61.089	-0.078	0.032
-194.246	-56.133	-0.286	0.125
-193.231	183.966	-0.147	-0.213
-192.217	61.581	-0.123	0.121
-191.202	-106.823	-0.161	-0.035
-190.187	-100.631	0.198	0.048
-189.173	591.251	-0.158	-0.382
-188.158	-200.000	0.008	-0.119
-187.144	-42.546	-0.208	-0.104
-186.129	-200.000	-0.011	-0.060
-185.114	67.383	-0.264	-0.265
-184.100	183.573	0.121	0.176
-183.085	273.291	-0.223	0.387
-182.071	120.135	0.087	-0.106
-181.056	800.000	0.033	0.106
-180.042	398.409	0.066	-0.136
-179.027	-16.055	0.116	0.072
-178.012	-200.000	0.074	-0.379
-176.998	-200.000	0.084	0.415
-175.983	242.039	0.025	-0.040
-174.969	-200.000	-0.022	0.108
-173.954	399.854	0.050	0.104
-172.939	-27.955	-0.141	-0.080
-171.925	219.138	0.019	0.030
-170.910	800.000	0.024	-0.098
-169.896	800.000	0.060	0.247
-168.881	-159.094	0.396	-0.022
-167.866	-36.944	-0.350	-0.184
-166.852	-111.783	0.055	-0.011
-165.837	35.626	-0.109	-0.094
-164.823	-200.000	-0.001	-0.048
-163.808	182.005	0.045	0.065
-162.793	475.623	-0.117	0.260
-161.779	-200.000	0.019	-0.158
-160.764	71.044	-0.083	-0.084
-159.750	-200.000	0.037	0.212
-158.735	800.000	0.082	0.250
-157.720	-41.754	0.150	0.076
-156.706	143.336	0.039	-0.051
-155.691	-200.000	0.002	0.256
-154.677	-85.737	0.301	0.092
-153.662	-200.000	0.015	-0.217
-152.647	71.229	-0.172	-0.175
-151.633	122.189	-0.101	0.124
-150.618	461.558	0.109	0.238
-149.604	-200.000	0.017	-0.160
-148.589	-147.180	-0.217	-0.018
-147.574	90.522	-0.104	0.114
-146.560	629.328	0.125	0.310
-145.545	800.000	0.152	-0.438
-144.531	81.380	-0.144	-0.153
-143.516	-127.389	0.149	0.021
-142.502	-1.974	0.180	-0.124
-141.487	112.540	0.203	0.241
-140.472	800.000	-0.124	0.363
-139.458	-76.921	-0.314	0.108
-138.443	595.738	0.043	0.104
-137.429	227.378	0.058	-0.092
-136.414	-200.000	-0.028	-0.149
-135.399	800.000	-0.014	0.058
-134.385	-171.281	-0.117	-0.004
-133.370	63.406	0.140	0.137
-132.356	-69.055	0.215	-0.081
-131.341	-29.022	0.217	0.122
-130.326	-7.107	0.294	0.196
-129.312	-200.000	0.003	0.133
-128.297	-52.282	-0.194	0.088
-127.283	572.711	0.180	0.429
-126.268	-200.000	0.022	0.355
-125.253	-200.000	-0.030	-0.207
-124.239	166.699	0.201	0.279
-123.224	96.533	0.167	-0.188
-122.210	-180.489	0.219	0.004
-121.195	647.196	0.036	0.091
-120.180	-200.000	0.070	-0.314
-119.166	302.871	0.194	0.353
-118.151	92.736	-0.163	0.180
-117.137	207.399	-0.012	-0.018
-116.122	-96.907	0.602	-0.155
-115.107	-45.534	-0.173	0.084
-114.093	-60.007	0.175	0.073
-113.078	72.763	0.140	-0.143
-112.064	49.981	-0.052	-0.048
-111.049	-75.306	0.136	0.048
-110.034	-31.118	-0.233	-0.129
-109.020	31.848	-0.266	-0.224
-108.005	67.981	0.240	-0.240
-106.991	-200.000	-0.020	-0.133
-105.976	-10.694	0.072	-0.046
-104.962	23.694	0.025	-0.020
-103.947	25.817	0.112	-0.091
-102.932	185.785	-0.026	-0.037
-101.918	96.867	0.244	0.274
-100.903	11.677	0.252	-0.190
-99.889	800.000	0.031	0.104
-98.874	-73.792	0.160	-0.057
-97.859	-53.505	0.348	0.156
-96.845	-1.082	-0.373	0.258
-95.830	-10.867	0.123	0.080
-94.816	800.000	0.021	0.086
-93.801	-200.000	0.091	-0.459
-92.786	-33.117	-0.258	-0.140
-91.772	-200.000	-0.017	-0.324
-90.757	-84.437	0.086	-0.027
-89.743	-200.000	0.059	0.452
-88.728	152.036	-0.123	-0.164
-87.713	50.168	-0.014	-0.013
-86.699	-68.349	0.427	-0.162
-85.684	-200.000	-0.027	-0.519
-84.670	-184.607	-0.112	-0.002
-83.655	800.000	-0.090	0.271
-82.640	92.287	0.263	-0.290
-81.626	-115.987	0.193	-0.035
-80.611	423.865	-0.106	0.223
-79.597	67.537	0.104	0.104
-78.582	-122.307	0.084	0.013
-77.567	135.915	-0.185	-0.236
-76.553	-131.586	0.193	-0.025
-75.538	218.340	0.059	0.092
-74.524	525.394	0.098	0.226
-73.509	-162.531	-0.470	0.023
-72.494	224.959	-0.034	-0.053
-71.480	20.885	0.274	-0.217
-70.465	800.000	-0.038	-0.151
-69.451	50.081	-0.281	-0.259
-68.436	-200.000	0.017	0.268
-67.422	102.646	-0.186	-0.213
-66.407	194.358	-0.065	-0.096
-65.392	-200.000	0.037	0.254
-64.378	-93.450	0.072	0.020
-63.363	800.000	0.033	0.100
-62.349	-83.272	-0.364	0.114
-61.334	75.380	-1.161	-1.197
-60.319	19.796	0.743	0.585
-59.305	800.000	-0.225	-0.855
-58.290	800.000	0.366	1.034
-57.276	-200.000	0.238	1.582
-56.261	-200.000	116.887	643.596
-55.246	497.491	1540.681	3466.040
-54.232	175.806	2708.517	3841.183
-53.217	104.718	2150.656	2477.322
-52.203	37.904	1585.155	1377.089
-51.188	29.819	1327.895	1105.475
-50.173	26.896	1289.708	1056.647
-49.159	52.402	1348.527	1257.630
-48.144	50.770	1361.798	1260.238
-47.130	29.777	1315.670	1094.872
-46.115	26.511	1297.757	1060.812
-45.100	26.298	1292.393	1055.147
-44.086	26.246	1289.902	1052.764
-43.071	26.140	1287.787	1050.379
-42.057	26.138	1285.666	1048.597
-41.042	26.238	1283.446	1047.324
-40.027	26.256	1282.447	1046.576
-39.013	26.139	1280.611	1044.356
-37.998	26.274	1278.629	1043.478
-36.984	26.278	1276.942	1042.085
-35.969	26.310	1275.138	1040.751
-34.954	26.419	1273.586	1040.074
-33.940	26.440	1272.047	1038.895
-32.925	26.425	1270.820	1037.768
-31.911	26.479	1269.244	1036.746
-30.896	26.500	1267.632	1035.512
-29.881	26.522	1266.562	1034.721
-28.867	26.444	1265.030	1032.982
-27.852	26.511	1263.848	1032.360
-26.838	26.358	1262.444	1030.297
-25.823	26.525	1260.671	1029.761
-24.809	26.525	1259.455	1028.730
-23.794	26.421	1258.388	1027.223
-22.779	26.368	1257.226	1025.932
-21.765	26.468	1255.655	1025.176
-20.750	26.448	1255.097	1024.567
-19.736	26.453	1253.131	1022.950
-18.721	26.334	1252.410	1021.648
-17.706	26.316	1251.322	1020.617
-16.692	26.506	1249.516	1020.176
-15.677	26.284	1249.151	1018.586
-14.663	26.384	1247.499	1017.761
-13.648	26.344	1246.325	1016.539
-12.633	26.327	1245.491	1015.723
-11.619	26.340	1244.666	1015.085
-10.604	26.401	1243.780	1014.665
-9.590	26.278	1242.947	1013.257
-8.575	26.367	1241.838	1012.808
-7.560	26.218	1241.574	1011.715
-6.546	26.322	1240.130	1011.083
-5.531	26.260	1239.815	1010.438
-4.517	26.436	1238.293	1010.144
-3.502	26.263	1237.887	1008.804
-2.487	26.341	1236.638	1008.185
-1.473	26.401	1232.603	1005.186
-0.458	24.889	1217.944	984.878
0.556	21.862	1201.592	949.056
1.571	18.321	1208.047	934.772
2.586	17.529	1222.330	941.361
3.600	17.070	1210.625	929.749
4.615	12.791	1139.347	852.829
5.629	6.163	1069.020	767.840
6.644	3.340	1051.805	741.829
7.659	3.082	1049.831	739.128
8.673	3.150	1048.601	738.523
9.688	3.158	1047.323	737.600
10.702	3.258	1045.272	736.567
11.717	7.151	1050.827	759.108
12.731	14.473	1060.591	801.409
13.746	18.943	1066.258	827.174
14.761	19.710	1066.372	830.875
15.775	18.834	1064.857	825.418
16.790	17.927	1062.538	819.198
17.804	17.316	1060.863	814.905
18.819	16.891	1060.254	812.330
19.834	16.865	1059.188	811.317
20.848	16.639	1058.959	809.989
21.863	16.401	1057.961	808.016
22.877	16.324	1057.012	806.850
23.892	16.245	1056.679	806.148
24.907	16.258	1055.820	805.483
25.921	16.185	1055.021	804.456
26.936	16.230	1053.474	803.414
27.950	16.369	1051.874	802.788
28.965	16.464	1050.153	801.851
29.980	16.618	1048.785	801.466
30.994	16.609	1048.154	800.871
32.009	16.552	1047.132	799.751
33.023	16.503	1046.030	798.605
34.038	16.386	1045.163	797.322
35.053	16.341	1044.574	796.587
36.067	16.358	1043.332	795.652
37.082	16.442	1042.408	795.272
38.096	16.503	1041.716	794.960
39.111	16.636	1040.643	794.694
40.126	16.412	1039.786	792.919
41.140	16.265	1037.883	790.711
42.155	16.107	1036.897	789.148
43.169	16.048	1035.725	787.912
44.184	16.046	1035.128	787.378
45.199	16.086	1034.091	786.707
46.213	16.142	1033.247	786.254
47.228	16.314	1032.034	786.064
48.242	16.297	1031.090	785.197
49.257	16.331	1030.070	784.509
50.271	16.371	1029.788	784.409
51.286	16.311	1028.740	783.264
52.301	16.464	1027.607	783.039
53.315	16.326	1026.473	781.469
54.330	16.238	1025.285	780.089
55.344	16.062	1024.713	778.769
56.359	16.192	1023.948	778.722
57.374	16.145	1023.078	777.775
58.388	16.000	1022.093	776.289
59.403	15.974	1021.275	775.480
60.417	16.049	1019.903	774.713
61.432	16.075	1019.323	774.325
62.447	15.785	1019.122	772.771
63.461	15.821	1017.650	771.749
64.476	15.981	1016.332	771.418
65.490	15.980	1015.763	770.914
66.505	16.020	1015.398	770.747
67.520	15.943	1014.951	769.991
68.534	15.985	1014.319	769.633
69.549	15.855	1013.816	768.593
70.563	15.830	1012.966	767.764
71.578	15.769	1011.849	766.571
72.593	15.697	1011.091	765.603
73.607	15.766	1009.997	765.020
74.622	15.778	1009.673	764.760
75.636	15.871	1008.903	764.532
76.651	15.821	1008.391	763.850
77.666	15.888	1007.644	763.522
78.680	15.887	1006.831	762.832
79.695	15.984	1006.184	762.715
80.709	16.068	1005.748	762.695
81.724	16.144	1005.199	762.557
82.739	16.134	1004.545	761.946
83.753	16.397	1003.375	762.180
84.768	16.543	1003.099	762.558
85.782	16.534	1002.513	762.006
86.797	16.614	1001.482	761.513
87.812	16.305	1000.638	759.415
88.826	16.439	999.185	758.848
89.841	16.516	998.193	758.374
90.855	16.578	997.843	758.318
91.870	16.464	997.221	757.267
92.884	16.604	996.185	757.041
93.899	16.674	994.883	756.297
94.914	16.630	994.784	755.958
95.928	16.533	993.600	754.560
96.943	16.408	992.650	753.213
97.957	16.506	991.645	752.821
98.972	16.633	990.833	752.701
99.987	16.554	990.358	751.922
101.001	16.479	988.898	750.415
102.016	16.459	988.149	749.693
103.030	16.580	987.358	749.564
104.045	16.512	986.871	748.823
105.060	16.337	986.424	747.644
106.074	16.302	984.665	746.089
107.089	16.110	983.523	744.310
108.103	16.170	982.385	743.648
109.118	16.042	981.980	742.713
110.133	15.997	980.993	741.702
111.147	15.893	980.394	740.725
112.162	16.118	979.247	740.781
113.176	16.197	978.807	740.732
114.191	16.142	977.799	739.660
115.206	16.304	976.485	739.313
116.220	16.106	976.824	738.637
117.235	16.136	975.513	737.710
118.249	16.142	974.276	736.736
119.264	16.092	973.895	736.162
120.279	16.122	972.878	735.463
121.293	16.027	972.139	734.425
122.308	15.960	970.918	733.145
123.322	15.934	970.048	732.308
124.337	15.746	969.250	730.827
125.352	15.887	967.982	730.416
126.366	15.891	967.267	729.830
127.381	15.882	966.063	728.818
128.395	16.005	964.918	728.423
129.410	16.073	964.124	728.050
130.424	16.012	963.565	727.302
131.439	16.081	963.165	727.235
132.454	16.195	962.029	726.801
133.468	16.131	961.585	726.128
134.483	16.138	960.468	725.248
135.497	16.209	959.446	724.719
136.512	16.145	958.816	723.904
137.527	16.075	958.029	722.946
138.541	16.223	957.330	722.988
139.556	16.235	956.800	722.574
140.570	16.422	955.918	722.642
141.585	16.520	955.234	722.484
142.600	16.637	954.140	722.090
143.614	16.706	953.572	721.890
144.629	16.547	953.185	720.857
145.643	16.567	952.023	719.998
146.658	16.339	951.055	718.233
147.673	16.233	950.023	716.941
148.687	16.375	949.182	716.844
149.702	16.272	948.013	715.461
150.716	16.309	947.534	715.194
151.731	16.266	946.974	714.524
152.746	16.400	946.040	714.324
153.760	16.472	945.425	714.101
154.775	16.527	944.990	713.943
155.789	16.543	944.311	713.432
156.804	16.490	943.501	712.532
157.819	16.549	943.159	712.461
158.833	16.685	942.537	712.503
159.848	16.734	941.440	711.816
160.862	16.678	940.432	710.753
161.877	16.375	939.418	708.654
162.892	16.289	938.359	707.434
163.906	16.203	937.762	706.561
164.921	16.306	936.531	706.002
165.935	16.329	936.108	705.714
166.950	16.399	935.129	705.207
167.964	16.518	933.907	704.719
168.979	16.447	933.048	703.713
169.994	16.461	932.146	703.029
171.008	16.613	931.792	703.333
172.023	16.636	931.013	702.777
173.037	16.770	930.143	702.612
174.052	16.616	929.393	701.345
175.067	16.532	928.990	700.634
176.081	16.277	928.354	699.034
177.096	16.403	927.571	698.907
178.110	16.256	927.030	697.829
179.125	16.391	926.623	698.019
180.140	16.523	926.050	698.069
181.154	16.669	925.866	698.472
182.169	16.699	925.665	698.380
183.183	16.810	924.891	698.193
184.198	16.753	923.780	697.058
185.213	16.779	923.458	696.859
186.227	16.714	923.069	696.239
187.242	16.806	922.350	696.013
188.256	17.042	921.552	696.315
189.271	16.972	921.085	695.615
190.286	16.647	919.955	693.368
191.300	16.234	919.284	691.109
192.315	16.301	918.093	690.428
193.329	16.381	917.892	690.542
194.344	16.470	917.273	690.380
195.359	16.613	917.016	690.709
196.373	16.651	916.578	690.472
197.388	16.901	916.204	691.149
198.402	16.875	915.520	690.466
199.417	17.021	914.946	690.566
200.432	17.165	914.653	690.872
201.446	17.205	913.913	690.414
202.461	17.261	913.541	690.300
203.475	17.212	912.806	689.481
204.490	17.013	912.095	688.079
205.504	16.953	911.075	687.004
206.519	16.972	910.287	686.425
207.534	16.984	909.614	685.908
208.548	16.887	909.340	685.246
209.563	16.895	908.977	684.947
210.577	17.155	907.827	685.065
211.592	17.242	907.408	685.042
212.607	17.245	906.676	684.442
213.621	17.242	905.544	683.512
214.636	17.260	904.794	682.956
215.650	17.306	904.007	682.488
216.665	17.325	903.554	682.161
217.680	17.324	903.051	681.718
218.694	17.382	902.296	681.318
219.709	17.317	902.109	680.860
220.723	17.346	900.917	680.016
221.738	17.287	900.124	679.121
222.753	17.225	899.977	678.703
223.767	17.468	899.149	678.987
224.782	17.425	899.009	678.649
225.796	17.377	898.392	677.932
226.811	17.315	897.960	677.299
227.826	17.277	896.869	676.265
228.840	17.284	895.808	675.435
229.855	17.221	895.548	674.926
230.869	17.385	894.026	674.369
231.884	17.324	893.728	673.847
232.899	17.049	893.382	672.436
233.913	17.091	892.301	671.729
234.928	17.090	891.742	671.243
235.942	17.029	891.251	670.573
236.957	17.105	890.788	670.467
237.972	17.076	890.379	669.983
238.986	17.167	889.775	669.829
240.001	17.263	888.965	669.539
241.015	17.278	888.425	669.131
242.030	17.380	887.927	669.099
243.045	17.250	887.010	667.837
244.059	17.377	886.575	667.951
245.074	17.349	885.865	667.246
246.088	17.499	885.636	667.601
247.103	17.502	884.755	666.892
248.117	17.680	884.546	667.371
249.132	17.786	883.992	667.307
250.147	17.917	883.594	667.462
251.161	17.992	882.917	667.184
252.176	18.017	881.980	666.514
253.190	18.064	881.705	666.432
254.205	18.176	881.242	666.460
255.220	18.090	880.384	665.415
256.234	18.058	879.442	664.523
257.249	18.082	878.869	664.122
258.263	18.059	877.986	663.307
259.278	18.095	877.879	663.309
260.293	18.012	877.386	662.554
261.307	18.206	876.596	662.651
262.322	18.250	876.045	662.345
263.336	18.236	875.158	661.564
264.351	18.233	874.687	661.137
265.366	18.125	874.254	660.335
266.380	18.211	873.189	659.804
267.395	18.026	872.644	658.619
268.409	18.225	871.787	658.681
269.424	17.958	871.530	657.400
270.439	18.053	870.205	656.707
271.453	18.008	869.757	656.137
272.468	18.026	869.398	655.879
273.482	18.025	868.944	655.474
274.497	17.984	867.972	654.524
275.512	18.111	867.881	654.887
276.526	18.074	867.081	654.084
277.541	18.027	866.956	653.749
278.555	18.235	865.941	653.722
279.570	18.411	865.367	653.904
280.585	18.245	864.765	652.758
281.599	18.247	863.738	651.933
282.614	18.262	862.862	651.271
283.628	18.262	862.736	651.117
284.643	18.243	862.247	650.618
285.657	18.252	861.468	650.008
286.672	18.237	860.763	649.361
287.687	18.390	860.257	649.503
288.701	18.288	859.944	648.822
289.716	18.195	859.395	647.997
290.730	18.217	858.998	647.724
291.745	18.460	857.943	647.791
292.760	18.434	857.260	647.118
293.774	18.539	856.458	646.854
294.789	18.492	855.851	646.159
295.803	18.322	855.169	644.948
296.818	18.269	854.610	644.270
297.833	18.377	853.631	643.881
298.847	18.400	853.417	643.748
299.862	18.418	852.634	643.168
300.876	18.427	852.556	643.086
301.891	18.659	852.051	643.518
302.906	18.651	851.839	643.273
303.920	18.741	851.077	642.976
304.935	18.790	850.685	642.806
305.949	18.738	849.848	641.923
306.964	18.735	848.904	641.140
307.979	18.522	848.609	640.065
308.993	18.763	847.950	640.410
310.008	18.769	847.261	639.858
311.022	18.702	846.727	639.148
312.037	18.530	846.044	637.937
313.052	18.604	845.533	637.770
314.066	18.523	844.868	636.909
315.081	18.465	844.154	636.099
316.095	18.380	843.849	635.499
317.110	18.345	843.437	635.003
318.125	18.531	842.919	635.247
319.139	18.462	842.155	634.356
320.154	18.539	841.789	634.311
321.168	18.599	841.499	634.259
322.183	18.642	840.691	633.752
323.197	18.622	840.319	633.343
324.212	18.744	839.231	632.914
325.227	18.677	839.023	632.458
326.241	18.580	838.556	631.690
327.256	18.696	837.815	631.504
328.270	18.351	837.319	629.806
329.285	18.446	836.801	629.709
330.300	18.632	835.768	629.560
331.314	18.672	835.864	629.722
332.329	18.652	835.475	629.301
333.343	18.751	835.057	629.293
334.358	18.817	834.473	629.038
335.373	18.749	834.123	628.469
336.387	18.956	833.633	628.802
337.402	18.934	833.430	628.512
338.416	19.003	833.001	628.386
339.431	19.302	832.494	629.038
340.446	19.064	832.637	628.221
341.460	19.232	831.927	628.244
342.475	19.176	831.483	627.648
343.489	19.266	831.353	627.822
344.504	19.261	830.767	627.308
345.519	19.153	830.383	626.569
346.533	19.140	829.905	626.103
347.548	19.044	829.258	625.212
348.562	19.170	828.342	624.925
349.577	18.956	827.605	623.538
350.592	18.925	827.219	623.078
351.606	18.972	826.493	622.647
352.621	18.891	825.963	621.900
353.635	19.059	825.295	621.948
354.650	19.089	824.602	621.479
355.665	19.131	824.031	621.147
356.679	19.329	823.391	621.322
357.694	19.225	822.790	620.440
358.708	19.248	822.258	620.066
359.723	19.239	821.538	619.437
360.738	19.469	820.792	619.643
361.752	19.444	820.452	619.244
362.767	19.388	820.082	618.707
363.781	19.575	818.909	618.437
364.796	19.561	819.209	618.561
365.810	19.510	819.167	618.291
366.825	19.617	818.439	618.071
367.840	19.583	818.267	617.764
368.854	19.515	817.120	616.599
369.869	19.474	816.910	616.239
370.883	19.420	816.589	615.752
371.898	19.510	816.535	615.978
372.913	19.758	815.556	616.066
373.927	19.641	814.910	615.109
374.942	19.717	814.821	615.258
375.956	19.700	814.294	614.743
376.971	19.813	814.001	614.869
377.986	19.705	813.689	614.197
379.000	19.846	813.068	614.173
380.015	19.919	812.322	613.815
381.029	19.763	812.086	613.031
382.044	19.794	811.681	612.781
383.059	19.954	810.834	612.650
384.073	19.770	810.354	611.584
385.088	19.668	809.370	610.426
386.102	19.725	809.045	610.329
387.117	19.611	808.596	609.533
388.132	19.612	807.750	608.846
389.146	19.782	807.183	608.965
390.161	19.825	806.873	608.828
391.175	19.852	806.479	608.570
392.190	19.735	805.976	607.727
393.205	19.736	805.406	607.246
394.219	19.832	804.915	607.160
395.234	19.572	805.113	606.342
396.248	19.522	804.161	605.394
397.263	19.538	803.586	604.968
398.278	19.568	803.179	604.711
399.292	19.572	802.682	604.296
400.307	19.548	802.219	603.810
401.321	19.635	802.030	603.918
402.336	19.599	801.545	603.375
403.350	19.696	801.276	603.458
404.365	19.761	800.886	603.337
405.380	19.876	800.726	603.565
406.394	20.032	799.850	603.394
407.409	20.193	799.469	603.615
408.423	20.159	799.263	603.286
409.438	20.253	799.097	603.435
410.453	20.247	798.223	602.700
411.467	20.367	797.626	602.613
412.482	20.300	797.787	602.451
413.496	20.439	797.218	602.450
414.511	20.537	796.714	602.354
415.526	20.281	796.652	601.365
416.540	20.251	795.817	600.579
417.555	20.242	795.530	600.278
418.569	20.269	795.076	599.975
419.584	20.273	794.638	599.608
420.599	20.345	794.193	599.464
421.613	162.246	1372.048	1796.709
422.628	140.679	1456.218	1796.809
