DTS Sentinel unit serial number:	SN413079Multiplexer serial number:	ORYXHardware model number:	OX4-SRSoftware version number:	ORYX F/W v4.00 Oryx Data Collector v3.7.2.0data status	okinstallation	princeton_trtdifferential loss correction	single-endedforward channel	channel 1reverse channel	N/Adate	2019/09/11time	20:48:11forward acquisition time	60.00reverse acquisition time	0.00gamma	496.2192k internal	0.2306k external	0.2306temperature offset calibration	1.0046default loss term (dB/km)	0.3790temperature slope calibration	1.0000multiplexer offset coefficient	1.0000multiplexer slope coefficient	1.0000fibre end	0.00T internal ref (°C)	37.03T ext. ref 1 (°C)	1.64T ext. ref 2 (°C)	30.78length (m)	temperature (°C)	Stokes	anti-Stokes-747.200	108.988	0.059	-0.071
-746.185	415.350	0.063	-0.136
-745.171	-40.249	-0.142	-0.075
-744.156	-200.000	0.008	0.144
-743.142	56.409	-0.098	-0.097
-742.127	-85.750	-0.179	-0.057
-741.112	-36.064	0.087	-0.048
-740.098	-52.189	0.204	0.096
-739.083	-93.027	-0.206	0.059
-738.069	75.714	0.088	-0.095
-737.054	800.000	0.032	-0.103
-736.039	96.120	-0.294	-0.342
-735.025	119.361	0.044	0.056
-734.010	-155.275	-0.210	-0.014
-732.996	-200.000	0.041	-0.290
-731.981	800.000	0.140	-0.439
-730.966	-6.903	0.024	-0.017
-729.952	71.974	0.092	0.098
-728.937	-124.538	0.192	-0.030
-727.923	-33.627	0.092	-0.052
-726.908	-132.069	-0.533	-0.070
-725.894	-200.000	0.099	-0.000
-724.879	-127.031	0.436	-0.065
-723.864	-38.976	-0.067	-0.036
-722.850	-13.730	0.071	0.047
-721.835	20.007	-0.270	0.221
-720.821	274.887	-0.149	0.269
-719.806	800.000	-0.066	-0.190
-718.791	-200.000	-0.031	-0.194
-717.777	100.217	-0.157	0.185
-716.762	338.529	-0.105	-0.208
-715.748	-31.519	0.230	0.131
-714.733	-74.484	0.101	0.037
-713.718	-142.168	-0.290	0.029
-712.704	-200.000	-0.067	-0.401
-711.689	-69.318	0.113	0.044
-710.675	63.141	-0.055	-0.056
-709.660	-200.000	-0.011	-0.106
-708.645	631.295	-0.083	0.213
-707.631	-134.693	-0.458	-0.057
-706.616	493.846	0.116	-0.270
-705.602	-200.000	0.012	-0.217
-704.587	83.499	0.045	0.050
-703.572	-200.000	-0.067	0.396
-702.558	-152.212	-0.086	-0.006
-701.543	-200.000	0.017	-0.126
-700.529	-106.752	0.331	-0.075
-699.514	226.057	-0.214	0.352
-698.499	-200.000	-0.008	-0.212
-697.485	-63.028	-0.370	0.155
-696.470	52.270	-0.321	-0.310
-695.456	-171.824	0.207	0.007
-694.441	1.611	0.243	-0.178
-693.426	-113.759	0.173	0.034
-692.412	-14.669	0.186	0.122
-691.397	-81.163	-0.160	0.054
-690.383	274.308	-0.116	0.208
-689.368	-200.000	0.008	0.071
-688.354	-159.585	-0.027	0.002
-687.339	-200.000	0.015	-0.405
-686.324	-200.000	0.014	-0.317
-685.310	67.582	-0.103	0.107
-684.295	800.000	-0.061	-0.255
-683.281	234.791	0.189	0.317
-682.266	250.424	-0.193	0.333
-681.251	-196.973	0.231	0.002
-680.237	-200.000	0.007	0.292
-679.222	-124.102	-0.412	-0.066
-678.208	241.489	-0.047	-0.079
-677.193	-74.095	-0.304	-0.112
-676.178	618.702	0.053	0.135
-675.164	-200.000	0.036	-0.212
-674.149	-200.000	-0.003	-0.058
-673.135	527.483	0.116	-0.278
-672.120	-200.000	-0.014	0.099
-671.105	-44.219	0.214	-0.109
-670.091	-200.000	0.029	0.197
-669.076	56.431	0.064	0.063
-668.062	-39.058	-0.074	-0.039
-667.047	70.365	-0.156	0.163
-666.032	88.635	-0.084	0.095
-665.018	-111.346	0.192	0.040
-664.003	38.787	-0.163	0.147
-662.989	800.000	0.059	-0.168
-661.974	-63.292	0.222	0.093
-660.959	136.107	-0.077	0.102
-659.945	-172.125	0.111	0.004
-658.930	-40.308	0.291	-0.153
-657.916	-5.049	0.041	-0.029
-656.901	800.000	0.147	-0.439
-655.886	-74.976	0.093	-0.034
-654.872	-200.000	-0.015	-0.102
-653.857	18.491	-0.068	-0.055
-652.843	800.000	0.084	-0.288
-651.828	-19.605	0.246	-0.154
-650.814	800.000	-0.086	-0.260
-649.799	793.136	-0.056	-0.155
-648.784	-86.801	-0.215	-0.067
-647.770	-89.701	0.110	0.033
-646.755	-67.474	-0.023	-0.009
-645.741	-43.690	0.146	-0.075
-644.726	-151.674	-0.316	0.024
-643.711	-58.656	0.256	-0.112
-642.697	163.482	0.058	0.082
-641.682	-98.918	0.155	-0.040
-640.668	-113.197	-0.323	-0.064
-639.653	-93.860	-0.170	0.048
-638.638	251.014	-0.136	0.235
-637.624	-146.288	-0.363	0.032
-636.609	800.000	0.073	-0.224
-635.595	649.259	-0.051	0.132
-634.580	-200.000	-0.016	-0.369
-633.565	-132.823	-0.144	-0.019
-632.551	-28.759	-0.091	-0.053
-631.536	121.578	-0.059	-0.074
-630.522	164.062	0.063	-0.090
-629.507	38.979	-0.274	-0.248
-628.492	800.000	-0.053	0.209
-627.478	18.009	0.100	-0.081
-626.463	800.000	-0.122	-0.355
-625.449	345.777	-0.084	0.167
-624.434	233.890	0.034	0.056
-623.419	12.625	0.109	-0.085
-622.405	553.952	0.066	0.160
-621.390	154.811	0.096	-0.134
-620.376	-200.000	0.005	0.205
-619.361	151.509	0.254	0.350
-618.346	-185.653	-0.274	0.004
-617.332	42.155	0.047	0.043
-616.317	87.646	0.113	-0.127
-615.303	-200.000	-0.008	-0.041
-614.288	242.490	-0.165	-0.279
-613.273	-39.264	-0.048	-0.025
-612.259	-5.871	0.278	0.192
-611.244	-200.000	0.015	-0.217
-610.230	-46.685	0.306	0.152
-609.215	-200.000	-0.046	0.347
-608.201	-130.783	-0.348	0.047
-607.186	-200.000	-0.012	-0.164
-606.171	-46.200	0.135	0.067
-605.157	240.068	-0.245	0.414
-604.142	800.000	0.087	0.285
-603.128	-30.772	-0.069	-0.040
-602.113	-200.000	0.000	-0.357
-601.098	-66.334	-0.053	-0.021
-600.084	153.730	0.125	0.174
-599.069	-16.588	-0.259	0.166
-598.055	-200.000	-0.025	0.231
-597.040	-94.497	0.186	0.051
-596.025	800.000	-0.050	-0.165
-595.011	0.525	0.060	-0.043
-593.996	-130.209	-0.236	-0.032
-592.982	-200.000	0.003	-0.098
-591.967	-200.000	0.019	-0.109
-590.952	24.655	0.176	-0.148
-589.938	-109.348	-0.218	0.047
-588.923	69.793	0.118	-0.122
-587.909	-88.426	-0.266	0.080
-586.894	-52.407	0.211	0.099
-585.879	-109.158	0.396	0.085
-584.865	43.153	-0.032	0.029
-583.850	-132.221	0.108	0.014
-582.836	-118.374	-0.297	-0.053
-581.821	458.374	-0.107	0.241
-580.806	114.172	0.167	0.205
-579.792	224.348	0.263	0.430
-578.777	51.393	-0.205	-0.197
-577.763	800.000	-0.152	-0.528
-576.748	-19.425	0.142	-0.089
-575.733	-85.989	0.049	0.015
-574.719	-156.750	0.077	0.005
-573.704	-200.000	0.048	-0.328
-572.690	23.173	0.144	-0.120
-571.675	-200.000	-0.012	0.241
-570.661	-200.000	-0.003	0.130
-569.646	-143.387	-0.333	-0.032
-568.631	800.000	0.070	0.261
-567.617	179.617	0.070	-0.103
-566.602	228.601	-0.218	-0.360
-565.588	800.000	0.075	0.331
-564.573	363.897	0.177	0.360
-563.558	785.512	0.019	0.053
-562.544	-54.586	0.153	-0.070
-561.529	-200.000	0.029	-0.377
-560.515	-121.687	-0.354	0.059
-559.500	-64.677	0.237	0.097
-558.485	-56.723	-0.195	-0.087
-557.471	-200.000	-0.009	0.143
-556.456	-84.017	-0.148	-0.048
-555.442	800.000	0.023	0.093
-554.427	-200.000	-0.011	-0.145
-553.412	173.288	-0.063	-0.092
-552.398	-36.549	-0.218	-0.119
-551.383	-99.686	0.125	-0.032
-550.369	-200.000	-0.002	0.035
-549.354	-35.365	-0.167	0.091
-548.339	161.888	-0.160	-0.226
-547.325	210.516	-0.077	0.123
-546.310	-58.997	-0.166	0.072
-545.296	35.960	-0.159	-0.142
-544.281	436.656	0.095	0.208
-543.266	-13.269	0.334	0.219
-542.252	-139.857	-0.217	0.023
-541.237	1.836	0.153	0.111
-540.223	-105.760	0.266	0.061
-539.208	-144.152	-0.486	0.046
-538.193	-23.705	0.221	-0.134
-537.179	800.000	0.035	0.119
-536.164	-17.691	0.238	-0.151
-535.150	800.000	0.059	0.171
-534.135	-183.770	0.098	0.002
-533.121	-200.000	-0.039	-0.205
-532.106	-12.050	-0.137	-0.090
-531.091	-175.768	0.229	-0.006
-530.077	151.673	-0.159	-0.219
-529.062	-158.451	-0.247	0.014
-528.048	-200.000	-0.003	-0.059
-527.033	-83.400	-0.015	0.005
-526.018	-152.123	-0.234	-0.017
-525.004	-183.583	-0.229	-0.004
-523.989	-61.140	0.338	-0.144
-522.975	-117.622	-0.154	0.028
-521.960	65.271	-0.198	0.202
-520.945	-95.333	0.389	0.106
-519.931	-48.434	0.099	0.048
-518.916	470.362	-0.062	-0.142
-517.902	-200.000	0.008	-0.314
-516.887	-200.000	0.014	0.349
-515.872	31.244	0.021	-0.018
-514.858	-128.814	-0.301	0.043
-513.843	23.510	0.168	0.139
-512.829	299.229	0.143	0.265
-511.814	108.244	0.125	0.150
-510.799	-200.000	0.010	0.084
-509.785	109.227	0.074	-0.089
-508.770	-147.188	-0.110	-0.009
-507.756	72.531	0.161	-0.170
-506.741	-135.488	0.293	0.035
-505.726	-20.070	-0.119	-0.074
-504.712	73.558	-0.257	-0.271
-503.697	-5.533	-0.270	-0.187
-502.683	392.445	0.118	0.248
-501.668	68.169	-0.274	-0.283
-500.653	-82.659	0.162	-0.053
-499.639	-200.000	-0.036	0.203
-498.624	748.635	-0.116	-0.316
-497.610	-200.000	0.368	-0.001
-496.595	244.320	-0.141	-0.239
-495.581	-57.762	-0.130	-0.057
-494.566	-200.000	0.014	-0.093
-493.551	-136.297	-0.138	-0.016
-492.537	-102.803	-0.169	-0.040
-491.522	-93.101	0.333	-0.093
-490.508	-54.831	-0.151	0.069
-489.493	-38.873	-0.360	-0.191
-488.478	39.182	0.058	0.053
-487.464	-51.399	0.119	-0.056
-486.449	-200.000	0.040	-0.444
-485.435	-52.695	0.216	-0.100
-484.420	-56.289	0.246	-0.110
-483.405	-166.067	-0.199	0.009
-482.391	-25.314	0.381	-0.227
-481.376	-75.112	-0.076	-0.027
-480.362	-143.491	-0.163	0.016
-479.347	350.528	-0.038	-0.075
-478.332	-200.000	0.009	-0.154
-477.318	-18.214	-0.212	-0.134
-476.303	91.730	-0.042	0.048
-475.289	-200.000	0.007	0.149
-474.274	52.404	0.265	-0.255
-473.259	-200.000	-0.025	0.243
-472.245	82.130	-0.068	-0.075
-471.230	-200.000	0.047	-0.295
-470.216	-200.000	0.025	0.193
-469.201	-79.810	-0.037	-0.012
-468.186	-89.393	-0.302	-0.089
-467.172	-190.655	0.216	-0.002
-466.157	110.157	-0.119	0.143
-465.143	113.573	0.047	-0.058
-464.128	139.763	-0.082	-0.108
-463.113	319.391	-0.065	-0.124
-462.099	-200.000	-0.085	0.379
-461.084	-200.000	0.006	-0.057
-460.070	-154.975	0.447	0.030
-459.055	72.479	-0.111	-0.117
-458.040	56.989	-0.358	-0.351
-457.026	762.728	0.035	0.096
-456.011	117.833	-0.059	0.073
-454.997	121.800	0.074	0.093
-453.982	-200.000	-0.055	0.306
-452.968	69.320	0.126	-0.131
-451.953	-34.767	0.262	-0.144
-450.938	-49.933	-0.145	-0.069
-449.924	-101.738	-0.146	0.035
-448.909	-186.345	-0.293	-0.004
-447.895	-22.999	0.208	-0.126
-446.880	-132.450	-0.098	0.013
-445.865	-200.000	-0.014	-0.263
-444.851	800.000	0.063	0.209
-443.836	-59.124	0.196	-0.085
-442.822	-57.584	-0.221	0.097
-441.807	245.209	0.112	0.189
-440.792	-20.003	0.159	-0.099
-439.778	99.700	0.111	-0.129
-438.763	-200.000	-0.033	0.407
-437.749	-76.192	0.363	-0.129
-436.734	19.574	-0.127	-0.103
-435.719	-66.360	0.161	-0.064
-434.705	-145.232	0.260	-0.024
-433.690	108.863	0.101	0.121
-432.676	-96.751	-0.097	-0.026
-431.661	-139.305	-0.627	-0.068
-430.646	800.000	-0.030	-0.106
-429.632	-64.086	0.129	-0.053
-428.617	-200.000	-0.028	-0.203
-427.603	125.426	-0.227	-0.287
-426.588	513.591	-0.103	-0.241
-425.573	-20.215	0.124	-0.077
-424.559	-121.173	-0.155	0.026
-423.544	80.307	0.128	0.138
-422.530	-200.000	0.005	0.065
-421.515	191.021	0.038	-0.057
-420.500	-200.000	-0.039	-0.255
-419.486	800.000	0.029	0.097
-418.471	800.000	0.091	0.374
-417.457	34.434	-0.111	0.098
-416.442	62.577	-0.027	-0.027
-415.428	-200.000	0.068	-0.449
-414.413	378.681	0.135	0.277
-413.398	-51.466	0.108	-0.051
-412.384	-55.830	-0.090	0.040
-411.369	235.092	0.305	0.506
-410.355	800.000	0.134	0.408
-409.340	-71.755	0.240	0.090
-408.325	-125.999	0.129	-0.020
-407.311	-114.551	0.050	-0.010
-406.296	-55.106	0.056	0.025
-405.282	403.838	-0.125	0.265
-404.267	-97.663	0.246	-0.064
-403.252	-200.000	0.029	0.144
-402.238	238.781	0.220	0.367
-401.223	99.374	-0.256	-0.298
-400.209	353.927	-0.118	-0.235
-399.194	616.671	0.046	-0.117
-398.179	79.507	-0.072	0.078
-397.165	-200.000	-0.035	-0.253
-396.150	-51.658	0.157	-0.073
-395.136	396.603	-0.163	0.343
-394.121	-162.899	0.092	0.005
-393.106	-200.000	0.018	0.349
-392.092	720.351	0.032	0.084
-391.077	-63.131	-0.099	0.041
-390.063	-144.085	-0.435	-0.041
-389.048	-177.895	-0.307	-0.007
-388.033	-51.119	0.200	-0.094
-387.019	27.161	-0.156	0.131
-386.004	-59.751	0.086	0.037
-384.990	800.000	-0.019	-0.054
-383.975	-155.864	-0.431	-0.028
-382.960	123.025	-0.070	0.088
-381.946	-117.926	0.264	0.047
-380.931	117.487	0.021	-0.026
-379.917	-200.000	0.038	0.203
-378.902	78.075	-0.180	0.192
-377.888	-157.115	-0.237	0.014
-376.873	-200.000	-0.043	-0.354
-375.858	-22.730	-0.109	0.066
-374.844	159.355	-0.148	-0.206
-373.829	-200.000	-0.007	0.073
-372.815	319.955	0.129	0.245
-371.800	-200.000	-0.010	-0.141
-370.785	-117.002	0.165	0.030
-369.771	-121.933	0.287	0.047
-368.756	-184.337	-0.205	-0.003
-367.742	157.640	0.135	-0.188
-366.727	0.243	0.070	-0.050
-365.712	-200.000	-0.005	0.156
-364.698	-54.325	-0.224	0.102
-363.683	-12.954	-0.031	-0.020
-362.669	5.950	0.055	0.041
-361.654	148.882	0.214	0.290
-360.639	-62.759	0.290	0.121
-359.625	132.417	-0.076	0.098
-358.610	-105.562	0.242	0.055
-357.596	549.331	-0.101	-0.244
-356.581	-14.649	0.161	-0.104
-355.566	250.996	0.078	0.133
-354.552	800.000	0.113	0.357
-353.537	565.798	0.069	-0.167
-352.523	44.192	0.167	0.153
-351.508	-65.269	0.324	-0.131
-350.493	69.814	-0.099	-0.103
-349.479	136.653	-0.119	0.156
-348.464	-81.213	0.264	0.087
-347.450	10.717	-0.243	-0.186
-346.435	-200.000	-0.016	-0.211
-345.420	-166.615	-0.309	-0.013
-344.406	-54.724	-0.213	-0.096
-343.391	800.000	-0.080	-0.244
-342.377	-6.903	-0.113	-0.077
-341.362	-167.535	0.243	0.010
-340.348	494.680	0.124	-0.284
-339.333	-130.949	0.169	0.023
-338.318	800.000	-0.090	0.260
-337.304	145.903	-0.151	-0.203
-336.289	293.112	-0.048	-0.089
-335.275	-200.000	-0.028	-0.137
-334.260	163.666	-0.130	-0.184
-333.245	0.183	0.104	-0.075
-332.231	-7.553	-0.376	-0.255
-331.216	20.529	-0.230	-0.186
-330.202	455.301	-0.122	0.270
-329.187	-200.000	-0.022	0.419
-328.172	79.607	0.311	-0.334
-327.158	70.750	-0.134	0.138
-326.143	31.690	0.214	-0.184
-325.129	-99.084	-0.221	-0.056
-324.114	648.389	-0.035	-0.089
-323.099	-200.000	-0.044	0.258
-322.085	-110.238	0.308	0.064
-321.070	-189.423	0.160	-0.002
-320.056	-23.598	-0.266	0.159
-319.041	3.306	0.248	0.180
-318.026	800.000	0.125	-0.347
-317.012	12.401	-0.099	-0.077
-315.997	-37.473	-0.293	0.157
-314.983	-200.000	-0.045	0.270
-313.968	117.959	0.106	-0.131
-312.953	173.111	0.026	-0.038
-311.939	-200.000	0.037	0.313
-310.924	67.142	0.018	0.018
-309.910	143.505	-0.149	0.199
-308.895	-110.169	0.222	0.046
-307.880	5.405	-0.102	0.075
-306.866	-149.254	-0.189	-0.015
-305.851	-200.000	0.012	-0.152
-304.837	-151.554	-0.152	-0.011
-303.822	-23.411	0.341	0.205
-302.807	800.000	-0.057	-0.216
-301.793	-29.149	-0.377	0.216
-300.778	-80.709	0.272	0.090
-299.764	800.000	0.061	0.185
-298.749	112.429	0.109	-0.132
-297.735	-128.850	0.166	0.023
-296.720	105.521	-0.135	0.160
-295.705	212.723	0.082	0.130
-294.691	-120.506	0.351	-0.060
-293.676	-18.306	0.046	-0.029
-292.662	3.646	0.181	-0.132
-291.647	202.087	0.044	-0.068
-290.632	-200.000	0.006	0.112
-289.618	626.466	-0.066	0.165
-288.603	-200.000	-0.057	0.302
-287.589	44.790	0.077	0.071
-286.574	-102.117	0.077	0.019
-285.559	-31.903	0.349	0.195
-284.545	-87.289	-0.351	0.107
-283.530	-83.248	0.202	0.065
-282.516	-102.012	0.155	0.037
-281.501	-200.000	0.192	0.000
-280.486	137.595	-0.114	0.149
-279.472	-200.000	-0.052	0.352
-278.457	89.696	0.104	0.116
-277.443	764.725	-0.170	-0.460
-276.428	98.101	-0.156	0.179
-275.413	77.128	-0.244	-0.259
-274.399	-200.000	0.106	-0.466
-273.384	368.255	-0.144	-0.290
-272.370	-118.834	0.304	0.053
-271.355	-154.924	0.092	-0.006
-270.340	-200.000	0.046	0.264
-269.326	230.490	0.049	-0.081
-268.311	-200.000	0.033	0.197
-267.297	182.680	-0.060	0.088
-266.282	467.117	0.079	0.178
-265.267	110.494	0.058	-0.070
-264.253	800.000	0.036	0.118
-263.238	-200.000	-0.001	0.083
-262.224	-200.000	0.004	0.331
-261.209	-20.872	-0.081	-0.050
-260.195	10.852	-0.160	0.122
-259.180	-151.044	0.248	-0.019
-258.165	-123.611	0.147	-0.023
-257.151	-162.983	-0.205	-0.010
-256.136	-200.000	-0.040	0.191
-255.122	800.000	0.082	-0.282
-254.107	211.279	-0.136	-0.214
-253.092	-122.627	0.341	-0.055
-252.078	-106.286	0.121	0.027
-251.063	-200.000	0.020	0.108
-250.049	43.288	-0.106	-0.097
-249.034	-200.000	-0.017	-0.227
-248.019	-10.432	-0.118	0.078
-247.005	174.178	0.088	-0.127
-245.990	800.000	-0.029	0.103
-244.976	800.000	-0.099	-0.279
-243.961	-200.000	-0.015	-0.417
-242.946	77.640	-0.176	-0.187
-241.932	-125.801	-0.137	0.021
-240.917	-37.438	0.261	-0.139
-239.903	-162.196	-0.097	-0.005
-238.888	-200.000	0.029	-0.186
-237.873	-59.599	-0.201	0.086
-236.859	-200.000	0.017	0.246
-235.844	130.683	0.241	0.309
-234.830	471.699	0.142	0.318
-233.815	-159.543	-0.280	-0.016
-232.800	-63.196	0.107	-0.044
-231.786	23.394	-0.275	0.226
-230.771	-52.762	-0.135	0.062
-229.757	56.804	-0.167	0.162
-228.742	-78.389	0.145	-0.050
-227.727	-130.433	0.354	0.048
-226.713	800.000	0.038	-0.125
-225.698	87.871	0.162	-0.179
-224.684	800.000	0.068	0.225
-223.669	87.042	-0.180	-0.198
-222.655	800.000	-0.171	0.543
-221.640	-21.541	-0.336	-0.204
-220.625	155.372	0.092	-0.126
-219.611	87.229	-0.325	-0.359
-218.596	47.955	-0.221	0.206
-217.582	80.287	-0.083	0.089
-216.567	-32.370	-0.194	0.108
-215.552	-0.747	0.057	-0.040
-214.538	74.006	-0.129	0.135
-213.523	-29.328	-0.180	0.103
-212.509	-200.000	-0.013	0.119
-211.494	-46.279	0.131	-0.064
-210.479	-200.000	-0.078	-0.378
-209.465	800.000	0.056	0.205
-208.450	-32.916	-0.132	0.073
-207.436	-192.877	0.170	0.002
-206.421	-18.533	0.431	0.268
-205.406	34.127	0.060	0.052
-204.392	-15.277	0.134	-0.086
-203.377	323.824	0.138	0.263
-202.363	562.753	-0.085	0.204
-201.348	-24.115	0.106	-0.063
-200.333	-172.832	-0.456	0.014
-199.319	-200.000	0.064	-0.324
-198.304	800.000	-0.052	0.228
-197.290	-79.152	0.170	0.057
-196.275	287.596	0.055	-0.099
-195.260	646.561	0.026	-0.066
-194.246	-200.000	0.003	0.207
-193.231	130.346	-0.048	0.061
-192.217	-200.000	0.033	0.163
-191.202	63.869	-0.100	0.100
-190.187	-60.119	-0.136	-0.058
-189.173	445.505	-0.032	-0.071
-188.158	-84.376	-0.211	0.066
-187.144	-76.512	-0.233	-0.081
-186.129	-81.004	0.375	-0.124
-185.114	-18.649	-0.127	0.079
-184.100	-200.000	0.015	-0.145
-183.085	332.297	0.095	-0.183
-182.071	-200.000	-0.028	-0.216
-181.056	438.139	-0.140	-0.304
-180.042	800.000	0.025	0.079
-179.027	-45.682	0.295	0.145
-178.012	-57.908	0.300	-0.130
-176.998	-200.000	0.056	-0.516
-175.983	-26.325	0.140	-0.082
-174.969	800.000	0.050	-0.139
-173.954	800.000	-0.068	-0.239
-172.939	-124.191	0.082	-0.013
-171.925	-33.883	0.225	0.123
-170.910	-49.899	0.119	-0.056
-169.896	-18.782	0.076	0.047
-168.881	342.465	0.088	0.171
-167.866	640.895	-0.045	0.115
-166.852	275.435	-0.059	-0.103
-165.837	649.646	0.023	0.059
-164.823	800.000	0.054	0.226
-163.808	800.000	-0.052	-0.160
-162.793	-200.000	0.004	0.030
-161.779	49.675	-0.066	-0.062
-160.764	70.589	-0.267	0.275
-159.750	-176.907	-0.164	-0.004
-158.735	224.636	0.171	0.275
-157.720	15.213	0.099	-0.077
-156.706	155.057	0.086	-0.117
-155.691	67.671	-0.104	-0.105
-154.677	-116.380	0.510	-0.094
-153.662	-154.286	-0.228	-0.015
-152.647	-177.006	0.293	0.007
-151.633	73.838	0.090	-0.093
-150.618	791.427	0.097	0.266
-149.604	85.834	-0.152	0.166
-148.589	13.951	-0.066	-0.051
-147.574	44.380	0.192	0.175
-146.560	-27.411	0.113	-0.066
-145.545	-200.000	0.027	0.127
-144.531	89.707	0.117	0.130
-143.516	85.323	-0.140	0.153
-142.502	343.102	-0.117	0.228
-141.487	-200.000	0.032	-0.303
-140.472	800.000	-0.099	0.311
-139.458	-50.497	-0.197	-0.093
-138.443	800.000	0.104	0.352
-137.429	-68.648	0.134	-0.052
-136.414	-159.019	-0.149	0.008
-135.399	37.469	0.082	-0.072
-134.385	-90.092	0.251	0.073
-133.370	-88.869	0.293	0.086
-132.356	204.895	0.089	0.137
-131.341	446.390	-0.182	0.398
-130.326	-30.922	-0.019	0.011
-129.312	55.019	0.046	-0.044
-128.297	247.869	0.064	-0.108
-127.283	-59.520	0.270	-0.115
-126.268	137.438	0.108	-0.140
-125.253	-114.535	-0.083	0.016
-124.239	164.499	0.039	-0.055
-123.224	800.000	0.057	0.230
-122.210	-200.000	-0.038	0.356
-121.195	-113.610	0.260	0.050
-120.180	800.000	0.034	0.117
-119.166	-131.988	0.271	0.035
-118.151	-13.625	0.186	0.120
-117.137	-65.015	0.242	-0.097
-116.122	288.410	-0.053	-0.095
-115.107	-116.989	-0.172	0.031
-114.093	495.694	-0.116	0.266
-113.078	-102.976	-0.204	-0.048
-112.064	800.000	-0.093	-0.274
-111.049	800.000	0.034	-0.141
-110.034	-200.000	0.034	0.152
-109.020	134.174	0.088	-0.114
-108.005	232.818	-0.149	0.243
-106.991	788.450	0.117	-0.318
-105.976	62.421	0.076	0.076
-104.962	-122.756	0.078	-0.013
-103.947	-200.000	0.002	0.012
-102.932	800.000	0.112	0.338
-101.918	-44.732	0.178	-0.088
-100.903	140.776	0.113	-0.149
-99.889	800.000	-0.113	0.442
-98.874	-61.381	0.237	-0.099
-97.859	-93.787	-0.151	-0.041
-96.845	341.161	0.222	0.430
-95.830	434.444	-0.024	-0.051
-94.816	-35.383	0.296	-0.160
-93.801	-189.243	0.236	-0.003
-92.786	-125.974	0.283	0.042
-91.772	-2.236	0.132	-0.092
-90.757	-71.529	0.149	0.055
-89.743	-13.421	0.224	0.144
-88.728	638.143	-0.105	-0.264
-87.713	-63.143	0.214	-0.088
-86.699	518.854	-0.079	0.183
-85.684	-71.436	-0.259	0.096
-84.670	800.000	0.145	0.429
-83.655	144.376	-0.140	0.185
-82.640	-115.913	0.233	-0.043
-81.626	26.726	0.221	0.183
-80.611	-150.006	0.203	-0.016
-79.597	31.657	-0.068	-0.058
-78.582	-142.828	-0.320	-0.031
-77.567	-200.000	0.016	-0.180
-76.553	-200.000	-0.036	-0.158
-75.538	395.539	0.126	0.260
-74.524	-103.988	0.148	-0.034
-73.509	-1.014	-0.075	-0.052
-72.494	-138.057	-0.107	0.012
-71.480	-113.742	0.188	-0.036
-70.465	800.000	0.051	0.217
-69.451	6.908	-0.204	0.151
-68.436	-37.237	-0.149	0.079
-67.422	-1.060	0.228	-0.160
-66.407	-38.266	-0.238	-0.125
-65.392	116.114	0.091	0.111
-64.378	135.916	0.171	0.220
-63.363	241.191	0.160	0.264
-62.349	800.000	0.047	0.194
-61.334	43.671	-0.941	-0.853
-60.319	177.565	0.518	0.747
-59.305	473.533	-0.329	-0.734
-58.290	141.819	0.452	0.593
-57.276	-200.000	0.409	1.800
-56.261	-200.000	89.387	513.152
-55.246	500.802	1362.176	3112.908
-54.232	152.077	2572.528	3474.746
-53.217	115.027	2176.674	2630.066
-52.203	48.168	1635.683	1514.739
-51.188	40.421	1369.864	1221.035
-50.173	37.235	1326.295	1163.107
-49.159	57.092	1372.246	1324.772
-48.144	61.774	1391.254	1371.578
-47.130	40.833	1347.283	1203.212
-46.115	37.134	1329.609	1165.216
-45.100	36.890	1324.977	1159.652
-44.086	36.863	1322.683	1157.438
-43.071	36.849	1319.901	1154.876
-42.057	36.736	1318.489	1152.919
-41.042	36.869	1316.337	1151.781
-40.027	36.814	1314.925	1150.174
-39.013	36.787	1313.408	1148.643
-37.998	36.883	1311.178	1147.215
-36.984	37.086	1308.955	1146.426
-35.969	37.037	1307.310	1144.648
-34.954	37.133	1305.291	1143.400
-33.940	37.118	1303.891	1142.039
-32.925	37.196	1302.924	1141.606
-31.911	37.143	1301.574	1140.072
-30.896	37.243	1299.737	1139.000
-29.881	37.146	1298.598	1137.389
-28.867	37.123	1297.367	1136.133
-27.852	37.136	1295.699	1134.702
-26.838	37.161	1294.373	1133.642
-25.823	37.107	1292.667	1131.791
-24.809	37.106	1291.322	1130.558
-23.794	37.015	1290.266	1129.063
-22.779	36.978	1288.885	1127.590
-21.765	37.108	1287.627	1127.203
-20.750	37.045	1286.257	1125.589
-19.736	37.096	1284.685	1124.468
-18.721	36.926	1283.794	1122.659
-17.706	37.026	1282.215	1121.811
-16.692	37.085	1280.968	1121.014
-15.677	37.023	1279.999	1119.767
-14.663	37.057	1278.952	1118.999
-13.648	36.904	1278.067	1117.303
-12.633	37.036	1276.745	1116.863
-11.619	36.936	1276.219	1115.779
-10.604	36.933	1275.246	1114.872
-9.590	36.911	1274.080	1113.677
-8.575	36.951	1273.145	1113.047
-7.560	36.980	1272.634	1112.724
-6.546	36.942	1271.529	1111.497
-5.531	36.945	1270.578	1110.636
-4.517	36.998	1269.039	1109.551
-3.502	36.950	1268.827	1109.048
-2.487	36.991	1267.458	1108.039
-1.473	36.880	1263.848	1104.210
-0.458	35.464	1247.973	1082.314
0.556	31.340	1228.783	1039.490
1.571	27.269	1232.688	1019.927
2.586	26.155	1247.800	1026.015
3.600	25.237	1236.446	1011.414
4.615	18.177	1161.433	912.449
5.629	6.976	1081.174	793.399
6.644	2.047	1058.245	752.253
7.659	1.552	1055.670	747.925
8.673	1.523	1054.375	746.797
9.688	1.429	1053.095	745.365
10.702	1.839	1052.065	746.579
11.717	8.669	1062.015	787.257
12.731	19.076	1076.833	849.824
13.746	23.842	1082.097	877.490
14.761	24.312	1082.846	880.341
15.775	24.343	1082.400	880.053
16.790	24.183	1081.340	878.329
17.804	24.081	1081.136	877.581
18.819	24.184	1080.548	877.536
19.834	24.285	1080.107	877.592
20.848	24.454	1079.284	877.680
21.863	24.255	1079.004	876.397
22.877	24.289	1078.395	875.991
23.892	24.105	1077.597	874.362
24.907	24.287	1076.650	874.407
25.921	24.243	1075.631	873.290
26.936	24.231	1074.634	872.344
27.950	24.318	1072.876	871.262
28.965	24.076	1071.109	868.570
29.980	24.114	1069.872	867.677
30.994	24.351	1069.067	868.101
32.009	24.186	1068.375	866.659
33.023	24.237	1066.528	865.332
34.038	24.163	1065.966	864.438
35.053	24.238	1065.369	864.245
36.067	24.347	1064.243	863.782
37.082	24.355	1063.328	863.001
38.096	24.464	1063.129	863.292
39.111	24.597	1062.631	863.452
40.126	24.370	1060.870	860.849
41.140	24.048	1059.061	857.755
42.155	23.742	1057.654	855.066
43.169	23.848	1056.958	854.937
44.184	24.043	1055.378	854.522
45.199	23.782	1054.780	852.710
46.213	23.899	1053.916	852.494
47.228	24.097	1053.636	853.144
48.242	24.156	1052.371	852.327
49.257	24.075	1052.107	851.647
50.271	24.295	1051.157	851.854
51.286	24.348	1050.303	851.339
52.301	24.343	1049.260	850.396
53.315	24.161	1048.285	848.666
54.330	24.305	1047.170	848.372
55.344	24.240	1046.688	847.596
56.359	24.163	1045.501	846.195
57.374	24.058	1044.478	844.791
58.388	24.092	1043.733	844.276
59.403	23.973	1043.118	843.141
60.417	23.829	1042.143	841.599
61.432	23.918	1041.630	841.529
62.447	24.107	1040.708	841.602
63.461	24.136	1039.838	840.964
64.476	23.979	1039.426	839.815
65.490	24.007	1038.034	838.745
66.505	24.075	1037.686	838.710
67.520	24.022	1037.022	837.850
68.534	23.841	1035.704	835.861
69.549	23.552	1035.052	833.902
70.563	23.531	1033.832	832.749
71.578	23.526	1032.888	831.888
72.593	23.437	1031.891	830.597
73.607	23.519	1031.958	830.960
74.622	23.843	1031.510	832.042
75.636	23.864	1030.380	831.156
76.651	23.684	1029.895	829.853
77.666	23.504	1029.105	828.299
78.680	23.731	1028.146	828.511
79.695	23.797	1027.673	828.367
80.709	23.807	1027.062	827.849
81.724	23.821	1026.072	827.040
82.739	23.967	1025.105	826.867
83.753	24.385	1024.377	828.146
84.768	24.537	1024.225	828.659
85.782	24.670	1022.957	828.176
86.797	24.595	1022.042	827.011
87.812	24.337	1021.396	825.224
88.826	24.429	1020.212	824.621
89.841	24.548	1019.427	824.461
90.855	24.588	1018.658	823.949
91.870	24.517	1017.686	822.766
92.884	24.406	1016.292	821.055
93.899	24.315	1015.472	819.900
94.914	24.550	1014.634	820.228
95.928	24.386	1012.964	818.056
96.943	24.188	1011.624	815.996
97.957	23.844	1011.056	813.888
98.972	23.754	1009.810	812.405
99.987	23.963	1009.747	813.235
101.001	24.142	1008.316	812.829
102.016	24.044	1007.698	811.811
103.030	24.070	1006.665	811.025
104.045	24.064	1005.393	809.903
105.060	23.968	1004.416	808.606
106.074	23.936	1004.068	808.110
107.089	24.362	1003.569	809.571
108.103	24.220	1002.596	808.071
109.118	23.881	1001.637	805.690
110.133	24.070	1000.160	805.285
111.147	23.826	999.192	803.333
112.162	23.666	998.599	802.060
113.176	23.933	997.902	802.637
114.191	23.857	996.913	801.428
115.206	23.506	995.582	798.707
116.220	23.478	995.053	798.087
117.235	23.706	994.033	798.221
118.249	23.596	993.427	797.169
119.264	23.583	992.484	796.282
120.279	23.588	992.068	795.900
121.293	23.810	990.856	795.855
122.308	23.734	990.284	794.982
123.322	23.740	989.322	794.170
124.337	23.651	987.855	792.521
125.352	23.060	986.552	788.774
126.366	23.006	985.227	787.405
127.381	23.663	985.539	790.511
128.395	24.137	984.993	792.110
129.410	24.374	983.822	792.148
130.424	24.191	982.979	790.588
131.439	24.186	982.059	789.758
132.454	24.274	981.227	789.409
133.468	24.090	980.678	788.084
134.483	24.170	979.845	787.696
135.497	24.444	979.186	788.308
136.512	24.450	978.289	787.544
137.527	24.482	977.252	786.779
138.541	24.529	976.776	786.533
139.556	24.415	975.950	785.295
140.570	24.398	975.640	784.903
141.585	24.574	974.303	784.533
142.600	24.490	973.229	783.228
143.614	24.770	972.387	783.709
144.629	24.786	971.559	783.039
145.643	24.666	970.340	781.466
146.658	24.533	969.093	779.811
147.673	24.302	967.595	777.529
148.687	24.200	966.922	776.478
149.702	24.202	965.715	775.448
150.716	24.133	964.811	774.352
151.731	24.325	964.728	775.051
152.746	24.488	964.112	775.197
153.760	24.698	963.362	775.437
154.775	24.612	962.171	774.034
155.789	24.581	961.578	773.356
156.804	24.575	960.753	772.598
157.819	24.529	960.100	771.803
158.833	24.756	959.262	772.042
159.848	24.758	957.996	770.967
160.862	24.461	957.268	769.030
161.877	24.677	955.792	768.705
162.892	24.508	955.380	767.581
163.906	24.541	954.331	766.811
164.921	24.703	952.979	766.352
165.935	24.733	952.283	765.853
166.950	24.712	950.946	764.621
167.964	24.764	950.186	764.166
168.979	24.463	949.282	762.086
169.994	24.317	948.642	760.881
171.008	24.625	948.138	761.724
172.023	24.631	947.102	760.847
173.037	24.512	945.846	759.265
174.052	24.183	945.505	757.524
175.067	24.493	944.373	757.867
176.081	24.442	944.095	757.360
177.096	24.286	943.584	756.224
178.110	24.082	942.626	754.523
179.125	23.894	941.927	753.101
180.140	24.050	941.271	753.169
181.154	24.156	941.142	753.449
182.169	24.414	940.756	754.164
183.183	24.570	940.116	754.244
184.198	24.633	939.259	753.756
185.213	24.507	938.931	752.892
186.227	24.539	938.210	752.381
187.242	24.503	937.671	751.734
188.256	24.546	936.989	751.302
189.271	24.701	935.986	751.082
190.286	24.329	934.805	748.506
191.300	23.722	933.370	744.746
192.315	22.966	931.808	740.268
193.329	23.022	931.448	740.153
194.344	23.952	931.870	744.312
195.359	24.426	931.778	746.158
196.373	24.538	930.778	745.758
197.388	24.278	930.568	744.437
198.402	24.361	930.260	744.474
199.417	24.533	929.170	744.250
200.432	24.279	928.430	742.536
201.446	24.043	927.626	740.843
202.461	24.095	926.955	740.460
203.475	23.280	925.155	735.574
204.490	22.498	923.710	731.112
205.504	23.271	924.285	734.713
206.519	24.062	923.999	737.700
207.534	24.099	923.409	737.315
208.548	24.469	923.404	738.779
209.563	24.346	922.383	737.389
210.577	24.325	921.721	736.706
211.592	24.693	921.366	737.876
212.607	24.585	920.690	736.825
213.621	24.652	920.125	736.582
214.636	24.671	919.379	735.998
215.650	24.628	918.028	734.675
216.665	24.725	918.055	735.031
217.680	24.580	917.201	733.686
218.694	24.193	916.138	731.184
219.709	23.997	915.244	729.604
220.723	24.526	914.329	730.976
221.738	24.452	914.433	730.691
222.753	24.402	913.894	729.990
223.767	24.531	913.051	729.779
224.782	24.723	913.031	730.483
225.796	24.664	912.801	729.996
226.811	23.977	911.214	725.860
227.826	23.366	909.400	721.862
228.840	23.731	909.000	722.966
229.855	23.823	908.227	722.660
230.869	23.290	907.549	719.893
231.884	23.718	907.572	721.586
232.899	24.466	907.410	724.428
233.913	24.301	906.888	723.282
234.928	24.372	906.288	723.025
235.942	24.294	905.430	721.961
236.957	24.037	904.594	720.190
237.972	24.050	904.123	719.805
238.986	24.154	903.341	719.539
240.001	24.141	902.952	719.113
241.015	24.167	901.902	718.318
242.030	24.487	901.574	719.280
243.045	24.406	901.763	719.042
244.059	24.445	901.332	718.794
245.074	24.473	899.700	717.538
246.088	24.142	898.873	715.488
247.103	24.519	898.411	716.568
248.117	24.933	899.021	718.656
249.132	25.142	898.351	718.893
250.147	25.176	897.961	718.654
251.161	25.443	897.236	719.079
252.176	25.254	896.634	717.779
253.190	25.471	895.904	717.996
254.205	25.522	895.575	717.874
255.220	25.472	895.051	717.190
256.234	25.460	894.045	716.273
257.249	25.227	893.506	714.848
258.263	25.199	893.035	714.298
259.278	25.416	891.728	714.050
260.293	25.469	891.477	713.999
261.307	25.214	891.038	712.570
262.322	25.081	889.911	711.079
263.336	24.384	887.784	706.555
264.351	23.213	886.241	700.634
265.366	23.374	886.143	701.130
266.380	24.527	886.520	705.930
267.395	24.851	886.236	706.918
268.409	24.886	885.656	706.532
269.424	25.158	885.168	707.153
270.439	25.071	884.725	706.394
271.453	25.107	884.298	706.131
272.468	25.397	883.675	706.713
273.482	25.355	883.359	706.232
274.497	25.049	882.074	703.941
275.512	24.755	881.069	701.923
276.526	25.030	881.059	702.932
277.541	25.270	880.847	703.641
278.555	24.888	880.321	701.662
279.570	24.783	879.197	700.295
280.585	24.967	878.828	700.660
281.599	24.972	877.325	699.416
282.614	24.442	876.112	696.323
283.628	24.355	876.074	695.890
284.643	24.798	875.562	697.149
285.657	24.520	874.639	695.270
286.672	24.146	874.149	693.364
287.687	24.707	873.729	695.152
288.701	24.687	873.152	694.552
289.716	24.421	872.369	692.837
290.730	24.456	871.577	692.281
291.745	24.168	870.468	690.224
292.760	24.427	870.757	691.394
293.774	25.335	871.226	695.222
294.789	25.653	871.014	696.224
295.803	25.811	870.042	695.997
296.818	25.934	869.265	695.785
297.833	25.378	868.107	692.655
298.847	25.078	867.514	690.964
299.862	25.452	867.224	692.112
300.876	25.622	867.392	692.841
301.891	25.738	866.174	692.252
302.906	25.342	865.257	689.936
303.920	25.326	865.297	689.846
304.935	25.728	864.826	690.955
305.949	25.720	864.172	690.339
306.964	25.288	863.467	688.061
307.979	25.338	863.337	688.085
308.993	25.829	862.733	689.425
310.008	25.811	862.322	688.966
311.022	25.447	862.024	687.274
312.037	25.456	860.842	686.305
313.052	25.190	859.850	684.438
314.066	24.266	858.232	679.570
315.081	23.859	858.148	677.891
316.095	24.843	858.098	681.543
317.110	25.345	857.898	683.233
318.125	24.681	855.996	679.135
319.139	23.530	854.208	673.292
320.154	23.342	854.529	672.773
321.168	24.385	854.426	676.589
322.183	25.063	854.661	679.285
323.197	25.323	854.510	680.088
324.212	25.523	854.296	680.618
325.227	25.530	853.417	679.884
326.241	25.409	852.801	678.873
327.256	25.127	852.315	677.362
328.270	25.108	851.549	676.620
329.285	24.947	850.806	675.366
330.300	24.795	849.816	673.949
331.314	25.050	849.388	674.508
332.329	25.296	849.814	675.713
333.343	25.579	849.063	676.121
334.358	25.565	848.677	675.700
335.373	25.525	848.546	675.385
336.387	25.883	848.604	676.717
337.402	25.925	848.437	676.680
338.416	26.024	847.866	676.536
339.431	26.026	847.806	676.436
340.446	26.218	847.268	676.668
341.460	26.059	846.547	675.436
342.475	26.020	845.876	674.693
343.489	25.979	845.803	674.425
344.504	26.051	845.475	674.371
345.519	26.389	845.212	675.364
346.533	26.459	844.515	675.009
347.548	26.443	843.956	674.444
348.562	26.392	843.581	673.893
349.577	26.262	843.092	672.960
350.592	26.271	842.353	672.344
351.606	26.245	841.662	671.635
352.621	26.130	840.761	670.430
353.635	26.011	840.101	669.402
354.650	25.565	838.278	666.239
355.665	24.517	837.203	661.445
356.679	24.925	836.857	662.625
357.694	25.150	836.348	662.994
358.708	25.080	835.914	662.334
359.723	25.675	835.579	664.209
360.738	25.934	835.616	665.133
361.752	25.950	835.214	664.814
362.767	26.439	834.507	665.993
363.781	26.617	834.441	666.537
364.796	26.706	834.051	666.493
365.810	26.795	833.543	666.356
366.825	26.607	833.046	665.209
367.840	26.424	831.957	663.607
368.854	26.105	831.095	661.692
369.869	25.956	831.037	661.042
370.883	26.022	830.791	661.029
371.898	26.047	829.648	660.153
372.913	26.102	829.689	660.328
373.927	26.262	829.227	660.489
374.942	26.235	829.030	660.173
375.956	26.619	828.108	660.782
376.971	26.541	827.845	660.231
377.986	26.821	827.822	661.175
379.000	26.786	826.894	660.246
380.015	26.509	826.481	658.851
381.029	26.589	826.065	658.752
382.044	26.695	825.305	658.474
383.059	26.733	825.023	658.327
384.073	26.624	824.421	657.394
385.088	26.674	823.449	656.741
386.102	26.605	822.917	656.009
387.117	26.440	822.420	654.958
388.132	26.117	821.243	652.793
389.146	25.644	820.274	650.258
390.161	25.985	820.150	651.332
391.175	26.466	820.048	652.929
392.190	26.019	818.947	650.385
393.205	24.753	816.762	644.037
394.219	23.377	814.858	637.532
395.234	23.143	815.056	636.788
396.248	24.613	816.470	643.132
397.263	26.164	817.382	649.375
398.278	26.191	816.877	649.013
399.292	25.948	816.369	647.679
400.307	26.088	815.476	647.418
401.321	25.948	815.448	646.836
402.336	26.288	815.409	647.967
403.350	26.839	815.242	649.751
404.365	27.123	815.319	650.772
405.380	27.357	814.871	651.194
406.394	27.430	814.041	650.736
407.409	27.357	813.254	649.787
408.423	27.270	813.122	649.315
409.438	27.505	812.651	649.717
410.453	27.313	812.766	649.067
411.467	27.403	812.046	648.757
412.482	27.302	811.748	648.100
413.496	27.391	811.078	647.824
414.511	27.474	810.682	647.745
415.526	27.484	810.131	647.283
416.540	27.453	809.492	646.608
417.555	27.040	808.722	644.468
418.569	27.077	808.649	644.486
419.584	27.052	807.807	643.669
420.599	26.860	807.248	642.486
421.613	104.503	1275.989	1426.751
422.628	90.123	1344.311	1426.838
