DTS Sentinel unit serial number:	SN413079Multiplexer serial number:	ORYXHardware model number:	OX4-SRSoftware version number:	ORYX F/W v4.00 Oryx Data Collector v3.7.2.0data status	okinstallation	princeton_trtdifferential loss correction	single-endedforward channel	channel 1reverse channel	N/Adate	2019/09/12time	09:00:11forward acquisition time	60.00reverse acquisition time	0.00gamma	496.2192k internal	0.2309k external	0.2309temperature offset calibration	1.0044default loss term (dB/km)	0.3790temperature slope calibration	1.0000multiplexer offset coefficient	1.0000multiplexer slope coefficient	1.0000fibre end	0.00T internal ref (°C)	34.25T ext. ref 1 (°C)	1.77T ext. ref 2 (°C)	31.26length (m)	temperature (°C)	Stokes	anti-Stokes-747.200	-104.929	0.225	-0.052
-746.185	-36.969	-0.318	-0.173
-745.171	-109.114	-0.096	0.021
-744.156	-24.006	-0.323	0.196
-743.142	-200.000	-0.008	0.193
-742.127	-200.000	-0.040	0.215
-741.112	-144.350	-0.185	0.017
-740.098	44.420	0.269	0.251
-739.083	-200.000	-0.290	-0.001
-738.069	-58.857	-0.373	0.164
-737.054	800.000	-0.042	-0.147
-736.039	-185.040	-0.175	-0.003
-735.025	800.000	0.030	-0.121
-734.010	-200.000	-0.018	-0.410
-732.996	-200.000	-0.042	-0.458
-731.981	54.547	0.317	0.310
-730.966	-136.281	-0.142	-0.017
-729.952	39.185	-0.103	0.093
-728.937	-200.000	0.042	-0.221
-727.923	-80.352	-0.061	0.021
-726.908	-123.320	-0.326	-0.053
-725.894	800.000	0.027	0.081
-724.879	425.649	0.093	-0.203
-723.864	-200.000	0.020	0.181
-722.850	-79.780	0.215	0.074
-721.835	-119.691	-0.194	0.034
-720.821	-140.904	-0.201	-0.021
-719.806	65.110	-0.120	0.123
-718.791	-133.847	0.138	-0.017
-717.777	108.735	-0.225	-0.273
-716.762	-129.610	-0.287	-0.040
-715.748	-46.271	-0.332	-0.166
-714.733	-64.977	0.179	-0.074
-713.718	756.359	0.048	0.132
-712.704	800.000	0.097	0.371
-711.689	41.552	0.219	-0.201
-710.675	62.436	0.157	-0.159
-709.660	130.543	-0.075	-0.098
-708.645	-200.000	-0.017	-0.133
-707.631	351.383	0.103	-0.206
-706.616	-61.649	-0.504	0.214
-705.602	208.180	0.047	-0.075
-704.587	98.925	-0.143	-0.167
-703.572	-6.211	0.182	0.126
-702.558	123.393	0.104	0.132
-701.543	-17.929	0.233	-0.148
-700.529	-147.574	0.288	0.025
-699.514	-63.684	0.115	0.048
-698.499	-103.447	-0.261	0.062
-697.485	-200.000	-0.011	0.208
-696.470	-114.395	-0.205	-0.040
-695.456	-27.439	-0.109	-0.064
-694.441	800.000	-0.036	-0.119
-693.426	44.801	-0.093	-0.086
-692.412	800.000	-0.066	-0.237
-691.397	129.485	-0.218	-0.282
-690.383	-62.329	0.067	0.028
-689.368	-43.164	-0.164	0.084
-688.354	-65.481	-0.157	0.064
-687.339	-4.819	0.210	0.147
-686.324	108.160	0.076	-0.092
-685.310	-180.566	0.187	0.004
-684.295	-200.000	0.006	-0.184
-683.281	81.451	0.165	0.181
-682.266	228.718	-0.096	-0.158
-681.251	-82.689	-0.134	-0.044
-680.237	317.156	-0.124	0.237
-679.222	53.529	-0.191	-0.186
-678.208	-41.003	-0.222	-0.116
-677.193	251.800	0.044	0.076
-676.178	-22.240	-0.040	-0.025
-675.164	-7.478	0.160	0.110
-674.149	-20.663	-0.303	0.188
-673.135	-200.000	0.058	-0.343
-672.120	-170.070	-0.208	-0.007
-671.105	-18.969	0.067	0.042
-670.091	-200.000	-0.036	-0.162
-669.076	-200.000	-0.029	0.142
-668.062	175.733	-0.069	0.101
-667.047	-200.000	0.016	0.157
-666.032	-200.000	-0.065	-0.332
-665.018	47.545	0.054	0.051
-664.003	49.877	0.099	-0.094
-662.989	-145.152	-0.238	0.022
-661.974	238.988	0.029	-0.049
-660.959	800.000	-0.118	0.349
-659.945	187.645	-0.073	-0.110
-658.930	-200.000	-0.029	-0.310
-657.916	92.966	-0.242	0.277
-656.901	56.454	-0.199	-0.196
-655.886	162.190	-0.229	-0.325
-654.872	758.211	0.131	0.360
-653.857	800.000	0.062	-0.190
-652.843	127.308	0.141	-0.182
-651.828	400.025	0.048	0.101
-650.814	394.913	0.102	-0.215
-649.799	-200.000	-0.054	-0.263
-648.784	-69.662	-0.137	-0.053
-647.770	181.647	0.045	0.068
-646.755	800.000	-0.040	0.130
-645.741	111.149	-0.275	0.335
-644.726	1.064	-0.269	-0.195
-643.711	-55.204	-0.124	-0.056
-642.697	800.000	-0.031	-0.116
-641.682	54.267	-0.117	-0.114
-640.668	-200.000	0.002	-0.080
-639.653	-51.072	-0.240	-0.114
-638.638	-116.966	-0.120	-0.022
-637.624	49.167	-0.109	0.104
-636.609	574.485	-0.067	-0.165
-635.595	175.651	0.059	-0.086
-634.580	-116.940	-0.156	-0.029
-633.565	800.000	-0.059	-0.259
-632.551	-114.194	0.156	0.030
-631.536	-119.340	-0.283	0.050
-630.522	800.000	0.023	-0.082
-629.507	-200.000	0.096	-0.435
-628.492	147.563	0.140	-0.191
-627.478	123.940	0.204	-0.259
-626.463	-10.423	0.269	0.180
-625.449	-200.000	-0.033	0.164
-624.434	-160.252	-0.450	-0.025
-623.419	-200.000	0.014	-0.256
-622.405	-100.994	-0.248	-0.061
-621.390	-200.000	0.003	-0.070
-620.376	118.993	-0.288	0.360
-619.361	655.512	0.118	-0.306
-618.346	165.257	-0.162	0.231
-617.332	-200.000	-0.024	0.236
-616.317	47.214	0.138	-0.130
-615.303	361.653	-0.093	0.189
-614.288	-126.901	0.158	-0.024
-613.273	58.331	-0.173	0.172
-612.259	800.000	-0.106	0.365
-611.244	-8.094	-0.377	0.257
-610.230	-18.797	-0.146	0.092
-609.215	306.309	-0.137	0.258
-608.201	-60.066	-0.179	-0.077
-607.186	-123.703	-0.389	0.062
-606.171	-177.789	-0.322	-0.008
-605.157	-200.000	-0.013	0.188
-604.142	353.338	-0.104	-0.209
-603.128	-96.293	0.168	0.045
-602.113	-200.000	0.007	0.279
-601.098	-117.626	-0.201	0.037
-600.084	-25.208	-0.163	0.098
-599.069	-15.025	0.160	-0.104
-598.055	171.312	0.132	-0.191
-597.040	72.799	0.175	-0.184
-596.025	100.592	-0.070	0.082
-595.011	-31.416	0.079	-0.045
-593.996	-107.672	0.261	-0.058
-592.982	758.369	-0.039	-0.108
-591.967	-108.661	0.134	-0.029
-590.952	-200.000	-0.024	0.290
-589.938	-92.548	0.111	0.032
-588.923	-200.000	-0.038	-0.334
-587.909	646.974	0.105	-0.270
-586.894	606.958	-0.051	0.129
-585.879	-200.000	-0.056	0.250
-584.865	800.000	-0.021	-0.063
-583.850	-200.000	-0.059	0.291
-582.836	-74.318	0.086	0.031
-581.821	800.000	-0.045	0.132
-580.806	-197.490	-0.393	0.002
-579.792	-125.372	0.257	-0.040
-578.777	800.000	0.108	0.414
-577.763	165.484	-0.253	0.361
-576.748	-98.875	0.201	0.051
-575.733	-60.976	0.145	0.062
-574.719	74.285	0.132	0.140
-573.704	-155.158	-0.292	-0.019
-572.690	-104.248	-0.612	0.143
-571.675	-200.000	-0.009	0.300
-570.661	615.238	0.033	0.085
-569.646	207.439	-0.054	0.085
-568.631	-122.225	0.198	-0.033
-567.617	189.698	-0.100	0.151
-566.602	-95.860	-0.296	0.080
-565.588	-61.195	0.292	-0.124
-564.573	637.639	-0.064	0.165
-563.558	-200.000	-0.012	0.077
-562.544	-29.753	-0.239	0.138
-561.529	-71.326	0.092	0.035
-560.515	13.021	0.283	0.221
-559.500	-200.000	-0.021	-0.244
-558.485	-104.768	-0.281	-0.065
-557.471	-39.495	0.282	-0.149
-556.456	374.853	0.024	-0.050
-555.442	-200.000	0.016	0.094
-554.427	246.650	0.051	-0.086
-553.412	-75.534	-0.252	0.090
-552.398	-195.436	-0.311	0.002
-551.383	163.307	0.146	-0.206
-550.369	-188.270	0.412	-0.005
-549.354	414.473	0.050	0.107
-548.339	-115.736	-0.082	0.016
-547.325	-200.000	-0.024	-0.260
-546.310	-200.000	0.016	-0.291
-545.296	83.110	-0.192	-0.210
-544.281	-118.989	-0.150	0.027
-543.266	800.000	-0.041	-0.158
-542.252	800.000	-0.049	0.208
-541.237	133.223	-0.057	0.074
-540.223	-75.188	-0.129	0.047
-539.208	182.101	0.210	-0.312
-538.193	-125.338	0.366	-0.056
-537.179	-113.215	-0.295	-0.058
-536.164	15.984	0.093	0.074
-535.150	800.000	0.061	0.189
-534.135	-108.181	-0.196	-0.043
-533.121	-134.683	0.207	0.025
-532.106	-190.457	-0.307	0.003
-531.091	192.808	0.135	-0.206
-530.077	800.000	0.051	0.143
-529.062	279.075	0.102	0.183
-528.048	83.498	0.137	0.150
-527.033	-200.000	-0.041	-0.182
-526.018	-169.996	-0.212	-0.008
-525.004	-25.683	-0.338	0.201
-523.989	622.397	0.031	0.080
-522.975	-54.960	0.132	-0.060
-521.960	-194.914	-0.371	-0.003
-520.945	-132.229	-0.202	-0.026
-519.931	-200.000	-0.026	-0.137
-518.916	86.325	-0.155	0.172
-517.902	70.935	0.172	-0.180
-516.887	-155.811	0.212	-0.014
-515.872	-66.752	0.453	0.180
-514.858	-200.000	-0.018	-0.238
-513.843	171.210	-0.082	-0.119
-512.829	-53.318	0.174	0.080
-511.814	105.974	-0.114	0.136
-510.799	-115.227	-0.151	0.029
-509.785	-126.676	0.532	-0.079
-508.770	-107.615	-0.144	-0.032
-507.756	-26.929	-0.282	-0.166
-506.741	283.915	0.045	0.082
-505.726	98.610	-0.168	0.195
-504.712	-20.758	-0.224	0.138
-503.697	800.000	0.077	-0.220
-502.683	669.101	-0.059	-0.153
-501.668	-162.907	0.022	-0.001
-500.653	-130.211	0.126	0.017
-499.639	57.054	0.077	-0.076
-498.624	-155.188	0.109	0.007
-497.610	-200.000	0.036	0.311
-496.595	-200.000	0.311	-0.001
-495.581	-148.726	-0.161	-0.013
-494.566	-10.309	0.222	-0.148
-493.551	283.593	-0.229	-0.414
-492.537	-78.929	0.064	-0.022
-491.522	-100.898	-0.208	0.051
-490.508	60.613	0.254	-0.253
-489.493	417.097	0.076	-0.164
-488.478	157.099	-0.118	-0.164
-487.464	-82.935	-0.370	0.120
-486.449	160.768	0.036	-0.051
-485.435	-200.000	0.051	-0.371
-484.420	-84.941	-0.135	-0.042
-483.405	-100.538	0.105	0.026
-482.391	-147.876	0.331	0.028
-481.376	156.636	0.102	-0.142
-480.362	-3.930	-0.238	-0.166
-479.347	-200.000	0.022	-0.362
-478.332	800.000	0.043	-0.141
-477.318	0.744	-0.232	-0.167
-476.303	48.052	0.206	0.193
-475.289	-200.000	-0.012	0.202
-474.274	67.984	0.191	0.197
-473.259	-40.890	0.165	-0.086
-472.245	164.258	-0.114	0.162
-471.230	125.905	-0.146	0.186
-470.216	-115.496	0.199	0.038
-469.201	-145.491	0.036	0.003
-468.186	800.000	-0.189	0.538
-467.172	-200.000	-0.033	-0.496
-466.157	545.880	0.057	-0.137
-465.143	172.396	0.107	0.155
-464.128	-27.071	-0.159	-0.093
-463.113	765.583	-0.020	-0.054
-462.099	-27.466	0.230	0.134
-461.084	153.323	0.037	0.050
-460.070	-120.019	-0.401	-0.069
-459.055	116.527	0.084	-0.103
-458.040	-121.260	-0.299	0.050
-457.026	-125.695	0.142	0.022
-456.011	-63.224	-0.203	0.084
-454.997	-75.330	-0.153	0.055
-453.982	175.536	-0.222	-0.323
-452.968	-200.000	0.003	-0.334
-451.953	-158.562	0.344	0.020
-450.938	-200.000	0.024	0.147
-449.924	-180.891	0.013	-0.000
-448.909	-191.669	-0.128	0.001
-447.895	37.710	-0.365	-0.325
-446.880	-200.000	-0.004	-0.063
-445.865	-131.372	-0.074	0.010
-444.851	-128.212	-0.384	-0.055
-443.836	318.609	-0.083	0.158
-442.822	52.966	-0.255	-0.245
-441.807	-200.000	-0.040	-0.207
-440.792	800.000	-0.064	-0.220
-439.778	-200.000	-0.005	0.071
-438.763	40.245	-0.200	-0.180
-437.749	191.157	0.098	-0.147
-436.734	-67.768	-0.452	0.178
-435.719	45.882	-0.163	0.151
-434.705	-79.921	0.238	-0.080
-433.690	-200.000	-0.001	0.148
-432.676	83.234	-0.049	0.054
-431.661	-200.000	-0.005	0.137
-430.646	-200.000	-0.042	0.231
-429.632	-182.608	-0.302	0.006
-428.617	-29.626	-0.058	-0.033
-427.603	-200.000	0.001	-0.226
-426.588	50.592	-0.004	0.003
-425.573	364.057	0.077	0.155
-424.559	75.229	0.136	-0.144
-423.544	22.973	-0.098	0.080
-422.530	-200.000	0.012	0.161
-421.515	-100.247	0.326	-0.081
-420.500	204.934	-0.109	0.170
-419.486	-200.000	-0.026	0.377
-418.471	-42.976	0.206	0.105
-417.457	65.391	0.147	0.150
-416.442	-200.000	0.004	-0.083
-415.428	94.325	0.128	-0.145
-414.413	63.484	0.191	-0.192
-413.398	-80.900	-0.158	-0.053
-412.384	429.025	0.152	0.329
-411.369	-177.197	-0.082	-0.002
-410.355	-200.000	-0.030	0.189
-409.340	89.667	0.035	-0.039
-408.325	26.944	0.114	-0.096
-407.311	800.000	-0.077	-0.282
-406.296	-158.815	0.619	0.035
-405.282	-200.000	-0.015	-0.078
-404.267	-200.000	0.002	0.049
-403.252	-195.787	0.346	-0.002
-402.238	-63.082	-0.316	0.131
-401.223	-27.839	0.023	-0.013
-400.209	-15.066	-0.224	-0.144
-399.194	-102.204	-0.225	-0.054
-398.179	-84.795	0.117	-0.037
-397.165	258.878	0.099	-0.171
-396.150	-124.642	-0.060	0.009
-395.136	-58.342	-0.255	-0.111
-394.121	42.245	0.059	-0.054
-393.106	-200.000	0.016	-0.316
-392.092	800.000	0.014	0.046
-391.077	242.819	-0.109	-0.183
-390.063	-89.611	0.172	-0.051
-389.048	-151.717	0.255	-0.019
-388.033	21.944	-0.206	-0.169
-387.019	142.366	0.060	0.080
-386.004	800.000	-0.042	0.149
-384.990	40.843	0.217	0.196
-383.975	-63.888	-0.440	0.180
-382.960	-34.248	-0.392	-0.216
-381.946	-150.523	0.383	0.029
-380.931	458.762	-0.030	0.067
-379.917	50.253	0.167	0.158
-378.902	391.486	0.030	0.063
-377.888	71.905	0.044	0.046
-376.873	12.327	-0.161	-0.124
-375.858	-46.111	-0.342	-0.169
-374.844	-77.013	0.271	-0.095
-373.829	14.195	-0.177	-0.138
-372.815	-53.499	-0.199	-0.091
-371.800	57.283	0.298	0.291
-370.785	-19.889	0.080	-0.049
-369.771	800.000	0.112	-0.372
-368.756	-200.000	0.010	-0.215
-367.742	-147.270	0.079	-0.007
-366.727	43.339	0.245	0.224
-365.712	-200.000	-0.051	-0.231
-364.698	-168.752	0.333	-0.013
-363.683	-115.934	0.063	0.012
-362.669	-154.509	0.158	0.011
-361.654	470.153	0.016	-0.036
-360.639	75.041	0.169	-0.179
-359.625	24.867	0.096	0.079
-358.610	-102.890	-0.224	-0.053
-357.596	81.706	0.330	0.357
-356.581	800.000	0.054	-0.179
-355.566	-16.954	-0.513	-0.324
-354.552	-21.180	-0.111	-0.068
-353.537	550.538	0.065	0.155
-352.523	800.000	-0.017	0.057
-351.508	30.120	0.207	-0.177
-350.493	800.000	-0.061	-0.260
-349.479	800.000	-0.042	0.128
-348.464	680.534	0.158	-0.410
-347.450	-86.500	-0.431	0.132
-346.435	-61.069	0.111	0.047
-345.420	-122.913	-0.304	-0.049
-344.406	800.000	0.102	0.354
-343.391	-109.204	-0.172	0.037
-342.377	-91.933	-0.026	-0.007
-341.362	-200.000	-0.001	-0.189
-340.348	-46.057	-0.290	-0.143
-339.333	119.555	-0.124	0.154
-338.318	-131.484	0.464	-0.061
-337.304	800.000	0.044	0.170
-336.289	800.000	0.095	0.303
-335.275	-200.000	-0.015	0.199
-334.260	-67.791	-0.148	0.058
-333.245	78.233	-0.275	-0.294
-332.231	800.000	0.089	-0.284
-331.216	344.995	0.140	-0.275
-330.202	233.923	0.193	0.319
-329.187	92.708	0.202	-0.227
-328.172	-61.145	0.175	-0.074
-327.158	-3.845	0.070	0.049
-326.143	235.952	0.056	-0.093
-325.129	-145.543	0.052	-0.005
-324.114	-200.000	-0.008	0.238
-323.099	19.627	0.284	0.228
-322.085	555.508	-0.032	-0.076
-321.070	12.734	-0.065	0.050
-320.056	-76.963	0.133	0.047
-319.041	800.000	0.024	0.083
-318.026	163.796	0.157	-0.221
-317.012	75.697	0.142	-0.150
-315.997	202.957	-0.020	0.031
-314.983	118.508	0.126	-0.156
-313.968	800.000	-0.020	-0.080
-312.953	-96.940	-0.036	0.009
-311.939	-200.000	0.031	0.275
-310.924	-200.000	-0.016	-0.168
-309.910	800.000	-0.113	0.480
-308.895	-1.307	-0.208	0.147
-307.880	-200.000	0.073	0.361
-306.866	722.249	0.097	-0.258
-305.851	-43.018	-0.124	-0.063
-304.837	-162.679	-0.059	-0.003
-303.822	458.572	-0.113	-0.252
-302.807	-200.000	-0.026	-0.125
-301.793	-66.055	0.042	-0.017
-300.778	-162.577	0.255	-0.013
-299.764	-146.362	0.356	0.031
-298.749	5.482	0.260	0.191
-297.735	-154.205	-0.389	-0.026
-296.720	-118.801	-0.211	0.037
-295.705	365.332	-0.146	-0.293
-294.691	800.000	0.065	0.261
-293.676	56.870	0.071	0.069
-292.662	-92.161	0.228	-0.064
-291.647	-133.963	-0.333	-0.041
-290.632	-117.728	0.131	0.024
-289.618	0.449	-0.095	-0.068
-288.603	-200.000	-0.011	-0.181
-287.589	175.648	0.054	-0.078
-286.574	-51.539	0.417	-0.194
-285.559	113.703	-0.061	-0.074
-284.545	-64.895	-0.128	0.052
-283.530	-78.276	0.219	0.075
-282.516	-101.927	-0.209	0.050
-281.501	800.000	-0.098	0.296
-280.486	-166.757	0.355	-0.015
-279.472	800.000	-0.023	0.080
-278.457	-65.737	0.243	0.097
-277.443	-53.837	-0.198	0.090
-276.428	68.380	0.222	0.227
-275.413	108.117	0.038	0.045
-274.399	800.000	-0.007	0.028
-273.384	800.000	0.105	0.419
-272.370	150.760	0.293	0.397
-271.355	643.145	0.104	0.265
-270.340	21.625	-0.096	-0.078
-269.326	83.783	-0.097	0.106
-268.311	-80.210	0.168	0.056
-267.297	-200.000	0.017	-0.190
-266.282	800.000	0.151	-0.474
-265.267	-10.442	-0.138	0.091
-264.253	-118.788	0.152	-0.027
-263.238	-200.000	0.024	-0.418
-262.224	-89.428	0.157	-0.046
-261.209	-93.173	0.163	-0.045
-260.195	214.599	0.225	0.356
-259.180	163.650	0.138	0.193
-258.165	712.341	-0.038	0.101
-257.151	259.217	-0.201	0.345
-256.136	-11.079	0.329	0.216
-255.122	276.816	-0.213	0.378
-254.107	118.005	0.103	0.127
-253.092	-135.651	0.139	-0.016
-252.078	284.872	-0.085	-0.152
-251.063	-128.100	0.239	0.034
-250.049	73.199	0.114	0.119
-249.034	-48.068	-0.367	0.177
-248.019	800.000	0.021	0.068
-247.005	-200.000	0.006	-0.053
-245.990	-60.669	-0.188	-0.079
-244.976	-28.335	-0.118	0.068
-243.961	-200.000	-0.043	-0.262
-242.946	800.000	0.082	-0.307
-241.932	-86.319	-0.126	0.039
-240.917	-85.949	0.269	0.083
-239.903	331.460	-0.124	0.239
-238.888	-125.701	0.165	-0.025
-237.873	12.092	-0.111	0.085
-236.859	477.845	-0.104	0.234
-235.844	-200.000	0.008	0.190
-234.830	47.029	0.122	0.113
-233.815	423.865	0.085	-0.182
-232.800	156.896	0.204	0.280
-231.786	-200.000	0.044	0.271
-230.771	100.816	0.236	-0.273
-229.757	-200.000	0.007	0.145
-228.742	-200.000	-0.063	0.334
-227.727	-200.000	0.021	-0.192
-226.713	-70.707	0.463	-0.174
-225.698	766.339	0.031	0.085
-224.684	-200.000	0.004	0.201
-223.669	491.880	0.142	0.323
-222.655	85.482	0.163	-0.178
-221.640	-169.094	-0.102	-0.004
-220.625	10.153	0.168	0.127
-219.611	-123.162	0.429	-0.068
-218.596	-200.000	-0.079	-0.354
-217.582	79.216	0.130	0.139
-216.567	-173.191	0.167	0.005
-215.552	800.000	0.117	-0.334
-214.538	9.687	0.275	0.208
-213.523	616.568	-0.078	0.193
-212.509	-174.229	-0.127	-0.004
-211.494	274.808	-0.029	-0.051
-210.479	116.219	0.200	-0.244
-209.465	456.797	-0.134	-0.296
-208.450	-25.905	-0.439	-0.257
-207.436	-60.939	0.167	0.070
-206.421	-200.000	-0.027	-0.314
-205.406	-71.329	-0.283	-0.106
-204.392	105.455	-0.188	-0.221
-203.377	-14.404	0.097	-0.062
-202.363	-14.252	-0.222	0.142
-201.348	-200.000	-0.005	-0.198
-200.333	-96.730	0.142	-0.037
-199.319	-200.000	-0.052	-0.321
-198.304	-87.891	0.246	-0.073
-197.290	-200.000	0.000	0.266
-196.275	-64.932	-0.240	0.096
-195.260	-17.866	-0.302	-0.188
-194.246	43.832	0.170	0.155
-193.231	301.496	0.086	0.159
-192.217	-131.470	-0.222	-0.029
-191.202	-66.093	0.308	-0.122
-190.187	-200.000	0.020	0.214
-189.173	800.000	-0.102	0.341
-188.158	-200.000	-0.021	-0.125
-187.144	119.997	-0.116	-0.143
-186.129	-33.175	-0.169	0.093
-185.114	-142.332	-0.014	-0.001
-184.100	-85.549	-0.385	-0.119
-183.085	800.000	-0.059	0.177
-182.071	-132.809	0.172	0.022
-181.056	171.699	0.115	0.164
-180.042	-91.200	0.199	-0.057
-179.027	-92.115	0.300	0.084
-178.012	-200.000	-0.017	0.341
-176.998	246.817	0.059	0.098
-175.983	279.732	0.237	-0.420
-174.969	-75.909	0.258	-0.091
-173.954	141.542	0.083	-0.110
-172.939	-154.227	0.181	0.012
-171.925	60.198	0.044	0.044
-170.910	800.000	-0.115	-0.419
-169.896	82.304	0.082	0.088
-168.881	-33.593	-0.200	0.110
-167.866	-121.001	-0.132	-0.022
-166.852	38.126	0.403	-0.356
-165.837	14.148	-0.024	-0.019
-164.823	214.949	0.194	0.305
-163.808	-200.000	-0.021	0.171
-162.793	246.822	0.050	-0.084
-161.779	-42.552	0.276	0.140
-160.764	-68.722	-0.106	-0.041
-159.750	16.705	-0.086	-0.068
-158.735	-200.000	-0.025	0.226
-157.720	400.356	0.075	-0.157
-156.706	-38.241	0.179	0.094
-155.691	-36.153	-0.088	0.047
-154.677	-36.162	-0.250	0.134
-153.662	-123.097	-0.223	0.036
-152.647	800.000	0.036	-0.112
-151.633	46.484	-0.171	-0.157
-150.618	-31.348	0.059	0.033
-149.604	-35.037	-0.254	0.137
-148.589	55.502	0.257	0.247
-147.574	65.843	-0.233	0.235
-146.560	29.688	0.234	0.198
-145.545	800.000	0.023	-0.068
-144.531	-89.727	0.153	0.044
-143.516	-98.777	0.093	-0.024
-142.502	-81.981	-0.323	-0.105
-141.487	676.619	0.147	0.380
-140.472	68.198	-0.219	0.223
-139.458	-88.387	0.090	-0.027
-138.443	-4.760	0.151	-0.103
-137.429	57.790	0.266	-0.258
-136.414	-138.749	-0.198	0.021
-135.399	-200.000	-0.005	0.173
-134.385	173.178	0.057	-0.082
-133.370	69.531	0.088	0.090
-132.356	-200.000	-0.043	0.276
-131.341	-200.000	0.024	-0.149
-130.326	-100.676	-0.190	-0.047
-129.312	162.007	-0.210	0.292
-128.297	300.786	-0.110	0.201
-127.283	800.000	-0.152	0.444
-126.268	13.996	-0.218	0.168
-125.253	12.487	0.365	0.279
-124.239	800.000	0.038	-0.110
-123.224	160.297	-0.092	-0.127
-122.210	-122.373	-0.077	-0.012
-121.195	717.929	0.107	0.282
-120.180	-122.824	-0.129	0.021
-119.166	124.084	0.115	0.143
-118.151	-44.371	-0.246	0.122
-117.137	100.931	-0.081	0.094
-116.122	-98.467	0.074	0.019
-115.107	4.983	-0.140	-0.102
-114.093	-171.359	0.333	-0.011
-113.078	-200.000	0.010	0.142
-112.064	-200.000	-0.032	-0.299
-111.049	-104.015	0.327	0.076
-110.034	-61.435	0.402	0.168
-109.020	328.263	-0.079	0.151
-108.005	-69.818	-0.265	0.100
-106.991	-82.900	0.157	0.050
-105.976	-150.483	0.138	-0.010
-104.962	277.724	-0.135	0.237
-103.947	-200.000	-0.000	0.360
-102.932	136.211	-0.198	0.256
-101.918	800.000	-0.087	0.265
-100.903	800.000	0.099	0.273
-99.889	-133.342	0.117	0.015
-98.874	-49.959	-0.234	-0.110
-97.859	683.199	0.075	0.193
-96.845	26.571	0.246	-0.204
-95.830	166.620	-0.214	0.300
-94.816	-57.852	0.120	0.052
-93.801	-161.558	-0.098	-0.005
-92.786	273.594	0.126	0.220
-91.772	-200.000	-0.015	0.158
-90.757	11.728	0.053	0.040
-89.743	198.941	0.127	0.192
-88.728	-200.000	-0.230	0.001
-87.713	156.307	-0.229	0.312
-86.699	-12.017	-0.200	0.130
-85.684	-200.000	0.011	0.195
-84.670	-177.443	0.139	-0.003
-83.655	800.000	-0.077	0.237
-82.640	42.102	0.050	0.045
-81.626	-14.085	-0.138	-0.088
-80.611	143.919	-0.191	-0.253
-79.597	136.811	0.066	0.086
-78.582	-200.000	0.021	0.302
-77.567	229.126	-0.127	0.204
-76.553	106.824	0.191	0.224
-75.538	421.943	-0.169	0.359
-74.524	427.917	0.087	-0.185
-73.509	-10.521	-0.161	-0.106
-72.494	208.627	0.198	-0.306
-71.480	79.718	0.022	0.024
-70.465	-34.541	0.156	0.085
-69.451	-97.518	-0.340	0.087
-68.436	164.358	0.025	-0.035
-67.422	134.214	0.057	-0.073
-66.407	-11.508	-0.318	-0.207
-65.392	-200.000	0.009	0.123
-64.378	-200.000	-0.053	0.277
-63.363	-200.000	-0.021	-0.225
-62.349	-4.176	0.065	-0.045
-61.334	-20.840	-1.189	-0.721
-60.319	52.891	0.508	0.480
-59.305	800.000	-0.312	-1.097
-58.290	211.460	0.596	0.927
-57.276	800.000	0.495	1.402
-56.261	-200.000	97.021	570.745
-55.246	541.832	1387.319	3270.220
-54.232	150.468	2601.657	3494.117
-53.217	113.534	2179.471	2617.165
-52.203	46.036	1630.573	1492.613
-51.188	37.789	1365.387	1199.327
-50.173	34.469	1322.731	1141.976
-49.159	56.600	1371.661	1319.570
-48.144	60.755	1389.492	1361.938
-47.130	38.162	1343.636	1182.296
-46.115	34.415	1325.688	1144.020
-45.100	34.187	1321.118	1138.672
-44.086	34.217	1318.885	1136.880
-43.071	34.059	1316.535	1133.864
-42.057	34.066	1314.236	1131.885
-41.042	34.158	1312.525	1130.910
-40.027	34.198	1310.902	1129.704
-39.013	34.139	1309.266	1127.901
-37.998	34.167	1307.161	1126.207
-36.984	34.276	1305.122	1125.050
-35.969	34.307	1303.772	1124.024
-34.954	34.312	1302.104	1122.574
-33.940	34.263	1300.981	1121.274
-32.925	34.316	1299.233	1120.032
-31.911	34.342	1297.980	1119.059
-30.896	34.321	1296.451	1117.573
-29.881	34.404	1294.967	1116.739
-28.867	34.424	1293.545	1115.584
-27.852	34.379	1292.010	1113.953
-26.838	34.441	1290.619	1113.067
-25.823	34.363	1289.491	1111.597
-24.809	34.303	1288.379	1110.246
-23.794	34.185	1286.772	1108.131
-22.779	34.288	1285.827	1107.872
-21.765	34.318	1284.122	1106.530
-20.750	34.359	1282.992	1105.751
-19.736	34.143	1281.682	1103.329
-18.721	34.191	1280.651	1102.673
-17.706	34.285	1278.977	1101.734
-16.692	34.202	1278.058	1100.416
-15.677	34.263	1276.593	1099.468
-14.663	34.178	1275.957	1098.383
-13.648	34.310	1274.385	1097.747
-12.633	34.271	1273.502	1096.721
-11.619	34.149	1273.082	1095.609
-10.604	34.164	1272.022	1094.740
-9.590	34.204	1270.975	1094.025
-8.575	34.078	1270.116	1092.522
-7.560	34.166	1269.438	1092.399
-6.546	34.117	1268.530	1091.294
-5.531	34.113	1267.598	1090.428
-4.517	34.192	1266.286	1089.708
-3.502	34.161	1265.880	1089.137
-2.487	34.208	1264.812	1088.443
-1.473	34.137	1261.131	1084.828
-0.458	33.258	1246.508	1067.249
0.556	29.956	1229.339	1031.115
1.571	26.558	1234.769	1016.529
2.586	25.717	1251.016	1025.030
3.600	24.730	1240.103	1010.425
4.615	17.875	1164.683	912.376
5.629	7.060	1084.853	795.641
6.644	2.202	1063.220	755.725
7.659	1.816	1060.428	751.770
8.673	1.609	1059.309	749.889
9.688	1.474	1057.979	748.217
10.702	1.996	1056.184	749.446
11.717	8.294	1065.839	787.370
12.731	18.934	1081.042	851.502
13.746	24.214	1087.664	882.880
14.761	25.055	1088.481	887.632
15.775	25.056	1088.226	887.349
16.790	24.882	1087.244	885.609
17.804	24.866	1086.379	884.747
18.819	25.013	1086.106	885.170
19.834	25.076	1085.903	885.241
20.848	25.139	1085.390	885.056
21.863	25.083	1085.094	884.458
22.877	25.024	1084.376	883.502
23.892	25.019	1083.511	882.696
24.907	25.036	1082.595	881.957
25.921	25.023	1081.401	880.840
26.936	25.074	1080.227	880.055
27.950	24.973	1078.512	878.086
28.965	24.837	1077.524	876.540
29.980	24.938	1075.702	875.473
30.994	25.167	1075.056	875.990
32.009	25.258	1073.290	874.915
33.023	24.934	1072.213	872.380
34.038	24.945	1071.854	872.065
35.053	25.118	1070.804	871.974
36.067	25.124	1070.480	871.666
37.082	25.217	1069.285	871.068
38.096	25.353	1068.634	871.117
39.111	25.428	1068.245	871.090
40.126	25.311	1066.247	868.816
41.140	24.846	1065.007	865.478
42.155	24.705	1063.626	863.602
43.169	24.655	1062.725	862.549
44.184	24.780	1061.639	862.195
45.199	24.725	1060.513	860.940
46.213	24.713	1059.865	860.279
47.228	24.903	1059.160	860.543
48.242	24.944	1058.086	859.795
49.257	24.891	1058.251	859.596
50.271	25.302	1056.519	860.083
51.286	25.236	1056.210	859.439
52.301	25.238	1055.170	858.526
53.315	25.110	1054.171	857.028
54.330	24.964	1053.231	855.487
55.344	24.944	1052.962	855.100
56.359	25.062	1051.743	854.594
57.374	24.846	1050.685	852.631
58.388	24.810	1049.751	851.629
59.403	24.754	1049.046	850.714
60.417	24.701	1048.174	849.678
61.432	24.774	1047.478	849.390
62.447	24.848	1046.654	848.996
63.461	24.759	1046.454	848.337
64.476	24.808	1044.787	847.142
65.490	24.647	1044.402	845.992
66.505	24.874	1043.265	846.070
67.520	24.878	1042.527	845.413
68.534	24.483	1041.891	842.960
69.549	24.277	1040.755	840.994
70.563	24.301	1040.189	840.574
71.578	24.288	1039.453	839.844
72.593	24.200	1038.220	838.361
73.607	24.307	1037.938	838.561
74.622	24.706	1037.329	839.871
75.636	24.774	1036.460	839.412
76.651	24.640	1035.633	838.037
77.666	24.355	1035.058	836.166
78.680	24.479	1034.229	836.000
79.695	24.604	1033.627	836.024
80.709	24.611	1033.142	835.591
81.724	24.669	1031.990	834.859
82.739	24.712	1031.421	834.523
83.753	25.149	1030.745	835.942
84.768	25.389	1029.945	836.335
85.782	25.449	1029.488	836.171
86.797	25.345	1028.314	834.657
87.812	25.303	1027.145	833.443
88.826	25.384	1026.441	833.172
89.841	25.352	1025.546	832.223
90.855	25.401	1024.311	831.372
91.870	25.269	1024.008	830.445
92.884	25.253	1022.477	829.052
93.899	25.294	1021.403	828.300
94.914	25.336	1020.851	827.974
95.928	25.183	1019.772	826.318
96.943	24.790	1018.804	823.653
97.957	24.705	1017.380	822.037
98.972	24.659	1016.166	820.772
99.987	24.893	1015.780	821.462
101.001	24.987	1015.300	821.433
102.016	24.996	1014.175	820.490
103.030	24.903	1013.167	819.177
104.045	24.800	1012.269	817.908
105.060	24.749	1011.259	816.785
106.074	24.926	1010.502	816.910
107.089	25.055	1010.412	817.353
108.103	25.156	1008.895	816.517
109.118	24.819	1007.681	813.928
110.133	24.806	1006.729	813.026
111.147	24.622	1005.449	811.088
112.162	24.538	1004.575	809.929
113.176	24.790	1004.269	810.755
114.191	24.631	1003.668	809.478
115.206	24.419	1002.458	807.468
116.220	24.435	1001.447	806.654
117.235	24.615	1000.632	806.740
118.249	24.434	999.777	805.164
119.264	24.315	999.457	804.295
120.279	24.470	998.726	804.336
121.293	24.537	997.487	803.569
122.308	24.411	996.897	802.455
123.322	24.473	995.457	801.504
124.337	24.304	994.336	799.772
125.352	23.879	992.800	796.562
126.366	23.805	991.908	795.447
127.381	24.580	992.031	798.943
128.395	24.885	991.450	799.765
129.410	25.024	990.732	799.737
130.424	24.977	989.740	798.657
131.439	25.058	988.790	798.178
132.454	25.023	987.796	797.148
133.468	24.868	987.114	795.839
134.483	25.128	986.654	796.555
135.497	25.143	986.041	796.054
136.512	25.147	985.158	795.292
137.527	25.297	984.156	795.074
138.541	25.313	983.390	794.456
139.556	25.226	982.316	793.133
140.570	25.414	981.802	793.477
141.585	25.415	980.493	792.355
142.600	25.391	979.472	791.357
143.614	25.573	978.852	791.588
144.629	25.496	978.540	790.926
145.643	25.443	976.819	789.230
146.658	25.177	975.608	787.016
147.673	25.204	974.839	786.445
148.687	25.107	973.605	784.956
149.702	24.946	972.766	783.501
150.716	25.059	971.326	782.769
151.731	24.974	971.339	782.337
152.746	25.337	970.454	783.142
153.760	25.437	969.836	783.009
154.775	25.482	968.845	782.332
155.789	25.315	968.532	781.283
156.804	25.322	967.401	780.336
157.819	25.460	966.561	780.189
158.833	25.574	966.015	780.173
159.848	25.658	964.812	779.494
160.862	25.394	963.558	777.271
161.877	25.446	962.687	776.725
162.892	25.523	961.816	776.287
163.906	25.373	960.486	774.494
164.921	25.390	959.447	773.662
165.935	25.671	958.423	773.977
166.950	25.391	958.007	772.370
167.964	25.502	956.587	771.634
168.979	25.278	955.706	769.895
169.994	25.284	954.923	769.221
171.008	25.624	954.245	770.060
172.023	25.454	953.506	768.670
173.037	25.325	952.473	767.216
174.052	25.145	951.569	765.654
175.067	25.151	951.075	765.213
176.081	25.277	950.692	765.375
177.096	25.242	949.984	764.590
178.110	24.910	948.872	762.214
179.125	24.610	948.411	760.498
180.140	24.769	948.077	760.840
181.154	25.093	947.354	761.568
182.169	25.258	947.405	762.242
183.183	25.325	947.156	762.258
184.198	25.258	946.382	761.283
185.213	25.374	944.833	760.464
186.227	25.520	944.489	760.738
187.242	25.642	943.635	760.498
188.256	25.576	943.261	759.848
189.271	25.668	942.033	759.181
190.286	25.194	941.460	756.655
191.300	24.462	940.253	752.531
192.315	23.865	938.357	748.435
193.329	23.839	937.820	747.833
194.344	24.664	938.610	751.866
195.359	25.191	938.702	754.089
196.373	25.413	937.924	754.333
197.388	25.212	937.349	752.958
198.402	25.294	936.730	752.739
199.417	25.244	936.358	752.165
200.432	25.119	934.925	750.420
201.446	25.064	934.236	749.572
202.461	25.084	933.514	749.009
203.475	24.047	932.049	743.443
204.490	23.351	930.751	739.435
205.504	24.274	931.241	743.612
206.519	25.149	930.739	746.791
207.534	24.951	930.658	745.837
208.548	25.390	930.857	747.757
209.563	25.155	929.342	745.496
210.577	25.130	928.741	744.846
211.592	25.685	928.359	746.777
212.607	25.615	927.257	745.536
213.621	25.554	926.895	744.925
214.636	25.443	926.655	744.207
215.650	25.448	925.097	742.908
216.665	25.642	925.025	743.588
217.680	25.483	924.308	742.288
218.694	24.990	923.397	739.458
219.709	25.061	922.207	738.733
220.723	25.242	922.323	739.503
221.738	25.357	921.496	739.251
222.753	25.280	920.944	738.426
223.767	25.472	920.663	738.923
224.782	25.540	920.230	738.791
225.796	25.709	919.482	738.817
226.811	24.876	918.253	734.349
227.826	24.261	917.118	730.857
228.840	24.505	916.520	731.313
229.855	24.672	915.480	731.102
230.869	24.154	914.728	728.319
231.884	24.639	914.781	730.283
232.899	25.405	914.577	733.181
233.913	25.140	914.057	731.620
234.928	25.216	913.632	731.525
235.942	25.175	912.762	730.596
236.957	24.864	912.311	728.902
237.972	24.911	911.555	728.426
238.986	24.981	910.930	728.145
240.001	25.024	909.968	727.486
241.015	25.007	909.724	727.157
242.030	25.168	909.303	727.411
243.045	25.434	908.772	728.000
244.059	25.468	908.707	728.021
245.074	25.294	907.398	726.205
246.088	24.900	906.208	723.594
247.103	25.352	905.882	725.097
248.117	25.837	906.384	727.392
249.132	26.023	905.644	727.483
250.147	26.115	905.143	727.388
251.161	26.133	905.013	727.291
252.176	26.181	904.116	726.701
253.190	26.347	903.742	727.002
254.205	26.412	903.427	726.949
255.220	26.353	902.676	726.044
256.234	26.311	901.745	725.062
257.249	26.249	900.833	724.014
258.263	26.114	900.030	722.764
259.278	26.214	899.518	722.688
260.293	26.223	899.228	722.428
261.307	26.202	898.389	721.607
262.322	26.021	897.394	720.021
263.336	25.045	895.871	714.845
264.351	24.292	893.881	710.195
265.366	24.323	893.906	710.277
266.380	25.526	893.984	715.064
267.395	25.875	893.741	716.193
268.409	25.770	893.531	715.545
269.424	25.945	893.062	715.800
270.439	25.921	892.499	715.189
271.453	26.055	891.641	714.969
272.468	26.266	891.246	715.427
273.482	26.225	890.927	714.943
274.497	25.832	889.382	712.086
275.512	25.499	888.465	709.974
276.526	25.921	888.712	711.778
277.541	26.070	888.234	711.918
278.555	25.789	887.671	710.297
279.570	25.739	886.832	709.367
280.585	25.925	886.208	709.536
281.599	25.809	885.432	708.394
282.614	25.283	883.946	705.079
283.628	25.327	883.484	704.819
284.643	25.649	883.375	705.936
285.657	25.231	881.871	703.034
286.672	25.013	881.106	701.506
287.687	25.529	881.356	703.666
288.701	25.643	880.676	703.506
289.716	25.267	880.079	701.497
290.730	25.270	879.282	700.809
291.745	24.978	878.008	698.596
292.760	25.267	877.954	699.618
293.774	26.279	878.580	703.998
294.789	26.576	878.246	704.826
295.803	26.633	877.951	704.750
296.818	26.573	877.079	703.752
297.833	26.055	876.006	700.817
298.847	26.133	875.155	700.379
299.862	26.377	875.123	701.236
300.876	26.685	874.759	702.075
301.891	26.388	874.085	700.324
302.906	26.017	873.120	698.054
303.920	26.181	872.911	698.460
304.935	26.455	872.858	699.415
305.949	26.464	871.864	698.588
306.964	26.299	870.960	697.168
307.979	26.312	870.917	697.122
308.993	26.596	870.918	698.154
310.008	26.757	869.616	697.670
311.022	26.504	868.796	695.979
312.037	26.194	868.295	694.324
313.052	26.095	867.103	692.929
314.066	25.084	866.129	688.210
315.081	24.800	865.376	686.458
316.095	25.755	865.840	690.431
317.110	26.178	865.441	691.673
318.125	25.348	863.329	686.752
319.139	24.281	862.442	681.908
320.154	24.306	861.738	681.384
321.168	25.233	862.267	685.283
322.183	25.983	862.446	688.231
323.197	25.927	862.663	688.128
324.212	26.266	861.517	688.446
325.227	26.266	861.035	687.998
326.241	26.211	860.438	687.252
327.256	26.112	859.597	686.144
328.270	26.115	858.908	685.543
329.285	25.819	858.406	683.960
330.300	25.506	857.454	681.954
331.314	25.820	857.114	682.814
332.329	26.279	857.190	684.550
333.343	26.404	856.974	684.792
334.358	26.384	856.490	684.268
335.373	26.355	856.096	683.783
336.387	26.606	856.232	684.782
337.402	26.801	856.129	685.375
338.416	26.793	855.498	684.780
339.431	27.009	854.930	685.078
340.446	26.968	855.084	684.989
341.460	26.795	854.148	683.527
342.475	26.626	853.953	682.673
343.489	26.865	853.083	682.815
344.504	27.154	853.011	683.785
345.519	27.269	852.663	683.879
346.533	27.338	851.978	683.526
347.548	27.407	851.172	683.078
348.562	27.217	851.034	682.196
349.577	26.919	850.654	680.713
350.592	27.153	849.596	680.683
351.606	27.178	849.047	680.275
352.621	26.962	848.006	678.573
353.635	26.727	847.604	677.314
354.650	26.308	845.804	674.253
355.665	25.291	844.430	669.307
356.679	25.707	844.321	670.712
357.694	26.320	843.888	672.591
358.708	26.134	843.305	671.375
359.723	26.616	842.930	672.810
360.738	26.963	842.548	673.732
361.752	27.060	842.415	673.925
362.767	27.299	841.970	674.398
363.781	27.446	841.814	674.759
364.796	27.512	841.627	674.793
365.810	27.519	841.206	674.422
366.825	27.540	840.410	673.801
367.840	27.301	839.566	672.180
368.854	26.910	838.656	669.951
369.869	26.921	838.502	669.809
370.883	26.869	838.313	669.405
371.898	26.678	837.657	668.119
372.913	27.039	837.055	668.908
373.927	27.168	836.421	668.818
374.942	27.233	835.944	668.618
375.956	27.223	836.208	668.731
376.971	27.392	835.913	669.057
377.986	27.571	835.540	669.359
379.000	27.579	834.628	668.599
380.015	27.383	833.660	667.044
381.029	27.473	833.483	667.174
382.044	27.481	833.068	666.813
383.059	27.465	832.301	666.082
384.073	27.554	831.952	666.067
385.088	27.534	831.119	665.268
386.102	27.246	830.496	663.661
387.117	27.268	829.881	663.191
388.132	26.816	828.929	660.723
389.146	26.476	827.629	658.390
390.161	26.879	827.643	659.812
391.175	27.208	827.658	660.962
392.190	26.875	826.804	659.012
393.205	25.484	824.457	652.040
394.219	23.951	822.815	645.127
395.234	23.847	822.505	644.452
396.248	25.647	823.621	651.797
397.263	27.016	824.768	657.610
398.278	26.952	824.435	657.053
399.292	26.665	823.734	655.397
400.307	26.628	823.317	654.875
401.321	26.839	822.566	654.981
402.336	27.328	822.346	656.512
403.350	27.692	822.546	657.929
404.365	28.043	822.361	658.986
405.380	28.344	821.604	659.406
406.394	28.228	821.501	658.846
407.409	28.208	821.072	658.371
408.423	28.144	820.964	657.998
409.438	28.177	820.541	657.720
410.453	28.392	819.511	657.606
411.467	28.307	819.140	656.945
412.482	28.259	819.039	656.636
413.496	28.432	818.326	656.625
414.511	28.357	817.926	655.979
415.526	28.342	817.459	655.490
416.540	28.164	816.810	654.275
417.555	27.887	815.945	652.536
418.569	28.028	815.756	652.830
419.584	27.833	815.517	651.884
420.599	27.669	814.827	650.692
421.613	106.868	1284.182	1446.107
422.628	92.381	1352.598	1446.204
