DTS Sentinel unit serial number:	SN413079Multiplexer serial number:	ORYXHardware model number:	OX4-SRSoftware version number:	ORYX F/W v4.00 Oryx Data Collector v3.7.2.0data status	okinstallation	princeton_trtdifferential loss correction	single-endedforward channel	channel 1reverse channel	N/Adate	2019/09/13time	17:38:35forward acquisition time	60.00reverse acquisition time	0.00gamma	496.2192k internal	0.2301k external	0.2301temperature offset calibration	1.0159default loss term (dB/km)	0.3790temperature slope calibration	1.0000multiplexer offset coefficient	1.0000multiplexer slope coefficient	1.0000fibre end	0.00T internal ref (°C)	35.91T ext. ref 1 (°C)	5.37T ext. ref 2 (°C)	29.33length (m)	temperature (°C)	Stokes	anti-Stokes-747.200	-200.000	0.012	0.151
-746.185	-200.000	-0.075	0.479
-745.171	234.628	0.165	0.278
-744.156	800.000	0.062	0.276
-743.142	110.750	0.144	0.177
-742.127	-200.000	-0.018	0.209
-741.112	-200.000	0.008	0.068
-740.098	-187.249	0.145	0.002
-739.083	9.365	0.259	-0.200
-738.069	-32.540	-0.251	0.142
-737.054	-200.000	0.021	0.109
-736.039	-167.076	0.231	-0.010
-735.025	-200.000	-0.007	0.060
-734.010	-41.147	-0.184	-0.097
-732.996	26.248	-0.212	-0.181
-731.981	-141.517	-0.034	-0.003
-730.966	-200.000	-0.002	-0.028
-729.952	-145.415	0.303	0.028
-728.937	-27.688	-0.293	-0.174
-727.923	150.822	-0.169	-0.233
-726.908	-42.378	-0.235	-0.122
-725.894	-157.412	0.137	0.008
-724.879	-200.000	-0.020	-0.344
-723.864	-200.000	-0.001	0.147
-722.850	325.061	-0.134	0.262
-721.835	37.510	-0.143	0.130
-720.821	98.930	0.218	-0.256
-719.806	800.000	-0.123	-0.466
-718.791	-6.790	0.242	-0.168
-717.777	20.533	0.127	0.104
-716.762	800.000	-0.122	0.450
-715.748	2.421	-0.064	-0.047
-714.733	-200.000	-0.022	0.149
-713.718	-92.216	0.137	0.039
-712.704	800.000	0.042	-0.145
-711.689	98.212	0.141	0.165
-710.675	-46.224	0.225	-0.113
-709.660	-3.571	0.103	0.073
-708.645	497.927	-0.102	-0.239
-707.631	-79.148	-0.217	0.075
-706.616	5.095	0.024	-0.018
-705.602	-96.406	0.224	0.060
-704.587	248.434	-0.041	0.071
-703.572	238.615	0.100	-0.169
-702.558	-71.973	0.059	-0.022
-701.543	-75.194	-0.212	-0.077
-700.529	-103.537	0.114	-0.027
-699.514	-200.000	-0.001	-0.062
-698.499	-34.377	-0.150	-0.084
-697.485	307.107	0.203	-0.386
-696.470	-100.310	-0.185	-0.047
-695.456	-66.733	-0.118	-0.048
-694.441	-16.608	-0.241	-0.155
-693.426	-168.838	-0.409	0.016
-692.412	-85.496	0.082	-0.026
-691.397	-19.489	0.031	-0.020
-690.383	-27.831	0.087	0.051
-689.368	-81.401	0.313	0.105
-688.354	412.530	-0.103	-0.223
-687.339	-112.143	0.172	-0.035
-686.324	800.000	0.035	0.144
-685.310	159.835	-0.093	-0.132
-684.295	-82.809	0.138	0.045
-683.281	-200.000	0.013	0.240
-682.266	21.602	0.128	-0.106
-681.251	800.000	0.132	0.421
-680.237	206.069	0.164	0.259
-679.222	-154.582	-0.198	-0.013
-678.208	33.433	-0.141	-0.125
-677.193	-200.000	0.002	-0.303
-676.178	0.306	0.264	-0.192
-675.164	-31.370	-0.170	-0.097
-674.149	87.247	0.079	0.089
-673.135	-133.999	0.186	-0.023
-672.120	89.201	-0.111	0.126
-671.105	-142.675	-0.096	-0.010
-670.091	162.120	0.203	-0.290
-669.076	358.656	0.106	-0.215
-668.062	-159.889	-0.206	-0.011
-667.047	-200.000	0.003	-0.281
-666.032	-73.056	-0.100	0.037
-665.018	92.711	0.406	-0.466
-664.003	-171.454	0.283	-0.010
-662.989	-200.000	-0.008	0.251
-661.974	-156.197	-0.073	-0.005
-660.959	254.722	-0.171	-0.298
-659.945	71.511	-0.354	-0.373
-658.930	17.247	-0.133	0.107
-657.916	212.785	-0.071	0.114
-656.901	141.454	0.127	-0.171
-655.886	-101.542	-0.165	0.041
-654.872	263.054	-0.151	0.266
-653.857	78.036	-0.149	-0.161
-652.843	-108.177	-0.176	0.039
-651.828	203.451	-0.075	0.119
-650.814	-46.166	0.153	0.077
-649.799	-67.080	-0.150	0.060
-648.784	-186.293	-0.551	-0.008
-647.770	-200.000	-0.031	0.421
-646.755	29.419	0.169	-0.146
-645.741	279.470	-0.113	-0.204
-644.726	-93.120	-0.215	-0.061
-643.711	-200.000	-0.045	0.223
-642.697	-86.896	0.329	-0.102
-641.682	-102.030	-0.562	0.138
-640.668	325.182	0.040	-0.078
-639.653	332.116	0.156	-0.305
-638.638	-89.908	-0.176	0.052
-637.624	8.927	0.252	-0.193
-636.609	-43.231	0.192	0.099
-635.595	169.148	-0.130	-0.189
-634.580	-36.857	0.041	-0.022
-633.565	-68.849	-0.252	-0.099
-632.551	-200.000	-0.039	0.322
-631.536	144.095	0.221	0.299
-630.522	-131.971	-0.350	0.046
-629.507	-128.354	0.321	0.046
-628.492	-113.404	-0.332	-0.066
-627.478	100.464	0.233	-0.274
-626.463	282.824	0.151	0.275
-625.449	-46.046	-0.385	-0.192
-624.434	-200.000	0.019	-0.221
-623.419	800.000	0.016	-0.048
-622.405	-152.902	-0.266	0.019
-621.390	-200.000	0.008	0.156
-620.376	800.000	-0.036	0.127
-619.361	800.000	-0.083	-0.245
-618.346	325.837	0.076	-0.147
-617.332	108.051	0.172	-0.208
-616.317	122.787	0.127	0.161
-615.303	800.000	-0.086	0.247
-614.288	-109.168	-0.228	-0.049
-613.273	-200.000	-0.004	0.158
-612.259	-200.000	-0.022	-0.208
-611.244	-77.540	0.482	-0.169
-610.230	26.149	0.157	-0.133
-609.215	800.000	0.045	-0.155
-608.201	800.000	-0.034	-0.139
-607.186	-82.059	-0.242	0.080
-606.171	-200.000	-0.017	-0.373
-605.157	-5.529	0.039	-0.027
-604.142	43.440	-0.018	-0.017
-603.128	-24.905	-0.227	-0.136
-602.113	-52.098	0.157	0.074
-601.098	-152.765	0.240	-0.017
-600.084	57.291	-0.201	0.199
-599.069	-200.000	-0.001	0.280
-598.055	40.831	-0.165	-0.151
-597.040	-30.937	0.267	-0.153
-596.025	-200.000	0.024	0.213
-595.011	286.256	0.081	0.149
-593.996	-24.747	0.089	-0.054
-592.982	-7.810	-0.242	-0.166
-591.967	548.318	0.071	-0.172
-590.952	429.536	-0.078	0.171
-589.938	-74.189	-0.153	-0.056
-588.923	460.665	0.182	-0.412
-587.909	159.044	0.098	0.139
-586.894	800.000	0.040	-0.151
-585.879	-105.233	-0.214	-0.050
-584.865	194.709	-0.117	0.179
-583.850	-48.243	0.031	-0.015
-582.836	-96.267	0.194	0.052
-581.821	18.377	-0.117	0.095
-580.806	701.163	0.101	0.270
-579.792	213.960	0.116	0.185
-578.777	491.970	-0.121	0.281
-577.763	73.278	0.303	0.321
-576.748	10.819	0.121	0.093
-575.733	62.507	0.146	0.147
-574.719	800.000	-0.040	0.120
-573.704	-200.000	0.002	-0.206
-572.690	-200.000	-0.051	0.349
-571.675	150.297	-0.271	0.373
-570.661	-200.000	0.011	0.315
-569.646	-172.200	0.107	0.003
-568.631	-68.196	-0.300	-0.118
-567.617	-67.817	-0.314	-0.124
-566.602	59.923	-0.107	0.107
-565.588	166.669	0.089	-0.128
-564.573	-200.000	0.017	-0.188
-563.558	-139.729	-0.154	-0.017
-562.544	-103.212	0.336	0.080
-561.529	-12.979	0.204	-0.134
-560.515	-200.000	-0.090	-0.442
-559.500	-70.343	-0.194	0.075
-558.485	140.413	-0.125	-0.166
-557.471	360.416	0.179	-0.363
-556.456	-200.000	-0.000	-0.027
-555.442	-129.650	-0.232	-0.032
-554.427	-142.223	0.256	0.026
-553.412	-146.319	-0.118	-0.010
-552.398	-72.230	-0.307	0.115
-551.383	800.000	-0.007	-0.023
-550.369	-117.629	0.411	-0.075
-549.354	17.930	0.239	-0.193
-548.339	42.636	0.200	0.184
-547.325	800.000	-0.082	-0.232
-546.310	316.635	-0.147	0.280
-545.296	-200.000	0.038	0.444
-544.281	-200.000	-0.007	0.425
-543.266	316.032	0.073	-0.140
-542.252	81.572	-0.137	0.150
-541.237	-75.843	-0.134	0.048
-540.223	-15.053	0.302	-0.196
-539.208	17.831	0.143	-0.115
-538.193	50.933	-0.335	-0.321
-537.179	26.345	0.111	0.094
-536.164	-6.673	-0.241	0.166
-535.150	41.791	0.183	0.167
-534.135	73.276	0.097	-0.103
-533.121	336.562	0.302	-0.594
-532.106	96.756	-0.233	-0.270
-531.091	-146.545	0.139	0.012
-530.077	-200.000	-0.026	-0.142
-529.062	-200.000	0.004	-0.224
-528.048	-99.869	-0.266	-0.067
-527.033	-200.000	0.076	-0.661
-526.018	141.488	-0.185	0.247
-525.004	118.293	-0.149	0.186
-523.989	78.142	-0.264	-0.285
-522.975	124.691	0.121	0.155
-521.960	800.000	0.063	0.211
-520.945	21.360	0.245	0.201
-519.931	40.495	-0.111	-0.101
-518.916	-96.515	-0.427	-0.114
-517.902	187.980	0.095	0.143
-516.887	246.403	-0.131	-0.223
-515.872	-200.000	0.047	-0.211
-514.858	-106.276	-0.123	-0.028
-513.843	-33.296	-0.172	0.096
-512.829	-200.000	-0.070	0.459
-511.814	-200.000	0.003	0.151
-510.799	-200.000	-0.016	0.225
-509.785	-21.834	-0.074	0.046
-508.770	727.496	0.113	-0.305
-507.756	624.038	0.087	0.223
-506.741	-200.000	0.007	0.279
-505.726	-75.460	0.262	-0.094
-504.712	-100.048	0.088	0.022
-503.697	800.000	0.138	0.424
-502.683	-128.514	0.042	0.006
-501.668	-115.264	-0.094	-0.018
-500.653	800.000	-0.098	-0.287
-499.639	-67.907	0.177	-0.070
-498.624	564.099	0.086	-0.211
-497.610	41.319	-0.204	-0.187
-496.595	-19.840	0.379	-0.236
-495.581	211.837	-0.112	0.179
-494.566	271.024	0.032	-0.057
-493.551	41.295	-0.116	-0.106
-492.537	-200.000	-0.028	0.233
-491.522	-159.661	-0.421	-0.024
-490.508	72.514	0.239	0.251
-489.493	-108.272	0.338	0.074
-488.478	-103.055	-0.343	0.082
-487.464	113.985	-0.118	-0.145
-486.449	-187.273	0.103	-0.001
-485.435	-178.534	0.378	-0.009
-484.420	-11.357	0.132	-0.088
-483.405	100.501	-0.108	0.127
-482.391	-200.000	-0.009	-0.209
-481.376	-135.071	-0.161	-0.020
-480.362	-184.110	0.270	-0.005
-479.347	-200.000	0.000	-0.104
-478.332	-200.000	0.074	0.495
-477.318	-200.000	-0.010	-0.118
-476.303	-90.995	-0.268	-0.078
-475.289	-134.971	-0.205	-0.025
-474.274	-78.256	0.097	-0.034
-473.259	-200.000	0.012	-0.329
-472.245	20.340	0.342	0.278
-471.230	-169.880	-0.080	-0.003
-470.216	-170.681	0.006	-0.000
-469.201	-34.844	0.073	-0.040
-468.186	-110.799	-0.294	0.061
-467.172	30.247	0.106	-0.091
-466.157	-200.000	0.005	-0.121
-465.143	-98.173	-0.360	0.093
-464.128	45.802	0.298	0.278
-463.113	129.584	0.057	-0.073
-462.099	-42.104	0.099	0.051
-461.084	-16.780	0.185	-0.118
-460.070	-200.000	0.041	-0.194
-459.055	-78.140	-0.279	0.097
-458.040	173.349	0.160	0.233
-457.026	128.618	0.081	-0.104
-456.011	-14.235	0.150	-0.098
-454.997	-124.178	0.285	0.045
-453.982	800.000	0.170	0.475
-452.968	245.594	0.099	-0.169
-451.953	-144.779	-0.340	-0.031
-450.938	-33.271	-0.400	-0.223
-449.924	4.433	-0.194	0.143
-448.909	-200.000	0.005	0.138
-447.895	-100.559	0.153	-0.038
-446.880	-65.696	0.259	0.105
-445.865	443.540	-0.063	0.140
-444.851	27.775	0.198	0.168
-443.836	-20.178	0.124	0.077
-442.822	228.271	-0.061	-0.100
-441.807	68.331	0.150	-0.155
-440.792	-200.000	-0.059	-0.331
-439.778	-160.021	-0.234	-0.013
-438.763	80.147	0.140	-0.151
-437.749	800.000	-0.018	0.065
-436.734	-164.518	0.128	0.006
-435.719	173.414	-0.143	0.208
-434.705	-200.000	0.003	-0.140
-433.690	-125.831	0.172	0.026
-432.676	-132.085	-0.195	0.025
-431.661	-12.160	0.221	0.146
-430.646	-90.360	-0.162	0.047
-429.632	-64.481	0.141	0.058
-428.617	800.000	-0.115	-0.322
-427.603	61.646	0.177	-0.177
-426.588	-97.740	0.218	-0.057
-425.573	111.156	-0.200	-0.243
-424.559	-175.180	0.258	-0.007
-423.544	-137.932	0.257	0.029
-422.530	11.773	-0.173	-0.134
-421.515	242.381	0.192	0.323
-420.500	-50.477	-0.267	0.127
-419.486	158.304	0.082	0.114
-418.471	-200.000	-0.059	0.266
-417.457	-156.349	-0.270	0.017
-416.442	-13.948	-0.099	-0.065
-415.428	152.791	-0.178	-0.245
-414.413	127.349	-0.066	0.084
-413.398	-11.602	-0.524	0.347
-412.384	-71.702	0.325	0.122
-411.369	-200.000	-0.031	0.224
-410.355	11.278	0.032	0.025
-409.340	97.316	0.086	-0.099
-408.325	-164.374	-0.137	0.006
-407.311	-200.000	-0.030	0.257
-406.296	54.729	0.213	0.207
-405.282	678.178	-0.127	-0.332
-404.267	321.658	-0.140	-0.268
-403.252	239.890	0.061	-0.102
-402.238	-200.000	0.021	-0.311
-401.223	-200.000	0.039	0.217
-400.209	-118.445	-0.233	-0.042
-399.194	800.000	-0.019	0.064
-398.179	-111.433	-0.160	0.033
-397.165	410.783	-0.094	0.201
-396.150	-12.573	0.195	0.128
-395.136	42.520	0.175	0.161
-394.121	-50.993	-0.194	-0.092
-393.106	-200.000	0.018	-0.228
-392.092	-52.546	0.090	-0.042
-391.077	-200.000	0.021	-0.170
-390.063	-146.105	0.132	0.012
-389.048	-134.297	-0.110	-0.014
-388.033	108.150	-0.137	0.165
-387.019	800.000	-0.137	-0.474
-386.004	-131.897	-0.315	0.041
-384.990	-77.971	-0.372	0.129
-383.975	91.301	-0.041	-0.047
-382.960	-200.000	0.001	0.039
-381.946	800.000	-0.097	0.277
-380.931	800.000	-0.037	0.157
-379.917	-82.131	-0.088	0.029
-378.902	218.418	0.164	0.263
-377.888	150.691	-0.091	0.124
-376.873	96.125	0.132	-0.151
-375.858	-119.684	-0.295	-0.051
-374.844	88.005	0.216	-0.241
-373.829	32.172	0.337	-0.293
-372.815	-100.391	-0.263	-0.065
-371.800	-91.821	0.309	0.088
-370.785	-47.404	0.330	0.161
-369.771	800.000	0.040	0.161
-368.756	-200.000	0.062	-0.323
-367.742	-200.000	-0.040	0.397
-366.727	800.000	0.046	-0.170
-365.712	116.852	-0.096	-0.118
-364.698	3.031	-0.194	-0.142
-363.683	-101.868	0.047	-0.011
-362.669	-200.000	-0.025	0.132
-361.654	-198.638	-0.300	-0.002
-360.639	361.457	0.132	0.265
-359.625	-200.000	-0.007	-0.165
-358.610	29.691	-0.030	0.025
-357.596	800.000	-0.152	0.455
-356.581	26.115	-0.163	-0.137
-355.566	215.369	0.053	-0.085
-354.552	-200.000	-0.046	-0.201
-353.537	425.391	-0.125	0.270
-352.523	65.555	0.079	0.080
-351.508	-189.705	0.289	-0.003
-350.493	-112.369	0.340	0.068
-349.479	4.231	-0.111	-0.082
-348.464	-15.019	-0.240	0.154
-347.450	111.854	-0.169	0.205
-346.435	-1.634	-0.365	-0.258
-345.420	111.677	-0.091	0.110
-344.406	-106.138	-0.093	-0.021
-343.391	-159.305	-0.096	-0.005
-342.377	-67.219	0.022	-0.009
-341.362	800.000	0.058	-0.238
-340.348	-34.464	0.160	-0.088
-339.333	-142.808	-0.202	0.020
-338.318	-68.527	0.337	0.131
-337.304	-200.000	-0.065	-0.322
-336.289	-200.000	0.025	-0.325
-335.275	-20.938	0.120	0.073
-334.260	-200.000	-0.007	-0.324
-333.245	-190.554	0.311	0.003
-332.231	59.025	0.151	-0.149
-331.216	271.871	0.196	0.346
-330.202	82.650	0.127	0.138
-329.187	-110.550	-0.199	-0.041
-328.172	379.004	0.089	-0.182
-327.158	-105.302	0.269	-0.062
-326.143	87.991	0.164	-0.182
-325.129	-102.850	0.195	0.046
-324.114	-80.318	-0.131	-0.044
-323.099	104.269	-0.068	-0.080
-322.085	-156.916	-0.233	-0.014
-321.070	800.000	0.025	-0.085
-320.056	24.595	-0.162	0.134
-319.041	-200.000	0.011	-0.198
-318.026	800.000	0.026	-0.096
-317.012	-56.267	0.416	0.186
-315.997	187.733	0.177	-0.264
-314.983	3.570	0.060	0.044
-313.968	800.000	-0.083	0.336
-312.953	197.198	0.012	0.018
-311.939	-57.495	0.265	-0.116
-310.924	-85.934	-0.087	0.027
-309.910	-90.681	0.168	0.049
-308.895	-200.000	0.025	-0.228
-307.880	591.648	0.097	0.240
-306.866	34.261	0.128	-0.112
-305.851	-112.592	-0.223	0.044
-304.837	365.608	-0.194	0.392
-303.822	-200.000	0.012	0.230
-302.807	-200.000	0.053	0.471
-301.793	800.000	0.129	0.358
-300.778	-200.000	-0.023	-0.385
-299.764	-34.899	-0.419	-0.229
-298.749	101.079	-0.182	-0.212
-297.735	41.503	0.093	0.084
-296.720	117.287	-0.264	0.325
-295.705	-104.435	-0.269	0.062
-294.691	710.999	-0.078	-0.206
-293.676	-93.206	0.093	-0.026
-292.662	-200.000	0.009	-0.053
-291.647	-200.000	0.061	-0.336
-290.632	493.696	0.183	-0.421
-289.618	62.654	-0.208	0.208
-288.603	-200.000	-0.007	-0.288
-287.589	-200.000	-0.020	0.131
-286.574	714.014	0.085	-0.225
-285.559	-144.733	-0.096	-0.009
-284.545	677.997	0.025	-0.065
-283.530	-200.000	0.016	-0.398
-282.516	10.875	-0.073	0.056
-281.501	-104.590	-0.295	0.068
-280.486	-200.000	0.314	-0.000
-279.472	182.836	0.070	-0.103
-278.457	245.625	0.128	-0.216
-277.443	170.133	-0.115	0.165
-276.428	800.000	0.071	-0.247
-275.413	-47.347	-0.224	0.109
-274.399	-200.000	-0.044	-0.200
-273.384	-8.922	-0.329	-0.221
-272.370	-103.577	-0.147	-0.035
-271.355	-66.417	-0.127	0.050
-270.340	228.185	0.091	0.148
-269.326	-54.588	0.066	0.030
-268.311	-190.155	0.182	0.002
-267.297	-126.755	0.287	-0.042
-266.282	-143.443	-0.321	-0.031
-265.267	273.356	0.063	0.111
-264.253	-39.394	0.287	-0.151
-263.238	-200.000	0.056	0.286
-262.224	338.570	-0.134	-0.260
-261.209	-200.000	-0.009	-0.224
-260.195	213.929	0.027	0.042
-259.180	-7.443	-0.203	-0.137
-258.165	-200.000	-0.008	0.079
-257.151	-84.262	0.585	-0.185
-256.136	100.031	-0.237	0.275
-255.122	-91.016	0.090	-0.026
-254.107	-200.000	-0.017	0.106
-253.092	764.404	0.030	0.082
-252.078	-81.521	0.463	0.152
-251.063	-118.958	-0.287	0.050
-250.049	165.570	0.243	0.343
-249.034	800.000	-0.046	-0.142
-248.019	19.344	0.088	0.070
-247.005	800.000	0.048	0.195
-245.990	153.188	0.094	0.129
-244.976	-143.124	0.381	-0.037
-243.961	-55.378	0.199	0.089
-242.946	707.996	0.021	-0.055
-241.932	326.976	-0.120	0.229
-240.917	-200.000	-0.094	-0.564
-239.903	-94.724	-0.263	-0.071
-238.888	41.431	0.123	-0.112
-237.873	-60.703	-0.065	-0.028
-236.859	-200.000	-0.009	0.126
-235.844	-200.000	0.015	-0.105
-234.830	-128.357	-0.207	-0.029
-233.815	-55.686	-0.350	-0.156
-232.800	615.645	0.024	0.060
-231.786	800.000	-0.058	-0.176
-230.771	134.901	0.135	0.175
-229.757	-26.692	-0.098	-0.058
-228.742	2.116	0.210	0.152
-227.727	530.719	-0.078	-0.184
-226.713	-79.532	0.211	0.071
-225.698	-41.284	0.058	0.030
-224.684	-200.000	0.023	0.253
-223.669	89.336	-0.018	-0.020
-222.655	229.905	-0.117	0.191
-221.640	800.000	-0.037	0.113
-220.625	5.459	-0.148	-0.109
-219.611	89.384	0.109	0.121
-218.596	-104.207	0.177	-0.041
-217.582	233.866	0.252	0.415
-216.567	-65.104	-0.275	-0.111
-215.552	-85.614	-0.166	0.051
-214.538	191.663	-0.012	0.018
-213.523	97.624	-0.106	-0.122
-212.509	120.367	0.121	0.150
-211.494	211.899	0.065	0.102
-210.479	-103.834	0.460	0.107
-209.465	184.040	-0.046	-0.068
-208.450	-68.791	0.316	-0.122
-207.436	150.424	-0.035	0.048
-206.421	-200.000	-0.026	-0.136
-205.406	-166.269	0.175	0.007
-204.392	205.608	-0.077	-0.120
-203.377	-108.007	0.425	0.092
-202.363	75.331	0.123	0.129
-201.348	126.555	0.236	-0.298
-200.333	81.912	-0.183	0.198
-199.319	-200.000	0.022	0.183
-198.304	13.169	0.280	0.216
-197.290	-114.786	0.169	-0.032
-196.275	81.874	-0.085	0.091
-195.260	413.136	0.067	-0.143
-194.246	-72.807	-0.058	-0.021
-193.231	341.205	-0.043	-0.084
-192.217	-200.000	-0.022	0.164
-191.202	-30.614	-0.277	0.156
-190.187	-15.764	-0.151	0.096
-189.173	-57.298	-0.316	0.139
-188.158	123.045	-0.147	-0.183
-187.144	-7.409	0.209	0.141
-186.129	800.000	-0.054	-0.214
-185.114	-100.758	-0.263	-0.065
-184.100	-76.731	0.306	-0.107
-183.085	-109.719	-0.176	-0.037
-182.071	346.086	0.057	0.111
-181.056	-17.984	0.142	0.089
-180.042	-0.637	-0.252	-0.178
-179.027	800.000	-0.046	0.140
-178.012	-98.102	-0.204	-0.052
-176.998	-200.000	-0.013	-0.300
-175.983	-200.000	-0.027	-0.246
-174.969	241.131	-0.124	-0.206
-173.954	-58.103	-0.182	-0.079
-172.939	7.873	0.159	-0.119
-171.925	668.677	0.045	-0.115
-170.910	-200.000	0.002	-0.126
-169.896	-147.844	-0.269	-0.022
-168.881	-200.000	0.032	0.156
-167.866	800.000	-0.016	0.045
-166.852	-127.338	0.221	0.032
-165.837	-46.165	-0.333	0.164
-164.823	-114.767	0.162	0.031
-163.808	-25.599	0.117	0.069
-162.793	-86.510	0.238	0.073
-161.779	225.809	0.091	0.147
-160.764	3.363	0.100	0.073
-159.750	800.000	-0.090	0.325
-158.735	210.988	-0.055	0.087
-157.720	217.489	-0.047	-0.075
-156.706	91.367	-0.052	-0.058
-155.691	275.446	0.051	0.090
-154.677	146.189	0.064	-0.085
-153.662	-156.047	-0.234	0.015
-152.647	60.895	0.409	0.405
-151.633	-75.393	0.071	-0.025
-150.618	39.488	0.142	-0.126
-149.604	27.174	-0.143	-0.120
-148.589	93.348	-0.185	0.208
-147.574	-104.188	0.286	-0.066
-146.560	160.394	-0.075	0.104
-145.545	-24.804	0.055	-0.033
-144.531	67.987	0.162	-0.165
-143.516	-193.885	-0.437	-0.004
-142.502	-200.000	-0.011	0.145
-141.487	-79.794	-0.211	0.071
-140.472	-28.763	-0.234	-0.134
-139.458	-11.651	-0.288	-0.188
-138.443	-94.272	-0.118	0.032
-137.429	196.851	-0.221	0.335
-136.414	17.978	0.276	-0.219
-135.399	-200.000	-0.026	-0.153
-134.385	-200.000	0.021	-0.121
-133.370	-23.021	-0.206	0.124
-132.356	-17.165	0.190	-0.119
-131.341	-45.652	0.255	0.126
-130.326	-200.000	-0.070	-0.309
-129.312	-12.888	0.245	0.159
-128.297	89.633	0.253	-0.281
-127.283	106.596	0.070	0.082
-126.268	-98.635	-0.188	0.048
-125.253	-200.000	0.008	-0.130
-124.239	-149.292	0.138	0.011
-123.224	268.248	-0.138	-0.241
-122.210	-200.000	-0.009	0.201
-121.195	-77.752	0.128	0.044
-120.180	-137.392	-0.243	0.027
-119.166	40.546	-0.149	0.134
-118.151	-73.146	0.264	0.096
-117.137	-200.000	0.035	-0.243
-116.122	-170.391	-0.091	-0.003
-115.107	-159.652	0.080	0.004
-114.093	-144.997	-0.214	0.019
-113.078	800.000	-0.122	-0.335
-112.064	26.346	-0.073	0.061
-111.049	-75.458	-0.093	-0.033
-110.034	117.474	-0.120	-0.146
-109.020	-85.055	0.164	-0.051
-108.005	-84.928	-0.218	-0.068
-106.991	-17.697	0.256	-0.160
-105.976	98.982	0.081	0.093
-104.962	-200.000	-0.004	-0.168
-103.947	-62.971	0.414	0.170
-102.932	137.553	0.261	0.340
-101.918	168.619	-0.109	0.155
-100.903	-200.000	-0.011	-0.070
-99.889	134.040	-0.241	-0.311
-98.874	53.158	-0.227	0.216
-97.859	-164.226	0.336	0.015
-96.845	-5.840	-0.048	0.033
-95.830	-151.521	0.237	0.017
-94.816	800.000	0.049	-0.135
-93.801	274.623	-0.064	-0.113
-92.786	36.152	-0.163	-0.143
-91.772	442.070	-0.117	0.254
-90.757	-97.969	0.196	-0.050
-89.743	-23.364	-0.062	-0.037
-88.728	-137.343	-0.073	-0.008
-87.713	18.926	-0.148	-0.118
-86.699	162.928	-0.104	0.145
-85.684	-200.000	-0.079	0.390
-84.670	79.965	0.104	0.111
-83.655	626.300	-0.080	-0.200
-82.640	72.557	-0.131	0.136
-81.626	-172.090	0.128	0.004
-80.611	125.923	0.147	-0.185
-79.597	548.198	0.127	-0.303
-78.582	95.885	-0.063	-0.072
-77.567	-116.493	-0.277	-0.051
-76.553	124.768	-0.043	0.053
-75.538	-37.643	-0.197	0.104
-74.524	156.712	-0.047	-0.065
-73.509	-63.317	-0.153	0.062
-72.494	322.028	-0.108	-0.204
-71.480	187.130	0.063	0.094
-70.465	322.300	0.082	0.154
-69.451	-76.916	-0.138	0.048
-68.436	-6.811	0.145	-0.098
-67.422	-139.925	-0.314	0.033
-66.407	-200.000	-0.029	0.295
-65.392	800.000	0.076	0.227
-64.378	-62.993	-0.192	0.079
-63.363	-78.191	-0.349	0.119
-62.349	96.139	-0.173	-0.196
-61.334	30.973	-0.956	-0.814
-60.319	403.780	0.334	0.698
-59.305	130.375	-0.403	-0.513
-58.290	191.545	0.736	1.100
-57.276	600.843	0.662	1.631
-56.261	-200.000	94.198	555.163
-55.246	614.857	1384.561	3443.900
-54.232	186.264	2596.563	3834.577
-53.217	122.677	2191.761	2721.062
-52.203	47.594	1643.979	1521.861
-51.188	39.371	1377.920	1224.640
-50.173	36.076	1335.322	1166.819
-49.159	56.916	1382.704	1337.001
-48.144	61.017	1400.748	1379.620
-47.130	39.702	1355.987	1206.980
-46.115	36.013	1338.405	1168.945
-45.100	35.790	1333.487	1163.256
-44.086	35.738	1330.828	1160.579
-43.071	35.654	1328.903	1158.347
-42.057	35.793	1326.523	1157.059
-41.042	35.772	1324.740	1155.332
-40.027	35.808	1323.209	1154.170
-39.013	35.866	1320.907	1152.464
-37.998	35.823	1319.182	1150.655
-36.984	36.043	1317.069	1150.080
-35.969	36.010	1315.627	1148.580
-34.954	35.831	1314.293	1146.304
-33.940	35.954	1312.932	1145.799
-32.925	36.001	1311.036	1144.379
-31.911	36.047	1309.489	1143.259
-30.896	35.870	1308.869	1141.624
-29.881	35.990	1307.294	1140.912
-28.867	36.033	1305.670	1139.702
-27.852	36.080	1304.419	1138.846
-26.838	36.092	1302.545	1137.235
-25.823	35.981	1301.113	1135.286
-24.809	35.931	1299.682	1133.695
-23.794	36.011	1298.113	1132.751
-22.779	35.913	1296.733	1130.931
-21.765	35.979	1295.446	1130.150
-20.750	35.893	1294.800	1129.038
-19.736	35.968	1292.901	1127.775
-18.721	35.812	1291.999	1126.032
-17.706	35.909	1290.452	1125.207
-16.692	35.829	1289.339	1123.723
-15.677	35.843	1288.346	1122.892
-14.663	35.836	1286.939	1121.581
-13.648	35.859	1285.865	1120.736
-12.633	35.787	1284.831	1119.370
-11.619	35.858	1283.981	1118.996
-10.604	35.901	1282.732	1118.116
-9.590	35.830	1281.992	1117.013
-8.575	35.702	1281.524	1115.822
-7.560	35.827	1280.602	1115.695
-6.546	35.864	1279.844	1115.208
-5.531	35.872	1278.721	1114.233
-4.517	35.885	1277.941	1113.584
-3.502	35.893	1276.492	1112.323
-2.487	35.723	1276.174	1111.019
-1.473	35.856	1271.831	1107.960
-0.458	33.997	1255.697	1083.281
0.556	31.278	1235.059	1035.316
1.571	26.309	1237.897	1009.914
2.586	24.565	1252.048	1011.504
3.600	22.745	1239.469	991.038
4.615	16.912	1166.258	901.496
5.629	9.089	1091.692	804.710
6.644	5.515	1071.520	772.158
7.659	5.284	1068.589	768.843
8.673	5.355	1067.717	768.495
9.688	5.327	1066.545	767.450
10.702	5.439	1064.424	766.403
11.717	9.345	1069.589	789.253
12.731	16.856	1081.120	834.820
13.746	21.455	1085.699	860.976
14.761	21.417	1086.479	861.332
15.775	20.592	1083.985	855.219
16.790	19.720	1081.771	849.115
17.804	18.864	1080.127	843.551
18.819	18.541	1079.821	841.652
19.834	18.587	1078.375	840.679
20.848	18.209	1078.148	838.572
21.863	18.142	1076.923	837.217
22.877	17.847	1076.659	835.494
23.892	17.980	1075.328	835.037
24.907	17.861	1074.946	834.088
25.921	18.032	1073.015	833.346
26.936	18.001	1072.232	832.515
27.950	18.061	1070.573	831.446
28.965	18.092	1069.498	830.685
29.980	18.144	1067.702	829.473
30.994	18.347	1066.862	829.730
32.009	18.327	1065.855	828.776
33.023	18.341	1064.643	827.828
34.038	18.198	1063.783	826.393
35.053	18.068	1062.833	824.957
36.067	18.083	1062.068	824.360
37.082	18.115	1061.317	823.861
38.096	18.138	1060.878	823.555
39.111	18.333	1059.765	823.558
40.126	18.070	1058.539	821.268
41.140	17.850	1056.828	818.816
42.155	17.577	1055.796	816.633
43.169	17.731	1054.585	816.362
44.184	17.654	1053.993	815.463
45.199	17.804	1052.387	814.863
46.213	17.871	1051.748	814.619
47.228	18.034	1050.678	814.492
48.242	18.092	1049.689	813.930
49.257	18.033	1048.950	813.007
50.271	18.056	1048.516	812.707
51.286	18.165	1047.296	812.206
52.301	18.094	1046.219	810.965
53.315	17.992	1045.320	809.710
54.330	17.836	1044.515	808.276
55.344	17.702	1043.792	807.011
56.359	17.879	1042.443	806.733
57.374	17.805	1041.557	805.626
58.388	17.735	1040.768	804.615
59.403	17.657	1039.786	803.416
60.417	17.643	1039.078	802.735
61.432	17.726	1038.012	802.230
62.447	17.582	1037.371	800.985
63.461	17.415	1036.601	799.534
64.476	17.520	1035.709	799.268
65.490	17.524	1035.026	798.690
66.505	17.600	1034.147	798.296
67.520	17.644	1033.357	797.824
68.534	17.638	1032.963	797.421
69.549	17.521	1032.120	796.154
70.563	17.438	1031.034	794.856
71.578	17.368	1030.300	793.895
72.593	17.323	1029.299	792.841
73.607	17.403	1029.019	792.929
74.622	17.425	1027.876	792.081
75.636	17.400	1027.594	791.679
76.651	17.410	1026.969	791.174
77.666	17.414	1026.401	790.682
78.680	17.477	1025.585	790.276
79.695	17.469	1025.129	789.820
80.709	17.512	1024.843	789.729
81.724	17.610	1024.278	789.675
82.739	17.703	1023.383	789.349
83.753	18.097	1022.321	790.280
84.768	18.213	1021.705	790.271
85.782	18.288	1021.219	790.170
86.797	18.255	1020.198	789.157
87.812	18.071	1018.747	787.121
88.826	18.099	1017.966	786.575
89.841	18.238	1016.894	786.316
90.855	18.334	1016.029	786.016
91.870	18.383	1014.900	785.298
92.884	18.240	1014.405	784.193
93.899	18.360	1013.508	783.978
94.914	18.273	1013.041	783.148
95.928	18.314	1012.270	782.672
96.943	18.314	1010.371	781.134
97.957	18.152	1010.209	780.204
98.972	18.226	1009.314	779.776
99.987	18.206	1008.559	779.035
101.001	18.087	1007.799	777.835
102.016	18.172	1007.062	777.585
103.030	18.322	1006.061	777.427
104.045	18.184	1005.430	776.244
105.060	18.117	1004.147	774.879
106.074	17.932	1002.980	773.073
107.089	17.782	1001.989	771.564
108.103	17.597	1001.114	769.984
109.118	17.687	1000.002	769.469
110.133	17.701	999.253	768.886
111.147	17.536	998.481	767.479
112.162	17.712	997.688	767.594
113.176	17.867	996.950	767.659
114.191	17.734	996.322	766.509
115.206	17.921	994.926	766.204
116.220	17.734	994.256	764.783
117.235	17.785	993.206	764.137
118.249	17.690	992.235	762.898
119.264	17.621	991.781	762.173
120.279	17.591	991.020	761.386
121.293	17.463	990.587	760.414
122.308	17.593	988.929	759.655
123.322	17.643	987.973	759.075
124.337	17.394	987.181	757.292
125.352	17.488	986.163	756.858
126.366	17.463	985.063	755.836
127.381	17.463	984.253	755.151
128.395	17.637	982.990	754.882
129.410	17.670	982.141	754.311
130.424	17.710	981.227	753.721
131.439	17.797	981.055	753.908
132.454	17.821	980.245	753.321
133.468	17.859	979.210	752.627
134.483	17.964	978.184	752.234
135.497	17.853	977.589	751.224
136.512	17.794	976.774	750.271
137.527	17.897	975.928	750.008
138.541	18.008	974.995	749.710
139.556	17.961	974.858	749.332
140.570	18.046	974.187	749.124
141.585	18.292	973.366	749.504
142.600	18.228	972.412	748.422
143.614	18.334	971.854	748.390
144.629	18.412	970.841	747.884
145.643	18.367	969.528	746.609
146.658	18.019	968.844	744.504
147.673	17.945	967.768	743.288
148.687	17.969	966.719	742.521
149.702	17.805	965.752	740.998
150.716	17.843	964.928	740.467
151.731	17.809	964.306	739.777
152.746	17.826	963.527	739.184
153.760	18.011	962.823	739.383
154.775	18.083	962.512	739.390
155.789	18.149	961.774	739.043
156.804	18.168	960.943	738.418
157.819	18.167	960.223	737.797
158.833	18.340	959.866	738.204
159.848	18.509	958.685	737.959
160.862	18.253	958.037	736.290
161.877	17.957	957.153	734.273
162.892	17.969	955.726	733.168
163.906	17.793	954.655	731.525
164.921	17.994	953.869	731.718
165.935	18.018	952.967	731.065
166.950	18.047	952.721	730.937
167.964	18.078	951.620	730.161
168.979	17.998	950.524	728.910
169.994	17.921	949.575	727.791
171.008	18.077	949.315	728.192
172.023	18.245	948.546	728.255
173.037	18.369	947.790	728.136
174.052	18.328	946.774	727.115
175.067	18.048	946.264	725.473
176.081	17.992	945.897	724.891
177.096	17.953	945.197	724.125
178.110	18.012	944.704	723.932
179.125	18.086	943.682	723.397
180.140	18.005	943.578	722.912
181.154	18.178	943.335	723.393
182.169	18.367	942.458	723.454
183.183	18.306	942.008	722.789
184.198	18.432	941.068	722.533
185.213	18.436	940.427	721.995
186.227	18.391	939.848	721.297
187.242	18.472	939.368	721.206
188.256	18.594	938.833	721.245
189.271	18.530	937.729	720.063
190.286	18.390	936.327	718.338
191.300	17.955	935.722	715.984
192.315	17.917	934.913	715.142
193.329	17.895	934.562	714.718
194.344	18.079	934.391	715.297
195.359	18.239	933.574	715.277
196.373	18.269	933.131	715.001
197.388	18.463	932.727	715.436
198.402	18.656	932.258	715.818
199.417	18.679	931.353	715.157
200.432	18.790	931.441	715.623
201.446	18.965	930.719	715.732
202.461	19.011	930.356	715.581
203.475	18.938	929.544	714.590
204.490	18.670	928.611	712.699
205.504	18.594	927.737	711.646
206.519	18.534	926.878	710.677
207.534	18.591	926.202	710.331
208.548	18.476	925.977	709.619
209.563	18.493	925.294	709.104
210.577	18.583	924.451	708.768
211.592	18.778	923.952	709.126
212.607	18.720	923.390	708.393
213.621	18.776	922.085	707.559
214.636	18.695	921.876	707.005
215.650	18.701	921.059	706.340
216.665	18.861	920.371	706.409
217.680	18.872	920.087	706.172
218.694	19.069	918.747	705.890
219.709	18.798	918.070	704.198
220.723	18.881	917.551	704.077
221.738	19.000	917.018	704.092
222.753	18.864	916.366	702.974
223.767	18.889	915.741	702.533
224.782	19.088	915.203	702.872
225.796	19.087	915.083	702.711
226.811	18.976	914.035	701.391
227.826	18.914	913.174	700.418
228.840	18.794	912.304	699.202
229.855	18.913	911.552	699.046
230.869	18.873	910.784	698.233
231.884	18.755	910.050	697.129
232.899	18.681	909.707	696.505
233.913	18.702	908.690	695.750
234.928	18.626	908.075	694.907
235.942	18.622	907.630	694.492
236.957	18.675	907.048	694.200
237.972	18.643	906.683	693.727
238.986	18.597	906.125	693.054
240.001	18.763	904.946	692.758
241.015	18.725	904.560	692.249
242.030	18.944	904.003	692.644
243.045	18.979	903.314	692.195
244.059	18.813	903.161	691.351
245.074	18.952	902.520	691.356
246.088	19.009	901.938	691.079
247.103	19.130	901.130	690.884
248.117	19.288	901.182	691.497
249.132	19.476	900.806	691.901
250.147	19.561	899.775	691.388
251.161	19.630	899.477	691.375
252.176	19.664	898.579	690.758
253.190	19.896	897.865	691.074
254.205	19.822	897.322	690.303
255.220	19.610	897.045	689.181
256.234	19.635	896.316	688.660
257.249	19.705	895.245	688.054
258.263	19.579	894.893	687.223
259.278	19.625	894.367	686.942
260.293	19.782	893.557	686.881
261.307	19.831	892.916	686.521
262.322	19.872	892.069	685.974
263.336	19.930	891.472	685.682
264.351	19.753	890.988	684.549
265.366	19.999	889.652	684.433
266.380	19.855	889.422	683.630
267.395	19.624	888.910	682.260
268.409	19.717	888.349	682.137
269.424	19.699	887.213	681.134
270.439	19.637	886.399	680.206
271.453	19.625	885.777	679.620
272.468	19.643	885.297	679.263
273.482	19.645	885.064	679.033
274.497	19.621	884.528	678.466
275.512	19.652	883.516	677.752
276.526	19.518	883.600	677.232
277.541	19.755	882.659	677.376
278.555	19.768	882.618	677.337
279.570	19.925	881.846	677.299
280.585	19.988	880.310	676.307
281.599	19.870	879.681	675.303
282.614	19.775	879.030	674.371
283.628	19.755	878.652	673.945
284.643	19.786	878.337	673.765
285.657	19.797	877.384	673.015
286.672	19.735	877.020	672.437
287.687	19.930	876.034	672.377
288.701	19.921	875.724	672.045
289.716	19.716	875.159	670.758
290.730	19.935	874.755	671.236
291.745	19.948	874.131	670.751
292.760	20.019	873.341	670.361
293.774	20.058	872.808	670.043
294.789	20.028	871.963	669.217
295.803	20.010	871.046	668.385
296.818	19.855	870.735	667.490
297.833	20.087	869.553	667.417
298.847	19.950	869.266	666.610
299.862	20.050	868.761	666.549
300.876	20.078	868.326	666.265
301.891	20.165	867.981	666.277
302.906	20.203	867.531	666.018
303.920	20.366	866.967	666.151
304.935	20.443	866.374	665.929
305.949	20.234	865.862	664.677
306.964	20.217	865.093	663.963
307.979	20.208	864.206	663.188
308.993	20.391	863.915	663.606
310.008	20.292	863.595	662.923
311.022	20.234	862.708	661.965
312.037	20.142	862.124	661.107
313.052	20.147	861.126	660.300
314.066	20.042	860.693	659.513
315.081	20.032	860.236	659.066
316.095	20.008	859.471	658.328
317.110	19.997	859.121	657.959
318.125	20.065	858.745	657.871
319.139	19.985	857.860	656.832
320.154	20.099	857.637	657.037
321.168	20.062	857.370	656.634
322.183	20.145	856.709	656.384
323.197	20.100	856.021	655.627
324.212	19.962	855.767	654.855
325.227	20.196	854.614	654.796
326.241	20.044	854.468	654.055
327.256	20.142	853.797	653.852
328.270	20.191	852.803	653.216
329.285	20.021	852.578	652.347
330.300	20.070	851.814	651.889
331.314	20.180	851.281	651.838
332.329	20.321	850.736	651.891
333.343	20.316	851.064	652.065
334.358	20.434	850.255	651.832
335.373	20.414	849.836	651.377
336.387	20.362	849.797	651.094
337.402	20.405	849.830	651.223
338.416	20.597	849.360	651.527
339.431	20.678	848.753	651.305
340.446	20.765	848.477	651.360
341.460	20.742	848.157	650.972
342.475	20.828	847.715	650.897
343.489	20.980	847.125	650.954
344.504	21.019	846.412	650.494
345.519	20.937	846.559	650.245
346.533	20.999	845.320	649.463
347.548	20.780	844.609	648.046
348.562	20.658	844.170	647.197
349.577	20.379	843.782	645.807
350.592	20.441	842.752	645.192
351.606	20.424	842.086	644.561
352.621	20.372	841.590	643.930
353.635	20.708	840.865	644.566
354.650	20.766	839.843	643.940
355.665	20.797	839.401	643.657
356.679	20.831	838.975	643.399
357.694	20.810	838.332	642.770
358.708	20.864	837.639	642.382
359.723	20.835	837.108	641.811
360.738	20.835	836.685	641.429
361.752	20.783	836.086	640.724
362.767	21.022	835.402	641.023
363.781	21.008	835.068	640.657
364.796	21.167	834.941	641.088
365.810	21.065	834.815	640.557
366.825	21.239	834.175	640.650
367.840	21.223	833.567	640.066
368.854	21.249	832.772	639.495
369.869	21.137	832.377	638.724
370.883	21.115	831.954	638.262
371.898	21.196	831.837	638.415
372.913	21.249	831.582	638.354
373.927	21.196	830.727	637.449
374.942	21.300	830.158	637.335
375.956	21.328	829.857	637.149
376.971	21.334	829.726	637.015
377.986	21.495	829.192	637.135
379.000	21.675	828.426	637.142
380.015	21.521	827.881	636.108
381.029	21.452	827.723	635.679
382.044	21.464	826.987	635.104
383.059	21.560	826.011	634.644
384.073	21.383	825.410	633.487
385.088	21.384	825.056	633.162
386.102	21.257	824.209	631.997
387.117	21.168	823.913	631.391
388.132	21.296	822.806	630.948
389.146	21.288	822.691	630.775
390.161	21.319	822.439	630.638
391.175	21.414	821.934	630.539
392.190	21.425	821.186	629.947
393.205	21.291	820.770	629.091
394.219	21.302	820.491	628.861
395.234	21.170	819.890	627.872
396.248	21.096	819.580	627.313
397.263	21.009	818.991	626.493
398.278	20.999	818.399	625.950
399.292	21.176	817.889	626.138
400.307	20.998	817.492	625.139
401.321	21.078	816.981	624.981
402.336	21.227	816.838	625.349
403.350	21.359	816.383	625.417
404.365	21.439	816.007	625.361
405.380	21.510	815.609	625.256
406.394	21.528	815.275	625.009
407.409	21.693	814.513	624.956
408.423	21.790	814.510	625.246
409.438	21.813	813.945	624.838
410.453	21.751	813.380	624.128
411.467	21.826	813.195	624.200
412.482	22.042	812.883	624.670
413.496	22.117	812.364	624.484
414.511	22.079	811.919	623.951
415.526	21.930	811.382	622.954
416.540	21.861	811.064	622.412
417.555	21.867	810.534	621.970
418.569	21.921	810.077	621.757
419.584	22.076	809.472	621.787
420.599	21.908	809.540	621.188
421.613	157.915	1369.967	1786.909
422.628	137.321	1451.645	1787.030
