DTS Sentinel unit serial number:	SN413079Multiplexer serial number:	ORYXHardware model number:	OX4-SRSoftware version number:	ORYX F/W v4.00 Oryx Data Collector v3.7.2.0data status	okinstallation	princeton_trtdifferential loss correction	single-endedforward channel	channel 1reverse channel	N/Adate	2019/09/15time	18:22:35forward acquisition time	60.00reverse acquisition time	0.00gamma	496.2192k internal	0.2291k external	0.2291temperature offset calibration	0.9935default loss term (dB/km)	0.3790temperature slope calibration	1.0000multiplexer offset coefficient	1.0000multiplexer slope coefficient	1.0000fibre end	0.00T internal ref (°C)	44.36T ext. ref 1 (°C)	6.66T ext. ref 2 (°C)	38.27length (m)	temperature (°C)	Stokes	anti-Stokes-747.200	342.773	0.078	-0.156
-746.185	-29.563	-0.156	-0.091
-745.171	347.569	-0.160	0.323
-744.156	800.000	-0.070	0.213
-743.142	-87.645	-0.141	-0.044
-742.127	-200.000	0.008	0.271
-741.112	800.000	0.072	0.236
-740.098	-200.000	-0.011	0.306
-739.083	139.423	-0.106	0.143
-738.069	129.213	0.173	0.226
-737.054	312.967	-0.078	-0.150
-736.039	800.000	-0.023	0.066
-735.025	-61.144	0.066	0.029
-734.010	-3.289	-0.483	-0.345
-732.996	22.821	-0.305	-0.255
-731.981	242.380	-0.209	-0.358
-730.966	86.584	-0.106	0.120
-729.952	-104.974	0.120	-0.028
-728.937	-159.317	-0.268	0.015
-727.923	-71.345	-0.014	-0.005
-726.908	-98.817	-0.286	0.075
-725.894	-108.627	-0.047	-0.010
-724.879	5.637	-0.145	0.109
-723.864	348.272	-0.196	0.396
-722.850	-200.000	0.015	0.093
-721.835	-106.096	0.269	0.062
-720.821	-97.961	-0.133	0.035
-719.806	77.766	-0.213	-0.233
-718.791	52.905	-0.011	0.011
-717.777	-40.186	0.174	-0.093
-716.762	-21.700	0.261	-0.163
-715.748	-56.762	0.147	-0.066
-714.733	-200.000	-0.006	0.074
-713.718	-200.000	0.014	0.174
-712.704	187.740	-0.091	-0.138
-711.689	-21.634	0.052	-0.032
-710.675	-127.666	-0.276	0.041
-709.660	-200.000	0.000	0.102
-708.645	-73.580	0.192	-0.072
-707.631	-83.563	-0.069	0.023
-706.616	-120.517	0.261	-0.045
-705.602	31.821	-0.235	-0.207
-704.587	360.876	-0.092	0.188
-703.572	95.244	-0.262	0.305
-702.558	-103.590	-0.087	-0.021
-701.543	800.000	-0.035	-0.115
-700.529	-161.484	-0.207	-0.011
-699.514	263.090	0.042	-0.075
-698.499	647.112	-0.026	0.069
-697.485	-40.612	-0.224	-0.119
-696.470	556.747	0.069	-0.171
-695.456	-49.000	0.215	0.105
-694.441	15.836	-0.088	0.071
-693.426	-17.343	-0.092	0.059
-692.412	-63.718	0.219	0.092
-691.397	23.769	-0.312	0.263
-690.383	-131.271	0.064	0.009
-689.368	-49.675	-0.282	-0.137
-688.354	-200.000	0.020	-0.190
-687.339	23.708	0.052	0.044
-686.324	17.256	0.379	0.307
-685.310	-100.937	-0.176	0.044
-684.295	361.494	-0.055	-0.113
-683.281	-186.288	0.054	0.001
-682.266	-114.835	-0.312	-0.061
-681.251	-78.922	0.118	-0.041
-680.237	-34.651	-0.035	-0.019
-679.222	247.897	-0.161	-0.279
-678.208	13.706	0.056	-0.045
-677.193	-200.000	-0.016	0.281
-676.178	-200.000	0.015	0.351
-675.164	-200.000	-0.013	-0.237
-674.149	412.492	-0.152	0.329
-673.135	-136.065	-0.116	-0.014
-672.120	92.671	-0.205	0.237
-671.105	685.879	0.177	-0.472
-670.091	191.706	-0.175	0.269
-669.076	4.433	-0.197	-0.147
-668.062	-200.000	-0.025	-0.196
-667.047	800.000	0.032	-0.132
-666.032	-109.947	0.059	-0.013
-665.018	-58.849	-0.270	-0.119
-664.003	-138.138	-0.275	0.031
-662.989	19.372	0.273	0.224
-661.974	-2.838	-0.236	-0.169
-660.959	-146.030	-0.150	0.014
-659.945	800.000	0.127	0.387
-658.930	302.212	0.049	0.092
-657.916	-70.177	-0.227	0.088
-656.901	-89.991	-0.302	-0.090
-655.886	-150.453	-0.211	-0.017
-654.872	52.067	-0.272	0.264
-653.857	-177.101	-0.043	-0.001
-652.843	494.907	-0.073	0.171
-651.828	28.797	-0.141	0.122
-650.814	800.000	-0.072	0.234
-649.799	-122.841	-0.332	-0.055
-648.784	-107.708	0.350	0.078
-647.770	800.000	-0.020	0.083
-646.755	150.413	0.247	-0.342
-645.741	-200.000	-0.023	-0.384
-644.726	104.381	-0.154	0.185
-643.711	-139.577	0.441	-0.048
-642.697	-22.296	0.223	-0.138
-641.682	692.940	0.033	0.088
-640.668	457.252	0.098	-0.223
-639.653	-91.091	0.372	0.109
-638.638	800.000	0.023	-0.070
-637.624	-200.000	0.016	0.274
-636.609	22.034	0.218	0.181
-635.595	-28.654	-0.219	0.129
-634.580	484.820	-0.179	-0.415
-633.565	-200.000	-0.044	0.314
-632.551	-88.141	-0.100	0.030
-631.536	-91.865	0.062	-0.018
-630.522	-200.000	-0.054	0.251
-629.507	521.782	0.049	0.116
-628.492	5.580	0.256	0.193
-627.478	-36.693	-0.179	-0.098
-626.463	169.008	0.160	0.233
-625.449	-200.000	0.032	-0.159
-624.434	130.721	0.176	0.230
-623.419	-200.000	-0.026	0.385
-622.405	-82.096	-0.194	0.065
-621.390	-200.000	-0.058	-0.280
-620.376	-127.531	0.262	0.039
-619.361	-101.760	-0.136	-0.034
-618.346	-95.184	-0.187	-0.051
-617.332	-35.337	-0.112	0.062
-616.317	800.000	0.073	0.271
-615.303	-25.417	0.147	0.089
-614.288	526.981	-0.073	0.174
-613.273	0.000	-0.196	0.142
-612.259	-200.000	-0.003	0.110
-611.244	255.316	0.078	-0.136
-610.230	-200.000	-0.048	-0.240
-609.215	-49.000	0.200	0.098
-608.201	800.000	0.045	0.181
-607.186	-200.000	0.016	0.351
-606.171	52.014	0.203	-0.197
-605.157	-200.000	0.006	0.066
-604.142	-24.696	0.226	-0.137
-603.128	136.373	-0.180	0.239
-602.113	435.791	0.058	0.129
-601.098	-158.711	0.012	0.001
-600.084	128.926	0.077	0.100
-599.069	800.000	0.038	0.120
-598.055	-31.498	-0.221	-0.127
-597.040	-200.000	-0.018	-0.178
-596.025	-200.000	0.000	-0.130
-595.011	282.466	-0.115	-0.209
-593.996	-35.719	-0.137	0.076
-592.982	-95.487	-0.100	-0.027
-591.967	364.220	-0.120	0.245
-590.952	102.316	0.029	0.035
-589.938	262.492	0.087	0.154
-588.923	141.564	0.058	0.078
-587.909	414.726	0.027	-0.058
-586.894	16.577	-0.124	0.100
-585.879	800.000	0.033	0.127
-584.865	-200.000	-0.050	0.273
-583.850	78.216	0.145	0.157
-582.836	34.419	0.165	0.147
-581.821	0.297	-0.184	-0.134
-580.806	800.000	0.050	-0.209
-579.792	-142.903	-0.097	0.010
-578.777	68.494	-0.121	-0.126
-577.763	-73.275	-0.033	-0.012
-576.748	-110.008	-0.155	0.033
-575.733	477.051	-0.053	0.122
-574.719	-1.191	-0.241	0.173
-573.704	-151.094	-0.251	-0.019
-572.690	-200.000	0.018	-0.157
-571.675	51.370	0.073	0.071
-570.661	-153.043	-0.235	0.017
-569.646	630.351	0.052	-0.133
-568.631	-109.392	-0.237	-0.051
-567.617	549.800	-0.096	-0.233
-566.602	-139.428	-0.096	0.010
-565.588	210.378	-0.036	-0.058
-564.573	-200.000	0.031	0.383
-563.558	-150.457	0.098	0.008
-562.544	-51.579	0.198	-0.094
-561.529	655.696	-0.036	-0.094
-560.515	-73.010	-0.128	0.048
-559.500	31.201	0.054	0.048
-558.485	284.356	-0.102	0.186
-557.471	593.755	-0.097	0.243
-556.456	-188.190	-0.121	0.002
-555.442	378.640	0.076	-0.158
-554.427	169.897	0.135	-0.196
-553.412	-29.856	-0.084	-0.049
-552.398	-22.860	-0.095	0.059
-551.383	80.772	-0.077	-0.084
-550.369	-27.587	-0.219	0.129
-549.354	1.070	-0.460	0.335
-548.339	-200.000	-0.017	-0.096
-547.325	-152.543	-0.254	-0.018
-546.310	396.669	0.140	0.297
-545.296	39.862	-0.129	-0.118
-544.281	-145.355	0.108	-0.010
-543.266	246.173	0.169	-0.290
-542.252	198.691	-0.222	-0.346
-541.237	800.000	0.038	0.110
-540.223	219.583	0.057	-0.093
-539.208	-55.699	0.357	-0.162
-538.193	95.361	-0.108	-0.125
-537.179	45.334	-0.031	-0.029
-536.164	745.120	-0.074	-0.203
-535.150	-84.344	-0.257	-0.083
-534.135	-77.611	0.173	0.061
-533.121	22.435	-0.026	0.021
-532.106	170.463	0.228	-0.331
-531.091	-200.000	0.011	-0.131
-530.077	-82.467	-0.161	0.053
-529.062	-200.000	0.017	0.226
-528.048	14.313	0.106	-0.084
-527.033	-200.000	0.030	-0.366
-526.018	-49.179	-0.107	0.052
-525.004	-99.739	-0.189	-0.048
-523.989	436.763	-0.109	-0.242
-522.975	89.020	0.115	0.130
-521.960	800.000	0.025	-0.078
-520.945	800.000	-0.012	-0.045
-519.931	660.745	0.077	-0.200
-518.916	-200.000	-0.019	0.089
-517.902	-63.237	-0.464	-0.194
-516.887	-200.000	0.064	-0.308
-515.872	93.523	0.223	-0.257
-514.858	-91.471	-0.221	-0.064
-513.843	-121.173	-0.263	0.045
-512.829	18.260	0.187	0.152
-511.814	410.753	0.067	-0.144
-510.799	73.840	-0.140	0.149
-509.785	18.545	0.081	-0.065
-508.770	28.288	0.132	0.113
-507.756	286.830	0.109	-0.199
-506.741	52.231	-0.244	-0.236
-505.726	-82.543	0.354	0.117
-504.712	-144.210	0.105	0.010
-503.697	186.719	-0.023	0.035
-502.683	15.676	-0.217	0.173
-501.668	56.954	0.242	-0.239
-500.653	-68.133	0.338	0.133
-499.639	-149.554	-0.193	-0.015
-498.624	152.297	-0.179	0.248
-497.610	412.359	-0.156	-0.336
-496.595	92.801	-0.102	0.116
-495.581	39.818	-0.074	-0.067
-494.566	-121.285	-0.246	0.042
-493.551	72.129	0.219	-0.231
-492.537	-200.000	-0.044	-0.349
-491.522	-200.000	-0.004	-0.384
-490.508	-90.909	0.254	-0.074
-489.493	25.673	0.223	-0.189
-488.478	-30.068	-0.261	-0.150
-487.464	202.721	0.206	0.323
-486.449	446.315	0.044	0.098
-485.435	800.000	-0.007	-0.024
-484.420	-97.776	0.218	-0.057
-483.405	-35.050	-0.109	-0.060
-482.391	345.800	-0.141	-0.281
-481.376	-75.280	0.562	-0.203
-480.362	-123.988	0.136	-0.022
-479.347	-200.000	0.057	-0.297
-478.332	800.000	-0.020	0.078
-477.318	316.523	-0.048	0.092
-476.303	69.476	-0.118	-0.124
-475.289	-123.073	-0.343	-0.056
-474.274	-200.000	0.053	-0.286
-473.259	-200.000	-0.029	-0.202
-472.245	6.062	-0.079	-0.060
-471.230	-200.000	0.066	0.370
-470.216	800.000	-0.030	-0.126
-469.201	10.295	-0.232	-0.179
-468.186	-200.000	0.019	-0.551
-467.172	-167.684	0.120	-0.005
-466.157	-200.000	0.002	-0.429
-465.143	98.423	0.064	0.075
-464.128	800.000	0.031	-0.095
-463.113	61.044	-0.007	-0.007
-462.099	-47.619	0.120	0.059
-461.084	216.449	-0.159	0.256
-460.070	-67.704	-0.344	-0.137
-459.055	108.663	-0.202	0.244
-458.040	439.473	-0.171	0.379
-457.026	363.760	-0.050	0.102
-456.011	-200.000	-0.015	-0.177
-454.997	186.219	0.086	0.130
-453.982	-148.338	-0.455	-0.038
-452.968	-118.520	-0.361	-0.065
-451.953	-163.235	0.044	0.002
-450.938	-21.346	-0.115	-0.071
-449.924	-18.965	-0.130	-0.082
-448.909	576.031	-0.041	-0.102
-447.895	87.155	-0.144	0.161
-446.880	-155.727	0.182	-0.012
-445.865	-102.197	0.156	0.038
-444.851	-40.072	0.154	0.081
-443.836	-166.545	0.469	0.020
-442.822	-200.000	0.033	-0.169
-441.807	800.000	-0.028	0.097
-440.792	-39.325	0.189	0.100
-439.778	76.297	0.044	0.047
-438.763	238.611	-0.140	-0.235
-437.749	-200.000	-0.044	-0.244
-436.734	-200.000	0.009	-0.298
-435.719	-200.000	0.053	-0.246
-434.705	-200.000	0.044	-0.233
-433.690	-67.573	0.218	-0.087
-432.676	-121.335	0.094	-0.016
-431.661	-56.112	-0.126	0.057
-430.646	94.681	0.115	-0.132
-429.632	75.116	-0.082	0.087
-428.617	144.187	-0.128	0.173
-427.603	-8.735	0.209	-0.142
-426.588	271.999	0.111	-0.198
-425.573	83.121	-0.222	-0.244
-424.559	33.398	-0.144	0.127
-423.544	108.066	0.209	0.252
-422.530	-108.007	-0.239	-0.053
-421.515	800.000	-0.048	-0.167
-420.500	32.051	0.212	0.185
-419.486	27.182	0.178	-0.152
-418.471	39.058	-0.071	0.064
-417.457	41.491	0.245	0.224
-416.442	-147.133	0.231	-0.020
-415.428	-20.250	-0.357	-0.222
-414.413	-71.966	0.127	-0.048
-413.398	173.385	0.074	0.108
-412.384	-200.000	-0.024	-0.164
-411.369	109.599	-0.141	-0.171
-410.355	131.679	0.115	-0.149
-409.340	-152.137	0.061	0.005
-408.325	43.053	0.058	-0.053
-407.311	77.630	-0.094	0.102
-406.296	316.513	0.093	0.178
-405.282	530.451	0.112	0.268
-404.267	-110.399	0.202	0.042
-403.252	443.599	0.047	-0.104
-402.238	69.267	-0.196	-0.204
-401.223	0.713	-0.253	-0.183
-400.209	-200.000	-0.066	-0.379
-399.194	-25.343	0.124	-0.074
-398.179	778.258	-0.082	0.227
-397.165	-96.562	-0.347	0.092
-396.150	18.565	0.213	-0.172
-395.136	108.767	0.138	-0.166
-394.121	-70.801	0.157	0.060
-393.106	97.427	0.235	-0.272
-392.092	-200.000	-0.027	-0.235
-391.077	258.616	-0.173	-0.301
-390.063	800.000	-0.039	0.150
-389.048	800.000	0.052	-0.205
-388.033	800.000	-0.022	0.069
-387.019	354.655	-0.110	0.220
-386.004	-60.076	-0.150	-0.065
-384.990	-200.000	-0.036	-0.171
-383.975	-11.311	-0.178	0.119
-382.960	419.786	-0.098	0.211
-381.946	-31.898	0.369	0.209
-380.931	42.815	0.083	-0.076
-379.917	81.690	-0.197	-0.215
-378.902	800.000	0.104	-0.401
-377.888	-8.094	-0.249	0.170
-376.873	-73.281	0.343	-0.127
-375.858	411.553	0.099	-0.213
-374.844	-200.000	0.020	0.128
-373.829	273.368	-0.073	0.130
-372.815	220.640	0.089	0.144
-371.800	-117.933	-0.254	-0.046
-370.785	-116.449	0.253	0.047
-369.771	700.816	-0.041	0.108
-368.756	-200.000	0.035	0.310
-367.742	-91.011	0.040	0.012
-366.727	800.000	-0.059	-0.220
-365.712	-120.232	0.269	0.046
-364.698	-48.359	0.167	-0.081
-363.683	-31.136	0.186	0.106
-362.669	6.187	0.195	-0.146
-361.654	-134.547	0.200	-0.025
-360.639	188.860	0.063	-0.095
-359.625	228.858	-0.100	-0.165
-358.610	231.818	0.103	-0.170
-357.596	-200.000	-0.014	-0.289
-356.581	-110.198	0.132	-0.028
-355.566	74.711	-0.078	0.083
-354.552	-93.926	0.104	-0.029
-353.537	-63.958	0.186	0.077
-352.523	-109.003	-0.285	-0.061
-351.508	371.664	0.021	-0.044
-350.493	800.000	0.015	0.056
-349.479	-131.366	-0.327	-0.044
-348.464	18.685	0.090	0.073
-347.450	-95.138	0.212	0.058
-346.435	112.656	-0.099	-0.121
-345.420	-200.000	-0.006	-0.052
-344.406	154.781	0.104	0.143
-343.391	-47.842	0.119	0.058
-342.377	585.621	-0.097	0.239
-341.362	-200.000	-0.017	-0.199
-340.348	-200.000	0.028	-0.156
-339.333	800.000	-0.115	0.344
-338.318	107.576	-0.135	-0.162
-337.304	-200.000	-0.095	0.548
-336.289	118.149	0.098	-0.122
-335.275	301.064	-0.092	0.171
-334.260	69.731	0.394	0.409
-333.245	-200.000	0.007	0.146
-332.231	354.483	0.065	-0.130
-331.216	-142.905	-0.378	0.037
-330.202	16.667	0.313	-0.249
-329.187	-34.262	-0.084	0.046
-328.172	46.025	-0.069	0.065
-327.158	-200.000	0.000	0.075
-326.143	-200.000	0.012	-0.172
-325.129	-104.160	-0.344	0.080
-324.114	240.499	0.081	-0.136
-323.099	-41.225	0.140	-0.073
-322.085	4.271	-0.108	-0.080
-321.070	-200.000	0.005	-0.246
-320.056	92.940	-0.086	-0.098
-319.041	-200.000	0.029	0.229
-318.026	-91.835	0.373	0.107
-317.012	31.677	0.174	-0.151
-315.997	518.279	-0.047	-0.110
-314.983	39.524	-0.252	0.228
-313.968	35.484	0.125	0.111
-312.953	-200.000	0.016	-0.149
-311.939	740.052	-0.050	0.134
-310.924	-10.461	0.062	-0.041
-309.910	-120.879	0.366	0.062
-308.895	-101.065	-0.392	0.097
-307.880	-200.000	0.003	0.013
-306.866	-176.776	0.217	0.006
-305.851	-200.000	0.065	0.461
-304.837	-9.129	-0.203	-0.137
-303.822	-58.819	0.108	-0.047
-302.807	0.682	0.291	-0.209
-301.793	249.823	-0.136	0.232
-300.778	408.385	-0.081	0.173
-299.764	-53.030	0.398	0.184
-298.749	55.470	-0.143	-0.139
-297.735	264.192	0.063	0.111
-296.720	-50.948	0.273	0.129
-295.705	-79.798	-0.269	0.091
-294.691	-200.000	0.024	-0.161
-293.676	800.000	-0.085	0.364
-292.662	-4.955	-0.223	0.154
-291.647	800.000	-0.044	0.139
-290.632	130.678	0.231	0.298
-289.618	-14.877	-0.139	0.090
-288.603	70.217	0.067	-0.069
-287.589	-134.315	-0.265	-0.033
-286.574	-86.990	0.284	0.087
-285.559	-100.063	-0.293	-0.073
-284.545	-178.637	-0.202	0.005
-283.530	-200.000	-0.063	0.361
-282.516	-200.000	-0.063	0.291
-281.501	-11.388	-0.148	-0.098
-280.486	51.049	0.075	-0.071
-279.472	-165.510	-0.103	0.005
-278.457	20.672	-0.272	0.221
-277.443	-200.000	-0.067	0.314
-276.428	142.296	0.120	-0.160
-275.413	-93.878	0.229	0.063
-274.399	385.087	-0.172	-0.357
-273.384	-23.533	0.072	-0.044
-272.370	-200.000	-0.018	-0.092
-271.355	-22.405	-0.131	0.080
-270.340	62.294	0.152	-0.153
-269.326	-65.604	0.258	0.104
-268.311	-132.045	0.301	0.039
-267.297	421.876	0.059	0.126
-266.282	800.000	-0.058	0.232
-265.267	-120.911	0.288	0.049
-264.253	-35.066	0.307	0.168
-263.238	-200.000	-0.031	0.139
-262.224	80.363	0.095	-0.103
-261.209	514.704	0.046	-0.109
-260.195	-200.000	0.016	0.112
-259.180	-39.886	-0.106	-0.056
-258.165	10.579	0.270	-0.207
-257.151	754.831	0.034	0.093
-256.136	676.729	0.053	0.137
-255.122	800.000	-0.081	-0.246
-254.107	800.000	-0.085	-0.289
-253.092	204.548	0.248	-0.386
-252.078	-200.000	0.017	0.173
-251.063	6.501	-0.276	0.206
-250.049	-95.522	0.180	0.049
-249.034	-75.732	0.098	0.035
-248.019	-56.497	-0.313	0.140
-247.005	92.221	0.114	0.129
-245.990	800.000	-0.071	-0.266
-244.976	-200.000	-0.026	0.254
-243.961	359.092	-0.101	0.203
-242.946	-200.000	-0.093	0.426
-241.932	-84.538	0.067	0.021
-240.917	405.323	0.143	0.302
-239.903	-43.463	-0.276	0.140
-238.888	718.231	-0.033	0.089
-237.873	610.256	0.092	0.230
-236.859	-200.000	0.013	0.085
-235.844	362.553	0.094	-0.189
-234.830	-200.000	-0.023	-0.191
-233.815	-200.000	0.019	0.128
-232.800	800.000	-0.049	-0.191
-231.786	-200.000	0.015	-0.342
-230.771	-30.866	0.103	0.058
-229.757	-10.581	0.288	-0.192
-228.742	119.768	-0.213	0.264
-227.727	-98.120	0.182	0.047
-226.713	-46.912	-0.063	0.031
-225.698	61.540	-0.070	-0.070
-224.684	-109.652	0.298	0.063
-223.669	181.515	0.108	0.159
-222.655	31.765	0.165	0.143
-221.640	271.573	0.196	0.347
-220.625	670.863	-0.036	-0.093
-219.611	-200.000	-0.014	0.266
-218.596	-200.000	-0.050	-0.261
-217.582	-16.902	0.084	-0.053
-216.567	-39.106	-0.138	-0.073
-215.552	-200.000	0.025	0.259
-214.538	565.545	-0.043	0.106
-213.523	-136.399	0.195	-0.023
-212.509	-94.635	-0.076	-0.021
-211.494	-70.398	0.031	0.012
-210.479	-150.274	-0.129	0.010
-209.465	152.266	0.148	0.202
-208.450	97.391	-0.120	0.138
-207.436	-178.950	-0.291	-0.007
-206.421	-200.000	0.017	-0.368
-205.406	-49.333	0.059	-0.028
-204.392	-200.000	-0.069	0.319
-203.377	89.257	-0.151	-0.168
-202.363	264.570	-0.051	-0.089
-201.348	-200.000	0.000	0.046
-200.333	-144.641	0.293	0.027
-199.319	-179.403	0.145	0.003
-198.304	800.000	-0.175	0.512
-197.290	-66.596	0.065	-0.026
-196.275	162.537	0.121	-0.171
-195.260	-158.254	0.313	-0.018
-194.246	-95.736	-0.146	0.039
-193.231	577.267	-0.081	-0.199
-192.217	-200.000	-0.005	0.176
-191.202	-45.550	-0.124	0.061
-190.187	-76.156	-0.108	0.038
-189.173	17.004	0.161	-0.128
-188.158	26.901	0.116	-0.097
-187.144	-21.719	-0.126	0.077
-186.129	-66.186	-0.442	-0.176
-185.114	800.000	0.075	-0.240
-184.100	157.975	-0.173	0.240
-183.085	70.358	-0.089	0.092
-182.071	800.000	-0.081	-0.227
-181.056	-93.293	0.071	-0.020
-180.042	186.386	-0.126	-0.189
-179.027	-200.000	-0.007	-0.056
-178.012	-139.032	0.062	0.007
-176.998	250.568	0.072	-0.123
-175.983	-200.000	-0.068	0.331
-174.969	442.700	-0.192	0.422
-173.954	276.033	-0.074	-0.131
-172.939	-145.943	0.168	0.015
-171.925	14.098	0.033	-0.026
-170.910	800.000	-0.111	0.331
-169.896	394.012	-0.214	0.446
-168.881	-86.674	-0.188	-0.058
-167.866	-15.877	-0.175	-0.112
-166.852	-200.000	0.004	0.064
-165.837	101.078	0.174	-0.203
-164.823	31.821	0.158	0.137
-163.808	120.146	-0.138	0.172
-162.793	94.299	0.116	-0.131
-161.779	800.000	-0.070	-0.205
-160.764	-142.945	-0.109	0.011
-159.750	692.116	0.015	-0.040
-158.735	-200.000	0.017	-0.080
-157.720	-144.956	-0.079	-0.007
-156.706	-38.344	-0.158	-0.084
-155.691	-101.069	-0.144	0.035
-154.677	-85.782	-0.259	0.080
-153.662	-79.963	0.012	-0.004
-152.647	-200.000	0.031	0.304
-151.633	-128.562	0.198	0.028
-150.618	285.624	0.074	0.134
-149.604	-1.335	-0.287	-0.203
-148.589	13.158	0.144	0.112
-147.574	-200.000	0.003	0.095
-146.560	800.000	-0.015	0.051
-145.545	-85.600	0.124	0.039
-144.531	379.043	0.122	0.251
-143.516	-124.553	0.155	-0.024
-142.502	140.410	0.218	-0.288
-141.487	-200.000	-0.027	-0.243
-140.472	-23.360	0.178	0.107
-139.458	-86.962	0.109	-0.033
-138.443	800.000	0.051	0.155
-137.429	47.760	0.274	0.256
-136.414	-200.000	0.033	0.160
-135.399	-126.635	-0.292	-0.043
-134.385	-200.000	0.001	0.034
-133.370	127.316	0.114	0.144
-132.356	-35.867	-0.323	0.175
-131.341	-200.000	-0.017	-0.319
-130.326	87.170	0.159	0.175
-129.312	9.694	-0.190	0.144
-128.297	800.000	-0.081	0.253
-127.283	0.234	0.150	0.107
-126.268	-200.000	0.010	-0.105
-125.253	800.000	0.132	-0.394
-124.239	6.043	-0.370	0.274
-123.224	-200.000	0.005	0.139
-122.210	-160.089	0.209	0.011
-121.195	171.510	0.109	0.156
-120.180	-200.000	-0.072	0.366
-119.166	-138.404	-0.286	-0.032
-118.151	-59.016	0.161	0.069
-117.137	-132.129	-0.183	0.024
-116.122	-30.876	0.233	0.131
-115.107	-200.000	0.007	0.137
-114.093	-91.122	0.199	0.057
-113.078	-45.155	-0.159	0.079
-112.064	67.917	-0.144	0.147
-111.049	-200.000	-0.015	0.087
-110.034	95.814	-0.056	0.064
-109.020	-71.823	-0.432	0.161
-108.005	261.350	0.073	0.126
-106.991	-105.694	-0.140	-0.032
-105.976	-102.839	0.272	-0.065
-104.962	149.313	0.140	0.189
-103.947	40.449	0.121	0.109
-102.932	-46.952	0.052	0.025
-101.918	-48.191	0.112	-0.054
-100.903	-200.000	0.008	0.163
-99.889	-39.548	-0.167	0.087
-98.874	-200.000	-0.100	0.618
-97.859	-31.217	0.217	-0.122
-96.845	-200.000	0.010	-0.051
-95.830	300.209	-0.071	0.131
-94.816	315.261	-0.026	0.048
-93.801	-200.000	0.000	0.190
-92.786	552.261	-0.049	-0.117
-91.772	747.395	0.094	-0.254
-90.757	123.709	0.139	0.174
-89.743	664.651	-0.087	-0.223
-88.728	-148.231	-0.223	-0.018
-87.713	-49.158	-0.167	0.080
-86.699	-3.212	0.079	0.055
-85.684	564.417	-0.068	0.165
-84.670	-19.863	-0.060	0.037
-83.655	800.000	-0.100	0.394
-82.640	-74.577	0.277	-0.099
-81.626	-115.052	0.162	0.031
-80.611	-171.325	0.152	0.005
-79.597	-108.282	-0.130	-0.028
-78.582	-200.000	0.005	0.078
-77.567	343.075	0.052	0.102
-76.553	-200.000	0.020	0.169
-75.538	-120.227	0.369	0.063
-74.524	-64.792	0.147	-0.060
-73.509	71.213	-0.164	0.169
-72.494	344.252	0.033	-0.065
-71.480	-41.285	0.058	-0.030
-70.465	435.061	-0.083	0.180
-69.451	349.808	-0.136	-0.269
-68.436	800.000	0.044	-0.167
-67.422	-143.478	-0.449	-0.043
-66.407	249.587	-0.085	-0.144
-65.392	-200.000	-0.179	0.792
-64.378	196.154	-0.102	-0.154
-63.363	614.539	-0.054	-0.135
-62.349	-91.985	0.238	-0.067
-61.334	-33.902	-0.558	-0.306
-60.319	433.574	0.217	0.471
-59.305	800.000	0.122	-0.521
-58.290	120.227	0.740	0.915
-57.276	800.000	0.391	1.660
-56.261	-200.000	71.705	536.078
-55.246	590.991	1266.122	3114.707
-54.232	145.009	2496.580	3328.813
-53.217	121.989	2228.188	2772.390
-52.203	57.322	1673.758	1628.756
-51.188	48.696	1391.046	1300.198
-50.173	44.782	1342.803	1231.460
-49.159	62.326	1374.451	1367.625
-48.144	71.100	1393.198	1439.480
-47.130	48.873	1357.133	1269.372
-46.115	44.528	1340.927	1228.008
-45.100	44.335	1336.265	1222.531
-44.086	44.167	1334.253	1219.628
-43.071	44.262	1331.071	1217.241
-42.057	44.147	1329.546	1215.111
-41.042	44.184	1327.355	1213.283
-40.027	44.252	1326.151	1212.542
-39.013	44.207	1324.533	1210.741
-37.998	44.144	1322.162	1208.155
-36.984	44.299	1320.387	1207.407
-35.969	44.419	1318.893	1206.704
-34.954	44.379	1317.528	1205.170
-33.940	44.553	1315.000	1203.841
-32.925	44.385	1314.715	1202.535
-31.911	44.424	1313.091	1201.235
-30.896	44.405	1311.301	1199.439
-29.881	44.411	1309.749	1198.008
-28.867	44.536	1308.208	1197.283
-27.852	44.515	1307.038	1196.041
-26.838	44.493	1305.501	1194.461
-25.823	44.499	1304.119	1193.179
-24.809	44.370	1302.594	1190.986
-23.794	44.422	1301.311	1190.070
-22.779	44.481	1300.177	1189.328
-21.765	44.496	1298.342	1187.688
-20.750	44.525	1297.182	1186.752
-19.736	44.305	1296.210	1184.533
-18.721	44.409	1294.667	1183.682
-17.706	44.252	1293.633	1181.774
-16.692	44.267	1292.542	1180.816
-15.677	44.294	1291.789	1180.242
-14.663	44.225	1290.621	1178.728
-13.648	44.225	1289.383	1177.549
-12.633	44.239	1288.547	1176.820
-11.619	44.316	1287.502	1176.266
-10.604	44.337	1286.590	1175.509
-9.590	44.391	1285.447	1174.729
-8.575	44.308	1284.433	1173.272
-7.560	44.331	1283.338	1172.363
-6.546	44.355	1282.178	1171.394
-5.531	44.258	1281.843	1170.478
-4.517	44.315	1280.735	1169.752
-3.502	44.324	1280.231	1169.293
-2.487	44.294	1279.376	1168.293
-1.473	44.310	1275.057	1164.398
-0.458	42.880	1259.543	1142.075
0.556	35.915	1237.453	1091.748
1.571	30.150	1238.361	1059.616
2.586	28.089	1251.946	1059.219
3.600	26.174	1240.871	1038.754
4.615	20.275	1168.564	946.076
5.629	11.586	1089.587	837.692
6.644	7.132	1066.324	797.342
7.659	6.637	1063.343	792.561
8.673	6.408	1062.129	790.431
9.688	6.486	1060.545	789.575
10.702	6.960	1059.369	791.003
11.717	11.610	1067.049	820.051
12.731	18.033	1075.407	858.782
13.746	19.037	1075.057	863.466
14.761	17.379	1072.797	853.266
15.775	16.310	1070.115	845.709
16.790	15.066	1068.525	838.151
17.804	14.420	1066.850	833.534
18.819	14.072	1065.593	830.739
19.834	13.723	1064.545	828.104
20.848	13.443	1063.403	825.747
21.863	13.254	1062.634	824.136
22.877	13.216	1062.165	823.509
23.892	13.175	1060.924	822.273
24.907	13.079	1060.853	821.667
25.921	13.120	1059.637	820.856
26.936	13.023	1058.720	819.590
27.950	13.382	1056.210	819.355
28.965	13.207	1055.482	817.847
29.980	13.329	1053.697	816.994
30.994	13.306	1052.557	815.928
32.009	13.401	1051.541	815.535
33.023	13.365	1050.385	814.391
34.038	13.414	1049.375	813.778
35.053	13.254	1048.615	812.328
36.067	13.329	1047.506	811.767
37.082	13.213	1046.593	810.415
38.096	13.305	1045.958	810.306
39.111	13.360	1045.161	809.883
40.126	13.265	1043.898	808.370
41.140	13.105	1042.609	806.517
42.155	13.118	1040.965	805.239
43.169	12.950	1040.165	803.729
44.184	12.960	1039.350	803.080
45.199	12.993	1038.137	802.231
46.213	13.098	1036.907	801.720
47.228	13.076	1036.414	801.159
48.242	13.229	1035.232	800.916
49.257	13.210	1033.547	799.449
50.271	13.353	1032.524	799.280
51.286	13.124	1032.500	798.084
52.301	13.172	1030.990	797.078
53.315	13.151	1030.408	796.456
54.330	13.105	1029.440	795.414
55.344	13.055	1028.405	794.303
56.359	13.143	1027.169	793.705
57.374	13.072	1026.272	792.600
58.388	12.998	1025.589	791.648
59.403	13.037	1024.865	791.206
60.417	13.081	1023.826	790.540
61.432	12.991	1023.287	789.627
62.447	13.009	1022.001	788.649
63.461	13.059	1021.331	788.302
64.476	12.882	1020.411	786.677
65.490	12.980	1019.611	786.459
66.505	12.999	1019.077	786.070
67.520	12.909	1018.698	785.274
68.534	13.015	1017.845	785.052
69.549	12.999	1017.248	784.446
70.563	13.037	1016.056	783.641
71.578	12.888	1015.149	782.165
72.593	12.885	1014.399	781.502
73.607	12.928	1013.712	781.110
74.622	12.995	1013.116	780.897
75.636	12.811	1012.837	779.744
76.651	12.904	1012.024	779.485
77.666	12.891	1011.326	778.821
78.680	12.920	1010.507	778.253
79.695	12.808	1010.010	777.276
80.709	13.020	1009.090	777.498
81.724	13.034	1008.598	777.115
82.739	13.038	1007.986	776.592
83.753	13.209	1007.141	776.679
84.768	13.261	1006.434	776.309
85.782	13.339	1005.505	775.888
86.797	13.362	1004.470	775.128
87.812	13.174	1003.813	773.676
88.826	13.152	1002.860	772.768
89.841	13.302	1001.801	772.583
90.855	13.373	1000.927	772.172
91.870	13.188	1000.183	770.670
92.884	13.330	999.380	770.643
93.899	13.375	998.435	770.057
94.914	13.312	998.015	769.371
95.928	13.436	997.255	769.292
96.943	13.254	996.475	767.778
97.957	13.404	995.396	767.575
98.972	13.267	994.375	766.085
99.987	13.283	993.448	765.376
101.001	13.324	992.676	764.905
102.016	13.261	991.722	763.811
103.030	13.422	990.927	763.875
104.045	13.400	990.067	763.042
105.060	13.272	989.503	761.952
106.074	13.124	988.477	760.409
107.089	13.106	987.326	759.374
108.103	13.099	986.409	758.572
109.118	13.063	985.763	757.841
110.133	13.084	984.608	756.983
111.147	13.086	983.654	756.193
112.162	13.199	983.099	756.213
113.176	13.205	982.013	755.339
114.191	13.158	981.526	754.684
115.206	13.324	980.424	754.527
116.220	13.134	979.885	753.179
117.235	13.238	978.899	752.830
118.249	13.052	978.370	751.511
119.264	13.157	977.320	751.114
120.279	13.165	976.092	750.141
121.293	13.087	975.847	749.529
122.308	12.951	975.027	748.218
123.322	13.165	973.763	748.152
124.337	13.180	972.564	747.232
125.352	13.013	971.852	745.863
126.366	13.201	970.432	745.558
127.381	13.043	969.600	744.138
128.395	13.024	968.759	743.339
129.410	13.202	968.115	743.584
130.424	13.276	967.039	743.024
131.439	13.310	966.322	742.558
132.454	13.388	965.407	742.140
133.468	13.308	964.736	741.200
134.483	13.302	963.858	740.431
135.497	13.381	962.955	740.029
136.512	13.259	962.474	739.048
137.527	13.338	961.348	738.470
138.541	13.429	960.541	738.191
139.556	13.468	959.986	737.870
140.570	13.430	959.083	736.945
141.585	13.432	958.983	736.813
142.600	13.553	957.671	736.274
143.614	13.520	956.917	735.484
144.629	13.551	956.138	734.956
145.643	13.703	955.112	734.776
146.658	13.449	954.201	732.885
147.673	13.347	953.380	731.738
148.687	13.326	952.823	731.153
149.702	13.258	951.477	729.756
150.716	13.352	950.729	729.533
151.731	13.337	949.891	728.759
152.746	13.295	949.846	728.477
153.760	13.298	948.945	727.733
154.775	13.452	948.066	727.674
155.789	13.516	947.276	727.281
156.804	13.450	946.594	726.407
157.819	13.426	946.431	726.109
158.833	13.572	945.273	725.798
159.848	13.595	944.397	725.163
160.862	13.538	943.440	724.114
161.877	13.435	942.713	723.043
162.892	13.392	941.634	721.964
163.906	13.384	940.705	721.152
164.921	13.403	939.899	720.553
165.935	13.429	939.241	720.097
166.950	13.492	938.141	719.462
167.964	13.497	937.056	718.588
168.979	13.551	936.417	718.272
169.994	13.641	935.273	717.721
171.008	13.469	935.096	716.775
172.023	13.651	934.369	716.940
173.037	13.762	933.608	716.775
174.052	13.557	933.228	715.532
175.067	13.532	932.067	714.474
176.081	13.496	931.725	713.992
177.096	13.542	931.337	713.828
178.110	13.552	930.390	713.083
179.125	13.626	929.685	712.799
180.140	13.605	929.344	712.385
181.154	13.683	929.311	712.631
182.169	13.645	928.669	711.913
183.183	13.723	927.710	711.447
184.198	13.703	927.322	711.002
185.213	13.734	926.246	710.248
186.227	13.789	925.812	710.088
187.242	13.804	925.469	709.825
188.256	13.866	924.341	709.162
189.271	13.882	923.545	708.557
190.286	13.654	922.933	707.052
191.300	13.470	922.490	705.866
192.315	13.480	921.860	705.365
193.329	13.514	921.161	704.910
194.344	13.672	920.363	704.910
195.359	13.776	919.346	704.512
196.373	13.770	918.947	704.115
197.388	13.814	918.736	704.078
198.402	13.877	918.319	703.965
199.417	13.981	917.431	703.664
200.432	14.106	917.037	703.829
201.446	14.069	916.830	703.447
202.461	14.138	915.954	703.009
203.475	14.071	915.709	702.473
204.490	14.072	914.322	701.352
205.504	13.994	913.936	700.665
206.519	13.920	913.088	699.638
207.534	13.973	912.374	699.253
208.548	14.072	911.884	699.232
209.563	13.951	910.940	697.937
210.577	13.987	910.669	697.820
211.592	14.041	909.864	697.368
212.607	14.124	909.122	697.086
213.621	14.072	908.681	696.470
214.636	14.144	907.606	695.884
215.650	14.316	906.707	695.854
216.665	14.302	906.479	695.556
217.680	14.162	905.788	694.384
218.694	14.377	905.014	694.623
219.709	14.250	904.553	693.680
220.723	14.293	903.605	693.071
221.738	14.303	902.785	692.420
222.753	14.329	902.497	692.247
223.767	14.444	901.751	692.089
224.782	14.280	901.355	691.043
225.796	14.363	900.877	690.960
226.811	14.179	900.315	689.706
227.826	14.359	899.297	689.610
228.840	14.333	898.480	688.817
229.855	14.332	897.932	688.330
230.869	14.205	897.218	687.198
231.884	14.390	896.201	687.123
232.899	14.300	895.964	686.506
233.913	14.120	895.207	685.125
234.928	14.155	894.612	684.752
235.942	14.313	894.095	684.949
236.957	14.287	893.329	684.191
237.972	14.311	892.487	683.585
238.986	14.311	891.796	682.997
240.001	14.307	891.548	682.728
241.015	14.223	890.628	681.622
242.030	14.380	890.035	681.748
243.045	14.473	889.632	681.758
244.059	14.499	889.214	681.488
245.074	14.437	888.538	680.653
246.088	14.581	887.750	680.578
247.103	14.593	887.181	680.130
248.117	14.591	886.760	679.740
249.132	14.676	886.247	679.631
250.147	14.777	885.393	679.327
251.161	14.819	884.953	679.099
252.176	14.786	884.432	678.508
253.190	14.772	883.813	677.914
254.205	14.760	883.241	677.368
255.220	15.101	881.640	677.459
256.234	14.953	881.747	676.883
257.249	14.862	881.314	676.122
258.263	14.898	879.995	675.195
259.278	14.901	879.635	674.873
260.293	14.831	879.360	674.320
261.307	15.044	878.597	674.533
262.322	15.087	877.876	674.094
263.336	15.060	876.895	673.173
264.351	15.025	876.487	672.659
265.366	15.089	875.570	672.152
266.380	15.201	874.887	672.017
267.395	15.160	874.436	671.447
268.409	14.949	873.969	670.183
269.424	15.086	873.090	670.001
270.439	15.009	872.406	669.107
271.453	15.130	871.531	668.860
272.468	15.053	871.151	668.201
273.482	15.050	870.701	667.783
274.497	15.039	870.106	667.228
275.512	14.972	869.853	666.707
276.526	14.970	869.358	666.259
277.541	15.149	868.686	666.396
278.555	15.175	868.123	666.010
279.570	15.238	867.357	665.615
280.585	15.410	866.274	665.406
281.599	15.196	865.648	664.017
282.614	15.253	865.548	664.107
283.628	15.246	864.583	663.282
284.643	15.206	864.171	662.747
285.657	15.317	863.253	662.424
286.672	15.301	862.837	661.984
287.687	15.174	862.270	660.989
288.701	15.275	861.482	660.725
289.716	15.228	861.206	660.269
290.730	15.320	860.341	659.908
291.745	15.292	860.007	659.485
292.760	15.392	859.102	659.126
293.774	15.472	858.873	659.205
294.789	15.543	857.808	658.607
295.803	15.367	857.020	657.255
296.818	15.306	856.647	656.674
297.833	15.468	856.037	656.781
298.847	15.474	855.389	656.250
299.862	15.686	854.443	656.291
300.876	15.555	854.205	655.540
301.891	15.609	853.628	655.249
302.906	15.721	853.098	655.221
303.920	15.612	853.145	654.774
304.935	15.666	852.404	654.357
305.949	15.692	851.642	653.816
306.964	15.607	850.956	652.903
307.979	15.748	850.484	653.028
308.993	15.624	849.961	652.088
310.008	15.790	849.024	651.956
311.022	15.743	848.266	651.136
312.037	15.724	847.769	650.621
313.052	15.564	847.331	649.608
314.066	15.448	847.159	648.970
315.081	15.699	846.019	649.011
316.095	15.733	845.424	648.626
317.110	15.653	845.215	648.102
318.125	15.593	844.788	647.484
319.139	15.695	843.996	647.213
320.154	15.694	843.995	647.151
321.168	15.735	843.071	646.544
322.183	15.676	842.665	645.949
323.197	15.828	841.959	645.931
324.212	15.697	841.678	645.159
325.227	15.760	841.137	644.927
326.241	15.738	840.678	644.433
327.256	15.798	839.940	644.040
328.270	15.887	839.048	643.642
329.285	15.766	838.819	642.947
330.300	15.815	838.072	642.502
331.314	15.714	837.516	641.635
332.329	15.921	836.809	641.823
333.343	15.781	836.764	641.201
334.358	15.949	836.309	641.434
335.373	15.913	836.100	641.082
336.387	15.966	835.666	640.895
337.402	15.950	835.433	640.597
338.416	16.111	835.129	640.918
339.431	16.126	834.508	640.442
340.446	16.253	833.961	640.447
341.460	16.101	833.725	639.632
342.475	16.215	833.351	639.722
343.489	16.191	832.776	639.133
344.504	16.259	832.497	639.120
345.519	16.336	832.059	639.021
346.533	16.408	831.187	638.565
347.548	16.260	830.896	637.726
348.562	16.281	830.238	637.245
349.577	16.111	829.721	636.149
350.592	16.096	829.257	635.678
351.606	16.156	828.343	635.150
352.621	16.296	827.726	635.146
353.635	16.095	827.470	634.137
354.650	16.274	826.268	633.833
355.665	16.256	826.035	633.531
356.679	16.213	825.298	632.747
357.694	16.396	824.556	632.808
358.708	16.456	823.928	632.494
359.723	16.254	823.534	631.380
360.738	16.420	823.210	631.697
361.752	16.394	822.261	630.818
362.767	16.520	821.563	630.695
363.781	16.517	821.338	630.456
364.796	16.552	821.002	630.270
365.810	16.542	820.796	630.020
366.825	16.665	820.178	629.949
367.840	16.515	819.964	629.172
368.854	16.478	819.312	628.477
369.869	16.533	818.651	628.117
370.883	16.707	818.097	628.284
371.898	16.694	817.747	627.911
372.913	16.741	817.440	627.795
373.927	16.667	817.213	627.291
374.942	16.727	816.500	626.909
375.956	16.724	816.181	626.597
376.971	16.826	815.868	626.678
377.986	16.823	815.461	626.299
379.000	16.704	814.896	625.371
380.015	16.819	814.522	625.454
381.029	16.819	813.887	624.908
382.044	16.797	813.139	624.202
383.059	16.898	812.291	623.866
384.073	16.854	812.160	623.548
385.088	16.721	811.404	622.424
386.102	16.811	810.690	622.152
387.117	16.829	809.946	621.592
388.132	16.852	809.673	621.410
389.146	16.781	809.377	620.868
390.161	16.955	809.068	621.212
391.175	17.014	808.376	620.843
392.190	16.993	807.942	620.378
393.205	16.805	807.741	619.482
394.219	16.871	807.151	619.215
395.234	16.857	806.317	618.469
396.248	16.847	806.077	618.194
397.263	16.723	805.594	617.319
398.278	16.776	805.468	617.358
399.292	16.834	805.082	617.220
400.307	16.826	804.684	616.830
401.321	16.810	804.218	616.361
402.336	16.797	803.493	615.702
403.350	16.841	803.324	615.681
404.365	16.956	802.905	615.721
405.380	17.108	802.252	615.718
406.394	17.222	801.827	615.751
407.409	17.211	801.488	615.396
408.423	17.319	800.954	615.322
409.438	17.336	800.239	614.781
410.453	17.244	800.037	614.237
411.467	17.267	799.975	614.218
412.482	17.318	799.554	614.024
413.496	17.419	799.023	613.925
414.511	17.377	798.410	613.249
415.526	17.399	797.963	612.932
416.540	17.394	797.697	612.656
417.555	17.416	797.112	612.231
418.569	17.379	796.693	611.723
419.584	17.343	796.282	611.224
420.599	17.391	795.948	611.087
421.613	78.619	1239.298	1280.735
422.628	66.427	1303.918	1280.855
