DTS Sentinel unit serial number:	SN413079Multiplexer serial number:	ORYXHardware model number:	OX4-SRSoftware version number:	ORYX F/W v4.00 Oryx Data Collector v3.7.2.0data status	okinstallation	princeton_trtdifferential loss correction	single-endedforward channel	channel 1reverse channel	N/Adate	2019/09/13time	07:34:35forward acquisition time	60.00reverse acquisition time	0.00gamma	496.2192k internal	0.2335k external	0.2335temperature offset calibration	1.0163default loss term (dB/km)	0.3790temperature slope calibration	1.0000multiplexer offset coefficient	1.0000multiplexer slope coefficient	1.0000fibre end	0.00T internal ref (°C)	26.25T ext. ref 1 (°C)	4.20T ext. ref 2 (°C)	22.13length (m)	temperature (°C)	Stokes	anti-Stokes-747.200	-200.000	-0.057	0.293
-746.185	-5.242	-0.172	0.119
-745.171	-109.265	0.263	0.056
-744.156	554.535	0.090	0.219
-743.142	177.503	-0.280	0.410
-742.127	-80.166	-0.188	0.063
-741.112	-127.436	0.343	-0.050
-740.098	575.420	-0.021	0.051
-739.083	800.000	0.029	0.088
-738.069	375.888	-0.167	0.342
-737.054	-200.000	0.023	0.177
-736.039	50.955	-0.159	-0.152
-735.025	-89.837	0.204	-0.060
-734.010	-43.847	-0.614	0.310
-732.996	-92.522	-0.299	-0.084
-731.981	548.089	-0.190	-0.458
-730.966	11.094	-0.132	-0.101
-729.952	-179.024	-0.201	-0.005
-728.937	-86.506	0.369	0.114
-727.923	21.137	0.031	0.025
-726.908	-132.276	-0.085	0.011
-725.894	-18.966	0.294	0.184
-724.879	-200.000	0.041	-0.233
-723.864	-35.952	-0.192	-0.104
-722.850	-200.000	-0.022	0.130
-721.835	88.525	0.139	0.155
-720.821	-133.506	-0.173	0.022
-719.806	-77.525	-0.435	-0.152
-718.791	-13.232	0.217	0.142
-717.777	800.000	0.078	-0.221
-716.762	-117.731	-0.264	-0.048
-715.748	-84.827	-0.249	0.078
-714.733	-200.000	0.065	-0.324
-713.718	311.015	-0.086	-0.162
-712.704	800.000	-0.031	0.092
-711.689	-200.000	0.010	0.111
-710.675	92.080	-0.096	0.108
-709.660	533.535	0.044	-0.104
-708.645	-98.271	0.194	0.050
-707.631	175.767	-0.087	0.127
-706.616	33.857	0.306	-0.267
-705.602	745.148	0.046	0.125
-704.587	476.548	-0.231	-0.525
-703.572	117.194	0.017	0.021
-702.558	-200.000	-0.046	-0.296
-701.543	-78.780	-0.240	0.082
-700.529	-9.917	-0.215	-0.143
-699.514	-135.013	-0.122	0.015
-698.499	529.436	-0.131	0.310
-697.485	-39.914	0.089	-0.047
-696.470	2.650	0.077	-0.056
-695.456	-165.285	-0.166	0.007
-694.441	31.376	-0.198	-0.171
-693.426	-5.472	-0.274	-0.189
-692.412	686.701	-0.087	-0.228
-691.397	-200.000	0.015	-0.130
-690.383	-29.567	0.057	-0.033
-689.368	-132.137	0.090	-0.012
-688.354	622.028	-0.038	-0.095
-687.339	-94.540	0.039	-0.011
-686.324	-25.808	0.248	-0.146
-685.310	-200.000	0.023	-0.103
-684.295	-116.889	-0.176	0.032
-683.281	-92.497	-0.087	-0.025
-682.266	-56.444	-0.188	0.083
-681.251	177.158	-0.153	0.223
-680.237	-88.091	-0.059	0.018
-679.222	-54.357	-0.292	0.133
-678.208	138.082	-0.210	0.275
-677.193	-200.000	0.048	0.247
-676.178	-134.726	0.360	-0.044
-675.164	485.123	0.012	0.027
-674.149	-49.091	0.244	0.117
-673.135	44.567	0.251	-0.231
-672.120	800.000	-0.073	-0.225
-671.105	31.815	-0.244	0.210
-670.091	800.000	-0.025	0.077
-669.076	224.595	-0.202	0.328
-668.062	233.769	-0.073	0.120
-667.047	-10.120	-0.198	0.132
-666.032	-200.000	-0.034	0.308
-665.018	800.000	0.116	0.438
-664.003	1.865	0.435	0.314
-662.989	-200.000	-0.057	0.410
-661.974	77.732	-0.206	0.220
-660.959	89.277	0.126	-0.141
-659.945	-32.177	0.154	0.086
-658.930	159.480	-0.071	0.098
-657.916	92.681	0.019	-0.022
-656.901	-200.000	-0.038	-0.430
-655.886	297.843	0.222	-0.409
-654.872	26.674	-0.226	0.189
-653.857	43.261	-0.119	-0.109
-652.843	-109.861	-0.217	0.046
-651.828	16.796	0.182	0.145
-650.814	-148.601	-0.221	-0.018
-649.799	-200.000	-0.057	0.259
-648.784	800.000	-0.106	0.352
-647.770	132.632	-0.179	-0.231
-646.755	187.602	-0.046	-0.068
-645.741	-103.728	0.147	0.035
-644.726	294.292	0.049	0.090
-643.711	-142.493	0.235	-0.023
-642.697	167.279	0.138	0.196
-641.682	-133.695	-0.096	-0.012
-640.668	800.000	-0.082	0.320
-639.653	-35.083	0.146	0.080
-638.638	-148.830	0.177	-0.014
-637.624	34.488	0.240	-0.210
-636.609	22.831	0.280	0.230
-635.595	13.411	-0.170	0.132
-634.580	-200.000	0.045	-0.329
-633.565	800.000	-0.083	-0.316
-632.551	55.925	0.102	-0.099
-631.536	-101.700	0.344	-0.083
-630.522	672.773	-0.110	0.286
-629.507	-12.110	0.058	-0.038
-628.492	-26.458	-0.345	-0.202
-627.478	-116.508	0.450	-0.083
-626.463	11.408	-0.256	0.196
-625.449	800.000	0.064	0.184
-624.434	-0.853	-0.203	0.144
-623.419	101.465	0.199	-0.232
-622.405	736.985	-0.051	-0.138
-621.390	97.577	-0.270	-0.310
-620.376	-80.334	-0.232	-0.077
-619.361	30.999	-0.105	-0.090
-618.346	-200.000	-0.015	0.088
-617.332	517.839	-0.101	0.236
-616.317	-44.662	-0.139	0.070
-615.303	-15.742	-0.299	-0.190
-614.288	40.814	-0.302	0.272
-613.273	-41.035	0.209	-0.108
-612.259	-200.000	-0.008	-0.336
-611.244	-171.864	0.161	-0.005
-610.230	114.104	-0.217	0.264
-609.215	-200.000	-0.042	-0.296
-608.201	-157.688	-0.328	-0.020
-607.186	-200.000	0.005	-0.119
-606.171	-200.000	-0.003	0.041
-605.157	161.978	-0.167	-0.234
-604.142	512.983	0.053	-0.124
-603.128	-68.196	0.383	-0.149
-602.113	-146.191	-0.080	0.007
-601.098	10.104	0.067	0.051
-600.084	385.842	-0.054	0.111
-599.069	4.774	-0.239	-0.176
-598.055	72.208	-0.226	-0.235
-597.040	459.569	0.096	-0.214
-596.025	-39.139	-0.267	0.140
-595.011	-155.158	0.379	-0.025
-593.996	176.738	0.106	0.154
-592.982	-34.178	0.065	0.035
-591.967	206.759	-0.106	-0.165
-590.952	-94.222	-0.093	0.025
-589.938	800.000	-0.077	-0.337
-588.923	44.289	0.095	0.087
-587.909	-50.782	-0.164	-0.077
-586.894	364.596	-0.086	0.174
-585.879	205.683	0.026	0.041
-584.865	-137.678	-0.186	0.021
-583.850	-68.934	-0.259	-0.100
-582.836	-62.890	0.132	-0.055
-581.821	-64.060	0.224	0.091
-580.806	256.136	-0.140	-0.240
-579.792	-200.000	-0.001	0.114
-578.777	-60.984	-0.208	0.088
-577.763	-200.000	0.098	0.000
-576.748	597.086	0.092	0.227
-575.733	59.330	-0.083	-0.082
-574.719	36.266	-0.222	-0.195
-573.704	800.000	-0.034	-0.131
-572.690	-11.366	0.174	0.114
-571.675	29.327	0.201	-0.171
-570.661	-200.000	0.017	0.159
-569.646	-165.741	0.157	-0.007
-568.631	28.585	-0.277	0.234
-567.617	-85.033	0.453	0.142
-566.602	-60.886	-0.461	-0.195
-565.588	-45.788	0.072	-0.035
-564.573	10.514	-0.292	0.222
-563.558	-41.721	-0.159	-0.082
-562.544	-118.839	-0.239	-0.042
-561.529	-85.077	0.197	-0.062
-560.515	-119.589	-0.220	0.038
-559.500	-49.864	0.271	0.128
-558.485	521.415	0.133	0.312
-557.471	800.000	-0.042	-0.141
-556.456	-114.997	-0.252	-0.048
-555.442	-83.724	0.426	-0.135
-554.427	800.000	0.061	-0.196
-553.412	478.041	0.155	-0.351
-552.398	181.379	0.096	0.140
-551.383	-200.000	0.000	-0.226
-550.369	-135.596	-0.350	0.041
-549.354	-200.000	-0.008	-0.142
-548.339	353.289	0.208	-0.412
-547.325	101.274	0.041	-0.048
-546.310	-164.423	0.289	0.013
-545.296	-200.000	-0.018	0.370
-544.281	-66.450	-0.092	0.037
-543.266	-129.147	0.250	0.035
-542.252	-91.839	0.275	0.078
-541.237	-5.866	-0.309	0.211
-540.223	172.063	0.108	-0.155
-539.208	449.846	-0.039	-0.085
-538.193	63.985	0.245	0.245
-537.179	-200.000	-0.052	0.313
-536.164	800.000	-0.010	-0.033
-535.150	158.508	-0.142	-0.197
-534.135	-184.663	0.459	-0.007
-533.121	318.231	0.065	-0.122
-532.106	191.628	0.009	-0.014
-531.091	-75.586	0.107	0.038
-530.077	45.060	0.172	-0.158
-529.062	172.128	0.187	0.269
-528.048	-57.074	0.343	-0.151
-527.033	-22.908	0.261	0.157
-526.018	179.913	-0.140	-0.204
-525.004	114.123	-0.206	-0.250
-523.989	91.574	0.098	-0.109
-522.975	-200.000	0.014	-0.153
-521.960	66.782	0.159	0.161
-520.945	269.091	-0.042	0.073
-519.931	15.791	0.089	-0.069
-518.916	346.990	-0.047	0.093
-517.902	371.756	0.063	-0.128
-516.887	-200.000	0.025	-0.242
-515.872	58.952	0.181	0.177
-514.858	241.394	-0.137	0.228
-513.843	800.000	0.077	0.293
-512.829	3.013	-0.111	-0.081
-511.814	521.869	0.039	-0.092
-510.799	-200.000	-0.067	-0.577
-509.785	341.833	0.069	0.135
-508.770	800.000	0.136	0.390
-507.756	14.903	-0.199	0.155
-506.741	-42.315	0.122	0.062
-505.726	800.000	0.029	0.125
-504.712	15.202	0.355	0.277
-503.697	-144.650	-0.132	-0.012
-502.683	-178.905	0.272	0.006
-501.668	-16.561	-0.190	0.120
-500.653	-57.752	0.094	-0.041
-499.639	-33.093	-0.404	-0.223
-498.624	578.395	0.083	0.201
-497.610	44.858	0.195	0.178
-496.595	-62.284	0.045	0.018
-495.581	-122.736	-0.067	-0.011
-494.566	4.131	-0.445	-0.324
-493.551	-134.954	-0.204	-0.025
-492.537	274.738	0.188	-0.331
-491.522	215.467	0.191	-0.301
-490.508	668.504	-0.053	-0.136
-489.493	-21.619	-0.273	-0.165
-488.478	-90.512	0.177	-0.051
-487.464	-200.000	-0.062	-0.433
-486.449	169.839	-0.248	-0.352
-485.435	40.148	0.370	0.331
-484.420	29.895	-0.203	0.172
-483.405	-87.455	-0.243	0.073
-482.391	-3.460	-0.330	0.229
-481.376	-138.605	0.135	-0.015
-480.362	-70.570	-0.090	0.034
-479.347	-199.446	-0.472	0.002
-478.332	12.891	-0.110	0.084
-477.318	148.558	0.282	0.379
-476.303	389.509	-0.234	0.482
-475.289	-58.341	-0.242	0.105
-474.274	-23.418	0.214	0.128
-473.259	-85.241	0.212	-0.066
-472.245	-74.181	0.255	0.092
-471.230	443.274	-0.061	-0.133
-470.216	-200.000	-0.006	0.039
-469.201	-161.123	-0.387	0.020
-468.186	-90.487	0.169	0.049
-467.172	141.772	-0.154	0.202
-466.157	-107.425	-0.170	0.037
-465.143	154.724	0.250	-0.341
-464.128	147.724	-0.208	-0.279
-463.113	-200.000	-0.053	0.321
-462.099	-127.853	-0.273	0.039
-461.084	-162.220	-0.172	-0.009
-460.070	-200.000	0.029	-0.248
-459.055	-106.855	0.380	0.084
-458.040	-120.484	0.210	-0.035
-457.026	243.047	0.098	-0.164
-456.011	-27.577	0.405	-0.234
-454.997	-34.484	0.148	-0.081
-453.982	135.658	0.126	0.163
-452.968	800.000	-0.094	0.350
-451.953	-5.768	0.161	-0.109
-450.938	29.025	-0.210	-0.177
-449.924	370.989	-0.106	0.214
-448.909	-195.187	0.267	0.002
-447.895	800.000	0.082	0.234
-446.880	-140.526	-0.196	0.020
-445.865	-154.232	-0.240	-0.016
-444.851	-56.703	-0.287	-0.126
-443.836	-43.837	-0.137	0.069
-442.822	69.467	0.191	-0.196
-441.807	800.000	0.059	0.184
-440.792	800.000	-0.128	0.390
-439.778	56.441	-0.044	-0.043
-438.763	-200.000	0.035	-0.198
-437.749	800.000	-0.090	0.329
-436.734	-200.000	0.022	-0.124
-435.719	-126.583	0.184	-0.027
-434.705	-103.341	-0.139	0.032
-433.690	159.907	0.053	-0.073
-432.676	-175.446	-0.151	-0.004
-431.661	-200.000	0.004	0.137
-430.646	-179.780	-0.024	0.001
-429.632	-116.755	-0.081	-0.015
-428.617	-44.862	0.093	0.046
-427.603	45.144	-0.151	0.138
-426.588	-200.000	0.007	0.166
-425.573	-200.000	0.013	-0.167
-424.559	-200.000	-0.003	-0.154
-423.544	-200.000	-0.058	-0.288
-422.530	237.964	-0.078	-0.129
-421.515	800.000	-0.016	0.049
-420.500	27.683	0.228	0.191
-419.486	217.901	0.048	-0.076
-418.471	-77.739	-0.371	0.127
-417.457	-27.635	-0.119	0.068
-416.442	69.223	0.072	0.074
-415.428	18.744	0.125	-0.099
-414.413	-134.921	-0.205	0.025
-413.398	81.856	0.053	0.057
-412.384	116.417	-0.118	-0.143
-411.369	-14.743	-0.207	-0.132
-410.355	26.374	-0.260	-0.215
-409.340	-37.505	-0.119	0.063
-408.325	800.000	0.048	0.174
-407.311	-3.820	0.225	-0.155
-406.296	38.124	-0.091	0.080
-405.282	-16.595	-0.110	0.069
-404.267	134.002	0.121	-0.155
-403.252	74.075	0.294	-0.306
-402.238	584.848	-0.064	-0.156
-401.223	-118.003	0.312	0.055
-400.209	-76.210	-0.291	0.102
-399.194	-150.858	-0.133	0.010
-398.179	-99.616	0.121	0.030
-397.165	800.000	0.118	0.350
-396.150	-200.000	0.018	0.345
-395.136	130.674	-0.116	-0.147
-394.121	275.985	0.142	-0.249
-393.106	800.000	-0.049	0.150
-392.092	204.554	0.149	0.229
-391.077	59.146	-0.202	-0.197
-390.063	-200.000	0.062	-0.517
-389.048	122.562	0.152	0.189
-388.033	-127.709	0.239	-0.034
-387.019	-200.000	0.057	0.295
-386.004	120.092	0.063	0.077
-384.990	-28.830	-0.403	-0.230
-383.975	206.207	-0.125	0.193
-382.960	64.364	0.244	-0.243
-381.946	-200.000	0.038	-0.266
-380.931	-200.000	-0.024	-0.139
-379.917	-50.365	-0.156	-0.073
-378.902	-99.007	0.263	-0.066
-377.888	-16.838	0.195	0.122
-376.873	-200.000	-0.136	0.000
-375.858	152.820	0.234	-0.317
-374.844	-80.053	-0.225	-0.075
-373.829	595.647	-0.122	0.299
-372.815	800.000	-0.089	-0.305
-371.800	576.781	-0.023	0.056
-370.785	-200.000	0.062	-0.557
-369.771	-46.884	0.204	0.099
-368.756	-200.000	-0.076	0.341
-367.742	38.918	0.209	0.185
-366.727	-88.576	-0.166	-0.049
-365.712	397.607	-0.029	-0.060
-364.698	-157.935	-0.303	0.018
-363.683	448.105	0.132	-0.288
-362.669	7.279	-0.132	-0.098
-361.654	297.323	0.036	-0.065
-360.639	341.579	0.149	-0.289
-359.625	328.177	-0.076	-0.145
-358.610	126.780	0.174	0.219
-357.596	152.140	0.209	0.283
-356.581	161.188	-0.124	0.172
-355.566	-200.000	-0.073	-0.378
-354.552	352.086	-0.043	-0.084
-353.537	-35.296	-0.237	0.128
-352.523	800.000	0.037	-0.143
-351.508	64.696	0.329	-0.329
-350.493	-56.762	0.344	-0.150
-349.479	-16.180	-0.250	0.157
-348.464	484.704	0.033	0.075
-347.450	-162.270	-0.179	-0.009
-346.435	312.815	0.123	-0.229
-345.420	169.147	0.105	0.148
-344.406	-200.000	-0.033	-0.428
-343.391	-200.000	0.009	0.214
-342.377	13.376	0.145	0.111
-341.362	84.266	-0.146	-0.158
-340.348	216.280	0.111	-0.174
-339.333	46.768	0.388	0.356
-338.318	-200.000	-0.014	-0.247
-337.304	-200.000	0.007	0.180
-336.289	103.555	-0.128	0.148
-335.275	13.432	0.122	-0.094
-334.260	-60.575	0.466	0.195
-333.245	-58.318	-0.072	-0.031
-332.231	-121.700	-0.333	-0.054
-331.216	64.202	0.221	0.220
-330.202	106.015	-0.079	-0.092
-329.187	-176.324	-0.279	0.007
-328.172	17.885	0.217	-0.171
-327.158	-131.531	-0.083	0.011
-326.143	65.701	0.060	-0.060
-325.129	-16.267	-0.149	0.093
-324.114	-66.893	-0.098	-0.038
-323.099	-200.000	0.045	-0.241
-322.085	-96.574	-0.151	0.039
-321.070	-200.000	-0.018	0.124
-320.056	-63.186	-0.300	0.122
-319.041	800.000	0.093	0.260
-318.026	-200.000	-0.021	0.300
-317.012	-130.243	0.156	0.021
-315.997	249.002	0.202	-0.338
-314.983	-200.000	0.000	-0.183
-313.968	-15.299	-0.124	-0.078
-312.953	-106.526	-0.176	-0.039
-311.939	659.842	0.145	0.368
-310.924	145.828	0.227	0.301
-309.910	800.000	0.020	-0.059
-308.895	800.000	0.105	0.421
-307.880	58.067	0.246	0.238
-306.866	-105.196	-0.104	-0.023
-305.851	800.000	0.038	0.155
-304.837	-200.000	0.008	-0.052
-303.822	800.000	0.063	-0.186
-302.807	78.231	-0.165	0.173
-301.793	-7.194	-0.162	0.109
-300.778	-13.938	-0.187	0.119
-299.764	-112.759	-0.168	-0.033
-298.749	-116.037	-0.563	-0.104
-297.735	9.882	0.313	0.235
-296.720	-73.681	-0.221	0.079
-295.705	-113.381	-0.234	0.045
-294.691	-89.787	0.139	0.040
-293.676	36.777	-0.263	0.229
-292.662	-200.000	0.024	0.116
-291.647	123.070	0.122	-0.150
-290.632	-7.676	0.114	0.076
-289.618	800.000	-0.019	-0.068
-288.603	86.469	0.035	-0.038
-287.589	356.693	-0.074	-0.145
-286.574	197.095	-0.186	0.280
-285.559	321.258	-0.114	-0.213
-284.545	87.586	-0.223	0.243
-283.530	642.863	0.041	0.102
-282.516	457.635	-0.044	-0.097
-281.501	-200.000	-0.004	-0.161
-280.486	213.320	0.215	-0.335
-279.472	1.613	-0.128	0.091
-278.457	-39.622	0.313	0.162
-277.443	195.962	0.170	0.255
-276.428	-52.664	-0.104	0.047
-275.413	800.000	0.056	0.232
-274.399	-57.763	0.374	-0.161
-273.384	-76.915	0.199	0.069
-272.370	-200.000	-0.011	-0.207
-271.355	800.000	-0.132	0.411
-270.340	800.000	-0.048	-0.171
-269.326	800.000	-0.171	0.612
-268.311	-31.775	0.202	-0.112
-267.297	-58.083	0.468	0.201
-266.282	-39.802	-0.124	-0.064
-265.267	-132.267	-0.178	-0.023
-264.253	176.601	-0.125	-0.180
-263.238	-38.382	0.351	0.183
-262.224	-73.763	-0.262	-0.094
-261.209	-22.021	0.083	-0.050
-260.195	-72.974	0.027	-0.010
-259.180	-24.314	-0.386	-0.227
-258.165	130.176	0.066	-0.083
-257.151	800.000	-0.024	-0.082
-256.136	486.411	0.009	0.019
-255.122	-56.176	0.132	0.058
-254.107	201.864	-0.049	-0.074
-253.092	800.000	0.017	-0.071
-252.078	522.342	0.063	0.146
-251.063	-200.000	-0.021	0.100
-250.049	-88.703	-0.210	-0.062
-249.034	-200.000	-0.002	-0.233
-248.019	-102.282	-0.123	0.029
-247.005	361.448	-0.087	-0.172
-245.990	83.400	0.080	-0.086
-244.976	7.479	-0.152	-0.112
-243.961	3.087	-0.195	-0.140
-242.946	248.368	0.148	-0.247
-241.932	-24.503	-0.296	-0.174
-240.917	800.000	-0.083	0.235
-239.903	116.938	0.199	0.240
-238.888	800.000	0.066	-0.189
-237.873	147.824	-0.113	-0.150
-236.859	-200.000	-0.018	-0.108
-235.844	-33.912	0.102	0.055
-234.830	14.755	0.178	-0.137
-233.815	-200.000	-0.008	-0.079
-232.800	-18.174	-0.107	-0.066
-231.786	116.844	-0.066	-0.080
-230.771	-200.000	-0.110	0.000
-229.757	110.804	0.200	-0.238
-228.742	179.277	0.188	-0.271
-227.727	800.000	0.099	0.279
-226.713	31.863	0.192	0.163
-225.698	-102.337	-0.259	-0.061
-224.684	-95.766	-0.437	0.115
-223.669	-27.234	0.262	-0.150
-222.655	-130.489	0.363	-0.048
-221.640	800.000	0.015	0.059
-220.625	-81.512	-0.041	0.013
-219.611	-11.416	0.419	0.272
-218.596	-78.787	0.225	0.076
-217.582	414.251	-0.192	0.403
-216.567	216.555	0.099	0.155
-215.552	-158.163	-0.138	0.008
-214.538	-18.516	0.049	0.030
-213.523	-200.000	-0.008	-0.218
-212.509	-130.242	0.443	-0.059
-211.494	-11.782	0.099	-0.064
-210.479	-104.389	-0.046	-0.010
-209.465	21.950	0.063	-0.051
-208.450	-200.000	0.027	0.131
-207.436	-61.602	-0.331	0.137
-206.421	-25.121	0.144	0.084
-205.406	49.155	0.091	0.084
-204.392	309.597	-0.073	-0.135
-203.377	59.583	0.195	-0.189
-202.363	-78.542	0.076	0.026
-201.348	28.158	-0.329	0.273
-200.333	64.377	-0.075	0.074
-199.319	156.301	0.169	0.230
-198.304	633.189	-0.016	-0.041
-197.290	-200.000	-0.001	0.021
-196.275	449.144	0.096	-0.208
-195.260	800.000	-0.021	0.060
-194.246	13.193	0.185	-0.141
-193.231	98.362	0.141	-0.160
-192.217	17.179	0.180	0.140
-191.202	-164.604	-0.155	0.007
-190.187	800.000	0.058	0.195
-189.173	106.849	0.100	0.117
-188.158	609.465	0.048	-0.118
-187.144	-200.000	0.026	0.218
-186.129	-31.855	-0.132	0.073
-185.114	-200.000	0.040	0.189
-184.100	-132.192	-0.280	-0.036
-183.085	40.982	0.089	-0.079
-182.071	-200.000	0.015	-0.247
-181.056	-55.536	-0.119	-0.052
-180.042	130.162	0.187	0.235
-179.027	678.682	-0.087	-0.223
-178.012	108.285	0.021	0.025
-176.998	-200.000	-0.014	0.114
-175.983	155.896	-0.126	-0.171
-174.969	95.228	-0.184	0.206
-173.954	800.000	0.024	0.067
-172.939	-19.814	-0.112	0.068
-171.925	66.156	-0.251	-0.251
-170.910	352.755	0.097	0.189
-169.896	-96.928	-0.332	-0.085
-168.881	-52.282	0.122	0.056
-167.866	11.846	-0.296	-0.223
-166.852	-143.836	0.174	-0.016
-165.837	-109.760	-0.046	-0.010
-164.823	414.048	0.046	-0.097
-163.808	-173.548	0.243	0.007
-162.793	-200.000	-0.062	-0.403
-161.779	-200.000	-0.071	0.328
-160.764	-39.285	0.187	0.096
-159.750	800.000	0.051	-0.170
-158.735	152.309	0.035	-0.047
-157.720	800.000	-0.088	0.356
-156.706	288.026	-0.165	0.294
-155.691	70.331	0.105	0.106
-154.677	111.307	0.090	-0.107
-153.662	139.479	-0.099	0.128
-152.647	-200.000	0.002	-0.065
-151.633	800.000	0.067	0.200
-150.618	165.419	-0.051	0.071
-149.604	-165.251	-0.186	0.008
-148.589	-42.899	-0.267	0.133
-147.574	-200.000	-0.036	0.170
-146.560	-105.918	-0.249	0.055
-145.545	-200.000	-0.063	0.283
-144.531	-46.570	0.225	0.108
-143.516	800.000	-0.076	0.285
-142.502	127.613	0.207	-0.258
-141.487	370.030	-0.091	-0.181
-140.472	359.995	0.102	0.200
-139.458	-168.937	0.249	-0.009
-138.443	-200.000	-0.005	-0.052
-137.429	-200.000	-0.027	-0.267
-136.414	-200.000	0.022	0.157
-135.399	7.604	-0.102	0.075
-134.385	12.056	0.096	-0.073
-133.370	-200.000	0.008	0.319
-132.356	-200.000	0.030	-0.157
-131.341	421.910	-0.053	0.111
-130.326	-24.927	0.466	-0.271
-129.312	-94.623	0.193	-0.052
-128.297	-122.001	-0.066	0.011
-127.283	800.000	0.003	0.008
-126.268	326.667	-0.059	-0.111
-125.253	800.000	-0.065	0.211
-124.239	112.912	0.060	-0.071
-123.224	528.859	-0.081	0.188
-122.210	347.054	0.156	0.301
-121.195	-16.821	-0.157	0.097
-120.180	-161.994	0.347	-0.017
-119.166	358.567	0.070	-0.137
-118.151	728.545	0.069	0.179
-117.137	15.447	0.192	-0.148
-116.122	-162.168	0.107	0.005
-115.107	114.585	0.141	0.169
-114.093	-59.992	-0.184	0.077
-113.078	-166.675	-0.268	0.011
-112.064	289.395	0.079	-0.141
-111.049	315.584	-0.032	-0.059
-110.034	93.088	-0.055	0.061
-109.020	649.348	0.042	0.106
-108.005	-21.674	0.300	0.179
-106.991	-143.791	0.282	0.026
-105.976	-200.000	-0.005	-0.247
-104.962	95.881	-0.207	0.232
-103.947	-175.966	0.100	-0.003
-102.932	53.320	0.116	-0.109
-101.918	-43.010	-0.010	0.005
-100.903	-79.377	-0.235	-0.078
-99.889	-200.000	-0.015	-0.154
-98.874	-79.936	0.132	-0.043
-97.859	438.337	0.072	0.153
-96.845	263.785	-0.102	0.174
-95.830	-91.121	-0.143	-0.040
-94.816	800.000	-0.103	0.310
-93.801	-138.220	0.269	0.029
-92.786	-48.168	0.282	-0.133
-91.772	-36.124	0.252	-0.133
-90.757	-61.542	0.204	-0.084
-89.743	-63.282	-0.197	-0.079
-88.728	245.547	0.198	0.326
-87.713	201.381	0.192	0.290
-86.699	75.151	-0.063	-0.065
-85.684	245.202	0.130	-0.214
-84.670	-26.328	-0.142	0.082
-83.655	-25.703	0.200	0.116
-82.640	-151.075	-0.023	-0.002
-81.626	-38.368	0.220	0.114
-80.611	800.000	0.050	-0.186
-79.597	-0.887	0.138	0.096
-78.582	-177.867	0.111	-0.003
-77.567	45.935	0.237	0.214
-76.553	800.000	0.065	-0.176
-75.538	179.726	0.140	0.201
-74.524	-200.000	-0.019	-0.285
-73.509	679.146	0.027	0.068
-72.494	-82.069	0.244	-0.078
-71.480	-200.000	-0.017	0.151
-70.465	0.671	-0.211	0.148
-69.451	800.000	0.088	0.309
-68.436	253.822	-0.125	0.210
-67.422	-83.999	0.147	-0.046
-66.407	-47.984	0.248	0.117
-65.392	284.333	0.027	0.048
-64.378	-57.231	0.437	0.188
-63.363	-70.390	-0.555	-0.206
-62.349	800.000	-0.069	0.199
-61.334	28.777	-1.180	-0.978
-60.319	-41.852	0.930	0.466
-59.305	176.428	-0.739	-1.050
-58.290	228.885	0.739	1.178
-57.276	800.000	0.546	1.512
-56.261	-200.000	117.974	656.889
-55.246	503.748	1550.095	3507.550
-54.232	173.797	2720.169	3841.005
-53.217	105.243	2157.698	2491.531
-52.203	37.908	1589.066	1381.381
-51.188	29.546	1331.415	1107.466
-50.173	26.762	1292.723	1058.998
-49.159	53.397	1351.129	1266.715
-48.144	51.740	1364.579	1269.398
-47.130	29.709	1318.765	1097.736
-46.115	26.496	1300.115	1063.325
-45.100	26.268	1295.054	1057.804
-44.086	26.017	1292.888	1054.525
-43.071	26.046	1290.557	1052.752
-42.057	26.011	1288.922	1051.171
-41.042	26.039	1287.310	1049.980
-40.027	26.168	1284.811	1048.652
-39.013	26.180	1283.375	1047.506
-37.998	26.173	1281.558	1045.940
-36.984	26.260	1279.808	1044.976
-35.969	26.236	1278.046	1043.354
-34.954	26.253	1276.117	1041.840
-33.940	26.170	1275.144	1040.523
-32.925	26.197	1273.780	1039.526
-31.911	26.259	1272.256	1038.595
-30.896	26.274	1270.673	1037.351
-29.881	26.392	1269.536	1037.054
-28.867	26.476	1267.842	1036.110
-27.852	26.434	1266.513	1034.742
-26.838	26.350	1265.204	1033.153
-25.823	26.434	1263.526	1032.221
-24.809	26.298	1262.721	1030.751
-23.794	26.272	1261.266	1029.372
-22.779	26.240	1260.252	1028.320
-21.765	26.304	1258.533	1027.243
-20.750	26.261	1257.523	1026.132
-19.736	26.367	1256.042	1025.486
-18.721	26.260	1255.088	1024.056
-17.706	26.214	1253.988	1022.858
-16.692	26.243	1253.142	1022.292
-15.677	26.275	1251.743	1021.294
-14.663	26.214	1250.569	1019.948
-13.648	26.202	1249.576	1019.032
-12.633	26.254	1248.351	1018.287
-11.619	26.122	1248.249	1017.417
-10.604	26.184	1246.977	1016.689
-9.590	26.231	1245.884	1016.023
-8.575	26.152	1245.264	1015.031
-7.560	26.276	1244.223	1014.838
-6.546	26.112	1243.369	1013.184
-5.531	26.163	1242.571	1012.780
-4.517	26.165	1241.363	1011.762
-3.502	26.179	1240.766	1011.313
-2.487	26.219	1239.705	1010.636
-1.473	26.299	1235.526	1007.634
-0.458	24.918	1220.739	987.919
0.556	23.409	1204.839	952.783
1.571	20.052	1210.639	939.122
2.586	19.150	1225.783	945.832
3.600	18.818	1213.624	934.559
4.615	14.389	1142.837	857.232
5.629	7.348	1072.083	770.000
6.644	4.485	1054.526	743.636
7.659	4.153	1051.665	739.966
8.673	4.135	1049.781	738.491
9.688	4.017	1049.246	737.487
10.702	4.462	1047.124	738.042
11.717	8.934	1053.611	763.893
12.731	16.669	1064.392	808.732
13.746	21.171	1069.893	834.411
14.761	22.231	1070.038	839.515
15.775	21.385	1068.617	834.289
16.790	20.411	1066.889	828.224
17.804	19.795	1065.372	824.036
18.819	19.541	1064.336	821.956
19.834	19.526	1063.981	821.537
20.848	19.580	1063.349	821.232
21.863	19.372	1062.010	819.138
22.877	19.133	1061.495	817.533
23.892	19.168	1060.757	817.059
24.907	18.925	1060.495	815.635
25.921	19.067	1059.404	815.394
26.936	19.011	1058.162	814.099
27.950	19.196	1056.369	813.523
28.965	19.092	1055.477	812.272
29.980	19.331	1054.053	812.231
30.994	19.462	1052.779	811.793
32.009	19.448	1052.268	811.264
33.023	19.428	1051.174	810.254
34.038	19.345	1049.921	808.830
35.053	19.194	1048.922	807.278
36.067	19.329	1047.925	807.072
37.082	19.081	1047.546	805.547
38.096	19.327	1046.818	806.068
39.111	19.428	1046.283	806.056
40.126	19.126	1044.585	803.269
41.140	18.827	1042.826	800.451
42.155	18.612	1042.025	798.764
43.169	18.524	1041.180	797.637
44.184	18.664	1040.193	797.460
45.199	18.693	1039.271	796.817
46.213	18.945	1038.218	797.107
47.228	19.132	1037.438	797.304
48.242	19.177	1036.801	796.954
49.257	19.195	1035.600	796.044
50.271	19.260	1034.797	795.655
51.286	19.399	1033.756	795.424
52.301	19.279	1032.713	794.001
53.315	19.042	1031.944	792.249
54.330	18.832	1030.734	790.280
55.344	18.917	1030.253	790.235
56.359	18.951	1029.086	789.425
57.374	18.743	1028.379	787.858
58.388	18.634	1027.534	786.643
59.403	18.621	1026.666	785.848
60.417	18.728	1025.663	785.502
61.432	18.626	1025.067	784.507
62.447	18.521	1024.360	783.420
63.461	18.500	1023.170	782.341
64.476	18.596	1022.253	782.011
65.490	18.382	1021.650	780.506
66.505	18.562	1021.113	780.844
67.520	18.646	1020.153	780.424
68.534	18.551	1019.462	779.392
69.549	18.421	1018.782	778.216
70.563	18.458	1017.570	777.387
71.578	18.220	1017.433	776.135
72.593	18.339	1016.181	775.650
73.607	18.227	1015.585	774.619
74.622	18.264	1014.922	774.215
75.636	18.390	1014.361	774.287
76.651	18.515	1013.398	774.046
77.666	18.431	1013.094	773.369
78.680	18.446	1012.623	773.007
79.695	18.593	1011.752	772.936
80.709	18.523	1011.774	772.568
81.724	18.706	1010.605	772.432
82.739	18.917	1009.983	772.837
83.753	19.108	1009.178	773.012
84.768	19.390	1008.985	774.062
85.782	19.575	1008.123	774.159
86.797	19.455	1007.394	772.993
87.812	19.287	1006.221	771.273
88.826	19.322	1005.142	770.534
89.841	19.309	1004.705	770.075
90.855	19.443	1004.045	770.098
91.870	19.504	1003.120	769.591
92.884	19.495	1001.657	768.360
93.899	19.324	1001.354	767.300
94.914	19.567	1000.070	767.327
95.928	19.447	999.422	766.230
96.943	19.373	998.569	765.181
97.957	19.209	997.688	763.713
98.972	19.339	996.840	763.570
99.987	19.415	995.974	763.176
101.001	19.322	994.611	761.653
102.016	19.258	993.814	760.691
103.030	19.320	993.197	760.425
104.045	19.289	992.327	759.554
105.060	19.129	991.468	758.127
106.074	18.875	989.946	755.780
107.089	18.688	988.626	753.884
108.103	18.598	987.778	752.775
109.118	18.596	987.386	752.403
110.133	18.543	986.095	751.120
111.147	18.649	985.235	750.861
112.162	18.592	984.911	750.300
113.176	18.756	983.998	750.255
114.191	18.807	983.522	750.048
115.206	18.748	982.804	749.173
116.220	18.742	981.777	748.300
117.235	18.699	980.972	747.432
118.249	18.652	979.789	746.260
119.264	18.505	979.224	745.127
120.279	18.599	977.998	744.533
121.293	18.410	977.328	743.137
122.308	18.451	976.265	742.444
123.322	18.376	975.488	741.460
124.337	18.301	974.423	740.260
125.352	18.332	973.261	739.449
126.366	18.283	972.215	738.377
127.381	18.343	971.590	738.094
128.395	18.317	970.855	737.357
129.410	18.481	969.664	737.096
130.424	18.520	969.195	736.841
131.439	18.752	968.141	736.969
132.454	18.683	967.951	736.465
133.468	18.693	967.216	735.883
134.483	18.748	966.310	735.363
135.497	18.723	965.498	734.574
136.512	18.781	965.027	734.397
137.527	18.923	963.822	734.021
138.541	18.768	963.394	732.970
139.556	18.887	962.740	732.917
140.570	19.070	961.777	732.898
141.585	19.317	961.067	733.341
142.600	19.280	960.620	732.778
143.614	19.403	959.889	732.679
144.629	19.500	959.207	732.504
145.643	19.319	958.262	730.952
146.658	19.227	956.627	729.248
147.673	19.089	955.876	728.028
148.687	18.905	955.095	726.591
149.702	19.009	953.753	725.944
150.716	18.804	953.079	724.505
151.731	18.983	952.401	724.677
152.746	18.772	952.054	723.461
153.760	18.869	951.743	723.568
154.775	19.067	950.828	723.643
155.789	19.176	950.122	723.502
156.804	19.282	949.109	723.107
157.819	19.303	948.960	723.018
158.833	19.431	948.521	723.159
159.848	19.621	947.427	723.054
160.862	19.267	946.642	720.909
161.877	19.000	945.224	718.651
162.892	18.877	944.078	717.203
163.906	18.895	942.607	716.097
164.921	18.767	942.342	715.301
165.935	19.004	941.452	715.549
166.950	18.886	940.947	714.610
167.964	19.022	939.698	714.161
168.979	18.858	938.821	712.752
169.994	18.989	937.762	712.429
171.008	19.097	937.462	712.583
172.023	19.417	936.604	713.193
173.037	19.339	936.470	712.704
174.052	19.241	935.356	711.388
175.067	18.972	934.476	709.548
176.081	18.680	933.999	707.917
177.096	18.750	933.642	707.876
178.110	18.828	932.986	707.635
179.125	18.893	932.297	707.319
180.140	18.941	931.812	707.083
181.154	19.162	931.686	707.835
182.169	19.235	931.128	707.647
183.183	19.268	930.194	707.012
184.198	19.509	929.200	707.182
185.213	19.369	928.785	706.227
186.227	19.374	928.157	705.710
187.242	19.630	927.273	706.020
188.256	19.696	926.964	705.992
189.271	19.747	926.439	705.740
190.286	19.210	925.654	702.888
191.300	18.676	924.527	699.795
192.315	18.711	923.782	699.311
193.329	18.850	922.747	699.029
194.344	18.969	922.652	699.379
195.359	19.162	921.844	699.492
196.373	19.289	921.465	699.658
197.388	19.539	921.127	700.350
198.402	19.639	920.977	700.583
199.417	19.587	920.396	699.867
200.432	19.697	920.468	700.305
201.446	19.879	919.751	700.434
202.461	19.913	919.419	700.258
203.475	19.908	918.052	699.133
204.490	19.645	916.868	697.111
205.504	19.365	916.288	695.478
206.519	19.405	915.675	695.114
207.534	19.507	914.848	694.832
208.548	19.548	914.124	694.388
209.563	19.450	913.895	693.756
210.577	19.501	912.969	693.197
211.592	19.843	912.953	694.498
212.607	19.880	912.019	693.876
213.621	19.710	910.983	692.345
214.636	19.751	910.330	691.952
215.650	19.866	909.405	691.643
216.665	19.880	909.283	691.546
217.680	20.012	908.670	691.548
218.694	20.021	908.424	691.334
219.709	19.999	907.182	690.242
220.723	19.798	906.896	689.162
221.738	19.876	905.855	688.620
222.753	19.797	905.666	688.101
223.767	20.111	904.748	688.591
224.782	20.169	904.223	688.361
225.796	20.132	903.919	687.918
226.811	19.979	902.855	686.442
227.826	19.889	902.092	685.444
228.840	19.730	901.619	684.397
229.855	19.880	900.493	684.073
230.869	19.779	899.931	683.188
231.884	19.735	899.143	682.355
232.899	19.642	898.296	681.286
233.913	19.495	897.612	680.127
234.928	19.632	896.690	679.910
235.942	19.455	896.390	678.924
236.957	19.494	895.941	678.675
237.972	19.544	895.392	678.398
238.986	19.461	894.989	677.705
240.001	19.577	894.299	677.577
241.015	19.659	893.789	677.455
242.030	19.841	893.067	677.559
243.045	19.800	892.495	676.905
244.059	19.850	892.321	676.908
245.074	19.862	891.529	676.296
246.088	20.006	890.750	676.209
247.103	20.132	890.197	676.221
248.117	20.244	890.474	676.806
249.132	20.651	889.934	677.924
250.147	20.690	889.808	677.917
251.161	20.692	889.027	677.272
252.176	20.854	888.144	677.170
253.190	20.802	887.508	676.423
254.205	20.929	886.935	676.419
255.220	20.742	886.287	675.139
256.234	20.670	885.834	674.456
257.249	20.749	884.902	673.992
258.263	20.790	883.670	673.154
259.278	20.753	883.746	673.006
260.293	20.873	883.027	672.864
261.307	20.943	882.721	672.843
262.322	21.007	882.043	672.514
263.336	20.987	881.431	671.909
264.351	20.952	880.400	670.928
265.366	20.922	879.701	670.220
266.380	21.013	879.461	670.328
267.395	20.817	878.724	668.956
268.409	20.655	878.057	667.766
269.424	20.680	877.100	667.076
270.439	20.611	876.080	665.975
271.453	20.624	875.358	665.417
272.468	20.704	875.121	665.485
273.482	20.582	874.317	664.350
274.497	20.636	873.951	664.219
275.512	20.522	873.664	663.504
276.526	20.599	873.213	663.400
277.541	20.701	872.426	663.130
278.555	20.909	871.653	663.276
279.570	21.108	871.375	663.762
280.585	21.036	870.428	662.708
281.599	20.754	869.277	660.704
282.614	20.722	868.932	660.263
283.628	20.746	868.461	659.936
284.643	20.599	867.876	658.876
285.657	20.714	866.744	658.397
286.672	20.873	866.274	658.578
287.687	20.800	865.846	657.920
288.701	20.866	865.237	657.648
289.716	20.951	864.610	657.434
290.730	20.853	864.156	656.663
291.745	20.942	863.601	656.519
292.760	21.158	862.953	656.779
293.774	21.156	862.636	656.473
294.789	21.084	861.748	655.470
295.803	20.854	861.254	654.170
296.818	20.851	860.300	653.378
297.833	20.823	859.806	652.840
298.847	20.891	859.434	652.754
299.862	21.035	858.484	652.511
300.876	21.114	858.518	652.775
301.891	21.187	857.828	652.466
302.906	21.314	857.371	652.538
303.920	21.426	856.986	652.602
304.935	21.446	856.689	652.393
305.949	21.555	855.720	652.004
306.964	21.287	854.942	650.356
307.979	21.240	854.615	649.874
308.993	21.367	854.256	650.017
310.008	21.303	853.434	649.097
311.022	21.186	853.182	648.413
312.037	20.926	852.294	646.716
313.052	21.061	851.109	646.261
314.066	20.795	850.695	644.905
315.081	20.704	850.489	644.353
316.095	20.874	849.546	644.211
317.110	20.831	848.923	643.523
318.125	20.902	848.953	643.750
319.139	20.833	848.359	642.988
320.154	20.770	847.993	642.423
321.168	21.044	847.039	642.650
322.183	21.037	846.517	642.171
323.197	21.072	846.070	641.905
324.212	21.040	845.528	641.319
325.227	20.991	845.419	641.001
326.241	20.992	844.569	640.302
327.256	20.877	844.039	639.420
328.270	20.974	843.155	639.053
329.285	20.994	842.566	638.622
330.300	20.888	842.091	637.818
331.314	21.025	841.738	637.996
332.329	21.192	841.256	638.185
333.343	21.189	841.102	637.999
334.358	21.359	840.579	638.167
335.373	21.341	840.160	637.727
336.387	21.397	840.093	637.825
337.402	21.413	839.979	637.740
338.416	21.697	839.573	638.409
339.431	21.784	839.293	638.458
340.446	21.871	838.775	638.322
341.460	21.812	838.910	638.153
342.475	21.802	838.594	637.822
343.489	21.843	837.943	637.417
344.504	22.009	837.584	637.692
345.519	21.947	837.089	637.033
346.533	21.992	836.379	636.599
347.548	21.721	835.372	634.796
348.562	21.547	834.688	633.589
349.577	21.322	834.312	632.434
350.592	21.259	833.413	631.468
351.606	21.356	832.357	630.962
352.621	21.380	831.856	630.615
353.635	21.424	831.443	630.404
354.650	21.685	830.421	630.514
355.665	21.693	829.977	630.150
356.679	21.720	829.854	630.098
357.694	21.687	828.322	628.759
358.708	21.599	828.497	628.520
359.723	21.753	827.823	628.508
360.738	21.579	827.644	627.691
361.752	21.743	826.713	627.518
362.767	21.976	826.301	627.981
363.781	22.096	826.061	628.172
364.796	22.127	825.945	628.140
365.810	22.317	825.407	628.352
366.825	22.402	824.948	628.253
367.840	22.304	824.437	627.459
368.854	22.076	823.963	626.230
369.869	21.984	823.342	625.372
370.883	22.114	822.989	625.512
371.898	22.147	822.418	625.142
372.913	22.366	822.217	625.713
373.927	22.171	821.646	624.527
374.942	22.248	821.125	624.352
375.956	22.371	820.956	624.605
376.971	22.185	820.568	623.594
377.986	22.420	820.235	624.119
379.000	22.446	820.004	623.979
380.015	22.441	819.345	623.405
381.029	22.451	818.277	622.573
382.044	22.603	817.760	622.660
383.059	22.576	816.956	621.899
384.073	22.337	816.528	620.675
385.088	22.117	815.853	619.334
386.102	22.124	814.894	618.574
387.117	22.039	814.476	617.904
388.132	22.115	813.811	617.611
389.146	22.041	813.762	617.259
390.161	22.314	812.986	617.574
391.175	22.547	812.484	617.956
392.190	22.173	812.206	616.379
393.205	22.215	811.508	615.940
394.219	22.189	811.028	615.431
395.234	22.022	810.691	614.536
396.248	21.912	809.833	613.448
397.263	21.825	809.896	613.138
398.278	21.723	809.425	612.370
399.292	21.836	808.929	612.335
400.307	21.921	808.057	611.917
401.321	21.921	807.838	611.697
402.336	22.107	807.356	611.926
403.350	22.159	807.694	612.309
404.365	22.365	807.251	612.636
405.380	22.498	807.062	612.899
406.394	22.585	806.076	612.401
407.409	22.749	805.652	612.591
408.423	22.885	805.337	612.770
409.438	22.674	805.449	612.070
410.453	22.653	805.352	611.869
411.467	22.931	804.174	611.884
412.482	22.914	804.026	611.656
413.496	23.041	803.830	611.894
414.511	23.019	803.537	611.542
415.526	22.867	802.733	610.349
416.540	22.668	802.615	609.517
417.555	22.765	801.516	608.965
418.569	22.887	801.305	609.171
419.584	22.655	801.172	608.216
420.599	22.835	800.502	608.275
421.613	165.393	1370.639	1795.990
422.628	143.775	1453.667	1796.085
