DTS Sentinel unit serial number:	SN413079Multiplexer serial number:	ORYXHardware model number:	OX4-SRSoftware version number:	ORYX F/W v4.00 Oryx Data Collector v3.7.2.0data status	okinstallation	princeton_trtdifferential loss correction	single-endedforward channel	channel 1reverse channel	N/Adate	2019/09/15time	05:14:36forward acquisition time	60.00reverse acquisition time	0.00gamma	496.2192k internal	0.2325k external	0.2325temperature offset calibration	0.9995default loss term (dB/km)	0.3790temperature slope calibration	1.0000multiplexer offset coefficient	1.0000multiplexer slope coefficient	1.0000fibre end	0.00T internal ref (°C)	30.62T ext. ref 1 (°C)	4.77T ext. ref 2 (°C)	25.40length (m)	temperature (°C)	Stokes	anti-Stokes-747.200	800.000	-0.058	0.250
-746.185	49.130	0.195	0.185
-745.171	-200.000	0.006	0.208
-744.156	402.315	0.104	0.221
-743.142	175.232	-0.167	0.244
-742.127	555.787	0.158	0.384
-741.112	20.464	0.032	0.026
-740.098	-112.895	-0.191	-0.038
-739.083	63.931	-0.089	-0.090
-738.069	339.873	0.207	0.407
-737.054	28.892	-0.381	0.326
-736.039	-88.233	-0.452	0.137
-735.025	-162.134	0.008	-0.000
-734.010	-200.000	-0.004	-0.178
-732.996	-23.722	0.210	-0.127
-731.981	147.888	0.174	-0.236
-730.966	800.000	0.027	-0.076
-729.952	163.199	0.089	-0.126
-728.937	126.718	0.205	0.261
-727.923	191.418	0.240	-0.365
-726.908	34.913	-0.134	0.118
-725.894	-104.496	-0.407	-0.095
-724.879	-91.797	0.024	0.007
-723.864	150.984	-0.158	0.217
-722.850	-103.854	-0.290	-0.068
-721.835	-200.000	-0.021	0.135
-720.821	-157.436	0.188	-0.011
-719.806	370.453	-0.148	-0.302
-718.791	-2.527	-0.113	0.080
-717.777	-119.885	-0.073	-0.013
-716.762	-25.840	0.216	0.128
-715.748	-82.262	0.104	-0.034
-714.733	-14.079	-0.120	-0.078
-713.718	-28.320	-0.199	-0.116
-712.704	-48.096	0.474	0.231
-711.689	263.133	-0.091	-0.159
-710.675	194.121	-0.206	-0.315
-709.660	-45.563	0.350	0.175
-708.645	-200.000	-0.014	0.067
-707.631	444.732	-0.147	0.325
-706.616	-103.874	0.474	0.112
-705.602	800.000	0.021	-0.088
-704.587	138.282	0.188	0.249
-703.572	289.674	0.145	0.265
-702.558	300.744	0.091	0.169
-701.543	182.949	-0.254	-0.378
-700.529	-200.000	-0.049	0.300
-699.514	-25.965	0.099	-0.058
-698.499	-20.147	0.231	-0.144
-697.485	42.607	-0.174	0.160
-696.470	372.501	-0.052	-0.107
-695.456	-91.260	0.040	0.012
-694.441	800.000	-0.113	-0.364
-693.426	800.000	-0.090	-0.319
-692.412	-200.000	-0.006	0.107
-691.397	-80.073	-0.120	-0.040
-690.383	800.000	0.054	0.154
-689.368	-118.503	0.081	0.014
-688.354	44.258	-0.280	0.258
-687.339	117.898	-0.254	0.314
-686.324	-78.155	0.282	0.098
-685.310	36.530	0.063	-0.056
-684.295	800.000	0.021	-0.088
-683.281	800.000	0.034	0.144
-682.266	-200.000	-0.032	-0.267
-681.251	14.764	0.096	-0.075
-680.237	162.956	-0.207	-0.293
-679.222	-142.310	-0.418	0.042
-678.208	58.818	0.090	0.089
-677.193	-21.794	0.187	0.114
-676.178	138.796	0.242	0.320
-675.164	441.335	0.096	-0.211
-674.149	-2.977	-0.344	-0.242
-673.135	243.286	0.092	-0.155
-672.120	113.652	0.126	0.155
-671.105	800.000	-0.026	0.107
-670.091	9.517	-0.166	-0.127
-669.076	-200.000	0.000	-0.168
-668.062	-7.941	-0.127	-0.086
-667.047	-200.000	-0.018	-0.115
-666.032	18.628	-0.144	-0.116
-665.018	-103.810	-0.187	0.044
-664.003	70.181	0.054	-0.056
-662.989	-124.256	0.089	-0.014
-661.974	58.120	0.180	0.177
-660.959	-112.812	-0.057	-0.011
-659.945	452.971	-0.102	-0.226
-658.930	-92.503	0.068	0.019
-657.916	376.726	0.137	-0.281
-656.901	212.569	-0.056	-0.089
-655.886	660.930	-0.067	0.172
-654.872	518.383	0.070	-0.164
-653.857	800.000	-0.118	0.341
-652.843	-200.000	-0.015	0.202
-651.828	-156.101	0.205	-0.013
-650.814	564.528	-0.078	0.189
-649.799	42.945	0.081	0.074
-648.784	-200.000	-0.040	0.221
-647.770	-130.345	-0.426	-0.058
-646.755	33.320	0.269	-0.235
-645.741	-24.246	-0.351	0.211
-644.726	276.857	-0.203	-0.363
-643.711	-200.000	-0.020	0.386
-642.697	30.793	-0.075	0.065
-641.682	-76.994	0.092	0.032
-640.668	172.156	-0.154	-0.222
-639.653	38.714	-0.076	0.069
-638.638	-104.568	-0.244	-0.057
-637.624	-167.772	0.486	-0.019
-636.609	-142.459	0.463	0.046
-635.595	-173.089	-0.087	0.003
-634.580	6.948	0.245	-0.184
-633.565	-200.000	0.033	-0.193
-632.551	-200.000	-0.017	-0.334
-631.536	80.327	-0.073	0.079
-630.522	-80.444	-0.302	-0.101
-629.507	-164.469	-0.075	0.003
-628.492	394.720	0.065	0.135
-627.478	-99.280	0.109	-0.028
-626.463	-200.000	-0.088	0.408
-625.449	-93.375	0.070	-0.019
-624.434	-50.989	-0.121	-0.057
-623.419	-78.011	0.213	0.074
-622.405	-146.108	-0.129	0.011
-621.390	-72.096	0.392	0.146
-620.376	572.816	0.052	0.127
-619.361	-200.000	0.011	0.072
-618.346	-93.263	0.254	-0.071
-617.332	-200.000	0.004	0.021
-616.317	-86.556	-0.233	-0.072
-615.303	480.340	-0.042	0.095
-614.288	-53.758	-0.289	0.132
-613.273	-73.276	0.540	-0.198
-612.259	167.865	0.102	0.146
-611.244	-200.000	-0.027	-0.347
-610.230	-78.852	0.442	0.151
-609.215	-148.477	0.550	0.045
-608.201	646.070	0.101	0.259
-607.186	-66.465	0.407	0.162
-606.171	-200.000	-0.018	-0.150
-605.157	-200.000	-0.003	0.169
-604.142	-181.313	-0.159	0.003
-603.128	-12.546	0.059	0.039
-602.113	34.938	0.237	-0.208
-601.098	-200.000	-0.016	-0.193
-600.084	14.503	0.326	-0.255
-599.069	800.000	-0.061	-0.227
-598.055	24.785	0.070	0.059
-597.040	-61.038	0.223	0.095
-596.025	-200.000	0.006	0.223
-595.011	130.632	0.039	-0.051
-593.996	-68.206	-0.169	0.066
-592.982	-200.000	-0.017	0.275
-591.967	-72.202	-0.242	0.090
-590.952	-200.000	-0.010	-0.203
-589.938	435.271	0.022	-0.049
-588.923	-155.703	-0.197	0.013
-587.909	-95.244	0.035	-0.009
-586.894	330.216	0.044	-0.086
-585.879	-200.000	0.003	-0.070
-584.865	80.810	0.211	-0.229
-583.850	116.962	-0.173	0.214
-582.836	-60.528	0.134	0.057
-581.821	238.397	0.277	-0.462
-580.806	44.434	-0.318	-0.293
-579.792	91.863	-0.220	-0.248
-578.777	-135.495	-0.190	-0.023
-577.763	50.118	-0.079	0.075
-576.748	49.331	-0.161	0.152
-575.733	-108.290	0.079	-0.017
-574.719	800.000	-0.052	0.181
-573.704	347.827	-0.123	0.243
-572.690	-13.901	-0.141	-0.092
-571.675	-86.889	-0.273	0.084
-570.661	-200.000	0.004	-0.174
-569.646	129.008	0.148	0.189
-568.631	-86.953	-0.539	-0.165
-567.617	591.662	-0.230	0.569
-566.602	-42.470	0.154	0.079
-565.588	264.853	-0.079	0.137
-564.573	556.389	0.063	0.153
-563.558	120.531	0.026	-0.033
-562.544	800.000	0.024	0.070
-561.529	-52.433	0.201	-0.093
-560.515	27.075	-0.133	-0.112
-559.500	-30.036	0.172	-0.098
-558.485	-175.833	-0.066	-0.002
-557.471	153.786	-0.022	0.030
-556.456	-34.121	0.162	0.089
-555.442	128.083	0.149	-0.189
-554.427	96.082	-0.263	0.300
-553.412	-57.822	-0.058	0.025
-552.398	234.612	-0.213	-0.352
-551.383	800.000	0.072	0.270
-550.369	-46.275	-0.286	0.141
-549.354	628.058	0.055	0.140
-548.339	20.775	-0.209	-0.170
-547.325	-189.446	-0.130	0.002
-546.310	800.000	0.043	0.184
-545.296	367.788	0.068	-0.137
-544.281	-200.000	-0.019	-0.145
-543.266	-50.798	-0.126	-0.059
-542.252	-36.789	0.156	0.084
-541.237	163.270	-0.234	-0.329
-540.223	-200.000	-0.022	-0.132
-539.208	800.000	-0.142	-0.472
-538.193	-200.000	-0.025	0.140
-537.179	-105.987	0.304	-0.069
-536.164	800.000	0.064	-0.235
-535.150	554.032	-0.133	0.321
-534.135	-169.691	0.573	-0.021
-533.121	512.319	-0.090	-0.210
-532.106	-179.504	0.232	0.005
-531.091	-200.000	0.014	-0.211
-530.077	-42.865	-0.236	-0.120
-529.062	611.489	-0.118	-0.295
-528.048	83.359	-0.016	0.018
-527.033	-36.572	-0.108	0.058
-526.018	-200.000	-0.007	0.251
-525.004	-86.502	0.320	0.098
-523.989	628.456	0.129	-0.325
-522.975	-0.012	-0.241	-0.172
-521.960	299.461	-0.035	-0.064
-520.945	486.413	0.107	-0.244
-519.931	800.000	-0.020	-0.076
-518.916	-200.000	0.007	0.384
-517.902	-16.111	-0.239	0.152
-516.887	-181.682	0.598	-0.012
-515.872	800.000	-0.026	0.103
-514.858	-20.050	0.359	0.221
-513.843	-127.297	0.291	-0.042
-512.829	-90.565	-0.083	-0.024
-511.814	800.000	-0.047	-0.174
-510.799	-86.443	0.357	-0.110
-509.785	-46.352	-0.471	0.232
-508.770	800.000	0.074	0.237
-507.756	-13.372	-0.280	-0.182
-506.741	800.000	-0.028	-0.107
-505.726	-200.000	-0.021	-0.144
-504.712	-72.177	-0.318	0.118
-503.697	67.360	0.129	0.132
-502.683	63.658	0.197	0.198
-501.668	-192.073	-0.327	0.003
-500.653	274.268	-0.107	-0.190
-499.639	-81.363	-0.314	-0.103
-498.624	300.306	-0.071	-0.131
-497.610	-121.826	0.153	-0.025
-496.595	-101.744	0.253	0.061
-495.581	-56.991	-0.149	-0.066
-494.566	-200.000	0.035	0.236
-493.551	14.938	-0.178	0.139
-492.537	800.000	0.022	0.089
-491.522	-100.443	0.181	-0.045
-490.508	-34.263	0.276	-0.152
-489.493	-200.000	-0.016	-0.147
-488.478	405.628	-0.080	0.168
-487.464	-2.545	-0.128	-0.089
-486.449	-90.452	-0.313	0.091
-485.435	19.579	-0.127	-0.102
-484.420	603.560	0.038	0.093
-483.405	-84.253	0.314	-0.099
-482.391	-69.714	0.320	-0.122
-481.376	27.760	-0.121	0.102
-480.362	25.516	0.234	-0.194
-479.347	-91.021	0.361	-0.104
-478.332	251.624	-0.169	-0.287
-477.318	132.408	-0.047	-0.060
-476.303	23.378	-0.118	-0.097
-475.289	-200.000	-0.042	0.238
-474.274	-51.414	-0.323	0.151
-473.259	-65.060	0.250	-0.101
-472.245	661.933	0.071	-0.182
-471.230	34.994	0.209	-0.182
-470.216	38.041	0.105	0.093
-469.201	53.488	-0.185	0.178
-468.186	-4.353	-0.276	-0.190
-467.172	153.624	0.130	0.178
-466.157	482.555	0.062	-0.141
-465.143	800.000	-0.127	0.359
-464.128	-143.196	0.181	0.017
-463.113	4.433	-0.237	-0.173
-462.099	15.272	0.070	-0.055
-461.084	-94.485	0.248	0.067
-460.070	37.142	0.239	-0.211
-459.055	312.661	0.087	0.162
-458.040	-139.902	0.214	0.023
-457.026	-46.949	0.436	0.213
-456.011	-68.053	0.187	0.073
-454.997	63.666	-0.043	-0.043
-453.982	706.737	-0.064	-0.168
-452.968	-200.000	0.020	-0.111
-451.953	44.959	0.041	-0.038
-450.938	-175.174	-0.284	-0.008
-449.924	93.880	-0.098	-0.110
-448.909	499.617	-0.136	-0.314
-447.895	15.942	-0.202	-0.159
-446.880	115.982	0.228	0.278
-445.865	87.526	0.224	0.247
-444.851	331.372	-0.050	-0.095
-443.836	-73.984	-0.192	-0.070
-442.822	154.514	0.090	0.123
-441.807	-148.189	0.233	0.019
-440.792	-15.965	-0.113	0.071
-439.778	-200.000	0.002	0.202
-438.763	-200.000	0.030	-0.285
-437.749	800.000	0.046	-0.184
-436.734	800.000	-0.051	0.163
-435.719	-60.562	0.065	0.027
-434.705	150.486	-0.025	-0.034
-433.690	99.751	-0.040	0.046
-432.676	-145.486	-0.176	0.016
-431.661	6.047	-0.028	0.021
-430.646	-200.000	-0.008	0.060
-429.632	-200.000	0.057	-0.281
-428.617	-92.554	-0.165	-0.046
-427.603	235.779	-0.172	-0.284
-426.588	-35.695	-0.012	-0.006
-425.573	166.888	-0.056	-0.079
-424.559	-8.802	-0.223	0.149
-423.544	-62.261	0.246	-0.102
-422.530	-81.207	-0.220	0.072
-421.515	249.617	0.182	0.308
-420.500	-126.979	0.109	0.016
-419.486	678.662	0.114	0.296
-418.471	15.986	-0.014	0.011
-417.457	800.000	0.021	0.079
-416.442	14.597	-0.284	0.221
-415.428	-200.000	0.005	-0.385
-414.413	11.218	0.330	0.251
-413.398	-48.418	0.101	-0.049
-412.384	-111.631	-0.434	0.088
-411.369	-53.465	0.040	0.018
-410.355	-147.830	0.311	0.026
-409.340	767.983	-0.164	0.444
-408.325	234.297	-0.189	-0.310
-407.311	-200.000	-0.045	0.212
-406.296	-10.505	-0.155	0.102
-405.282	135.760	0.115	0.149
-404.267	266.904	0.142	-0.247
-403.252	-200.000	0.008	0.215
-402.238	86.051	-0.040	-0.043
-401.223	295.639	-0.097	-0.178
-400.209	108.612	-0.102	-0.122
-399.194	54.297	-0.077	0.074
-398.179	-55.153	0.163	0.073
-397.165	-154.958	-0.222	-0.015
-396.150	110.769	-0.082	-0.099
-395.136	15.320	0.040	0.031
-394.121	-200.000	-0.077	0.336
-393.106	-100.744	-0.415	0.102
-392.092	800.000	-0.043	-0.188
-391.077	-14.081	0.065	-0.042
-390.063	158.221	0.067	0.092
-389.048	136.817	-0.059	0.076
-388.033	-130.263	-0.343	0.046
-387.019	58.666	-0.024	0.023
-386.004	800.000	-0.068	-0.221
-384.990	4.067	-0.086	-0.063
-383.975	800.000	0.088	0.331
-382.960	-106.750	0.214	-0.047
-381.946	-200.000	0.043	-0.274
-380.931	-200.000	0.025	-0.280
-379.917	-2.130	0.085	-0.060
-378.902	800.000	0.081	0.229
-377.888	297.658	-0.127	0.231
-376.873	-13.637	-0.252	0.162
-375.858	-200.000	-0.026	0.470
-374.844	-108.034	0.118	0.025
-373.829	-70.665	-0.197	-0.074
-372.815	-79.557	-0.132	-0.044
-371.800	800.000	0.069	-0.213
-370.785	-80.356	0.214	-0.071
-369.771	800.000	-0.117	0.457
-368.756	800.000	-0.062	-0.206
-367.742	-2.572	0.208	0.145
-366.727	75.280	0.075	-0.079
-365.712	-1.688	0.447	-0.313
-364.698	245.897	0.133	0.223
-363.683	54.295	0.357	-0.341
-362.669	43.713	-0.079	-0.072
-361.654	800.000	-0.015	0.048
-360.639	-42.653	-0.396	-0.201
-359.625	-45.361	0.304	-0.150
-358.610	-149.257	-0.228	-0.018
-357.596	146.263	-0.156	-0.208
-356.581	-200.000	0.002	-0.024
-355.566	-83.970	-0.370	0.117
-354.552	210.157	0.114	0.178
-353.537	-74.519	-0.114	-0.041
-352.523	91.867	-0.195	-0.218
-351.508	800.000	0.037	0.109
-350.493	-22.567	-0.045	0.027
-349.479	-200.000	-0.002	-0.358
-348.464	-90.309	-0.322	-0.093
-347.450	-99.674	-0.281	-0.070
-346.435	68.986	-0.202	0.207
-345.420	-200.000	-0.007	0.200
-344.406	536.126	-0.107	-0.252
-343.391	-200.000	-0.011	0.114
-342.377	-104.790	-0.155	0.035
-341.362	-142.015	0.049	-0.005
-340.348	-73.533	0.342	0.124
-339.333	82.043	0.084	-0.090
-338.318	-149.232	0.114	0.009
-337.304	-200.000	-0.012	-0.107
-336.289	-200.000	-0.049	0.327
-335.275	-144.706	0.268	0.025
-334.260	-200.000	0.012	-0.166
-333.245	-90.012	0.228	-0.066
-332.231	-153.218	0.319	0.022
-331.216	120.698	-0.165	-0.203
-330.202	542.003	0.006	0.015
-329.187	527.720	-0.061	-0.142
-328.172	-48.583	-0.329	-0.157
-327.158	267.728	0.143	-0.248
-326.143	-164.781	0.184	0.008
-325.129	20.569	0.224	-0.180
-324.114	63.965	-0.239	-0.238
-323.099	-200.000	-0.007	0.185
-322.085	-200.000	-0.021	-0.113
-321.070	-55.411	0.185	0.082
-320.056	185.252	-0.243	-0.358
-319.041	220.154	-0.139	0.222
-318.026	-45.755	-0.105	0.051
-317.012	-98.703	0.198	-0.050
-315.997	56.287	-0.311	-0.300
-314.983	395.282	0.117	0.241
-313.968	-100.069	-0.339	0.084
-312.953	578.357	-0.128	0.311
-311.939	-80.312	-0.308	-0.102
-310.924	143.965	-0.142	-0.188
-309.910	-200.000	0.029	-0.311
-308.895	-200.000	-0.022	0.184
-307.880	6.372	0.247	0.182
-306.866	95.976	-0.259	-0.294
-305.851	-104.335	-0.131	0.030
-304.837	-131.626	0.156	0.020
-303.822	744.812	-0.057	0.151
-302.807	-155.374	0.492	0.032
-301.793	-146.016	-0.385	0.034
-300.778	198.463	0.086	0.130
-299.764	800.000	-0.087	0.253
-298.749	58.757	-0.209	0.204
-297.735	-197.126	0.402	0.003
-296.720	-200.000	0.005	-0.162
-295.705	-109.405	0.111	0.023
-294.691	188.096	-0.098	0.146
-293.676	-68.918	0.323	0.124
-292.662	-200.000	-0.004	0.040
-291.647	181.931	-0.146	-0.213
-290.632	138.165	-0.076	-0.099
-289.618	27.844	0.222	0.185
-288.603	265.208	0.053	0.092
-287.589	-24.896	-0.182	-0.107
-286.574	-200.000	-0.008	0.225
-285.559	-47.393	0.194	-0.093
-284.545	572.224	-0.038	0.092
-283.530	348.364	-0.081	-0.158
-282.516	-200.000	-0.055	-0.424
-281.501	272.283	-0.034	-0.059
-280.486	149.945	0.125	0.168
-279.472	-200.000	0.007	0.368
-278.457	73.570	0.024	-0.025
-277.443	-99.588	-0.120	-0.030
-276.428	-200.000	-0.020	0.247
-275.413	12.210	0.073	0.056
-274.399	91.054	0.259	0.288
-273.384	-26.604	-0.396	-0.229
-272.370	-200.000	-0.020	-0.137
-271.355	-200.000	0.014	0.061
-270.340	-200.000	-0.007	0.092
-269.326	-172.323	-0.358	0.011
-268.311	-130.108	-0.119	0.016
-267.297	-189.377	0.406	-0.005
-266.282	-67.531	-0.166	-0.065
-265.267	512.699	-0.106	-0.244
-264.253	800.000	-0.097	-0.378
-263.238	-101.709	-0.126	-0.030
-262.224	800.000	0.084	-0.249
-261.209	464.165	0.085	0.189
-260.195	-101.488	-0.343	0.083
-259.180	-7.623	-0.352	0.236
-258.165	646.124	0.085	-0.215
-257.151	19.370	0.218	-0.173
-256.136	-53.535	0.138	0.062
-255.122	800.000	0.028	0.119
-254.107	-200.000	-0.015	-0.072
-253.092	800.000	0.051	-0.159
-252.078	-200.000	0.042	0.201
-251.063	193.654	-0.042	0.063
-250.049	-39.424	0.093	-0.049
-249.034	62.038	0.196	-0.193
-248.019	68.585	0.157	-0.160
-247.005	-92.475	-0.376	-0.104
-245.990	73.609	0.053	-0.055
-244.976	120.176	-0.039	0.048
-243.961	71.590	-0.349	-0.358
-242.946	570.732	0.123	0.295
-241.932	-200.000	-0.005	0.149
-240.917	-200.000	0.017	0.186
-239.903	720.720	-0.079	-0.209
-238.888	-19.147	-0.262	0.161
-237.873	-136.057	0.160	0.019
-236.859	221.877	-0.092	-0.147
-235.844	92.276	0.258	0.287
-234.830	800.000	0.144	0.472
-233.815	-200.000	0.002	0.055
-232.800	-166.397	0.373	0.015
-231.786	800.000	0.154	0.438
-230.771	35.733	0.266	-0.231
-229.757	-24.899	-0.222	0.130
-228.742	44.527	0.185	0.169
-227.727	352.596	0.120	-0.235
-226.713	292.719	0.110	-0.198
-225.698	164.294	-0.128	-0.178
-224.684	-52.239	-0.154	-0.070
-223.669	-200.000	0.039	0.198
-222.655	-4.646	-0.277	-0.189
-221.640	306.932	0.116	-0.213
-220.625	390.280	-0.133	-0.272
-219.611	-32.374	-0.179	-0.099
-218.596	-123.153	-0.032	0.005
-217.582	-107.993	0.197	-0.042
-216.567	-8.869	0.331	-0.219
-215.552	53.069	-0.114	-0.108
-214.538	111.912	0.048	-0.057
-213.523	-200.000	-0.062	0.352
-212.509	-39.979	-0.207	0.107
-211.494	23.544	0.217	-0.176
-210.479	127.594	0.139	0.174
-209.465	42.789	-0.270	0.243
-208.450	-200.000	0.021	-0.268
-207.436	271.463	0.209	0.363
-206.421	396.864	0.216	0.446
-205.406	-72.286	-0.257	-0.094
-204.392	-21.841	-0.223	-0.134
-203.377	-200.000	0.025	0.172
-202.363	-200.000	0.023	0.151
-201.348	-155.695	0.410	-0.026
-200.333	800.000	0.039	0.141
-199.319	426.685	-0.126	-0.268
-198.304	-43.287	0.187	-0.093
-197.290	176.608	-0.083	0.119
-196.275	-40.571	-0.110	0.057
-195.260	-184.830	0.342	0.005
-194.246	97.996	0.110	-0.126
-193.231	-40.423	-0.200	-0.103
-192.217	341.281	-0.111	0.213
-191.202	230.253	0.054	0.088
-190.187	-113.574	0.167	-0.032
-189.173	-200.000	0.006	0.072
-188.158	123.675	-0.095	0.118
-187.144	139.874	-0.209	-0.272
-186.129	-200.000	-0.037	0.298
-185.114	276.153	-0.101	0.177
-184.100	-200.000	0.028	0.217
-183.085	447.117	0.190	0.412
-182.071	169.486	0.202	0.284
-181.056	-200.000	-0.037	-0.235
-180.042	-123.208	0.246	0.039
-179.027	-128.587	-0.206	-0.029
-178.012	-200.000	0.028	0.139
-176.998	-160.897	-0.340	0.018
-175.983	-60.265	-0.155	0.065
-174.969	800.000	-0.078	-0.214
-173.954	156.473	-0.067	-0.091
-172.939	8.416	-0.187	-0.139
-171.925	-25.291	-0.129	0.075
-170.910	-200.000	-0.013	-0.113
-169.896	-78.342	0.203	-0.069
-168.881	-97.271	0.023	-0.006
-167.866	-67.033	0.070	-0.027
-166.852	-83.301	-0.207	0.066
-165.837	98.471	0.071	-0.081
-164.823	32.590	0.565	0.481
-163.808	142.130	-0.215	0.281
-162.793	-200.000	-0.015	-0.239
-161.779	-129.313	-0.426	-0.058
-160.764	-200.000	-0.040	-0.197
-159.750	-74.316	0.475	0.169
-158.735	-88.173	0.262	-0.077
-157.720	155.954	0.081	0.110
-156.706	-200.000	0.033	0.324
-155.691	-46.905	0.408	0.196
-154.677	800.000	-0.051	-0.203
-153.662	43.357	-0.385	-0.347
-152.647	628.713	0.095	-0.238
-151.633	41.458	0.175	0.156
-150.618	72.684	0.054	0.055
-149.604	45.960	0.207	0.188
-148.589	620.628	0.094	-0.233
-147.574	262.752	0.137	0.235
-146.560	775.039	0.165	-0.444
-145.545	38.328	0.200	-0.176
-144.531	-88.583	0.030	-0.009
-143.516	-200.000	0.025	0.253
-142.502	-200.000	0.003	0.157
-141.487	343.470	0.064	-0.123
-140.472	-200.000	-0.042	0.231
-139.458	-19.796	-0.279	0.170
-138.443	-56.797	0.209	-0.091
-137.429	-125.608	0.126	-0.019
-136.414	-147.223	-0.310	0.026
-135.399	-200.000	-0.035	0.261
-134.385	23.357	-0.051	0.041
-133.370	-85.754	0.201	-0.062
-132.356	67.272	0.164	0.165
-131.341	62.104	0.187	0.184
-130.326	-45.066	0.219	-0.107
-129.312	-77.428	-0.157	-0.054
-128.297	619.621	-0.080	0.197
-127.283	-46.213	0.076	-0.037
-126.268	56.621	-0.284	-0.272
-125.253	163.294	0.075	-0.104
-124.239	-118.415	-0.341	-0.060
-123.224	-150.227	-0.127	0.010
-122.210	-84.543	-0.354	-0.110
-121.195	165.929	-0.080	-0.111
-120.180	103.086	-0.385	0.444
-119.166	-200.000	0.002	0.106
-118.151	388.248	0.065	-0.132
-117.137	800.000	0.054	0.200
-116.122	800.000	0.073	0.200
-115.107	-200.000	-0.060	0.334
-114.093	-200.000	0.031	-0.153
-113.078	319.141	0.040	-0.074
-112.064	-126.567	-0.229	0.033
-111.049	215.543	-0.035	-0.054
-110.034	184.674	-0.026	0.038
-109.020	-107.858	0.349	0.075
-108.005	-200.000	-0.044	-0.239
-106.991	-200.000	-0.028	0.150
-105.976	-168.232	0.260	-0.010
-104.962	-200.000	0.047	-0.229
-103.947	-74.085	0.217	-0.077
-102.932	64.433	0.140	0.139
-101.918	-170.961	0.346	0.012
-100.903	67.270	0.082	0.082
-99.889	402.687	-0.153	-0.317
-98.874	-200.000	-0.004	0.097
-97.859	-200.000	-0.003	0.090
-96.845	-137.279	-0.221	-0.025
-95.830	-200.000	-0.024	0.311
-94.816	57.118	0.183	0.176
-93.801	-116.469	0.320	-0.058
-92.786	145.557	0.153	-0.202
-91.772	-118.106	0.325	0.057
-90.757	68.280	0.110	-0.110
-89.743	-57.795	0.246	0.106
-88.728	-171.082	0.290	0.010
-87.713	504.461	-0.026	-0.060
-86.699	-132.651	-0.208	0.026
-85.684	-59.837	0.241	0.102
-84.670	331.502	0.191	0.362
-83.655	-200.000	0.034	-0.173
-82.640	29.128	0.227	0.189
-81.626	-36.910	0.205	0.108
-80.611	-90.889	-0.155	0.044
-79.597	-173.938	0.506	-0.015
-78.582	-149.797	-0.479	-0.037
-77.567	-86.670	-0.266	-0.080
-76.553	57.989	0.135	0.130
-75.538	-107.631	0.232	-0.050
-74.524	800.000	0.063	0.231
-73.509	-73.969	0.216	-0.077
-72.494	800.000	0.209	0.684
-71.480	96.636	-0.141	-0.159
-70.465	-95.787	0.259	-0.068
-69.451	207.162	-0.079	-0.122
-68.436	15.691	-0.180	-0.139
-67.422	158.965	0.115	0.158
-66.407	-200.000	0.034	-0.328
-65.392	475.180	0.046	0.102
-64.378	462.889	-0.095	0.207
-63.363	-48.403	0.087	0.041
-62.349	800.000	-0.027	0.078
-61.334	146.634	-0.690	-0.911
-60.319	-12.146	0.596	0.383
-59.305	800.000	-0.419	-1.354
-58.290	186.809	0.690	1.010
-57.276	800.000	0.499	1.620
-56.261	-200.000	103.024	589.007
-55.246	550.080	1436.723	3384.299
-54.232	187.288	2623.506	3843.235
-53.217	116.101	2145.307	2580.421
-52.203	42.388	1592.893	1422.442
-51.188	34.192	1328.091	1137.218
-50.173	31.079	1286.617	1083.613
-49.159	54.846	1338.350	1268.544
-48.144	56.010	1354.173	1290.376
-47.130	34.311	1310.856	1122.983
-46.115	30.781	1293.099	1087.160
-45.100	30.588	1288.242	1081.911
-44.086	30.538	1286.140	1079.812
-43.071	30.424	1283.372	1076.782
-42.057	30.463	1281.602	1075.478
-41.042	30.587	1279.296	1074.219
-40.027	30.653	1278.074	1073.533
-39.013	30.509	1276.307	1071.174
-37.998	30.549	1274.749	1070.054
-36.984	30.694	1272.977	1069.355
-35.969	30.731	1270.876	1067.761
-34.954	30.693	1269.476	1066.324
-33.940	30.505	1268.393	1064.298
-32.925	30.686	1266.858	1064.004
-31.911	30.644	1265.121	1062.265
-30.896	30.688	1264.024	1061.553
-29.881	30.766	1262.290	1060.494
-28.867	30.810	1261.079	1059.690
-27.852	30.634	1259.889	1057.646
-26.838	30.774	1258.508	1057.239
-25.823	30.701	1256.930	1055.456
-24.809	30.650	1256.099	1054.429
-23.794	30.716	1254.821	1053.687
-22.779	30.637	1253.158	1051.802
-21.765	30.786	1251.663	1051.345
-20.750	30.689	1250.660	1049.918
-19.736	30.661	1249.102	1048.410
-18.721	30.605	1248.097	1047.208
-17.706	30.577	1247.297	1046.336
-16.692	30.523	1245.859	1044.787
-15.677	30.636	1244.976	1044.641
-14.663	30.691	1243.581	1043.733
-13.648	30.631	1242.256	1042.246
-12.633	30.671	1241.148	1041.497
-11.619	30.567	1240.964	1040.718
-10.604	30.404	1240.523	1039.399
-9.590	30.505	1239.468	1039.038
-8.575	30.548	1237.832	1037.866
-7.560	30.532	1237.093	1037.115
-6.546	30.578	1236.150	1036.541
-5.531	30.494	1235.361	1035.367
-4.517	30.553	1234.889	1035.262
-3.502	30.484	1233.951	1034.048
-2.487	30.646	1232.431	1033.636
-1.473	30.599	1228.588	1030.111
-0.458	29.119	1213.699	1009.478
0.556	24.581	1196.846	972.851
1.571	21.074	1202.010	957.744
2.586	20.001	1217.777	964.253
3.600	19.694	1206.336	953.415
4.615	15.322	1136.636	875.473
5.629	8.219	1064.879	785.281
6.644	5.073	1046.352	756.314
7.659	4.772	1044.510	753.460
8.673	4.564	1043.780	751.859
9.688	4.682	1042.405	751.375
10.702	4.951	1039.909	750.803
11.717	9.017	1045.185	774.200
12.731	15.672	1055.026	813.731
13.746	18.653	1057.908	830.329
14.761	18.199	1056.749	827.152
15.775	16.997	1054.730	819.698
16.790	15.968	1052.658	813.050
17.804	15.193	1051.035	807.988
18.819	14.883	1049.970	805.606
19.834	14.614	1049.237	803.677
20.848	14.367	1048.649	801.962
21.863	14.297	1047.269	800.499
22.877	14.069	1046.978	799.111
23.892	14.202	1045.653	798.667
24.907	14.148	1045.050	797.878
25.921	14.209	1044.155	797.416
26.936	14.139	1043.120	796.221
27.950	14.225	1041.334	795.199
28.965	14.215	1040.096	794.134
29.980	14.341	1038.295	793.288
30.994	14.281	1037.711	792.489
32.009	14.428	1036.594	792.264
33.023	14.325	1035.640	790.975
34.038	14.327	1034.546	790.078
35.053	14.158	1033.746	788.597
36.067	14.288	1032.663	788.318
37.082	14.373	1031.755	787.956
38.096	14.224	1031.440	786.943
39.111	14.301	1030.457	786.482
40.126	14.291	1029.455	785.602
41.140	14.060	1028.041	783.369
42.155	14.115	1026.678	782.519
43.169	14.080	1025.589	781.451
44.184	13.952	1025.104	780.414
45.199	13.938	1023.943	779.393
46.213	14.049	1022.826	778.996
47.228	14.145	1021.535	778.395
48.242	14.231	1020.739	778.120
49.257	14.118	1019.917	776.897
50.271	14.321	1018.939	777.028
51.286	14.255	1018.113	776.023
52.301	14.183	1017.233	774.950
53.315	14.082	1016.112	773.555
54.330	13.976	1015.351	772.417
55.344	14.042	1014.774	772.213
56.359	14.082	1013.789	771.582
57.374	14.094	1012.542	770.619
58.388	14.024	1011.938	769.769
59.403	14.071	1010.654	768.940
60.417	14.117	1009.803	768.438
61.432	13.961	1009.201	767.192
62.447	13.925	1008.601	766.500
63.461	13.984	1007.633	765.973
64.476	13.894	1007.138	765.112
65.490	13.809	1006.221	763.958
66.505	13.863	1005.804	763.820
67.520	13.990	1004.987	763.716
68.534	14.007	1004.289	763.195
69.549	13.970	1003.303	762.210
70.563	13.912	1002.459	761.235
71.578	13.764	1002.108	760.225
72.593	13.926	1001.110	760.142
73.607	13.799	1000.594	759.101
74.622	13.847	999.696	758.570
75.636	13.894	998.920	758.129
76.651	13.968	998.088	757.771
77.666	13.920	997.706	757.194
78.680	13.939	997.240	756.858
79.695	13.865	996.485	755.883
80.709	13.909	996.181	755.786
81.724	14.001	995.520	755.636
82.739	13.988	994.773	754.941
83.753	14.108	993.953	754.797
84.768	14.337	992.764	754.866
85.782	14.278	992.425	754.274
86.797	14.394	991.293	753.872
87.812	14.134	990.717	752.194
88.826	14.234	989.930	751.982
89.841	14.283	989.047	751.461
90.855	14.364	988.035	750.992
91.870	14.324	987.383	750.249
92.884	14.378	986.427	749.700
93.899	14.282	985.695	748.647
94.914	14.367	985.060	748.482
95.928	14.443	983.610	747.652
96.943	14.334	982.554	746.296
97.957	14.304	981.913	745.610
98.972	14.326	981.375	745.233
99.987	14.340	980.217	744.349
101.001	14.312	979.773	743.820
102.016	14.415	978.667	743.374
103.030	14.406	977.991	742.759
104.045	14.406	976.962	741.908
105.060	14.289	976.472	740.954
106.074	14.155	975.197	739.322
107.089	14.131	974.232	738.419
108.103	13.939	973.271	736.773
109.118	14.059	972.691	736.801
110.133	14.050	971.448	735.756
111.147	13.900	971.084	734.750
112.162	14.113	970.117	734.897
113.176	14.173	969.156	734.367
114.191	14.187	968.847	734.128
115.206	14.107	968.082	733.134
116.220	14.047	966.990	731.975
117.235	14.138	965.904	731.489
118.249	14.126	965.254	730.881
119.264	14.059	964.669	730.077
120.279	14.078	963.903	729.518
121.293	14.012	962.887	728.396
122.308	13.970	962.045	727.507
123.322	14.006	961.126	726.906
124.337	13.916	960.347	725.860
125.352	13.996	959.098	725.203
126.366	14.021	958.210	724.575
127.381	14.000	957.499	723.880
128.395	14.087	956.357	723.332
129.410	14.145	955.360	722.766
130.424	14.135	954.669	722.138
131.439	14.177	953.896	721.672
132.454	14.090	953.473	720.908
133.468	14.236	952.245	720.549
134.483	14.181	951.764	719.885
135.497	14.252	950.741	719.352
136.512	14.229	949.994	718.624
137.527	14.230	949.000	717.813
138.541	14.142	948.615	717.079
139.556	14.198	947.775	716.620
140.570	14.259	947.294	716.457
141.585	14.441	946.320	716.437
142.600	14.340	945.723	715.489
143.614	14.508	944.484	715.209
144.629	14.379	944.024	714.246
145.643	14.487	942.692	713.637
146.658	14.377	941.600	712.276
147.673	14.168	941.454	711.210
148.687	14.187	940.545	710.543
149.702	14.184	939.463	709.649
150.716	14.238	938.377	708.994
151.731	14.232	938.239	708.803
152.746	14.248	937.373	708.155
153.760	14.331	936.719	707.952
154.775	14.375	936.508	707.914
155.789	14.428	935.716	707.481
156.804	14.451	934.698	706.742
157.819	14.357	934.589	706.202
158.833	14.530	933.715	706.212
159.848	14.634	932.694	705.815
160.862	14.479	931.819	704.434
161.877	14.397	930.647	703.141
162.892	14.398	929.751	702.409
163.906	14.404	928.597	701.499
164.921	14.384	928.238	701.079
165.935	14.450	927.321	700.602
166.950	14.348	926.686	699.636
167.964	14.319	926.064	698.979
168.979	14.317	925.072	698.162
169.994	14.461	924.087	697.958
171.008	14.677	923.163	698.102
172.023	14.610	922.940	697.593
173.037	14.584	921.952	696.676
174.052	14.467	921.436	695.734
175.067	14.461	920.661	695.062
176.081	14.386	920.164	694.312
177.096	14.386	919.582	693.813
178.110	14.596	919.094	694.257
179.125	14.341	918.628	692.786
180.140	14.447	918.124	692.781
181.154	14.525	917.757	692.770
182.169	14.722	916.869	692.856
183.183	14.678	916.338	692.210
184.198	14.800	915.423	691.964
185.213	14.724	914.779	691.099
186.227	14.647	914.583	690.571
187.242	14.784	913.232	690.056
188.256	14.859	912.871	690.031
189.271	14.715	912.490	689.090
190.286	14.547	911.555	687.631
191.300	14.428	910.573	686.341
192.315	14.290	909.998	685.278
193.329	14.363	909.626	685.235
194.344	14.533	909.012	685.413
195.359	14.629	908.354	685.247
196.373	14.650	907.829	684.879
197.388	14.750	907.791	685.200
198.402	14.832	906.729	684.671
199.417	14.947	906.282	684.748
200.432	15.010	905.580	684.414
201.446	15.037	905.006	684.030
202.461	15.155	904.528	684.090
203.475	14.965	904.243	683.038
204.490	15.006	903.366	682.481
205.504	14.868	902.484	681.193
206.519	14.996	901.832	681.161
207.534	14.876	900.588	679.674
208.548	15.014	900.452	680.072
209.563	14.903	899.701	678.995
210.577	14.861	899.447	678.573
211.592	14.875	898.757	678.047
212.607	15.085	897.743	678.072
213.621	15.188	896.825	677.736
214.636	14.926	896.410	676.305
215.650	15.119	895.705	676.492
216.665	15.181	895.060	676.196
217.680	15.265	894.210	675.831
218.694	15.214	893.900	675.331
219.709	15.097	893.340	674.379
220.723	15.305	892.336	674.395
221.738	15.149	891.778	673.288
222.753	15.220	891.111	673.011
223.767	15.294	890.572	672.839
224.782	15.499	889.942	673.129
225.796	15.408	889.660	672.489
226.811	15.370	889.065	671.829
227.826	15.320	888.250	670.951
228.840	15.305	887.366	670.166
229.855	15.232	886.759	669.356
230.869	15.343	885.916	669.104
231.884	15.154	885.115	667.687
232.899	15.113	884.971	667.355
233.913	15.137	883.846	666.543
234.928	15.123	882.988	665.780
235.942	15.078	882.784	665.391
236.957	15.240	882.216	665.544
237.972	15.159	881.643	664.734
238.986	15.162	880.676	663.959
240.001	15.190	880.233	663.676
241.015	15.290	879.409	663.392
242.030	15.260	879.398	663.207
243.045	15.284	878.755	662.756
244.059	15.448	878.006	662.782
245.074	15.472	877.355	662.326
246.088	15.401	876.648	661.453
247.103	15.531	876.042	661.449
248.117	15.607	875.885	661.572
249.132	15.734	875.122	661.435
250.147	15.799	874.442	661.120
251.161	15.784	873.809	660.521
252.176	15.834	873.472	660.407
253.190	15.756	872.875	659.591
254.205	15.986	871.695	659.540
255.220	15.952	871.361	659.099
256.234	15.763	870.679	657.783
257.249	15.996	870.346	658.386
258.263	15.780	869.544	656.879
259.278	15.918	868.596	656.639
260.293	15.855	868.551	656.303
261.307	15.951	867.534	655.850
262.322	15.904	867.142	655.314
263.336	16.081	866.176	655.215
264.351	16.118	865.627	654.882
265.366	16.032	865.445	654.354
266.380	15.853	864.575	652.944
267.395	16.026	863.537	652.773
268.409	15.986	862.751	651.964
269.424	15.925	862.149	651.217
270.439	16.161	861.098	651.276
271.453	15.873	861.059	650.076
272.468	15.858	860.880	649.828
273.482	15.880	860.118	649.281
274.497	16.007	859.335	649.121
275.512	16.010	858.929	648.768
276.526	15.981	858.209	648.053
277.541	16.057	857.833	648.008
278.555	16.186	856.837	647.693
279.570	16.175	856.548	647.373
280.585	16.180	855.657	646.661
281.599	16.275	854.912	646.406
282.614	16.110	854.284	645.244
283.628	15.963	854.212	644.566
284.643	16.080	853.434	644.371
285.657	16.164	852.441	643.886
286.672	16.103	851.995	643.258
287.687	16.236	851.272	643.161
288.701	16.121	851.075	642.518
289.716	16.234	850.312	642.317
290.730	16.284	849.624	641.930
291.745	16.209	849.087	641.182
292.760	16.392	848.394	641.295
293.774	16.367	848.203	641.001
294.789	16.498	847.276	640.741
295.803	16.311	846.413	639.324
296.818	16.256	845.952	638.711
297.833	16.306	844.996	638.120
298.847	16.347	844.836	638.096
299.862	16.257	844.438	637.400
300.876	16.454	843.566	637.431
301.891	16.453	842.833	636.815
302.906	16.595	842.303	636.893
303.920	16.590	842.222	636.758
304.935	16.700	841.414	636.503
305.949	16.755	840.635	636.064
306.964	16.537	840.636	635.189
307.979	16.719	839.524	634.977
308.993	16.607	839.552	634.521
310.008	16.682	838.736	634.130
311.022	16.652	837.773	633.234
312.037	16.529	837.554	632.550
313.052	16.483	836.836	631.779
314.066	16.485	836.274	631.306
315.081	16.319	836.018	630.438
316.095	16.546	835.216	630.626
317.110	16.460	834.658	629.829
318.125	16.459	834.076	629.328
319.139	16.513	833.660	629.160
320.154	16.627	833.081	629.090
321.168	16.533	832.767	628.450
322.183	16.606	832.148	628.198
323.197	16.602	831.666	627.766
324.212	16.674	831.173	627.603
325.227	16.736	830.717	627.432
326.241	16.516	830.252	626.212
327.256	16.701	829.441	626.228
328.270	16.590	828.852	625.318
329.285	16.607	828.266	624.883
330.300	16.535	827.605	624.062
331.314	16.672	827.166	624.182
332.329	16.804	826.622	624.202
333.343	16.746	826.386	623.757
334.358	16.662	826.321	623.344
335.373	16.707	825.798	623.059
336.387	16.806	825.321	623.007
337.402	16.876	825.188	623.108
338.416	16.949	824.689	622.946
339.431	17.107	824.338	623.206
340.446	16.971	823.893	622.315
341.460	17.106	823.573	622.515
342.475	16.997	823.295	621.850
343.489	17.164	822.493	621.800
344.504	17.233	821.850	621.512
345.519	17.278	821.665	621.481
346.533	17.202	821.281	620.856
347.548	17.108	820.527	619.887
348.562	16.968	819.906	618.856
349.577	17.027	819.367	618.608
350.592	17.015	818.449	617.817
351.606	16.897	818.152	617.107
352.621	17.022	817.622	617.110
353.635	17.187	816.693	616.952
354.650	17.082	816.400	616.296
355.665	17.060	815.952	615.821
356.679	17.271	814.767	615.639
357.694	17.166	814.443	614.959
358.708	17.176	814.231	614.780
359.723	17.115	813.364	613.851
360.738	17.200	812.685	613.589
361.752	17.311	812.240	613.600
362.767	17.296	811.682	613.071
363.781	17.365	811.038	612.778
364.796	17.549	810.780	613.191
365.810	17.582	810.296	612.891
366.825	17.501	810.015	612.333
367.840	17.493	809.505	611.864
368.854	17.408	809.186	611.265
369.869	17.367	808.855	610.813
370.883	17.551	808.221	610.940
371.898	17.531	808.107	610.726
372.913	17.602	807.623	610.562
373.927	17.611	806.787	609.909
374.942	17.475	806.557	609.192
375.956	17.715	805.919	609.516
376.971	17.681	805.578	609.081
377.986	17.723	805.191	608.886
379.000	17.578	804.992	608.163
380.015	17.725	804.339	608.141
381.029	17.695	803.676	607.481
382.044	17.780	803.048	607.252
383.059	17.952	801.969	606.994
384.073	17.754	801.998	606.261
385.088	17.760	801.211	605.631
386.102	17.672	800.831	604.980
387.117	17.657	800.449	604.583
388.132	17.827	799.456	604.382
389.146	17.769	799.005	603.782
390.161	17.793	798.875	603.716
391.175	17.801	798.569	603.459
392.190	17.680	798.265	602.750
393.205	17.816	797.401	602.524
394.219	17.617	797.247	601.653
395.234	17.653	796.813	601.395
396.248	17.535	796.273	600.521
397.263	17.710	795.586	600.567
398.278	17.683	795.305	600.204
399.292	17.927	794.687	600.544
400.307	17.782	794.169	599.589
401.321	17.639	794.059	598.953
402.336	17.849	793.416	599.151
403.350	17.833	792.839	598.606
404.365	17.949	792.568	598.756
405.380	18.023	792.505	598.915
406.394	17.942	791.699	597.967
407.409	18.088	791.059	597.943
408.423	18.231	790.804	598.198
409.438	18.109	790.733	597.664
410.453	18.234	790.461	597.843
411.467	18.188	789.891	597.197
412.482	18.198	789.665	597.007
413.496	18.102	789.488	596.486
414.511	18.289	788.546	596.373
415.526	18.223	788.169	595.805
416.540	18.211	787.566	595.256
417.555	18.269	787.139	595.083
418.569	18.277	786.876	594.857
419.584	18.366	786.768	595.033
420.599	18.416	786.015	594.585
421.613	157.619	1370.231	1796.341
422.628	136.246	1455.355	1796.416
