DTS Sentinel unit serial number:	SN413079Multiplexer serial number:	ORYXHardware model number:	OX4-SRSoftware version number:	ORYX F/W v4.00 Oryx Data Collector v3.7.2.0data status	okinstallation	princeton_trtdifferential loss correction	single-endedforward channel	channel 1reverse channel	N/Adate	2019/09/12time	13:04:11forward acquisition time	60.00reverse acquisition time	0.00gamma	496.2192k internal	0.2291k external	0.2291temperature offset calibration	1.0036default loss term (dB/km)	0.3790temperature slope calibration	1.0000multiplexer offset coefficient	1.0000multiplexer slope coefficient	1.0000fibre end	0.00T internal ref (°C)	40.98T ext. ref 1 (°C)	2.00T ext. ref 2 (°C)	36.52length (m)	temperature (°C)	Stokes	anti-Stokes-747.200	-14.225	0.147	-0.097
-746.185	-200.000	-0.016	-0.225
-745.171	426.417	-0.112	-0.246
-744.156	-171.452	-0.126	0.004
-743.142	-175.673	0.043	-0.001
-742.127	-26.873	-0.208	0.125
-741.112	149.640	-0.060	0.083
-740.098	61.535	-0.038	0.039
-739.083	-128.563	-0.110	-0.016
-738.069	-200.000	-0.023	0.379
-737.054	248.849	0.167	-0.290
-736.039	-100.918	-0.142	-0.036
-735.025	-200.000	-0.007	0.248
-734.010	-37.519	-0.392	-0.214
-732.996	-200.000	-0.006	-0.088
-731.981	185.591	0.106	0.161
-730.966	152.010	-0.125	0.174
-729.952	800.000	-0.035	-0.141
-728.937	-89.480	0.156	-0.047
-727.923	25.667	-0.201	0.171
-726.908	-136.733	-0.479	0.057
-725.894	-101.533	0.053	0.013
-724.879	-35.435	-0.329	0.183
-723.864	266.294	0.023	0.042
-722.850	-200.000	-0.003	0.096
-721.835	-42.012	-0.130	0.068
-720.821	38.721	-0.236	-0.216
-719.806	-61.516	0.161	-0.069
-718.791	-200.000	0.059	-0.269
-717.777	-35.338	0.156	-0.087
-716.762	71.599	-0.092	0.097
-715.748	463.130	0.088	0.200
-714.733	-26.891	-0.151	0.090
-713.718	-200.000	-0.024	-0.278
-712.704	129.041	0.047	-0.062
-711.689	-52.450	-0.152	0.072
-710.675	379.458	-0.101	0.211
-709.660	93.234	0.019	0.022
-708.645	-84.540	0.136	0.044
-707.631	-200.000	0.012	-0.161
-706.616	197.605	-0.195	-0.305
-705.602	-132.706	0.090	0.012
-704.587	-19.703	-0.185	0.117
-703.572	83.746	-0.028	0.031
-702.558	-99.007	-0.293	0.076
-701.543	-77.367	0.268	-0.095
-700.529	182.312	0.048	-0.072
-699.514	30.208	0.315	-0.275
-698.499	-200.000	-0.005	0.091
-697.485	-38.123	-0.124	-0.067
-696.470	119.598	0.214	0.271
-695.456	511.227	-0.184	-0.438
-694.441	-19.022	0.410	-0.261
-693.426	138.604	0.113	0.152
-692.412	168.801	0.075	-0.109
-691.397	-159.578	0.162	-0.009
-690.383	170.654	0.028	-0.041
-689.368	-109.075	-0.490	0.107
-688.354	87.225	-0.116	0.131
-687.339	80.222	-0.043	0.047
-686.324	-200.000	-0.039	-0.197
-685.310	-42.261	0.096	0.050
-684.295	408.196	-0.014	-0.030
-683.281	-200.000	-0.017	0.180
-682.266	-156.566	-0.271	0.017
-681.251	-89.273	-0.027	0.008
-680.237	73.695	-0.098	-0.105
-679.222	17.100	-0.165	-0.133
-678.208	215.645	0.055	-0.088
-677.193	-200.000	0.024	-0.266
-676.178	-68.649	-0.327	0.129
-675.164	-78.611	-0.084	-0.029
-674.149	6.430	0.144	0.109
-673.135	-144.324	-0.290	-0.028
-672.120	-200.000	0.032	-0.252
-671.105	332.928	0.051	-0.101
-670.091	-149.026	0.074	-0.006
-669.076	-200.000	-0.025	-0.277
-668.062	-164.968	-0.385	0.018
-667.047	-55.536	-0.277	0.127
-666.032	-200.000	-0.028	0.179
-665.018	-138.400	0.108	-0.012
-664.003	-200.000	0.001	0.390
-662.989	800.000	-0.182	0.563
-661.974	368.678	0.023	0.048
-660.959	103.546	0.141	0.169
-659.945	-118.067	-0.177	0.032
-658.930	-200.000	0.001	0.107
-657.916	-105.333	-0.158	-0.037
-656.901	-61.082	-0.177	-0.076
-655.886	800.000	-0.043	0.143
-654.872	28.712	-0.107	-0.093
-653.857	-40.347	-0.047	-0.025
-652.843	-65.259	0.130	-0.053
-651.828	48.073	-0.162	0.154
-650.814	724.840	-0.030	-0.082
-649.799	269.616	-0.115	-0.207
-648.784	281.449	-0.227	-0.414
-647.770	428.154	0.025	0.055
-646.755	-200.000	0.036	-0.239
-645.741	35.882	-0.125	-0.112
-644.726	-165.062	0.317	-0.014
-643.711	630.288	0.026	-0.067
-642.697	-75.505	0.206	0.075
-641.682	-119.044	0.200	0.036
-640.668	-110.222	0.086	0.018
-639.653	800.000	0.047	0.183
-638.638	-90.525	-0.328	-0.097
-637.624	-96.932	0.094	-0.025
-636.609	-13.326	0.253	0.167
-635.595	160.305	-0.269	0.383
-634.580	-165.977	-0.184	-0.008
-633.565	262.742	-0.034	0.060
-632.551	29.141	-0.085	-0.074
-631.536	-200.000	0.029	-0.137
-630.522	165.696	0.157	0.226
-629.507	-200.000	0.027	-0.177
-628.492	-41.650	-0.137	0.072
-627.478	297.068	-0.172	0.322
-626.463	800.000	-0.035	0.128
-625.449	320.804	0.145	0.281
-624.434	-83.268	-0.289	-0.095
-623.419	-45.670	-0.231	0.116
-622.405	173.851	0.223	-0.329
-621.390	-71.732	0.193	-0.073
-620.376	-200.000	0.024	0.329
-619.361	800.000	0.042	0.181
-618.346	37.606	-0.075	0.068
-617.332	-200.000	0.039	-0.195
-616.317	1.443	-0.171	-0.125
-615.303	-98.078	0.427	-0.112
-614.288	800.000	-0.075	0.213
-613.273	-200.000	0.027	-0.131
-612.259	-22.663	0.340	-0.209
-611.244	-40.551	0.206	0.109
-610.230	800.000	0.016	0.051
-609.215	-45.261	-0.291	0.147
-608.201	-138.218	0.108	-0.012
-607.186	25.201	-0.118	-0.100
-606.171	800.000	-0.130	-0.388
-605.157	-166.914	-0.216	-0.009
-604.142	800.000	-0.034	-0.121
-603.128	-41.653	-0.108	0.057
-602.113	-19.455	0.100	0.063
-601.098	-177.405	-0.362	0.009
-600.084	-65.470	0.064	-0.026
-599.069	-89.905	0.127	0.038
-598.055	-90.640	-0.059	0.017
-597.040	-200.000	0.025	0.141
-596.025	-72.654	0.341	0.128
-595.011	-100.624	0.256	-0.064
-593.996	-111.829	0.318	-0.065
-592.982	-55.754	-0.057	-0.026
-591.967	-200.000	-0.011	0.092
-590.952	800.000	-0.092	0.334
-589.938	-27.189	-0.128	-0.076
-588.923	140.576	0.092	-0.123
-587.909	-36.753	0.169	-0.093
-586.894	-98.033	0.199	-0.052
-585.879	-200.000	0.048	0.285
-584.865	69.119	0.111	-0.116
-583.850	-144.355	0.365	0.035
-582.836	-18.785	-0.083	-0.053
-581.821	6.649	0.082	-0.062
-580.806	-200.000	-0.013	-0.132
-579.792	57.775	-0.162	-0.162
-578.777	212.738	0.080	-0.128
-577.763	152.428	0.197	0.273
-576.748	-128.164	-0.173	-0.025
-575.733	-21.974	0.270	-0.167
-574.719	197.723	-0.130	0.201
-573.704	800.000	-0.098	-0.391
-572.690	-200.000	-0.015	-0.077
-571.675	75.398	-0.224	-0.241
-570.661	800.000	0.075	0.217
-569.646	350.782	0.033	0.066
-568.631	290.679	-0.127	0.234
-567.617	552.745	0.163	0.398
-566.602	800.000	0.111	-0.422
-565.588	55.288	0.015	0.015
-564.573	-175.177	-0.074	-0.002
-563.558	113.429	0.299	0.369
-562.544	610.747	0.091	-0.231
-561.529	8.685	0.089	-0.068
-560.515	-123.401	-0.471	-0.076
-559.500	-5.642	-0.105	0.073
-558.485	-200.000	0.010	-0.210
-557.471	800.000	-0.042	0.148
-556.456	184.259	-0.199	0.299
-555.442	-53.575	0.338	-0.157
-554.427	-6.118	-0.112	-0.078
-553.412	61.295	-0.190	0.191
-552.398	424.271	-0.129	0.281
-551.383	-200.000	0.021	0.192
-550.369	66.389	-0.039	-0.040
-549.354	-76.799	-0.298	0.106
-548.339	350.448	-0.149	0.300
-547.325	-189.356	-0.112	-0.001
-546.310	-15.215	-0.312	0.203
-545.296	440.787	-0.081	-0.179
-544.281	-169.187	-0.256	-0.010
-543.266	155.677	-0.156	-0.218
-542.252	121.808	-0.046	-0.059
-541.237	-34.648	-0.215	0.120
-540.223	-13.240	0.090	0.060
-539.208	-200.000	0.029	0.356
-538.193	726.731	0.099	-0.268
-537.179	-82.354	-0.134	0.044
-536.164	-146.495	0.450	0.040
-535.150	800.000	0.105	0.327
-534.135	-103.012	0.482	0.116
-533.121	-42.400	-0.171	0.089
-532.106	14.125	0.155	-0.123
-531.091	761.918	-0.178	0.490
-530.077	40.885	-0.056	-0.051
-529.062	-200.000	-0.026	-0.252
-528.048	133.180	-0.113	-0.148
-527.033	-162.321	-0.279	0.014
-526.018	-128.651	0.131	0.019
-525.004	-200.000	0.005	-0.153
-523.989	-66.426	0.188	0.076
-522.975	-200.000	0.007	0.125
-521.960	71.028	-0.316	-0.332
-520.945	-57.957	0.417	-0.185
-519.931	-147.350	-0.238	0.020
-518.916	227.572	-0.107	-0.177
-517.902	800.000	0.052	-0.147
-516.887	-94.666	-0.288	-0.080
-515.872	52.363	0.096	-0.093
-514.858	800.000	-0.062	0.175
-513.843	-148.555	0.269	-0.022
-512.829	-78.494	-0.185	0.064
-511.814	-26.044	0.177	-0.105
-510.799	99.726	0.060	0.071
-509.785	10.534	0.040	-0.031
-508.770	-156.504	0.075	-0.005
-507.756	389.381	-0.077	0.163
-506.741	123.010	0.190	-0.241
-505.726	-200.000	0.028	-0.155
-504.712	-200.000	-0.028	-0.171
-503.697	-200.000	0.037	-0.358
-502.683	61.982	0.179	-0.181
-501.668	800.000	0.030	0.095
-500.653	85.804	-0.126	0.140
-499.639	-128.790	0.134	-0.019
-498.624	-130.574	-0.283	-0.039
-497.610	70.303	0.086	0.090
-496.595	334.947	-0.045	0.088
-495.581	11.283	0.026	-0.020
-494.566	162.882	0.079	0.112
-493.551	-200.000	0.005	-0.083
-492.537	-36.124	0.121	0.066
-491.522	-67.123	0.099	-0.039
-490.508	80.281	0.240	0.262
-489.493	99.733	0.023	-0.027
-488.478	-30.851	0.234	0.134
-487.464	-120.473	-0.348	0.060
-486.449	272.479	-0.092	0.164
-485.435	-122.616	0.111	0.018
-484.420	-156.941	0.174	-0.011
-483.405	-121.896	0.239	-0.040
-482.391	-85.978	-0.214	0.067
-481.376	-200.000	-0.009	0.086
-480.362	-61.912	0.329	0.139
-479.347	182.738	0.073	-0.109
-478.332	-155.241	-0.279	0.018
-477.318	-200.000	-0.009	-0.063
-476.303	14.811	-0.233	-0.184
-475.289	-200.000	-0.017	0.128
-474.274	95.704	0.109	0.127
-473.259	-200.000	0.015	0.367
-472.245	-200.000	0.061	-0.316
-471.230	800.000	0.037	0.134
-470.216	-57.745	0.279	-0.124
-469.201	212.124	0.022	-0.035
-468.186	11.071	-0.138	-0.107
-467.172	38.225	-0.189	0.171
-466.157	-79.225	-0.194	-0.066
-465.143	-200.000	-0.001	-0.198
-464.128	152.533	-0.092	0.127
-463.113	49.764	0.051	-0.049
-462.099	-200.000	0.005	-0.414
-461.084	-195.481	0.098	-0.001
-460.070	728.091	0.094	0.255
-459.055	106.203	0.206	0.247
-458.040	-128.584	0.371	0.053
-457.026	187.785	-0.087	0.131
-456.011	-116.987	-0.292	0.054
-454.997	181.543	0.053	0.079
-453.982	-104.104	0.277	0.065
-452.968	66.756	0.125	0.129
-451.953	-200.000	0.037	-0.173
-450.938	762.051	0.042	-0.115
-449.924	-35.284	0.066	-0.037
-448.909	112.507	0.228	0.279
-447.895	800.000	-0.009	0.038
-446.880	-11.355	-0.370	0.247
-445.865	-200.000	0.080	-0.365
-444.851	-200.000	-0.027	-0.235
-443.836	133.061	-0.083	-0.108
-442.822	56.078	0.172	-0.169
-441.807	-200.000	0.018	-0.193
-440.792	-200.000	0.021	0.157
-439.778	-36.977	0.134	-0.073
-438.763	-37.415	-0.337	0.182
-437.749	605.688	0.067	0.169
-436.734	-106.726	0.042	0.009
-435.719	-200.000	-0.007	-0.310
-434.705	-118.739	0.274	-0.049
-433.690	-200.000	0.021	0.194
-432.676	-111.282	-0.202	-0.042
-431.661	92.574	-0.412	-0.470
-430.646	-200.000	-0.053	-0.409
-429.632	-127.741	-0.157	-0.023
-428.617	-110.624	0.410	-0.086
-427.603	-39.852	0.203	0.107
-426.588	282.355	0.103	0.186
-425.573	71.488	-0.088	0.093
-424.559	15.143	-0.188	-0.149
-423.544	-124.895	-0.286	0.045
-422.530	-165.220	-0.056	-0.003
-421.515	-200.000	0.007	0.034
-420.500	-160.187	-0.241	-0.013
-419.486	-163.537	0.133	-0.006
-418.471	-105.881	-0.030	-0.007
-417.457	174.659	0.119	0.174
-416.442	-75.892	-0.179	-0.064
-415.428	-200.000	0.001	-0.043
-414.413	-108.702	0.192	-0.042
-413.398	800.000	0.041	-0.136
-412.384	-79.699	0.260	-0.089
-411.369	-47.777	0.136	-0.067
-410.355	255.003	0.101	-0.176
-409.340	-200.000	0.040	0.358
-408.325	15.775	0.343	0.272
-407.311	-200.000	0.004	-0.454
-406.296	-157.759	-0.138	-0.008
-405.282	-61.603	0.231	-0.098
-404.267	260.916	-0.140	-0.244
-403.252	433.890	0.147	0.323
-402.238	199.745	0.104	0.162
-401.223	-200.000	0.006	-0.366
-400.209	159.568	-0.084	-0.118
-399.194	42.926	-0.141	0.130
-398.179	-200.000	0.026	-0.389
-397.165	212.839	0.082	-0.130
-396.150	-200.000	0.055	-0.315
-395.136	800.000	0.075	0.238
-394.121	-76.537	0.315	-0.112
-393.106	411.829	0.147	-0.316
-392.092	800.000	0.012	-0.043
-391.077	-127.957	-0.121	-0.018
-390.063	-200.000	-0.054	0.239
-389.048	37.004	-0.167	0.150
-388.033	6.550	-0.026	-0.020
-387.019	-200.000	-0.027	0.149
-386.004	800.000	-0.008	0.024
-384.990	247.098	-0.166	0.283
-383.975	800.000	0.047	-0.202
-382.960	209.452	0.052	0.083
-381.946	-1.921	0.151	-0.107
-380.931	11.684	-0.150	-0.116
-379.917	269.011	0.149	0.264
-378.902	-62.788	-0.462	0.193
-377.888	741.172	0.108	0.292
-376.873	10.939	-0.221	0.170
-375.858	800.000	0.059	-0.193
-374.844	68.388	-0.159	0.164
-373.829	115.012	0.026	-0.032
-372.815	-200.000	-0.015	0.258
-371.800	-8.991	-0.204	0.138
-370.785	-32.823	-0.048	0.027
-369.771	-31.300	-0.159	0.090
-368.756	-200.000	-0.084	0.432
-367.742	-107.773	-0.453	-0.100
-366.727	63.490	-0.321	0.325
-365.712	289.620	-0.129	-0.235
-364.698	292.292	-0.085	0.156
-363.683	-66.977	-0.199	0.079
-362.669	97.619	-0.020	0.023
-361.654	-200.000	0.000	-0.011
-360.639	-200.000	-0.015	0.236
-359.625	-8.348	0.112	-0.076
-358.610	-113.522	-0.241	0.048
-357.596	-24.598	-0.289	0.173
-356.581	34.028	-0.094	-0.083
-355.566	-200.000	0.037	-0.200
-354.552	-200.000	-0.024	-0.235
-353.537	-171.416	0.247	-0.008
-352.523	74.348	-0.064	0.068
-351.508	-187.360	0.208	0.003
-350.493	-129.572	-0.143	-0.020
-349.479	168.146	-0.154	0.222
-348.464	94.208	-0.068	-0.077
-347.450	416.373	-0.094	0.201
-346.435	-31.598	0.369	0.209
-345.420	506.772	0.033	-0.078
-344.406	99.394	0.090	0.105
-343.391	-158.445	-0.170	-0.010
-342.377	-200.000	-0.050	-0.251
-341.362	-66.876	0.228	-0.091
-340.348	-200.000	-0.012	-0.281
-339.333	224.654	0.147	-0.240
-338.318	-200.000	-0.021	-0.138
-337.304	-44.805	-0.069	-0.035
-336.289	67.968	-0.191	-0.197
-335.275	-174.826	0.204	-0.006
-334.260	-200.000	-0.002	0.108
-333.245	800.000	-0.061	0.188
-332.231	-94.412	-0.284	-0.078
-331.216	450.048	0.050	0.111
-330.202	96.129	0.208	0.239
-329.187	800.000	0.098	0.347
-328.172	685.733	0.096	-0.253
-327.158	-200.000	0.035	-0.164
-326.143	43.737	0.186	-0.171
-325.129	-146.148	0.154	-0.014
-324.114	-38.535	-0.190	-0.101
-323.099	-165.706	-0.276	-0.012
-322.085	-200.000	0.002	0.146
-321.070	800.000	0.152	0.564
-320.056	-48.536	0.151	0.073
-319.041	-200.000	0.005	-0.259
-318.026	800.000	0.047	-0.129
-317.012	697.897	0.100	0.264
-315.997	-65.404	0.286	-0.116
-314.983	-136.649	0.075	0.009
-313.968	-131.354	0.081	0.011
-312.953	-185.517	0.096	-0.001
-311.939	-76.012	-0.244	-0.087
-310.924	23.377	-0.139	-0.115
-309.910	-153.689	-0.159	-0.011
-308.895	195.442	-0.032	0.049
-307.880	-178.758	0.136	-0.003
-306.866	653.926	0.083	-0.214
-305.851	-107.760	0.166	-0.037
-304.837	353.829	-0.089	0.178
-303.822	-200.000	-0.038	0.222
-302.807	-45.663	-0.054	-0.027
-301.793	471.813	-0.040	-0.091
-300.778	-55.597	-0.026	0.012
-299.764	156.681	0.076	0.106
-298.749	400.042	0.066	-0.139
-297.735	800.000	0.086	0.257
-296.720	199.151	-0.115	-0.177
-295.705	-200.000	-0.021	0.141
-294.691	-119.598	0.326	-0.057
-293.676	370.286	-0.094	-0.192
-292.662	68.735	-0.044	0.045
-291.647	731.870	0.053	-0.143
-290.632	91.082	-0.230	0.260
-289.618	-53.570	-0.101	0.046
-288.603	-44.008	-0.091	0.046
-287.589	-54.074	-0.146	0.067
-286.574	191.565	-0.123	0.186
-285.559	-102.502	-0.096	-0.023
-284.545	-127.191	-0.290	0.043
-283.530	-0.274	0.127	0.091
-282.516	-200.000	-0.069	-0.318
-281.501	800.000	0.097	-0.288
-280.486	687.620	0.151	0.396
-279.472	-163.557	-0.103	0.005
-278.457	-200.000	-0.041	-0.373
-277.443	-116.165	0.073	0.014
-276.428	-115.149	0.208	0.040
-275.413	481.300	-0.048	-0.110
-274.399	-200.000	0.039	0.303
-273.384	-120.113	-0.218	0.038
-272.370	-200.000	-0.021	-0.231
-271.355	-6.642	-0.290	-0.199
-270.340	-36.310	-0.185	-0.100
-269.326	46.152	0.135	0.125
-268.311	224.564	0.110	0.178
-267.297	136.677	-0.133	0.174
-266.282	-84.754	0.280	0.089
-265.267	270.042	0.101	0.179
-264.253	-78.859	-0.140	0.048
-263.238	-152.191	0.088	-0.006
-262.224	-142.171	-0.192	0.019
-261.209	-200.000	-0.031	-0.145
-260.195	242.809	0.161	-0.271
-259.180	-83.373	0.309	0.100
-258.165	505.497	-0.112	-0.262
-257.151	-200.000	0.007	-0.152
-256.136	257.855	0.167	-0.289
-255.122	-200.000	0.023	0.251
-254.107	-200.000	-0.006	-0.241
-253.092	-54.753	-0.241	-0.109
-252.078	800.000	-0.102	-0.329
-251.063	230.425	0.146	-0.240
-250.049	-157.440	-0.218	-0.013
-249.034	174.404	0.060	0.088
-248.019	800.000	0.116	0.322
-247.005	591.919	-0.020	0.049
-245.990	-96.961	0.078	0.020
-244.976	-113.189	-0.111	0.022
-243.961	-200.000	-0.009	-0.109
-242.946	388.589	0.141	-0.294
-241.932	-113.631	-0.363	0.071
-240.917	99.897	-0.051	0.059
-239.903	271.534	0.118	-0.209
-238.888	-7.485	0.189	-0.128
-237.873	246.804	-0.064	0.108
-236.859	-200.000	-0.001	0.064
-235.844	-39.003	0.172	0.091
-234.830	32.891	0.277	-0.241
-233.815	-104.797	-0.142	-0.033
-232.800	-121.107	-0.270	0.045
-231.786	252.102	-0.106	0.181
-230.771	-162.278	-0.095	-0.005
-229.757	800.000	0.050	-0.197
-228.742	107.552	-0.218	0.261
-227.727	71.237	-0.057	0.059
-226.713	800.000	0.036	0.128
-225.698	-6.379	-0.316	-0.216
-224.684	-200.000	0.021	-0.183
-223.669	-47.293	-0.334	-0.163
-222.655	314.294	0.251	0.475
-221.640	487.846	0.038	0.088
-220.625	-0.605	0.250	0.178
-219.611	-43.823	-0.249	0.126
-218.596	-89.417	-0.199	-0.059
-217.582	11.383	-0.211	-0.162
-216.567	-119.455	0.477	0.083
-215.552	-79.475	-0.151	-0.051
-214.538	-200.000	0.000	-0.231
-213.523	171.849	0.089	-0.128
-212.509	217.058	-0.189	-0.301
-211.494	-144.881	-0.137	-0.013
-210.479	800.000	-0.030	0.102
-209.465	-200.000	-0.015	0.106
-208.450	152.861	0.106	-0.146
-207.436	-92.417	0.067	-0.019
-206.421	-155.519	-0.135	0.009
-205.406	800.000	0.016	-0.068
-204.392	-91.675	-0.295	-0.084
-203.377	-153.782	-0.201	0.014
-202.363	800.000	0.027	0.112
-201.348	214.738	0.149	0.237
-200.333	-10.018	-0.077	0.051
-199.319	-132.619	0.156	-0.020
-198.304	-173.022	0.154	-0.005
-197.290	-200.000	0.012	0.472
-196.275	512.838	-0.105	-0.245
-195.260	800.000	0.053	-0.152
-194.246	-12.664	0.227	-0.148
-193.231	79.830	-0.059	-0.064
-192.217	-200.000	0.024	0.323
-191.202	437.140	-0.166	0.363
-190.187	-200.000	-0.021	0.091
-189.173	116.929	0.226	-0.278
-188.158	6.578	0.101	0.075
-187.144	753.117	-0.049	0.132
-186.129	-66.389	-0.127	-0.051
-185.114	-3.344	0.271	0.189
-184.100	-113.344	-0.346	-0.068
-183.085	-6.206	0.207	-0.142
-182.071	206.831	-0.025	0.038
-181.056	-200.000	0.021	-0.100
-180.042	187.183	-0.066	-0.098
-179.027	-145.267	0.125	0.011
-178.012	-53.449	0.123	0.056
-176.998	590.589	-0.138	0.341
-175.983	-200.000	0.002	-0.250
-174.969	163.099	0.055	0.077
-173.954	-200.000	0.011	-0.052
-172.939	281.898	-0.192	0.344
-171.925	800.000	0.056	-0.173
-170.910	-200.000	-0.023	-0.244
-169.896	-98.413	0.265	0.068
-168.881	-200.000	0.070	-0.333
-167.866	-125.930	-0.246	0.037
-166.852	-195.432	0.041	0.000
-165.837	56.737	0.022	-0.021
-164.823	-63.837	0.194	-0.080
-163.808	181.656	-0.082	-0.121
-162.793	-200.000	-0.032	-0.177
-161.779	-162.007	0.338	-0.017
-160.764	-7.483	-0.159	0.108
-159.750	-200.000	0.010	-0.205
-158.735	-21.553	0.196	0.119
-157.720	-160.604	0.298	-0.016
-156.706	-69.077	-0.116	-0.045
-155.691	-147.865	0.020	-0.002
-154.677	171.526	0.098	0.141
-153.662	209.414	-0.129	-0.203
-152.647	217.676	0.115	0.184
-151.633	-200.000	-0.034	0.214
-150.618	-178.639	0.213	-0.005
-149.604	207.971	0.014	0.022
-148.589	-56.655	-0.202	0.089
-147.574	89.549	-0.214	-0.238
-146.560	-200.000	0.000	-0.196
-145.545	-80.661	-0.205	0.068
-144.531	-23.428	0.356	0.214
-143.516	89.951	-0.186	0.207
-142.502	-200.000	0.038	0.170
-141.487	103.130	-0.198	0.232
-140.472	-200.000	0.029	0.178
-139.458	-200.000	-0.396	0.001
-138.443	800.000	-0.087	-0.242
-137.429	43.311	-0.100	-0.091
-136.414	22.516	-0.115	0.094
-135.399	102.173	0.066	0.077
-134.385	16.890	0.329	0.261
-133.370	56.809	0.100	-0.097
-132.356	-1.103	0.109	-0.077
-131.341	-200.000	-0.021	0.095
-130.326	215.999	-0.066	0.105
-129.312	800.000	-0.019	-0.080
-128.297	128.153	-0.076	-0.096
-127.283	-56.681	0.181	0.080
-126.268	-18.038	0.046	0.029
-125.253	-73.191	-0.123	0.045
-124.239	800.000	0.015	-0.064
-123.224	-101.840	-0.096	-0.023
-122.210	-4.710	-0.125	-0.086
-121.195	18.673	-0.075	0.060
-120.180	-0.614	0.204	-0.144
-119.166	-119.493	0.102	0.018
-118.151	-58.953	0.204	0.088
-117.137	399.670	0.067	0.141
-116.122	-57.831	-0.064	0.028
-115.107	30.429	0.196	0.167
-114.093	-179.517	0.062	0.001
-113.078	449.752	0.111	0.244
-112.064	71.270	0.129	-0.133
-111.049	116.068	0.176	-0.215
-110.034	-125.100	0.100	-0.015
-109.020	-101.625	-0.417	-0.101
-108.005	212.410	-0.310	0.488
-106.991	-121.437	0.139	0.023
-105.976	-106.441	-0.054	0.012
-104.962	125.385	0.051	-0.064
-103.947	96.676	0.028	0.033
-102.932	-200.000	0.027	-0.250
-101.918	800.000	0.028	-0.102
-100.903	-200.000	-0.002	-0.081
-99.889	-1.288	-0.175	-0.123
-98.874	-4.883	0.226	0.155
-97.859	103.326	0.205	0.241
-96.845	-200.000	0.017	-0.212
-95.830	800.000	-0.051	0.159
-94.816	-104.919	-0.207	0.047
-93.801	-79.721	0.155	-0.052
-92.786	-145.796	-0.349	-0.031
-91.772	800.000	-0.026	0.094
-90.757	-129.703	0.187	0.026
-89.743	-29.111	-0.337	0.193
-88.728	-5.833	0.175	-0.119
-87.713	-200.000	0.002	0.048
-86.699	-172.226	0.074	-0.002
-85.684	-46.960	-0.085	0.041
-84.670	-109.060	-0.023	-0.005
-83.655	-49.924	0.161	-0.076
-82.640	-48.558	-0.381	-0.183
-81.626	76.753	0.360	-0.381
-80.611	2.114	0.048	0.035
-79.597	-61.255	0.311	-0.131
-78.582	395.118	0.058	0.122
-77.567	-118.448	-0.285	-0.050
-76.553	-1.625	0.181	-0.127
-75.538	135.915	0.273	0.355
-74.524	-64.842	0.111	-0.045
-73.509	-29.929	-0.112	-0.063
-72.494	-200.000	0.017	0.155
-71.480	239.389	-0.024	-0.040
-70.465	800.000	-0.031	0.119
-69.451	-200.000	0.036	0.340
-68.436	-117.064	0.184	0.034
-67.422	34.143	0.052	-0.045
-66.407	55.149	-0.153	0.147
-65.392	-56.019	0.152	0.067
-64.378	24.511	-0.094	0.078
-63.363	44.106	0.110	-0.101
-62.349	-200.000	0.000	-0.011
-61.334	49.533	-0.699	-0.656
-60.319	230.105	0.212	0.346
-59.305	800.000	-0.161	-0.477
-58.290	-200.000	0.156	0.803
-57.276	687.510	0.679	1.770
-56.261	-200.000	75.660	508.930
-55.246	522.004	1327.358	3105.716
-54.232	145.312	2562.263	3418.294
-53.217	117.997	2228.881	2737.112
-52.203	52.931	1669.619	1591.725
-51.188	44.685	1391.834	1275.482
-50.173	41.063	1345.389	1210.879
-49.159	59.690	1380.392	1357.132
-48.144	66.575	1399.033	1417.598
-47.130	45.259	1362.191	1251.639
-46.115	41.147	1345.583	1211.372
-45.100	40.829	1341.445	1205.672
-44.086	40.819	1338.353	1202.783
-43.071	40.737	1336.097	1200.211
-42.057	40.703	1333.864	1197.952
-41.042	40.681	1332.618	1196.653
-40.027	40.893	1330.794	1196.243
-39.013	40.908	1328.416	1194.153
-37.998	40.876	1326.840	1192.493
-36.984	40.820	1325.114	1190.563
-35.969	40.974	1323.483	1189.970
-34.954	41.030	1321.583	1188.550
-33.940	41.028	1320.196	1187.244
-32.925	41.043	1318.883	1186.103
-31.911	41.163	1317.458	1185.489
-30.896	41.229	1315.407	1183.989
-29.881	41.033	1314.941	1182.361
-28.867	41.081	1313.295	1181.115
-27.852	41.139	1311.452	1179.755
-26.838	41.117	1310.303	1178.548
-25.823	41.066	1308.926	1176.962
-24.809	41.021	1307.565	1175.421
-23.794	41.188	1305.990	1174.947
-22.779	40.942	1305.087	1172.635
-21.765	40.988	1303.628	1171.552
-20.750	41.043	1302.390	1170.712
-19.736	40.995	1300.567	1168.750
-18.721	40.780	1299.842	1166.784
-17.706	40.916	1298.315	1166.165
-16.692	40.952	1297.042	1165.188
-15.677	41.020	1296.070	1164.669
-14.663	40.972	1294.903	1163.293
-13.648	40.956	1293.800	1162.164
-12.633	40.949	1292.743	1161.126
-11.619	40.971	1291.792	1160.352
-10.604	40.901	1291.204	1159.372
-9.590	40.940	1290.238	1158.682
-8.575	40.929	1289.260	1157.694
-7.560	40.978	1288.090	1156.886
-6.546	40.957	1287.429	1156.125
-5.531	40.815	1286.609	1154.515
-4.517	40.974	1285.096	1154.037
-3.502	40.955	1284.611	1153.445
-2.487	41.066	1283.280	1152.848
-1.473	41.070	1280.004	1149.881
-0.458	39.980	1265.658	1130.716
0.556	36.247	1245.642	1089.435
1.571	31.885	1248.760	1067.304
2.586	30.552	1262.902	1071.620
3.600	29.111	1252.927	1054.809
4.615	21.354	1175.640	947.773
5.629	8.635	1090.774	814.890
6.644	2.466	1066.493	765.888
7.659	1.965	1063.487	761.160
8.673	1.852	1061.479	759.096
9.688	1.719	1060.424	757.609
10.702	2.099	1059.615	758.855
11.717	9.279	1070.249	802.344
12.731	20.584	1086.848	871.712
13.746	25.256	1091.680	898.977
14.761	25.296	1091.611	899.040
15.775	25.318	1090.936	898.515
16.790	25.138	1089.816	896.613
17.804	24.968	1089.914	895.767
18.819	25.099	1089.385	895.904
19.834	25.120	1088.690	895.360
20.848	25.259	1088.124	895.510
21.863	25.180	1087.924	894.873
22.877	25.059	1087.272	893.652
23.892	25.195	1086.418	893.550
24.907	25.113	1085.665	892.442
25.921	25.196	1084.339	891.687
26.936	25.174	1083.078	890.459
27.950	25.066	1081.645	888.668
28.965	24.885	1079.992	886.337
29.980	25.007	1078.145	885.344
30.994	25.243	1077.248	885.693
32.009	25.239	1076.340	884.851
33.023	25.013	1075.458	882.932
34.038	25.100	1074.657	882.623
35.053	25.239	1073.752	882.487
36.067	25.139	1073.135	881.413
37.082	25.291	1072.283	881.379
38.096	25.457	1071.405	881.395
39.111	25.456	1070.884	880.885
40.126	25.215	1069.872	878.792
41.140	24.955	1067.749	875.700
42.155	24.689	1066.505	873.303
43.169	24.761	1065.590	872.829
44.184	24.797	1064.575	872.096
45.199	24.583	1063.755	870.302
46.213	24.760	1062.749	870.265
47.228	24.906	1062.399	870.609
48.242	25.046	1061.370	870.372
49.257	25.287	1059.964	870.308
50.271	25.145	1060.073	869.634
51.286	25.230	1058.873	868.983
52.301	25.212	1058.198	868.268
53.315	25.081	1057.080	866.638
54.330	25.050	1056.350	865.816
55.344	25.036	1055.483	864.960
56.359	25.042	1054.794	864.345
57.374	24.837	1053.725	862.405
58.388	24.872	1052.894	861.819
59.403	24.753	1052.399	860.766
60.417	24.766	1051.057	859.650
61.432	24.851	1051.132	860.044
62.447	24.792	1050.183	858.913
63.461	24.882	1049.642	858.824
64.476	24.827	1048.666	857.688
65.490	24.660	1046.899	855.366
66.505	24.861	1046.499	855.922
67.520	24.887	1046.070	855.621
68.534	24.719	1044.838	853.738
69.549	24.296	1043.919	850.893
70.563	24.266	1043.550	850.373
71.578	24.360	1042.245	849.684
72.593	24.294	1041.508	848.691
73.607	24.352	1040.860	848.366
74.622	24.625	1040.541	849.326
75.636	24.664	1039.889	848.904
76.651	24.557	1038.920	847.531
77.666	24.459	1038.016	846.252
78.680	24.499	1037.522	845.966
79.695	24.667	1036.705	846.020
80.709	24.671	1036.520	845.815
81.724	24.617	1035.544	844.685
82.739	24.805	1034.635	844.760
83.753	25.086	1034.248	845.696
84.768	25.308	1033.786	846.286
85.782	25.561	1032.564	846.404
86.797	25.366	1031.686	844.692
87.812	25.295	1030.617	843.406
88.826	25.333	1029.834	842.873
89.841	25.478	1028.804	842.633
90.855	25.408	1028.084	841.641
91.870	25.193	1027.502	840.082
92.884	25.177	1026.392	839.028
93.899	25.159	1025.231	837.918
94.914	25.303	1024.846	838.202
95.928	25.290	1023.133	836.669
96.943	24.958	1022.290	834.361
97.957	24.701	1021.196	832.194
98.972	24.652	1019.654	830.639
99.987	24.843	1019.201	831.081
101.001	25.059	1018.975	831.826
102.016	24.968	1017.730	830.314
103.030	24.890	1017.008	829.293
104.045	24.785	1015.833	827.776
105.060	24.709	1014.751	826.468
106.074	24.979	1013.835	826.894
107.089	25.225	1013.615	827.779
108.103	25.103	1012.650	826.354
109.118	24.884	1011.577	824.398
110.133	24.742	1010.554	822.838
111.147	24.573	1009.184	820.871
112.162	24.616	1008.416	820.374
113.176	24.748	1008.287	820.802
114.191	24.765	1007.081	819.822
115.206	24.396	1006.323	817.445
116.220	24.439	1005.266	816.709
117.235	24.508	1004.220	816.105
118.249	24.532	1004.053	816.005
119.264	24.484	1002.360	814.337
120.279	24.416	1002.101	813.743
121.293	24.598	1001.285	813.841
122.308	24.668	1000.254	813.249
123.322	24.372	999.546	811.256
124.337	24.436	997.806	810.063
125.352	23.854	996.364	806.183
126.366	23.774	995.666	805.184
127.381	24.654	995.440	808.914
128.395	24.825	995.527	809.688
129.410	25.096	994.183	809.745
130.424	25.079	993.329	808.901
131.439	25.017	992.682	808.026
132.454	25.196	991.459	807.761
133.468	24.919	990.714	805.838
134.483	25.168	989.962	806.272
135.497	25.190	989.785	806.159
136.512	25.332	988.925	806.022
137.527	25.318	988.165	805.269
138.541	25.437	986.848	804.660
139.556	25.394	986.240	803.899
140.570	25.495	985.572	803.737
141.585	25.533	984.251	802.754
142.600	25.435	983.313	801.482
143.614	25.478	983.198	801.512
144.629	25.765	982.130	801.848
145.643	25.558	980.431	799.469
146.658	25.491	978.945	797.889
147.673	25.310	978.609	796.742
148.687	25.218	977.509	795.367
149.702	25.069	976.299	793.653
150.716	25.080	975.491	792.975
151.731	25.200	975.054	793.078
152.746	25.478	974.281	793.611
153.760	25.446	974.032	793.195
154.775	25.532	973.498	793.069
155.789	25.508	972.021	791.690
156.804	25.480	971.336	790.939
157.819	25.421	970.923	790.270
158.833	25.559	970.196	790.216
159.848	25.617	968.921	789.364
160.862	25.462	967.276	787.274
161.877	25.426	966.722	786.594
162.892	25.451	965.830	785.909
163.906	25.381	964.815	784.709
164.921	25.361	963.632	783.590
165.935	25.493	962.902	783.501
166.950	25.432	961.854	782.317
167.964	25.447	961.099	781.696
168.979	25.343	959.816	780.131
169.994	25.196	959.527	779.188
171.008	25.486	958.528	779.570
172.023	25.376	958.348	778.874
173.037	25.353	956.757	777.413
174.052	25.214	955.954	776.092
175.067	25.292	954.982	775.569
176.081	25.299	954.994	775.543
177.096	25.219	954.270	774.541
178.110	24.891	953.143	772.142
179.125	24.641	952.569	770.531
180.140	24.916	951.900	771.109
181.154	25.076	951.534	771.432
182.169	25.305	951.625	772.420
183.183	25.629	950.911	773.165
184.198	25.374	950.124	771.364
185.213	25.374	949.622	770.889
186.227	25.600	948.834	771.147
187.242	25.463	948.238	770.010
188.256	25.450	947.755	769.492
189.271	25.691	946.337	769.302
190.286	25.314	945.407	766.869
191.300	24.506	944.614	762.710
192.315	23.805	942.753	758.150
193.329	23.694	942.232	757.189
194.344	24.657	942.804	761.688
195.359	25.136	943.356	764.109
196.373	25.414	942.238	764.319
197.388	25.186	941.880	762.991
198.402	25.344	940.823	762.741
199.417	25.428	940.549	762.807
200.432	25.138	939.221	760.431
201.446	25.036	938.237	759.136
202.461	25.045	937.898	758.832
203.475	24.075	936.253	753.332
204.490	23.412	934.455	749.017
205.504	24.362	935.191	753.556
206.519	24.965	934.958	755.848
207.534	24.988	934.617	755.600
208.548	25.400	934.774	757.401
209.563	25.284	933.420	755.746
210.577	25.251	932.792	755.035
211.592	25.615	932.306	756.103
212.607	25.552	931.584	755.189
213.621	25.678	930.990	755.167
214.636	25.558	930.375	754.100
215.650	25.502	929.571	753.144
216.665	25.561	929.128	752.967
217.680	25.581	928.264	752.285
218.694	25.080	926.942	749.052
219.709	24.927	926.586	748.059
220.723	25.242	926.291	749.070
221.738	25.401	925.458	748.992
222.753	25.314	924.901	748.114
223.767	25.356	924.626	748.002
224.782	25.634	924.397	748.905
225.796	25.731	923.577	748.577
226.811	24.988	922.025	744.170
227.826	24.355	921.026	740.668
228.840	24.539	920.363	740.833
229.855	24.608	919.804	740.606
230.869	24.354	918.429	738.379
231.884	24.601	918.985	739.787
232.899	25.345	918.979	742.796
233.913	25.338	918.390	742.224
234.928	25.184	917.890	741.119
235.942	25.219	917.323	740.737
236.957	24.785	916.042	737.848
237.972	24.713	915.863	737.342
238.986	24.966	915.011	737.634
240.001	25.115	914.290	737.599
241.015	25.159	913.961	737.449
242.030	25.266	913.665	737.585
243.045	25.363	912.688	737.131
244.059	25.477	912.609	737.467
245.074	25.366	911.434	736.001
246.088	25.038	910.252	733.636
247.103	25.203	910.714	734.622
248.117	25.881	910.487	737.147
249.132	26.024	910.102	737.356
250.147	26.086	909.799	737.295
251.161	26.207	909.256	737.284
252.176	26.283	908.310	736.761
253.190	26.313	907.858	736.454
254.205	26.423	907.228	736.325
255.220	26.511	906.497	736.027
256.234	26.281	905.678	734.360
257.249	26.123	905.340	733.379
258.263	26.257	904.387	733.085
259.278	26.137	903.965	732.192
260.293	26.338	903.457	732.531
261.307	26.200	902.945	731.494
262.322	26.074	901.748	729.948
263.336	25.364	899.941	725.554
264.351	24.365	898.006	719.901
265.366	24.304	898.035	719.611
266.380	25.469	898.516	724.637
267.395	26.017	898.096	726.441
268.409	25.772	897.666	725.044
269.424	25.992	897.167	725.461
270.439	26.006	896.558	724.958
271.453	26.041	896.177	724.726
272.468	26.335	895.820	725.555
273.482	26.204	895.397	724.623
274.497	25.954	893.749	722.223
275.512	25.672	892.644	720.138
276.526	26.000	892.736	721.460
277.541	26.160	892.514	721.858
278.555	25.942	891.842	720.380
279.570	25.711	891.248	718.913
280.585	25.990	890.838	719.633
281.599	25.953	889.622	718.440
282.614	25.356	888.184	714.839
283.628	25.170	887.921	713.824
284.643	25.736	887.533	715.700
285.657	25.217	886.672	712.880
286.672	24.883	885.737	710.739
287.687	25.543	885.691	713.261
288.701	25.628	885.135	713.086
289.716	25.317	884.142	710.991
290.730	25.456	883.481	710.947
291.745	25.123	882.721	708.956
292.760	25.352	882.422	709.558
293.774	26.258	882.918	713.472
294.789	26.727	882.520	714.938
295.803	26.643	882.249	714.326
296.818	26.606	881.611	713.600
297.833	26.217	880.184	710.852
298.847	26.025	879.489	709.470
299.862	26.425	879.484	710.978
300.876	26.645	879.367	711.686
301.891	26.484	878.500	710.286
302.906	26.157	877.252	707.933
303.920	26.189	877.354	708.077
304.935	26.663	876.969	709.565
305.949	26.591	876.222	708.614
306.964	26.319	875.405	706.827
307.979	26.406	875.255	706.984
308.993	26.759	874.469	707.666
310.008	26.713	873.935	706.989
311.022	26.379	873.281	705.097
312.037	26.213	872.686	703.905
313.052	26.123	871.715	702.711
314.066	25.205	870.071	697.753
315.081	24.709	869.633	695.413
316.095	25.684	869.899	699.356
317.110	26.175	869.732	701.066
318.125	25.334	868.400	696.670
319.139	24.314	866.710	691.299
320.154	24.317	866.275	690.901
321.168	25.191	866.805	694.649
322.183	25.958	866.571	697.369
323.197	26.055	866.777	697.850
324.212	26.196	866.490	698.100
325.227	26.370	865.510	697.920
326.241	26.261	864.671	696.762
327.256	26.086	864.309	695.734
328.270	26.103	863.339	694.959
329.285	25.901	862.655	693.566
330.300	25.721	861.549	691.928
331.314	25.890	861.488	692.465
332.329	26.246	861.810	694.031
333.343	26.414	861.397	694.282
334.358	26.462	860.592	693.755
335.373	26.454	860.701	693.750
336.387	26.695	860.616	694.544
337.402	26.892	860.617	695.241
338.416	26.806	860.175	694.493
339.431	26.927	859.911	694.682
340.446	27.051	859.556	694.806
341.460	26.930	858.916	693.767
342.475	26.804	858.237	692.674
343.489	26.895	857.907	692.696
344.504	27.084	857.882	693.332
345.519	27.317	857.033	693.474
346.533	27.348	856.448	693.059
347.548	27.228	856.188	692.331
348.562	27.132	855.585	691.416
349.577	27.136	855.365	691.189
350.592	27.024	854.414	689.936
351.606	27.159	853.663	689.780
352.621	27.128	852.846	688.941
353.635	26.952	852.500	687.936
354.650	26.287	850.450	683.704
355.665	25.354	848.938	678.904
356.679	25.579	848.882	679.648
357.694	26.265	848.269	681.689
358.708	26.126	847.662	680.615
359.723	26.480	848.069	682.218
360.738	26.835	847.225	682.814
361.752	26.862	846.798	682.513
362.767	27.347	846.482	684.020
363.781	27.526	846.432	684.593
364.796	27.760	845.483	684.643
365.810	27.729	845.078	684.137
366.825	27.663	844.717	683.536
367.840	27.186	844.355	681.396
368.854	26.856	843.170	679.144
369.869	27.010	842.658	679.249
370.883	26.991	842.242	678.781
371.898	26.943	841.835	678.214
372.913	26.926	841.922	678.158
373.927	27.169	841.301	678.506
374.942	27.237	840.969	678.431
375.956	27.205	840.686	678.026
376.971	27.442	840.072	678.352
377.986	27.729	839.460	678.867
379.000	27.572	839.110	677.940
380.015	27.468	838.436	676.948
381.029	27.487	837.799	676.446
382.044	27.694	837.053	676.551
383.059	27.693	836.705	676.204
384.073	27.689	836.153	675.684
385.088	27.375	835.789	674.167
386.102	27.436	834.633	673.403
387.117	27.237	834.383	672.405
388.132	26.998	832.912	670.277
389.146	26.623	831.772	667.917
390.161	26.835	832.064	668.876
391.175	27.183	831.987	670.039
392.190	27.116	830.972	668.915
393.205	25.708	828.829	661.955
394.219	24.118	827.252	654.796
395.234	23.982	826.711	653.811
396.248	25.441	828.485	660.525
397.263	27.091	829.301	667.183
398.278	27.123	828.611	666.687
399.292	26.824	828.278	665.263
400.307	26.677	827.660	664.168
401.321	26.979	827.152	664.806
402.336	27.313	826.967	665.821
403.350	27.749	827.034	667.412
404.365	28.073	826.853	668.390
405.380	28.302	826.751	669.087
406.394	28.446	826.009	668.952
407.409	28.279	825.387	667.781
408.423	28.262	824.866	667.240
409.438	28.373	824.635	667.396
410.453	28.296	824.499	666.949
411.467	28.264	823.795	666.203
412.482	28.250	823.502	665.857
413.496	28.289	823.004	665.534
414.511	28.352	822.515	665.311
415.526	28.300	822.372	664.946
416.540	28.092	821.696	663.588
417.555	27.829	820.963	661.982
418.569	28.058	820.398	662.297
419.584	28.011	819.900	661.667
420.599	27.914	818.909	660.457
421.613	93.999	1262.915	1370.213
422.628	80.958	1327.615	1370.348
