DTS Sentinel unit serial number:	SN413079Multiplexer serial number:	ORYXHardware model number:	OX4-SRSoftware version number:	ORYX F/W v4.00 Oryx Data Collector v3.7.2.0data status	okinstallation	princeton_trtdifferential loss correction	single-endedforward channel	channel 1reverse channel	N/Adate	2019/09/10time	19:20:11forward acquisition time	60.00reverse acquisition time	0.00gamma	496.2192k internal	0.2319k external	0.2319temperature offset calibration	0.9932default loss term (dB/km)	0.3790temperature slope calibration	1.0000multiplexer offset coefficient	1.0000multiplexer slope coefficient	1.0000fibre end	0.00T internal ref (°C)	33.81T ext. ref 1 (°C)	-0.30T ext. ref 2 (°C)	26.39length (m)	temperature (°C)	Stokes	anti-Stokes-747.200	456.275	-0.048	0.108
-746.185	93.155	-0.096	0.110
-745.171	800.000	0.119	0.332
-744.156	-42.967	-0.336	-0.172
-743.142	203.195	-0.056	0.088
-742.127	707.096	0.105	0.281
-741.112	800.000	0.070	-0.208
-740.098	-37.215	-0.208	0.112
-739.083	-76.027	-0.170	0.061
-738.069	800.000	-0.188	0.587
-737.054	194.602	-0.079	0.121
-736.039	243.292	0.018	-0.031
-735.025	-114.895	0.238	0.046
-734.010	800.000	-0.103	-0.423
-732.996	-125.319	-0.391	-0.060
-731.981	-200.000	0.015	0.143
-730.966	-78.732	-0.364	-0.126
-729.952	123.299	-0.094	0.119
-728.937	800.000	-0.064	0.181
-727.923	800.000	-0.069	0.256
-726.908	-71.927	-0.245	0.092
-725.894	-98.377	0.201	-0.052
-724.879	-7.830	-0.258	0.176
-723.864	800.000	-0.018	-0.061
-722.850	84.437	0.079	0.087
-721.835	-200.000	-0.023	0.294
-720.821	137.357	-0.119	-0.158
-719.806	-72.311	0.261	-0.098
-718.791	151.197	0.118	-0.162
-717.777	284.053	0.126	0.229
-716.762	580.464	-0.106	-0.262
-715.748	-200.000	-0.026	0.179
-714.733	-100.297	-0.106	-0.027
-713.718	281.710	-0.067	0.121
-712.704	465.696	0.057	0.130
-711.689	-200.000	-0.046	0.309
-710.675	522.760	-0.072	-0.170
-709.660	-200.000	-0.020	0.142
-708.645	-200.000	-0.037	-0.248
-707.631	-45.763	0.165	-0.082
-706.616	-95.186	-0.177	-0.048
-705.602	-74.615	0.208	0.075
-704.587	-76.258	0.281	-0.100
-703.572	-104.463	0.163	0.038
-702.558	-200.000	0.000	-0.239
-701.543	44.157	-0.452	-0.419
-700.529	101.517	0.307	0.362
-699.514	800.000	0.077	0.315
-698.499	800.000	-0.060	-0.191
-697.485	94.334	0.082	0.094
-696.470	-53.249	0.276	0.128
-695.456	-62.356	0.166	-0.070
-694.441	-200.000	0.002	0.017
-693.426	-53.467	-0.311	0.144
-692.412	181.175	-0.179	-0.266
-691.397	-200.000	0.015	0.195
-690.383	98.310	-0.059	-0.069
-689.368	82.946	0.103	0.113
-688.354	-67.024	-0.139	-0.055
-687.339	-147.450	0.373	0.032
-686.324	113.794	-0.169	0.207
-685.310	800.000	0.070	-0.249
-684.295	-100.392	-0.326	-0.082
-683.281	-123.138	-0.283	0.046
-682.266	-71.502	-0.134	-0.051
-681.251	-200.000	-0.005	-0.430
-680.237	-200.000	0.027	-0.284
-679.222	-200.000	0.133	0.000
-678.208	17.991	-0.252	-0.203
-677.193	337.970	0.142	-0.279
-676.178	1.724	0.168	-0.122
-675.164	-200.000	-0.104	-0.517
-674.149	45.772	0.074	-0.069
-673.135	39.642	-0.175	-0.158
-672.120	114.450	0.095	-0.117
-671.105	341.950	0.090	-0.178
-670.091	292.326	-0.104	0.191
-669.076	-168.784	0.173	0.007
-668.062	-23.725	-0.108	-0.065
-667.047	-147.708	0.302	0.026
-666.032	-105.324	-0.292	-0.067
-665.018	-82.899	-0.157	-0.051
-664.003	-38.945	0.029	-0.015
-662.989	-86.014	0.407	-0.127
-661.974	-147.847	0.320	0.027
-660.959	-9.250	0.200	0.135
-659.945	25.057	0.093	0.078
-658.930	-139.544	0.075	-0.008
-657.916	-8.893	-0.130	0.088
-656.901	634.408	0.084	-0.216
-655.886	519.506	-0.080	-0.190
-654.872	-4.223	0.188	0.131
-653.857	-135.452	-0.185	-0.022
-652.843	-200.000	-0.024	-0.201
-651.828	167.515	-0.190	0.272
-650.814	-200.000	0.020	-0.143
-649.799	147.772	0.067	-0.091
-648.784	-200.000	0.001	-0.052
-647.770	-133.392	-0.216	-0.027
-646.755	21.818	-0.037	-0.030
-645.741	61.134	0.083	-0.083
-644.726	-150.672	0.071	-0.005
-643.711	44.620	0.175	-0.162
-642.697	-25.219	0.152	0.091
-641.682	572.728	-0.134	-0.330
-640.668	-125.428	0.184	-0.028
-639.653	23.145	-0.279	-0.230
-638.638	47.700	0.236	0.221
-637.624	-160.366	-0.352	0.019
-636.609	-117.213	0.177	-0.032
-635.595	-56.312	-0.114	0.051
-634.580	-110.168	0.115	0.024
-633.565	-38.600	-0.237	-0.126
-632.551	-41.602	-0.158	-0.082
-631.536	-4.573	-0.220	0.153
-630.522	-76.229	0.343	-0.122
-629.507	-128.393	0.283	0.041
-628.492	-136.021	0.101	-0.012
-627.478	800.000	-0.060	-0.207
-626.463	-101.981	-0.096	-0.023
-625.449	-23.969	-0.253	0.152
-624.434	-35.750	0.206	-0.112
-623.419	42.380	0.087	0.080
-622.405	461.992	-0.071	-0.158
-621.390	0.692	0.264	-0.190
-620.376	-63.893	0.106	0.044
-619.361	15.453	-0.044	0.035
-618.346	-160.499	-0.163	0.009
-617.332	53.936	-0.244	-0.236
-616.317	179.253	0.010	0.015
-615.303	160.398	0.141	-0.198
-614.288	44.004	-0.065	-0.060
-613.273	-144.326	0.055	-0.005
-612.259	-78.896	0.298	-0.102
-611.244	800.000	-0.021	0.077
-610.230	-29.393	-0.204	-0.118
-609.215	474.830	0.031	-0.071
-608.201	399.260	0.165	0.348
-607.186	-85.989	0.046	0.014
-606.171	800.000	-0.059	0.226
-605.157	604.809	0.076	-0.190
-604.142	800.000	0.031	-0.109
-603.128	-96.423	-0.162	0.043
-602.113	7.449	-0.080	0.060
-601.098	-122.744	-0.177	0.029
-600.084	-105.583	0.172	-0.039
-599.069	-43.691	-0.331	-0.168
-598.055	305.782	-0.107	0.200
-597.040	-52.124	0.137	0.064
-596.025	77.807	0.197	0.211
-595.011	79.564	0.130	0.140
-593.996	24.900	0.038	-0.032
-592.982	37.282	0.160	-0.143
-591.967	-13.926	-0.028	-0.018
-590.952	-7.176	-0.223	0.152
-589.938	223.165	-0.078	-0.126
-588.923	22.321	0.255	0.209
-587.909	-200.000	-0.010	0.170
-586.894	-13.697	-0.147	0.096
-585.879	-151.352	0.375	0.028
-584.865	149.993	-0.107	-0.146
-583.850	-200.000	0.031	0.205
-582.836	800.000	0.043	0.180
-581.821	74.416	-0.373	-0.394
-580.806	-79.669	0.250	0.085
-579.792	233.474	-0.084	0.139
-578.777	800.000	-0.052	0.211
-577.763	-137.439	-0.092	0.010
-576.748	-200.000	-0.051	-0.569
-575.733	-60.757	-0.472	-0.201
-574.719	-90.498	-0.173	0.050
-573.704	103.494	-0.125	0.147
-572.690	197.194	0.091	-0.140
-571.675	22.425	0.103	0.085
-570.661	547.035	0.058	0.140
-569.646	800.000	-0.010	0.031
-568.631	691.042	0.074	-0.194
-567.617	-109.568	0.197	-0.042
-566.602	-200.000	-0.019	0.224
-565.588	19.743	-0.229	-0.185
-564.573	-72.594	-0.268	0.099
-563.558	-173.860	0.188	-0.006
-562.544	-200.000	0.016	0.097
-561.529	-142.354	-0.361	-0.036
-560.515	-200.000	0.003	-0.023
-559.500	-48.411	-0.029	-0.014
-558.485	99.763	0.144	-0.168
-557.471	-200.000	-0.012	-0.226
-556.456	92.672	0.115	-0.130
-555.442	-36.317	-0.171	-0.093
-554.427	-57.407	0.305	-0.135
-553.412	-63.704	-0.037	0.015
-552.398	-181.434	0.320	0.006
-551.383	-116.892	-0.315	-0.058
-550.369	-41.239	-0.127	-0.066
-549.354	-200.000	0.014	-0.220
-548.339	14.307	0.266	-0.208
-547.325	74.465	-0.031	0.032
-546.310	800.000	-0.061	0.220
-545.296	-120.336	-0.502	-0.086
-544.281	-200.000	0.050	0.373
-543.266	-200.000	-0.004	0.028
-542.252	-200.000	-0.004	-0.096
-541.237	-200.000	-0.009	-0.259
-540.223	-80.124	0.142	-0.048
-539.208	-93.704	0.149	0.041
-538.193	192.694	0.075	-0.114
-537.179	800.000	0.111	-0.369
-536.164	342.649	-0.084	0.165
-535.150	-24.231	0.239	-0.143
-534.135	800.000	-0.021	-0.090
-533.121	-74.219	0.136	-0.049
-532.106	-1.239	-0.303	0.214
-531.091	800.000	0.058	-0.171
-530.077	800.000	-0.024	0.067
-529.062	800.000	0.075	0.293
-528.048	-90.670	0.046	-0.013
-527.033	-67.785	0.196	0.077
-526.018	-99.708	0.439	-0.110
-525.004	-200.000	-0.005	0.231
-523.989	-125.324	0.128	-0.020
-522.975	101.936	-0.119	0.139
-521.960	65.238	0.130	0.132
-520.945	-40.430	-0.189	-0.099
-519.931	375.880	-0.113	-0.232
-518.916	-100.406	-0.098	-0.024
-517.902	-14.955	0.184	0.118
-516.887	54.342	0.299	-0.289
-515.872	483.748	-0.273	-0.623
-514.858	-200.000	0.003	-0.071
-513.843	-15.295	0.170	-0.109
-512.829	83.119	-0.110	0.120
-511.814	-65.686	-0.158	0.063
-510.799	32.595	0.194	0.168
-509.785	256.235	0.141	-0.243
-508.770	-200.000	0.016	0.208
-507.756	-200.000	0.064	-0.518
-506.741	-159.194	0.273	-0.015
-505.726	-79.157	-0.068	0.023
-504.712	-200.000	0.050	0.316
-503.697	170.298	-0.140	-0.201
-502.683	-200.000	0.033	-0.287
-501.668	443.890	0.165	0.363
-500.653	16.817	0.129	-0.102
-499.639	-170.839	-0.071	0.002
-498.624	-26.542	-0.235	-0.138
-497.610	800.000	0.149	-0.422
-496.595	67.329	-0.073	-0.074
-495.581	81.622	0.142	0.154
-494.566	-161.492	-0.074	-0.004
-493.551	-78.273	0.425	-0.146
-492.537	113.392	0.153	0.186
-491.522	33.352	0.089	-0.078
-490.508	-93.089	0.355	-0.099
-489.493	40.652	-0.201	-0.181
-488.478	-168.288	-0.237	-0.009
-487.464	-200.000	0.018	-0.115
-486.449	-60.279	0.219	-0.093
-485.435	318.610	0.235	0.446
-484.420	800.000	-0.087	0.241
-483.405	-200.000	-0.017	-0.239
-482.391	-149.225	-0.010	0.001
-481.376	107.068	-0.159	-0.189
-480.362	76.247	-0.201	0.213
-479.347	93.201	0.136	0.154
-478.332	-200.000	0.009	-0.242
-477.318	-200.000	0.034	-0.153
-476.303	-147.534	-0.390	-0.033
-475.289	413.585	-0.208	0.443
-474.274	800.000	-0.118	-0.379
-473.259	-200.000	0.041	-0.321
-472.245	-200.000	-0.024	0.121
-471.230	-200.000	0.023	-0.218
-470.216	293.722	-0.133	-0.244
-469.201	800.000	0.033	-0.100
-468.186	-3.716	-0.280	0.195
-467.172	-200.000	-0.004	0.104
-466.157	800.000	0.079	0.233
-465.143	-88.504	-0.152	0.045
-464.128	-87.916	-0.110	0.033
-463.113	690.764	-0.075	-0.196
-462.099	54.202	-0.082	0.079
-461.084	258.133	-0.218	-0.376
-460.070	218.260	0.185	0.296
-459.055	-103.263	0.172	-0.041
-458.040	-200.000	0.016	-0.362
-457.026	4.797	0.161	0.118
-456.011	-200.000	-0.101	-0.479
-454.997	800.000	-0.065	-0.258
-453.982	-200.000	0.006	-0.085
-452.968	-27.203	0.318	-0.186
-451.953	-8.627	0.089	0.059
-450.938	277.308	0.086	-0.153
-449.924	-62.914	-0.342	-0.141
-448.909	475.727	0.022	0.051
-447.895	-154.065	0.157	-0.011
-446.880	-104.812	0.285	0.065
-445.865	214.122	0.254	0.402
-444.851	122.675	-0.076	0.095
-443.836	-141.274	-0.227	-0.023
-442.822	-200.000	-0.028	0.131
-441.807	620.839	0.116	0.292
-440.792	-200.000	0.032	-0.178
-439.778	-136.954	-0.013	-0.001
-438.763	122.805	-0.083	-0.104
-437.749	-77.914	-0.254	-0.088
-436.734	-200.000	0.023	-0.133
-435.719	134.890	0.270	-0.350
-434.705	-200.000	0.026	-0.240
-433.690	-179.565	0.202	-0.004
-432.676	102.653	0.032	-0.037
-431.661	25.484	0.074	-0.062
-430.646	-52.826	-0.073	-0.033
-429.632	-101.336	-0.222	-0.054
-428.617	-200.000	-0.015	-0.296
-427.603	-200.000	0.020	-0.117
-426.588	255.262	-0.147	0.252
-425.573	-55.114	0.184	0.083
-424.559	800.000	0.037	-0.106
-423.544	-78.351	-0.158	0.054
-422.530	-142.387	-0.281	0.028
-421.515	-50.917	-0.178	-0.083
-420.500	152.365	0.071	0.097
-419.486	-88.054	0.360	-0.108
-418.471	-200.000	-0.004	0.283
-417.457	356.571	-0.138	-0.274
-416.442	-200.000	-0.012	-0.142
-415.428	226.304	-0.071	-0.115
-414.413	41.175	0.155	-0.140
-413.398	-147.951	0.236	0.020
-412.384	800.000	0.025	-0.082
-411.369	-148.947	-0.069	0.006
-410.355	-98.870	-0.254	0.064
-409.340	97.507	0.199	-0.228
-408.325	4.148	-0.170	0.124
-407.311	800.000	-0.109	0.378
-406.296	14.421	0.104	0.081
-405.282	157.115	0.013	0.018
-404.267	-77.712	0.064	-0.022
-403.252	-163.408	-0.368	-0.017
-402.238	800.000	0.079	-0.259
-401.223	-137.677	0.154	-0.017
-400.209	800.000	-0.060	0.173
-399.194	-57.251	0.197	-0.087
-398.179	268.602	0.112	0.196
-397.165	107.543	-0.045	-0.053
-396.150	152.776	0.049	-0.066
-395.136	-18.911	-0.082	-0.051
-394.121	-108.625	-0.111	0.024
-393.106	-200.000	0.013	-0.120
-392.092	-99.620	0.336	0.084
-391.077	-200.000	0.006	0.174
-390.063	18.463	0.233	-0.186
-389.048	-177.050	-0.414	-0.010
-388.033	-71.143	-0.214	0.080
-387.019	-108.094	0.209	-0.045
-386.004	138.027	-0.285	0.373
-384.990	-196.149	0.208	-0.001
-383.975	-200.000	0.004	0.322
-382.960	-8.450	-0.208	0.139
-381.946	-80.252	-0.125	-0.042
-380.931	468.059	-0.044	0.099
-379.917	-72.781	0.199	0.073
-378.902	104.775	-0.143	0.168
-377.888	-194.163	0.189	0.002
-376.873	-98.855	-0.161	0.041
-375.858	-131.071	-0.198	-0.026
-374.844	175.934	0.090	-0.130
-373.829	800.000	-0.170	0.572
-372.815	-145.643	0.265	0.024
-371.800	108.123	0.037	-0.044
-370.785	2.966	0.170	-0.123
-369.771	-131.526	0.282	-0.037
-368.756	255.202	0.180	0.307
-367.742	-200.000	0.005	-0.085
-366.727	90.472	-0.090	-0.100
-365.712	202.914	0.044	-0.067
-364.698	244.193	-0.076	-0.127
-363.683	-140.700	0.208	0.021
-362.669	-109.507	-0.216	0.045
-361.654	-134.067	-0.222	-0.027
-360.639	116.067	-0.132	-0.161
-359.625	-94.643	-0.100	-0.027
-358.610	800.000	0.030	-0.098
-357.596	800.000	0.037	-0.146
-356.581	476.821	0.049	-0.110
-355.566	-200.000	-0.021	-0.144
-354.552	31.860	0.122	0.105
-353.537	152.599	0.328	0.447
-352.523	-47.395	0.225	0.109
-351.508	230.877	-0.120	-0.196
-350.493	-200.000	0.019	-0.319
-349.479	-32.864	-0.375	-0.208
-348.464	-200.000	-0.017	-0.172
-347.450	13.944	0.248	-0.192
-346.435	104.012	0.153	-0.180
-345.420	706.190	-0.074	0.194
-344.406	36.165	-0.139	-0.122
-343.391	-112.740	0.057	0.011
-342.377	-35.267	-0.336	-0.182
-341.362	57.360	-0.018	0.018
-340.348	280.495	0.085	-0.151
-339.333	319.897	0.186	0.351
-338.318	0.586	0.280	-0.200
-337.304	235.790	-0.132	0.217
-336.289	694.180	-0.149	0.388
-335.275	263.782	0.070	0.121
-334.260	-200.000	-0.003	0.214
-333.245	-37.668	-0.224	-0.119
-332.231	-11.488	-0.181	-0.119
-331.216	-102.930	0.157	0.037
-330.202	129.050	0.116	0.147
-329.187	296.380	-0.161	-0.294
-328.172	-200.000	-0.036	-0.302
-327.158	-77.256	-0.342	-0.119
-326.143	800.000	0.056	0.211
-325.129	-200.000	-0.031	0.146
-324.114	-66.048	-0.077	0.031
-323.099	-200.000	0.034	0.163
-322.085	273.316	0.101	-0.177
-321.070	42.892	0.200	-0.182
-320.056	34.120	-0.101	-0.087
-319.041	265.315	-0.255	-0.442
-318.026	-200.000	0.027	0.339
-317.012	-61.295	-0.229	0.096
-315.997	-54.408	-0.270	0.122
-314.983	-46.865	0.248	0.121
-313.968	-200.000	0.019	0.154
-312.953	800.000	0.061	-0.242
-311.939	20.232	0.163	-0.131
-310.924	-152.204	-0.110	-0.008
-309.910	171.874	0.085	-0.121
-308.895	88.806	-0.186	0.206
-307.880	-200.000	0.015	0.066
-306.866	35.211	0.133	-0.116
-305.851	-200.000	0.013	-0.059
-304.837	800.000	-0.023	0.093
-303.822	-139.579	0.326	-0.035
-302.807	-24.992	-0.163	0.096
-301.793	285.707	-0.101	-0.181
-300.778	-121.006	0.177	-0.029
-299.764	206.419	0.254	-0.393
-298.749	34.682	-0.194	-0.169
-297.735	70.337	0.240	0.247
-296.720	-200.000	-0.006	0.101
-295.705	-145.032	0.243	0.022
-294.691	-200.000	-0.010	0.173
-293.676	800.000	0.069	0.253
-292.662	207.887	-0.132	0.205
-291.647	299.410	-0.012	-0.023
-290.632	744.836	-0.042	-0.114
-289.618	-88.734	0.289	-0.085
-288.603	-200.000	0.008	0.213
-287.589	-46.268	-0.115	-0.056
-286.574	-135.477	-0.162	-0.019
-285.559	-200.000	-0.000	0.008
-284.545	-147.675	0.448	-0.037
-283.530	-200.000	-0.033	0.230
-282.516	-200.000	-0.021	0.138
-281.501	-23.221	-0.337	-0.202
-280.486	41.471	0.178	0.160
-279.472	-81.969	-0.350	-0.114
-278.457	-116.670	0.190	0.035
-277.443	20.842	0.191	-0.153
-276.428	111.214	0.189	0.226
-275.413	171.665	0.184	-0.263
-274.399	276.433	-0.193	-0.340
-273.384	-19.531	-0.377	-0.232
-272.370	48.160	0.175	0.162
-271.355	-200.000	-0.327	-0.002
-270.340	-200.000	0.026	-0.168
-269.326	696.382	0.047	0.122
-268.311	-200.000	0.009	0.043
-267.297	617.444	-0.037	0.093
-266.282	175.269	0.091	-0.131
-265.267	-86.238	0.399	0.122
-264.253	252.073	0.041	0.070
-263.238	-200.000	0.028	-0.245
-262.224	-200.000	0.052	0.254
-261.209	-44.516	-0.091	0.045
-260.195	-18.074	0.233	0.145
-259.180	687.808	-0.063	0.164
-258.165	-27.668	0.208	0.120
-257.151	-45.468	0.070	0.034
-256.136	64.594	-0.320	0.320
-255.122	-108.516	-0.131	0.028
-254.107	-152.255	-0.312	-0.022
-253.092	176.659	0.064	-0.092
-252.078	-20.541	0.110	-0.067
-251.063	-25.979	0.220	-0.129
-250.049	271.219	0.150	0.263
-249.034	350.852	-0.122	0.240
-248.019	67.240	-0.071	-0.072
-247.005	-99.429	-0.224	0.056
-245.990	-2.846	0.279	-0.194
-244.976	-13.920	0.186	0.119
-243.961	113.495	-0.145	0.175
-242.946	-200.000	0.016	0.339
-241.932	-200.000	0.000	0.453
-240.917	-87.670	0.189	0.056
-239.903	69.610	-0.087	-0.088
-238.888	-49.696	0.374	0.176
-237.873	-200.000	0.034	0.410
-236.859	176.558	0.128	-0.185
-235.844	185.281	-0.055	0.081
-234.830	783.918	-0.170	0.463
-233.815	-200.000	0.025	0.123
-232.800	-32.876	0.263	0.145
-231.786	200.180	0.166	0.254
-230.771	184.959	0.086	-0.126
-229.757	15.802	0.252	0.197
-228.742	-111.788	-0.322	-0.065
-227.727	95.206	0.093	-0.106
-226.713	137.174	-0.121	0.157
-225.698	65.637	-0.130	0.131
-224.684	-200.000	-0.013	0.080
-223.669	76.302	-0.216	-0.227
-222.655	27.997	0.084	0.070
-221.640	-200.000	0.011	-0.300
-220.625	-22.765	0.223	0.133
-219.611	-83.706	-0.159	0.050
-218.596	590.576	0.085	0.207
-217.582	800.000	-0.042	0.169
-216.567	-200.000	0.016	0.169
-215.552	-95.698	-0.303	-0.080
-214.538	259.002	0.053	0.091
-213.523	173.433	0.084	-0.120
-212.509	-200.000	-0.007	0.310
-211.494	184.553	-0.074	0.109
-210.479	164.655	0.152	0.213
-209.465	800.000	-0.037	0.149
-208.450	94.600	-0.280	0.315
-207.436	4.215	-0.241	0.175
-206.421	-200.000	0.023	0.243
-205.406	-200.000	-0.008	-0.072
-204.392	188.573	-0.114	0.169
-203.377	800.000	-0.050	0.144
-202.363	-5.898	-0.051	-0.034
-201.348	627.459	0.024	-0.059
-200.333	-200.000	0.013	-0.128
-199.319	-48.062	-0.068	-0.033
-198.304	-87.398	-0.128	-0.038
-197.290	-139.281	-0.201	-0.021
-196.275	800.000	0.032	-0.110
-195.260	12.562	-0.159	-0.121
-194.246	-186.387	0.237	-0.003
-193.231	-5.239	0.046	0.031
-192.217	-141.008	0.185	0.019
-191.202	136.401	-0.204	0.263
-190.187	-161.298	-0.316	0.016
-189.173	39.453	0.098	-0.087
-188.158	784.950	-0.060	-0.163
-187.144	-200.000	0.026	0.150
-186.129	34.507	-0.422	-0.365
-185.114	-43.802	0.180	-0.090
-184.100	-200.000	-0.014	-0.174
-183.085	-85.167	-0.184	0.057
-182.071	81.438	-0.219	0.235
-181.056	-33.766	-0.326	-0.178
-180.042	-200.000	0.010	0.093
-179.027	86.379	-0.204	0.223
-178.012	-52.197	0.352	-0.161
-176.998	429.041	-0.216	0.462
-175.983	33.729	-0.041	0.035
-174.969	609.504	0.030	0.075
-173.954	-139.313	0.270	0.029
-172.939	62.730	-0.214	-0.211
-171.925	-94.446	-0.256	0.069
-170.910	736.179	-0.008	0.022
-169.896	79.900	-0.280	-0.298
-168.881	113.356	-0.195	-0.235
-167.866	472.220	0.099	0.221
-166.852	20.286	0.189	0.151
-165.837	313.894	-0.243	0.452
-164.823	-43.010	0.252	0.126
-163.808	28.740	0.083	-0.069
-162.793	-105.225	0.071	-0.016
-161.779	329.332	0.132	-0.251
-160.764	-35.160	0.048	-0.026
-159.750	-124.506	-0.295	-0.045
-158.735	-128.759	0.178	0.025
-157.720	800.000	-0.013	-0.050
-156.706	-144.261	0.160	-0.015
-155.691	176.117	-0.175	0.251
-154.677	57.107	0.305	0.294
-153.662	279.108	0.085	0.150
-152.647	-130.003	-0.206	-0.028
-151.633	459.481	-0.104	0.229
-150.618	78.782	0.052	0.055
-149.604	-200.000	0.041	0.276
-148.589	-179.909	-0.341	-0.007
-147.574	-98.499	0.244	-0.062
-146.560	-162.734	-0.149	-0.007
-145.545	-2.747	0.070	0.048
-144.531	149.561	0.150	-0.200
-143.516	-200.000	0.009	0.117
-142.502	527.895	0.139	-0.324
-141.487	800.000	-0.062	-0.186
-140.472	-200.000	-0.058	0.288
-139.458	-200.000	0.008	-0.117
-138.443	11.018	0.173	-0.131
-137.429	-74.713	0.238	0.085
-136.414	-11.909	0.198	-0.128
-135.399	185.896	-0.160	0.236
-134.385	-162.705	0.149	-0.007
-133.370	49.735	0.219	0.203
-132.356	471.173	-0.081	-0.181
-131.341	312.203	-0.190	-0.353
-130.326	420.491	0.081	0.171
-129.312	344.150	0.111	0.214
-128.297	-103.038	-0.134	-0.031
-127.283	63.655	0.078	-0.077
-126.268	800.000	0.050	0.191
-125.253	-48.167	-0.132	-0.063
-124.239	-49.510	0.090	-0.043
-123.224	146.237	0.101	0.134
-122.210	-42.476	0.370	0.186
-121.195	-200.000	-0.027	0.184
-120.180	170.373	0.138	0.195
-119.166	-27.923	0.184	0.105
-118.151	43.354	0.118	0.106
-117.137	216.359	-0.088	0.139
-116.122	12.363	-0.209	0.159
-115.107	-200.000	-0.026	-0.155
-114.093	-200.000	-0.020	-0.264
-113.078	-200.000	0.038	0.241
-112.064	-200.000	0.025	0.213
-111.049	-106.473	-0.181	0.040
-110.034	-11.055	-0.062	0.040
-109.020	-146.994	0.184	-0.016
-108.005	224.614	0.068	0.108
-106.991	800.000	0.108	-0.427
-105.976	-16.545	-0.353	-0.221
-104.962	-36.727	-0.209	0.111
-103.947	-64.988	0.214	0.085
-102.932	-200.000	0.033	-0.164
-101.918	-61.190	-0.248	-0.103
-100.903	-67.354	0.257	0.100
-99.889	-136.859	-0.141	-0.016
-98.874	-200.000	0.014	-0.091
-97.859	-200.000	-0.060	0.318
-96.845	-145.266	0.114	0.010
-95.830	138.774	0.095	0.123
-94.816	213.469	0.138	-0.215
-93.801	-200.000	-0.011	0.129
-92.786	800.000	-0.035	0.095
-91.772	-134.167	0.136	0.017
-90.757	-4.576	0.396	-0.270
-89.743	66.774	0.099	-0.099
-88.728	-148.795	0.450	0.036
-87.713	203.340	-0.060	0.092
-86.699	-200.000	-0.042	0.248
-85.684	-19.634	0.154	-0.094
-84.670	95.034	0.107	0.120
-83.655	-130.903	0.339	0.045
-82.640	134.630	0.197	0.252
-81.626	-119.845	-0.193	0.033
-80.611	-200.000	-0.015	-0.334
-79.597	8.873	-0.290	-0.216
-78.582	14.837	0.254	0.196
-77.567	-77.900	0.406	-0.138
-76.553	-97.241	-0.285	0.073
-75.538	800.000	0.020	0.066
-74.524	-135.571	0.379	-0.044
-73.509	-21.331	-0.118	-0.071
-72.494	-200.000	-0.023	-0.196
-71.480	-200.000	0.025	0.189
-70.465	-200.000	0.041	-0.209
-69.451	-86.780	-0.275	0.083
-68.436	-7.518	0.455	-0.303
-67.422	-128.919	0.109	-0.015
-66.407	-121.788	0.496	0.081
-65.392	-23.313	-0.169	-0.100
-64.378	167.203	0.216	-0.302
-63.363	52.910	0.159	0.150
-62.349	-200.000	-0.013	-0.119
-61.334	112.517	-0.744	-0.886
-60.319	2.929	0.744	0.532
-59.305	-200.000	0.013	-0.851
-58.290	321.865	0.498	0.934
-57.276	798.693	0.525	1.425
-56.261	-200.000	103.100	621.021
-55.246	599.752	1444.573	3530.447
-54.232	180.903	2654.887	3840.406
-53.217	118.621	2178.815	2648.987
-52.203	45.490	1624.238	1476.536
-51.188	37.311	1359.380	1186.038
-50.173	34.127	1316.283	1129.532
-49.159	56.617	1369.413	1311.888
-48.144	59.158	1386.547	1343.622
-47.130	37.460	1338.841	1168.829
-46.115	33.965	1320.796	1132.259
-45.100	33.758	1315.964	1126.840
-44.086	33.687	1313.849	1124.563
-43.071	33.742	1311.073	1122.469
-42.057	33.569	1309.453	1120.020
-41.042	33.684	1307.622	1119.084
-40.027	33.662	1305.803	1117.356
-39.013	33.753	1303.878	1116.196
-37.998	33.638	1302.647	1114.425
-36.984	33.812	1300.560	1113.613
-35.969	33.805	1299.438	1112.572
-34.954	33.762	1297.395	1110.525
-33.940	33.910	1295.696	1109.892
-32.925	33.843	1294.582	1108.501
-31.911	33.926	1293.190	1107.750
-30.896	33.936	1291.476	1106.298
-29.881	33.871	1290.589	1105.114
-28.867	33.957	1288.861	1104.090
-27.852	33.942	1287.530	1102.816
-26.838	33.884	1286.184	1101.284
-25.823	33.939	1284.164	1099.834
-24.809	33.910	1283.381	1098.949
-23.794	33.864	1281.717	1097.215
-22.779	33.970	1280.634	1096.857
-21.765	33.946	1279.265	1095.499
-20.750	33.986	1277.730	1094.373
-19.736	33.850	1276.808	1092.761
-18.721	33.750	1275.708	1091.199
-17.706	33.709	1274.951	1090.273
-16.692	33.800	1273.719	1089.700
-15.677	33.757	1271.941	1087.889
-14.663	33.785	1271.098	1087.284
-13.648	33.704	1270.363	1086.148
-12.633	33.801	1269.318	1085.764
-11.619	33.672	1268.400	1084.202
-10.604	33.822	1266.941	1083.769
-9.590	33.769	1266.136	1082.730
-8.575	33.675	1265.361	1081.489
-7.560	33.669	1264.951	1081.061
-6.546	33.689	1263.930	1080.262
-5.531	33.744	1262.877	1079.632
-4.517	33.637	1262.061	1078.285
-3.502	33.797	1261.012	1078.252
-2.487	33.679	1260.725	1077.294
-1.473	33.568	1256.672	1073.157
-0.458	31.982	1240.473	1050.416
0.556	25.499	1221.766	1007.035
1.571	21.454	1225.955	987.609
2.586	20.592	1240.322	994.166
3.600	20.303	1229.804	984.007
4.615	14.616	1158.902	896.721
5.629	4.685	1081.218	786.537
6.644	0.098	1059.578	747.961
7.659	-0.331	1056.982	743.933
8.673	-0.423	1055.476	742.352
9.688	-0.542	1054.773	741.202
10.702	-0.035	1052.755	742.225
11.717	5.979	1061.278	778.035
12.731	15.038	1074.327	832.792
13.746	18.225	1077.940	851.404
14.761	17.991	1077.721	849.991
15.775	17.924	1076.895	848.934
16.790	17.649	1075.799	846.628
17.804	17.559	1075.028	845.498
18.819	17.751	1074.287	845.794
19.834	17.674	1074.073	845.169
20.848	17.547	1073.653	844.133
21.863	17.468	1072.981	843.138
22.877	17.470	1072.226	842.480
23.892	17.512	1071.759	842.246
24.907	17.584	1070.909	841.859
25.921	17.644	1069.768	841.187
26.936	17.523	1068.468	839.490
27.950	17.577	1066.798	838.371
28.965	17.351	1064.803	835.621
29.980	17.498	1062.930	834.798
30.994	17.741	1061.930	835.126
32.009	17.577	1060.656	833.249
33.023	17.345	1059.102	830.822
34.038	17.573	1058.536	831.417
35.053	17.685	1057.609	831.163
36.067	17.706	1056.871	830.611
37.082	17.745	1055.933	829.990
38.096	17.865	1055.458	830.128
39.111	17.968	1054.042	829.442
40.126	17.717	1052.854	827.213
41.140	17.510	1050.949	824.640
42.155	17.372	1048.963	822.345
43.169	17.538	1048.347	822.590
44.184	17.471	1047.171	821.272
45.199	17.383	1045.739	819.653
46.213	17.408	1044.819	818.980
47.228	17.297	1044.462	818.091
48.242	17.452	1043.025	817.637
49.257	17.583	1042.065	817.442
50.271	17.775	1040.741	817.253
51.286	17.504	1040.486	815.681
52.301	17.630	1039.389	815.352
53.315	17.557	1038.720	814.406
54.330	17.646	1036.893	813.328
55.344	17.614	1036.693	812.944
56.359	17.506	1035.582	811.486
57.374	17.466	1034.866	810.664
58.388	17.520	1034.049	810.208
59.403	17.407	1032.869	808.674
60.417	17.314	1032.070	807.535
61.432	17.263	1031.870	807.067
62.447	17.470	1030.583	806.968
63.461	17.512	1030.147	806.756
64.476	17.596	1028.231	805.580
65.490	17.500	1027.712	804.652
66.505	17.469	1027.017	803.887
67.520	17.575	1026.223	803.696
68.534	17.330	1025.168	801.643
69.549	17.171	1023.945	799.868
70.563	17.193	1023.340	799.427
71.578	17.251	1022.587	799.041
72.593	17.144	1021.547	797.654
73.607	17.313	1021.117	798.041
74.622	17.520	1020.232	798.249
75.636	17.396	1020.145	797.529
76.651	17.345	1018.861	796.216
77.666	17.140	1018.254	794.714
78.680	17.283	1017.393	794.641
79.695	17.381	1016.803	794.566
80.709	17.362	1016.376	794.074
81.724	17.249	1015.816	793.038
82.739	17.490	1014.194	792.823
83.753	17.648	1013.575	793.008
84.768	17.769	1012.445	792.614
85.782	17.918	1011.644	792.610
86.797	17.706	1010.682	790.802
87.812	17.563	1009.618	789.237
88.826	17.770	1008.448	789.210
89.841	17.826	1007.202	788.426
90.855	17.866	1006.382	787.896
91.870	17.759	1005.824	786.895
92.884	17.707	1004.543	785.584
93.899	17.699	1003.361	784.554
94.914	17.895	1002.772	784.928
95.928	17.752	1002.145	783.707
96.943	17.549	1000.857	781.700
97.957	17.365	999.380	779.633
98.972	17.222	997.992	777.830
99.987	17.306	997.461	777.730
101.001	17.598	996.363	778.140
102.016	17.624	995.900	777.828
103.030	17.487	994.563	776.091
104.045	17.177	994.079	774.228
105.060	17.221	992.597	773.209
106.074	17.377	991.808	773.233
107.089	17.753	991.561	774.679
108.103	17.807	990.328	773.895
109.118	17.657	988.908	772.038
110.133	17.603	988.278	771.234
111.147	17.442	986.613	769.137
112.162	17.293	985.451	767.489
113.176	17.360	985.255	767.573
114.191	17.444	983.795	766.743
115.206	17.286	982.578	765.016
116.220	17.364	981.588	764.532
117.235	17.292	981.184	763.824
118.249	17.433	979.931	763.415
119.264	17.256	979.519	762.233
120.279	17.488	978.255	762.221
121.293	17.393	977.682	761.279
122.308	17.411	976.967	760.736
123.322	17.421	975.386	759.483
124.337	17.172	974.440	757.571
125.352	16.819	972.709	754.585
126.366	16.847	971.529	753.728
127.381	17.402	971.506	756.109
128.395	17.820	970.330	756.983
129.410	17.805	969.640	756.313
130.424	17.751	968.390	755.031
131.439	17.707	967.617	754.167
132.454	17.693	966.811	753.407
133.468	17.670	965.650	752.336
134.483	17.754	964.898	752.052
135.497	17.944	963.974	752.107
136.512	17.987	962.826	751.332
137.527	17.969	962.449	750.892
138.541	17.872	962.010	750.057
139.556	17.910	960.842	749.244
140.570	17.964	959.811	748.613
141.585	17.909	958.376	747.185
142.600	17.936	957.200	746.324
143.614	18.042	956.861	746.455
144.629	18.211	955.886	746.365
145.643	17.998	955.072	744.736
146.658	17.828	953.968	743.067
147.673	17.727	952.844	741.685
148.687	17.769	951.836	741.018
149.702	17.720	950.830	739.958
150.716	17.841	949.467	739.355
151.731	17.852	949.293	739.202
152.746	18.079	948.356	739.392
153.760	18.152	948.158	739.486
154.775	18.159	947.368	738.834
155.789	18.123	946.227	737.726
156.804	18.052	945.270	736.605
157.819	18.136	944.566	736.356
158.833	18.194	943.956	736.065
159.848	18.064	942.820	734.554
160.862	18.021	941.492	733.269
161.877	18.096	940.943	733.099
162.892	18.197	940.034	732.761
163.906	18.066	938.920	731.268
164.921	18.045	938.041	730.425
165.935	18.148	936.806	729.841
166.950	17.939	936.131	728.358
167.964	18.078	935.214	728.172
168.979	17.995	934.220	726.981
169.994	18.054	932.713	725.993
171.008	18.157	932.488	726.194
172.023	18.019	931.969	725.140
173.037	17.850	930.566	723.265
174.052	17.558	930.249	721.717
175.067	17.877	929.486	722.413
176.081	18.071	928.805	722.642
177.096	18.037	927.948	721.767
178.110	17.651	927.277	719.551
179.125	17.634	926.097	718.500
180.140	17.650	925.766	718.247
181.154	17.716	925.190	718.016
182.169	17.984	925.068	718.985
183.183	18.180	924.658	719.425
184.198	17.922	923.698	717.531
185.213	18.113	922.734	717.521
186.227	18.045	922.431	716.936
187.242	18.032	921.618	716.187
188.256	18.092	920.826	715.758
189.271	18.253	920.142	715.837
190.286	18.040	919.113	714.086
191.300	17.436	917.918	710.572
192.315	16.970	916.237	707.263
193.329	16.860	916.002	706.561
194.344	17.731	915.961	710.096
195.359	18.066	915.746	711.264
196.373	18.095	915.032	710.766
197.388	17.855	914.306	709.141
198.402	17.862	913.734	708.665
199.417	17.797	912.602	707.453
200.432	17.630	911.648	705.961
201.446	17.423	911.050	704.579
202.461	17.556	910.157	704.374
203.475	16.768	908.600	699.852
204.490	16.206	907.711	696.784
205.504	16.909	907.957	699.817
206.519	17.714	907.289	702.557
207.534	17.641	907.259	702.170
208.548	17.977	907.210	703.455
209.563	17.788	905.914	701.610
210.577	17.968	905.158	701.701
211.592	18.139	904.987	702.208
212.607	18.004	903.899	700.749
213.621	18.173	903.300	700.918
214.636	18.153	902.581	700.213
215.650	18.134	901.926	699.565
216.665	18.227	900.956	699.130
217.680	18.181	900.200	698.297
218.694	17.654	899.052	695.195
219.709	17.820	898.042	695.030
220.723	18.034	897.848	695.690
221.738	18.051	897.488	695.415
222.753	18.149	896.959	695.342
223.767	17.998	896.511	694.321
224.782	18.258	895.790	694.757
225.796	18.271	895.060	694.182
226.811	17.597	893.782	690.398
227.826	17.170	892.532	687.644
228.840	17.330	892.189	687.965
229.855	17.551	891.118	687.974
230.869	17.194	889.827	685.474
231.884	17.480	890.009	686.707
232.899	18.154	890.002	689.360
233.913	18.119	888.927	688.326
234.928	18.020	888.711	687.698
235.942	17.995	888.169	687.117
236.957	17.767	887.329	685.493
237.972	17.984	886.387	685.574
238.986	18.013	885.669	685.074
240.001	17.919	885.217	684.289
241.015	17.957	884.264	683.642
242.030	17.942	884.079	683.378
243.045	18.121	883.336	683.459
244.059	18.231	883.339	683.842
245.074	18.134	881.799	682.202
246.088	17.677	881.000	679.700
247.103	17.881	880.398	679.991
248.117	18.294	880.552	681.693
249.132	18.447	879.768	681.633
250.147	18.418	879.159	680.986
251.161	18.703	878.695	681.699
252.176	18.573	877.917	680.517
253.190	18.796	877.078	680.694
254.205	18.878	876.641	680.619
255.220	18.983	875.736	680.271
256.234	18.692	875.086	678.556
257.249	18.713	874.183	677.877
258.263	18.720	873.649	677.433
259.278	18.806	873.049	677.247
260.293	18.840	872.298	676.738
261.307	18.619	871.460	675.156
262.322	18.528	870.351	673.879
263.336	17.659	868.556	669.023
264.351	16.835	866.536	664.177
265.366	16.974	865.921	664.193
266.380	18.025	866.812	668.935
267.395	18.338	866.710	670.020
268.409	18.522	865.411	669.677
269.424	18.647	865.347	670.056
270.439	18.636	864.487	669.289
271.453	18.796	863.936	669.426
272.468	18.933	863.639	669.671
273.482	18.859	863.300	669.058
274.497	18.448	862.138	666.501
275.512	18.289	860.972	664.925
276.526	18.583	860.749	665.835
277.541	18.787	860.218	666.154
278.555	18.489	859.308	664.237
279.570	18.101	858.260	661.867
280.585	18.506	857.873	663.076
281.599	18.543	857.061	662.534
282.614	18.116	855.819	659.868
283.628	17.971	855.673	659.136
284.643	18.388	855.141	660.275
285.657	17.982	853.901	657.699
286.672	17.752	853.177	656.194
287.687	18.149	853.216	657.694
288.701	18.341	852.598	657.899
289.716	17.997	851.662	655.797
290.730	18.003	850.875	655.155
291.745	17.673	849.947	653.122
292.760	18.021	849.784	654.270
293.774	18.837	850.162	657.628
294.789	19.050	849.660	657.995
295.803	19.237	849.230	658.318
296.818	19.214	848.531	657.630
297.833	18.872	847.593	655.541
298.847	18.844	846.194	654.295
299.862	19.057	846.268	655.107
300.876	19.350	845.765	655.774
301.891	19.025	845.071	653.943
302.906	18.649	844.020	651.643
303.920	18.704	843.558	651.438
304.935	18.930	843.281	652.023
305.949	19.050	842.548	651.854
306.964	18.930	842.201	651.074
307.979	19.034	841.835	651.127
308.993	19.336	841.565	652.000
310.008	19.332	841.050	651.529
311.022	18.975	839.906	649.240
312.037	18.938	839.470	648.703
313.052	18.816	838.612	647.524
314.066	18.157	837.308	643.979
315.081	17.871	836.392	642.140
316.095	18.642	836.684	645.211
317.110	19.017	836.619	646.511
318.125	18.362	834.861	642.640
319.139	17.467	833.606	638.263
320.154	17.596	833.199	638.377
321.168	18.272	833.495	641.081
322.183	18.754	833.536	642.859
323.197	18.834	833.111	642.776
324.212	19.111	832.477	643.263
325.227	19.050	832.609	643.082
326.241	18.877	831.657	641.641
327.256	18.922	830.964	641.220
328.270	18.882	830.339	640.531
329.285	18.887	829.100	639.538
330.300	18.668	828.611	638.287
331.314	18.802	828.289	638.481
332.329	19.039	827.978	639.067
333.343	19.278	827.291	639.366
334.358	19.230	826.671	638.654
335.373	19.306	826.751	638.940
336.387	19.375	826.413	638.879
337.402	19.512	825.841	638.886
338.416	19.312	825.809	638.066
339.431	19.450	825.080	637.957
340.446	19.528	824.734	637.921
341.460	19.488	824.298	637.378
342.475	19.319	823.598	636.158
343.489	19.206	823.505	635.613
344.504	19.532	823.149	636.484
345.519	19.705	822.988	636.941
346.533	19.743	822.450	636.607
347.548	19.923	821.785	636.700
348.562	19.828	821.566	636.124
349.577	19.705	821.256	635.376
350.592	19.732	820.474	634.812
351.606	19.839	819.453	634.360
352.621	19.702	818.509	633.069
353.635	19.597	817.814	632.091
354.650	18.949	816.596	628.727
355.665	18.332	814.997	625.185
356.679	18.589	814.682	625.828
357.694	19.032	814.145	626.977
358.708	18.972	813.707	626.364
359.723	19.388	813.521	627.681
360.738	19.675	813.215	628.432
361.752	19.796	812.410	628.192
362.767	19.830	812.331	628.200
363.781	20.047	812.096	628.749
364.796	20.193	811.238	628.559
365.810	20.151	810.916	628.103
366.825	20.042	810.420	627.269
367.840	19.830	809.477	625.716
368.854	19.575	808.777	624.198
369.869	19.658	808.778	624.446
370.883	19.555	808.507	623.808
371.898	19.395	808.001	622.782
372.913	19.668	807.148	623.056
373.927	19.809	806.833	623.265
374.942	19.773	806.513	622.832
375.956	19.827	806.192	622.724
376.971	20.058	805.672	623.100
377.986	20.079	805.368	622.884
379.000	19.928	805.122	622.096
380.015	19.820	804.273	620.996
381.029	20.029	803.439	621.047
382.044	19.871	803.361	620.365
383.059	20.026	802.466	620.176
384.073	20.155	802.215	620.388
385.088	20.180	801.509	619.875
386.102	20.131	800.747	619.059
387.117	20.219	799.668	618.483
388.132	19.582	799.470	616.004
389.146	19.234	798.451	613.922
390.161	19.519	798.220	614.708
391.175	19.961	797.500	615.668
392.190	19.665	796.977	614.159
393.205	18.659	795.107	609.097
394.219	17.329	793.690	603.240
395.234	17.527	793.524	603.765
396.248	18.692	794.751	608.780
397.263	19.909	795.509	613.622
398.278	20.034	794.612	613.319
399.292	19.885	794.560	612.697
400.307	19.662	794.193	611.570
401.321	19.861	793.186	611.445
402.336	20.047	793.455	612.254
403.350	20.454	792.993	613.281
404.365	20.538	792.901	613.451
405.380	20.643	792.394	613.375
406.394	20.666	791.816	612.955
407.409	20.648	791.121	612.301
408.423	20.664	790.705	611.981
409.438	20.649	790.598	611.791
410.453	20.795	790.269	611.994
411.467	20.693	789.891	611.291
412.482	20.744	789.045	610.759
413.496	20.782	788.869	610.702
414.511	20.693	788.763	610.255
415.526	20.804	787.905	609.927
416.540	20.580	787.531	608.798
417.555	20.469	786.132	607.276
418.569	20.581	785.876	607.416
419.584	20.491	785.420	606.693
420.599	20.114	785.235	605.180
421.613	156.245	1361.117	1793.546
422.628	135.161	1445.031	1793.659
