DTS Sentinel unit serial number:	SN413079Multiplexer serial number:	ORYXHardware model number:	OX4-SRSoftware version number:	ORYX F/W v4.00 Oryx Data Collector v3.7.2.0data status	okinstallation	princeton_trtdifferential loss correction	single-endedforward channel	channel 1reverse channel	N/Adate	2019/09/18time	21:30:35forward acquisition time	60.00reverse acquisition time	0.00gamma	496.2192k internal	0.2340k external	0.2340temperature offset calibration	1.0016default loss term (dB/km)	0.3790temperature slope calibration	1.0000multiplexer offset coefficient	1.0000multiplexer slope coefficient	1.0000fibre end	0.00T internal ref (°C)	25.25T ext. ref 1 (°C)	0.82T ext. ref 2 (°C)	18.31length (m)	temperature (°C)	Stokes	anti-Stokes-747.200	2.537	0.085	-0.062
-746.185	-68.043	-0.238	-0.093
-745.171	-62.148	0.201	-0.084
-744.156	389.478	-0.087	0.180
-743.142	-101.221	-0.073	-0.018
-742.127	48.763	0.058	0.055
-741.112	339.092	-0.129	-0.251
-740.098	333.077	0.108	0.210
-739.083	-200.000	-0.004	-0.028
-738.069	147.419	0.126	0.169
-737.054	-32.109	0.112	0.063
-736.039	-58.423	0.112	-0.049
-735.025	-53.819	0.164	0.075
-734.010	-200.000	-0.297	0.000
-732.996	242.735	-0.070	-0.118
-731.981	-67.029	-0.311	0.123
-730.966	800.000	-0.083	0.248
-729.952	-200.000	-0.024	-0.217
-728.937	-46.486	0.170	-0.084
-727.923	160.617	-0.146	0.205
-726.908	317.621	-0.047	0.089
-725.894	18.172	0.111	-0.088
-724.879	446.245	-0.109	-0.240
-723.864	-146.592	0.358	-0.031
-722.850	-153.168	-0.389	0.027
-721.835	1.515	-0.196	0.142
-720.821	138.799	-0.173	0.228
-719.806	-200.000	0.051	0.333
-718.791	-200.000	-0.033	-0.202
-717.777	-200.000	-0.008	-0.198
-716.762	-90.862	0.057	-0.017
-715.748	-57.655	-0.169	0.074
-714.733	-200.000	-0.037	0.252
-713.718	-165.399	-0.183	-0.008
-712.704	35.832	0.151	-0.133
-711.689	103.610	-0.214	0.251
-710.675	-200.000	0.046	-0.293
-709.660	-200.000	-0.023	-0.170
-708.645	146.231	0.100	0.135
-707.631	131.052	-0.175	-0.225
-706.616	-200.000	-0.048	-0.263
-705.602	83.665	0.147	-0.160
-704.587	97.825	-0.044	-0.051
-703.572	-99.223	0.146	-0.037
-702.558	-200.000	0.025	-0.199
-701.543	-200.000	-0.053	-0.319
-700.529	-30.576	0.212	-0.120
-699.514	26.680	-0.078	-0.066
-698.499	-158.718	0.398	0.023
-697.485	-66.312	-0.187	0.074
-696.470	45.046	0.216	0.199
-695.456	13.587	0.207	-0.161
-694.441	800.000	0.061	0.242
-693.426	18.288	0.043	0.034
-692.412	28.909	-0.192	0.163
-691.397	9.417	0.182	0.138
-690.383	472.908	0.149	-0.335
-689.368	-200.000	0.006	-0.397
-688.354	-168.154	0.138	-0.005
-687.339	-72.802	-0.100	-0.037
-686.324	507.200	0.159	-0.369
-685.310	-200.000	-0.049	0.232
-684.295	105.544	0.082	0.097
-683.281	198.748	-0.341	0.522
-682.266	79.482	-0.264	0.283
-681.251	245.385	0.121	-0.204
-680.237	25.655	-0.137	-0.114
-679.222	-21.187	0.206	0.126
-678.208	-122.280	0.259	0.042
-677.193	33.298	0.167	0.145
-676.178	19.111	-0.191	-0.153
-675.164	18.957	0.122	0.098
-674.149	-111.415	-0.074	-0.015
-673.135	-123.181	-0.196	-0.031
-672.120	-191.017	0.154	0.002
-671.105	-200.000	-0.008	0.436
-670.091	179.611	0.276	0.404
-669.076	98.417	-0.257	-0.296
-668.062	-200.000	0.001	-0.022
-667.047	319.732	-0.198	-0.375
-666.032	710.817	-0.044	-0.116
-665.018	43.762	0.156	0.143
-664.003	568.106	-0.177	-0.428
-662.989	-27.370	-0.242	0.141
-661.974	138.469	0.146	0.191
-660.959	-150.818	0.174	0.013
-659.945	-10.204	0.021	0.014
-658.930	18.528	-0.115	0.092
-657.916	-11.560	0.077	0.051
-656.901	-112.850	0.163	-0.032
-655.886	318.420	0.024	-0.046
-654.872	-33.359	0.469	0.259
-653.857	544.060	-0.086	0.206
-652.843	57.953	-0.171	-0.167
-651.828	-4.106	0.204	-0.141
-650.814	48.637	-0.036	-0.034
-649.799	0.256	0.175	0.125
-648.784	-200.000	0.055	-0.315
-647.770	-195.244	-0.135	0.001
-646.755	-54.215	-0.174	-0.079
-645.741	49.165	0.076	-0.071
-644.726	-85.563	-0.369	0.115
-643.711	306.009	-0.046	-0.085
-642.697	-149.485	0.126	-0.010
-641.682	10.715	-0.182	-0.138
-640.668	59.849	0.162	0.159
-639.653	24.565	-0.116	-0.096
-638.638	-200.000	-0.009	0.106
-637.624	-111.161	0.233	0.048
-636.609	-136.548	-0.135	-0.016
-635.595	-200.000	0.001	-0.051
-634.580	-1.829	0.179	-0.126
-633.565	175.715	-0.221	-0.320
-632.551	-122.944	-0.169	-0.027
-631.536	-166.659	0.233	0.010
-630.522	114.811	0.243	0.296
-629.507	-86.283	-0.047	-0.015
-628.492	-68.782	-0.446	0.172
-627.478	59.720	0.061	-0.060
-626.463	-160.701	0.067	-0.004
-625.449	-108.878	0.039	-0.008
-624.434	800.000	-0.109	-0.371
-623.419	192.741	0.121	0.183
-622.405	331.474	0.010	0.019
-621.390	-127.976	0.067	0.010
-620.376	-178.704	0.182	0.004
-619.361	-49.591	0.183	0.087
-618.346	651.929	-0.081	-0.207
-617.332	-145.843	-0.087	0.008
-616.317	24.083	-0.159	0.131
-615.303	-119.409	0.350	0.061
-614.288	4.714	-0.153	0.112
-613.273	-137.063	-0.091	0.010
-612.259	-102.169	0.163	0.039
-611.244	-95.151	0.204	-0.055
-610.230	318.661	-0.017	-0.033
-609.215	69.231	-0.219	-0.224
-608.201	245.156	-0.105	-0.176
-607.186	-184.468	-0.249	-0.004
-606.171	-164.603	0.276	0.012
-605.157	124.331	-0.021	-0.027
-604.142	-61.116	0.235	-0.099
-603.128	13.351	-0.162	0.125
-602.113	16.594	0.289	-0.228
-601.098	-200.000	-0.059	-0.321
-600.084	286.847	0.121	-0.217
-599.069	-86.806	-0.331	0.101
-598.055	19.519	0.126	0.101
-597.040	128.144	-0.163	0.207
-596.025	-37.390	-0.015	0.008
-595.011	-200.000	0.009	-0.285
-593.996	22.632	-0.123	0.100
-592.982	385.069	-0.130	0.267
-591.967	-200.000	-0.020	0.128
-590.952	137.707	-0.078	0.101
-589.938	-112.010	0.209	-0.042
-588.923	-200.000	-0.018	-0.159
-587.909	800.000	-0.047	-0.193
-586.894	-4.248	-0.133	-0.092
-585.879	800.000	-0.090	0.289
-584.865	-200.000	-0.004	0.229
-583.850	-200.000	-0.003	-0.204
-582.836	-200.000	0.007	0.084
-581.821	235.703	0.070	0.116
-580.806	800.000	0.084	0.331
-579.792	-75.329	-0.372	0.132
-578.777	40.020	-0.106	-0.095
-577.763	346.848	0.235	-0.460
-576.748	800.000	-0.134	0.482
-575.733	-6.923	-0.337	-0.228
-574.719	-174.863	0.243	0.007
-573.704	800.000	-0.040	-0.115
-572.690	-71.913	-0.173	-0.064
-571.675	-200.000	0.018	0.164
-570.661	-60.235	0.066	0.028
-569.646	-138.915	-0.192	-0.021
-568.631	800.000	0.029	0.091
-567.617	93.556	-0.011	-0.012
-566.602	115.709	-0.202	0.245
-565.588	800.000	0.050	0.188
-564.573	52.537	0.440	0.418
-563.558	206.222	-0.096	0.149
-562.544	261.593	-0.071	0.123
-561.529	-111.269	-0.233	0.047
-560.515	-42.632	-0.180	0.091
-559.500	-92.511	0.195	-0.055
-558.485	64.872	0.173	0.174
-557.471	-41.434	-0.106	-0.054
-556.456	-200.000	0.003	0.253
-555.442	-60.604	0.206	0.087
-554.427	-124.418	0.125	-0.019
-553.412	-87.263	0.145	-0.044
-552.398	800.000	-0.053	-0.209
-551.383	-154.968	0.352	0.023
-550.369	-200.000	-0.020	-0.158
-549.354	74.127	0.253	0.264
-548.339	411.698	-0.046	0.097
-547.325	8.019	-0.095	-0.071
-546.310	231.087	-0.008	0.013
-545.296	-180.483	0.433	-0.009
-544.281	-200.000	0.015	0.165
-543.266	800.000	0.061	-0.189
-542.252	-200.000	-0.064	-0.303
-541.237	-42.989	-0.236	0.119
-540.223	-200.000	-0.052	-0.230
-539.208	-40.193	0.090	0.047
-538.193	-14.989	-0.273	0.174
-537.179	-24.457	0.237	-0.141
-536.164	-200.000	-0.035	-0.160
-535.150	-62.988	-0.120	0.049
-534.135	295.922	0.124	0.226
-533.121	209.598	0.039	-0.060
-532.106	89.586	-0.248	0.275
-531.091	-131.253	-0.199	-0.026
-530.077	-199.522	0.341	0.002
-529.062	77.390	-0.100	0.105
-528.048	-96.306	-0.048	-0.013
-527.033	26.304	0.198	-0.165
-526.018	800.000	-0.096	0.357
-525.004	-14.271	0.246	-0.158
-523.989	6.577	0.149	-0.110
-522.975	-200.000	0.010	-0.142
-521.960	15.110	0.025	-0.019
-520.945	-200.000	-0.083	0.497
-519.931	-35.564	0.427	-0.230
-518.916	135.608	0.075	-0.097
-517.902	800.000	-0.052	0.223
-516.887	280.503	0.214	-0.380
-515.872	262.922	0.153	0.265
-514.858	-113.990	-0.313	0.060
-513.843	627.430	-0.092	0.230
-512.829	386.670	0.043	0.088
-511.814	-200.000	0.056	-0.404
-510.799	-54.968	0.156	-0.070
-509.785	-172.145	-0.310	0.010
-508.770	77.765	-0.162	-0.171
-507.756	207.546	-0.172	0.267
-506.741	462.613	-0.078	0.173
-505.726	-98.885	-0.145	-0.037
-504.712	-32.729	-0.182	-0.101
-503.697	-134.387	0.294	-0.036
-502.683	-79.852	0.122	0.041
-501.668	161.774	-0.178	-0.247
-500.653	-200.000	0.005	-0.039
-499.639	78.030	-0.102	0.108
-498.624	-9.953	-0.038	0.025
-497.610	-81.764	-0.100	-0.033
-496.595	269.010	-0.084	-0.146
-495.581	-78.218	0.140	-0.048
-494.566	50.408	-0.180	-0.169
-493.551	800.000	0.077	-0.295
-492.537	515.695	0.092	0.214
-491.522	320.737	0.211	-0.397
-490.508	431.100	-0.048	-0.102
-489.493	-85.116	-0.340	-0.106
-488.478	-200.000	-0.026	-0.124
-487.464	800.000	-0.067	0.231
-486.449	196.222	-0.024	-0.036
-485.435	-141.494	-0.170	0.017
-484.420	-75.163	0.182	-0.065
-483.405	-200.000	-0.017	0.316
-482.391	800.000	-0.078	0.286
-481.376	20.340	-0.090	-0.072
-480.362	-82.628	0.235	-0.076
-479.347	576.474	0.151	-0.365
-478.332	176.761	0.080	0.115
-477.318	131.543	0.269	-0.344
-476.303	-177.936	0.370	-0.009
-475.289	130.544	-0.055	0.070
-474.274	-45.095	-0.106	-0.052
-473.259	-200.000	0.005	-0.280
-472.245	386.708	0.155	-0.318
-471.230	-200.000	0.004	-0.311
-470.216	-129.264	-0.268	-0.037
-469.201	-22.034	0.073	0.044
-468.186	-36.523	-0.129	0.069
-467.172	-200.000	0.003	-0.079
-466.157	-36.317	-0.151	0.081
-465.143	345.379	-0.133	-0.260
-464.128	-122.204	0.064	0.010
-463.113	-110.866	0.026	0.005
-462.099	800.000	0.120	-0.395
-461.084	-200.000	-0.012	-0.142
-460.070	60.865	-0.102	-0.101
-459.055	197.606	0.129	-0.195
-458.040	57.107	0.225	-0.218
-457.026	-153.451	-0.160	-0.011
-456.011	265.113	0.117	-0.202
-454.997	-130.677	0.093	-0.012
-453.982	800.000	0.076	0.271
-452.968	2.279	-0.252	0.181
-451.953	-94.553	0.350	0.094
-450.938	39.290	0.057	-0.051
-449.924	106.642	-0.099	0.116
-448.909	-28.966	0.159	0.091
-447.895	61.900	0.053	-0.052
-446.880	-162.671	-0.257	-0.013
-445.865	273.665	0.050	0.087
-444.851	-147.580	0.272	0.023
-443.836	800.000	-0.033	-0.134
-442.822	-200.000	-0.001	0.202
-441.807	37.028	0.196	-0.171
-440.792	-98.550	-0.038	-0.010
-439.778	-101.643	0.258	-0.062
-438.763	-137.581	-0.306	-0.034
-437.749	800.000	-0.115	0.346
-436.734	800.000	0.032	0.129
-435.719	-200.000	-0.020	0.093
-434.705	-187.982	-0.091	0.001
-433.690	-200.000	0.034	-0.229
-432.676	800.000	-0.045	0.133
-431.661	-95.115	0.107	0.029
-430.646	800.000	-0.038	0.112
-429.632	-141.094	-0.323	-0.033
-428.617	800.000	0.022	-0.071
-427.603	-126.126	-0.028	-0.004
-426.588	49.970	0.188	0.176
-425.573	-161.965	-0.125	-0.006
-424.559	-94.634	0.242	-0.065
-423.544	444.564	-0.190	0.413
-422.530	800.000	-0.026	-0.075
-421.515	192.175	-0.295	0.440
-420.500	120.668	-0.022	-0.028
-419.486	-200.000	0.057	-0.378
-418.471	295.516	-0.064	-0.116
-417.457	-54.064	0.181	0.082
-416.442	-116.709	-0.070	-0.013
-415.428	800.000	0.062	0.179
-414.413	-72.616	-0.181	-0.066
-413.398	480.356	0.145	0.325
-412.384	667.160	-0.069	-0.176
-411.369	-150.518	-0.084	0.006
-410.355	-200.000	-0.037	0.180
-409.340	177.116	-0.107	0.154
-408.325	-200.000	0.020	0.150
-407.311	8.724	0.152	-0.113
-406.296	91.526	-0.241	0.268
-405.282	38.009	0.097	0.085
-404.267	-200.000	0.026	-0.304
-403.252	-200.000	0.054	-0.316
-402.238	522.460	0.178	-0.414
-401.223	91.563	0.182	0.202
-400.209	-200.000	-0.069	0.400
-399.194	-80.414	0.177	0.059
-398.179	17.808	-0.065	0.052
-397.165	470.238	0.145	0.323
-396.150	71.408	0.144	-0.148
-395.136	94.877	0.111	0.125
-394.121	-200.000	-0.013	-0.188
-393.106	-48.578	0.080	-0.038
-392.092	-63.435	-0.108	-0.044
-391.077	800.000	-0.009	-0.025
-390.063	156.907	-0.248	0.339
-389.048	800.000	-0.042	-0.151
-388.033	-76.153	0.267	-0.093
-387.019	-25.457	-0.268	-0.157
-386.004	149.065	0.303	-0.406
-384.990	-89.050	0.140	0.041
-383.975	248.678	0.111	0.187
-382.960	800.000	-0.060	-0.222
-381.946	800.000	-0.075	-0.240
-380.931	-60.695	-0.229	-0.096
-379.917	35.754	-0.091	0.079
-378.902	-129.993	0.277	0.037
-377.888	800.000	0.070	-0.218
-376.873	-200.000	-0.026	-0.140
-375.858	32.385	-0.085	0.072
-374.844	-140.637	0.357	0.037
-373.829	9.616	0.112	0.084
-372.815	-92.574	0.227	0.063
-371.800	43.610	-0.108	-0.098
-370.785	-86.499	0.310	-0.094
-369.771	-31.519	-0.295	0.164
-368.756	800.000	0.009	0.026
-367.742	24.603	0.274	-0.224
-366.727	375.572	0.137	-0.275
-365.712	-77.372	0.237	0.081
-364.698	-76.569	0.202	0.070
-363.683	-132.528	0.217	0.028
-362.669	-200.000	0.009	0.202
-361.654	-122.739	0.259	0.041
-360.639	-139.574	-0.213	-0.022
-359.625	-34.390	-0.075	-0.041
-358.610	-21.504	0.312	-0.188
-357.596	332.106	0.138	-0.264
-356.581	309.464	0.115	-0.212
-355.566	676.353	-0.054	0.137
-354.552	464.662	-0.189	-0.416
-353.537	-200.000	-0.051	-0.296
-352.523	309.601	0.020	-0.037
-351.508	4.313	0.160	-0.115
-350.493	-36.013	-0.202	-0.108
-349.479	800.000	-0.079	0.324
-348.464	800.000	0.025	0.106
-347.450	30.864	0.177	-0.150
-346.435	-200.000	0.012	-0.465
-345.420	99.264	0.147	-0.168
-344.406	-200.000	0.014	-0.352
-343.391	-147.516	0.089	-0.007
-342.377	-98.565	-0.246	0.062
-341.362	221.313	-0.053	0.085
-340.348	-200.000	0.000	-0.104
-339.333	-93.711	-0.107	0.029
-338.318	-200.000	-0.031	0.279
-337.304	-123.008	-0.122	-0.019
-336.289	105.817	-0.160	0.186
-335.275	-144.242	-0.041	-0.004
-334.260	-74.735	-0.132	0.047
-333.245	-31.942	-0.143	0.079
-332.231	800.000	-0.122	-0.395
-331.216	-116.334	-0.412	-0.075
-330.202	90.922	-0.057	0.063
-329.187	105.316	0.235	0.273
-328.172	129.507	-0.097	-0.122
-327.158	79.469	-0.139	0.147
-326.143	-52.960	0.150	0.068
-325.129	-174.432	0.121	-0.003
-324.114	543.916	-0.121	0.285
-323.099	51.189	-0.357	0.334
-322.085	141.701	-0.114	-0.149
-321.070	-200.000	0.037	0.262
-320.056	-200.000	0.004	0.171
-319.041	537.744	0.065	0.151
-318.026	40.052	0.291	0.258
-317.012	69.958	-0.215	-0.218
-315.997	240.651	-0.129	0.213
-314.983	1.117	0.125	0.088
-313.968	-27.969	-0.144	0.082
-312.953	595.268	0.061	0.148
-311.939	-200.000	0.017	0.215
-310.924	-200.000	0.012	-0.248
-309.910	-23.561	0.240	-0.142
-308.895	170.219	0.073	0.103
-307.880	-200.000	-0.010	-0.200
-306.866	-93.647	-0.160	-0.044
-305.851	297.211	0.058	-0.105
-304.837	124.476	0.197	-0.244
-303.822	-200.000	-0.029	-0.159
-302.807	-107.172	-0.077	0.017
-301.793	800.000	0.037	0.117
-300.778	800.000	-0.174	-0.497
-299.764	-160.893	-0.134	0.007
-298.749	-160.737	0.185	-0.010
-297.735	-125.721	0.143	0.021
-296.720	-169.589	-0.277	0.010
-295.705	-52.881	-0.158	-0.072
-294.691	800.000	0.098	0.356
-293.676	-42.044	-0.028	0.014
-292.662	-200.000	0.032	0.162
-291.647	304.302	0.068	-0.124
-290.632	-101.452	-0.310	0.074
-289.618	9.401	-0.197	-0.147
-288.603	161.783	-0.064	-0.088
-287.589	320.338	0.038	0.070
-286.574	800.000	-0.100	0.382
-285.559	-200.000	0.108	-0.466
-284.545	800.000	0.137	-0.443
-283.530	-121.880	0.324	-0.053
-282.516	206.492	-0.144	0.221
-281.501	-200.000	0.013	-0.295
-280.486	-200.000	-0.084	-0.369
-279.472	-106.160	-0.195	-0.043
-278.457	14.067	0.194	0.149
-277.443	97.478	-0.318	0.359
-276.428	85.869	0.055	-0.060
-275.413	-200.000	0.019	0.116
-274.399	-200.000	-0.012	0.080
-273.384	70.312	0.075	0.076
-272.370	-200.000	0.020	-0.255
-271.355	-77.494	-0.176	0.060
-270.340	145.494	0.129	-0.170
-269.326	35.279	-0.127	-0.110
-268.311	-122.680	-0.070	0.011
-267.297	216.843	0.110	0.172
-266.282	224.788	0.127	-0.203
-265.267	-26.681	0.199	-0.114
-264.253	-200.000	-0.021	0.308
-263.238	-30.818	-0.138	-0.077
-262.224	231.916	0.042	0.068
-261.209	197.485	-0.154	0.232
-260.195	74.745	0.056	0.058
-259.180	-35.775	-0.033	0.018
-258.165	13.920	0.208	0.159
-257.151	-120.889	-0.378	0.063
-256.136	-189.389	0.105	-0.001
-255.122	-200.000	-0.043	-0.202
-254.107	800.000	0.094	0.299
-253.092	-95.655	-0.095	0.025
-252.078	800.000	-0.083	-0.295
-251.063	26.784	0.195	0.161
-250.049	-91.080	-0.186	0.053
-249.034	45.811	0.200	-0.182
-248.019	-75.244	-0.028	0.010
-247.005	121.144	-0.084	0.103
-245.990	-200.000	-0.001	0.276
-244.976	-31.300	0.158	0.087
-243.961	-126.529	0.160	-0.023
-242.946	296.415	-0.139	-0.250
-241.932	661.195	-0.068	-0.173
-240.917	194.518	-0.160	0.239
-239.903	343.324	-0.040	0.078
-238.888	461.802	0.067	-0.147
-237.873	57.731	-0.178	0.172
-236.859	800.000	-0.040	0.142
-235.844	-188.926	0.140	-0.002
-234.830	-79.531	-0.294	-0.098
-233.815	-112.850	0.187	-0.036
-232.800	-32.532	-0.298	-0.163
-231.786	240.512	0.163	0.267
-230.771	-131.322	-0.358	0.047
-229.757	-120.431	0.295	0.049
-228.742	32.163	-0.108	0.092
-227.727	800.000	0.145	0.404
-226.713	745.153	0.096	0.254
-225.698	545.848	0.160	-0.375
-224.684	201.131	-0.010	0.015
-223.669	-200.000	-0.009	-0.053
-222.655	155.201	-0.055	-0.075
-221.640	51.412	0.028	0.026
-220.625	-200.000	-0.001	0.209
-219.611	-23.310	0.258	-0.152
-218.596	-0.982	0.189	0.131
-217.582	-200.000	-0.025	0.178
-216.567	-200.000	-0.019	0.356
-215.552	48.342	0.114	-0.105
-214.538	-109.361	-0.095	-0.020
-213.523	-27.500	-0.122	0.070
-212.509	-50.632	0.170	0.078
-211.494	-200.000	-0.023	0.254
-210.479	-14.873	0.317	0.200
-209.465	-29.016	0.171	0.096
-208.450	627.896	-0.108	0.269
-207.436	371.524	0.089	-0.176
-206.421	-121.965	-0.259	0.042
-205.406	336.601	0.111	0.211
-204.392	290.153	-0.159	0.283
-203.377	-19.072	-0.138	0.084
-202.363	800.000	-0.018	-0.058
-201.348	-131.322	0.389	-0.051
-200.333	-116.200	-0.187	0.034
-199.319	-70.533	-0.282	0.105
-198.304	220.241	-0.127	-0.200
-197.290	402.483	-0.146	0.302
-196.275	66.517	-0.029	0.029
-195.260	-190.716	-0.059	-0.001
-194.246	12.155	0.121	0.091
-193.231	-37.110	0.360	0.189
-192.217	445.792	-0.135	0.290
-191.202	2.677	0.073	0.052
-190.187	103.841	-0.224	-0.259
-189.173	262.961	0.117	-0.198
-188.158	249.792	-0.084	-0.139
-187.144	338.202	-0.120	-0.229
-186.129	-200.000	0.018	0.113
-185.114	-70.860	0.109	-0.040
-184.100	96.078	-0.012	-0.013
-183.085	96.519	-0.129	-0.145
-182.071	-200.000	-0.018	0.326
-181.056	800.000	-0.052	-0.214
-180.042	52.811	0.341	0.320
-179.027	767.679	0.083	-0.222
-178.012	433.188	0.140	0.299
-176.998	-43.269	0.175	-0.087
-175.983	-19.054	0.194	-0.118
-174.969	-104.739	-0.157	0.035
-173.954	414.793	0.056	-0.116
-172.939	-200.000	-0.054	-0.484
-171.925	-87.727	-0.175	-0.052
-170.910	140.960	-0.095	0.123
-169.896	460.724	0.263	0.574
-168.881	137.979	-0.070	0.089
-167.866	64.716	-0.177	0.175
-166.852	-37.733	0.140	-0.073
-165.837	36.543	-0.168	-0.145
-164.823	-89.482	-0.051	0.015
-163.808	232.136	0.110	0.176
-162.793	-200.000	-0.030	0.146
-161.779	-98.730	-0.331	-0.083
-160.764	-48.543	-0.266	0.125
-159.750	-20.215	0.185	-0.112
-158.735	0.268	-0.261	0.183
-157.720	9.357	-0.161	0.119
-156.706	-200.000	-0.063	-0.333
-155.691	16.677	-0.044	0.034
-154.677	-48.028	0.073	-0.035
-153.662	412.853	-0.134	-0.278
-152.647	-200.000	-0.062	-0.396
-151.633	295.986	-0.130	-0.234
-150.618	27.285	0.128	0.105
-149.604	643.630	-0.017	-0.042
-148.589	-24.622	0.454	-0.265
-147.574	-200.000	0.080	-0.406
-146.560	-58.164	-0.083	-0.036
-145.545	120.502	0.176	0.214
-144.531	800.000	-0.033	0.098
-143.516	308.888	-0.164	0.300
-142.502	-76.411	-0.214	0.074
-141.487	-32.483	-0.168	-0.092
-140.472	-200.000	0.049	0.241
-139.458	-170.754	0.119	0.004
-138.443	-126.571	0.288	-0.042
-137.429	-200.000	0.018	-0.082
-136.414	-164.036	-0.091	0.004
-135.399	306.025	0.230	0.418
-134.385	-50.911	-0.194	0.089
-133.370	156.828	-0.070	0.095
-132.356	-200.000	0.012	-0.289
-131.341	-200.000	0.004	-0.203
-130.326	-131.057	0.344	-0.045
-129.312	-96.560	0.075	-0.019
-128.297	178.586	0.098	0.140
-127.283	68.430	-0.125	0.125
-126.268	-67.601	0.088	0.034
-125.253	-200.000	-0.049	0.234
-124.239	266.516	0.054	-0.092
-123.224	76.020	-0.138	-0.143
-122.210	-200.000	0.011	0.190
-121.195	-122.229	0.154	0.025
-120.180	133.350	-0.082	-0.103
-119.166	22.617	0.189	0.151
-118.151	83.612	-0.126	0.134
-117.137	800.000	0.049	0.160
-116.122	46.809	-0.422	-0.384
-115.107	-75.615	-0.256	0.089
-114.093	68.250	-0.315	-0.315
-113.078	181.542	-0.013	0.018
-112.064	800.000	-0.060	-0.235
-111.049	158.396	0.155	0.211
-110.034	-2.761	0.161	0.110
-109.020	-31.032	-0.403	-0.222
-108.005	-111.924	0.294	0.058
-106.991	-97.955	-0.462	0.116
-105.976	38.500	0.060	0.052
-104.962	800.000	-0.037	-0.118
-103.947	-41.868	0.132	0.066
-102.932	-67.948	-0.197	0.075
-101.918	20.919	-0.246	0.195
-100.903	111.372	-0.178	0.209
-99.889	262.383	-0.162	0.275
-98.874	-20.929	-0.267	-0.160
-97.859	100.187	0.052	-0.059
-96.845	155.842	-0.142	0.192
-95.830	-78.617	-0.457	-0.153
-94.816	-60.251	-0.233	-0.097
-93.801	328.614	0.127	-0.238
-92.786	-200.000	-0.010	-0.186
-91.772	20.629	0.129	-0.102
-90.757	-37.864	0.115	-0.060
-89.743	-107.012	-0.292	-0.063
-88.728	-168.354	-0.217	0.008
-87.713	84.324	-0.112	-0.120
-86.699	472.146	-0.147	0.322
-85.684	-133.998	-0.289	-0.035
-84.670	800.000	-0.064	-0.224
-83.655	-73.118	-0.100	-0.036
-82.640	5.424	0.259	-0.187
-81.626	28.970	-0.263	0.217
-80.611	221.475	0.147	0.231
-79.597	234.026	0.049	0.078
-78.582	654.446	-0.029	0.074
-77.567	37.495	0.152	0.131
-76.553	-155.335	0.185	-0.012
-75.538	-200.000	0.004	-0.057
-74.524	636.179	0.170	0.421
-73.509	-200.000	0.035	-0.360
-72.494	327.864	0.079	0.148
-71.480	725.221	0.100	-0.260
-70.465	147.542	0.114	0.150
-69.451	-150.744	0.110	0.008
-68.436	-62.382	-0.182	-0.074
-67.422	-142.379	-0.070	-0.007
-66.407	800.000	0.073	-0.199
-65.392	-111.746	0.213	-0.042
-64.378	-26.824	0.326	-0.186
-63.363	31.748	0.333	0.280
-62.349	-73.269	0.103	0.037
-61.334	77.794	-1.381	-1.436
-60.319	20.674	0.902	0.713
-59.305	398.135	-0.565	-1.153
-58.290	315.727	0.779	1.435
-57.276	800.000	0.391	1.430
-56.261	-200.000	119.617	617.761
-55.246	410.955	1536.538	3180.617
-54.232	148.667	2682.188	3536.388
-53.217	99.369	2126.775	2399.747
-52.203	36.509	1573.749	1354.954
-51.188	28.395	1321.529	1089.743
-50.173	25.817	1284.055	1043.880
-49.159	50.485	1350.862	1246.248
-48.144	48.408	1364.097	1246.005
-47.130	28.457	1312.580	1082.554
-46.115	25.467	1293.638	1049.462
-45.100	25.286	1288.512	1044.208
-44.086	25.046	1286.731	1041.328
-43.071	25.039	1284.649	1039.558
-42.057	25.136	1282.027	1037.961
-41.042	25.052	1280.727	1036.379
-40.027	25.181	1278.601	1035.365
-39.013	25.236	1276.479	1033.918
-37.998	25.232	1275.340	1032.936
-36.984	25.254	1273.678	1031.676
-35.969	25.210	1271.635	1029.726
-34.954	25.181	1270.439	1028.548
-33.940	25.347	1268.814	1028.142
-32.925	25.312	1267.457	1026.803
-31.911	25.362	1266.168	1026.003
-30.896	25.182	1265.507	1024.397
-29.881	25.434	1263.364	1024.062
-28.867	25.365	1261.941	1022.473
-27.852	25.358	1260.387	1021.132
-26.838	25.401	1259.282	1020.440
-25.823	25.325	1258.256	1019.138
-24.809	25.200	1257.292	1017.609
-23.794	25.309	1255.801	1016.979
-22.779	25.331	1254.242	1015.802
-21.765	25.352	1253.086	1014.941
-20.750	25.318	1251.541	1013.460
-19.736	25.256	1250.371	1012.120
-18.721	25.193	1249.725	1011.206
-17.706	25.218	1248.581	1010.380
-16.692	25.205	1247.198	1009.147
-15.677	25.312	1245.954	1008.703
-14.663	25.164	1245.072	1007.118
-13.648	25.145	1243.700	1005.859
-12.633	25.251	1243.061	1005.899
-11.619	25.267	1241.752	1004.891
-10.604	25.165	1241.335	1003.941
-9.590	25.142	1239.984	1002.681
-8.575	25.153	1239.242	1002.099
-7.560	25.162	1238.534	1001.538
-6.546	25.196	1237.533	1000.880
-5.531	25.190	1237.009	1000.380
-4.517	25.277	1235.520	999.625
-3.502	25.114	1235.586	998.727
-2.487	25.157	1234.474	998.027
-1.473	25.138	1229.652	993.985
-0.458	23.193	1214.252	970.841
0.556	18.403	1198.167	931.897
1.571	14.476	1204.998	915.599
2.586	13.676	1220.006	922.471
3.600	13.705	1208.092	913.541
4.615	10.413	1137.891	843.276
5.629	4.084	1066.785	759.551
6.644	1.056	1049.467	732.530
7.659	0.720	1047.769	729.659
8.673	0.714	1047.021	729.047
9.688	0.781	1045.861	728.495
10.702	0.841	1043.710	727.222
11.717	4.776	1047.989	749.103
12.731	11.772	1057.485	789.695
13.746	16.321	1062.520	815.400
14.761	17.401	1063.014	820.923
15.775	16.562	1061.820	815.882
16.790	15.558	1060.050	809.613
17.804	15.002	1057.763	805.120
18.819	14.356	1057.687	801.881
19.834	14.382	1056.718	801.202
20.848	14.100	1055.308	798.708
21.863	13.889	1054.621	797.103
22.877	13.742	1053.861	795.751
23.892	13.584	1053.032	794.301
24.907	13.726	1051.982	794.119
25.921	13.756	1051.457	793.794
26.936	13.771	1050.395	792.994
27.950	13.572	1050.256	791.870
28.965	13.868	1048.392	791.802
29.980	13.803	1047.334	790.627
30.994	13.940	1046.129	790.296
32.009	13.951	1045.068	789.477
33.023	13.907	1044.602	788.846
34.038	13.836	1043.666	787.734
35.053	13.946	1042.415	787.243
36.067	13.866	1041.742	786.287
37.082	13.981	1041.017	786.210
38.096	13.912	1040.333	785.299
39.111	13.935	1039.547	784.747
40.126	13.793	1038.092	782.909
41.140	13.833	1036.922	782.145
42.155	13.814	1035.658	781.033
43.169	13.652	1035.427	780.029
44.184	13.674	1033.820	778.852
45.199	13.661	1033.031	778.125
46.213	13.764	1032.055	777.807
47.228	13.668	1031.097	776.564
48.242	13.852	1029.884	776.441
49.257	13.760	1029.161	775.399
50.271	13.719	1028.184	774.405
51.286	13.853	1027.352	774.335
52.301	13.820	1026.473	773.449
53.315	13.830	1025.192	772.460
54.330	13.769	1024.509	771.593
55.344	13.708	1023.672	770.614
56.359	13.761	1022.707	770.063
57.374	13.689	1021.883	769.041
58.388	13.790	1020.753	768.591
59.403	13.671	1020.234	767.579
60.417	13.575	1019.633	766.619
61.432	13.631	1018.578	766.013
62.447	13.680	1017.803	765.592
63.461	13.605	1016.785	764.410
64.476	13.705	1016.204	764.369
65.490	13.557	1015.721	763.257
66.505	13.749	1014.412	763.087
67.520	13.590	1014.493	762.350
68.534	13.716	1013.354	762.007
69.549	13.721	1012.589	761.384
70.563	13.703	1011.637	760.521
71.578	13.805	1010.405	759.992
72.593	13.606	1010.257	758.903
73.607	13.589	1009.713	758.351
74.622	13.570	1009.495	758.033
75.636	13.569	1008.453	757.176
76.651	13.613	1007.701	756.748
77.666	13.574	1006.991	755.968
78.680	13.581	1006.586	755.629
79.695	13.619	1005.831	755.168
80.709	13.760	1005.030	755.145
81.724	13.779	1004.178	754.522
82.739	13.694	1003.781	753.771
83.753	13.787	1002.908	753.471
84.768	13.893	1001.690	752.972
85.782	13.879	1001.049	752.359
86.797	13.805	999.918	751.106
87.812	13.870	999.050	750.681
88.826	13.758	998.744	749.879
89.841	13.867	997.066	749.046
90.855	13.955	996.459	748.919
91.870	13.853	995.829	747.920
92.884	13.915	994.617	747.223
93.899	14.036	993.741	747.045
94.914	13.885	993.308	745.973
95.928	13.965	992.836	745.911
96.943	13.910	991.931	744.918
97.957	13.965	991.189	744.541
98.972	13.954	989.914	743.470
99.987	13.956	989.023	742.742
101.001	13.839	988.347	741.648
102.016	14.055	986.948	741.495
103.030	13.967	986.477	740.683
104.045	13.813	986.244	739.757
105.060	13.912	985.146	739.310
106.074	13.958	983.931	738.536
107.089	13.863	983.146	737.460
108.103	13.734	982.683	736.473
109.118	13.867	981.467	736.085
110.133	13.733	980.812	734.937
111.147	13.895	979.956	734.949
112.162	13.816	979.270	734.017
113.176	13.709	978.747	733.089
114.191	13.916	977.754	733.196
115.206	13.793	976.934	731.972
116.220	13.874	976.276	731.769
117.235	13.928	975.255	731.181
118.249	13.783	974.323	729.778
119.264	13.901	973.772	729.819
120.279	13.885	972.721	728.899
121.293	13.782	972.140	727.946
122.308	13.894	971.259	727.710
123.322	13.779	970.346	726.462
124.337	13.839	969.109	725.732
125.352	13.801	968.121	724.760
126.366	13.843	967.100	724.117
127.381	13.750	966.659	723.315
128.395	13.776	965.438	722.455
129.410	13.855	964.414	721.966
130.424	13.900	963.538	721.442
131.439	13.863	962.999	720.814
132.454	14.071	961.706	720.683
133.468	13.962	960.964	719.591
134.483	13.894	959.990	718.503
135.497	13.889	959.201	717.828
136.512	13.892	958.611	717.335
137.527	13.878	957.891	716.673
138.541	13.874	957.152	716.042
139.556	13.878	956.666	715.631
140.570	13.931	955.792	715.140
141.585	14.035	955.449	715.268
142.600	14.052	954.201	714.344
143.614	14.049	953.236	713.547
144.629	14.090	952.594	713.177
145.643	14.000	951.825	712.154
146.658	14.045	950.578	711.353
147.673	14.170	949.821	711.257
148.687	13.973	949.070	709.791
149.702	14.059	947.866	709.192
150.716	13.977	947.539	708.534
151.731	14.004	946.835	708.063
152.746	14.135	946.353	708.197
153.760	14.006	946.198	707.468
154.775	14.037	945.294	706.863
155.789	14.047	944.731	706.420
156.804	14.175	943.497	705.977
157.819	14.190	942.830	705.481
158.833	14.210	942.227	705.050
159.848	14.273	941.381	704.625
160.862	14.137	941.054	703.742
161.877	14.123	939.527	702.478
162.892	14.110	938.670	701.720
163.906	14.114	937.827	701.044
164.921	14.153	937.460	700.872
165.935	14.323	935.800	700.282
166.950	14.207	935.055	699.176
167.964	14.195	934.560	698.693
168.979	14.278	933.260	698.009
169.994	14.246	932.486	697.235
171.008	14.257	931.964	696.829
172.023	14.243	931.613	696.445
173.037	14.295	930.877	696.051
174.052	14.290	930.056	695.354
175.067	14.314	928.890	694.524
176.081	14.304	928.149	693.865
177.096	14.289	928.163	693.752
178.110	14.252	927.518	693.054
179.125	14.294	926.754	692.596
180.140	14.386	926.523	692.745
181.154	14.319	926.619	692.477
182.169	14.356	925.639	691.838
183.183	14.525	924.630	691.721
184.198	14.560	923.590	691.027
185.213	14.471	923.361	690.429
186.227	14.327	922.736	689.303
187.242	14.489	922.219	689.526
188.256	14.500	921.300	688.824
189.271	14.675	920.022	688.528
190.286	14.453	919.905	687.463
191.300	14.275	919.215	686.153
192.315	14.368	918.875	686.223
193.329	14.412	917.870	685.594
194.344	14.492	917.448	685.545
195.359	14.539	916.463	684.941
196.373	14.474	916.124	684.362
197.388	14.561	915.930	684.511
198.402	14.552	915.340	683.975
199.417	14.657	914.329	683.590
200.432	14.597	914.024	683.052
201.446	14.681	913.617	683.032
202.461	14.611	912.948	682.188
203.475	14.716	912.369	682.124
204.490	14.805	911.545	681.809
205.504	14.816	910.689	681.152
206.519	14.666	909.772	679.798
207.534	14.623	909.255	679.176
208.548	14.714	908.957	679.264
209.563	14.653	908.335	678.489
210.577	14.738	907.612	678.235
211.592	14.931	906.726	678.297
212.607	14.734	906.107	676.974
213.621	14.968	905.185	677.173
214.636	14.915	904.308	676.240
215.650	14.759	904.169	675.447
216.665	14.906	903.343	675.367
217.680	14.915	902.735	674.886
218.694	15.038	901.843	674.654
219.709	14.978	901.457	674.066
220.723	14.802	900.975	672.937
221.738	14.913	900.381	672.882
222.753	14.927	899.458	672.190
223.767	14.969	898.824	671.825
224.782	14.951	898.757	671.642
225.796	15.048	898.036	671.432
226.811	15.124	897.352	671.167
227.826	15.237	896.066	670.596
228.840	14.924	895.557	668.903
229.855	15.025	894.839	668.713
230.869	15.051	894.159	668.251
231.884	14.989	893.699	667.601
232.899	14.973	893.063	667.001
233.913	14.951	892.379	666.343
234.928	15.053	891.661	666.156
235.942	15.013	891.100	665.518
236.957	15.097	890.302	665.195
237.972	15.082	889.709	664.635
238.986	15.023	889.572	664.238
240.001	15.110	888.706	663.878
241.015	15.108	888.142	663.390
242.030	15.046	887.752	662.795
243.045	15.311	886.380	662.761
244.059	15.147	886.280	661.977
245.074	15.250	885.619	661.834
246.088	15.210	884.508	660.789
247.103	15.429	884.090	661.278
248.117	15.278	883.710	660.342
249.132	15.401	882.966	660.210
250.147	15.393	882.457	659.739
251.161	15.456	881.459	659.184
252.176	15.460	880.938	658.752
253.190	15.550	880.312	658.578
254.205	15.478	880.106	658.084
255.220	15.539	879.378	657.719
256.234	15.536	878.622	657.085
257.249	15.602	877.719	656.610
258.263	15.412	877.393	655.566
259.278	15.533	876.781	655.522
260.293	15.725	875.795	655.477
261.307	15.811	875.297	655.379
262.322	15.737	874.785	654.649
263.336	15.718	873.993	653.925
264.351	15.785	873.540	653.788
265.366	15.747	872.848	653.064
266.380	15.734	872.445	652.656
267.395	15.630	871.517	651.501
268.409	15.680	870.471	650.854
269.424	15.685	870.026	650.482
270.439	15.784	869.379	650.324
271.453	15.867	868.355	649.822
272.468	15.708	868.304	649.114
273.482	15.689	867.906	648.684
274.497	15.736	867.160	648.252
275.512	15.734	866.714	647.850
276.526	15.943	865.722	647.856
277.541	15.797	865.123	646.788
278.555	16.030	864.694	647.307
279.570	16.024	863.688	646.473
280.585	15.904	863.417	645.755
281.599	16.026	862.413	645.414
282.614	15.923	862.191	644.794
283.628	15.906	861.172	643.912
284.643	15.882	860.918	643.573
285.657	15.941	860.162	643.175
286.672	15.962	859.873	642.983
287.687	16.006	858.981	642.428
288.701	16.041	858.358	642.037
289.716	16.064	857.924	641.742
290.730	16.167	857.209	641.544
291.745	16.247	856.401	641.186
292.760	16.181	855.982	640.564
293.774	16.165	855.428	640.032
294.789	16.145	854.869	639.482
295.803	16.294	853.930	639.286
296.818	16.085	853.558	638.163
297.833	16.095	853.078	637.784
298.847	16.150	852.287	637.343
299.862	16.159	851.723	636.901
300.876	16.342	851.116	637.080
301.891	16.272	850.939	636.627
302.906	16.406	849.839	636.254
303.920	16.467	849.476	636.153
304.935	16.503	848.891	635.795
305.949	16.612	848.055	635.520
306.964	16.458	847.916	634.783
307.979	16.488	846.658	633.896
308.993	16.315	846.597	633.149
310.008	16.504	846.013	633.364
311.022	16.525	844.692	632.397
312.037	16.380	844.666	631.777
313.052	16.655	843.852	632.142
314.066	16.382	844.292	631.396
315.081	16.445	842.774	630.438
316.095	16.443	842.467	630.146
317.110	16.522	841.909	629.969
318.125	16.513	841.741	629.752
319.139	16.446	841.174	629.024
320.154	16.482	840.803	628.825
321.168	16.519	839.990	628.299
322.183	16.575	839.376	627.988
323.197	16.600	838.752	627.560
324.212	16.578	838.594	627.304
325.227	16.611	837.653	626.667
326.241	16.590	837.209	626.202
327.256	16.593	836.611	625.710
328.270	16.673	835.911	625.428
329.285	16.639	835.445	624.900
330.300	16.552	835.115	624.275
331.314	16.658	834.431	624.100
332.329	16.612	834.401	623.851
333.343	16.736	833.627	623.674
334.358	16.660	833.151	622.984
335.373	16.832	832.500	623.076
336.387	16.820	832.507	622.979
337.402	16.845	832.161	622.759
338.416	16.913	831.894	622.753
339.431	16.740	831.463	621.741
340.446	16.677	831.513	621.493
341.460	16.799	830.670	621.253
342.475	16.929	830.490	621.542
343.489	16.939	829.745	620.965
344.504	16.895	829.239	620.369
345.519	16.889	828.888	620.030
346.533	16.929	828.792	620.052
347.548	16.981	827.765	619.417
348.562	17.042	827.432	619.336
349.577	17.046	826.544	618.630
350.592	17.073	826.106	618.346
351.606	16.907	825.661	617.353
352.621	16.979	825.102	617.142
353.635	17.026	824.012	616.446
354.650	17.013	823.779	616.167
355.665	16.967	823.248	615.550
356.679	17.151	822.073	615.285
357.694	17.222	821.780	615.266
358.708	17.127	820.949	614.247
359.723	17.028	820.539	613.527
360.738	17.187	819.891	613.562
361.752	17.318	819.376	613.597
362.767	17.210	818.878	612.779
363.781	17.257	818.362	612.507
364.796	17.293	817.912	612.247
365.810	17.274	817.640	611.922
366.825	17.384	817.206	611.938
367.840	17.373	816.710	611.473
368.854	17.324	816.293	610.929
369.869	17.378	815.757	610.670
370.883	17.440	815.081	610.333
371.898	17.526	815.078	610.582
372.913	17.383	814.728	609.754
373.927	17.409	814.246	609.434
374.942	17.481	813.889	609.371
375.956	17.612	812.959	609.088
376.971	17.557	812.744	608.676
377.986	17.502	812.437	608.196
379.000	17.516	812.060	607.909
380.015	17.433	811.686	607.281
381.029	17.501	810.794	606.802
382.044	17.576	810.127	606.517
383.059	17.582	809.630	606.110
384.073	17.600	808.981	605.634
385.088	17.540	808.942	605.339
386.102	17.624	807.974	604.859
387.117	17.701	807.521	604.742
388.132	17.661	806.761	603.976
389.146	17.705	806.220	603.672
390.161	17.583	806.379	603.307
391.175	17.629	805.482	602.744
392.190	17.682	804.855	602.410
393.205	17.712	804.458	602.167
394.219	17.655	804.416	601.881
395.234	17.720	803.697	601.517
396.248	17.509	803.911	600.881
397.263	17.584	803.298	600.631
398.278	17.792	802.415	600.653
399.292	17.718	801.762	599.849
400.307	17.863	801.210	599.892
401.321	17.729	801.185	599.350
402.336	17.790	800.455	598.966
403.350	17.835	800.211	598.888
404.365	17.935	799.778	598.861
405.380	17.999	799.101	598.528
406.394	17.973	798.825	598.174
407.409	18.002	798.059	597.651
408.423	17.964	798.064	597.469
409.438	18.175	797.757	597.924
410.453	17.961	797.254	596.745
411.467	18.090	796.900	596.879
412.482	17.899	796.759	596.054
413.496	18.243	795.875	596.537
414.511	18.241	795.659	596.316
415.526	18.178	795.012	595.560
416.540	17.975	794.843	594.673
417.555	18.185	794.022	594.736
418.569	18.182	793.932	594.605
419.584	18.130	793.467	594.026
420.599	18.229	793.150	594.080
421.613	115.877	1296.794	1489.245
422.628	99.841	1370.112	1489.349
