DTS Sentinel unit serial number:	SN413079Multiplexer serial number:	ORYXHardware model number:	OX4-SRSoftware version number:	ORYX F/W v4.00 Oryx Data Collector v3.7.2.0data status	okinstallation	princeton_trtdifferential loss correction	single-endedforward channel	channel 1reverse channel	N/Adate	2019/09/12time	23:02:35forward acquisition time	60.00reverse acquisition time	0.00gamma	496.2192k internal	0.2327k external	0.2327temperature offset calibration	1.0148default loss term (dB/km)	0.3790temperature slope calibration	1.0000multiplexer offset coefficient	1.0000multiplexer slope coefficient	1.0000fibre end	0.00T internal ref (°C)	29.31T ext. ref 1 (°C)	3.73T ext. ref 2 (°C)	23.87length (m)	temperature (°C)	Stokes	anti-Stokes-747.200	-62.280	0.295	0.124
-746.185	-94.397	-0.061	0.017
-745.171	-200.000	-0.024	0.205
-744.156	-61.881	-0.258	0.109
-743.142	-137.723	0.082	-0.009
-742.127	-51.321	-0.088	-0.042
-741.112	-60.491	-0.015	0.006
-740.098	570.347	-0.091	0.224
-739.083	-14.687	0.219	-0.142
-738.069	800.000	0.111	0.353
-737.054	-200.000	0.010	0.100
-736.039	-127.605	-0.400	0.058
-735.025	-86.548	0.300	0.093
-734.010	-85.135	0.147	-0.046
-732.996	-200.000	-0.017	-0.099
-731.981	389.229	-0.285	-0.594
-730.966	117.896	-0.159	-0.198
-729.952	-200.000	0.045	-0.216
-728.937	-153.356	-0.331	0.023
-727.923	-11.283	0.149	0.099
-726.908	-110.604	0.160	-0.033
-725.894	-197.988	-0.182	-0.001
-724.879	181.992	-0.128	-0.190
-723.864	-144.190	-0.507	0.048
-722.850	43.490	0.274	0.252
-721.835	-175.880	-0.112	-0.003
-720.821	-200.000	0.016	0.093
-719.806	-11.104	-0.202	0.134
-718.791	-176.590	-0.175	-0.005
-717.777	800.000	-0.101	-0.337
-716.762	-111.396	0.209	0.043
-715.748	90.003	-0.103	-0.116
-714.733	-44.776	0.136	-0.068
-713.718	7.229	-0.210	-0.158
-712.704	800.000	0.068	-0.291
-711.689	-66.522	-0.228	-0.091
-710.675	-200.000	0.020	-0.100
-709.660	-200.000	0.026	0.146
-708.645	105.720	-0.179	0.213
-707.631	375.767	0.107	-0.219
-706.616	-100.360	-0.457	-0.114
-705.602	-78.171	-0.451	0.156
-704.587	24.309	0.195	0.162
-703.572	165.769	0.118	-0.168
-702.558	-191.343	-0.313	0.003
-701.543	110.465	-0.233	-0.282
-700.529	116.989	-0.182	0.225
-699.514	-200.000	0.049	-0.365
-698.499	88.577	-0.213	-0.238
-697.485	58.211	0.110	-0.109
-696.470	-110.341	0.220	-0.046
-695.456	26.780	-0.301	0.254
-694.441	-50.173	0.012	-0.006
-693.426	-45.201	0.537	-0.268
-692.412	800.000	-0.008	0.023
-691.397	800.000	0.016	0.050
-690.383	-194.471	0.232	0.002
-689.368	531.719	-0.163	-0.387
-688.354	-102.253	-0.191	0.046
-687.339	159.744	-0.057	0.079
-686.324	511.044	0.081	-0.189
-685.310	441.935	0.158	-0.348
-684.295	-54.219	-0.193	-0.088
-683.281	13.656	-0.036	-0.028
-682.266	-107.865	0.364	-0.080
-681.251	800.000	-0.034	-0.139
-680.237	38.509	-0.245	-0.220
-679.222	-35.118	-0.373	0.205
-678.208	200.383	-0.063	0.097
-677.193	-48.969	-0.293	-0.141
-676.178	-200.000	-0.042	0.460
-675.164	148.029	0.084	-0.114
-674.149	70.106	-0.060	0.062
-673.135	-184.603	-0.253	0.004
-672.120	774.132	-0.115	-0.316
-671.105	-52.344	0.107	-0.050
-670.091	25.042	-0.309	0.258
-669.076	492.060	0.139	0.320
-668.062	220.241	-0.136	0.219
-667.047	174.294	-0.116	0.169
-666.032	122.696	0.078	0.099
-665.018	23.393	0.152	0.125
-664.003	-173.326	0.129	0.004
-662.989	800.000	-0.058	-0.200
-661.974	-96.939	0.112	0.029
-660.959	635.367	-0.008	0.020
-659.945	-68.124	0.387	0.151
-658.930	-200.000	0.034	0.163
-657.916	800.000	0.069	-0.236
-656.901	-200.000	-0.050	-0.320
-655.886	-200.000	0.004	-0.119
-654.872	160.530	-0.070	0.098
-653.857	107.323	-0.116	0.139
-652.843	134.793	0.253	0.330
-651.828	-75.417	-0.095	-0.034
-650.814	-13.296	-0.184	-0.120
-649.799	-83.287	-0.287	-0.093
-648.784	-76.690	-0.308	0.109
-647.770	10.811	0.278	0.213
-646.755	-63.201	-0.136	0.056
-645.741	316.861	0.131	0.249
-644.726	-125.630	0.250	0.038
-643.711	148.779	0.033	-0.044
-642.697	-88.152	0.151	-0.045
-641.682	18.049	0.155	0.124
-640.668	800.000	-0.045	-0.169
-639.653	-79.584	-0.178	-0.060
-638.638	10.312	-0.112	0.086
-637.624	451.302	-0.071	-0.158
-636.609	-200.000	-0.009	0.087
-635.595	-5.625	-0.148	-0.102
-634.580	800.000	0.054	0.218
-633.565	283.770	-0.089	-0.160
-632.551	-120.176	-0.190	-0.033
-631.536	-49.408	0.176	0.084
-630.522	123.869	-0.131	0.165
-629.507	800.000	-0.121	-0.422
-628.492	45.146	0.095	-0.088
-627.478	-8.456	0.272	-0.183
-626.463	-107.118	-0.272	-0.060
-625.449	-133.736	-0.169	0.021
-624.434	268.526	0.051	-0.090
-623.419	-121.272	0.245	0.041
-622.405	-34.274	-0.211	0.116
-621.390	-200.000	-0.075	0.344
-620.376	-200.000	0.017	-0.130
-619.361	-83.136	-0.197	-0.063
-618.346	-200.000	0.009	0.109
-617.332	-71.329	-0.194	-0.073
-616.317	-200.000	-0.026	-0.158
-615.303	318.026	-0.117	-0.223
-614.288	165.119	0.248	-0.351
-613.273	178.414	0.187	0.274
-612.259	337.439	0.169	0.330
-611.244	-200.000	0.029	0.287
-610.230	-24.081	-0.100	-0.060
-609.215	166.623	0.133	0.190
-608.201	50.246	0.199	0.189
-607.186	139.665	0.036	-0.047
-606.171	-0.974	0.323	-0.229
-605.157	353.270	-0.090	-0.178
-604.142	-98.903	-0.216	0.055
-603.128	-43.254	0.206	0.105
-602.113	761.825	0.098	-0.265
-601.098	130.603	0.208	0.267
-600.084	82.290	0.095	0.104
-599.069	-98.267	-0.173	0.044
-598.055	800.000	0.036	-0.126
-597.040	-73.349	-0.125	-0.046
-596.025	-192.043	0.347	0.003
-595.011	125.152	-0.206	0.260
-593.996	800.000	0.011	0.038
-592.982	-5.508	0.258	0.177
-591.967	145.318	-0.039	-0.052
-590.952	800.000	-0.008	-0.034
-589.938	-79.543	-0.222	-0.075
-588.923	11.881	-0.291	0.224
-587.909	-200.000	0.010	-0.100
-586.894	250.733	-0.093	0.159
-585.879	8.574	0.377	0.285
-584.865	-62.053	0.045	-0.019
-583.850	-62.088	0.215	-0.090
-582.836	-145.835	-0.194	-0.017
-581.821	-200.000	0.010	-0.284
-580.806	55.523	0.177	0.172
-579.792	-122.380	0.136	-0.022
-578.777	427.242	0.097	0.210
-577.763	633.575	-0.176	0.447
-576.748	800.000	0.087	-0.274
-575.733	-100.344	-0.399	-0.099
-574.719	-109.974	-0.122	-0.026
-573.704	-200.000	-0.019	-0.153
-572.690	475.885	-0.094	0.214
-571.675	141.913	0.103	0.137
-570.661	47.605	-0.085	-0.080
-569.646	89.593	0.192	-0.215
-568.631	-200.000	0.000	0.076
-567.617	74.290	-0.132	-0.139
-566.602	13.267	0.195	-0.151
-565.588	800.000	0.052	-0.186
-564.573	-28.370	-0.052	0.030
-563.558	800.000	-0.113	-0.375
-562.544	266.066	0.036	-0.063
-561.529	57.088	0.088	-0.086
-560.515	-46.609	-0.241	-0.118
-559.500	-200.000	0.049	0.432
-558.485	-123.553	0.116	-0.018
-557.471	800.000	0.076	0.213
-556.456	43.777	0.200	-0.183
-555.442	51.261	-0.254	-0.242
-554.427	299.149	-0.048	-0.089
-553.412	-174.072	0.130	0.004
-552.398	261.816	0.037	0.064
-551.383	-200.000	0.025	0.389
-550.369	99.416	0.216	-0.250
-549.354	-144.768	-0.276	0.025
-548.339	0.303	0.171	-0.122
-547.325	800.000	0.059	-0.169
-546.310	71.801	0.074	0.077
-545.296	48.786	0.041	0.038
-544.281	40.286	0.114	0.103
-543.266	-142.442	-0.129	-0.013
-542.252	-83.660	0.415	-0.132
-541.237	-16.333	-0.157	0.100
-540.223	800.000	-0.093	0.399
-539.208	-57.819	-0.307	0.134
-538.193	-34.941	0.142	0.078
-537.179	-139.236	0.036	-0.004
-536.164	-186.323	-0.169	-0.002
-535.150	-72.922	-0.501	0.184
-534.135	222.289	0.016	0.025
-533.121	-56.072	-0.283	0.126
-532.106	-11.931	-0.257	-0.169
-531.091	-193.102	0.106	-0.001
-530.077	-200.000	-0.017	-0.079
-529.062	800.000	0.073	-0.202
-528.048	-93.227	0.062	0.017
-527.033	800.000	-0.029	-0.106
-526.018	-59.858	-0.094	0.040
-525.004	-41.968	-0.434	0.222
-523.989	-140.133	0.272	0.029
-522.975	18.633	0.060	0.048
-521.960	36.569	0.228	-0.201
-520.945	7.241	0.171	-0.128
-519.931	233.372	-0.099	-0.163
-518.916	-75.207	-0.148	0.053
-517.902	222.446	-0.307	-0.494
-516.887	-64.650	0.359	0.146
-515.872	62.234	-0.139	0.139
-514.858	438.945	0.115	-0.251
-513.843	-200.000	0.001	-0.286
-512.829	-5.801	0.147	-0.101
-511.814	14.900	-0.162	0.126
-510.799	800.000	0.031	0.088
-509.785	-41.616	0.191	-0.098
-508.770	415.185	-0.118	-0.252
-507.756	-130.377	-0.235	0.032
-506.741	800.000	-0.057	0.174
-505.726	800.000	0.070	0.215
-504.712	684.555	0.114	0.297
-503.697	-113.468	-0.549	0.107
-502.683	-200.000	0.015	-0.076
-501.668	-189.818	-0.293	-0.003
-500.653	451.120	0.156	-0.343
-499.639	-78.722	0.254	-0.087
-498.624	-200.000	-0.017	-0.432
-497.610	475.600	-0.142	0.321
-496.595	800.000	0.084	-0.272
-495.581	-65.827	-0.364	0.145
-494.566	-200.000	-0.026	-0.119
-493.551	-50.331	-0.117	-0.055
-492.537	534.878	-0.156	-0.368
-491.522	-200.000	0.105	0.000
-490.508	800.000	0.225	0.648
-489.493	57.299	0.064	0.062
-488.478	30.500	0.016	0.014
-487.464	2.326	0.248	0.179
-486.449	130.859	0.031	-0.040
-485.435	-179.687	0.408	-0.009
-484.420	257.834	-0.182	-0.313
-483.405	202.294	0.111	0.171
-482.391	-45.432	0.115	0.057
-481.376	-30.038	-0.328	-0.186
-480.362	418.470	-0.086	-0.184
-479.347	-32.329	0.123	-0.068
-478.332	-200.000	0.012	-0.439
-477.318	20.052	0.165	-0.133
-476.303	-1.401	-0.155	-0.109
-475.289	-45.199	0.183	-0.091
-474.274	488.698	-0.063	0.144
-473.259	57.212	-0.116	-0.113
-472.245	-45.280	0.400	-0.198
-471.230	-85.491	0.330	-0.103
-470.216	55.398	-0.136	-0.131
-469.201	4.761	0.087	-0.064
-468.186	190.871	-0.156	-0.233
-467.172	7.502	-0.321	-0.240
-466.157	800.000	0.075	-0.325
-465.143	-107.065	-0.310	-0.068
-464.128	-200.000	-0.039	0.506
-463.113	107.587	-0.072	-0.085
-462.099	-168.227	-0.302	0.012
-461.084	-160.011	0.266	0.014
-460.070	800.000	-0.044	0.159
-459.055	-200.000	-0.003	-0.052
-458.040	51.191	0.088	-0.084
-457.026	55.859	0.307	-0.297
-456.011	170.916	-0.053	-0.075
-454.997	224.434	-0.059	-0.095
-453.982	49.403	-0.093	-0.087
-452.968	-200.000	-0.026	0.201
-451.953	-113.264	-0.065	-0.013
-450.938	350.079	0.189	-0.372
-449.924	-184.900	0.119	0.002
-448.909	800.000	-0.088	0.255
-447.895	800.000	-0.045	0.145
-446.880	-34.190	-0.272	-0.149
-445.865	800.000	0.006	0.027
-444.851	52.262	-0.119	-0.113
-443.836	-56.246	0.099	-0.044
-442.822	131.823	0.199	-0.256
-441.807	-200.000	-0.004	0.040
-440.792	800.000	-0.061	0.243
-439.778	239.725	0.111	-0.184
-438.763	272.610	-0.183	0.322
-437.749	171.304	-0.103	0.148
-436.734	-112.643	-0.301	0.060
-435.719	290.986	-0.105	0.191
-434.705	-150.195	0.155	0.012
-433.690	-141.220	-0.071	0.007
-432.676	159.417	-0.222	0.308
-431.661	-200.000	-0.001	0.239
-430.646	103.126	-0.210	-0.245
-429.632	77.374	0.148	0.157
-428.617	513.863	-0.005	0.010
-427.603	-200.000	-0.028	-0.299
-426.588	-200.000	0.028	-0.185
-425.573	-113.064	0.320	-0.063
-424.559	-85.623	-0.307	0.095
-423.544	-200.000	0.032	0.149
-422.530	-36.993	-0.307	-0.164
-421.515	-9.140	-0.114	0.076
-420.500	73.194	0.159	0.166
-419.486	149.336	0.103	0.139
-418.471	463.271	0.068	0.151
-417.457	-60.643	0.120	-0.051
-416.442	800.000	0.053	0.159
-415.428	-37.727	0.251	-0.133
-414.413	800.000	0.101	-0.358
-413.398	800.000	0.022	-0.075
-412.384	-56.161	-0.158	0.070
-411.369	-40.817	0.219	0.113
-410.355	72.220	0.106	-0.109
-409.340	-34.177	-0.016	-0.009
-408.325	800.000	0.026	-0.082
-407.311	-64.098	-0.387	0.157
-406.296	196.229	-0.072	0.108
-405.282	159.406	0.129	-0.179
-404.267	-200.000	-0.031	-0.284
-403.252	-200.000	-0.004	-0.043
-402.238	56.664	-0.013	0.013
-401.223	27.922	-0.100	-0.084
-400.209	-80.931	0.141	-0.047
-399.194	-52.035	-0.076	-0.035
-398.179	-56.500	-0.160	0.071
-397.165	-42.374	-0.118	0.060
-396.150	-17.803	0.258	-0.161
-395.136	-30.327	0.141	-0.080
-394.121	-10.161	-0.172	0.113
-393.106	-76.428	-0.217	-0.076
-392.092	313.349	0.022	-0.042
-391.077	-129.256	-0.082	0.011
-390.063	-200.000	-0.033	-0.207
-389.048	-50.010	-0.080	0.038
-388.033	-168.593	0.268	-0.010
-387.019	182.993	-0.089	0.131
-386.004	-200.000	-0.003	-0.074
-384.990	7.166	0.167	-0.124
-383.975	317.424	0.055	-0.104
-382.960	-115.143	-0.390	0.073
-381.946	469.609	-0.065	0.145
-380.931	-50.757	0.304	0.142
-379.917	-57.293	0.167	-0.073
-378.902	5.667	-0.081	-0.060
-377.888	-77.182	-0.113	0.039
-376.873	-171.675	0.051	-0.002
-375.858	15.853	-0.241	-0.188
-374.844	135.086	-0.082	0.105
-373.829	-200.000	-0.015	0.149
-372.815	-10.016	-0.237	0.157
-371.800	-5.740	0.090	0.061
-370.785	91.812	0.177	0.197
-369.771	-200.000	0.006	0.146
-368.756	241.423	0.075	0.124
-367.742	-32.920	-0.287	-0.158
-366.727	85.445	0.123	0.134
-365.712	-78.656	0.210	-0.071
-364.698	300.514	0.089	-0.164
-363.683	-200.000	0.001	-0.011
-362.669	-109.486	0.572	0.120
-361.654	255.778	0.075	-0.128
-360.639	-63.754	0.279	-0.114
-359.625	-200.000	-0.001	0.078
-358.610	-200.000	-0.016	-0.112
-357.596	4.668	0.181	0.132
-356.581	576.291	0.139	-0.337
-355.566	34.135	0.237	0.205
-354.552	-200.000	0.022	0.095
-353.537	5.537	0.087	0.064
-352.523	-97.394	0.225	0.058
-351.508	-200.000	0.040	-0.260
-350.493	-105.649	0.095	-0.021
-349.479	-9.880	0.159	-0.105
-348.464	218.061	-0.203	0.321
-347.450	-167.532	0.216	0.009
-346.435	-200.000	0.056	0.258
-345.420	-67.018	0.281	-0.110
-344.406	-200.000	0.004	0.212
-343.391	85.475	0.185	0.201
-342.377	-104.310	-0.063	-0.015
-341.362	-112.602	-0.200	0.040
-340.348	161.323	-0.070	-0.097
-339.333	7.459	0.160	0.119
-338.318	-33.952	-0.215	0.118
-337.304	800.000	0.061	0.236
-336.289	71.934	0.060	0.062
-335.275	25.433	-0.142	-0.117
-334.260	-108.307	-0.182	-0.039
-333.245	-56.259	0.200	-0.088
-332.231	-141.414	0.226	-0.023
-331.216	-129.002	-0.284	0.040
-330.202	-200.000	0.049	0.309
-329.187	-200.000	-0.129	-0.000
-328.172	363.454	0.061	-0.122
-327.158	-48.059	0.163	0.078
-326.143	800.000	-0.012	-0.038
-325.129	17.067	-0.180	0.142
-324.114	202.893	0.080	0.122
-323.099	28.895	-0.187	0.157
-322.085	-95.439	0.203	0.054
-321.070	3.284	-0.298	-0.215
-320.056	-38.211	-0.134	-0.071
-319.041	159.524	-0.047	0.065
-318.026	154.696	0.099	0.135
-317.012	-77.963	0.193	0.066
-315.997	67.502	-0.150	0.152
-314.983	-15.083	-0.116	-0.074
-313.968	137.779	-0.142	0.185
-312.953	551.874	-0.044	0.106
-311.939	62.567	-0.173	-0.172
-310.924	-199.877	0.315	0.002
-309.910	20.073	-0.331	-0.264
-308.895	118.060	-0.047	-0.057
-307.880	617.057	-0.053	-0.131
-306.866	25.839	0.121	-0.100
-305.851	111.290	0.116	0.139
-304.837	-32.444	-0.098	-0.054
-303.822	-200.000	-0.023	0.280
-302.807	67.345	0.135	0.137
-301.793	-200.000	0.012	0.146
-300.778	-200.000	-0.019	0.376
-299.764	800.000	-0.139	0.411
-298.749	-200.000	0.007	-0.099
-297.735	800.000	0.097	-0.355
-296.720	-155.094	0.205	-0.013
-295.705	-102.286	-0.292	0.069
-294.691	9.614	0.137	-0.103
-293.676	130.993	-0.130	-0.165
-292.662	-2.210	-0.186	0.129
-291.647	82.389	0.167	0.179
-290.632	5.448	0.147	0.108
-289.618	272.373	0.075	0.132
-288.603	-116.230	-0.076	0.014
-287.589	71.796	0.120	-0.123
-286.574	-200.000	0.027	0.196
-285.559	-59.466	0.230	0.098
-284.545	-158.073	-0.261	-0.015
-283.530	-165.367	0.101	0.004
-282.516	800.000	0.054	-0.161
-281.501	-101.785	0.203	-0.049
-280.486	-41.535	0.279	-0.142
-279.472	110.224	-0.055	-0.065
-278.457	-75.459	-0.014	0.005
-277.443	120.107	0.136	-0.167
-276.428	40.975	-0.042	-0.037
-275.413	164.102	-0.099	0.139
-274.399	-41.032	0.271	0.139
-273.384	-200.000	0.008	0.140
-272.370	-83.689	0.040	0.013
-271.355	-30.382	0.266	0.149
-270.340	169.413	-0.240	0.340
-269.326	-200.000	0.010	0.335
-268.311	-117.472	0.252	-0.045
-267.297	-20.017	0.362	-0.221
-266.282	-104.187	-0.337	-0.078
-265.267	800.000	-0.015	0.043
-264.253	-59.501	0.114	-0.049
-263.238	186.733	-0.044	-0.064
-262.224	-6.621	0.094	-0.063
-261.209	33.489	-0.099	-0.085
-260.195	-45.514	-0.093	-0.045
-259.180	-150.496	-0.261	-0.020
-258.165	-148.014	-0.198	0.016
-257.151	-69.220	0.146	0.055
-256.136	-108.336	0.335	-0.071
-255.122	95.660	-0.188	0.213
-254.107	63.858	-0.190	0.189
-253.092	409.003	-0.035	0.073
-252.078	35.983	0.269	0.234
-251.063	-66.618	-0.201	-0.079
-250.049	58.109	-0.207	0.201
-249.034	-200.000	0.007	-0.129
-248.019	-17.119	-0.151	0.094
-247.005	-134.454	0.095	0.012
-245.990	800.000	-0.131	0.369
-244.976	-82.342	-0.169	-0.054
-243.961	56.402	0.095	0.091
-242.946	-63.840	0.201	0.081
-241.932	5.807	-0.259	0.189
-240.917	-117.180	0.265	0.048
-239.903	94.468	0.089	-0.100
-238.888	-169.208	0.408	0.015
-237.873	-188.873	0.178	-0.002
-236.859	627.206	0.010	0.026
-235.844	800.000	-0.042	0.162
-234.830	668.200	-0.060	0.153
-233.815	4.774	0.139	-0.101
-232.800	-12.854	0.156	0.100
-231.786	-86.866	-0.239	-0.072
-230.771	534.319	-0.072	-0.169
-229.757	-14.760	-0.232	-0.147
-228.742	-140.788	-0.187	-0.019
-227.727	-200.000	0.018	0.170
-226.713	-87.104	0.190	0.057
-225.698	190.910	-0.109	0.162
-224.684	-58.057	-0.129	-0.055
-223.669	-200.000	0.273	0.001
-222.655	-200.000	-0.014	0.120
-221.640	-46.182	0.152	0.074
-220.625	800.000	0.109	-0.307
-219.611	146.484	0.051	-0.067
-218.596	-16.741	-0.193	-0.121
-217.582	10.090	-0.130	-0.097
-216.567	-80.405	0.360	0.119
-215.552	-1.981	-0.250	-0.173
-214.538	52.603	-0.162	-0.153
-213.523	-182.201	-0.108	-0.002
-212.509	-76.263	-0.076	0.027
-211.494	-146.657	-0.285	-0.024
-210.479	-200.000	-0.011	-0.190
-209.465	-85.105	-0.078	-0.024
-208.450	-200.000	-0.052	-0.274
-207.436	-128.125	-0.337	-0.048
-206.421	-27.092	0.071	-0.041
-205.406	126.472	0.054	0.067
-204.392	-168.416	0.336	0.013
-203.377	-196.753	-0.328	-0.002
-202.363	-100.406	0.124	-0.030
-201.348	800.000	-0.020	0.077
-200.333	-44.528	-0.292	-0.144
-199.319	37.384	0.462	-0.404
-198.304	-200.000	-0.030	0.131
-197.290	-90.968	-0.138	0.039
-196.275	-200.000	-0.033	-0.160
-195.260	260.404	-0.075	-0.128
-194.246	39.546	0.179	0.159
-193.231	410.820	0.117	0.246
-192.217	-35.710	0.170	0.091
-191.202	-7.541	0.100	0.067
-190.187	800.000	0.141	-0.582
-189.173	800.000	0.014	0.045
-188.158	699.859	0.044	-0.115
-187.144	-25.292	0.375	0.219
-186.129	-13.728	-0.149	-0.095
-185.114	-20.919	0.113	-0.068
-184.100	121.984	-0.172	0.211
-183.085	23.425	0.114	-0.092
-182.071	-84.473	-0.164	-0.051
-181.056	-200.000	-0.056	-0.377
-180.042	125.222	-0.158	0.197
-179.027	6.803	0.224	-0.164
-178.012	16.966	-0.115	0.090
-176.998	408.786	0.200	-0.418
-175.983	114.214	-0.194	-0.232
-174.969	119.008	-0.183	0.222
-173.954	-200.000	-0.029	0.292
-172.939	57.502	-0.052	0.050
-171.925	-117.076	-0.090	-0.016
-170.910	730.349	-0.127	0.334
-169.896	-35.247	-0.138	0.074
-168.881	445.563	-0.046	0.099
-167.866	-104.231	-0.105	-0.024
-166.852	-154.943	0.408	0.026
-165.837	-200.000	0.030	-0.179
-164.823	192.641	0.168	-0.250
-163.808	53.482	-0.056	0.053
-162.793	-59.555	-0.205	-0.087
-161.779	-200.000	-0.042	0.196
-160.764	-200.000	-0.009	-0.186
-159.750	-122.747	0.137	0.022
-158.735	-200.000	0.017	-0.084
-157.720	68.065	-0.308	0.311
-156.706	644.213	-0.061	-0.155
-155.691	-200.000	-0.017	0.142
-154.677	-114.929	-0.277	0.052
-153.662	-76.893	0.186	-0.064
-152.647	26.939	0.068	-0.056
-151.633	28.022	-0.296	-0.246
-150.618	-113.893	0.293	-0.056
-149.604	45.109	0.241	0.219
-148.589	53.247	-0.123	-0.116
-147.574	27.971	-0.137	-0.114
-146.560	-90.040	-0.199	0.057
-145.545	-200.000	0.036	-0.290
-144.531	69.308	0.190	-0.193
-143.516	-131.777	0.271	-0.035
-142.502	225.694	-0.191	-0.305
-141.487	-61.483	0.200	-0.083
-140.472	786.916	-0.089	-0.240
-139.458	800.000	-0.109	0.359
-138.443	800.000	-0.049	-0.153
-137.429	-131.759	0.381	0.049
-136.414	731.617	0.094	0.247
-135.399	-97.748	-0.101	-0.026
-134.385	-106.360	0.223	0.049
-133.370	800.000	0.058	-0.205
-132.356	238.633	-0.079	-0.129
-131.341	8.268	-0.141	-0.104
-130.326	-87.320	0.176	0.053
-129.312	333.366	-0.191	0.363
-128.297	54.633	0.128	0.121
-127.283	800.000	-0.130	0.365
-126.268	-52.674	0.268	-0.122
-125.253	24.303	0.119	-0.097
-124.239	191.849	0.252	0.374
-123.224	53.502	-0.015	0.014
-122.210	-55.420	-0.381	-0.168
-121.195	-177.924	0.292	-0.007
-120.180	-64.824	-0.080	0.032
-119.166	13.239	0.033	-0.025
-118.151	106.169	-0.036	0.042
-117.137	-178.511	0.380	-0.009
-116.122	-62.775	0.135	-0.055
-115.107	172.520	0.038	-0.053
-114.093	627.947	0.077	0.192
-113.078	769.697	-0.106	0.284
-112.064	714.477	-0.136	-0.353
-111.049	-91.977	-0.193	0.054
-110.034	101.031	-0.092	0.105
-109.020	800.000	-0.095	-0.273
-108.005	-28.652	-0.030	-0.017
-106.991	-95.424	0.108	-0.028
-105.976	-200.000	-0.013	0.197
-104.962	-200.000	0.020	-0.174
-103.947	418.532	0.121	-0.254
-102.932	402.661	0.116	0.240
-101.918	800.000	0.043	-0.118
-100.903	478.551	0.131	-0.291
-99.889	620.497	0.024	0.059
-98.874	-106.969	0.232	-0.050
-97.859	21.958	-0.134	-0.107
-96.845	-200.000	-0.054	0.265
-95.830	362.800	0.105	0.207
-94.816	-67.232	-0.247	0.096
-93.801	-79.478	0.013	-0.004
-92.786	-19.375	0.106	0.065
-91.772	800.000	-0.096	0.316
-90.757	92.690	0.224	-0.249
-89.743	17.332	-0.060	-0.047
-88.728	162.909	-0.070	0.096
-87.713	-200.000	-0.013	-0.215
-86.699	-160.638	0.294	0.015
-85.684	800.000	0.091	-0.354
-84.670	-51.362	-0.011	0.005
-83.655	95.973	-0.220	0.247
-82.640	132.547	0.225	-0.284
-81.626	42.808	0.247	0.221
-80.611	-95.109	0.262	-0.069
-79.597	-178.346	-0.114	0.003
-78.582	-200.000	-0.010	0.366
-77.567	800.000	0.058	0.201
-76.553	-200.000	-0.011	0.163
-75.538	-9.447	0.198	-0.130
-74.524	800.000	-0.105	0.292
-73.509	-89.945	0.319	-0.091
-72.494	474.761	-0.086	0.192
-71.480	55.733	0.126	0.120
-70.465	-34.805	0.234	0.125
-69.451	45.784	0.094	-0.085
-68.436	-200.000	-0.025	-0.287
-67.422	54.912	0.106	-0.100
-66.407	75.943	0.108	-0.112
-65.392	283.122	0.054	-0.095
-64.378	609.159	-0.086	0.210
-63.363	-22.512	0.184	-0.109
-62.349	-200.000	0.071	0.326
-61.334	33.233	-1.086	-0.925
-60.319	67.840	0.640	0.642
-59.305	-200.000	-0.195	-1.048
-58.290	453.513	0.621	1.350
-57.276	666.127	0.650	1.648
-56.261	-200.000	109.970	605.332
-55.246	503.618	1504.392	3414.669
-54.232	178.198	2683.544	3842.797
-53.217	109.500	2150.453	2527.726
-52.203	40.385	1599.314	1412.429
-51.188	32.936	1339.947	1138.617
-50.173	29.787	1299.721	1085.933
-49.159	53.328	1355.437	1274.416
-48.144	53.571	1370.807	1290.271
-47.130	32.806	1324.891	1124.870
-46.115	29.401	1307.408	1089.902
-45.100	29.327	1301.640	1084.618
-44.086	29.358	1299.230	1082.746
-43.071	29.048	1297.174	1079.172
-42.057	29.102	1295.201	1077.805
-41.042	29.239	1293.072	1076.792
-40.027	29.244	1291.835	1075.747
-39.013	29.186	1289.843	1073.711
-37.998	29.203	1288.004	1072.233
-36.984	29.296	1286.440	1071.430
-35.969	29.385	1284.654	1070.416
-34.954	29.299	1283.115	1068.591
-33.940	29.296	1282.316	1067.871
-32.925	29.289	1280.626	1066.378
-31.911	29.294	1279.385	1065.329
-30.896	29.389	1277.987	1064.670
-29.881	29.496	1276.317	1063.859
-28.867	29.402	1274.530	1061.785
-27.852	29.447	1273.351	1061.017
-26.838	29.431	1271.864	1059.647
-25.823	29.421	1270.550	1058.451
-24.809	29.357	1269.258	1056.968
-23.794	29.441	1268.053	1056.404
-22.779	29.346	1267.377	1055.254
-21.765	29.529	1265.335	1054.558
-20.750	29.366	1264.754	1053.101
-19.736	29.363	1262.779	1051.398
-18.721	29.184	1261.881	1049.589
-17.706	29.290	1260.722	1049.187
-16.692	29.230	1259.603	1047.869
-15.677	29.224	1258.645	1046.997
-14.663	29.259	1257.641	1046.322
-13.648	29.286	1256.527	1045.507
-12.633	29.258	1255.445	1044.407
-11.619	29.245	1254.659	1043.634
-10.604	29.313	1253.780	1043.249
-9.590	29.212	1252.724	1041.755
-8.575	29.269	1251.599	1041.103
-7.560	29.258	1250.830	1040.357
-6.546	29.296	1250.037	1039.872
-5.531	29.283	1249.367	1039.199
-4.517	29.337	1247.914	1038.255
-3.502	29.223	1247.418	1037.158
-2.487	29.194	1246.876	1036.504
-1.473	29.308	1242.260	1033.263
-0.458	27.656	1227.234	1011.570
0.556	25.662	1209.542	973.158
1.571	21.589	1214.676	955.033
2.586	20.590	1229.344	960.961
3.600	20.313	1217.869	950.391
4.615	15.637	1147.523	871.230
5.629	7.636	1074.285	776.583
6.644	4.106	1055.146	745.714
7.659	3.732	1052.243	741.802
8.673	3.583	1051.263	740.332
9.688	3.510	1050.251	739.201
10.702	4.015	1048.438	740.273
11.717	9.052	1055.159	769.143
12.731	17.505	1067.033	818.538
13.746	22.434	1073.189	846.957
14.761	23.337	1073.990	851.860
15.775	22.791	1072.188	847.734
16.790	21.922	1070.776	842.374
17.804	21.510	1069.242	839.114
18.819	21.276	1068.541	837.372
19.834	21.357	1068.429	837.596
20.848	21.363	1067.654	836.945
21.863	21.247	1067.043	835.837
22.877	21.136	1066.955	835.163
23.892	21.012	1065.490	833.347
24.907	20.879	1065.358	832.536
25.921	20.814	1063.842	830.968
26.936	20.829	1062.233	829.711
27.950	20.819	1060.721	828.406
28.965	20.938	1059.226	827.734
29.980	21.140	1058.186	827.805
30.994	21.150	1057.470	827.216
32.009	21.203	1056.558	826.683
33.023	21.239	1055.543	825.987
34.038	21.008	1053.979	823.597
35.053	20.986	1053.255	822.856
36.067	20.838	1052.765	821.703
37.082	20.960	1051.913	821.536
38.096	21.008	1051.586	821.435
39.111	21.106	1050.755	821.176
40.126	20.956	1049.132	819.131
41.140	20.480	1047.781	815.769
42.155	20.389	1046.248	814.077
43.169	20.290	1045.577	813.018
44.184	20.217	1044.716	811.933
45.199	20.294	1043.968	811.643
46.213	20.622	1043.034	812.378
47.228	20.920	1042.643	813.392
48.242	21.069	1041.975	813.495
49.257	20.856	1040.947	811.627
50.271	21.177	1040.095	812.385
51.286	21.198	1039.939	812.290
52.301	21.182	1038.549	811.058
53.315	21.029	1037.913	809.775
54.330	20.815	1036.393	807.526
55.344	20.679	1035.718	806.302
56.359	20.717	1034.858	805.733
57.374	20.689	1033.898	804.788
58.388	20.416	1032.926	802.699
59.403	20.337	1031.953	801.503
60.417	20.378	1031.702	801.430
61.432	20.349	1030.777	800.507
62.447	20.342	1029.809	799.650
63.461	20.268	1029.202	798.769
64.476	20.231	1028.111	797.682
65.490	20.130	1027.651	796.787
66.505	20.201	1026.479	796.136
67.520	20.262	1026.487	796.352
68.534	20.133	1025.195	794.685
69.549	20.073	1024.632	793.904
70.563	19.787	1023.865	791.930
71.578	19.800	1022.548	790.901
72.593	19.672	1021.450	789.397
73.607	19.663	1021.288	789.164
74.622	19.720	1020.487	788.734
75.636	19.902	1019.884	789.028
76.651	19.966	1019.255	788.765
77.666	19.905	1018.972	788.195
78.680	19.985	1017.692	787.501
79.695	20.014	1017.601	787.494
80.709	20.213	1017.424	788.190
81.724	20.307	1016.785	788.051
82.739	20.439	1016.210	788.136
83.753	20.893	1016.033	789.986
84.768	21.370	1015.275	791.489
85.782	21.553	1014.816	791.888
86.797	21.497	1013.485	790.527
87.812	21.193	1012.811	788.556
88.826	21.249	1011.621	787.817
89.841	21.408	1010.852	787.863
90.855	21.456	1009.828	787.212
91.870	21.490	1009.229	786.827
92.884	21.288	1008.521	785.298
93.899	21.272	1007.565	784.412
94.914	21.385	1006.546	784.056
95.928	21.333	1005.801	783.172
96.943	21.158	1004.694	781.457
97.957	21.012	1003.880	780.102
98.972	21.086	1003.293	779.910
99.987	21.224	1002.262	779.653
101.001	21.149	1000.651	778.000
102.016	21.119	1000.103	777.369
103.030	21.172	999.437	777.020
104.045	21.205	999.228	776.934
105.060	21.093	997.955	775.378
106.074	20.747	996.581	772.706
107.089	20.408	995.499	770.297
108.103	20.312	994.622	769.125
109.118	20.244	992.757	767.311
110.133	20.062	992.305	766.089
111.147	19.957	991.816	765.180
112.162	20.167	990.659	765.149
113.176	20.266	990.184	765.150
114.191	20.480	989.632	765.599
115.206	20.346	988.957	764.419
116.220	20.285	987.883	763.255
117.235	20.115	987.007	761.764
118.249	20.085	986.281	761.003
119.264	19.984	985.483	759.874
120.279	19.840	984.713	758.584
121.293	19.849	983.420	757.559
122.308	19.817	982.303	756.491
123.322	19.611	981.485	754.894
124.337	19.690	980.734	754.594
125.352	19.668	979.785	753.701
126.366	19.798	978.618	753.303
127.381	19.864	977.512	752.675
128.395	19.837	977.252	752.289
129.410	19.978	975.992	751.864
130.424	20.016	975.640	751.692
131.439	20.300	975.024	752.382
132.454	20.370	974.162	751.956
133.468	20.282	973.897	751.304
134.483	20.327	972.455	750.317
135.497	20.420	971.775	750.131
136.512	20.445	971.221	749.744
137.527	20.363	970.399	748.690
138.541	20.416	969.528	748.177
139.556	20.639	968.855	748.553
140.570	20.659	968.747	748.490
141.585	21.028	967.992	749.426
142.600	21.082	967.076	748.880
143.614	21.149	966.417	748.593
144.629	21.312	965.419	748.452
145.643	21.123	964.394	746.781
146.658	20.851	963.083	744.540
147.673	20.845	961.620	743.315
148.687	20.612	960.465	741.364
149.702	20.392	960.167	740.131
150.716	20.452	958.948	739.381
151.731	20.476	958.372	738.975
152.746	20.551	957.763	738.758
153.760	20.702	957.200	738.901
154.775	20.797	956.641	738.805
155.789	20.906	955.632	738.423
156.804	20.835	955.321	737.816
157.819	20.938	954.821	737.799
158.833	21.175	954.195	738.254
159.848	21.410	953.427	738.588
160.862	20.974	952.524	735.983
161.877	20.629	950.863	733.181
162.892	20.387	949.526	731.065
163.906	20.312	948.623	729.991
164.921	20.481	947.330	729.639
165.935	20.508	946.900	729.356
166.950	20.602	946.513	729.389
167.964	20.575	945.249	728.237
168.979	20.501	944.033	726.925
169.994	20.378	943.367	725.838
171.008	20.689	942.866	726.687
172.023	20.910	942.860	727.541
173.037	21.172	941.875	727.806
174.052	20.885	941.007	725.875
175.067	20.461	939.941	723.225
176.081	20.246	939.246	721.731
177.096	20.210	938.663	721.069
178.110	20.262	937.936	720.663
179.125	20.287	937.462	720.339
180.140	20.540	937.406	721.282
181.154	20.674	937.309	721.700
182.169	20.963	936.685	722.353
183.183	20.863	936.441	721.690
184.198	20.975	935.266	721.181
185.213	20.997	934.810	720.859
186.227	20.956	934.243	720.188
187.242	21.121	933.506	720.235
188.256	21.229	932.780	720.057
189.271	21.244	932.098	719.531
190.286	20.866	930.992	717.058
191.300	20.167	929.779	713.186
192.315	20.048	928.833	711.907
193.329	20.141	928.491	711.964
194.344	20.411	928.029	712.655
195.359	20.486	927.477	712.475
196.373	20.661	927.097	712.838
197.388	20.899	927.148	713.788
198.402	21.120	926.681	714.269
199.417	21.390	926.030	714.809
200.432	21.640	925.614	715.446
201.446	21.655	925.418	715.291
202.461	21.809	925.108	715.619
203.475	21.586	923.665	713.531
204.490	21.157	922.829	711.074
205.504	20.843	922.357	709.369
206.519	21.017	920.739	708.768
207.534	20.867	920.401	707.839
208.548	21.025	919.594	707.795
209.563	20.994	919.415	707.470
210.577	21.055	919.164	707.460
211.592	21.549	918.229	708.678
212.607	21.465	917.849	707.985
213.621	21.337	917.071	706.802
214.636	21.410	916.026	706.229
215.650	21.395	915.434	705.651
216.665	21.447	914.781	705.294
217.680	21.554	914.421	705.387
218.694	21.555	914.172	705.135
219.709	21.441	913.236	703.892
220.723	21.364	912.533	702.980
221.738	21.253	911.731	701.853
222.753	21.363	910.862	701.564
223.767	21.365	910.804	701.465
224.782	21.630	910.326	702.096
225.796	21.766	910.018	702.340
226.811	21.570	908.979	700.692
227.826	21.213	908.353	698.718
228.840	21.138	907.164	697.446
229.855	21.124	906.722	696.987
230.869	21.162	905.732	696.317
231.884	21.111	905.509	695.879
232.899	20.963	904.334	694.324
233.913	20.816	903.525	693.059
234.928	20.724	902.609	691.927
235.942	20.626	902.508	691.401
236.957	20.780	901.659	691.300
237.972	20.563	901.536	690.282
238.986	20.722	900.496	690.056
240.001	20.742	900.093	689.764
241.015	20.976	899.180	689.932
242.030	21.044	898.935	689.951
243.045	21.109	898.725	689.984
244.059	21.124	898.253	689.620
245.074	21.337	897.504	689.826
246.088	21.233	897.498	689.349
247.103	21.611	896.692	690.161
248.117	21.809	896.665	690.860
249.132	22.185	896.279	691.980
250.147	22.460	895.869	692.686
251.161	22.438	895.647	692.365
252.176	22.397	895.176	691.777
253.190	22.781	894.037	692.343
254.205	22.677	893.750	691.654
255.220	22.601	892.705	690.486
256.234	22.322	892.115	688.874
257.249	22.366	891.823	688.762
258.263	22.237	890.914	687.493
259.278	22.410	890.060	687.451
260.293	22.485	889.346	687.131
261.307	22.642	888.749	687.219
262.322	22.554	888.457	686.591
263.336	22.516	888.004	686.033
264.351	22.503	887.183	685.287
265.366	22.586	886.307	684.872
266.380	22.591	885.679	684.347
267.395	22.340	885.444	683.129
268.409	22.223	884.503	681.889
269.424	22.273	883.659	681.372
270.439	22.250	882.579	680.388
271.453	21.963	882.138	678.880
272.468	22.073	881.492	678.746
273.482	22.119	880.938	678.439
274.497	22.103	880.581	678.041
275.512	22.152	879.630	677.438
276.526	22.074	879.487	676.967
277.541	22.173	879.536	677.328
278.555	22.386	879.007	677.680
279.570	22.655	878.282	678.093
280.585	22.454	877.671	676.789
281.599	22.398	876.293	675.455
282.614	22.139	875.771	673.998
283.628	22.206	874.664	673.341
284.643	22.095	874.667	672.862
285.657	22.122	873.835	672.265
286.672	22.037	873.629	671.720
287.687	22.299	872.628	671.892
288.701	22.211	872.114	671.102
289.716	22.211	871.613	670.658
290.730	22.320	870.976	670.523
291.745	22.194	870.684	669.758
292.760	22.440	870.170	670.242
293.774	22.905	869.483	671.421
294.789	22.682	868.822	670.005
295.803	22.239	868.236	667.809
296.818	22.073	867.551	666.594
297.833	22.147	866.593	666.079
298.847	22.248	865.935	665.898
299.862	22.209	865.504	665.358
300.876	22.461	865.547	666.289
301.891	22.690	864.883	666.581
302.906	22.772	864.624	666.632
303.920	23.038	864.104	667.177
304.935	23.071	863.982	667.151
305.949	23.030	862.406	665.719
306.964	22.537	861.817	663.351
307.979	22.638	861.362	663.320
308.993	22.556	861.165	662.801
310.008	22.831	860.290	663.102
311.022	22.672	859.825	662.088
312.037	22.389	859.033	660.360
313.052	22.245	857.990	658.958
314.066	21.963	857.377	657.375
315.081	22.007	856.477	656.791
316.095	22.134	856.078	656.902
317.110	22.058	855.601	656.194
318.125	22.032	855.035	655.603
319.139	22.003	854.518	655.042
320.154	21.970	854.254	654.658
321.168	22.090	853.787	654.691
322.183	22.228	853.053	654.583
323.197	22.338	852.815	654.751
324.212	22.214	852.073	653.661
325.227	22.145	851.352	652.797
326.241	22.106	851.015	652.336
327.256	21.975	850.716	651.562
328.270	22.131	849.690	651.296
329.285	21.896	849.197	649.991
330.300	22.011	848.559	649.871
331.314	22.102	848.459	650.071
332.329	22.347	848.418	650.891
333.343	22.481	847.634	650.725
334.358	22.513	847.207	650.459
335.373	22.573	846.978	650.445
336.387	22.778	846.523	650.793
337.402	22.817	846.486	650.853
338.416	22.993	846.485	651.443
339.431	23.184	846.346	651.982
340.446	23.352	845.672	652.023
341.460	23.351	845.415	651.765
342.475	23.316	845.153	651.378
343.489	23.490	844.822	651.703
344.504	23.614	844.414	651.787
345.519	23.672	844.216	651.787
346.533	23.590	842.752	650.300
347.548	23.115	842.028	647.945
348.562	22.849	841.475	646.486
349.577	22.715	840.896	645.497
350.592	22.556	840.164	644.294
351.606	22.393	839.465	643.108
352.621	22.495	838.709	642.842
353.635	22.551	838.467	642.806
354.650	22.736	837.484	642.670
355.665	22.951	836.649	642.753
356.679	23.022	836.191	642.602
357.694	22.976	835.751	642.039
358.708	22.856	835.134	641.072
359.723	22.686	834.805	640.149
360.738	22.965	833.957	640.452
361.752	23.090	833.639	640.605
362.767	23.320	833.157	641.008
363.781	23.577	833.061	641.809
364.796	23.591	832.578	641.431
365.810	23.710	832.475	641.724
366.825	23.677	832.184	641.323
367.840	23.611	831.366	640.400
368.854	23.312	830.959	638.949
369.869	23.370	830.206	638.523
370.883	23.303	829.795	637.910
371.898	23.688	829.234	638.808
372.913	23.771	829.057	638.912
373.927	23.343	828.298	636.734
374.942	23.398	827.588	636.329
375.956	23.543	827.860	637.000
376.971	23.805	827.130	637.325
377.986	23.838	827.129	637.386
379.000	23.884	826.464	636.979
380.015	23.886	825.642	636.297
381.029	23.750	824.857	635.150
382.044	23.905	824.363	635.266
383.059	23.939	824.038	635.081
384.073	23.697	823.277	633.577
385.088	23.323	822.380	631.497
386.102	23.182	821.696	630.413
387.117	23.187	820.835	629.716
388.132	23.192	819.940	628.989
389.146	23.319	819.791	629.273
390.161	23.678	819.869	630.551
391.175	23.838	819.152	630.512
392.190	23.406	818.651	628.540
393.205	23.223	817.696	627.102
394.219	23.007	817.735	626.311
395.234	22.968	816.792	625.395
396.248	22.981	816.359	625.054
397.263	22.959	815.852	624.532
398.278	22.804	815.504	623.663
399.292	22.736	815.233	623.160
400.307	22.802	814.463	622.751
401.321	22.985	813.827	622.854
402.336	23.119	813.649	623.136
403.350	23.311	813.766	623.845
404.365	23.656	813.134	624.518
405.380	23.926	813.015	625.322
406.394	24.007	812.634	625.259
407.409	24.245	812.133	625.653
408.423	24.143	812.153	625.254
409.438	24.198	811.862	625.167
410.453	24.198	811.016	624.462
411.467	24.222	810.453	624.058
412.482	24.371	810.364	624.455
413.496	24.555	809.603	624.455
414.511	24.345	809.285	623.420
415.526	24.267	808.986	622.863
416.540	24.118	808.353	621.801
417.555	24.054	807.788	621.089
418.569	24.157	807.523	621.190
419.584	24.153	807.101	620.794
420.599	24.060	806.687	620.099
421.613	163.319	1372.489	1797.102
422.628	142.070	1454.925	1797.208
