DTS Sentinel unit serial number:	SN413079Multiplexer serial number:	ORYXHardware model number:	OX4-SRSoftware version number:	ORYX F/W v4.00 Oryx Data Collector v3.7.2.0data status	okinstallation	princeton_trtdifferential loss correction	single-endedforward channel	channel 1reverse channel	N/Adate	2019/09/12time	16:04:11forward acquisition time	60.00reverse acquisition time	0.00gamma	496.2192k internal	0.2299k external	0.2299temperature offset calibration	1.0083default loss term (dB/km)	0.3790temperature slope calibration	1.0000multiplexer offset coefficient	1.0000multiplexer slope coefficient	1.0000fibre end	0.00T internal ref (°C)	38.80T ext. ref 1 (°C)	2.51T ext. ref 2 (°C)	31.75length (m)	temperature (°C)	Stokes	anti-Stokes-747.200	-39.565	0.134	0.072
-746.185	-44.967	-0.139	0.070
-745.171	762.744	-0.041	-0.115
-744.156	-105.531	0.362	0.084
-743.142	713.338	0.125	0.339
-742.127	-200.000	0.019	0.205
-741.112	194.745	-0.257	0.398
-740.098	-59.597	-0.266	0.116
-739.083	47.235	0.185	-0.176
-738.069	257.852	0.052	0.091
-737.054	-200.000	0.021	-0.381
-736.039	-200.000	-0.010	-0.184
-735.025	130.485	0.156	0.203
-734.010	800.000	-0.048	-0.195
-732.996	516.762	0.037	-0.088
-731.981	-9.311	-0.105	0.071
-730.966	-200.000	0.032	-0.345
-729.952	-200.000	0.035	-0.424
-728.937	800.000	0.064	0.245
-727.923	29.827	0.102	0.089
-726.908	65.567	-0.313	-0.323
-725.894	-79.642	-0.134	0.046
-724.879	454.323	-0.085	0.192
-723.864	-200.000	-0.007	-0.248
-722.850	-200.000	-0.048	0.257
-721.835	753.375	-0.024	-0.066
-720.821	-111.120	-0.166	-0.035
-719.806	800.000	0.012	-0.046
-718.791	-200.000	-0.004	-0.075
-717.777	4.057	0.040	-0.030
-716.762	-73.810	-0.226	-0.084
-715.748	-200.000	0.001	-0.240
-714.733	-200.000	-0.069	-0.433
-713.718	34.969	-0.197	-0.176
-712.704	149.179	0.066	0.091
-711.689	-180.189	-0.177	-0.004
-710.675	-48.760	-0.175	-0.085
-709.660	94.305	-0.105	-0.122
-708.645	198.835	0.068	0.106
-707.631	800.000	-0.033	0.101
-706.616	167.733	0.338	-0.489
-705.602	-200.000	-0.005	0.070
-704.587	-63.225	0.455	-0.191
-703.572	465.946	0.069	-0.157
-702.558	-117.773	-0.192	0.035
-701.543	-200.000	-0.028	-0.200
-700.529	-96.702	-0.130	0.035
-699.514	-75.366	-0.131	0.047
-698.499	-200.000	-0.005	0.113
-697.485	800.000	-0.117	-0.485
-696.470	-2.354	0.116	-0.083
-695.456	-127.099	0.209	0.031
-694.441	141.004	-0.219	-0.295
-693.426	800.000	-0.049	0.158
-692.412	244.769	-0.111	0.190
-691.397	91.721	-0.144	-0.165
-690.383	39.403	0.123	0.112
-689.368	-172.588	-0.123	-0.004
-688.354	-72.541	0.523	0.197
-687.339	-200.000	-0.024	0.167
-686.324	-47.872	0.220	0.109
-685.310	-104.370	-0.275	0.065
-684.295	-145.054	0.135	0.012
-683.281	303.781	0.063	0.120
-682.266	-200.000	0.042	0.218
-681.251	-130.360	-0.342	0.047
-680.237	-24.365	-0.094	-0.057
-679.222	-129.660	0.204	0.029
-678.208	75.757	-0.129	-0.139
-677.193	-200.000	0.015	-0.234
-676.178	110.590	0.045	-0.055
-675.164	386.447	-0.061	-0.129
-674.149	-100.349	-0.162	0.041
-673.135	800.000	-0.023	0.065
-672.120	-112.935	0.203	0.041
-671.105	169.352	0.082	-0.119
-670.091	-200.000	0.083	-0.547
-669.076	-150.135	-0.345	0.027
-668.062	638.702	-0.043	0.111
-667.047	131.771	0.071	-0.093
-666.032	-200.000	0.021	-0.258
-665.018	26.632	-0.144	-0.122
-664.003	-200.000	-0.036	-0.179
-662.989	-14.911	0.026	0.017
-661.974	-79.283	0.150	-0.052
-660.959	1.765	-0.110	-0.081
-659.945	-37.160	0.463	-0.252
-658.930	504.897	-0.132	-0.312
-657.916	-143.465	-0.266	-0.026
-656.901	-158.493	0.493	0.029
-655.886	717.188	-0.098	0.266
-654.872	-200.000	-0.004	-0.132
-653.857	654.380	-0.085	-0.222
-652.843	-60.277	-0.177	-0.077
-651.828	-100.045	-0.177	0.045
-650.814	71.669	-0.064	-0.067
-649.799	-200.000	-0.014	-0.252
-648.784	149.100	-0.205	0.282
-647.770	176.657	0.131	-0.193
-646.755	-76.826	-0.214	-0.076
-645.741	248.771	-0.173	-0.297
-644.726	285.828	-0.222	-0.407
-643.711	-142.932	0.176	-0.017
-642.697	800.000	0.063	-0.200
-641.682	212.532	0.124	0.199
-640.668	-88.214	-0.154	-0.047
-639.653	305.759	-0.146	-0.276
-638.638	-200.000	-0.024	-0.523
-637.624	-200.000	0.075	0.466
-636.609	800.000	0.033	0.104
-635.595	-114.527	-0.308	-0.060
-634.580	-161.102	0.188	0.010
-633.565	-162.202	0.093	-0.005
-632.551	-123.958	0.188	0.030
-631.536	-55.461	-0.101	-0.046
-630.522	21.239	0.029	-0.024
-629.507	-138.894	0.253	0.028
-628.492	800.000	-0.043	0.165
-627.478	-62.796	0.316	0.133
-626.463	-11.081	-0.078	0.052
-625.449	-35.745	0.128	-0.070
-624.434	-79.305	0.102	-0.035
-623.419	44.297	0.248	-0.231
-622.405	-79.343	-0.129	-0.044
-621.390	800.000	-0.074	0.267
-620.376	-51.468	-0.066	0.031
-619.361	800.000	-0.091	0.265
-618.346	-44.945	0.089	0.045
-617.332	800.000	-0.123	-0.410
-616.317	81.323	-0.416	0.457
-615.303	-200.000	-0.060	-0.452
-614.288	-200.000	-0.010	0.204
-613.273	800.000	-0.030	0.120
-612.259	-98.049	-0.124	-0.032
-611.244	-200.000	-0.079	0.350
-610.230	-200.000	0.003	0.085
-609.215	232.515	-0.035	-0.058
-608.201	119.829	-0.147	0.185
-607.186	-4.832	0.056	-0.039
-606.171	-58.788	-0.370	-0.162
-605.157	140.028	-0.155	0.208
-604.142	-77.659	0.267	-0.094
-603.128	-101.669	-0.033	0.008
-602.113	102.041	-0.175	0.207
-601.098	377.480	-0.092	0.192
-600.084	-142.034	-0.453	0.046
-599.069	-16.121	0.214	0.138
-598.055	-24.102	-0.164	0.100
-597.040	-117.557	0.195	0.036
-596.025	197.675	-0.099	-0.154
-595.011	22.152	0.068	-0.057
-593.996	-200.000	-0.019	-0.265
-592.982	-85.196	0.179	0.057
-591.967	-18.304	-0.070	-0.044
-590.952	-158.445	0.139	-0.008
-589.938	102.445	-0.164	0.194
-588.923	800.000	0.046	0.152
-587.909	-124.516	0.027	0.004
-586.894	-77.987	0.196	-0.069
-585.879	-8.847	0.291	-0.198
-584.865	-88.747	0.078	-0.024
-583.850	800.000	-0.085	0.336
-582.836	-89.156	-0.193	-0.058
-581.821	16.587	0.248	0.199
-580.806	8.362	0.238	-0.181
-579.792	-200.000	0.015	0.117
-578.777	9.261	0.233	-0.179
-577.763	485.964	0.147	0.340
-576.748	-200.000	-0.011	-0.183
-575.733	-32.400	0.331	0.187
-574.719	350.656	0.024	-0.049
-573.704	75.298	0.124	-0.133
-572.690	312.543	0.242	0.461
-571.675	-143.902	-0.405	-0.039
-570.661	95.244	-0.034	0.039
-569.646	-50.547	0.175	0.084
-568.631	-89.528	0.031	-0.009
-567.617	-200.000	0.004	0.101
-566.602	-200.000	0.003	-0.092
-565.588	-101.170	0.255	-0.063
-564.573	-35.760	-0.202	-0.111
-563.558	-13.251	-0.254	0.167
-562.544	800.000	-0.094	-0.348
-561.529	-200.000	0.100	0.000
-560.515	800.000	-0.044	0.136
-559.500	-3.539	0.165	0.116
-558.485	-200.000	-0.035	-0.197
-557.471	-200.000	0.018	-0.209
-556.456	-66.464	0.052	-0.021
-555.442	175.699	-0.077	-0.113
-554.427	5.542	-0.334	-0.250
-553.412	639.164	0.067	-0.172
-552.398	800.000	0.040	-0.141
-551.383	45.847	0.207	-0.194
-550.369	-200.000	0.021	0.197
-549.354	174.465	0.104	-0.153
-548.339	129.191	0.176	-0.228
-547.325	-40.391	0.467	-0.246
-546.310	84.431	0.200	-0.221
-545.296	-141.054	-0.275	0.029
-544.281	37.801	-0.132	-0.119
-543.266	235.121	-0.237	-0.396
-542.252	257.118	0.121	0.210
-541.237	64.347	0.193	0.196
-540.223	371.891	0.150	0.309
-539.208	65.546	0.093	0.095
-538.193	-34.057	0.108	0.060
-537.179	-21.177	-0.092	0.057
-536.164	-23.743	-0.222	-0.135
-535.150	6.648	-0.097	0.073
-534.135	140.788	0.114	0.152
-533.121	-200.000	0.023	-0.122
-532.106	-200.000	0.000	0.149
-531.091	-28.713	0.241	-0.140
-530.077	-10.005	-0.311	0.209
-529.062	-57.528	0.360	-0.160
-528.048	-90.503	0.160	0.047
-527.033	352.052	-0.113	0.227
-526.018	-106.665	-0.280	0.063
-525.004	800.000	-0.064	-0.218
-523.989	56.664	-0.144	0.142
-522.975	-34.825	0.261	0.144
-521.960	-55.850	0.149	0.067
-520.945	-85.374	0.105	0.033
-519.931	-142.052	-0.062	0.006
-518.916	-77.924	0.235	-0.082
-517.902	-54.699	-0.055	0.025
-516.887	291.716	-0.131	-0.241
-515.872	-188.816	-0.423	0.005
-514.858	96.932	-0.069	0.080
-513.843	-60.393	0.056	0.024
-512.829	800.000	-0.018	-0.055
-511.814	800.000	0.055	0.155
-510.799	800.000	-0.081	-0.257
-509.785	-200.000	-0.020	0.144
-508.770	121.848	-0.152	-0.191
-507.756	128.522	-0.265	-0.342
-506.741	800.000	0.061	-0.218
-505.726	285.771	-0.084	-0.153
-504.712	-84.546	0.379	-0.121
-503.697	-200.000	0.035	-0.235
-502.683	-103.629	-0.315	-0.075
-501.668	190.217	0.114	-0.173
-500.653	252.916	0.105	0.180
-499.639	-26.656	0.132	0.078
-498.624	420.827	-0.206	0.446
-497.610	-49.634	-0.165	-0.080
-496.595	285.443	-0.047	-0.086
-495.581	-35.481	-0.253	-0.139
-494.566	-53.062	0.151	0.070
-493.551	594.598	-0.077	-0.193
-492.537	800.000	-0.054	-0.184
-491.522	310.837	-0.092	-0.174
-490.508	-200.000	0.025	-0.179
-489.493	157.638	-0.287	0.402
-488.478	40.178	0.242	-0.220
-487.464	-90.796	0.068	-0.020
-486.449	-119.752	-0.178	-0.031
-485.435	304.099	-0.061	-0.115
-484.420	-61.312	0.183	0.078
-483.405	-30.832	-0.361	0.206
-482.391	292.328	0.112	0.206
-481.376	-98.786	0.187	0.048
-480.362	32.830	0.121	0.106
-479.347	-200.000	0.000	0.156
-478.332	-159.255	-0.336	0.019
-477.318	483.373	0.086	-0.196
-476.303	-109.019	-0.089	0.019
-475.289	-182.743	-0.294	0.005
-474.274	-21.613	0.267	-0.164
-473.259	800.000	-0.071	-0.198
-472.245	595.556	0.019	-0.048
-471.230	-200.000	0.015	-0.100
-470.216	-143.980	-0.266	0.025
-469.201	-20.787	0.088	-0.055
-468.186	-133.736	0.147	0.018
-467.172	176.171	-0.062	-0.091
-466.157	-200.000	-0.046	0.632
-465.143	543.410	0.180	-0.435
-464.128	-11.969	0.357	-0.236
-463.113	-77.252	-0.300	-0.105
-462.099	-179.615	-0.340	0.007
-461.084	66.570	0.303	-0.311
-460.070	-104.715	0.464	-0.108
-459.055	323.138	-0.163	-0.313
-458.040	800.000	0.119	0.365
-457.026	800.000	0.028	-0.085
-456.011	-156.176	-0.392	-0.025
-454.997	169.347	0.083	0.120
-453.982	-62.059	-0.162	-0.068
-452.968	344.558	-0.038	-0.076
-451.953	-200.000	0.041	0.275
-450.938	-12.948	0.394	0.259
-449.924	-68.175	-0.365	-0.144
-448.909	461.955	-0.014	-0.030
-447.895	-200.000	-0.031	-0.196
-446.880	26.495	-0.206	0.174
-445.865	-2.650	0.189	-0.133
-444.851	-138.463	0.249	-0.028
-443.836	50.314	0.105	-0.100
-442.822	-151.960	-0.453	-0.033
-441.807	-115.559	0.240	0.045
-440.792	-92.623	0.143	-0.040
-439.778	-200.000	0.019	0.231
-438.763	-106.960	0.230	0.051
-437.749	1.781	-0.241	-0.175
-436.734	-200.000	0.024	0.108
-435.719	89.735	-0.132	0.149
-434.705	239.626	0.164	-0.275
-433.690	32.074	-0.168	-0.146
-432.676	-6.458	0.184	-0.126
-431.661	27.044	0.189	-0.160
-430.646	-83.600	-0.365	-0.118
-429.632	-25.826	-0.246	-0.146
-428.617	-49.515	0.126	0.061
-427.603	-13.911	0.121	0.079
-426.588	-92.653	0.272	-0.077
-425.573	153.719	0.098	0.135
-424.559	-200.000	0.019	-0.160
-423.544	88.110	0.136	-0.152
-422.530	215.720	0.130	-0.208
-421.515	7.938	-0.398	0.301
-420.500	38.543	0.094	-0.084
-419.486	-114.324	-0.233	-0.045
-418.471	10.932	0.186	0.143
-417.457	112.642	0.013	-0.016
-416.442	523.415	-0.125	-0.296
-415.428	48.174	0.070	0.066
-414.413	38.090	0.017	0.015
-413.398	-185.108	0.393	-0.006
-412.384	-30.962	0.189	0.108
-411.369	800.000	-0.143	-0.401
-410.355	212.475	0.249	-0.396
-409.340	40.368	-0.087	0.079
-408.325	-200.000	-0.008	-0.183
-407.311	-101.914	0.242	0.059
-406.296	-200.000	0.003	0.106
-405.282	-161.527	-0.234	-0.012
-404.267	159.535	-0.378	-0.529
-403.252	-200.000	0.014	-0.122
-402.238	-9.187	0.151	-0.102
-401.223	-179.628	-0.470	0.010
-400.209	-116.704	0.034	0.006
-399.194	360.230	0.146	-0.295
-398.179	-85.966	0.060	0.019
-397.165	201.484	0.209	0.323
-396.150	351.842	-0.072	0.144
-395.136	-200.000	0.061	0.419
-394.121	84.450	0.186	0.205
-393.106	40.111	0.147	0.133
-392.092	-200.000	0.016	0.085
-391.077	-14.546	-0.168	0.109
-390.063	115.969	0.322	-0.397
-389.048	-200.000	-0.027	0.261
-388.033	800.000	0.163	0.596
-387.019	-50.310	-0.237	0.113
-386.004	-98.194	-0.353	0.091
-384.990	800.000	0.090	0.268
-383.975	-200.000	-0.033	-0.213
-382.960	126.392	-0.164	-0.208
-381.946	-57.456	0.256	0.113
-380.931	-64.844	0.211	-0.086
-379.917	-200.000	-0.009	0.117
-378.902	-47.175	0.073	-0.036
-377.888	-146.516	0.204	0.018
-376.873	800.000	-0.051	-0.203
-375.858	-200.000	-0.041	0.238
-374.844	-57.988	-0.514	0.226
-373.829	-84.131	-0.184	0.059
-372.815	-170.024	0.065	-0.002
-371.800	-34.638	0.225	0.124
-370.785	-32.096	0.233	-0.131
-369.771	-200.000	0.003	-0.187
-368.756	4.355	-0.199	-0.147
-367.742	-135.539	-0.369	0.044
-366.727	-17.834	0.272	0.172
-365.712	-62.250	0.127	-0.053
-364.698	284.278	-0.092	-0.166
-363.683	66.903	-0.241	-0.246
-362.669	149.315	0.193	-0.262
-361.654	-94.469	-0.298	-0.082
-360.639	-22.389	-0.288	-0.175
-359.625	-10.899	-0.217	-0.144
-358.610	800.000	0.042	-0.133
-357.596	-4.358	-0.193	0.134
-356.581	99.239	0.162	0.188
-355.566	113.364	0.291	0.355
-354.552	-81.805	-0.286	0.094
-353.537	27.645	0.066	0.056
-352.523	-85.335	0.333	-0.104
-351.508	-79.759	0.151	0.051
-350.493	-200.000	0.006	-0.147
-349.479	87.456	-0.186	0.206
-348.464	42.477	0.256	-0.234
-347.450	75.717	0.223	-0.237
-346.435	301.632	-0.034	0.064
-345.420	800.000	-0.051	0.218
-344.406	165.376	0.045	-0.064
-343.391	-200.000	0.045	-0.346
-342.377	11.533	0.134	0.103
-341.362	47.532	-0.016	0.015
-340.348	150.458	-0.065	-0.089
-339.333	6.050	-0.262	0.195
-338.318	800.000	-0.039	-0.132
-337.304	-71.336	-0.194	0.073
-336.289	239.056	-0.128	0.214
-335.275	-122.999	-0.106	-0.017
-334.260	244.838	-0.131	0.221
-333.245	-155.070	-0.111	0.007
-332.231	150.792	-0.206	0.281
-331.216	-133.314	-0.205	0.026
-330.202	-134.756	0.377	-0.046
-329.187	-200.000	-0.045	0.419
-328.172	91.360	0.020	-0.022
-327.158	327.065	0.168	-0.323
-326.143	-200.000	0.006	0.306
-325.129	800.000	-0.015	-0.063
-324.114	234.776	-0.155	0.257
-323.099	800.000	0.061	0.200
-322.085	125.866	-0.047	0.059
-321.070	-200.000	-0.003	-0.164
-320.056	800.000	0.040	0.131
-319.041	37.240	0.192	-0.170
-318.026	-15.436	0.244	-0.157
-317.012	-200.000	0.001	0.284
-315.997	-53.478	0.406	-0.187
-314.983	185.491	-0.143	-0.212
-313.968	-7.904	0.323	-0.219
-312.953	168.409	-0.070	0.100
-311.939	-14.658	0.116	0.075
-310.924	49.605	-0.235	-0.222
-309.910	50.633	-0.173	-0.164
-308.895	67.520	0.135	0.138
-307.880	319.982	0.121	0.231
-306.866	800.000	-0.043	0.161
-305.851	-128.366	0.025	-0.004
-304.837	-200.000	-0.001	0.047
-303.822	194.746	-0.090	0.138
-302.807	32.236	0.038	0.033
-301.793	270.378	0.068	0.120
-300.778	31.478	0.226	-0.195
-299.764	603.949	-0.014	0.035
-298.749	800.000	-0.071	-0.254
-297.735	50.108	0.053	-0.050
-296.720	373.319	-0.067	-0.137
-295.705	358.018	0.102	-0.204
-294.691	103.278	-0.178	-0.209
-293.676	-141.335	0.475	-0.048
-292.662	-38.098	-0.177	-0.094
-291.647	790.725	0.084	-0.232
-290.632	96.122	0.076	0.088
-289.618	-127.605	-0.092	-0.013
-288.603	114.130	-0.064	0.078
-287.589	519.672	0.069	0.163
-286.574	-200.000	-0.010	-0.129
-285.559	-200.000	-0.009	-0.278
-284.545	-16.175	-0.238	0.152
-283.530	108.463	0.172	-0.206
-282.516	-200.000	0.013	0.301
-281.501	125.109	-0.207	-0.262
-280.486	-200.000	0.006	-0.192
-279.472	-200.000	-0.043	0.426
-278.457	68.488	0.226	-0.232
-277.443	165.149	-0.275	-0.389
-276.428	-184.579	-0.102	0.002
-275.413	212.876	0.130	-0.206
-274.399	415.403	0.162	0.347
-273.384	-49.261	0.225	0.108
-272.370	-86.823	0.232	-0.071
-271.355	70.036	-0.184	0.190
-270.340	24.165	0.132	-0.110
-269.326	-3.614	-0.272	0.189
-268.311	173.831	0.165	0.239
-267.297	130.163	0.116	-0.148
-266.282	340.472	0.069	0.134
-265.267	800.000	0.031	-0.091
-264.253	141.348	-0.048	0.064
-263.238	59.369	-0.179	0.176
-262.224	-31.428	-0.214	0.120
-261.209	-200.000	0.011	0.106
-260.195	325.065	0.104	-0.199
-259.180	-49.935	0.222	-0.105
-258.165	17.661	-0.229	0.182
-257.151	-44.732	0.281	0.140
-256.136	255.320	0.108	0.185
-255.122	-7.434	-0.161	0.109
-254.107	-114.350	-0.197	-0.038
-253.092	317.489	-0.071	-0.134
-252.078	-200.000	-0.031	0.206
-251.063	281.286	-0.223	0.400
-250.049	-105.049	-0.326	0.075
-249.034	800.000	-0.041	-0.133
-248.019	-46.952	0.300	-0.146
-247.005	90.303	-0.199	0.222
-245.990	304.068	-0.134	0.249
-244.976	-44.082	0.258	0.130
-243.961	-1.529	0.379	0.268
-242.946	800.000	-0.016	-0.052
-241.932	-49.508	0.149	0.071
-240.917	-162.316	0.353	0.018
-239.903	-200.000	0.058	0.422
-238.888	7.433	-0.324	0.243
-237.873	8.544	0.406	0.306
-236.859	-10.881	-0.204	-0.135
-235.844	-200.000	-0.002	0.063
-234.830	42.951	0.100	0.091
-233.815	57.912	-0.293	-0.287
-232.800	-200.000	-0.020	-0.264
-231.786	-93.661	0.194	0.054
-230.771	-50.393	0.359	-0.169
-229.757	-149.212	0.070	-0.006
-228.742	169.615	0.102	-0.146
-227.727	-200.000	0.006	0.274
-226.713	120.579	-0.051	0.063
-225.698	-200.000	-0.041	-0.244
-224.684	105.958	-0.171	-0.202
-223.669	800.000	-0.040	0.170
-222.655	223.084	-0.081	0.130
-221.640	-125.754	0.259	-0.039
-220.625	-81.167	-0.344	0.114
-219.611	-20.942	-0.157	0.096
-218.596	3.029	0.033	0.024
-217.582	-9.631	-0.091	0.061
-216.567	-94.278	0.058	0.016
-215.552	800.000	0.053	-0.214
-214.538	327.213	-0.107	-0.204
-213.523	592.038	0.050	-0.123
-212.509	-182.724	-0.382	-0.007
-211.494	-106.109	-0.323	-0.073
-210.479	-107.608	0.259	0.057
-209.465	212.112	0.113	0.178
-208.450	-180.681	-0.235	0.005
-207.436	-31.947	-0.184	-0.103
-206.421	15.879	0.179	0.141
-205.406	-115.825	-0.201	-0.038
-204.392	-200.000	0.004	0.137
-203.377	-80.898	0.293	-0.097
-202.363	800.000	0.098	-0.415
-201.348	-180.842	-0.192	0.004
-200.333	105.498	-0.153	0.181
-199.319	69.462	0.181	-0.186
-198.304	-200.000	-0.041	-0.313
-197.290	-200.000	-0.000	0.205
-196.275	199.666	-0.054	-0.082
-195.260	-55.268	-0.247	-0.111
-194.246	572.451	0.088	-0.213
-193.231	62.190	0.246	0.245
-192.217	177.252	0.209	-0.304
-191.202	-24.446	-0.186	-0.111
-190.187	-144.341	-0.278	-0.026
-189.173	-200.000	-0.034	-0.207
-188.158	362.544	0.127	0.255
-187.144	317.737	-0.057	0.109
-186.129	37.043	-0.222	0.196
-185.114	-13.821	0.072	-0.046
-184.100	106.488	-0.187	-0.221
-183.085	-200.000	0.054	0.290
-182.071	-156.485	-0.114	-0.007
-181.056	-19.706	-0.277	0.171
-180.042	261.389	-0.066	0.114
-179.027	800.000	0.106	0.315
-178.012	-200.000	0.002	0.056
-176.998	361.927	-0.146	0.292
-175.983	-9.080	0.138	-0.092
-174.969	133.076	0.168	0.217
-173.954	-40.358	0.232	0.120
-172.939	-200.000	-0.017	-0.234
-171.925	369.217	-0.038	-0.077
-170.910	-102.806	0.460	0.109
-169.896	-156.563	0.075	0.005
-168.881	54.157	0.296	0.285
-167.866	255.996	0.186	0.319
-166.852	36.130	-0.210	-0.184
-165.837	-200.000	0.000	-0.077
-164.823	800.000	-0.078	0.271
-163.808	160.295	0.110	0.153
-162.793	-27.768	-0.237	-0.137
-161.779	-90.762	-0.229	-0.066
-160.764	-147.528	0.138	0.012
-159.750	-200.000	-0.013	0.603
-158.735	-113.107	-0.128	-0.025
-157.720	205.438	-0.075	-0.117
-156.706	400.041	-0.054	0.113
-155.691	295.122	0.118	-0.215
-154.677	-186.069	-0.282	-0.004
-153.662	-200.000	-0.011	0.119
-152.647	28.441	-0.074	0.062
-151.633	-45.068	-0.163	0.081
-150.618	-200.000	0.006	0.315
-149.604	-80.858	0.275	0.091
-148.589	-31.129	-0.031	-0.017
-147.574	87.988	-0.165	0.182
-146.560	-200.000	-0.008	-0.216
-145.545	90.433	0.260	-0.290
-144.531	800.000	-0.125	0.401
-143.516	167.563	0.032	0.045
-142.502	-200.000	0.026	-0.324
-141.487	-21.055	0.131	0.080
-140.472	800.000	0.063	-0.200
-139.458	518.462	-0.104	-0.242
-138.443	207.754	0.170	-0.265
-137.429	751.694	-0.061	0.164
-136.414	800.000	0.084	0.264
-135.399	86.328	-0.108	0.118
-134.385	12.450	-0.246	-0.189
-133.370	-147.021	0.426	0.036
-132.356	37.636	-0.147	-0.130
-131.341	50.031	-0.156	-0.146
-130.326	-27.689	0.215	-0.124
-129.312	124.147	0.131	-0.164
-128.297	-152.444	-0.130	-0.009
-127.283	-90.332	0.298	0.086
-126.268	-117.825	0.394	0.070
-125.253	800.000	-0.093	0.285
-124.239	62.734	-0.110	0.110
-123.224	-95.025	0.172	-0.046
-122.210	800.000	-0.078	0.305
-121.195	800.000	0.081	0.303
-120.180	-19.474	0.233	-0.144
-119.166	-113.538	0.224	0.044
-118.151	490.312	-0.158	0.360
-117.137	20.141	0.188	0.151
-116.122	-171.027	0.347	0.012
-115.107	-67.340	-0.147	-0.058
-114.093	-59.211	0.361	0.155
-113.078	93.420	-0.032	0.036
-112.064	800.000	0.080	0.227
-111.049	45.377	0.199	-0.183
-110.034	172.449	-0.179	-0.257
-109.020	-68.004	-0.200	0.078
-108.005	-1.634	-0.045	-0.031
-106.991	-200.000	-0.030	-0.228
-105.976	144.714	-0.274	-0.365
-104.962	800.000	-0.034	-0.121
-103.947	-142.876	-0.194	0.019
-102.932	304.045	0.079	-0.145
-101.918	800.000	0.023	0.082
-100.903	50.074	-0.041	0.039
-99.889	-84.059	0.154	0.049
-98.874	559.024	-0.099	0.238
-97.859	-57.739	-0.237	0.103
-96.845	-113.539	0.250	0.049
-95.830	-176.080	0.255	0.007
-94.816	109.636	-0.030	-0.035
-93.801	-200.000	-0.034	-0.395
-92.786	-38.727	-0.185	-0.097
-91.772	-119.495	-0.220	0.038
-90.757	-29.216	0.208	0.118
-89.743	85.760	0.105	0.115
-88.728	-200.000	-0.004	0.077
-87.713	-200.000	0.015	0.102
-86.699	477.542	-0.107	0.240
-85.684	134.153	-0.104	0.134
-84.670	-79.038	-0.183	-0.062
-83.655	-69.759	-0.250	0.095
-82.640	604.971	-0.128	0.318
-81.626	110.219	-0.057	0.069
-80.611	-5.697	-0.148	-0.101
-79.597	-48.210	0.224	0.107
-78.582	-200.000	-0.004	0.373
-77.567	15.448	-0.285	0.222
-76.553	-200.000	-0.060	0.311
-75.538	241.741	0.136	0.226
-74.524	-15.901	-0.233	-0.147
-73.509	-79.977	0.273	0.091
-72.494	27.715	-0.252	-0.211
-71.480	-90.494	0.234	-0.067
-70.465	115.451	-0.110	-0.134
-69.451	-200.000	-0.007	0.098
-68.436	800.000	0.059	0.232
-67.422	-106.120	-0.300	-0.067
-66.407	-200.000	-0.003	0.189
-65.392	414.141	0.130	-0.274
-64.378	2.133	0.041	-0.029
-63.363	-41.296	0.260	-0.133
-62.349	151.852	0.184	-0.249
-61.334	129.628	-0.764	-0.970
-60.319	-188.855	0.168	-0.002
-59.305	-200.000	0.000	-0.344
-58.290	800.000	0.289	0.985
-57.276	264.414	0.599	1.036
-56.261	-200.000	85.879	510.429
-55.246	488.506	1367.874	3103.679
-54.232	148.369	2578.029	3457.689
-53.217	112.581	2208.509	2655.497
-52.203	49.625	1665.638	1558.258
-51.188	42.149	1400.570	1263.320
-50.173	38.931	1356.571	1203.894
-49.159	57.207	1399.566	1356.199
-48.144	62.441	1418.191	1406.765
-47.130	42.669	1375.912	1244.104
-46.115	38.982	1358.856	1206.042
-45.100	38.608	1354.614	1199.936
-44.086	38.654	1351.859	1197.727
-43.071	38.665	1349.497	1195.656
-42.057	38.647	1347.229	1193.493
-41.042	38.663	1345.816	1192.291
-40.027	38.711	1344.195	1191.098
-39.013	38.590	1342.732	1189.018
-37.998	38.611	1340.541	1187.157
-36.984	38.729	1338.508	1186.027
-35.969	38.870	1336.586	1185.127
-34.954	38.870	1334.776	1183.472
-33.940	38.829	1333.436	1181.992
-32.925	38.893	1332.413	1181.427
-31.911	38.871	1331.016	1180.008
-30.896	38.941	1329.141	1178.718
-29.881	38.815	1328.285	1177.157
-28.867	38.928	1326.716	1176.398
-27.852	38.969	1325.097	1175.160
-26.838	38.901	1323.546	1173.331
-25.823	38.941	1322.301	1172.422
-24.809	38.872	1320.630	1170.481
-23.794	38.895	1318.945	1169.079
-22.779	38.963	1317.807	1168.426
-21.765	38.947	1316.846	1167.432
-20.750	38.907	1315.018	1165.528
-19.736	38.741	1314.293	1163.854
-18.721	38.789	1312.979	1162.931
-17.706	38.695	1312.288	1161.716
-16.692	38.674	1310.987	1160.392
-15.677	38.746	1309.954	1159.861
-14.663	38.760	1308.674	1158.759
-13.648	38.783	1307.296	1157.630
-12.633	38.690	1306.487	1156.321
-11.619	38.684	1305.248	1155.144
-10.604	38.812	1304.639	1155.311
-9.590	38.667	1303.918	1153.775
-8.575	38.709	1302.655	1152.859
-7.560	38.742	1301.777	1152.229
-6.546	38.761	1301.179	1151.762
-5.531	38.737	1299.852	1150.403
-4.517	38.749	1298.974	1149.650
-3.502	38.777	1297.935	1148.849
-2.487	38.832	1297.062	1148.350
-1.473	38.698	1292.891	1143.830
-0.458	36.753	1276.468	1118.036
0.556	32.678	1255.628	1069.292
1.571	27.923	1258.931	1044.889
2.586	26.763	1273.066	1049.811
3.600	25.664	1262.104	1034.366
4.615	18.610	1186.559	934.101
5.629	7.748	1105.487	814.812
6.644	2.958	1082.916	774.016
7.659	2.548	1079.665	769.563
8.673	2.252	1078.483	767.169
9.688	2.285	1077.410	766.502
10.702	2.661	1076.140	767.417
11.717	9.220	1085.770	807.253
12.731	19.946	1101.061	872.921
13.746	25.149	1107.582	904.325
14.761	25.884	1108.658	908.836
15.775	25.950	1108.292	908.786
16.790	25.652	1107.031	906.170
17.804	25.644	1106.428	905.560
18.819	25.762	1106.074	905.779
19.834	25.862	1106.135	906.254
20.848	25.861	1105.199	905.401
21.863	25.876	1105.064	905.286
22.877	25.879	1103.696	904.100
23.892	25.862	1102.708	903.126
24.907	25.835	1102.724	902.923
25.921	25.872	1101.492	902.022
26.936	25.680	1100.367	900.059
27.950	25.669	1098.719	898.575
28.965	25.606	1096.478	896.349
29.980	25.640	1095.262	895.447
30.994	25.871	1094.567	895.949
32.009	25.912	1093.645	895.320
33.023	25.824	1092.229	893.643
34.038	25.793	1091.274	892.629
35.053	25.837	1090.874	892.440
36.067	25.806	1090.132	891.601
37.082	25.983	1089.374	891.777
38.096	26.050	1089.001	891.724
39.111	26.133	1088.094	891.313
40.126	25.981	1086.440	889.127
41.140	25.489	1084.698	885.201
42.155	25.357	1083.315	883.345
43.169	25.462	1082.426	883.059
44.184	25.540	1081.278	882.430
45.199	25.419	1080.659	881.253
46.213	25.431	1079.760	880.501
47.228	25.717	1079.088	881.272
48.242	25.686	1078.011	880.163
49.257	25.941	1077.026	880.526
50.271	25.893	1076.668	879.924
51.286	25.931	1075.681	879.222
52.301	25.879	1075.253	878.543
53.315	25.808	1074.038	877.127
54.330	25.756	1073.125	876.050
55.344	25.935	1072.107	876.013
56.359	25.767	1071.561	874.670
57.374	25.670	1070.284	873.084
58.388	25.575	1069.759	872.116
59.403	25.487	1068.923	870.929
60.417	25.372	1068.144	869.663
61.432	25.490	1067.286	869.457
62.447	25.419	1067.193	868.963
63.461	25.540	1066.205	868.666
64.476	25.559	1064.787	867.525
65.490	25.457	1063.810	866.161
66.505	25.479	1063.538	865.965
67.520	25.539	1063.120	865.839
68.534	25.274	1061.916	863.506
69.549	25.184	1060.238	861.632
70.563	25.165	1059.849	861.149
71.578	25.027	1058.874	859.623
72.593	24.974	1057.434	858.120
73.607	24.988	1057.641	858.282
74.622	25.299	1057.482	859.565
75.636	25.369	1056.143	858.733
76.651	25.256	1055.192	857.348
77.666	25.255	1054.295	856.538
78.680	25.144	1054.430	856.041
79.695	25.267	1053.651	855.920
80.709	25.297	1053.021	855.474
81.724	25.464	1051.834	855.229
82.739	25.525	1051.211	854.935
83.753	25.863	1050.851	856.176
84.768	26.092	1050.386	856.808
85.782	26.138	1049.673	856.371
86.797	26.110	1048.615	855.297
87.812	25.881	1047.601	853.310
88.826	26.117	1046.405	853.375
89.841	26.182	1045.850	853.157
90.855	26.137	1044.811	852.018
91.870	26.128	1043.702	850.997
92.884	26.027	1042.692	849.621
93.899	25.985	1041.532	848.405
94.914	26.129	1041.039	848.605
95.928	25.875	1039.982	846.476
96.943	25.762	1038.547	844.703
97.957	25.662	1037.295	843.142
98.972	25.373	1036.438	841.015
99.987	25.625	1035.275	841.178
101.001	25.840	1035.091	841.960
102.016	25.839	1033.943	840.947
103.030	25.718	1033.239	839.734
104.045	25.628	1032.050	838.274
105.060	25.443	1031.267	836.704
106.074	25.458	1030.769	836.293
107.089	25.889	1030.145	837.720
108.103	25.720	1029.031	835.952
109.118	25.360	1028.240	833.567
110.133	25.582	1026.192	832.862
111.147	25.413	1025.272	831.257
112.162	25.289	1024.287	829.815
113.176	25.389	1024.390	830.286
114.191	25.462	1023.202	829.584
115.206	25.080	1022.198	826.939
116.220	25.098	1021.035	826.004
117.235	25.276	1020.625	826.420
118.249	25.192	1019.821	825.311
119.264	25.054	1019.205	824.103
120.279	25.245	1018.094	824.012
121.293	25.316	1017.259	823.589
122.308	25.120	1016.690	822.155
123.322	25.151	1015.125	820.958
124.337	25.029	1014.043	819.453
125.352	24.521	1012.898	816.133
126.366	24.496	1011.766	815.037
127.381	25.221	1011.809	818.306
128.395	25.693	1011.154	819.855
129.410	25.744	1010.111	819.170
130.424	25.733	1009.188	818.297
131.439	25.705	1008.847	817.822
132.454	25.698	1007.721	816.803
133.468	25.645	1007.025	815.928
134.483	25.829	1005.923	815.798
135.497	25.958	1005.523	815.981
136.512	26.097	1004.331	815.573
137.527	25.961	1003.590	814.284
138.541	26.060	1002.717	813.952
139.556	25.950	1002.002	812.800
140.570	26.026	1001.222	812.441
141.585	26.144	1000.087	811.978
142.600	26.092	998.982	810.774
143.614	26.297	998.249	811.030
144.629	26.388	997.627	810.860
145.643	26.172	996.375	808.802
146.658	26.025	995.408	807.287
147.673	25.962	993.958	805.761
148.687	25.838	993.164	804.492
149.702	25.823	991.774	803.227
150.716	25.677	990.968	801.854
151.731	25.876	990.369	802.183
152.746	26.050	990.194	802.746
153.760	26.237	989.256	802.745
154.775	26.287	988.547	802.320
155.789	26.244	987.665	801.344
156.804	26.192	986.576	800.157
157.819	26.178	985.818	799.411
158.833	26.340	985.438	799.750
159.848	26.204	984.558	798.361
160.862	25.976	983.364	796.318
161.877	26.260	981.828	796.253
162.892	26.145	981.337	795.278
163.906	26.148	979.908	794.062
164.921	26.166	979.179	793.482
165.935	26.122	978.068	792.318
166.950	26.109	977.138	791.436
167.964	26.075	976.655	790.828
168.979	25.972	974.954	788.930
169.994	25.909	974.464	788.190
171.008	26.013	973.963	788.167
172.023	26.052	972.946	787.446
173.037	25.944	971.943	786.090
174.052	25.888	970.837	784.883
175.067	25.893	969.884	784.068
176.081	26.010	969.659	784.322
177.096	25.788	969.534	783.187
178.110	25.819	968.069	782.071
179.125	25.476	967.642	780.167
180.140	25.644	966.936	780.259
181.154	25.704	966.589	780.169
182.169	26.034	966.565	781.512
183.183	26.158	966.232	781.709
184.198	26.072	965.157	780.397
185.213	26.038	964.462	779.620
186.227	26.086	963.984	779.373
187.242	26.200	963.093	779.076
188.256	26.163	962.392	778.279
189.271	26.297	961.573	778.126
190.286	25.894	960.393	775.368
191.300	25.283	958.974	771.530
192.315	24.393	957.192	766.206
193.329	24.443	956.855	766.085
194.344	25.249	957.456	769.955
195.359	25.907	957.558	772.794
196.373	26.073	957.138	773.097
197.388	25.899	956.604	771.852
198.402	25.925	955.756	771.211
199.417	26.075	955.421	771.512
200.432	25.777	954.128	769.129
201.446	25.651	953.361	767.903
202.461	25.612	952.756	767.182
203.475	24.834	951.018	762.404
204.490	23.979	949.606	757.562
205.504	24.820	950.230	761.574
206.519	25.428	949.901	763.832
207.534	25.622	949.311	764.114
208.548	26.023	949.001	765.496
209.563	25.693	948.711	763.796
210.577	25.735	947.847	763.212
211.592	26.291	947.214	764.989
212.607	26.143	946.329	763.579
213.621	26.222	945.746	763.375
214.636	26.239	944.950	762.737
215.650	26.191	944.610	762.192
216.665	26.271	944.079	762.036
217.680	26.202	942.782	760.627
218.694	25.802	941.761	758.054
219.709	25.649	941.429	757.077
220.723	25.927	940.846	757.708
221.738	26.002	940.271	757.497
222.753	26.047	939.480	756.980
223.767	26.115	939.323	757.071
224.782	26.273	938.944	757.359
225.796	26.358	938.008	756.897
226.811	25.739	936.454	752.985
227.826	24.995	935.347	748.922
228.840	25.213	934.772	749.307
229.855	25.328	934.089	749.169
230.869	24.902	933.187	746.605
231.884	25.351	933.176	748.401
232.899	25.997	933.463	751.256
233.913	25.845	932.564	749.836
234.928	25.812	931.915	749.109
235.942	25.905	931.223	748.875
236.957	25.685	930.061	746.961
237.972	25.601	929.776	746.315
238.986	25.774	929.145	746.461
240.001	25.612	928.751	745.406
241.015	25.785	928.377	745.759
242.030	26.106	927.647	746.433
243.045	26.105	927.210	746.010
244.059	26.065	927.173	745.750
245.074	26.038	925.829	744.489
246.088	25.646	924.853	742.026
247.103	25.946	924.213	742.682
248.117	26.370	925.007	745.002
249.132	26.741	924.844	746.332
250.147	27.005	923.532	746.295
251.161	26.856	923.655	745.715
252.176	26.875	922.979	745.178
253.190	27.160	922.078	745.555
254.205	27.235	921.706	745.497
255.220	27.039	921.333	744.327
256.234	27.045	920.060	743.257
257.249	26.709	919.542	741.397
258.263	26.914	918.311	741.177
259.278	26.918	918.221	741.056
260.293	26.963	917.943	740.949
261.307	26.827	917.266	739.782
262.322	26.648	915.921	737.904
263.336	26.003	913.944	733.622
264.351	24.979	911.851	727.720
265.366	25.170	911.693	728.306
266.380	26.172	912.297	732.790
267.395	26.414	912.657	733.997
268.409	26.530	911.560	733.519
269.424	26.715	911.028	733.775
270.439	26.734	910.264	733.172
271.453	26.752	909.785	732.796
272.468	26.996	909.596	733.564
273.482	27.021	908.952	733.083
274.497	26.463	907.877	729.899
275.512	26.223	907.064	728.211
276.526	26.507	906.984	729.230
277.541	26.654	906.718	729.544
278.555	26.520	905.787	728.188
279.570	26.539	904.857	727.454
280.585	26.645	904.392	727.440
281.599	26.662	902.984	726.312
282.614	26.021	901.758	722.697
283.628	25.949	901.536	722.165
284.643	26.239	901.805	723.480
285.657	25.883	900.347	720.820
286.672	25.684	899.377	719.185
287.687	26.173	899.794	721.411
288.701	26.305	899.220	721.414
289.716	25.962	898.240	719.193
290.730	25.968	897.225	718.344
291.745	25.573	896.733	716.312
292.760	25.970	896.456	717.609
293.774	26.884	897.027	721.640
294.789	27.305	896.488	722.814
295.803	27.358	895.947	722.522
296.818	27.355	895.203	721.850
297.833	26.755	894.405	718.762
298.847	26.635	893.808	717.742
299.862	27.050	893.333	718.942
300.876	27.167	893.101	719.154
301.891	27.183	891.929	718.212
302.906	26.858	890.883	716.024
303.920	26.898	891.052	716.252
304.935	27.239	890.992	717.487
305.949	27.214	890.106	716.611
306.964	26.836	889.194	714.323
307.979	27.070	888.725	714.807
308.993	27.290	888.765	715.639
310.008	27.322	888.269	715.306
311.022	27.298	886.817	713.975
312.037	27.019	886.155	712.285
313.052	26.734	885.548	710.617
314.066	25.882	883.908	705.904
315.081	25.406	883.326	703.511
316.095	26.386	883.455	707.388
317.110	26.960	883.243	709.403
318.125	26.076	881.550	704.530
319.139	24.879	880.381	698.861
320.154	24.910	879.799	698.458
321.168	25.814	880.408	702.408
322.183	26.482	880.473	705.002
323.197	26.745	880.094	705.659
324.212	26.862	880.041	706.008
325.227	27.016	879.031	705.737
326.241	26.803	878.552	704.460
327.256	26.837	877.592	703.763
328.270	26.858	876.782	703.131
329.285	26.367	876.204	700.702
330.300	26.388	874.927	699.702
331.314	26.489	875.151	700.209
332.329	26.902	875.086	701.693
333.343	27.081	874.943	702.206
334.358	27.197	873.867	701.730
335.373	27.170	873.877	701.574
336.387	27.516	873.414	702.472
337.402	27.615	873.869	703.159
338.416	27.414	873.603	702.107
339.431	27.524	873.128	702.088
340.446	27.776	872.584	702.559
341.460	27.703	871.871	701.641
342.475	27.449	871.576	700.363
343.489	27.469	871.455	700.283
344.504	27.808	870.780	700.979
345.519	27.921	870.642	701.241
346.533	27.985	869.809	700.752
347.548	28.029	869.234	700.397
348.562	27.957	869.038	699.902
349.577	27.753	868.163	698.353
350.592	27.747	867.855	698.022
351.606	27.897	866.946	697.801
352.621	27.729	865.909	696.262
353.635	27.596	865.239	695.153
354.650	26.966	863.493	691.294
355.665	26.064	861.961	686.573
356.679	26.285	861.841	687.259
357.694	26.911	861.498	689.303
358.708	26.778	860.985	688.326
359.723	27.147	860.930	689.623
360.738	27.619	860.420	690.943
361.752	27.614	859.684	690.271
362.767	27.945	859.298	691.153
363.781	28.186	859.304	692.010
364.796	28.108	859.328	691.672
365.810	28.277	858.594	691.659
366.825	28.362	858.051	691.481
367.840	28.045	857.035	689.404
368.854	27.569	856.153	686.841
369.869	27.528	855.991	686.497
370.883	27.624	855.502	686.406
371.898	27.502	854.931	685.427
372.913	27.603	855.068	685.856
373.927	27.797	854.351	685.950
374.942	27.857	854.050	685.874
375.956	27.900	853.236	685.320
376.971	28.167	853.399	686.391
377.986	28.193	853.161	686.236
379.000	28.220	852.318	685.598
380.015	28.047	851.229	684.014
381.029	28.144	850.705	683.894
382.044	28.323	850.029	683.960
383.059	28.254	849.800	683.457
384.073	28.254	849.228	682.938
385.088	28.165	848.803	682.202
386.102	27.935	847.781	680.467
387.117	27.915	847.053	679.745
388.132	27.521	846.087	677.445
389.146	27.103	845.001	674.963
390.161	27.496	844.855	676.247
391.175	27.921	845.184	678.031
392.190	27.653	843.962	675.993
393.205	26.114	841.780	668.492
394.219	24.695	839.813	661.625
395.234	24.590	839.407	660.858
396.248	26.302	840.570	668.048
397.263	27.678	841.795	674.053
398.278	27.860	841.446	674.386
399.292	27.446	840.762	672.249
400.307	27.341	840.299	671.435
401.321	27.622	839.687	671.921
402.336	28.002	839.740	673.305
403.350	28.512	839.730	675.114
404.365	28.639	839.694	675.492
405.380	28.908	839.104	675.950
406.394	28.943	838.702	675.692
407.409	28.905	838.205	675.094
408.423	28.931	837.802	674.803
409.438	28.933	837.455	674.473
410.453	28.833	837.407	674.006
411.467	28.915	836.645	673.636
412.482	28.938	835.750	672.939
413.496	29.034	835.488	673.019
414.511	28.950	835.512	672.670
415.526	28.838	835.071	671.849
416.540	28.907	833.479	670.759
417.555	28.658	833.066	669.459
418.569	28.662	832.770	669.176
419.584	28.566	832.530	668.576
420.599	28.580	831.386	667.647
421.613	101.147	1276.290	1409.706
422.628	87.705	1341.122	1409.813
