DTS Sentinel unit serial number:	SN413079Multiplexer serial number:	ORYXHardware model number:	OX4-SRSoftware version number:	ORYX F/W v4.00 Oryx Data Collector v3.7.2.0data status	okinstallation	princeton_trtdifferential loss correction	single-endedforward channel	channel 1reverse channel	N/Adate	2019/09/15time	22:38:35forward acquisition time	60.00reverse acquisition time	0.00gamma	496.2192k internal	0.2331k external	0.2331temperature offset calibration	0.9970default loss term (dB/km)	0.3790temperature slope calibration	1.0000multiplexer offset coefficient	1.0000multiplexer slope coefficient	1.0000fibre end	0.00T internal ref (°C)	28.98T ext. ref 1 (°C)	8.81T ext. ref 2 (°C)	22.43length (m)	temperature (°C)	Stokes	anti-Stokes-747.200	12.484	-0.088	0.068
-746.185	-52.705	-0.055	0.025
-745.171	20.126	0.253	-0.206
-744.156	-200.000	-0.008	0.391
-743.142	-117.803	0.275	0.050
-742.127	-26.275	-0.207	-0.122
-741.112	-6.487	-0.183	0.126
-740.098	775.455	0.067	0.183
-739.083	78.009	-0.344	0.369
-738.069	638.467	-0.122	0.313
-737.054	-55.075	-0.134	-0.061
-736.039	-39.862	-0.466	0.245
-735.025	15.217	0.162	0.128
-734.010	-200.000	-0.048	-0.346
-732.996	-86.067	-0.217	-0.067
-731.981	-6.136	0.318	-0.219
-730.966	117.939	-0.296	-0.366
-729.952	349.682	-0.205	-0.407
-728.937	800.000	0.122	-0.366
-727.923	206.146	-0.263	0.412
-726.908	-18.041	-0.502	0.316
-725.894	-90.649	-0.119	-0.035
-724.879	120.472	0.068	0.085
-723.864	-110.428	-0.233	-0.049
-722.850	110.655	-0.099	0.119
-721.835	-34.231	-0.205	0.113
-720.821	800.000	0.155	-0.437
-719.806	-19.920	0.192	0.119
-718.791	-107.660	0.245	0.054
-717.777	126.819	0.262	-0.334
-716.762	-56.170	-0.149	0.067
-715.748	-200.000	0.019	0.342
-714.733	44.178	-0.114	0.105
-713.718	-63.473	-0.263	-0.109
-712.704	-18.649	0.209	0.131
-711.689	-26.056	-0.306	0.181
-710.675	-110.234	0.139	0.029
-709.660	17.932	-0.270	-0.216
-708.645	-200.000	-0.020	-0.260
-707.631	-169.628	0.321	-0.012
-706.616	74.945	-0.161	-0.170
-705.602	-200.000	-0.074	-0.344
-704.587	30.117	-0.015	0.013
-703.572	79.301	0.255	-0.274
-702.558	-126.831	0.274	-0.041
-701.543	-59.796	-0.152	0.065
-700.529	28.385	0.091	-0.077
-699.514	-4.448	-0.271	0.188
-698.499	166.773	0.142	0.202
-697.485	-23.642	0.010	-0.006
-696.470	-190.925	-0.217	0.002
-695.456	187.151	0.045	0.068
-694.441	-133.271	0.176	0.022
-693.426	197.128	-0.149	0.229
-692.412	-183.070	0.180	-0.003
-691.397	-200.000	-0.045	-0.251
-690.383	-200.000	0.008	-0.287
-689.368	-200.000	-0.020	-0.395
-688.354	173.092	-0.119	-0.172
-687.339	-79.539	0.189	-0.064
-686.324	349.374	0.173	-0.344
-685.310	72.557	-0.105	-0.110
-684.295	800.000	0.046	-0.177
-683.281	-86.144	0.337	-0.105
-682.266	-62.465	-0.148	-0.062
-681.251	-5.971	-0.113	-0.078
-680.237	-200.000	-0.004	0.227
-679.222	344.510	-0.073	0.143
-678.208	-60.377	0.257	-0.110
-677.193	-60.462	-0.078	-0.033
-676.178	146.598	-0.173	-0.233
-675.164	800.000	-0.051	0.205
-674.149	62.458	-0.307	0.308
-673.135	787.756	-0.049	0.136
-672.120	-110.598	0.370	-0.077
-671.105	-151.263	0.065	-0.005
-670.091	-13.900	0.230	0.149
-669.076	-200.000	-0.001	-0.047
-668.062	-19.941	-0.112	-0.069
-667.047	800.000	-0.089	-0.290
-666.032	26.966	-0.134	0.112
-665.018	308.583	-0.055	-0.103
-664.003	83.064	-0.213	-0.232
-662.989	13.704	0.112	-0.087
-661.974	-138.839	-0.290	0.032
-660.959	35.621	0.108	0.095
-659.945	-155.324	-0.104	0.007
-658.930	54.315	0.037	0.035
-657.916	-134.307	-0.368	-0.045
-656.901	-122.757	-0.247	0.040
-655.886	-200.000	0.046	-0.226
-654.872	-129.907	0.069	-0.009
-653.857	278.323	-0.080	0.143
-652.843	52.058	-0.065	0.062
-651.828	181.808	-0.086	0.128
-650.814	-114.984	-0.217	0.041
-649.799	150.689	0.184	0.251
-648.784	800.000	0.118	-0.371
-647.770	37.982	0.168	0.149
-646.755	307.718	-0.093	-0.175
-645.741	800.000	-0.034	0.102
-644.726	29.555	-0.262	-0.223
-643.711	-13.603	-0.230	0.149
-642.697	520.553	-0.052	0.122
-641.682	295.161	-0.168	0.307
-640.668	214.481	0.031	-0.049
-639.653	306.786	-0.097	0.180
-638.638	-200.000	-0.023	0.199
-637.624	-6.793	0.211	0.143
-636.609	-139.349	0.112	-0.012
-635.595	800.000	0.010	0.041
-634.580	-48.720	-0.123	0.059
-633.565	329.865	0.044	0.085
-632.551	-200.000	-0.016	0.109
-631.536	-95.174	-0.265	-0.072
-630.522	-59.350	-0.123	0.053
-629.507	717.626	0.061	0.163
-628.492	-145.645	-0.253	-0.023
-627.478	479.849	0.080	-0.181
-626.463	-200.000	0.043	-0.221
-625.449	-21.272	-0.249	-0.152
-624.434	-55.380	-0.329	0.148
-623.419	-133.542	0.592	-0.074
-622.405	-156.683	-0.314	0.019
-621.390	-56.209	-0.355	0.158
-620.376	-52.744	0.125	0.058
-619.361	-82.405	0.136	0.044
-618.346	590.188	-0.067	0.165
-617.332	-48.519	-0.336	0.162
-616.317	-76.715	-0.132	0.046
-615.303	-78.568	0.126	0.043
-614.288	43.312	-0.147	-0.135
-613.273	330.460	0.257	-0.496
-612.259	-3.504	-0.140	-0.098
-611.244	-52.874	-0.207	0.095
-610.230	601.440	-0.038	-0.095
-609.215	-132.261	0.104	0.013
-608.201	800.000	0.109	-0.306
-607.186	33.776	0.264	-0.230
-606.171	-92.169	0.312	0.088
-605.157	420.393	-0.148	-0.318
-604.142	256.055	-0.099	-0.170
-603.128	800.000	0.039	-0.129
-602.113	-38.771	0.182	-0.096
-601.098	-118.231	-0.226	0.040
-600.084	32.938	0.029	-0.025
-599.069	80.899	-0.170	-0.184
-598.055	273.264	0.131	0.232
-597.040	800.000	-0.019	0.084
-596.025	-142.829	0.104	-0.010
-595.011	93.002	-0.136	-0.153
-593.996	-11.155	-0.025	0.017
-592.982	244.629	-0.080	0.134
-591.967	-118.224	0.297	-0.053
-590.952	36.324	-0.242	0.214
-589.938	-73.736	-0.036	-0.013
-588.923	493.392	0.168	0.386
-587.909	-200.000	-0.001	-0.093
-586.894	-148.501	0.170	0.014
-585.879	-65.492	-0.095	0.038
-584.865	255.212	-0.017	0.028
-583.850	158.495	0.166	0.231
-582.836	-200.000	0.052	-0.447
-581.821	-101.371	-0.350	0.085
-580.806	-165.678	0.129	-0.006
-579.792	-200.000	-0.038	0.343
-578.777	800.000	0.179	0.570
-577.763	-200.000	-0.030	0.358
-576.748	-129.552	0.246	0.034
-575.733	800.000	-0.060	0.235
-574.719	-75.068	0.167	0.060
-573.704	-36.557	-0.067	-0.036
-572.690	-149.405	0.199	0.016
-571.675	-114.875	-0.210	-0.040
-570.661	-50.515	-0.117	-0.055
-569.646	776.208	-0.035	-0.097
-568.631	-35.158	0.089	-0.048
-567.617	-25.278	-0.105	0.062
-566.602	800.000	0.077	-0.251
-565.588	118.078	0.029	0.036
-564.573	-84.091	-0.128	-0.041
-563.558	800.000	0.063	-0.234
-562.544	-122.586	-0.054	-0.009
-561.529	362.142	-0.096	0.192
-560.515	-149.939	-0.210	-0.016
-559.500	-79.308	-0.191	0.065
-558.485	-18.435	0.306	0.191
-557.471	-200.000	-0.061	0.334
-556.456	800.000	-0.043	0.179
-555.442	-128.993	0.323	0.045
-554.427	-3.148	0.143	0.099
-553.412	-150.610	-0.218	-0.017
-552.398	800.000	-0.070	0.205
-551.383	800.000	0.163	0.480
-550.369	649.100	-0.185	0.473
-549.354	-167.380	0.540	0.022
-548.339	-200.000	0.001	0.055
-547.325	-12.385	-0.205	-0.134
-546.310	-48.996	-0.164	-0.078
-545.296	535.174	0.121	0.286
-544.281	-15.369	-0.141	-0.090
-543.266	-200.000	-0.033	-0.205
-542.252	800.000	-0.124	0.401
-541.237	36.167	-0.203	-0.178
-540.223	-56.366	0.140	-0.062
-539.208	-110.054	0.241	0.050
-538.193	-98.649	-0.536	-0.136
-537.179	252.218	-0.245	-0.417
-536.164	-26.748	-0.177	0.103
-535.150	-102.993	0.155	0.037
-534.135	341.049	-0.112	-0.217
-533.121	800.000	-0.049	0.173
-532.106	-153.754	0.051	0.003
-531.091	-67.115	0.174	-0.068
-530.077	-138.569	-0.155	-0.017
-529.062	-22.101	0.310	0.188
-528.048	-38.705	0.142	0.075
-527.033	-164.672	-0.220	-0.010
-526.018	-200.000	-0.015	-0.161
-525.004	-143.676	0.230	-0.022
-523.989	485.196	0.080	-0.182
-522.975	-151.206	0.497	-0.037
-521.960	-200.000	-0.007	-0.149
-520.945	-69.554	0.239	0.091
-519.931	-38.425	0.161	-0.085
-518.916	800.000	0.091	0.313
-517.902	365.915	-0.057	0.115
-516.887	723.441	-0.085	0.227
-515.872	8.780	0.190	-0.143
-514.858	123.054	-0.159	-0.199
-513.843	-200.000	0.002	-0.355
-512.829	-30.075	-0.141	-0.080
-511.814	800.000	0.065	-0.210
-510.799	21.611	0.070	-0.057
-509.785	-184.166	-0.095	-0.002
-508.770	-40.963	-0.240	-0.124
-507.756	-59.700	0.062	0.027
-506.741	-1.657	-0.337	-0.237
-505.726	342.471	-0.087	-0.171
-504.712	3.173	-0.238	0.173
-503.697	-200.000	-0.022	0.136
-502.683	-8.175	0.064	0.043
-501.668	606.142	-0.113	0.282
-500.653	-200.000	-0.029	-0.163
-499.639	-200.000	-0.018	-0.143
-498.624	800.000	-0.050	-0.166
-497.610	539.767	0.077	0.182
-496.595	-200.000	0.014	-0.303
-495.581	-97.434	-0.150	0.039
-494.566	-200.000	0.036	0.245
-493.551	800.000	-0.050	-0.164
-492.537	-200.000	-0.048	-0.215
-491.522	62.358	0.338	0.336
-490.508	-151.792	0.128	-0.009
-489.493	-67.351	-0.134	-0.052
-488.478	-200.000	-0.024	-0.316
-487.464	-200.000	-0.013	0.143
-486.449	-116.740	0.071	-0.013
-485.435	-83.361	0.358	0.114
-484.420	-168.136	0.130	-0.005
-483.405	123.279	0.063	0.079
-482.391	161.080	0.077	0.107
-481.376	-71.863	0.065	0.024
-480.362	281.999	-0.175	-0.313
-479.347	277.873	0.098	-0.175
-478.332	418.277	-0.100	0.213
-477.318	-31.442	-0.069	0.039
-476.303	51.077	-0.148	0.140
-475.289	105.897	-0.127	-0.149
-474.274	-200.000	0.017	0.150
-473.259	113.927	0.093	0.113
-472.245	-72.310	0.376	-0.139
-471.230	334.142	0.017	-0.032
-470.216	410.369	0.044	0.093
-469.201	800.000	0.050	0.139
-468.186	361.060	-0.083	0.166
-467.172	122.230	-0.164	-0.204
-466.157	102.254	-0.096	0.112
-465.143	-200.000	0.031	0.412
-464.128	-44.120	-0.065	0.033
-463.113	-157.738	-0.127	-0.008
-462.099	-54.330	-0.322	-0.145
-461.084	419.401	-0.147	-0.314
-460.070	800.000	0.123	-0.397
-459.055	167.516	-0.232	-0.329
-458.040	-24.151	-0.106	-0.063
-457.026	800.000	-0.140	0.462
-456.011	-200.000	0.068	-0.302
-454.997	-200.000	0.044	-0.273
-453.982	-200.000	-0.041	-0.178
-452.968	-44.822	-0.097	-0.048
-451.953	-83.143	0.347	-0.111
-450.938	-9.253	-0.148	0.099
-449.924	-40.615	-0.346	0.179
-448.909	-12.113	0.301	-0.196
-447.895	-200.000	-0.055	0.354
-446.880	185.542	0.327	0.483
-445.865	-200.000	-0.010	-0.149
-444.851	-200.000	-0.042	0.183
-443.836	-118.230	0.035	-0.006
-442.822	50.720	0.192	-0.180
-441.807	-200.000	-0.050	0.326
-440.792	-46.139	0.080	0.039
-439.778	125.087	-0.012	0.015
-438.763	-200.000	-0.034	-0.157
-437.749	-95.444	-0.199	0.053
-436.734	-91.495	-0.435	-0.123
-435.719	-51.055	0.074	0.034
-434.705	132.128	-0.176	-0.226
-433.690	247.647	-0.137	-0.230
-432.676	200.795	0.068	-0.104
-431.661	-200.000	-0.032	-0.169
-430.646	-200.000	0.087	-0.425
-429.632	-102.986	-0.079	0.019
-428.617	354.036	0.112	0.222
-427.603	-83.489	-0.175	0.056
-426.588	106.792	0.177	-0.209
-425.573	78.565	0.175	-0.185
-424.559	374.922	0.029	-0.058
-423.544	42.560	0.235	0.213
-422.530	1.677	-0.086	-0.062
-421.515	54.946	-0.028	-0.027
-420.500	-200.000	0.014	0.146
-419.486	800.000	0.102	0.300
-418.471	-138.823	-0.346	0.037
-417.457	82.659	-0.072	0.078
-416.442	-133.518	0.283	-0.035
-415.428	599.241	0.104	-0.256
-414.413	129.138	-0.093	0.118
-413.398	310.878	-0.101	0.189
-412.384	50.962	-0.210	0.198
-411.369	-130.709	0.193	-0.026
-410.355	-41.048	0.143	-0.073
-409.340	17.415	-0.281	-0.222
-408.325	-100.934	-0.141	-0.034
-407.311	10.118	-0.151	-0.114
-406.296	575.781	-0.062	0.150
-405.282	-200.000	-0.019	0.180
-404.267	93.807	0.156	-0.175
-403.252	118.899	-0.140	-0.172
-402.238	43.369	0.030	0.027
-401.223	-97.457	-0.181	-0.047
-400.209	-127.263	0.170	-0.025
-399.194	-114.628	0.151	0.029
-398.179	-174.113	-0.192	0.006
-397.165	-99.293	-0.381	-0.095
-396.150	-98.633	-0.136	-0.035
-395.136	-139.880	-0.459	-0.048
-394.121	-30.443	-0.255	0.144
-393.106	270.343	0.061	-0.106
-392.092	-71.242	0.266	0.099
-391.077	-200.000	0.014	0.102
-390.063	-44.476	-0.022	-0.011
-389.048	17.565	0.110	0.087
-388.033	339.295	0.192	-0.372
-387.019	-200.000	0.012	-0.190
-386.004	38.891	-0.078	-0.069
-384.990	-200.000	0.007	-0.143
-383.975	621.659	-0.070	-0.175
-382.960	-83.970	0.425	0.134
-381.946	86.177	0.134	0.146
-380.931	-200.000	0.031	0.412
-379.917	-40.667	0.322	-0.166
-378.902	-200.000	-0.003	-0.400
-377.888	-179.577	0.099	0.002
-376.873	82.308	-0.171	0.184
-375.858	-200.000	0.057	0.259
-374.844	409.469	0.116	0.244
-373.829	528.383	-0.151	0.354
-372.815	-200.000	0.009	-0.051
-371.800	-65.050	0.101	0.040
-370.785	58.649	0.347	-0.338
-369.771	152.463	0.107	-0.145
-368.756	-32.645	0.372	-0.206
-367.742	-94.610	0.243	-0.066
-366.727	153.748	-0.117	0.159
-365.712	-200.000	-0.005	0.128
-364.698	69.718	0.098	0.101
-363.683	-200.000	-0.000	0.161
-362.669	800.000	0.060	0.212
-361.654	160.217	0.152	-0.211
-360.639	192.257	-0.098	-0.147
-359.625	-109.031	-0.372	-0.078
-358.610	233.621	-0.215	0.350
-357.596	-48.487	0.103	-0.049
-356.581	-134.150	-0.126	-0.015
-355.566	-200.000	-0.028	-0.183
-354.552	475.731	0.058	0.131
-353.537	96.860	-0.114	-0.130
-352.523	-87.630	0.477	-0.143
-351.508	-114.426	0.141	0.027
-350.493	67.889	0.094	0.095
-349.479	135.195	0.350	0.450
-348.464	800.000	-0.063	0.215
-347.450	234.740	0.118	0.193
-346.435	-28.128	0.063	0.036
-345.420	104.826	-0.177	0.207
-344.406	800.000	0.054	-0.151
-343.391	1.977	-0.208	-0.149
-342.377	-119.110	0.374	-0.065
-341.362	-92.855	0.340	-0.094
-340.348	-200.000	-0.017	0.076
-339.333	-60.599	0.103	0.043
-338.318	-200.000	-0.012	-0.159
-337.304	87.521	-0.265	-0.291
-336.289	800.000	0.050	0.183
-335.275	-200.000	-0.413	0.001
-334.260	-173.113	-0.113	0.003
-333.245	800.000	0.073	-0.212
-332.231	444.692	0.079	0.171
-331.216	-200.000	-0.001	0.150
-330.202	-180.543	-0.312	-0.006
-329.187	-25.734	0.363	0.212
-328.172	49.562	-0.369	0.344
-327.158	412.850	-0.023	0.048
-326.143	-95.725	-0.195	-0.052
-325.129	16.850	-0.422	-0.331
-324.114	-82.674	-0.109	0.035
-323.099	-200.000	0.001	0.181
-322.085	-200.000	0.092	0.486
-321.070	-200.000	0.078	-0.371
-320.056	22.674	0.106	0.086
-319.041	413.002	0.136	0.286
-318.026	-90.410	-0.302	-0.087
-317.012	-33.778	0.236	0.129
-315.997	-90.398	0.405	-0.116
-314.983	298.243	0.081	0.147
-313.968	-200.000	0.018	0.171
-312.953	266.429	0.128	-0.221
-311.939	800.000	0.115	-0.390
-310.924	-200.000	0.042	-0.234
-309.910	175.240	-0.239	-0.342
-308.895	307.872	-0.166	0.307
-307.880	-30.162	0.196	0.110
-306.866	-147.242	0.169	-0.014
-305.851	144.007	-0.044	0.059
-304.837	486.032	-0.011	0.025
-303.822	-164.193	0.488	-0.022
-302.807	75.166	-0.351	-0.367
-301.793	265.493	-0.073	0.126
-300.778	142.279	-0.165	-0.216
-299.764	800.000	-0.134	0.406
-298.749	-100.534	0.065	-0.016
-297.735	-200.000	-0.009	0.049
-296.720	66.808	0.171	-0.172
-295.705	-94.955	0.245	-0.066
-294.691	-118.132	-0.049	0.009
-293.676	41.540	-0.120	0.107
-292.662	554.455	0.118	-0.281
-291.647	-90.813	0.157	0.045
-290.632	-31.075	0.166	0.092
-289.618	268.747	-0.064	-0.110
-288.603	-10.156	-0.142	0.093
-287.589	-145.074	0.350	-0.031
-286.574	-19.812	-0.056	-0.034
-285.559	-31.608	-0.358	-0.199
-284.545	-1.329	0.069	0.048
-283.530	107.406	-0.107	-0.126
-282.516	-200.000	0.028	0.198
-281.501	275.837	-0.088	-0.155
-280.486	-69.884	0.120	0.045
-279.472	-40.591	-0.166	-0.085
-278.457	-21.734	0.189	0.114
-277.443	-200.000	0.008	-0.136
-276.428	57.607	0.032	0.031
-275.413	344.250	0.130	-0.253
-274.399	292.132	-0.133	0.239
-273.384	-200.000	-0.043	-0.242
-272.370	-61.426	-0.184	0.076
-271.355	-149.392	-0.051	-0.004
-270.340	-15.335	-0.133	0.084
-269.326	-113.392	0.293	0.057
-268.311	158.886	-0.242	-0.333
-267.297	449.603	0.108	0.236
-266.282	-200.000	0.000	0.370
-265.267	-106.402	0.134	-0.030
-264.253	-56.564	-0.091	0.040
-263.238	38.160	0.016	-0.014
-262.224	152.533	0.031	0.042
-261.209	-126.262	0.442	-0.065
-260.195	298.425	0.033	-0.060
-259.180	41.545	0.123	0.110
-258.165	555.472	-0.093	0.220
-257.151	800.000	-0.065	-0.197
-256.136	-10.726	-0.120	0.078
-255.122	-152.910	0.117	0.008
-254.107	-11.435	-0.166	0.108
-253.092	-128.763	-0.188	0.026
-252.078	-72.450	-0.037	-0.013
-251.063	-1.575	-0.280	-0.194
-250.049	377.435	0.084	-0.170
-249.034	-65.942	0.296	0.117
-248.019	-134.337	-0.243	0.029
-247.005	-89.460	-0.135	0.039
-245.990	-146.667	0.390	0.033
-244.976	207.089	-0.149	0.229
-243.961	204.682	0.209	-0.319
-242.946	-200.000	0.039	-0.278
-241.932	-16.889	-0.277	0.173
-240.917	-95.698	0.120	0.032
-239.903	-200.000	0.017	0.097
-238.888	130.263	0.045	0.057
-237.873	-200.000	0.005	-0.057
-236.859	800.000	-0.083	-0.293
-235.844	800.000	0.104	0.305
-234.830	800.000	-0.082	-0.266
-233.815	-58.832	-0.148	0.063
-232.800	-96.064	0.169	0.044
-231.786	-80.648	0.201	0.066
-230.771	-82.182	-0.213	-0.068
-229.757	-200.000	0.015	-0.192
-228.742	-84.642	-0.280	-0.087
-227.727	231.139	0.142	-0.229
-226.713	79.372	-0.042	-0.045
-225.698	-150.912	-0.111	-0.008
-224.684	-200.000	-0.026	-0.210
-223.669	-100.866	-0.304	0.074
-222.655	-72.958	0.368	-0.133
-221.640	-67.129	-0.491	-0.191
-220.625	800.000	-0.102	0.378
-219.611	-87.129	0.166	-0.050
-218.596	-22.734	-0.119	0.071
-217.582	295.556	0.114	-0.205
-216.567	800.000	-0.151	-0.465
-215.552	306.083	0.310	-0.569
-214.538	-31.453	-0.032	0.018
-213.523	-35.349	0.239	0.128
-212.509	-123.050	0.274	0.043
-211.494	800.000	-0.097	-0.344
-210.479	115.188	-0.111	-0.133
-209.465	-83.090	0.534	-0.170
-208.450	444.067	0.130	-0.281
-207.436	534.016	-0.047	-0.109
-206.421	-200.000	0.006	0.191
-205.406	92.653	-0.263	-0.292
-204.392	-171.958	-0.195	0.006
-203.377	-200.000	0.107	0.674
-202.363	12.021	-0.231	-0.175
-201.348	-200.000	-0.053	-0.436
-200.333	136.275	0.048	0.061
-199.319	-186.880	-0.275	0.004
-198.304	-200.000	-0.039	-0.217
-197.290	314.483	-0.143	0.266
-196.275	-200.000	0.026	0.347
-195.260	-87.206	0.061	-0.018
-194.246	137.702	0.178	0.229
-193.231	305.133	0.112	-0.205
-192.217	15.460	0.143	0.111
-191.202	20.564	-0.160	-0.128
-190.187	229.375	0.083	0.134
-189.173	342.216	0.065	0.126
-188.158	800.000	0.062	0.185
-187.144	800.000	-0.067	0.263
-186.129	800.000	-0.179	0.497
-185.114	39.843	-0.317	-0.280
-184.100	800.000	0.038	-0.158
-183.085	1.766	0.218	0.154
-182.071	152.496	0.036	0.048
-181.056	-199.087	0.268	-0.001
-180.042	71.334	-0.086	-0.088
-179.027	370.724	0.188	0.376
-178.012	-96.395	-0.118	0.031
-176.998	700.487	0.105	-0.273
-175.983	-115.588	0.152	0.028
-174.969	221.321	-0.214	-0.339
-173.954	-108.006	0.074	0.016
-172.939	392.838	-0.067	0.137
-171.925	-200.000	-0.039	-0.205
-170.910	132.836	0.195	-0.248
-169.896	-41.851	-0.093	0.047
-168.881	507.839	-0.082	-0.187
-167.866	800.000	-0.030	0.121
-166.852	-200.000	0.002	0.414
-165.837	-200.000	0.026	-0.258
-164.823	307.568	0.098	-0.179
-163.808	64.665	0.185	-0.184
-162.793	-128.114	-0.419	0.059
-161.779	-18.405	0.222	0.136
-160.764	84.127	-0.110	0.118
-159.750	-19.418	-0.141	0.086
-158.735	-127.967	0.337	0.048
-157.720	-108.642	-0.016	-0.003
-156.706	-148.078	-0.189	-0.015
-155.691	607.910	-0.060	-0.148
-154.677	800.000	-0.072	0.302
-153.662	-200.000	-0.001	0.107
-152.647	109.045	0.114	-0.134
-151.633	-52.265	0.447	0.204
-150.618	-80.536	-0.342	0.112
-149.604	-6.973	0.148	-0.099
-148.589	658.057	-0.123	-0.311
-147.574	54.121	-0.111	0.105
-146.560	185.415	-0.049	0.072
-145.545	535.490	-0.186	-0.433
-144.531	-200.000	-0.019	0.298
-143.516	412.586	0.112	0.233
-142.502	-21.534	-0.213	0.127
-141.487	234.026	-0.079	0.128
-140.472	31.314	0.165	0.139
-139.458	-68.387	0.374	0.143
-138.443	-200.000	-0.094	0.423
-137.429	661.527	0.073	-0.186
-136.414	-200.000	-0.038	0.169
-135.399	-111.207	-0.196	-0.039
-134.385	-200.000	-0.006	-0.067
-133.370	-200.000	-0.019	-0.310
-132.356	-72.525	0.255	0.092
-131.341	-200.000	0.046	0.343
-130.326	128.855	-0.166	0.208
-129.312	178.944	0.079	0.113
-128.297	332.360	-0.141	-0.267
-127.283	-84.803	0.376	0.116
-126.268	153.830	0.129	-0.174
-125.253	-18.564	-0.071	0.044
-124.239	-174.509	-0.135	-0.004
-123.224	66.336	-0.234	0.234
-122.210	-88.538	-0.129	-0.038
-121.195	-180.590	0.251	0.005
-120.180	-68.055	0.243	-0.093
-119.166	-4.699	0.068	0.046
-118.151	25.361	-0.141	0.115
-117.137	-143.207	-0.237	0.022
-116.122	-53.233	-0.050	-0.022
-115.107	-200.000	-0.033	-0.189
-114.093	-78.291	0.084	0.028
-113.078	-99.389	0.132	0.033
-112.064	32.185	0.134	-0.114
-111.049	800.000	0.067	-0.256
-110.034	-115.332	0.130	-0.024
-109.020	-70.191	0.034	-0.013
-108.005	-38.804	-0.298	0.154
-106.991	-145.353	-0.094	0.008
-105.976	-101.650	-0.389	0.093
-104.962	114.227	0.188	-0.224
-103.947	-71.588	0.135	0.050
-102.932	87.678	-0.081	-0.088
-101.918	800.000	-0.026	0.094
-100.903	319.224	0.077	-0.143
-99.889	-37.191	0.074	0.039
-98.874	149.656	0.034	-0.045
-97.859	-96.961	0.141	-0.036
-96.845	110.090	-0.186	-0.219
-95.830	-108.760	-0.279	0.059
-94.816	800.000	0.027	0.083
-93.801	-77.341	-0.235	-0.080
-92.786	-78.291	0.272	-0.091
-91.772	800.000	0.020	0.082
-90.757	93.889	-0.251	0.279
-89.743	81.809	0.112	-0.119
-88.728	-55.006	0.107	-0.047
-87.713	701.977	-0.040	0.103
-86.699	-43.943	0.271	-0.133
-85.684	-74.029	0.338	-0.120
-84.670	730.943	0.104	-0.273
-83.655	-39.276	-0.090	-0.046
-82.640	-144.002	0.329	-0.030
-81.626	92.280	-0.211	0.233
-80.611	-93.732	0.197	-0.053
-79.597	800.000	0.109	-0.388
-78.582	-200.000	-0.017	0.169
-77.567	-50.591	0.300	0.139
-76.553	-16.885	0.261	-0.162
-75.538	730.081	-0.055	0.143
-74.524	9.921	0.299	-0.222
-73.509	689.908	0.107	0.276
-72.494	35.309	0.049	-0.042
-71.480	-200.000	0.040	-0.187
-70.465	93.184	-0.053	0.059
-69.451	800.000	-0.046	0.133
-68.436	-200.000	0.005	-0.112
-67.422	153.644	-0.088	0.118
-66.407	-138.575	0.169	0.018
-65.392	-156.244	0.204	0.013
-64.378	800.000	0.030	-0.084
-63.363	-200.000	-0.014	0.130
-62.349	800.000	0.031	-0.107
-61.334	146.764	-0.834	-1.098
-60.319	49.339	0.431	0.397
-59.305	61.088	-0.778	-0.757
-58.290	701.958	0.569	1.468
-57.276	800.000	0.492	1.538
-56.261	-200.000	110.253	630.540
-55.246	469.635	1491.101	3281.674
-54.232	148.947	2658.401	3521.799
-53.217	106.736	2138.377	2485.883
-52.203	40.268	1593.620	1404.287
-51.188	32.351	1339.623	1132.965
-50.173	29.301	1301.143	1082.503
-49.159	55.944	1354.778	1287.186
-48.144	56.026	1370.144	1302.222
-47.130	32.647	1326.113	1123.126
-46.115	29.201	1307.922	1087.377
-45.100	29.029	1303.390	1082.556
-44.086	28.902	1301.333	1080.062
-43.071	28.859	1299.045	1077.866
-42.057	28.814	1297.145	1075.984
-41.042	28.852	1295.354	1074.677
-40.027	28.881	1293.436	1073.210
-39.013	28.748	1291.814	1071.047
-37.998	28.943	1290.044	1070.675
-36.984	28.968	1288.057	1069.127
-35.969	28.986	1286.320	1067.749
-34.954	28.893	1284.953	1066.033
-33.940	29.040	1283.413	1065.563
-32.925	29.125	1281.837	1064.703
-31.911	29.043	1280.918	1063.426
-30.896	29.045	1279.046	1061.842
-29.881	29.069	1278.163	1061.203
-28.867	29.172	1276.460	1060.342
-27.852	29.115	1275.058	1058.806
-26.838	29.116	1273.680	1057.626
-25.823	29.053	1272.467	1056.216
-24.809	28.959	1271.306	1054.668
-23.794	29.052	1269.851	1053.953
-22.779	29.106	1268.357	1052.981
-21.765	29.017	1267.371	1051.611
-20.750	29.039	1265.745	1050.348
-19.736	29.024	1264.650	1049.313
-18.721	29.002	1263.635	1048.303
-17.706	29.022	1262.316	1047.281
-16.692	28.961	1261.737	1046.411
-15.677	28.983	1260.337	1045.335
-14.663	28.897	1259.036	1043.726
-13.648	28.911	1258.325	1043.170
-12.633	28.942	1257.291	1042.449
-11.619	28.948	1256.548	1041.826
-10.604	28.943	1255.651	1041.011
-9.590	28.911	1254.630	1039.944
-8.575	28.960	1253.490	1039.232
-7.560	28.883	1252.731	1038.130
-6.546	28.875	1251.976	1037.418
-5.531	28.948	1251.226	1037.169
-4.517	29.019	1249.884	1036.413
-3.502	28.999	1249.515	1035.953
-2.487	29.020	1248.606	1035.279
-1.473	28.931	1244.184	1031.069
-0.458	27.220	1228.921	1008.897
0.556	21.794	1212.088	969.666
1.571	17.823	1217.975	952.172
2.586	17.097	1231.793	958.792
3.600	16.873	1221.707	949.601
4.615	15.027	1155.044	887.920
5.629	11.005	1087.654	815.908
6.644	8.991	1070.248	792.837
7.659	8.764	1068.266	790.180
8.673	8.744	1066.623	788.796
9.688	8.741	1065.286	787.725
10.702	8.956	1063.449	787.350
11.717	11.395	1066.573	801.587
12.731	15.385	1071.503	824.878
13.746	17.593	1073.598	837.281
14.761	17.541	1072.928	836.428
15.775	16.460	1070.948	829.506
16.790	15.476	1069.177	823.240
17.804	14.639	1067.636	817.880
18.819	14.276	1066.230	814.955
19.834	14.131	1064.878	813.140
20.848	13.727	1064.497	810.803
21.863	13.464	1063.697	808.839
22.877	13.457	1062.821	808.065
23.892	13.374	1062.092	807.033
24.907	13.373	1061.478	806.492
25.921	13.320	1060.396	805.342
26.936	13.456	1059.699	805.401
27.950	13.459	1057.849	803.941
28.965	13.499	1055.865	802.556
29.980	13.706	1054.453	802.414
30.994	13.602	1053.679	801.247
32.009	13.652	1052.817	800.766
33.023	13.653	1051.558	799.742
34.038	13.611	1050.677	798.799
35.053	13.528	1049.617	797.521
36.067	13.567	1048.637	796.893
37.082	13.506	1048.107	796.129
38.096	13.660	1047.181	796.092
39.111	13.610	1046.456	795.231
40.126	13.566	1044.897	793.767
41.140	13.324	1044.491	792.228
42.155	13.351	1042.855	791.044
43.169	13.334	1042.067	790.300
44.184	13.363	1040.339	789.056
45.199	13.317	1039.580	788.191
46.213	13.366	1038.845	787.796
47.228	13.455	1037.819	787.374
48.242	13.539	1036.554	786.740
49.257	13.397	1035.660	785.321
50.271	13.479	1035.143	785.248
51.286	13.514	1033.767	784.299
52.301	13.405	1033.049	783.172
53.315	13.466	1032.288	782.813
54.330	13.385	1031.008	781.389
55.344	13.386	1030.005	780.566
56.359	13.327	1029.310	779.692
57.374	13.435	1028.395	779.437
58.388	13.368	1027.054	778.035
59.403	13.307	1026.812	777.499
60.417	13.293	1025.793	776.591
61.432	13.249	1024.954	775.680
62.447	13.360	1023.857	775.302
63.461	13.238	1023.427	774.336
64.476	13.188	1022.469	773.310
65.490	13.241	1021.420	772.698
66.505	13.283	1020.889	772.421
67.520	13.152	1020.468	771.424
68.534	13.228	1019.643	771.085
69.549	13.298	1018.426	770.423
70.563	13.197	1017.955	769.531
71.578	13.244	1016.803	768.810
72.593	13.301	1015.852	768.288
73.607	13.199	1015.689	767.620
74.622	13.251	1014.819	767.140
75.636	13.121	1014.379	766.134
76.651	13.156	1013.394	765.485
77.666	13.159	1012.824	764.999
78.680	13.166	1012.475	764.703
79.695	13.099	1011.781	763.800
80.709	13.277	1010.728	763.760
81.724	13.316	1010.109	763.402
82.739	13.458	1009.431	763.481
83.753	13.546	1008.498	763.113
84.768	13.571	1007.896	762.703
85.782	13.647	1007.002	762.312
86.797	13.641	1006.079	761.516
87.812	13.470	1005.376	760.132
88.826	13.579	1004.144	759.632
89.841	13.593	1003.262	758.959
90.855	13.561	1002.437	758.124
91.870	13.622	1001.873	757.908
92.884	13.629	1000.691	756.979
93.899	13.690	999.931	756.619
94.914	13.694	999.094	755.936
95.928	13.748	998.477	755.647
96.943	13.540	997.774	754.102
97.957	13.560	996.789	753.382
98.972	13.648	996.128	753.216
99.987	13.521	994.988	751.709
101.001	13.662	994.007	751.543
102.016	13.654	993.218	750.840
103.030	13.711	992.510	750.497
104.045	13.665	991.880	749.748
105.060	13.624	991.171	748.960
106.074	13.488	989.898	747.317
107.089	13.502	988.874	746.543
108.103	13.416	987.990	745.421
109.118	13.198	987.598	744.078
110.133	13.218	986.725	743.443
111.147	13.283	985.551	742.784
112.162	13.566	984.325	743.065
113.176	13.453	984.201	742.400
114.191	13.504	982.977	741.638
115.206	13.485	982.609	741.212
116.220	13.516	981.448	740.409
117.235	13.512	980.498	739.607
118.249	13.531	979.645	738.983
119.264	13.440	978.920	737.965
120.279	13.350	978.409	737.115
121.293	13.520	976.985	736.733
122.308	13.367	976.693	735.765
123.322	13.363	975.512	734.796
124.337	13.321	974.578	733.841
125.352	13.351	973.357	732.990
126.366	13.221	972.698	731.853
127.381	13.425	971.406	731.718
128.395	13.370	971.100	731.179
129.410	13.418	969.620	730.210
130.424	13.503	968.716	729.839
131.439	13.450	968.403	729.306
132.454	13.539	967.386	728.868
133.468	13.350	966.905	727.610
134.483	13.554	965.767	727.585
135.497	13.626	964.880	727.170
136.512	13.587	964.004	726.274
137.527	13.633	962.697	725.423
138.541	13.510	962.534	724.699
139.556	13.482	962.078	724.170
140.570	13.600	961.346	724.071
141.585	13.850	959.982	724.068
142.600	13.681	959.694	723.053
143.614	13.758	958.783	722.636
144.629	13.763	958.214	722.167
145.643	13.657	956.921	720.665
146.658	13.651	955.968	719.860
147.673	13.597	955.316	719.068
148.687	13.483	954.761	718.094
149.702	13.562	953.212	717.206
150.716	13.677	952.330	716.980
151.731	13.738	951.706	716.711
152.746	13.616	951.196	715.734
153.760	13.629	951.025	715.600
154.775	13.703	950.176	715.216
155.789	13.707	949.445	714.618
156.804	13.610	948.731	713.601
157.819	13.695	948.328	713.601
158.833	13.795	947.343	713.224
159.848	13.926	946.453	713.055
160.862	13.796	945.393	711.635
161.877	13.733	944.599	710.707
162.892	13.704	943.801	709.916
163.906	13.709	942.333	708.772
164.921	13.595	942.131	708.071
165.935	13.752	941.396	708.126
166.950	13.717	940.501	707.242
167.964	13.724	939.613	706.540
168.979	13.664	938.672	705.514
169.994	13.834	937.476	705.275
171.008	13.805	937.340	704.989
172.023	13.887	936.644	704.752
173.037	13.935	935.760	704.228
174.052	13.913	935.057	703.542
175.067	13.846	934.275	702.606
176.081	13.959	933.601	702.517
177.096	13.788	933.280	701.489
178.110	13.885	932.266	701.077
179.125	13.788	932.374	700.686
180.140	13.967	931.002	700.347
181.154	14.005	930.442	700.023
182.169	14.016	930.130	699.773
183.183	13.897	930.239	699.293
184.198	14.079	928.635	698.788
185.213	13.973	928.547	698.217
186.227	14.095	927.433	697.830
187.242	14.104	927.091	697.548
188.256	14.206	926.571	697.520
189.271	14.048	925.591	696.060
190.286	13.971	924.699	695.005
191.300	13.921	924.011	694.218
192.315	13.973	923.075	693.670
193.329	13.883	922.931	693.124
194.344	13.920	922.467	692.872
195.359	14.003	921.888	692.719
196.373	14.064	921.275	692.453
197.388	14.150	920.664	692.289
198.402	14.310	920.230	692.567
199.417	14.347	919.631	692.207
200.432	14.327	919.085	691.654
201.446	14.297	918.781	691.241
202.461	14.462	918.113	691.360
203.475	14.465	917.158	690.592
204.490	14.456	916.470	689.975
205.504	14.306	915.584	688.627
206.519	14.272	914.885	687.899
207.534	14.285	914.370	687.506
208.548	14.186	913.884	686.671
209.563	14.267	913.021	686.294
210.577	14.335	912.309	685.980
211.592	14.406	911.882	685.890
212.607	14.592	911.098	686.004
213.621	14.577	909.935	685.005
214.636	14.449	909.217	683.879
215.650	14.397	909.112	683.527
216.665	14.589	908.393	683.713
217.680	14.536	907.581	682.823
218.694	14.593	906.940	682.515
219.709	14.543	906.379	681.830
220.723	14.529	905.751	681.238
221.738	14.536	904.956	680.608
222.753	14.531	904.368	680.086
223.767	14.609	903.909	680.000
224.782	14.753	903.272	680.045
225.796	14.639	902.903	679.244
226.811	14.622	902.616	678.897
227.826	14.683	901.389	678.162
228.840	14.561	900.759	677.132
229.855	14.544	899.690	676.201
230.869	14.705	898.700	676.051
231.884	14.531	898.483	675.123
232.899	14.608	897.457	674.604
233.913	14.616	896.939	674.187
234.928	14.598	896.307	673.577
235.942	14.661	895.744	673.350
236.957	14.618	895.604	673.013
237.972	14.612	894.180	671.858
238.986	14.555	894.015	671.446
240.001	14.705	893.332	671.476
241.015	14.655	892.710	670.747
242.030	14.832	892.019	670.878
243.045	14.734	891.544	670.069
244.059	14.737	891.128	669.709
245.074	14.671	890.359	668.808
246.088	14.809	889.504	668.658
247.103	14.796	889.044	668.203
248.117	14.863	889.021	668.396
249.132	14.975	888.304	668.246
250.147	15.070	887.591	668.026
251.161	15.002	886.833	667.128
252.176	15.063	886.172	666.814
253.190	15.116	885.486	666.448
254.205	15.182	885.003	666.290
255.220	15.059	884.378	665.272
256.234	15.136	883.709	665.015
257.249	15.159	882.968	664.490
258.263	15.246	882.264	664.243
259.278	15.360	881.180	663.822
260.293	15.220	880.930	663.022
261.307	15.298	880.501	662.946
262.322	15.402	880.075	662.980
263.336	15.421	879.064	662.235
264.351	15.459	878.235	661.702
265.366	15.465	877.952	661.451
266.380	15.504	877.160	660.952
267.395	15.315	876.929	659.974
268.409	15.307	876.133	659.285
269.424	15.228	875.241	658.246
270.439	15.243	874.417	657.628
271.453	15.289	873.711	657.219
272.468	15.278	873.261	656.776
273.482	15.329	872.737	656.524
274.497	15.351	872.319	656.240
275.512	15.335	871.389	655.420
276.526	15.380	871.144	655.353
277.541	15.344	870.690	654.812
278.555	15.458	870.230	654.853
279.570	15.701	869.176	654.949
280.585	15.569	868.324	653.734
281.599	15.545	867.711	653.121
282.614	15.562	866.980	652.580
283.628	15.449	866.586	651.786
284.643	15.453	865.975	651.287
285.657	15.697	864.961	651.412
286.672	15.617	864.432	650.644
287.687	15.560	863.894	649.962
288.701	15.461	863.845	649.485
289.716	15.494	863.163	649.041
290.730	15.531	862.663	648.753
291.745	15.730	861.501	648.588
292.760	15.825	861.026	648.538
293.774	15.812	860.144	647.767
294.789	15.705	859.833	647.063
295.803	15.723	858.809	646.306
296.818	15.655	858.453	645.719
297.833	15.695	857.697	645.245
298.847	15.793	857.357	645.311
299.862	15.808	856.757	644.860
300.876	15.871	856.359	644.743
301.891	15.823	855.739	644.036
302.906	15.869	855.172	643.727
303.920	16.082	854.730	644.152
304.935	15.926	854.346	643.210
305.949	15.950	853.628	642.703
306.964	15.874	853.018	641.896
307.979	15.829	852.457	641.247
308.993	16.033	851.833	641.499
310.008	15.971	851.324	640.823
311.022	15.998	850.467	640.222
312.037	15.927	849.981	639.531
313.052	16.059	849.183	639.373
314.066	15.905	848.692	638.363
315.081	15.986	848.305	638.323
316.095	15.927	847.821	637.681
317.110	15.824	847.541	637.023
318.125	15.918	846.710	636.698
319.139	15.919	846.167	636.238
320.154	16.048	845.427	636.111
321.168	15.996	845.157	635.656
322.183	16.097	844.356	635.376
323.197	15.992	843.894	634.579
324.212	16.176	843.359	634.812
325.227	16.064	842.766	633.887
326.241	16.108	842.444	633.754
327.256	16.096	841.785	633.159
328.270	15.969	841.242	632.218
329.285	15.991	840.542	631.718
330.300	16.033	840.196	631.559
331.314	16.133	839.616	631.442
332.329	16.115	839.105	630.933
333.343	16.221	838.794	631.041
334.358	16.295	838.116	630.750
335.373	16.058	838.329	629.971
336.387	16.156	837.961	630.005
337.402	16.367	837.422	630.332
338.416	16.338	837.286	630.065
339.431	16.380	836.372	629.478
340.446	16.401	836.037	629.247
341.460	16.437	835.705	629.075
342.475	16.429	835.566	628.887
343.489	16.581	834.566	628.643
344.504	16.556	834.434	628.396
345.519	16.522	833.985	627.873
346.533	16.586	833.339	627.570
347.548	16.534	833.103	627.144
348.562	16.393	832.733	626.287
349.577	16.539	831.357	625.739
350.592	16.463	831.024	625.149
351.606	16.549	830.415	624.954
352.621	16.520	829.807	624.336
353.635	16.601	829.206	624.125
354.650	16.554	828.590	623.433
355.665	16.461	828.229	622.766
356.679	16.576	827.401	622.509
357.694	16.625	826.498	621.957
358.708	16.622	826.195	621.661
359.723	16.463	825.717	620.662
360.738	16.627	824.917	620.610
361.752	16.724	824.267	620.418
362.767	16.717	823.565	619.813
363.781	16.714	823.465	619.669
364.796	16.644	823.264	619.207
365.810	16.860	822.659	619.487
366.825	16.794	822.454	619.038
367.840	16.944	821.625	618.905
368.854	16.823	821.067	617.991
369.869	16.998	820.500	618.147
370.883	16.890	820.358	617.592
371.898	16.799	820.266	617.135
372.913	16.966	819.610	617.196
373.927	17.030	818.778	616.748
374.942	17.011	818.614	616.498
375.956	17.113	818.051	616.391
376.971	17.042	817.658	615.781
377.986	17.171	817.174	615.833
379.000	17.008	817.085	615.117
380.015	17.175	816.111	614.937
381.029	17.022	815.572	613.923
382.044	17.099	815.244	613.897
383.059	17.274	814.276	613.749
384.073	17.124	813.860	612.838
385.088	17.063	813.554	612.333
386.102	17.250	812.641	612.265
387.117	17.123	812.041	611.302
388.132	17.218	811.365	611.081
389.146	17.256	810.800	610.738
390.161	17.225	810.754	610.537
391.175	17.255	810.245	610.210
392.190	17.210	809.786	609.646
393.205	17.196	809.073	609.009
394.219	16.988	809.119	608.243
395.234	17.177	808.470	608.376
396.248	17.117	807.989	607.747
397.263	17.069	807.691	607.297
398.278	17.080	807.415	607.074
399.292	17.016	807.233	606.657
400.307	17.070	806.644	606.351
401.321	17.050	806.118	605.830
402.336	17.197	805.263	605.660
403.350	17.235	805.104	605.621
404.365	17.224	804.790	605.293
405.380	17.546	803.982	605.779
406.394	17.274	803.720	604.557
407.409	17.409	803.184	604.580
408.423	17.454	802.843	604.430
409.438	17.460	802.762	604.338
410.453	17.487	802.095	603.879
411.467	17.571	801.387	603.588
412.482	17.648	800.891	603.434
413.496	17.791	800.727	603.765
414.511	17.623	800.374	602.851
415.526	17.828	799.935	603.193
416.540	17.576	799.457	601.887
417.555	17.696	798.914	601.851
418.569	17.651	798.542	601.355
419.584	17.709	798.157	601.219
420.599	17.549	798.168	600.609
421.613	110.742	1294.383	1473.966
422.628	95.295	1366.662	1474.046
