DTS Sentinel unit serial number:	SN413079Multiplexer serial number:	ORYXHardware model number:	OX4-SRSoftware version number:	ORYX F/W v4.00 Oryx Data Collector v3.7.2.0data status	okinstallation	princeton_trtdifferential loss correction	single-endedforward channel	channel 1reverse channel	N/Adate	2019/09/19time	11:46:35forward acquisition time	60.00reverse acquisition time	0.00gamma	496.2192k internal	0.2337k external	0.2337temperature offset calibration	1.0010default loss term (dB/km)	0.3790temperature slope calibration	1.0000multiplexer offset coefficient	1.0000multiplexer slope coefficient	1.0000fibre end	0.00T internal ref (°C)	25.73T ext. ref 1 (°C)	0.81T ext. ref 2 (°C)	21.61length (m)	temperature (°C)	Stokes	anti-Stokes-747.200	25.768	-0.148	-0.123
-746.185	259.764	0.139	0.240
-745.171	-77.656	0.069	0.024
-744.156	-55.371	-0.243	0.110
-743.142	-39.830	-0.015	0.008
-742.127	50.426	-0.188	0.178
-741.112	-170.391	-0.408	-0.014
-740.098	19.787	-0.250	0.202
-739.083	-100.116	0.207	0.052
-738.069	-200.000	0.029	0.254
-737.054	-10.457	0.316	-0.210
-736.039	29.655	-0.223	-0.190
-735.025	800.000	-0.130	0.405
-734.010	-5.130	0.086	-0.059
-732.996	800.000	0.076	0.231
-731.981	542.874	-0.034	0.082
-730.966	-24.740	-0.273	-0.163
-729.952	-18.403	-0.263	-0.165
-728.937	800.000	0.072	-0.253
-727.923	-23.475	0.284	0.171
-726.908	-124.910	-0.245	-0.038
-725.894	136.542	-0.233	-0.305
-724.879	32.756	-0.224	-0.195
-723.864	102.077	0.222	-0.260
-722.850	90.372	-0.137	-0.153
-721.835	-20.789	-0.132	0.081
-720.821	-68.539	-0.046	0.018
-719.806	14.810	0.095	-0.075
-718.791	-70.134	-0.022	-0.008
-717.777	-75.145	-0.145	0.052
-716.762	-35.097	0.144	-0.079
-715.748	128.969	0.199	-0.254
-714.733	-4.729	0.150	-0.104
-713.718	-67.608	0.184	-0.072
-712.704	800.000	0.101	-0.305
-711.689	281.116	0.169	0.303
-710.675	187.698	-0.150	-0.225
-709.660	-200.000	-0.020	-0.102
-708.645	-47.158	0.144	-0.070
-707.631	122.948	-0.116	0.145
-706.616	118.074	0.122	-0.151
-705.602	-2.701	-0.314	-0.220
-704.587	320.079	0.099	-0.189
-703.572	-78.260	0.144	-0.050
-702.558	195.632	-0.072	-0.110
-701.543	800.000	0.069	-0.278
-700.529	10.279	0.142	-0.108
-699.514	-200.000	-0.002	-0.199
-698.499	-200.000	0.069	-0.304
-697.485	-90.194	-0.324	-0.094
-696.470	6.539	-0.146	-0.109
-695.456	-200.000	0.001	-0.252
-694.441	-46.619	0.106	0.052
-693.426	18.216	0.076	0.061
-692.412	-154.100	-0.318	-0.022
-691.397	117.525	-0.062	0.076
-690.383	-65.659	0.090	-0.036
-689.368	319.041	0.024	0.046
-688.354	734.055	0.079	-0.213
-687.339	-200.000	-0.045	-0.395
-686.324	-200.000	-0.021	0.092
-685.310	85.615	-0.127	-0.140
-684.295	-200.000	-0.017	0.124
-683.281	59.610	0.374	-0.369
-682.266	800.000	0.068	0.202
-681.251	1.392	-0.175	0.126
-680.237	538.272	0.107	0.254
-679.222	169.555	-0.081	-0.116
-678.208	40.271	0.298	-0.268
-677.193	-46.504	-0.283	-0.139
-676.178	-140.872	0.083	-0.009
-675.164	-124.123	0.101	-0.016
-674.149	15.720	-0.285	-0.224
-673.135	-197.102	-0.175	0.001
-672.120	230.988	0.103	-0.169
-671.105	53.363	0.220	-0.211
-670.091	-169.694	0.273	0.010
-669.076	-103.230	0.042	0.010
-668.062	-184.697	-0.217	-0.003
-667.047	-200.000	0.017	0.175
-666.032	800.000	-0.112	0.343
-665.018	-130.185	-0.412	0.056
-664.003	800.000	0.057	-0.205
-662.989	-65.270	-0.200	-0.081
-661.974	-68.056	-0.065	-0.025
-660.959	-59.896	0.144	-0.062
-659.945	-133.873	-0.169	-0.021
-658.930	-95.558	0.326	0.087
-657.916	107.316	0.189	-0.224
-656.901	-139.318	-0.389	-0.042
-655.886	-133.585	0.401	0.050
-654.872	607.802	0.138	0.345
-653.857	-89.050	-0.092	-0.027
-652.843	800.000	0.159	0.471
-651.828	-112.512	0.108	-0.022
-650.814	-200.000	0.068	0.432
-649.799	128.240	-0.223	-0.284
-648.784	54.194	0.268	-0.258
-647.770	-123.054	0.528	0.085
-646.755	-200.000	-0.022	-0.202
-645.741	373.109	0.193	-0.393
-644.726	269.615	-0.101	0.177
-643.711	134.338	-0.182	0.236
-642.697	-149.149	-0.203	0.016
-641.682	-7.157	0.102	-0.069
-640.668	-200.000	-0.069	-0.332
-639.653	800.000	-0.066	0.278
-638.638	-171.269	-0.449	-0.015
-637.624	45.645	0.175	0.162
-636.609	-0.305	-0.072	-0.051
-635.595	774.602	0.166	-0.452
-634.580	-14.491	-0.290	-0.186
-633.565	-121.972	-0.302	0.050
-632.551	-100.595	-0.185	-0.046
-631.536	10.384	-0.127	0.097
-630.522	-65.524	0.115	0.046
-629.507	43.697	0.115	-0.105
-628.492	-12.914	0.296	0.193
-627.478	-133.663	-0.434	-0.054
-626.463	-11.665	0.031	0.020
-625.449	10.220	-0.052	0.040
-624.434	-200.000	-0.051	0.283
-623.419	-135.017	0.040	0.005
-622.405	-200.000	0.000	0.200
-621.390	470.905	0.237	-0.533
-620.376	-47.808	-0.049	-0.024
-619.361	159.698	-0.064	0.089
-618.346	-200.000	0.568	-0.002
-617.332	48.624	-0.236	-0.221
-616.317	-34.056	-0.078	-0.043
-615.303	182.647	-0.051	-0.075
-614.288	-61.463	-0.113	-0.048
-613.273	70.718	-0.100	0.103
-612.259	53.811	0.303	-0.290
-611.244	83.684	-0.124	0.135
-610.230	137.501	0.066	-0.086
-609.215	-12.311	0.019	0.012
-608.201	70.887	0.314	0.325
-607.186	800.000	0.055	0.186
-606.171	172.802	-0.140	0.202
-605.157	96.212	0.097	-0.111
-604.142	457.550	-0.080	0.178
-603.128	-10.319	-0.213	-0.141
-602.113	-80.446	0.242	-0.081
-601.098	-161.822	0.166	0.008
-600.084	-166.425	0.055	0.002
-599.069	105.527	-0.098	0.116
-598.055	56.871	-0.159	0.154
-597.040	-65.199	-0.185	0.074
-596.025	-149.946	0.113	-0.009
-595.011	-33.938	0.160	0.088
-593.996	13.757	-0.177	0.137
-592.982	747.213	-0.126	0.339
-591.967	337.360	0.141	0.274
-590.952	800.000	0.124	-0.530
-589.938	-91.497	-0.030	0.009
-588.923	169.104	0.133	-0.189
-587.909	-14.854	-0.207	0.132
-586.894	-114.265	-0.112	-0.022
-585.879	143.355	0.039	-0.052
-584.865	11.787	-0.139	-0.106
-583.850	42.210	-0.044	0.040
-582.836	-155.699	0.108	0.007
-581.821	-122.443	-0.138	-0.022
-580.806	-140.982	-0.120	-0.012
-579.792	224.240	-0.146	0.235
-578.777	3.059	0.162	-0.117
-577.763	-24.534	0.114	0.068
-576.748	102.104	0.164	0.191
-575.733	-200.000	0.020	-0.223
-574.719	800.000	-0.062	0.172
-573.704	676.286	0.143	-0.370
-572.690	305.215	-0.100	-0.186
-571.675	-200.000	0.032	-0.286
-570.661	-72.584	0.074	-0.027
-569.646	-200.000	0.056	-0.265
-568.631	106.061	0.261	-0.308
-567.617	577.904	-0.078	0.191
-566.602	121.477	0.108	0.135
-565.588	-86.297	-0.103	-0.032
-564.573	-50.030	-0.242	0.114
-563.558	-200.000	0.005	-0.346
-562.544	-200.000	-0.003	0.576
-561.529	70.552	0.052	-0.054
-560.515	186.833	-0.040	0.059
-559.500	396.290	0.166	-0.346
-558.485	-114.988	-0.205	-0.039
-557.471	-115.789	0.278	-0.052
-556.456	53.696	-0.142	0.136
-555.442	-200.000	0.018	0.172
-554.427	-200.000	0.009	-0.154
-553.412	208.010	-0.146	-0.227
-552.398	249.716	0.144	-0.243
-551.383	742.524	0.047	0.125
-550.369	800.000	-0.010	0.045
-549.354	-128.729	0.213	0.030
-548.339	63.452	0.266	0.266
-547.325	-200.000	0.036	-0.187
-546.310	57.193	0.206	0.200
-545.296	-200.000	0.001	-0.096
-544.281	528.355	-0.129	-0.302
-543.266	-176.269	0.569	0.015
-542.252	-13.388	0.053	0.034
-541.237	800.000	0.022	-0.093
-540.223	312.914	0.133	0.248
-539.208	-18.835	0.322	0.199
-538.193	-91.469	-0.080	-0.023
-537.179	-93.239	-0.057	0.016
-536.164	151.687	-0.043	0.058
-535.150	-24.662	0.169	-0.100
-534.135	-99.501	0.188	-0.047
-533.121	-64.627	-0.512	-0.207
-532.106	800.000	0.034	0.132
-531.091	-51.102	0.205	-0.096
-530.077	-200.000	0.014	0.146
-529.062	800.000	-0.051	0.178
-528.048	8.390	-0.140	0.105
-527.033	-72.417	0.112	-0.041
-526.018	-200.000	0.008	0.292
-525.004	-139.354	0.102	0.011
-523.989	-127.089	-0.179	0.026
-522.975	-24.190	0.326	-0.194
-521.960	23.132	0.207	-0.169
-520.945	-74.423	0.276	-0.099
-519.931	-13.683	-0.211	-0.136
-518.916	75.876	-0.026	0.028
-517.902	78.228	0.071	-0.075
-516.887	-200.000	-0.017	0.155
-515.872	106.902	0.123	0.145
-514.858	9.511	0.305	0.229
-513.843	-135.458	-0.274	0.032
-512.829	-200.000	-0.008	-0.048
-511.814	14.384	-0.103	0.080
-510.799	99.363	-0.129	-0.148
-509.785	566.812	0.027	-0.066
-508.770	-25.454	0.155	-0.091
-507.756	-35.886	0.253	0.136
-506.741	-154.238	-0.233	-0.016
-505.726	-123.959	0.438	0.069
-504.712	-200.000	0.050	0.386
-503.697	-22.499	-0.325	0.196
-502.683	-90.822	-0.057	-0.016
-501.668	-65.179	0.296	-0.119
-500.653	506.144	-0.088	0.203
-499.639	334.356	0.042	-0.081
-498.624	-38.890	0.092	0.048
-497.610	106.414	-0.080	0.094
-496.595	-200.000	0.015	0.210
-495.581	288.944	-0.016	0.029
-494.566	60.943	0.172	0.170
-493.551	-104.363	-0.139	0.032
-492.537	-200.000	-0.013	0.364
-491.522	-129.803	-0.102	-0.014
-490.508	-200.000	-0.001	0.026
-489.493	-155.110	-0.074	0.005
-488.478	-94.218	-0.217	-0.059
-487.464	308.624	-0.056	0.104
-486.449	800.000	-0.049	0.196
-485.435	123.423	0.360	-0.449
-484.420	-52.304	-0.042	-0.019
-483.405	-146.214	0.135	0.012
-482.391	312.933	-0.112	-0.209
-481.376	800.000	-0.040	0.116
-480.362	-94.580	-0.258	0.070
-479.347	723.858	0.083	0.219
-478.332	285.449	0.067	0.120
-477.318	-109.651	0.105	0.022
-476.303	-200.000	-0.082	-0.367
-475.289	-200.000	-0.002	0.181
-474.274	-40.536	-0.259	0.133
-473.259	132.702	-0.158	0.202
-472.245	-157.877	-0.186	0.011
-471.230	-200.000	-0.010	0.050
-470.216	132.476	-0.248	-0.318
-469.201	68.152	0.167	0.170
-468.186	189.047	-0.169	0.251
-467.172	179.822	0.144	0.209
-466.157	-149.083	-0.029	-0.002
-465.143	187.254	-0.077	0.114
-464.128	-51.897	-0.192	-0.088
-463.113	-200.000	0.028	0.259
-462.099	589.755	0.087	-0.212
-461.084	-200.000	-0.032	-0.223
-460.070	-121.995	0.158	-0.026
-459.055	26.737	-0.114	0.095
-458.040	351.442	-0.141	-0.277
-457.026	-1.774	-0.122	0.085
-456.011	169.798	0.299	-0.424
-454.997	800.000	-0.107	-0.307
-453.982	-74.198	0.356	-0.128
-452.968	-120.466	0.235	0.040
-451.953	14.512	-0.328	0.254
-450.938	-140.757	-0.056	0.006
-449.924	-96.776	-0.111	-0.029
-448.909	-11.698	-0.111	-0.072
-447.895	303.185	-0.084	-0.154
-446.880	-22.880	0.068	-0.041
-445.865	127.227	0.057	-0.072
-444.851	538.049	0.098	-0.231
-443.836	-156.233	0.080	0.005
-442.822	800.000	0.075	0.313
-441.807	212.034	0.102	0.159
-440.792	-200.000	0.029	-0.250
-439.778	117.757	0.145	-0.177
-438.763	-200.000	-0.039	-0.251
-437.749	-85.007	0.182	-0.057
-436.734	-200.000	-0.039	-0.224
-435.719	-107.461	0.038	0.008
-434.705	-200.000	-0.011	-0.398
-433.690	587.900	0.045	-0.110
-432.676	-200.000	-0.002	0.155
-431.661	141.037	-0.105	-0.137
-430.646	800.000	-0.083	0.285
-429.632	43.014	0.089	0.080
-428.617	-200.000	0.035	-0.191
-427.603	36.779	-0.170	0.149
-426.588	-9.675	0.246	-0.162
-425.573	-200.000	0.040	-0.317
-424.559	60.792	0.090	0.088
-423.544	-156.300	0.305	0.019
-422.530	-59.709	-0.097	0.041
-421.515	-0.704	-0.166	-0.117
-420.500	-132.410	-0.324	-0.041
-419.486	114.721	0.191	-0.231
-418.471	-89.189	-0.301	-0.088
-417.457	-170.298	-0.292	0.010
-416.442	658.029	0.157	0.399
-415.428	65.716	-0.162	0.163
-414.413	-200.000	-0.024	0.332
-413.398	800.000	0.015	-0.051
-412.384	7.411	0.251	-0.186
-411.369	-200.000	0.031	0.174
-410.355	-15.366	-0.362	0.229
-409.340	136.267	-0.163	0.210
-408.325	-177.012	0.254	-0.006
-407.311	493.445	0.144	-0.327
-406.296	-132.954	-0.182	-0.023
-405.282	-11.913	-0.255	0.166
-404.267	-140.668	0.247	-0.025
-403.252	13.554	-0.108	0.083
-402.238	800.000	0.052	-0.211
-401.223	291.264	-0.020	0.036
-400.209	-137.435	-0.124	-0.014
-399.194	174.246	-0.122	0.174
-398.179	-87.625	-0.300	0.090
-397.165	-112.994	0.033	0.006
-396.150	9.925	-0.058	-0.044
-395.136	189.026	-0.103	-0.153
-394.121	-57.366	-0.381	-0.166
-393.106	-200.000	0.022	0.121
-392.092	-200.000	0.011	0.081
-391.077	138.872	0.133	-0.173
-390.063	800.000	-0.111	0.345
-389.048	-137.463	-0.282	0.032
-388.033	-200.000	0.020	-0.208
-387.019	-200.000	0.030	-0.158
-386.004	-17.467	-0.164	0.102
-384.990	-200.000	-0.051	0.427
-383.975	7.701	-0.009	0.007
-382.960	498.705	-0.127	-0.289
-381.946	800.000	-0.041	-0.130
-380.931	-76.891	-0.165	-0.057
-379.917	190.739	0.070	0.104
-378.902	697.009	0.030	-0.079
-377.888	-98.926	0.030	-0.007
-376.873	800.000	0.032	-0.102
-375.858	-76.806	-0.212	-0.073
-374.844	-166.136	-0.086	-0.004
-373.829	-112.117	-0.157	-0.031
-372.815	-200.000	-0.054	-0.252
-371.800	-200.000	0.002	-0.343
-370.785	800.000	-0.072	0.300
-369.771	-53.624	-0.144	0.065
-368.756	294.431	-0.049	0.088
-367.742	-200.000	0.225	0.000
-366.727	-93.350	0.261	-0.072
-365.712	-200.000	0.037	0.178
-364.698	-127.512	-0.173	0.025
-363.683	-71.979	-0.052	-0.019
-362.669	-176.964	0.277	-0.007
-361.654	-11.728	-0.201	-0.130
-360.639	-34.702	0.097	-0.053
-359.625	232.018	0.062	0.101
-358.610	43.378	0.215	0.194
-357.596	-33.062	-0.029	0.016
-356.581	26.105	0.032	0.027
-355.566	-166.109	0.207	-0.009
-354.552	-101.351	-0.233	-0.056
-353.537	800.000	-0.127	-0.508
-352.523	201.857	-0.106	-0.162
-351.508	-156.907	0.214	-0.013
-350.493	194.097	0.060	-0.090
-349.479	-200.000	0.004	-0.098
-348.464	-200.000	-0.083	-0.430
-347.450	78.167	-0.151	0.159
-346.435	780.514	-0.045	-0.121
-345.420	-70.876	0.194	-0.072
-344.406	26.472	-0.243	0.201
-343.391	-200.000	-0.010	-0.196
-342.377	-101.738	-0.111	-0.027
-341.362	572.919	-0.064	0.155
-340.348	0.544	0.181	0.128
-339.333	-200.000	-0.020	0.166
-338.318	3.698	-0.090	0.065
-337.304	-115.519	0.187	0.035
-336.289	224.177	0.086	-0.137
-335.275	-200.000	-0.231	0.001
-334.260	281.941	0.154	0.272
-333.245	-200.000	-0.021	-0.166
-332.231	-7.184	0.140	-0.094
-331.216	111.955	-0.323	0.385
-330.202	800.000	-0.076	0.273
-329.187	69.045	0.026	-0.026
-328.172	800.000	0.163	0.451
-327.158	25.792	-0.262	0.216
-326.143	-33.236	0.064	-0.035
-325.129	-33.739	0.503	-0.274
-324.114	-75.293	-0.282	-0.099
-323.099	-64.897	-0.232	-0.093
-322.085	126.258	0.029	0.036
-321.070	-59.573	-0.091	-0.038
-320.056	800.000	-0.095	0.295
-319.041	-141.380	-0.263	0.026
-318.026	111.204	0.128	0.152
-317.012	-0.131	-0.036	-0.025
-315.997	77.335	-0.218	-0.229
-314.983	-114.104	0.182	0.035
-313.968	529.207	-0.080	0.187
-312.953	-14.510	0.324	-0.206
-311.939	86.372	-0.031	0.034
-310.924	743.425	-0.008	0.023
-309.910	800.000	-0.058	0.163
-308.895	32.254	-0.156	-0.133
-307.880	19.032	-0.209	0.165
-306.866	-47.668	0.358	0.172
-305.851	-30.761	0.062	-0.034
-304.837	-200.000	0.052	-0.357
-303.822	-85.483	0.068	0.021
-302.807	-200.000	-0.020	-0.143
-301.793	46.226	-0.193	0.176
-300.778	-56.158	0.066	-0.029
-299.764	43.456	-0.252	0.227
-298.749	62.398	0.221	-0.218
-297.735	-200.000	-0.006	0.237
-296.720	-168.044	-0.172	0.007
-295.705	-76.249	-0.040	0.014
-294.691	49.197	0.137	0.127
-293.676	764.072	-0.044	0.118
-292.662	800.000	0.082	0.240
-291.647	-103.374	-0.268	0.062
-290.632	-200.000	-0.027	0.257
-289.618	-18.267	-0.270	-0.167
-288.603	-152.664	-0.301	-0.021
-287.589	800.000	-0.064	-0.259
-286.574	800.000	0.059	-0.179
-285.559	-200.000	-0.032	-0.282
-284.545	-82.364	-0.513	-0.164
-283.530	-200.000	0.042	0.303
-282.516	-200.000	0.052	0.267
-281.501	18.022	-0.111	0.087
-280.486	218.663	-0.045	0.070
-279.472	-152.750	0.065	0.005
-278.457	82.395	0.172	-0.184
-277.443	-97.931	0.369	-0.094
-276.428	-193.690	-0.150	-0.001
-275.413	800.000	-0.068	-0.267
-274.399	-185.642	-0.214	-0.003
-273.384	-179.497	0.182	-0.004
-272.370	134.897	0.076	-0.097
-271.355	-135.801	0.046	-0.005
-270.340	82.650	-0.073	0.078
-269.326	-165.693	-0.180	0.008
-268.311	-17.331	-0.137	0.085
-267.297	-70.688	-0.151	0.056
-266.282	-200.000	0.025	0.158
-265.267	-51.535	-0.211	0.097
-264.253	-200.000	-0.012	-0.089
-263.238	800.000	0.056	0.201
-262.224	-105.065	-0.342	0.077
-261.209	-121.105	-0.120	0.020
-260.195	321.734	-0.103	0.194
-259.180	800.000	-0.050	0.174
-258.165	-80.883	0.337	0.110
-257.151	-200.000	0.205	-0.001
-256.136	-200.000	-0.004	-0.165
-255.122	563.483	0.067	0.161
-254.107	-16.725	-0.127	-0.079
-253.092	-97.888	0.358	-0.091
-252.078	119.240	-0.127	0.155
-251.063	-161.415	-0.124	-0.006
-250.049	-25.724	0.268	0.155
-249.034	341.095	0.175	0.336
-248.019	-57.773	0.035	-0.015
-247.005	-64.175	0.320	0.128
-245.990	235.833	-0.191	-0.310
-244.976	157.376	0.154	0.210
-243.961	-200.000	0.047	-0.379
-242.946	4.444	0.222	0.160
-241.932	425.577	-0.062	-0.132
-240.917	-165.264	0.122	0.005
-239.903	800.000	0.016	0.063
-238.888	-74.932	0.078	-0.028
-237.873	-177.001	0.135	0.003
-236.859	58.814	0.216	0.209
-235.844	-113.708	0.104	-0.020
-234.830	-97.005	0.293	0.075
-233.815	373.386	-0.053	0.105
-232.800	-200.000	-0.011	-0.049
-231.786	42.317	0.267	0.239
-230.771	-154.403	0.008	-0.001
-229.757	-200.000	-0.033	0.255
-228.742	12.555	-0.140	-0.107
-227.727	-57.642	0.114	0.049
-226.713	200.345	-0.099	-0.149
-225.698	-132.320	0.118	0.015
-224.684	-138.383	-0.350	0.038
-223.669	-103.499	0.307	0.071
-222.655	-149.346	-0.403	-0.032
-221.640	13.250	-0.134	0.102
-220.625	39.475	-0.332	-0.293
-219.611	-68.521	-0.146	0.056
-218.596	-1.377	-0.280	0.194
-217.582	800.000	0.076	0.323
-216.567	800.000	0.041	-0.165
-215.552	-33.382	0.353	-0.192
-214.538	526.141	-0.053	-0.122
-213.523	208.686	0.071	-0.109
-212.509	273.556	-0.134	0.234
-211.494	-200.000	-0.004	-0.287
-210.479	-141.987	0.057	0.006
-209.465	-29.710	0.132	-0.074
-208.450	-200.000	0.013	-0.140
-207.436	-200.000	-0.007	0.132
-206.421	-167.021	0.342	-0.014
-205.406	469.044	-0.138	-0.304
-204.392	800.000	-0.120	-0.416
-203.377	71.691	-0.178	0.182
-202.363	-200.000	0.064	-0.336
-201.348	-139.474	0.059	0.006
-200.333	74.853	0.180	-0.186
-199.319	-200.000	0.018	-0.303
-198.304	-200.000	0.035	-0.153
-197.290	400.686	-0.146	-0.302
-196.275	-200.000	-0.006	0.153
-195.260	-55.010	0.285	-0.126
-194.246	28.264	-0.130	-0.108
-193.231	84.107	0.208	-0.224
-192.217	67.631	0.077	-0.077
-191.202	64.464	0.295	0.292
-190.187	-200.000	0.010	0.054
-189.173	112.791	-0.160	0.191
-188.158	-200.000	-0.004	-0.168
-187.144	25.849	-0.196	-0.161
-186.129	396.233	-0.109	-0.223
-185.114	720.618	-0.056	0.146
-184.100	-94.867	-0.066	-0.017
-183.085	-64.510	-0.090	0.036
-182.071	-76.660	0.218	0.075
-181.056	-138.949	-0.086	0.009
-180.042	-148.080	-0.218	0.018
-179.027	26.611	0.064	0.053
-178.012	-138.918	0.136	0.014
-176.998	-12.089	-0.093	-0.060
-175.983	-33.891	-0.043	-0.023
-174.969	199.030	0.088	0.132
-173.954	56.837	-0.205	0.196
-172.939	800.000	0.032	0.091
-171.925	-99.777	0.061	-0.015
-170.910	-200.000	-0.023	-0.120
-169.896	-2.135	-0.102	0.070
-168.881	1.631	0.136	-0.096
-167.866	-160.878	0.458	0.024
-166.852	-200.000	-0.030	-0.361
-165.837	800.000	0.194	0.526
-164.823	-119.880	0.132	0.022
-163.808	-54.784	0.112	0.049
-162.793	224.514	-0.230	0.365
-161.779	-78.777	-0.182	-0.061
-160.764	105.644	0.098	0.114
-159.750	122.484	0.135	0.165
-158.735	-67.422	0.184	0.071
-157.720	100.180	-0.138	-0.157
-156.706	344.526	0.148	0.286
-155.691	111.544	0.155	-0.183
-154.677	-200.000	-0.001	-0.112
-153.662	-168.331	0.100	-0.004
-152.647	274.478	0.124	-0.216
-151.633	117.020	0.105	0.126
-150.618	53.494	0.234	-0.220
-149.604	-200.000	-0.045	-0.339
-148.589	-52.393	-0.184	0.083
-147.574	18.437	0.188	0.147
-146.560	3.825	0.218	0.156
-145.545	67.928	-0.162	-0.162
-144.531	-76.116	0.196	0.068
-143.516	800.000	0.070	-0.229
-142.502	800.000	-0.011	-0.031
-141.487	-102.146	-0.276	-0.065
-140.472	-111.390	0.054	0.011
-139.458	-149.152	0.243	0.019
-138.443	-22.376	-0.112	0.066
-137.429	-17.212	0.042	-0.026
-136.414	-10.517	0.071	0.046
-135.399	-159.624	-0.064	-0.003
-134.385	59.687	0.316	0.306
-133.370	-200.000	0.025	0.371
-132.356	-99.241	-0.290	-0.072
-131.341	-150.245	0.071	-0.005
-130.326	362.093	0.097	-0.191
-129.312	173.738	-0.078	-0.111
-128.297	-133.770	0.099	0.012
-127.283	-116.419	0.253	0.046
-126.268	59.712	-0.208	0.201
-125.253	483.206	-0.135	-0.301
-124.239	314.161	-0.006	-0.012
-123.224	340.769	0.081	0.155
-122.210	-132.601	-0.268	0.034
-121.195	-74.956	0.327	-0.115
-120.180	-34.110	-0.197	-0.106
-119.166	165.641	-0.136	0.189
-118.151	-120.282	0.060	-0.010
-117.137	-98.067	-0.205	0.052
-116.122	-53.152	0.261	0.118
-115.107	-108.423	0.125	0.026
-114.093	-84.826	-0.104	0.032
-113.078	-128.843	0.082	-0.011
-112.064	214.822	-0.121	-0.188
-111.049	-87.962	0.094	0.028
-110.034	99.048	-0.115	-0.130
-109.020	3.038	-0.315	-0.224
-108.005	-89.976	0.169	0.048
-106.991	-95.284	0.239	-0.063
-105.976	112.726	0.077	0.092
-104.962	800.000	0.018	-0.066
-103.947	-16.707	-0.261	0.161
-102.932	-71.354	0.146	-0.054
-101.918	0.475	0.050	0.035
-100.903	2.461	0.186	0.132
-99.889	219.626	-0.203	0.318
-98.874	-91.541	0.330	0.092
-97.859	28.624	0.123	-0.102
-96.845	177.289	-0.114	-0.162
-95.830	-114.838	-0.385	0.072
-94.816	48.772	0.082	-0.075
-93.801	-200.000	-0.028	0.155
-92.786	358.231	0.031	0.061
-91.772	550.596	-0.061	0.143
-90.757	-37.219	-0.377	0.197
-89.743	76.340	-0.096	-0.099
-88.728	800.000	-0.093	0.250
-87.713	-93.678	0.278	0.075
-86.699	800.000	-0.108	0.452
-85.684	297.519	0.053	0.096
-84.670	-170.052	0.424	-0.015
-83.655	52.951	0.200	0.187
-82.640	-26.638	0.065	-0.037
-81.626	800.000	0.059	-0.187
-80.611	192.824	0.256	-0.378
-79.597	57.652	-0.171	0.163
-78.582	-153.438	0.299	-0.020
-77.567	-200.000	-0.124	-0.605
-76.553	-1.646	-0.189	-0.130
-75.538	-62.449	-0.179	-0.073
-74.524	-49.679	0.090	0.042
-73.509	17.083	-0.265	-0.206
-72.494	-99.012	0.181	0.045
-71.480	3.284	0.193	0.137
-70.465	-164.371	0.082	0.004
-69.451	-200.000	-0.059	0.429
-68.436	187.256	-0.060	-0.088
-67.422	800.000	0.049	0.183
-66.407	-200.000	-0.034	0.233
-65.392	-200.000	-0.001	-0.255
-64.378	195.262	0.044	-0.065
-63.363	-90.396	-0.228	0.065
-62.349	-57.760	0.308	-0.132
-61.334	78.048	-0.971	-1.012
-60.319	112.969	0.658	0.780
-59.305	800.000	-0.327	-1.209
-58.290	416.275	0.585	1.219
-57.276	800.000	0.552	1.651
-56.261	-200.000	117.788	620.710
-55.246	408.132	1557.531	3218.364
-54.232	140.151	2740.717	3531.380
-53.217	98.813	2190.070	2469.290
-52.203	37.654	1617.791	1402.851
-51.188	29.087	1358.721	1126.030
-50.173	26.143	1320.132	1076.479
-49.159	51.250	1379.585	1278.933
-48.144	49.637	1392.307	1280.847
-47.130	29.151	1346.046	1115.731
-46.115	25.825	1328.579	1081.285
-45.100	25.720	1323.631	1076.586
-44.086	25.592	1320.818	1073.495
-43.071	25.613	1318.299	1071.527
-42.057	25.515	1316.590	1069.515
-41.042	25.651	1314.484	1068.570
-40.027	25.616	1313.233	1067.302
-39.013	25.617	1311.185	1065.598
-37.998	25.662	1309.303	1064.294
-36.984	25.721	1307.327	1062.993
-35.969	25.752	1305.858	1061.941
-34.954	25.773	1303.921	1060.446
-33.940	25.711	1302.778	1059.111
-32.925	25.868	1300.945	1058.504
-31.911	25.785	1299.531	1056.823
-30.896	25.910	1297.922	1056.205
-29.881	25.883	1296.697	1055.005
-28.867	25.815	1295.392	1053.505
-27.852	25.811	1294.256	1052.517
-26.838	25.860	1292.459	1051.299
-25.823	25.855	1291.327	1050.310
-24.809	25.685	1290.379	1048.504
-23.794	25.783	1288.988	1047.905
-22.779	25.825	1287.272	1046.712
-21.765	25.791	1285.802	1045.274
-20.750	25.842	1284.678	1044.618
-19.736	25.742	1283.435	1042.988
-18.721	25.716	1282.324	1041.891
-17.706	25.774	1280.850	1040.989
-16.692	25.713	1279.917	1039.836
-15.677	25.659	1278.947	1038.692
-14.663	25.685	1277.590	1037.700
-13.648	25.726	1276.409	1036.934
-12.633	25.708	1275.246	1035.846
-11.619	25.615	1275.091	1035.144
-10.604	25.667	1273.754	1034.317
-9.590	25.622	1273.018	1033.417
-8.575	25.679	1271.929	1032.824
-7.560	25.668	1271.252	1032.167
-6.546	25.620	1270.259	1031.045
-5.531	25.649	1269.424	1030.495
-4.517	25.575	1268.771	1029.498
-3.502	25.707	1267.520	1029.198
-2.487	25.615	1266.841	1028.081
-1.473	25.755	1262.550	1025.351
-0.458	24.530	1247.895	1006.510
0.556	20.259	1233.022	971.145
1.571	16.736	1240.596	957.146
2.586	15.953	1256.428	964.792
3.600	15.736	1244.239	954.119
4.615	11.565	1170.686	875.330
5.629	4.354	1096.865	783.747
6.644	0.980	1079.408	754.420
7.659	0.731	1076.987	751.422
8.673	0.749	1076.062	750.802
9.688	0.800	1074.161	749.662
10.702	1.036	1072.258	749.433
11.717	5.277	1077.224	773.879
12.731	12.267	1086.353	815.185
13.746	16.470	1091.741	840.088
14.761	17.302	1092.678	844.868
15.775	16.622	1090.740	839.924
16.790	15.610	1089.007	833.497
17.804	15.001	1087.680	829.388
18.819	14.655	1086.295	826.544
19.834	14.365	1085.308	824.286
20.848	14.091	1084.685	822.386
21.863	13.850	1083.311	820.084
22.877	13.706	1082.729	818.858
23.892	13.649	1081.883	817.862
24.907	13.676	1081.233	817.431
25.921	13.738	1080.509	817.119
26.936	13.724	1079.460	816.186
27.950	13.856	1078.597	816.109
28.965	13.863	1077.237	815.043
29.980	13.946	1075.830	814.313
30.994	13.926	1074.884	813.428
32.009	14.022	1073.793	812.997
33.023	13.942	1073.037	811.964
34.038	13.918	1071.895	810.911
35.053	13.811	1071.142	809.748
36.067	13.732	1070.212	808.585
37.082	13.852	1069.136	808.287
38.096	13.870	1069.148	808.312
39.111	13.821	1068.088	807.202
40.126	13.875	1066.489	806.181
41.140	13.757	1065.705	804.944
42.155	13.682	1064.553	803.642
43.169	13.808	1063.319	803.250
44.184	13.606	1062.553	801.621
45.199	13.705	1061.410	801.166
46.213	13.755	1060.020	800.286
47.228	13.705	1059.271	799.411
48.242	13.860	1058.193	799.274
49.257	13.762	1057.172	797.959
50.271	13.714	1056.630	797.250
51.286	13.875	1055.246	796.906
52.301	13.808	1054.378	795.860
53.315	13.687	1053.590	794.615
54.330	13.794	1052.339	794.114
55.344	13.691	1051.647	793.028
56.359	13.751	1050.425	792.325
57.374	13.776	1049.718	791.838
58.388	13.590	1048.664	790.085
59.403	13.691	1047.958	789.967
60.417	13.646	1047.266	789.160
61.432	13.614	1046.606	788.441
62.447	13.559	1045.582	787.338
63.461	13.658	1044.754	787.115
64.476	13.601	1043.860	786.100
65.490	13.665	1042.569	785.365
66.505	13.600	1042.647	785.043
67.520	13.674	1041.466	784.439
68.534	13.786	1040.420	784.107
69.549	13.744	1039.711	783.308
70.563	13.615	1039.263	782.290
71.578	13.687	1038.281	781.823
72.593	13.534	1037.961	780.789
73.607	13.613	1036.589	780.059
74.622	13.653	1036.061	779.782
75.636	13.597	1035.580	779.089
76.651	13.637	1034.722	778.560
77.666	13.624	1033.777	777.719
78.680	13.565	1033.644	777.277
79.695	13.658	1032.803	777.010
80.709	13.677	1032.311	776.661
81.724	13.793	1031.307	776.377
82.739	13.734	1030.831	775.677
83.753	13.725	1030.021	774.958
84.768	13.851	1028.591	774.397
85.782	13.844	1027.856	773.747
86.797	13.813	1027.126	772.983
87.812	13.842	1026.035	772.227
88.826	13.671	1025.301	770.810
89.841	13.835	1024.251	770.714
90.855	13.790	1023.380	769.785
91.870	13.736	1022.615	768.889
92.884	13.913	1021.635	768.906
93.899	13.857	1020.808	767.955
94.914	14.027	1019.644	767.799
95.928	13.975	1018.990	766.999
96.943	13.809	1018.396	765.715
97.957	13.884	1017.367	765.221
98.972	13.773	1016.974	764.346
99.987	13.853	1015.969	763.888
101.001	13.845	1014.332	762.557
102.016	13.756	1014.133	761.929
103.030	13.870	1012.897	761.455
104.045	13.838	1012.331	760.818
105.060	13.850	1011.551	760.218
106.074	13.668	1010.807	758.760
107.089	13.776	1009.831	758.451
108.103	13.747	1008.446	757.212
109.118	13.784	1007.743	756.789
110.133	13.813	1006.648	756.031
111.147	13.765	1006.060	755.304
112.162	13.771	1004.870	754.370
113.176	13.815	1004.404	754.151
114.191	13.828	1003.501	753.466
115.206	13.807	1002.923	752.873
116.220	13.717	1002.317	751.942
117.235	13.728	1000.938	750.891
118.249	13.806	1000.396	750.772
119.264	13.779	999.507	749.917
120.279	13.801	998.845	749.453
121.293	13.888	997.297	748.615
122.308	13.833	996.974	748.061
123.322	13.809	995.810	747.012
124.337	13.836	995.161	746.580
125.352	13.815	993.766	745.372
126.366	13.830	992.553	744.465
127.381	13.762	991.329	743.178
128.395	13.774	990.915	742.855
129.410	13.844	989.910	742.350
130.424	13.853	988.810	741.497
131.439	13.883	988.102	741.037
132.454	13.991	986.977	740.607
133.468	13.916	986.396	739.771
134.483	13.812	986.001	738.947
135.497	13.802	985.045	738.122
136.512	13.973	983.655	737.774
137.527	13.965	983.090	737.251
138.541	13.893	982.320	736.286
139.556	13.981	982.130	736.469
140.570	14.009	980.939	735.633
141.585	14.011	980.364	735.149
142.600	14.082	979.376	734.657
143.614	14.076	978.423	733.848
144.629	14.168	977.562	733.542
145.643	14.122	976.502	732.482
146.658	14.042	975.621	731.403
147.673	13.982	974.686	730.375
148.687	14.075	973.802	730.057
149.702	13.983	973.094	729.056
150.716	13.978	972.537	728.555
151.731	13.971	971.930	728.002
152.746	13.990	971.058	727.369
153.760	13.964	970.430	726.722
154.775	14.083	969.902	726.779
155.789	14.076	969.238	726.189
156.804	14.252	968.065	726.013
157.819	14.179	967.767	725.408
158.833	14.085	967.126	724.450
159.848	14.246	965.847	724.131
160.862	14.156	964.967	723.017
161.877	14.089	964.134	722.038
162.892	14.042	963.359	721.191
163.906	14.163	962.163	720.752
164.921	14.046	961.360	719.581
165.935	14.028	960.870	719.072
166.950	13.988	960.276	718.391
167.964	14.252	958.587	718.203
168.979	14.201	957.694	717.252
169.994	14.151	957.107	716.533
171.008	14.157	956.372	715.947
172.023	14.300	955.571	715.898
173.037	14.400	954.555	715.501
174.052	14.276	954.368	714.767
175.067	14.268	953.769	714.222
176.081	14.094	953.033	712.861
177.096	14.126	952.670	712.664
178.110	14.306	951.693	712.638
179.125	14.253	951.202	711.982
180.140	14.190	950.797	711.347
181.154	14.170	950.470	710.956
182.169	14.389	949.857	711.368
183.183	14.493	948.880	711.015
184.198	14.293	948.566	709.867
185.213	14.372	947.555	709.384
186.227	14.469	946.770	709.145
187.242	14.469	946.148	708.614
188.256	14.422	945.677	707.999
189.271	14.411	944.662	707.131
190.286	14.390	943.959	706.452
191.300	14.202	943.720	705.413
192.315	14.182	942.903	704.659
193.329	14.492	942.086	705.297
194.344	14.296	941.858	704.233
195.359	14.480	940.925	704.252
196.373	14.463	940.495	703.795
197.388	14.466	939.876	703.282
198.402	14.548	939.396	703.206
199.417	14.523	938.979	702.728
200.432	14.636	938.393	702.700
201.446	14.611	937.496	701.862
202.461	14.660	937.456	701.979
203.475	14.756	936.695	701.747
204.490	14.732	935.722	700.855
205.504	14.717	934.811	700.051
206.519	14.620	934.455	699.314
207.534	14.760	933.158	698.868
208.548	14.660	932.934	698.219
209.563	14.745	932.218	697.976
210.577	14.658	931.488	697.008
211.592	14.873	930.661	697.224
212.607	14.721	930.338	696.285
213.621	14.804	929.289	695.783
214.636	14.823	928.230	695.010
215.650	14.817	927.831	694.624
216.665	14.787	927.257	694.007
217.680	14.790	926.766	693.593
218.694	14.958	925.657	693.396
219.709	14.959	924.650	692.583
220.723	14.879	924.808	692.310
221.738	14.895	923.790	691.554
222.753	14.924	923.351	691.286
223.767	15.088	922.238	691.064
224.782	15.010	922.330	690.751
225.796	14.945	921.782	690.013
226.811	15.105	920.582	689.713
227.826	15.035	920.303	689.152
228.840	15.030	919.352	688.360
229.855	15.074	918.477	687.826
230.869	15.076	917.599	687.116
231.884	15.002	917.142	686.408
232.899	15.023	916.571	686.005
233.913	14.938	916.282	685.382
234.928	15.102	914.925	684.976
235.942	15.002	914.717	684.350
236.957	15.087	914.150	684.214
237.972	15.061	913.509	683.567
238.986	15.091	912.731	683.047
240.001	15.095	912.209	682.610
241.015	15.157	911.511	682.283
242.030	15.222	910.558	681.774
243.045	15.108	910.136	680.932
244.059	15.274	909.183	680.836
245.074	15.123	909.007	680.027
246.088	15.156	908.155	679.465
247.103	15.169	907.590	679.033
248.117	15.053	907.289	678.280
249.132	15.278	906.567	678.589
250.147	15.312	905.585	677.934
251.161	15.513	904.826	678.116
252.176	15.439	904.521	677.528
253.190	15.436	903.555	676.732
254.205	15.420	903.073	676.248
255.220	15.389	902.198	675.410
256.234	15.412	901.372	674.823
257.249	15.518	900.857	674.802
258.263	15.357	900.365	673.728
259.278	15.466	899.467	673.433
260.293	15.543	899.052	673.372
261.307	15.578	898.230	672.838
262.322	15.629	897.396	672.357
263.336	15.822	896.466	672.372
264.351	15.762	895.694	671.493
265.366	15.698	895.613	671.117
266.380	15.732	894.857	670.629
267.395	15.600	894.636	669.878
268.409	15.699	893.230	669.158
269.424	15.855	892.482	669.162
270.439	15.694	891.661	667.845
271.453	15.682	891.102	667.320
272.468	15.820	890.817	667.597
273.482	15.940	890.094	667.469
274.497	15.758	889.784	666.458
275.512	15.919	888.616	666.163
276.526	15.845	888.573	665.775
277.541	15.740	888.516	665.259
278.555	15.939	887.813	665.460
279.570	16.010	886.599	664.773
280.585	16.004	885.746	664.051
281.599	15.880	885.327	663.189
282.614	15.803	885.015	662.595
283.628	16.018	883.680	662.379
284.643	15.933	883.603	661.929
285.657	15.988	882.722	661.426
286.672	16.006	882.223	661.064
287.687	15.973	881.279	660.170
288.701	16.054	881.132	660.321
289.716	16.084	880.166	659.654
290.730	16.061	879.760	659.203
291.745	16.004	879.235	658.526
292.760	16.106	878.894	658.613
293.774	16.106	878.120	657.975
294.789	16.201	877.148	657.556
295.803	16.164	876.377	656.775
296.818	15.990	876.050	655.798
297.833	16.157	875.145	655.710
298.847	16.167	874.460	655.179
299.862	16.167	874.321	655.018
300.876	16.077	873.428	653.941
301.891	16.163	872.992	653.888
302.906	16.262	872.616	653.935
303.920	16.298	871.810	653.409
304.935	16.412	870.666	652.935
305.949	16.418	870.121	652.493
306.964	16.417	869.736	652.143
307.979	16.333	869.238	651.389
308.993	16.494	868.739	651.574
310.008	16.358	868.241	650.619
311.022	16.416	867.565	650.278
312.037	16.401	867.247	649.928
313.052	16.508	866.247	649.532
314.066	16.373	866.042	648.801
315.081	16.485	865.057	648.434
316.095	16.366	864.600	647.580
317.110	16.462	864.129	647.538
318.125	16.462	863.882	647.293
319.139	16.429	863.317	646.686
320.154	16.442	862.932	646.391
321.168	16.505	862.326	646.121
322.183	16.465	861.857	645.560
323.197	16.533	861.162	645.243
324.212	16.490	860.626	644.617
325.227	16.430	860.136	643.965
326.241	16.487	859.766	643.848
327.256	16.505	859.021	643.305
328.270	16.632	858.498	643.336
329.285	16.436	858.186	642.303
330.300	16.559	857.120	641.914
331.314	16.588	856.693	641.647
332.329	16.649	855.909	641.234
333.343	16.644	855.636	640.955
334.358	16.720	854.857	640.602
335.373	16.586	855.053	640.183
336.387	16.663	854.883	640.292
337.402	16.685	854.954	640.371
338.416	16.689	853.863	639.513
339.431	16.780	853.507	639.533
340.446	16.935	852.628	639.403
341.460	16.747	853.140	639.021
342.475	16.888	851.895	638.563
343.489	16.917	851.576	638.376
344.504	17.029	851.132	638.410
345.519	16.841	850.680	637.307
346.533	16.811	850.310	636.859
347.548	16.935	849.655	636.779
348.562	16.911	849.430	636.462
349.577	16.797	848.792	635.503
350.592	16.864	847.832	634.977
351.606	16.872	847.312	634.562
352.621	17.000	846.422	634.317
353.635	17.102	845.891	634.243
354.650	16.988	845.549	633.508
355.665	16.974	844.622	632.703
356.679	16.984	844.331	632.468
357.694	17.100	843.226	632.014
358.708	17.061	842.685	631.408
359.723	17.004	842.525	631.020
360.738	17.030	841.824	630.535
361.752	17.287	840.847	630.701
362.767	17.150	840.340	629.757
363.781	17.148	840.074	629.496
364.796	17.237	839.583	629.403
365.810	17.282	839.030	629.099
366.825	17.315	839.066	629.191
367.840	17.329	838.189	628.529
368.854	17.356	837.708	628.213
369.869	17.313	837.513	627.852
370.883	17.322	837.035	627.471
371.898	17.332	836.736	627.231
372.913	17.412	836.061	626.964
373.927	17.332	835.728	626.362
374.942	17.582	834.705	626.462
375.956	17.422	834.725	625.833
376.971	17.459	834.037	625.398
377.986	17.547	833.702	625.411
379.000	17.385	833.552	624.651
380.015	17.655	832.608	624.878
381.029	17.649	832.102	624.420
382.044	17.615	831.573	623.842
383.059	17.700	830.706	623.448
384.073	17.540	830.470	622.631
385.088	17.630	829.997	622.551
386.102	17.423	829.805	621.596
387.117	17.615	828.957	621.607
388.132	17.682	828.292	621.298
389.146	17.692	827.622	620.774
390.161	17.725	826.993	620.369
391.175	17.731	826.543	620.000
392.190	17.767	826.284	619.880
393.205	17.625	826.103	619.174
394.219	17.710	825.601	619.052
395.234	17.653	825.146	618.448
396.248	17.614	824.875	618.051
397.263	17.706	824.549	618.082
398.278	17.656	823.948	617.398
399.292	17.528	823.800	616.767
400.307	17.715	822.903	616.717
401.321	17.812	822.339	616.592
402.336	17.741	821.870	615.928
403.350	17.837	821.338	615.822
404.365	17.982	820.947	615.999
405.380	17.853	820.342	615.025
406.394	17.819	820.194	614.738
407.409	17.877	819.697	614.519
408.423	17.869	819.416	614.225
409.438	17.898	819.141	614.069
410.453	18.065	817.927	613.703
411.467	17.897	818.070	613.155
412.482	18.118	817.380	613.374
413.496	18.084	817.125	613.009
414.511	18.088	816.841	612.753
415.526	18.054	816.177	612.082
416.540	18.062	815.897	611.845
417.555	18.156	815.430	611.778
418.569	18.008	815.387	611.160
419.584	18.144	814.791	611.148
420.599	18.247	814.145	610.974
421.613	113.837	1298.392	1483.779
422.628	98.544	1368.943	1483.874
