DTS Sentinel unit serial number:	SN413079Multiplexer serial number:	ORYXHardware model number:	OX4-SRSoftware version number:	ORYX F/W v4.00 Oryx Data Collector v3.7.2.0data status	okinstallation	princeton_trtdifferential loss correction	single-endedforward channel	channel 1reverse channel	N/Adate	2019/09/12time	05:36:11forward acquisition time	60.00reverse acquisition time	0.00gamma	496.2192k internal	0.2321k external	0.2321temperature offset calibration	1.0048default loss term (dB/km)	0.3790temperature slope calibration	1.0000multiplexer offset coefficient	1.0000multiplexer slope coefficient	1.0000fibre end	0.00T internal ref (°C)	31.97T ext. ref 1 (°C)	1.60T ext. ref 2 (°C)	27.51length (m)	temperature (°C)	Stokes	anti-Stokes-747.200	-106.207	0.078	0.018
-746.185	-194.907	-0.350	-0.003
-745.171	-200.000	-0.011	-0.060
-744.156	169.143	-0.268	0.387
-743.142	-28.978	0.385	0.223
-742.127	800.000	-0.073	0.271
-741.112	800.000	-0.037	-0.151
-740.098	194.434	-0.249	0.382
-739.083	17.746	0.080	0.064
-738.069	235.305	-0.052	0.087
-737.054	-200.000	0.013	-0.313
-736.039	222.079	0.040	0.064
-735.025	-200.000	0.036	0.298
-734.010	800.000	-0.074	0.265
-732.996	-64.462	-0.169	0.069
-731.981	-200.000	0.012	-0.093
-730.966	171.794	-0.060	-0.087
-729.952	-154.171	0.172	-0.012
-728.937	35.127	0.067	0.059
-727.923	800.000	-0.059	-0.200
-726.908	214.589	-0.100	-0.160
-725.894	-200.000	0.000	0.290
-724.879	47.243	-0.445	0.418
-723.864	-172.508	-0.201	-0.006
-722.850	7.152	-0.216	-0.163
-721.835	-28.632	-0.273	-0.159
-720.821	132.369	-0.191	0.249
-719.806	-87.925	-0.376	-0.114
-718.791	-157.231	-0.133	-0.008
-717.777	-200.000	0.027	0.138
-716.762	294.612	0.093	0.172
-715.748	205.395	0.071	0.112
-714.733	-97.509	0.067	-0.017
-713.718	347.481	-0.064	0.127
-712.704	-62.174	0.227	0.095
-711.689	180.770	0.121	-0.179
-710.675	-39.229	-0.484	-0.256
-709.660	-104.886	-0.078	-0.018
-708.645	-200.000	-0.004	0.207
-707.631	-81.008	-0.071	-0.024
-706.616	800.000	-0.086	0.280
-705.602	-200.000	0.034	0.155
-704.587	800.000	0.007	-0.020
-703.572	-87.820	-0.107	-0.033
-702.558	-200.000	-0.008	0.175
-701.543	-146.715	-0.333	0.029
-700.529	-200.000	-0.035	-0.339
-699.514	-200.000	-0.013	-0.071
-698.499	-38.351	-0.032	-0.017
-697.485	-200.000	0.033	-0.155
-696.470	347.783	-0.136	-0.271
-695.456	-1.022	-0.154	-0.110
-694.441	471.724	-0.080	0.182
-693.426	-200.000	-0.080	-0.386
-692.412	438.545	-0.078	-0.172
-691.397	54.423	0.156	-0.151
-690.383	93.416	-0.038	-0.043
-689.368	113.132	0.137	-0.167
-688.354	330.486	0.098	-0.191
-687.339	286.809	-0.068	-0.125
-686.324	4.528	0.242	0.179
-685.310	33.975	0.153	0.134
-684.295	800.000	-0.030	-0.112
-683.281	-125.531	0.215	-0.033
-682.266	-106.056	-0.107	0.024
-681.251	-187.273	-0.213	0.003
-680.237	277.720	-0.023	-0.040
-679.222	499.245	-0.013	-0.031
-678.208	-80.306	-0.429	0.145
-677.193	149.897	0.031	0.043
-676.178	800.000	-0.057	-0.247
-675.164	-99.619	0.333	-0.084
-674.149	-45.111	0.278	-0.140
-673.135	-200.000	0.052	-0.404
-672.120	-200.000	0.059	-0.409
-671.105	-173.246	-0.302	0.009
-670.091	-74.766	-0.241	-0.087
-669.076	-200.000	-0.030	0.156
-668.062	569.281	0.030	-0.074
-667.047	-48.501	-0.354	-0.172
-666.032	-159.199	0.406	0.023
-665.018	-200.000	-0.034	-0.215
-664.003	-7.754	-0.076	-0.052
-662.989	-113.818	-0.035	0.007
-661.974	-7.164	0.444	0.304
-660.959	-200.000	0.001	0.126
-659.945	-200.000	0.020	-0.115
-658.930	-26.766	-0.248	-0.146
-657.916	785.742	-0.024	-0.068
-656.901	-52.522	0.168	0.078
-655.886	6.352	-0.031	-0.023
-654.872	78.506	-0.099	0.107
-653.857	800.000	-0.032	0.103
-652.843	-0.469	0.298	-0.213
-651.828	179.161	-0.208	-0.306
-650.814	-200.000	0.027	-0.189
-649.799	-79.389	0.142	-0.049
-648.784	54.597	-0.266	-0.258
-647.770	800.000	-0.058	0.253
-646.755	-13.739	-0.219	0.143
-645.741	800.000	-0.009	-0.027
-644.726	438.437	0.186	0.409
-643.711	516.942	0.105	0.248
-642.697	131.873	0.164	-0.213
-641.682	19.280	-0.197	-0.159
-640.668	800.000	0.048	-0.162
-639.653	710.985	0.022	0.059
-638.638	5.882	-0.285	0.213
-637.624	70.039	-0.199	-0.206
-636.609	-200.000	0.079	-0.434
-635.595	71.273	-0.078	0.082
-634.580	311.182	-0.046	-0.087
-633.565	27.337	0.066	-0.055
-632.551	190.459	-0.171	-0.259
-631.536	-200.000	0.013	0.099
-630.522	216.790	0.090	0.144
-629.507	-126.954	0.421	0.062
-628.492	568.202	0.089	0.217
-627.478	-15.848	-0.213	0.136
-626.463	-173.310	0.134	0.004
-625.449	-200.000	-0.030	-0.526
-624.434	-94.984	-0.127	-0.035
-623.419	67.857	0.188	0.194
-622.405	-104.499	0.048	-0.011
-621.390	314.585	0.041	-0.078
-620.376	125.906	-0.120	0.152
-619.361	18.428	-0.068	0.055
-618.346	418.759	-0.071	0.152
-617.332	20.361	-0.333	-0.270
-616.317	-148.914	0.332	-0.027
-615.303	-3.299	0.282	-0.198
-614.288	263.798	0.126	-0.221
-613.273	-17.240	0.346	0.219
-612.259	800.000	-0.050	-0.154
-611.244	-129.211	-0.061	-0.009
-610.230	-124.752	-0.430	0.067
-609.215	115.538	0.151	-0.186
-608.201	156.316	0.151	0.209
-607.186	800.000	0.051	0.211
-606.171	114.696	-0.084	0.102
-605.157	59.507	0.078	0.078
-604.142	14.752	0.173	0.136
-603.128	-95.614	-0.262	-0.070
-602.113	-150.831	-0.209	-0.016
-601.098	-200.000	0.006	-0.089
-600.084	800.000	0.131	-0.415
-599.069	-200.000	-0.077	0.511
-598.055	-90.702	0.150	-0.044
-597.040	255.150	0.118	-0.204
-596.025	219.670	-0.075	0.121
-595.011	-166.791	-0.185	-0.008
-593.996	506.079	-0.116	-0.270
-592.982	-200.000	0.005	0.337
-591.967	263.942	-0.063	-0.110
-590.952	502.503	0.194	-0.451
-589.938	29.194	-0.012	-0.010
-588.923	-54.016	-0.102	-0.046
-587.909	800.000	0.038	0.131
-586.894	55.531	0.153	-0.148
-585.879	534.633	0.032	-0.076
-584.865	800.000	-0.037	0.146
-583.850	-40.333	0.292	-0.153
-582.836	359.666	-0.054	0.109
-581.821	102.703	-0.079	0.092
-580.806	281.553	-0.043	0.077
-579.792	-82.615	0.262	-0.085
-578.777	800.000	-0.070	-0.210
-577.763	38.753	0.265	-0.237
-576.748	217.969	0.121	0.195
-575.733	800.000	-0.105	-0.313
-574.719	50.953	-0.079	0.075
-573.704	-1.675	-0.377	0.266
-572.690	800.000	0.130	0.425
-571.675	329.324	0.063	0.122
-570.661	-126.957	-0.206	-0.030
-569.646	391.058	0.121	0.252
-568.631	-156.987	0.164	-0.010
-567.617	-175.750	-0.240	0.006
-566.602	-200.000	0.004	0.339
-565.588	185.538	0.066	0.098
-564.573	-67.974	-0.400	-0.157
-563.558	-200.000	-0.038	-0.253
-562.544	303.447	-0.041	0.076
-561.529	-200.000	-0.004	-0.043
-560.515	-111.143	-0.101	-0.021
-559.500	-1.414	-0.232	-0.164
-558.485	60.377	-0.101	0.100
-557.471	-200.000	-0.006	-0.122
-556.456	-146.170	-0.322	0.028
-555.442	-66.436	0.129	0.051
-554.427	25.037	-0.115	0.096
-553.412	243.621	0.115	0.193
-552.398	-31.421	-0.102	-0.058
-551.383	726.636	-0.091	0.243
-550.369	800.000	-0.077	-0.217
-549.354	-162.872	0.321	0.016
-548.339	800.000	-0.082	-0.302
-547.325	-97.827	0.206	-0.053
-546.310	-140.107	-0.187	-0.020
-545.296	-23.576	0.427	-0.257
-544.281	-30.789	0.184	-0.104
-543.266	108.706	-0.071	0.085
-542.252	-128.125	0.187	0.027
-541.237	664.849	0.062	0.161
-540.223	800.000	0.058	-0.199
-539.208	258.000	-0.118	-0.203
-538.193	-200.000	0.012	-0.287
-537.179	9.222	-0.062	-0.047
-536.164	-8.424	-0.093	0.063
-535.150	-116.265	-0.350	0.065
-534.135	31.231	-0.422	-0.363
-533.121	-15.702	0.146	0.093
-532.106	-104.655	0.324	-0.075
-531.091	-200.000	0.000	0.259
-530.077	-144.203	0.357	0.033
-529.062	63.143	0.298	-0.300
-528.048	192.638	0.076	0.114
-527.033	-41.060	0.118	0.061
-526.018	190.305	0.155	0.233
-525.004	-123.403	-0.382	0.061
-523.989	-162.735	0.058	0.003
-522.975	183.492	0.128	-0.190
-521.960	187.946	-0.182	-0.273
-520.945	-33.296	-0.328	0.182
-519.931	431.011	-0.105	-0.227
-518.916	746.526	0.078	0.210
-517.902	25.067	0.201	0.167
-516.887	48.705	-0.074	-0.070
-515.872	-63.445	0.173	-0.071
-514.858	107.299	-0.130	0.155
-513.843	800.000	-0.010	-0.036
-512.829	-200.000	-0.022	-0.120
-511.814	-200.000	-0.032	-0.485
-510.799	-122.286	-0.248	-0.041
-509.785	-39.989	-0.134	0.070
-508.770	800.000	0.051	-0.140
-507.756	366.833	0.171	-0.345
-506.741	800.000	-0.027	-0.117
-505.726	-42.141	0.083	0.042
-504.712	-4.485	0.082	-0.057
-503.697	-45.979	-0.339	0.167
-502.683	44.925	0.047	-0.043
-501.668	-200.000	0.008	-0.136
-500.653	12.045	-0.034	0.026
-499.639	-156.757	0.045	-0.003
-498.624	3.872	-0.068	0.049
-497.610	-200.000	-0.034	0.191
-496.595	310.116	-0.120	-0.224
-495.581	206.222	-0.127	-0.198
-494.566	-134.369	0.372	-0.046
-493.551	-200.000	-0.314	0.000
-492.537	800.000	0.032	0.110
-491.522	-200.000	0.020	-0.266
-490.508	-47.435	-0.061	-0.030
-489.493	26.652	-0.132	0.111
-488.478	117.638	-0.025	-0.031
-487.464	-49.428	-0.258	-0.123
-486.449	58.216	-0.124	0.122
-485.435	-5.524	-0.124	0.085
-484.420	-200.000	-0.014	0.081
-483.405	-102.370	-0.142	-0.034
-482.391	-65.951	0.051	-0.020
-481.376	-33.297	0.053	0.029
-480.362	-10.036	0.066	0.044
-479.347	33.849	-0.094	-0.082
-478.332	800.000	-0.019	0.057
-477.318	-108.867	-0.185	-0.040
-476.303	-138.270	0.246	-0.027
-475.289	-200.000	0.019	0.178
-474.274	-123.049	-0.427	-0.069
-473.259	-173.292	0.043	-0.001
-472.245	-122.518	0.134	0.022
-471.230	-104.561	-0.302	-0.070
-470.216	132.582	-0.012	0.015
-469.201	-52.996	-0.262	0.121
-468.186	6.540	-0.193	-0.144
-467.172	275.144	0.056	-0.098
-466.157	-47.915	0.168	-0.081
-465.143	-200.000	-0.001	0.076
-464.128	-200.000	0.001	-0.104
-463.113	-200.000	-0.012	0.061
-462.099	-200.000	0.025	0.237
-461.084	65.294	0.106	-0.108
-460.070	-44.643	-0.107	-0.054
-459.055	-200.000	-0.001	0.128
-458.040	-5.585	0.155	0.106
-457.026	-116.727	0.268	0.049
-456.011	-33.202	0.031	-0.017
-454.997	-93.514	-0.106	0.029
-453.982	249.195	-0.172	0.292
-452.968	42.553	-0.138	-0.125
-451.953	-124.824	-0.457	-0.071
-450.938	800.000	0.020	-0.077
-449.924	174.809	-0.055	0.080
-448.909	-200.000	0.038	-0.205
-447.895	-117.738	0.066	0.012
-446.880	64.658	-0.242	0.244
-445.865	282.754	-0.192	0.344
-444.851	-119.273	-0.237	-0.041
-443.836	-200.000	-0.020	-0.281
-442.822	585.818	-0.068	0.168
-441.807	95.883	-0.235	-0.268
-440.792	-200.000	-0.059	-0.342
-439.778	-83.590	-0.225	-0.072
-438.763	-64.082	-0.093	-0.038
-437.749	-8.145	0.209	0.141
-436.734	800.000	-0.073	0.227
-435.719	-200.000	0.000	0.179
-434.705	-102.579	0.094	0.022
-433.690	-170.902	0.251	0.009
-432.676	-200.000	-0.024	0.306
-431.661	152.768	-0.163	0.223
-430.646	124.871	0.100	0.126
-429.632	-117.145	-0.153	-0.028
-428.617	388.645	0.121	0.250
-427.603	98.052	0.185	-0.212
-426.588	490.870	0.089	0.204
-425.573	237.183	-0.067	-0.110
-424.559	482.059	0.101	-0.228
-423.544	533.097	0.054	0.128
-422.530	363.098	0.038	0.077
-421.515	31.944	0.266	-0.228
-420.500	4.457	-0.148	0.108
-419.486	-53.662	0.389	0.177
-418.471	97.521	0.222	0.255
-417.457	38.063	-0.152	0.135
-416.442	-200.000	0.013	-0.495
-415.428	800.000	0.076	0.292
-414.413	57.132	-0.092	0.090
-413.398	140.185	-0.114	-0.151
-412.384	800.000	0.088	-0.365
-411.369	-122.336	0.217	-0.035
-410.355	-148.287	-0.170	0.014
-409.340	182.834	-0.114	-0.167
-408.325	162.867	-0.052	-0.073
-407.311	-44.437	0.358	0.179
-406.296	-104.656	-0.166	0.038
-405.282	-62.699	0.301	0.124
-404.267	-150.245	-0.130	-0.010
-403.252	683.125	0.076	0.198
-402.238	21.821	-0.313	0.255
-401.223	-200.000	0.015	0.118
-400.209	-8.784	0.327	-0.218
-399.194	-23.676	-0.250	-0.149
-398.179	-26.457	0.182	-0.107
-397.165	141.440	-0.060	-0.079
-396.150	-200.000	-0.024	0.133
-395.136	-78.657	0.460	0.157
-394.121	15.918	0.105	0.083
-393.106	415.164	-0.044	-0.093
-392.092	-91.805	-0.349	-0.099
-391.077	782.353	-0.041	-0.111
-390.063	-128.381	0.086	0.012
-389.048	-1.666	0.192	-0.135
-388.033	135.610	-0.114	-0.148
-387.019	-200.000	-0.022	-0.137
-386.004	318.004	-0.051	-0.097
-384.990	-130.574	0.166	-0.022
-383.975	-139.377	-0.225	0.024
-382.960	3.059	-0.171	-0.124
-381.946	-89.132	-0.086	-0.025
-380.931	461.100	-0.074	-0.165
-379.917	-36.346	-0.119	-0.064
-378.902	-23.744	0.417	0.249
-377.888	168.379	-0.139	-0.197
-376.873	-137.362	-0.271	-0.031
-375.858	436.750	-0.085	-0.184
-374.844	243.219	0.070	-0.116
-373.829	22.644	-0.223	-0.182
-372.815	46.074	-0.237	0.219
-371.800	-200.000	0.043	0.269
-370.785	-161.769	0.175	0.009
-369.771	-118.009	0.031	-0.006
-368.756	197.087	0.075	-0.113
-367.742	58.412	0.095	0.093
-366.727	-47.927	0.147	0.071
-365.712	800.000	-0.037	0.151
-364.698	-47.187	-0.300	-0.146
-363.683	501.586	-0.016	0.038
-362.669	-200.000	0.008	-0.039
-361.654	-135.408	-0.140	-0.017
-360.639	-69.563	0.055	-0.021
-359.625	-37.532	0.191	-0.101
-358.610	162.526	-0.081	0.113
-357.596	644.295	-0.104	-0.264
-356.581	671.643	0.047	0.121
-355.566	48.569	-0.100	-0.093
-354.552	-161.708	-0.139	0.007
-353.537	125.468	0.050	-0.063
-352.523	-43.769	0.354	0.177
-351.508	-200.000	-0.047	0.209
-350.493	541.315	0.123	-0.291
-349.479	71.393	0.044	-0.046
-348.464	-52.667	-0.164	-0.075
-347.450	265.010	0.167	-0.290
-346.435	-200.000	-0.033	-0.453
-345.420	-112.866	0.148	0.029
-344.406	-39.527	0.152	-0.079
-343.391	-62.349	-0.294	-0.122
-342.377	-120.325	-0.322	-0.055
-341.362	128.528	0.084	-0.106
-340.348	-100.222	0.159	-0.039
-339.333	313.888	-0.040	-0.074
-338.318	-200.000	0.010	0.183
-337.304	27.376	-0.285	0.238
-336.289	531.368	-0.072	-0.170
-335.275	52.268	0.164	0.155
-334.260	-200.000	0.016	-0.164
-333.245	56.226	-0.156	0.151
-332.231	-200.000	-0.035	-0.341
-331.216	-42.229	-0.178	-0.091
-330.202	159.524	-0.044	0.060
-329.187	-200.000	0.009	-0.056
-328.172	-200.000	0.016	-0.343
-327.158	-90.508	-0.160	-0.046
-326.143	577.912	0.082	0.200
-325.129	528.387	-0.054	-0.126
-324.114	-3.397	-0.082	0.057
-323.099	-200.000	-0.031	0.182
-322.085	262.674	0.095	-0.163
-321.070	97.199	0.187	0.213
-320.056	29.645	0.276	-0.234
-319.041	-37.826	0.102	-0.054
-318.026	588.543	0.049	-0.121
-317.012	631.051	-0.126	-0.317
-315.997	-130.296	0.124	-0.017
-314.983	-200.000	0.034	0.263
-313.968	8.708	-0.210	-0.157
-312.953	-55.828	0.296	0.131
-311.939	54.496	0.117	0.112
-310.924	-200.000	0.086	0.403
-309.910	147.391	-0.151	-0.201
-308.895	-46.718	-0.295	0.143
-307.880	48.982	-0.158	-0.147
-306.866	-17.281	-0.261	0.163
-305.851	200.261	0.170	0.259
-304.837	161.386	-0.231	-0.320
-303.822	-76.797	0.296	-0.103
-302.807	-75.326	0.323	0.114
-301.793	546.806	0.066	0.158
-300.778	-200.000	0.003	-0.093
-299.764	-81.288	-0.332	0.109
-298.749	-89.898	0.073	-0.021
-297.735	490.927	0.059	0.135
-296.720	800.000	-0.132	0.435
-295.705	-106.834	0.526	0.116
-294.691	54.547	-0.254	-0.243
-293.676	205.179	-0.120	0.185
-292.662	-200.000	-0.033	0.146
-291.647	-200.000	0.004	-0.211
-290.632	-87.369	-0.141	0.042
-289.618	-200.000	0.016	0.086
-288.603	-200.000	-0.011	-0.152
-287.589	12.977	-0.141	-0.108
-286.574	-200.000	0.019	0.087
-285.559	675.970	0.080	-0.206
-284.545	-85.563	-0.270	0.083
-283.530	-200.000	0.012	0.275
-282.516	-140.243	0.270	0.028
-281.501	-120.061	-0.239	0.041
-280.486	-112.097	-0.239	0.048
-279.472	103.208	0.110	0.128
-278.457	-22.386	0.242	-0.145
-277.443	-109.248	-0.263	-0.055
-276.428	800.000	0.077	0.332
-275.413	-200.000	-0.002	-0.095
-274.399	73.093	0.279	-0.289
-273.384	-134.405	-0.384	-0.047
-272.370	-13.188	0.103	0.067
-271.355	-167.981	-0.171	0.007
-270.340	-105.037	0.440	0.100
-269.326	660.214	-0.070	0.179
-268.311	-125.199	0.229	0.035
-267.297	-26.051	-0.297	-0.173
-266.282	-75.429	0.158	0.056
-265.267	254.968	-0.126	0.214
-264.253	230.292	0.067	0.108
-263.238	430.473	0.133	-0.287
-262.224	19.219	-0.228	-0.182
-261.209	298.791	-0.118	0.215
-260.195	12.587	0.158	-0.121
-259.180	-31.584	0.254	0.141
-258.165	148.098	-0.268	-0.359
-257.151	-200.000	-0.041	0.241
-256.136	-200.000	-0.023	-0.191
-255.122	-147.030	-0.133	-0.011
-254.107	-42.713	0.094	0.047
-253.092	-146.080	-0.350	-0.031
-252.078	-38.311	-0.383	0.201
-251.063	135.611	0.080	0.103
-250.049	-70.500	0.403	-0.151
-249.034	-23.053	0.229	0.137
-248.019	-200.000	0.005	0.374
-247.005	-173.228	0.317	0.010
-245.990	-136.758	0.387	-0.044
-244.976	147.614	0.209	-0.279
-243.961	-83.750	-0.217	0.069
-242.946	82.093	0.112	-0.121
-241.932	800.000	0.051	0.209
-240.917	-94.652	0.159	-0.043
-239.903	106.091	-0.206	0.241
-238.888	18.359	-0.208	-0.165
-237.873	-62.430	0.264	-0.109
-236.859	137.815	-0.093	0.120
-235.844	266.347	-0.063	0.108
-234.830	5.444	-0.403	-0.295
-233.815	-162.542	0.525	-0.026
-232.800	-31.573	-0.123	-0.069
-231.786	-47.488	-0.254	0.122
-230.771	80.933	0.087	0.093
-229.757	535.730	-0.057	-0.134
-228.742	-58.377	-0.220	0.095
-227.727	-126.963	0.537	0.078
-226.713	-115.106	-0.266	0.050
-225.698	441.791	0.033	0.071
-224.684	-81.006	0.150	0.049
-223.669	-200.000	-0.044	-0.205
-222.655	-30.489	0.081	0.046
-221.640	-82.667	0.262	0.084
-220.625	800.000	-0.114	0.331
-219.611	27.659	-0.056	0.047
-218.596	-200.000	0.026	-0.159
-217.582	-116.213	0.248	-0.046
-216.567	800.000	0.010	0.042
-215.552	-93.795	0.338	0.092
-214.538	-200.000	0.037	0.161
-213.523	800.000	0.109	-0.333
-212.509	-200.000	0.026	-0.316
-211.494	-119.055	0.100	-0.017
-210.479	302.413	0.117	-0.214
-209.465	98.252	-0.124	-0.141
-208.450	-129.179	-0.351	-0.048
-207.436	237.820	0.170	-0.279
-206.421	-84.003	0.196	0.062
-205.406	28.633	-0.098	0.082
-204.392	5.752	0.124	-0.091
-203.377	-109.700	0.179	-0.037
-202.363	67.913	0.117	0.119
-201.348	177.330	0.194	0.280
-200.333	800.000	0.007	0.021
-199.319	543.184	-0.112	-0.264
-198.304	590.905	-0.142	0.346
-197.290	-123.435	0.361	-0.057
-196.275	524.382	-0.152	0.354
-195.260	-200.000	0.055	0.311
-194.246	-95.743	-0.105	-0.028
-193.231	-200.000	-0.107	0.000
-192.217	713.463	-0.019	-0.049
-191.202	180.676	0.230	0.334
-190.187	-200.000	-0.015	0.126
-189.173	409.646	-0.038	0.079
-188.158	-72.661	0.134	-0.049
-187.144	339.989	0.125	0.241
-186.129	-42.651	-0.192	0.096
-185.114	-200.000	-0.042	0.255
-184.100	-56.618	0.130	0.057
-183.085	-71.357	0.040	-0.015
-182.071	800.000	-0.074	0.218
-181.056	309.481	0.098	0.181
-180.042	233.720	0.137	-0.223
-179.027	-18.980	-0.146	0.090
-178.012	-87.477	0.054	-0.016
-176.998	-200.000	0.015	-0.319
-175.983	-120.163	0.252	-0.043
-174.969	545.657	0.043	-0.101
-173.954	-30.534	-0.107	0.060
-172.939	137.500	0.384	0.496
-171.925	800.000	-0.110	0.327
-170.910	-135.244	0.160	-0.019
-169.896	41.223	0.128	-0.114
-168.881	-157.951	-0.152	-0.009
-167.866	166.066	0.166	0.232
-166.852	491.612	-0.105	-0.237
-165.837	-88.060	0.039	0.012
-164.823	800.000	-0.045	-0.164
-163.808	-14.952	0.226	-0.143
-162.793	-153.754	0.141	0.010
-161.779	54.354	-0.132	0.125
-160.764	432.822	0.080	-0.171
-159.750	-200.000	0.039	0.257
-158.735	167.781	0.060	0.084
-157.720	20.801	-0.164	-0.131
-156.706	78.927	-0.173	-0.183
-155.691	-200.000	-0.050	0.257
-154.677	423.333	0.090	0.191
-153.662	653.266	-0.039	0.099
-152.647	-89.952	0.260	0.075
-151.633	-200.000	-0.014	0.131
-150.618	263.471	-0.109	0.186
-149.604	604.348	-0.124	-0.304
-148.589	0.539	0.270	0.190
-147.574	110.084	-0.172	-0.204
-146.560	-200.000	0.007	-0.075
-145.545	-200.000	0.011	-0.216
-144.531	186.276	0.066	0.096
-143.516	-129.553	-0.132	-0.018
-142.502	-21.200	-0.178	-0.107
-141.487	10.019	-0.198	-0.149
-140.472	800.000	0.121	-0.430
-139.458	-5.766	-0.113	-0.076
-138.443	-200.000	-0.060	0.285
-137.429	-94.527	0.161	0.043
-136.414	-200.000	-0.023	0.572
-135.399	44.001	-0.071	-0.064
-134.385	-200.000	-0.022	0.120
-133.370	-24.141	-0.155	0.091
-132.356	-152.661	0.042	-0.003
-131.341	50.043	-0.247	-0.230
-130.326	233.902	0.072	-0.116
-129.312	-193.447	-0.267	-0.002
-128.297	-200.000	-0.008	0.122
-127.283	-6.949	-0.186	0.125
-126.268	-107.631	0.060	-0.013
-125.253	800.000	-0.052	-0.154
-124.239	-111.681	0.402	0.080
-123.224	-7.075	-0.197	0.132
-122.210	-200.000	-0.009	0.107
-121.195	-20.206	0.359	0.218
-120.180	-200.000	-0.003	0.261
-119.166	-42.506	-0.266	0.134
-118.151	800.000	0.028	0.114
-117.137	19.275	-0.085	-0.067
-116.122	316.661	-0.054	0.100
-115.107	554.522	-0.158	-0.374
-114.093	800.000	0.085	0.357
-113.078	166.567	-0.064	-0.089
-112.064	-200.000	0.037	-0.393
-111.049	0.376	0.415	-0.292
-110.034	800.000	0.035	-0.145
-109.020	-60.170	0.036	0.015
-108.005	-15.742	-0.111	-0.070
-106.991	107.277	0.276	0.323
-105.976	233.136	0.099	0.160
-104.962	34.467	0.228	-0.196
-103.947	-127.669	-0.475	0.068
-102.932	69.901	0.073	-0.074
-101.918	-18.729	0.197	-0.121
-100.903	261.031	-0.145	-0.247
-99.889	-200.000	-0.003	0.034
-98.874	19.636	-0.170	-0.134
-97.859	-111.087	0.060	0.012
-96.845	240.659	0.140	0.230
-95.830	379.465	0.079	-0.159
-94.816	800.000	-0.034	-0.103
-93.801	544.580	-0.088	-0.208
-92.786	800.000	0.062	-0.230
-91.772	392.966	-0.122	-0.251
-90.757	346.521	-0.218	0.423
-89.743	172.003	0.235	0.333
-88.728	599.268	0.053	-0.130
-87.713	-170.177	-0.120	0.004
-86.699	27.420	-0.119	0.099
-85.684	-78.187	-0.116	-0.039
-84.670	33.537	0.131	0.112
-83.655	50.860	0.084	0.078
-82.640	464.677	0.139	-0.307
-81.626	398.062	0.113	-0.232
-80.611	-200.000	0.029	-0.326
-79.597	-200.000	-0.032	-0.251
-78.582	256.685	0.099	0.167
-77.567	377.041	0.135	0.272
-76.553	800.000	0.058	-0.205
-75.538	-13.501	-0.313	-0.200
-74.524	124.821	0.107	-0.133
-73.509	93.677	-0.137	0.153
-72.494	-200.000	0.009	-0.296
-71.480	74.106	0.164	-0.169
-70.465	-116.003	0.174	-0.032
-69.451	-6.688	-0.225	0.151
-68.436	-0.553	0.162	0.113
-67.422	-200.000	0.039	0.355
-66.407	40.523	-0.134	-0.119
-65.392	282.776	-0.073	-0.129
-64.378	-200.000	0.040	-0.212
-63.363	151.191	0.186	0.249
-62.349	-29.571	0.164	-0.092
-61.334	83.886	-0.683	-0.733
-60.319	-25.102	0.612	0.357
-59.305	800.000	-0.240	-0.722
-58.290	400.375	0.624	1.288
-57.276	444.563	0.789	1.703
-56.261	-200.000	96.115	600.574
-55.246	568.925	1370.541	3277.213
-54.232	161.752	2547.887	3508.897
-53.217	114.112	2139.227	2560.192
-52.203	44.035	1601.524	1444.058
-51.188	35.497	1339.849	1156.898
-50.173	32.261	1297.975	1101.768
-49.159	55.167	1345.347	1279.000
-48.144	57.487	1361.532	1308.134
-47.130	35.808	1320.291	1141.675
-46.115	32.167	1303.171	1105.449
-45.100	31.903	1298.546	1099.934
-44.086	31.899	1296.015	1097.725
-43.071	31.865	1293.168	1095.070
-42.057	31.796	1291.534	1093.243
-41.042	31.925	1289.194	1091.969
-40.027	31.922	1287.845	1090.764
-39.013	31.838	1286.387	1088.998
-37.998	31.830	1284.358	1087.191
-36.984	31.995	1282.680	1086.684
-35.969	32.058	1280.854	1085.457
-34.954	32.055	1279.302	1084.081
-33.940	31.909	1278.123	1082.199
-32.925	32.019	1276.273	1081.225
-31.911	32.045	1275.197	1080.415
-30.896	32.022	1273.737	1079.007
-29.881	32.192	1271.798	1078.297
-28.867	32.140	1270.600	1076.940
-27.852	32.126	1269.146	1075.585
-26.838	32.148	1267.922	1074.631
-25.823	32.047	1266.702	1072.978
-24.809	31.994	1265.537	1071.646
-23.794	31.968	1264.363	1070.459
-22.779	32.074	1263.084	1069.939
-21.765	32.059	1261.562	1068.521
-20.750	32.010	1260.338	1067.160
-19.736	32.110	1258.663	1066.272
-18.721	31.900	1257.995	1064.468
-17.706	31.837	1257.215	1063.410
-16.692	31.994	1255.124	1062.486
-15.677	31.875	1254.392	1061.156
-14.663	31.974	1253.213	1060.674
-13.648	31.862	1251.867	1058.858
-12.633	31.906	1251.017	1058.347
-11.619	31.861	1250.526	1057.639
-10.604	31.871	1249.657	1056.913
-9.590	31.881	1248.227	1055.721
-8.575	31.851	1247.371	1054.788
-7.560	31.866	1246.714	1054.270
-6.546	31.961	1245.776	1053.974
-5.531	31.888	1244.776	1052.674
-4.517	31.977	1243.774	1052.286
-3.502	31.856	1243.118	1051.011
-2.487	31.835	1242.190	1050.066
-1.473	31.957	1237.746	1046.950
-0.458	30.511	1223.501	1026.871
0.556	27.231	1206.727	991.653
1.571	23.804	1212.287	977.327
2.586	22.996	1227.315	984.852
3.600	22.459	1216.373	973.017
4.615	15.829	1142.686	879.464
5.629	5.926	1066.231	772.043
6.644	1.846	1046.527	737.980
7.659	1.710	1043.088	734.833
8.673	1.468	1042.526	733.204
9.688	1.377	1040.911	731.566
10.702	1.621	1039.395	731.609
11.717	7.559	1047.572	766.009
12.731	17.767	1062.486	826.559
13.746	23.661	1069.838	860.875
14.761	24.817	1070.871	867.240
15.775	24.867	1070.665	867.234
16.790	24.706	1069.550	865.475
17.804	24.622	1069.099	864.631
18.819	24.692	1068.455	864.371
19.834	24.877	1068.072	864.877
20.848	25.012	1067.335	864.858
21.863	24.754	1067.864	863.962
22.877	24.679	1067.036	862.855
23.892	24.689	1066.016	862.002
24.907	24.805	1065.537	862.097
25.921	24.883	1064.186	861.305
26.936	24.828	1062.517	859.612
27.950	24.732	1061.326	858.111
28.965	24.671	1059.264	856.078
29.980	24.770	1057.932	855.396
30.994	24.838	1057.529	855.318
32.009	24.870	1056.310	854.412
33.023	24.685	1054.710	852.162
34.038	24.744	1054.281	852.021
35.053	24.861	1053.673	852.009
36.067	24.803	1052.585	850.781
37.082	24.887	1052.190	850.785
38.096	25.106	1051.322	851.045
39.111	25.195	1050.567	850.781
40.126	24.985	1049.074	848.501
41.140	24.531	1047.605	845.091
42.155	24.483	1046.184	843.642
43.169	24.496	1045.201	842.838
44.184	24.460	1044.461	841.998
45.199	24.523	1042.980	841.027
46.213	24.561	1042.192	840.493
47.228	24.636	1042.093	840.694
48.242	24.544	1041.419	839.643
49.257	24.719	1040.192	839.400
50.271	24.860	1039.640	839.541
51.286	24.827	1038.964	838.766
52.301	24.989	1037.477	838.250
53.315	24.895	1036.821	837.205
54.330	24.832	1036.035	836.203
55.344	24.813	1035.090	835.277
56.359	24.684	1034.759	834.334
57.374	24.664	1033.118	832.845
58.388	24.537	1033.083	832.149
59.403	24.413	1031.862	830.517
60.417	24.482	1031.127	830.173
61.432	24.436	1030.610	829.470
62.447	24.671	1029.405	829.517
63.461	24.713	1029.124	829.413
64.476	24.508	1027.884	827.387
65.490	24.509	1026.990	826.603
66.505	24.519	1026.342	826.055
67.520	24.677	1025.493	826.026
68.534	24.427	1024.547	824.039
69.549	24.008	1023.359	821.075
70.563	24.129	1022.620	820.966
71.578	24.021	1021.718	819.673
72.593	23.902	1020.986	818.468
73.607	24.149	1020.447	819.100
74.622	24.455	1020.251	820.276
75.636	24.307	1019.628	819.023
76.651	24.308	1018.688	818.199
77.666	24.176	1017.912	816.898
78.680	24.228	1017.562	816.783
79.695	24.337	1016.407	816.284
80.709	24.520	1015.954	816.682
81.724	24.364	1015.356	815.418
82.739	24.434	1014.403	814.902
83.753	24.979	1013.746	816.786
84.768	25.075	1013.187	816.703
85.782	25.103	1012.490	816.194
86.797	25.052	1011.054	814.734
87.812	24.936	1010.538	813.718
88.826	25.121	1009.595	813.724
89.841	25.154	1008.639	813.034
90.855	25.188	1007.602	812.280
91.870	25.077	1007.125	811.321
92.884	24.938	1005.707	809.481
93.899	24.896	1004.997	808.644
94.914	25.091	1004.165	808.786
95.928	24.879	1003.147	806.939
96.943	24.669	1001.845	804.874
97.957	24.496	1000.761	803.153
98.972	24.317	999.795	801.501
99.987	24.598	999.218	802.230
101.001	24.786	998.523	802.443
102.016	24.865	997.504	801.910
103.030	24.722	996.744	800.585
104.045	24.596	995.614	799.046
105.060	24.358	994.894	797.334
106.074	24.623	994.195	797.885
107.089	24.923	993.983	798.984
108.103	24.790	992.623	797.229
109.118	24.561	991.237	795.023
110.133	24.485	990.321	793.880
111.147	24.362	989.250	792.406
112.162	24.217	988.304	790.934
113.176	24.621	987.472	791.991
114.191	24.520	986.723	790.874
115.206	24.189	985.814	788.608
116.220	24.186	984.878	787.775
117.235	24.455	983.883	788.101
118.249	24.365	983.203	787.088
119.264	24.178	982.994	786.025
120.279	24.196	982.141	785.352
121.293	24.307	981.241	785.054
122.308	24.192	980.549	783.923
123.322	24.210	979.544	783.132
124.337	24.000	978.202	781.068
125.352	23.639	976.684	778.204
126.366	23.618	975.494	777.092
127.381	24.267	976.198	780.427
128.395	24.574	975.733	781.329
129.410	24.730	974.339	780.829
130.424	24.793	973.406	780.284
131.439	24.706	973.073	779.568
132.454	24.703	971.814	778.478
133.468	24.825	970.776	778.108
134.483	24.776	970.249	777.405
135.497	24.958	969.408	777.453
136.512	25.043	968.642	777.137
137.527	25.067	967.775	776.478
138.541	25.089	966.597	775.559
139.556	25.016	966.424	775.035
140.570	25.108	965.677	774.766
141.585	25.079	964.358	773.516
142.600	25.034	963.509	772.569
143.614	25.281	962.759	772.963
144.629	25.392	962.165	772.895
145.643	25.241	961.092	771.316
146.658	25.047	959.556	769.182
147.673	24.970	958.628	768.043
148.687	24.923	957.719	767.044
149.702	24.929	956.484	766.014
150.716	24.818	955.903	765.004
151.731	24.991	955.453	765.318
152.746	25.093	954.985	765.312
153.760	25.244	954.016	765.108
154.775	25.248	953.673	764.782
155.789	25.220	953.275	764.278
156.804	25.173	951.871	762.885
157.819	25.209	951.170	762.408
158.833	25.350	950.549	762.443
159.848	25.305	949.650	761.461
160.862	25.200	947.996	759.624
161.877	25.019	947.618	758.489
162.892	25.284	946.276	758.468
163.906	25.125	945.708	757.274
164.921	25.120	944.807	756.462
165.935	25.290	943.802	756.309
166.950	25.272	942.805	755.368
167.964	25.234	942.041	754.526
168.979	25.048	940.996	752.843
169.994	25.000	940.151	751.897
171.008	25.292	939.263	752.348
172.023	25.335	938.489	751.841
173.037	25.058	937.800	750.060
174.052	24.807	936.646	748.023
175.067	24.884	936.272	747.980
176.081	24.989	935.536	747.763
177.096	25.068	934.812	747.448
178.110	24.669	934.236	745.260
179.125	24.502	933.211	743.681
180.140	24.571	933.181	743.876
181.154	24.865	932.814	744.741
182.169	24.881	932.796	744.729
183.183	25.184	932.315	745.537
184.198	25.162	931.071	744.388
185.213	25.003	930.575	743.263
186.227	25.224	929.717	743.430
187.242	25.152	928.979	742.475
188.256	25.305	928.283	742.486
189.271	25.140	928.052	741.554
190.286	24.928	926.803	739.616
191.300	24.353	924.968	735.715
192.315	23.536	923.635	731.224
193.329	23.628	922.913	730.963
194.344	24.510	923.726	735.176
195.359	25.085	923.568	737.354
196.373	25.113	922.849	736.830
197.388	24.952	922.700	735.985
198.402	25.046	922.102	735.828
199.417	25.006	921.414	735.047
200.432	24.809	920.540	733.477
201.446	24.678	919.748	732.244
202.461	24.705	919.002	731.696
203.475	23.864	917.278	726.826
204.490	23.129	915.857	722.631
205.504	23.981	916.403	726.480
206.519	24.578	916.298	728.768
207.534	24.782	916.046	729.334
208.548	25.192	915.710	730.673
209.563	24.828	914.818	728.415
210.577	24.924	913.816	727.944
211.592	25.371	913.611	729.533
212.607	25.432	912.714	729.001
213.621	25.209	912.233	727.646
214.636	25.229	911.697	727.235
215.650	25.123	910.893	726.100
216.665	25.337	910.690	726.739
217.680	25.386	909.298	725.762
218.694	24.858	908.604	723.013
219.709	24.832	907.361	721.854
220.723	24.957	907.531	722.431
221.738	25.122	906.768	722.423
222.753	25.012	906.405	721.628
223.767	25.211	905.967	722.017
224.782	25.319	906.030	722.439
225.796	25.233	904.777	721.028
226.811	24.709	903.489	717.837
227.826	24.156	901.807	714.221
228.840	24.303	901.910	714.829
229.855	24.377	901.169	714.471
230.869	23.896	900.130	711.661
231.884	24.393	899.997	713.482
232.899	25.170	900.113	716.617
233.913	24.965	899.469	715.219
234.928	25.002	898.874	714.830
235.942	24.840	898.221	713.602
236.957	24.723	897.348	712.380
237.972	24.758	896.469	711.759
238.986	24.816	896.273	711.773
240.001	24.785	895.854	711.252
241.015	24.928	895.245	711.275
242.030	24.927	894.898	710.933
243.045	25.086	894.295	711.020
244.059	25.253	894.026	711.406
245.074	24.937	893.182	709.418
246.088	24.687	892.281	707.652
247.103	24.961	891.689	708.204
248.117	25.479	891.790	710.269
249.132	25.855	891.568	711.514
250.147	25.858	891.054	711.054
251.161	25.991	890.428	711.015
252.176	26.101	889.567	710.698
253.190	26.079	889.330	710.359
254.205	26.199	888.893	710.421
255.220	26.203	888.388	709.968
256.234	25.869	887.565	707.936
257.249	25.789	886.788	706.941
258.263	25.871	885.978	706.552
259.278	26.018	885.374	706.585
260.293	26.167	884.652	706.529
261.307	25.908	884.241	705.126
262.322	25.707	883.558	703.733
263.336	24.791	881.832	698.721
264.351	23.921	879.666	693.551
265.366	24.221	879.393	694.444
266.380	25.260	880.172	699.047
267.395	25.652	879.866	700.266
268.409	25.624	878.819	699.261
269.424	25.737	878.598	699.464
270.439	25.746	878.282	699.185
271.453	25.868	877.394	698.891
272.468	25.996	877.639	699.518
273.482	26.099	876.784	699.175
274.497	25.705	875.502	696.566
275.512	25.181	874.926	694.022
276.526	25.630	875.113	695.845
277.541	25.801	874.476	695.936
278.555	25.598	873.444	694.271
279.570	25.438	873.058	693.287
280.585	25.694	872.353	693.652
281.599	25.606	871.325	692.432
282.614	24.962	870.338	689.110
283.628	25.103	869.371	688.825
284.643	25.346	869.353	689.686
285.657	24.949	867.975	687.006
286.672	24.758	867.223	685.621
287.687	25.267	867.298	687.568
288.701	25.438	866.766	687.742
289.716	25.119	865.937	685.801
290.730	24.983	865.380	684.780
291.745	24.781	864.397	683.172
292.760	25.053	864.400	684.151
293.774	26.004	864.679	687.943
294.789	26.373	864.371	689.041
295.803	26.456	863.859	688.888
296.818	26.431	862.986	688.038
297.833	25.952	862.085	685.437
298.847	25.956	861.300	684.766
299.862	26.261	861.028	685.649
300.876	26.458	860.952	686.273
301.891	26.274	859.905	684.683
302.906	25.831	859.220	682.396
303.920	25.989	859.036	682.791
304.935	26.461	858.532	684.112
305.949	26.436	858.171	683.672
306.964	25.992	857.134	681.108
307.979	26.002	857.050	681.020
308.993	26.455	856.741	682.423
310.008	26.428	855.986	681.659
311.022	26.124	855.317	679.921
312.037	25.957	854.650	678.703
313.052	25.888	853.438	677.420
314.066	25.001	851.905	672.815
315.081	24.587	851.467	670.853
316.095	25.454	852.007	674.475
317.110	25.935	851.747	676.014
318.125	25.107	849.699	671.232
319.139	24.017	848.627	666.246
320.154	23.967	848.525	665.920
321.168	24.966	848.715	669.748
322.183	25.661	849.294	672.744
323.197	25.861	848.468	672.777
324.212	26.088	848.089	673.267
325.227	26.089	847.566	672.793
326.241	25.913	846.692	671.385
327.256	25.848	846.031	670.560
328.270	25.740	845.431	669.623
329.285	25.572	844.743	668.394
330.300	25.395	844.001	667.092
331.314	25.617	843.895	667.772
332.329	26.045	843.739	669.180
333.343	26.127	843.354	669.117
334.358	26.216	842.685	668.858
335.373	26.191	842.350	668.441
336.387	26.430	842.463	669.355
337.402	26.557	842.368	669.691
338.416	26.743	841.572	669.686
339.431	26.582	841.891	669.285
340.446	26.887	841.255	669.847
341.460	26.659	840.850	668.623
342.475	26.562	840.107	667.613
343.489	26.592	839.977	667.564
344.504	26.928	839.656	668.486
345.519	27.064	839.478	668.788
346.533	27.108	838.794	668.346
347.548	27.100	838.177	667.763
348.562	27.070	837.560	667.103
349.577	26.845	837.026	665.792
350.592	26.836	836.633	665.389
351.606	26.889	835.712	664.793
352.621	26.836	834.911	663.903
353.635	26.654	834.037	662.482
354.650	26.005	832.534	658.859
355.665	25.053	831.062	654.163
356.679	25.506	831.231	655.892
357.694	26.085	830.613	657.459
358.708	25.818	830.337	656.208
359.723	26.312	830.043	657.717
360.738	26.739	829.238	658.570
361.752	26.635	829.262	658.153
362.767	27.053	828.802	659.249
363.781	27.312	828.945	660.244
364.796	27.247	828.334	659.463
365.810	27.308	828.331	659.623
366.825	27.314	827.650	659.045
367.840	27.066	826.514	657.184
368.854	26.596	826.011	655.026
369.869	26.612	825.511	654.630
370.883	26.759	825.035	654.725
371.898	26.578	824.531	653.615
372.913	26.694	824.394	653.867
373.927	26.861	823.651	653.821
374.942	27.036	823.338	654.146
375.956	26.969	823.471	653.951
376.971	27.357	822.568	654.574
377.986	27.306	822.375	654.179
379.000	27.388	821.539	653.750
380.015	27.211	820.972	652.605
381.029	27.029	820.688	651.670
382.044	27.515	819.891	652.720
383.059	27.488	818.990	651.849
384.073	27.396	819.164	651.599
385.088	27.420	818.173	650.839
386.102	27.109	817.514	649.149
387.117	27.024	817.200	648.535
388.132	26.663	815.749	646.041
389.146	26.335	814.527	643.848
390.161	26.555	814.984	644.936
391.175	27.083	815.067	646.824
392.190	26.763	813.431	644.334
393.205	25.317	811.487	637.604
394.219	23.793	809.774	630.798
395.234	23.689	809.711	630.323
396.248	25.228	811.358	637.016
397.263	26.948	811.816	643.423
398.278	26.871	811.192	642.599
399.292	26.554	810.791	641.103
400.307	26.550	810.379	640.705
401.321	26.796	809.936	641.170
402.336	26.938	810.179	641.806
403.350	27.451	809.864	643.316
404.365	27.774	809.558	644.156
405.380	28.000	809.373	644.749
406.394	27.982	808.901	644.252
407.409	27.909	808.531	643.643
408.423	27.867	807.846	642.893
409.438	28.013	807.397	642.992
410.453	28.021	807.342	642.919
411.467	27.852	806.808	641.843
412.482	28.078	806.116	642.030
413.496	28.046	805.928	641.709
414.511	27.854	805.746	640.833
415.526	28.032	805.058	640.857
416.540	27.887	804.434	639.794
417.555	27.723	803.931	638.763
418.569	27.691	803.382	638.157
419.584	27.598	802.969	637.448
420.599	27.506	802.177	636.441
421.613	110.867	1287.021	1460.942
422.628	95.657	1357.654	1461.011
