DTS Sentinel unit serial number:	SN413079Multiplexer serial number:	ORYXHardware model number:	OX4-SRSoftware version number:	ORYX F/W v4.00 Oryx Data Collector v3.7.2.0data status	okinstallation	princeton_trtdifferential loss correction	single-endedforward channel	channel 1reverse channel	N/Adate	2019/09/12time	06:36:11forward acquisition time	60.00reverse acquisition time	0.00gamma	496.2192k internal	0.2320k external	0.2320temperature offset calibration	1.0047default loss term (dB/km)	0.3790temperature slope calibration	1.0000multiplexer offset coefficient	1.0000multiplexer slope coefficient	1.0000fibre end	0.00T internal ref (°C)	32.14T ext. ref 1 (°C)	1.57T ext. ref 2 (°C)	27.21length (m)	temperature (°C)	Stokes	anti-Stokes-747.200	-200.000	0.004	-0.105
-746.185	116.532	-0.053	0.066
-745.171	-63.195	0.075	0.031
-744.156	185.433	0.219	0.329
-743.142	-132.249	0.090	0.012
-742.127	-76.847	-0.093	0.033
-741.112	716.578	0.056	0.149
-740.098	715.711	-0.059	0.157
-739.083	-41.981	-0.149	0.077
-738.069	248.729	-0.083	0.142
-737.054	-192.900	0.159	-0.001
-736.039	-73.622	-0.359	0.132
-735.025	21.279	0.098	-0.081
-734.010	-200.000	-0.027	-0.173
-732.996	-62.796	-0.339	0.142
-731.981	314.908	0.111	0.212
-730.966	-9.909	-0.084	-0.056
-729.952	-21.515	0.110	-0.068
-728.937	-200.000	-0.015	-0.368
-727.923	-200.000	-0.042	0.190
-726.908	-32.397	0.261	-0.147
-725.894	112.329	-0.176	-0.215
-724.879	800.000	-0.039	-0.111
-723.864	-200.000	-0.006	-0.058
-722.850	-50.491	0.114	0.054
-721.835	-71.252	0.232	-0.088
-720.821	-40.667	-0.152	0.080
-719.806	-5.966	-0.222	-0.154
-718.791	267.965	0.097	0.171
-717.777	-151.835	0.137	-0.010
-716.762	-51.162	-0.138	0.065
-715.748	210.092	0.207	0.329
-714.733	146.765	0.188	-0.255
-713.718	800.000	0.050	-0.153
-712.704	-165.212	-0.021	0.001
-711.689	800.000	-0.027	0.080
-710.675	-105.887	0.174	0.040
-709.660	1.444	0.287	0.208
-708.645	-200.000	0.007	-0.033
-707.631	158.679	0.162	-0.227
-706.616	-67.443	0.358	0.142
-705.602	-200.000	0.044	0.196
-704.587	446.533	-0.106	-0.235
-703.572	-200.000	0.012	-0.068
-702.558	750.691	-0.127	-0.346
-701.543	-200.000	0.009	0.095
-700.529	-144.698	-0.220	-0.020
-699.514	298.778	-0.085	-0.158
-698.499	198.023	0.131	-0.202
-697.485	-5.533	0.257	0.178
-696.470	-200.000	-0.027	-0.264
-695.456	271.844	0.129	0.229
-694.441	-153.721	-0.233	-0.016
-693.426	-200.000	0.096	-0.473
-692.412	-43.488	-0.144	0.073
-691.397	-19.336	0.189	0.118
-690.383	-200.000	0.007	-0.250
-689.368	399.527	-0.143	0.303
-688.354	654.935	-0.038	-0.099
-687.339	-200.000	0.031	0.143
-686.324	-65.887	-0.175	-0.071
-685.310	-93.388	-0.269	-0.075
-684.295	800.000	-0.035	0.099
-683.281	800.000	0.100	-0.360
-682.266	-200.000	-0.014	0.113
-681.251	37.441	0.260	-0.232
-680.237	76.476	0.244	-0.261
-679.222	-70.948	-0.153	0.058
-678.208	-82.415	-0.151	0.049
-677.193	78.206	0.069	-0.074
-676.178	-117.313	0.147	-0.027
-675.164	-200.000	-0.005	0.136
-674.149	-200.000	-0.016	-0.167
-673.135	-200.000	0.010	-0.292
-672.120	23.166	0.191	0.159
-671.105	239.384	-0.068	0.113
-670.091	163.723	0.041	-0.059
-669.076	72.199	-0.117	0.123
-668.062	128.492	0.313	0.402
-667.047	-85.973	-0.139	-0.043
-666.032	26.530	0.231	-0.195
-665.018	-68.360	0.175	0.069
-664.003	800.000	-0.028	0.120
-662.989	-85.921	-0.186	-0.058
-661.974	-114.092	0.353	-0.069
-660.959	109.374	-0.162	0.196
-659.945	-200.000	-0.011	0.102
-658.930	353.574	0.091	-0.183
-657.916	-23.479	0.152	0.092
-656.901	-200.000	-0.010	-0.152
-655.886	-200.000	-0.045	0.373
-654.872	-50.719	-0.226	0.107
-653.857	-18.199	-0.367	0.231
-652.843	338.719	0.104	-0.204
-651.828	-200.000	-0.014	0.235
-650.814	278.287	0.098	0.175
-649.799	79.972	-0.109	-0.118
-648.784	12.261	-0.219	0.170
-647.770	286.723	-0.079	0.144
-646.755	-200.000	0.017	-0.429
-645.741	-126.106	-0.405	-0.061
-644.726	164.064	-0.172	-0.244
-643.711	6.132	-0.390	-0.291
-642.697	800.000	-0.095	-0.297
-641.682	-10.244	0.163	-0.109
-640.668	-74.984	-0.287	0.104
-639.653	800.000	0.035	-0.143
-638.638	-13.262	0.250	0.163
-637.624	-200.000	-0.036	0.259
-636.609	59.467	0.151	0.150
-635.595	-187.044	0.179	-0.002
-634.580	-42.913	-0.165	0.084
-633.565	-5.714	-0.131	-0.090
-632.551	89.439	-0.143	-0.161
-631.536	-200.000	-0.024	0.147
-630.522	595.613	-0.081	-0.202
-629.507	-166.179	0.241	0.010
-628.492	-54.360	0.263	-0.120
-627.478	-31.952	0.141	-0.080
-626.463	-24.454	-0.184	0.110
-625.449	58.658	-0.156	-0.154
-624.434	-200.000	-0.006	-0.147
-623.419	-46.731	0.388	-0.191
-622.405	-200.000	-0.035	0.203
-621.390	-14.657	0.199	-0.129
-620.376	-114.629	0.145	0.028
-619.361	283.397	-0.030	0.055
-618.346	800.000	0.105	-0.360
-617.332	-93.457	-0.187	-0.052
-616.317	-37.774	-0.332	-0.178
-615.303	800.000	0.025	0.080
-614.288	800.000	-0.032	-0.125
-613.273	-1.476	-0.271	0.192
-612.259	-165.414	-0.291	-0.013
-611.244	118.797	-0.082	-0.103
-610.230	-150.285	-0.349	-0.027
-609.215	800.000	0.059	-0.204
-608.201	800.000	0.098	-0.278
-607.186	-91.842	0.713	-0.204
-606.171	477.712	0.112	-0.254
-605.157	-144.108	0.079	0.007
-604.142	-43.937	0.233	-0.118
-603.128	-23.627	-0.462	-0.278
-602.113	-48.591	0.140	-0.067
-601.098	-59.878	-0.189	-0.081
-600.084	800.000	-0.066	0.238
-599.069	382.627	-0.279	0.577
-598.055	-200.000	-0.015	-0.230
-597.040	800.000	0.042	0.177
-596.025	459.349	-0.111	0.248
-595.011	337.213	-0.083	-0.162
-593.996	-200.000	0.023	0.361
-592.982	-73.067	-0.424	-0.156
-591.967	678.439	-0.079	0.206
-590.952	-71.321	-0.279	0.105
-589.938	-141.756	0.105	-0.011
-588.923	800.000	0.079	-0.345
-587.909	90.904	0.096	-0.109
-586.894	136.395	-0.022	-0.029
-585.879	328.971	0.107	0.208
-584.865	800.000	-0.051	0.169
-583.850	-137.144	-0.227	0.026
-582.836	69.240	-0.207	-0.214
-581.821	-65.342	0.030	0.012
-580.806	-100.220	-0.276	-0.069
-579.792	-19.867	0.263	0.163
-578.777	-200.000	0.027	0.203
-577.763	1.302	0.227	0.164
-576.748	-38.291	-0.128	0.068
-575.733	121.769	0.060	0.075
-574.719	174.676	0.163	-0.237
-573.704	6.760	-0.254	0.190
-572.690	-200.000	-0.013	0.115
-571.675	477.816	-0.082	-0.187
-570.661	-30.210	0.394	-0.225
-569.646	-200.000	-0.014	-0.162
-568.631	189.671	0.165	-0.249
-567.617	201.764	-0.078	-0.120
-566.602	-200.000	-0.069	-0.376
-565.588	193.657	0.037	-0.057
-564.573	38.704	-0.364	0.326
-563.558	147.454	0.095	0.128
-562.544	-120.734	0.237	-0.040
-561.529	-200.000	0.003	0.114
-560.515	-65.405	0.054	0.022
-559.500	-200.000	0.012	0.177
-558.485	111.064	-0.220	0.266
-557.471	-138.938	0.293	0.032
-556.456	-99.956	0.170	-0.043
-555.442	-10.013	-0.202	-0.135
-554.427	36.472	-0.265	0.235
-553.412	-189.158	-0.267	-0.003
-552.398	-87.990	-0.060	-0.018
-551.383	25.059	0.216	0.180
-550.369	67.050	0.154	-0.157
-549.354	-200.000	-0.042	-0.326
-548.339	77.940	-0.231	-0.247
-547.325	800.000	0.044	-0.145
-546.310	-129.751	-0.298	-0.041
-545.296	111.928	-0.133	0.161
-544.281	-200.000	-0.032	0.298
-543.266	-78.827	0.411	0.141
-542.252	111.407	-0.408	0.494
-541.237	-137.875	0.081	0.009
-540.223	-19.695	0.237	-0.147
-539.208	650.768	0.053	0.135
-538.193	95.034	0.117	-0.133
-537.179	-153.809	0.046	-0.003
-536.164	38.850	-0.157	-0.141
-535.150	287.077	-0.210	-0.381
-534.135	-135.245	-0.579	0.070
-533.121	41.093	0.190	-0.172
-532.106	-74.001	-0.213	0.078
-531.091	-168.032	-0.400	-0.016
-530.077	171.200	-0.088	0.126
-529.062	-48.853	-0.159	-0.077
-528.048	-26.044	-0.243	0.143
-527.033	-140.883	0.424	-0.044
-526.018	175.275	-0.104	0.151
-525.004	-65.409	0.024	-0.010
-523.989	-146.967	-0.132	-0.011
-522.975	800.000	0.077	-0.294
-521.960	-135.442	-0.255	0.030
-520.945	-68.459	0.181	-0.070
-519.931	330.509	0.061	-0.118
-518.916	-200.000	0.061	-0.335
-517.902	-46.165	-0.060	0.030
-516.887	178.546	0.080	-0.118
-515.872	694.290	-0.142	-0.375
-514.858	468.217	-0.136	-0.305
-513.843	-200.000	-0.036	0.268
-512.829	-52.318	0.323	0.150
-511.814	800.000	0.160	-0.522
-510.799	684.108	0.076	-0.198
-509.785	257.887	-0.045	-0.077
-508.770	-152.620	-0.273	0.020
-507.756	-30.130	-0.123	0.070
-506.741	-200.000	-0.054	0.497
-505.726	-38.626	-0.183	0.097
-504.712	-146.439	0.106	-0.009
-503.697	800.000	0.151	-0.419
-502.683	-194.367	-0.322	-0.003
-501.668	-33.479	-0.334	-0.185
-500.653	11.690	0.228	-0.175
-499.639	-118.789	-0.169	0.030
-498.624	-200.000	-0.041	-0.196
-497.610	-35.287	-0.125	0.068
-496.595	171.166	0.093	-0.134
-495.581	-68.400	0.173	0.067
-494.566	-158.418	-0.275	0.016
-493.551	30.241	-0.125	0.107
-492.537	657.165	-0.033	-0.086
-491.522	-200.000	-0.040	0.196
-490.508	-115.542	0.234	-0.044
-489.493	-5.993	0.101	-0.069
-488.478	776.119	0.095	-0.258
-487.464	800.000	-0.083	-0.266
-486.449	-200.000	0.021	-0.124
-485.435	-200.000	-0.065	-0.420
-484.420	33.758	-0.102	0.089
-483.405	3.920	0.148	-0.109
-482.391	-200.000	-0.002	0.166
-481.376	-200.000	0.039	0.185
-480.362	-33.674	0.018	0.010
-479.347	249.489	-0.117	0.199
-478.332	-200.000	-0.045	-0.230
-477.318	119.345	-0.133	0.164
-476.303	36.462	-0.224	-0.197
-475.289	623.119	0.085	-0.214
-474.274	-38.855	0.263	-0.139
-473.259	320.867	-0.034	-0.065
-472.245	-88.703	0.144	0.043
-471.230	225.000	-0.142	0.229
-470.216	183.078	-0.079	-0.116
-469.201	-18.624	0.337	0.210
-468.186	800.000	0.078	0.242
-467.172	83.968	-0.213	0.233
-466.157	174.004	0.054	-0.078
-465.143	-143.605	0.184	-0.017
-464.128	-57.796	0.086	0.037
-463.113	148.850	0.202	-0.274
-462.099	433.039	0.130	-0.283
-461.084	-6.955	-0.150	-0.102
-460.070	-22.841	0.138	-0.083
-459.055	-200.000	-0.016	-0.182
-458.040	-60.105	-0.309	0.132
-457.026	800.000	-0.065	-0.253
-456.011	1.397	-0.215	-0.154
-454.997	-97.359	0.273	0.071
-453.982	-103.769	0.209	-0.049
-452.968	-200.000	-0.026	-0.171
-451.953	97.950	0.089	-0.103
-450.938	-103.067	0.113	-0.027
-449.924	-115.829	-0.076	-0.014
-448.909	130.247	-0.171	-0.219
-447.895	179.616	-0.064	-0.093
-446.880	18.252	-0.273	0.218
-445.865	256.342	-0.133	-0.228
-444.851	-98.208	0.250	0.064
-443.836	-33.597	-0.067	-0.037
-442.822	-136.066	-0.117	-0.014
-441.807	456.716	0.132	0.293
-440.792	800.000	0.084	0.279
-439.778	-97.375	0.233	-0.061
-438.763	219.938	-0.082	-0.131
-437.749	-125.141	0.399	-0.061
-436.734	533.099	-0.169	0.400
-435.719	-58.936	-0.309	0.133
-434.705	-144.377	0.199	0.018
-433.690	-48.914	0.102	-0.049
-432.676	130.553	0.015	-0.019
-431.661	590.769	-0.054	0.134
-430.646	-66.200	-0.137	0.055
-429.632	585.368	-0.055	-0.135
-428.617	-93.349	-0.209	-0.058
-427.603	-200.000	-0.004	0.045
-426.588	248.528	-0.021	-0.036
-425.573	-91.864	-0.219	-0.062
-424.559	-200.000	-0.015	0.153
-423.544	-58.908	-0.100	-0.043
-422.530	572.649	-0.080	-0.194
-421.515	56.596	0.018	-0.018
-420.500	18.809	-0.175	-0.140
-419.486	107.047	0.087	-0.104
-418.471	133.858	-0.057	0.073
-417.457	-200.000	0.038	0.180
-416.442	-81.270	-0.211	-0.070
-415.428	-173.739	-0.132	0.004
-414.413	22.604	0.230	-0.188
-413.398	-127.070	-0.128	-0.019
-412.384	-99.545	0.319	-0.080
-411.369	-200.000	-0.014	0.073
-410.355	54.894	0.173	-0.167
-409.340	4.280	0.087	0.064
-408.325	36.171	-0.103	0.090
-407.311	150.768	0.099	-0.135
-406.296	800.000	-0.080	0.287
-405.282	512.175	0.150	0.348
-404.267	90.972	0.193	-0.215
-403.252	131.504	0.207	0.266
-402.238	-200.000	-0.017	-0.291
-401.223	-164.682	0.133	-0.006
-400.209	-34.608	-0.149	-0.082
-399.194	31.646	0.070	-0.060
-398.179	-200.000	0.079	0.395
-397.165	-96.904	0.408	-0.107
-396.150	77.636	0.063	-0.067
-395.136	-200.000	-0.006	0.037
-394.121	-200.000	-0.005	0.045
-393.106	-32.440	0.112	-0.062
-392.092	-77.449	-0.206	-0.071
-391.077	424.598	0.112	0.241
-390.063	-52.293	-0.069	0.032
-389.048	231.898	0.118	-0.194
-388.033	-104.502	-0.241	0.056
-387.019	469.930	-0.101	-0.227
-386.004	0.494	0.179	-0.128
-384.990	-155.088	-0.119	-0.008
-383.975	106.364	0.116	0.137
-382.960	99.656	0.279	-0.323
-381.946	385.768	-0.100	0.206
-380.931	-200.000	-0.052	-0.291
-379.917	-29.914	0.107	-0.061
-378.902	-88.784	-0.173	-0.051
-377.888	-146.622	0.214	-0.019
-376.873	166.284	0.117	0.165
-375.858	800.000	0.061	0.193
-374.844	475.398	0.085	0.191
-373.829	800.000	-0.038	0.160
-372.815	292.331	-0.096	-0.175
-371.800	-52.751	-0.105	-0.048
-370.785	-53.764	0.151	0.069
-369.771	-124.272	0.200	-0.031
-368.756	167.914	0.131	-0.186
-367.742	-115.028	-0.093	0.018
-366.727	716.199	-0.126	0.332
-365.712	-1.665	0.319	0.224
-364.698	6.873	-0.065	-0.048
-363.683	-118.810	0.196	-0.034
-362.669	-46.093	-0.129	-0.063
-361.654	239.397	-0.094	-0.155
-360.639	146.469	0.113	0.151
-359.625	148.356	0.091	-0.123
-358.610	-26.585	0.083	-0.048
-357.596	-9.016	0.066	0.044
-356.581	-200.000	-0.006	0.192
-355.566	655.653	-0.063	0.162
-354.552	-89.569	-0.062	-0.018
-353.537	589.989	-0.120	0.295
-352.523	-110.949	0.134	0.027
-351.508	452.057	0.183	0.404
-350.493	-126.766	0.332	-0.049
-349.479	60.219	0.180	-0.178
-348.464	44.621	-0.039	0.036
-347.450	32.435	0.175	0.151
-346.435	-22.761	-0.178	-0.107
-345.420	-14.685	-0.472	0.302
-344.406	-38.538	-0.269	0.142
-343.391	-26.272	0.143	0.083
-342.377	224.720	-0.298	0.480
-341.362	-0.949	-0.147	0.104
-340.348	-8.037	-0.298	0.200
-339.333	-85.097	0.400	0.125
-338.318	-16.219	0.335	0.212
-337.304	136.405	0.074	-0.097
-336.289	-192.541	0.248	0.002
-335.275	-200.000	0.041	-0.183
-334.260	-200.000	-0.008	-0.322
-333.245	1.481	0.181	-0.130
-332.231	24.021	0.244	0.200
-331.216	-200.000	0.004	-0.059
-330.202	-44.608	-0.290	0.144
-329.187	92.376	-0.045	-0.051
-328.172	214.138	0.080	0.127
-327.158	-190.847	0.477	-0.005
-326.143	84.004	0.257	0.279
-325.129	114.831	-0.086	-0.104
-324.114	8.024	-0.271	-0.202
-323.099	-61.932	0.334	-0.139
-322.085	16.905	0.202	0.159
-321.070	218.733	0.002	-0.004
-320.056	188.567	-0.231	-0.344
-319.041	800.000	0.046	-0.138
-318.026	266.651	0.102	-0.177
-317.012	-110.295	-0.183	-0.038
-315.997	101.839	0.135	0.156
-314.983	800.000	0.024	0.081
-313.968	-155.672	-0.271	0.017
-312.953	-91.602	0.254	0.072
-311.939	-200.000	-0.001	0.124
-310.924	-71.241	-0.043	0.016
-309.910	-35.578	0.210	-0.113
-308.895	-27.259	0.507	-0.294
-307.880	-120.908	-0.223	0.037
-306.866	-1.657	0.312	0.218
-305.851	364.829	-0.209	-0.418
-304.837	481.868	0.076	-0.171
-303.822	178.190	0.074	-0.107
-302.807	-200.000	-0.030	0.157
-301.793	800.000	-0.069	0.271
-300.778	51.905	0.070	-0.066
-299.764	-63.463	-0.085	0.035
-298.749	-114.147	0.060	0.012
-297.735	95.480	0.241	0.273
-296.720	138.067	-0.113	-0.147
-295.705	-200.000	-0.082	0.429
-294.691	117.818	0.169	0.207
-293.676	141.107	-0.083	-0.110
-292.662	123.214	-0.305	0.380
-291.647	-200.000	-0.043	0.296
-290.632	3.150	-0.076	-0.055
-289.618	508.125	0.038	0.088
-288.603	157.518	-0.018	0.025
-287.589	103.922	-0.098	0.114
-286.574	800.000	0.116	-0.366
-285.559	-141.173	0.354	-0.036
-284.545	67.159	0.095	0.096
-283.530	-200.000	-0.087	0.635
-282.516	-125.618	0.410	0.062
-281.501	-17.897	-0.197	0.123
-280.486	-81.821	0.049	-0.016
-279.472	-200.000	0.083	0.388
-278.457	-200.000	0.009	0.076
-277.443	800.000	0.049	0.143
-276.428	69.134	0.253	-0.259
-275.413	50.494	0.065	0.061
-274.399	150.760	0.236	0.319
-273.384	-200.000	-0.015	0.314
-272.370	41.276	-0.262	0.235
-271.355	63.220	-0.131	-0.130
-270.340	-200.000	0.052	0.247
-269.326	800.000	0.052	-0.148
-268.311	-200.000	0.018	0.127
-267.297	-120.126	-0.249	-0.042
-266.282	89.855	0.323	0.358
-265.267	-77.748	-0.471	0.162
-264.253	800.000	-0.039	0.132
-263.238	518.542	0.103	0.239
-262.224	192.432	0.237	-0.355
-261.209	-200.000	-0.002	-0.070
-260.195	-7.565	-0.303	-0.203
-259.180	-36.650	0.120	-0.064
-258.165	634.155	-0.035	0.087
-257.151	-105.318	-0.313	0.071
-256.136	800.000	-0.047	0.130
-255.122	132.024	0.213	0.272
-254.107	-165.197	0.092	0.004
-253.092	212.090	0.109	0.170
-252.078	-95.325	-0.135	0.036
-251.063	-200.000	0.000	-0.065
-250.049	-37.448	0.165	0.087
-249.034	-200.000	0.025	-0.306
-248.019	69.870	-0.052	-0.053
-247.005	705.582	0.162	0.425
-245.990	-199.976	-0.053	-0.000
-244.976	-200.000	-0.014	-0.203
-243.961	-200.000	0.027	-0.181
-242.946	11.410	-0.038	0.029
-241.932	380.314	-0.193	-0.392
-240.917	411.017	0.065	-0.137
-239.903	800.000	-0.073	0.248
-238.888	-146.671	0.044	-0.004
-237.873	-109.645	0.246	-0.051
-236.859	800.000	0.057	-0.203
-235.844	-48.642	0.203	-0.097
-234.830	-70.209	0.147	-0.055
-233.815	-79.570	-0.133	-0.044
-232.800	-200.000	0.003	-0.180
-231.786	800.000	-0.112	0.332
-230.771	-155.776	0.172	0.011
-229.757	32.143	-0.340	-0.291
-228.742	295.949	-0.195	-0.353
-227.727	800.000	0.094	0.324
-226.713	-51.182	0.152	0.071
-225.698	-200.000	0.026	-0.133
-224.684	9.854	-0.247	0.186
-223.669	-167.991	0.192	0.007
-222.655	-68.638	0.157	0.060
-221.640	-200.000	0.068	-0.413
-220.625	800.000	-0.024	0.082
-219.611	-114.995	0.169	-0.032
-218.596	800.000	0.078	-0.215
-217.582	-200.000	-0.010	-0.126
-216.567	-200.000	0.032	0.389
-215.552	-200.000	0.026	-0.287
-214.538	-200.000	-0.001	0.090
-213.523	-112.152	0.197	-0.039
-212.509	23.909	0.226	-0.185
-211.494	-116.710	-0.249	0.045
-210.479	-99.039	-0.182	0.046
-209.465	800.000	0.101	0.323
-208.450	-44.293	-0.422	0.209
-207.436	-159.191	0.450	0.025
-206.421	264.268	-0.124	-0.213
-205.406	-88.009	0.337	-0.100
-204.392	-200.000	-0.034	-0.428
-203.377	-200.000	-0.020	-0.519
-202.363	-80.048	0.266	0.088
-201.348	232.715	0.061	0.099
-200.333	-128.294	0.177	0.025
-199.319	-154.126	0.266	0.018
-198.304	-184.013	-0.139	0.002
-197.290	-157.445	-0.153	0.009
-196.275	-164.394	0.113	0.005
-195.260	800.000	0.040	0.136
-194.246	442.385	-0.110	-0.239
-193.231	-200.000	-0.036	-0.240
-192.217	14.273	-0.107	0.082
-191.202	800.000	-0.037	-0.105
-190.187	-200.000	-0.007	-0.067
-189.173	552.746	0.063	0.149
-188.158	-39.027	-0.266	-0.138
-187.144	-31.465	0.260	-0.145
-186.129	-200.000	0.026	0.246
-185.114	-175.269	-0.119	-0.003
-184.100	409.429	-0.233	0.487
-183.085	-108.307	-0.238	0.051
-182.071	-200.000	0.021	0.107
-181.056	-71.300	-0.517	0.192
-180.042	144.661	-0.274	0.362
-179.027	-60.169	0.245	0.103
-178.012	50.969	-0.284	-0.266
-176.998	800.000	0.057	0.175
-175.983	-79.948	-0.239	-0.079
-174.969	50.833	0.166	-0.155
-173.954	-200.000	-0.012	0.222
-172.939	499.079	-0.056	0.128
-171.925	-200.000	-0.008	-0.089
-170.910	800.000	0.058	0.203
-169.896	142.049	0.134	-0.175
-168.881	201.707	0.190	0.290
-167.866	800.000	-0.109	-0.304
-166.852	-200.000	0.027	-0.297
-165.837	-200.000	-0.005	-0.210
-164.823	-116.598	-0.359	0.065
-163.808	747.428	0.043	-0.113
-162.793	-200.000	0.058	0.353
-161.779	800.000	0.132	0.365
-160.764	73.184	-0.342	0.354
-159.750	-90.844	-0.256	0.073
-158.735	292.966	0.236	0.426
-157.720	6.114	0.149	-0.109
-156.706	115.835	-0.124	0.150
-155.691	412.350	0.190	0.399
-154.677	-40.537	0.157	-0.081
-153.662	94.689	0.173	0.195
-152.647	140.669	0.179	-0.233
-151.633	305.737	-0.160	-0.294
-150.618	800.000	0.077	-0.266
-149.604	22.250	0.184	0.149
-148.589	171.193	0.069	0.098
-147.574	2.301	-0.046	0.033
-146.560	800.000	-0.093	0.306
-145.545	-93.467	0.218	-0.060
-144.531	707.594	-0.103	-0.269
-143.516	-200.000	0.001	0.215
-142.502	41.701	0.122	-0.109
-141.487	136.509	-0.274	-0.353
-140.472	-65.548	-0.115	-0.046
-139.458	-200.000	0.015	0.204
-138.443	-121.876	0.215	0.035
-137.429	-59.262	0.170	0.072
-136.414	-38.822	0.257	0.134
-135.399	-175.247	0.079	0.002
-134.385	180.629	0.113	-0.164
-133.370	-173.889	0.491	-0.014
-132.356	800.000	0.074	0.213
-131.341	-200.000	0.006	-0.060
-130.326	-171.935	-0.151	-0.005
-129.312	-12.303	0.351	-0.227
-128.297	-14.110	-0.252	-0.160
-127.283	-2.013	-0.145	0.101
-126.268	13.919	-0.024	0.018
-125.253	-94.825	0.297	0.079
-124.239	432.687	-0.057	-0.122
-123.224	136.783	-0.238	-0.307
-122.210	69.376	-0.160	-0.163
-121.195	-85.197	-0.031	0.010
-120.180	774.274	-0.141	0.378
-119.166	-117.424	-0.301	0.054
-118.151	-77.657	0.384	-0.131
-117.137	800.000	-0.079	0.267
-116.122	188.321	0.162	0.239
-115.107	-30.031	0.177	-0.100
-114.093	-106.041	0.179	0.040
-113.078	254.926	-0.065	0.109
-112.064	800.000	0.012	-0.046
-111.049	121.434	-0.201	-0.246
-110.034	800.000	0.067	0.210
-109.020	66.161	-0.054	0.054
-108.005	800.000	-0.022	-0.088
-106.991	-200.000	0.041	-0.265
-105.976	143.409	0.103	0.136
-104.962	129.184	0.165	0.208
-103.947	57.180	0.027	0.026
-102.932	-200.000	0.011	-0.234
-101.918	-170.692	-0.193	0.007
-100.903	334.839	-0.031	-0.058
-99.889	49.490	-0.138	-0.128
-98.874	-170.792	0.295	0.010
-97.859	128.148	0.120	0.151
-96.845	-200.000	-0.077	0.556
-95.830	-200.000	0.044	0.315
-94.816	639.383	-0.142	-0.355
-93.801	-188.127	-0.303	-0.004
-92.786	199.725	-0.095	-0.144
-91.772	-129.699	0.075	0.010
-90.757	-105.750	0.137	0.030
-89.743	-200.000	-0.019	0.182
-88.728	32.739	-0.100	0.086
-87.713	-200.000	0.099	0.492
-86.699	-200.000	0.094	-0.000
-85.684	-200.000	-0.034	0.259
-84.670	-2.865	-0.362	-0.249
-83.655	-82.851	-0.196	-0.062
-82.640	800.000	0.063	0.206
-81.626	-49.298	0.587	-0.276
-80.611	257.462	0.103	-0.175
-79.597	-200.000	-0.003	-0.098
-78.582	558.096	0.047	-0.113
-77.567	-200.000	-0.053	0.344
-76.553	800.000	-0.061	0.201
-75.538	-65.299	0.430	-0.170
-74.524	-127.471	0.326	-0.047
-73.509	-200.000	-0.006	-0.043
-72.494	105.952	0.117	-0.136
-71.480	-89.941	0.168	-0.048
-70.465	800.000	-0.105	0.288
-69.451	-200.000	0.008	0.223
-68.436	50.004	0.175	0.163
-67.422	-22.653	0.240	0.143
-66.407	-72.434	-0.269	-0.098
-65.392	450.159	-0.017	-0.038
-64.378	382.497	-0.101	-0.205
-63.363	553.116	-0.114	-0.270
-62.349	-94.745	-0.086	0.023
-61.334	92.686	-1.100	-1.223
-60.319	-19.791	0.401	0.244
-59.305	379.518	-0.494	-0.997
-58.290	416.039	0.528	1.108
-57.276	493.796	0.723	1.633
-56.261	-200.000	95.795	594.735
-55.246	567.172	1371.547	3277.601
-54.232	161.005	2550.201	3507.356
-53.217	113.623	2143.251	2562.430
-52.203	44.142	1604.953	1448.801
-51.188	35.704	1342.580	1161.221
-50.173	32.470	1300.861	1106.124
-49.159	54.782	1347.536	1279.598
-48.144	56.838	1364.403	1307.837
-47.130	35.805	1323.388	1145.043
-46.115	32.409	1305.646	1109.655
-45.100	32.177	1300.817	1104.147
-44.086	32.102	1298.553	1101.739
-43.071	32.036	1296.073	1099.206
-42.057	31.978	1294.322	1097.337
-41.042	32.115	1291.882	1096.027
-40.027	32.121	1290.612	1094.940
-39.013	32.003	1289.093	1092.921
-37.998	32.074	1287.087	1091.587
-36.984	32.085	1285.684	1090.423
-35.969	32.113	1283.847	1088.980
-34.954	32.131	1281.845	1087.346
-33.940	32.235	1280.843	1087.051
-32.925	32.112	1279.744	1085.369
-31.911	32.134	1278.162	1084.108
-30.896	32.296	1276.114	1083.262
-29.881	32.285	1274.602	1081.870
-28.867	32.297	1273.142	1080.656
-27.852	32.370	1271.783	1079.881
-26.838	32.271	1270.741	1078.385
-25.823	32.264	1269.496	1077.249
-24.809	32.237	1268.191	1075.943
-23.794	32.299	1266.757	1075.037
-22.779	32.207	1265.662	1073.538
-21.765	32.190	1264.317	1072.257
-20.750	32.199	1262.618	1070.829
-19.736	32.150	1261.639	1069.678
-18.721	32.089	1260.428	1068.258
-17.706	32.172	1259.168	1067.622
-16.692	32.162	1257.910	1066.457
-15.677	32.155	1256.699	1065.349
-14.663	32.115	1255.471	1064.035
-13.648	31.997	1255.117	1063.026
-12.633	32.075	1253.646	1062.180
-11.619	32.006	1253.334	1061.485
-10.604	32.037	1252.225	1060.674
-9.590	32.019	1251.016	1059.510
-8.575	32.072	1249.968	1058.879
-7.560	32.040	1249.346	1058.127
-6.546	32.084	1248.300	1057.448
-5.531	32.041	1247.601	1056.572
-4.517	32.136	1246.578	1056.195
-3.502	32.151	1245.557	1055.373
-2.487	31.979	1245.202	1054.065
-1.473	32.011	1241.061	1050.695
-0.458	30.691	1225.810	1030.442
0.556	27.169	1208.458	993.372
1.571	23.600	1214.502	978.610
2.586	22.795	1229.782	986.341
3.600	22.191	1219.200	974.418
4.615	15.922	1145.044	882.328
5.629	5.930	1069.358	774.818
6.644	1.858	1049.256	740.436
7.659	1.461	1047.165	736.971
8.673	1.482	1045.717	735.988
9.688	1.479	1043.749	734.521
10.702	1.695	1042.544	734.653
11.717	7.672	1051.346	769.810
12.731	17.912	1065.846	830.407
13.746	23.627	1073.097	863.885
14.761	24.803	1073.984	870.248
15.775	24.781	1074.003	870.079
16.790	24.648	1073.196	868.699
17.804	24.631	1072.091	867.646
18.819	24.744	1072.223	868.228
19.834	24.913	1071.477	868.367
20.848	25.047	1071.365	868.847
21.863	25.031	1070.380	867.896
22.877	24.923	1070.284	867.217
23.892	24.827	1069.211	865.807
24.907	24.956	1068.125	865.473
25.921	24.802	1067.676	864.288
26.936	24.905	1066.070	863.410
27.950	24.759	1064.822	861.620
28.965	24.689	1062.684	859.477
29.980	24.859	1060.907	858.779
30.994	24.940	1060.323	858.619
32.009	24.851	1059.839	857.723
33.023	24.685	1058.298	855.607
34.038	24.803	1057.558	855.497
35.053	24.873	1056.768	855.119
36.067	24.990	1055.954	854.941
37.082	25.012	1055.259	854.405
38.096	25.057	1054.630	854.036
39.111	25.139	1053.984	853.826
40.126	25.031	1052.386	851.943
41.140	24.675	1050.689	848.806
42.155	24.333	1049.426	846.089
43.169	24.553	1048.371	846.203
44.184	24.697	1047.266	845.921
45.199	24.435	1046.684	844.134
46.213	24.513	1046.151	843.998
47.228	24.706	1045.363	844.200
48.242	24.743	1044.743	843.799
49.257	24.883	1043.580	843.445
50.271	24.846	1043.258	842.934
51.286	24.930	1042.074	842.300
52.301	24.994	1041.323	841.920
53.315	24.912	1040.297	840.632
54.330	24.750	1039.602	839.235
55.344	24.915	1038.768	839.263
56.359	24.837	1037.971	838.179
57.374	24.737	1036.630	836.554
58.388	24.663	1035.942	835.579
59.403	24.682	1034.889	834.745
60.417	24.538	1034.079	833.343
61.432	24.668	1033.637	833.519
62.447	24.570	1033.657	833.004
63.461	24.751	1032.296	832.676
64.476	24.690	1030.900	831.195
65.490	24.533	1030.147	829.784
66.505	24.558	1030.023	829.727
67.520	24.680	1029.135	829.504
68.534	24.472	1028.001	827.554
69.549	24.174	1027.173	825.431
70.563	24.154	1026.574	824.787
71.578	24.015	1025.596	823.284
72.593	23.975	1024.855	822.432
73.607	24.078	1024.251	822.348
74.622	24.410	1023.781	823.433
75.636	24.528	1022.974	823.256
76.651	24.338	1022.109	821.609
77.666	24.115	1021.697	820.179
78.680	24.329	1020.597	820.206
79.695	24.482	1020.157	820.483
80.709	24.608	1019.342	820.336
81.724	24.477	1018.645	819.100
82.739	24.629	1017.798	819.043
83.753	24.859	1017.534	819.813
84.768	25.311	1016.570	821.030
85.782	25.354	1015.806	820.536
86.797	25.216	1014.979	819.168
87.812	25.085	1013.858	817.595
88.826	25.167	1012.955	817.167
89.841	25.136	1012.593	816.661
90.855	25.129	1011.510	815.684
91.870	25.128	1010.104	814.470
92.884	25.056	1009.027	813.203
93.899	24.949	1008.397	812.139
94.914	25.260	1007.356	812.639
95.928	25.022	1006.556	810.844
96.943	24.754	1005.628	808.812
97.957	24.640	1003.951	806.879
98.972	24.386	1003.639	805.408
99.987	24.779	1002.371	806.093
101.001	24.855	1002.104	806.147
102.016	24.935	1000.915	805.481
103.030	24.693	1000.345	803.861
104.045	24.626	999.326	802.672
105.060	24.629	998.279	801.772
106.074	24.641	997.555	801.177
107.089	25.000	997.339	802.540
108.103	24.792	996.326	800.724
109.118	24.735	995.109	799.420
110.133	24.634	993.811	797.855
111.147	24.486	992.755	796.276
112.162	24.284	992.030	794.722
113.176	24.625	991.273	795.567
114.191	24.441	990.993	794.450
115.206	24.130	989.632	791.907
116.220	24.160	988.969	791.441
117.235	24.377	988.043	791.594
118.249	24.279	987.217	790.426
119.264	24.380	985.784	789.654
120.279	24.244	985.950	789.114
121.293	24.354	985.190	788.926
122.308	24.360	984.150	788.050
123.322	24.221	982.775	786.266
124.337	24.158	981.596	784.973
125.352	23.717	979.875	781.589
126.366	23.531	979.357	780.290
127.381	24.243	979.248	783.261
128.395	24.800	978.874	785.337
129.410	24.930	977.895	785.054
130.424	24.849	977.227	784.096
131.439	24.679	976.587	782.768
132.454	24.781	975.083	781.938
133.468	24.773	974.356	781.253
134.483	25.057	973.421	781.670
135.497	25.073	972.806	781.176
136.512	25.125	971.960	780.654
137.527	25.119	971.081	779.855
138.541	25.120	970.504	779.328
139.556	25.107	969.703	778.557
140.570	25.143	969.002	778.084
141.585	25.130	968.360	777.443
142.600	25.118	966.977	776.211
143.614	25.254	966.681	776.493
144.629	25.537	965.406	776.624
145.643	25.365	963.515	774.292
146.658	25.111	962.740	772.507
147.673	25.001	962.067	771.425
148.687	24.799	961.107	769.719
149.702	24.909	960.095	769.309
150.716	24.855	958.925	768.075
151.731	25.113	958.157	768.495
152.746	25.140	957.598	768.096
153.760	25.293	957.389	768.514
154.775	25.338	957.040	768.359
155.789	25.343	955.604	767.161
156.804	25.195	955.387	766.287
157.819	25.409	953.840	765.891
158.833	25.435	953.400	765.578
159.848	25.356	952.598	764.532
160.862	25.186	951.268	762.672
161.877	25.346	950.083	762.336
162.892	25.303	949.401	761.538
163.906	25.229	948.466	760.407
164.921	25.142	947.543	759.230
165.935	25.277	946.943	759.256
166.950	25.363	945.767	758.606
167.964	25.165	945.106	757.177
168.979	25.119	944.298	756.267
169.994	25.072	943.185	755.109
171.008	25.364	942.740	755.918
172.023	25.297	941.621	754.669
173.037	25.069	940.940	753.102
174.052	24.961	939.797	751.664
175.067	24.988	939.201	751.236
176.081	24.971	938.942	750.891
177.096	25.034	938.042	750.367
178.110	24.767	936.889	748.265
179.125	24.548	936.303	746.815
180.140	24.687	935.760	746.896
181.154	24.853	935.671	747.449
182.169	25.030	935.938	748.338
183.183	25.393	934.995	749.030
184.198	25.139	934.286	747.340
185.213	25.124	933.596	746.657
186.227	25.241	933.004	746.607
187.242	25.301	932.068	746.040
188.256	25.498	931.204	746.101
189.271	25.383	930.910	745.323
190.286	25.035	929.689	742.837
191.300	24.362	928.027	738.655
192.315	23.554	926.946	734.387
193.329	23.551	926.491	733.949
194.344	24.431	927.069	737.984
195.359	25.150	926.810	740.682
196.373	25.294	926.039	740.595
197.388	25.116	925.825	739.624
198.402	25.035	925.415	738.897
199.417	25.213	924.607	738.920
200.432	24.994	923.140	736.781
201.446	24.820	922.646	735.606
202.461	24.880	921.879	735.176
203.475	23.884	920.062	729.578
204.490	23.136	919.077	725.664
205.504	24.270	919.071	730.245
206.519	24.763	918.892	732.056
207.534	24.849	918.801	732.268
208.548	25.095	918.591	733.043
209.563	24.955	917.444	731.493
210.577	24.933	917.251	731.183
211.592	25.450	916.340	732.502
212.607	25.463	915.380	731.723
213.621	25.405	915.580	731.581
214.636	25.302	914.944	730.587
215.650	25.345	913.781	729.770
216.665	25.564	913.560	730.420
217.680	25.252	912.582	728.308
218.694	24.907	911.525	726.001
219.709	24.813	910.719	724.912
220.723	24.947	910.675	725.354
221.738	25.140	909.524	725.158
222.753	25.126	909.199	724.776
223.767	25.217	908.639	724.632
224.782	25.421	908.234	725.068
225.796	25.255	908.120	724.244
226.811	24.869	906.199	721.093
227.826	24.193	904.825	717.215
228.840	24.320	904.465	717.379
229.855	24.474	903.395	717.087
230.869	24.107	902.665	714.967
231.884	24.407	902.951	716.337
232.899	25.162	902.871	719.237
233.913	24.978	901.963	717.715
234.928	25.115	901.437	717.781
235.942	24.962	901.007	716.762
236.957	24.722	900.052	714.979
237.972	24.790	899.368	714.648
238.986	24.756	899.299	714.391
240.001	24.876	898.410	714.100
241.015	24.905	898.207	713.991
242.030	25.079	897.655	714.184
243.045	25.105	897.025	713.725
244.059	25.288	896.653	714.093
245.074	24.991	895.769	712.144
246.088	24.817	894.668	710.516
247.103	25.093	894.182	711.159
248.117	25.629	894.590	713.551
249.132	25.808	894.089	713.796
250.147	25.808	893.976	713.642
251.161	25.948	893.574	713.813
252.176	26.052	892.306	713.147
253.190	26.167	891.798	713.133
254.205	26.166	891.190	712.580
255.220	26.382	890.432	712.764
256.234	26.176	890.058	711.587
257.249	25.897	889.608	710.066
258.263	26.097	888.422	709.842
259.278	26.124	888.118	709.644
260.293	26.101	887.661	709.125
261.307	26.037	886.808	708.131
262.322	25.850	885.797	706.526
263.336	25.035	883.965	701.811
264.351	24.154	881.945	696.703
265.366	24.218	881.863	696.828
266.380	25.228	882.820	701.474
267.395	25.864	881.761	703.051
268.409	25.536	881.893	701.816
269.424	25.649	881.732	702.066
270.439	25.825	880.260	701.518
271.453	25.957	879.914	701.693
272.468	26.162	879.555	702.142
273.482	26.128	879.406	701.828
274.497	25.694	878.022	698.977
275.512	25.337	877.169	696.851
276.526	25.818	877.124	698.618
277.541	25.816	876.858	698.335
278.555	25.759	875.771	697.190
279.570	25.608	874.978	695.913
280.585	25.816	874.208	696.042
281.599	25.630	873.851	694.979
282.614	25.043	872.855	691.859
283.628	25.141	872.350	691.776
284.643	25.466	871.628	692.392
285.657	24.930	870.764	689.583
286.672	24.689	869.943	687.943
287.687	25.314	870.182	690.475
288.701	25.434	869.553	690.378
289.716	25.186	868.615	688.620
290.730	24.996	868.135	687.450
291.745	24.772	866.802	685.474
292.760	24.982	867.159	686.503
293.774	26.067	867.407	690.792
294.789	26.427	867.529	692.208
295.803	26.430	866.626	691.436
296.818	26.621	865.626	691.307
297.833	26.023	864.575	688.128
298.847	25.786	863.953	686.666
299.862	26.199	863.426	687.760
300.876	26.425	863.386	688.528
301.891	26.314	862.667	687.471
302.906	25.891	861.684	685.019
303.920	26.023	861.883	685.618
304.935	26.304	861.576	686.380
305.949	26.275	860.442	685.310
306.964	26.044	859.785	683.849
307.979	26.044	859.835	683.829
308.993	26.600	859.208	685.373
310.008	26.627	858.340	684.723
311.022	26.356	857.637	683.078
312.037	26.167	857.028	681.821
313.052	25.783	856.342	679.764
314.066	24.999	854.922	675.622
315.081	24.678	854.587	674.086
316.095	25.548	854.510	677.243
317.110	26.057	853.972	678.673
318.125	25.180	852.803	674.387
319.139	24.051	851.332	668.924
320.154	24.187	851.064	669.168
321.168	25.178	851.201	672.934
322.183	25.757	851.262	675.095
323.197	25.808	851.628	675.516
324.212	26.158	850.943	676.226
325.227	26.068	850.609	675.563
326.241	26.024	849.110	674.148
327.256	25.975	848.593	673.495
328.270	25.847	847.885	672.397
329.285	25.602	847.301	670.959
330.300	25.493	846.700	670.018
331.314	25.696	846.334	670.425
332.329	26.024	846.401	671.641
333.343	26.179	846.210	672.006
334.358	26.235	845.332	671.459
335.373	26.129	845.331	671.002
336.387	26.491	845.540	672.457
337.402	26.720	844.864	672.709
338.416	26.641	844.470	672.044
339.431	26.744	844.608	672.476
340.446	26.851	843.813	672.178
341.460	26.833	843.444	671.758
342.475	26.443	842.887	669.812
343.489	26.611	842.356	669.952
344.504	26.965	842.562	671.366
345.519	26.992	842.105	671.043
346.533	27.006	841.451	670.513
347.548	26.977	841.089	670.061
348.562	26.995	840.301	669.440
349.577	26.908	839.838	668.688
350.592	27.123	838.722	668.532
351.606	27.023	838.027	667.554
352.621	26.789	837.350	666.096
353.635	26.781	836.333	665.198
354.650	25.982	835.263	661.358
355.665	25.251	833.386	657.138
356.679	25.607	833.931	658.815
357.694	26.030	833.177	659.707
358.708	26.137	832.315	659.359
359.723	26.400	832.583	660.473
360.738	26.703	832.216	661.229
361.752	26.728	831.995	661.085
362.767	27.219	831.249	662.223
363.781	27.349	830.998	662.436
364.796	27.334	830.662	662.056
365.810	27.406	830.379	662.035
366.825	27.437	830.012	661.795
367.840	27.078	828.945	659.582
368.854	26.732	828.043	657.551
369.869	26.737	827.980	657.462
370.883	26.783	827.442	657.144
371.898	26.569	827.004	655.962
372.913	26.811	826.916	656.711
373.927	26.953	826.284	656.663
374.942	27.164	825.745	656.940
375.956	27.132	825.523	656.590
376.971	27.173	825.056	656.310
377.986	27.414	824.420	656.614
379.000	27.435	823.955	656.262
380.015	27.239	823.461	655.104
381.029	27.177	823.199	654.614
382.044	27.376	822.290	654.548
383.059	27.309	821.921	653.957
384.073	27.413	821.411	653.865
385.088	27.447	820.619	653.301
386.102	27.160	820.071	651.777
387.117	27.154	819.205	651.010
388.132	26.655	818.549	648.643
389.146	26.172	817.473	646.006
390.161	26.670	817.592	647.824
391.175	27.169	816.691	648.837
392.190	26.772	816.187	646.960
393.205	25.242	813.973	639.700
394.219	23.873	812.338	633.482
395.234	23.910	811.995	633.293
396.248	25.305	813.508	639.389
397.263	26.810	814.387	645.385
398.278	26.893	813.566	644.972
399.292	26.562	813.222	643.464
400.307	26.675	812.660	643.366
401.321	26.808	811.978	643.241
402.336	27.095	812.140	644.328
403.350	27.511	812.245	645.829
404.365	27.804	812.129	646.721
405.380	28.025	811.600	647.024
406.394	28.202	810.986	647.103
407.409	28.118	810.238	646.151
408.423	28.019	810.377	645.856
409.438	28.141	809.928	645.872
410.453	28.049	809.603	645.230
411.467	27.889	809.257	644.332
412.482	27.973	808.743	644.162
413.496	28.024	808.700	644.253
414.511	28.079	807.669	643.568
415.526	27.991	807.516	643.079
416.540	27.823	806.710	641.788
417.555	27.769	805.938	640.928
418.569	27.870	805.670	641.014
419.584	27.767	805.094	640.137
420.599	27.728	804.233	639.259
421.613	110.436	1286.697	1459.386
422.628	95.333	1356.976	1459.485
