DTS Sentinel unit serial number:	SN413079Multiplexer serial number:	ORYXHardware model number:	OX4-SRSoftware version number:	ORYX F/W v4.00 Oryx Data Collector v3.7.2.0data status	okinstallation	princeton_trtdifferential loss correction	single-endedforward channel	channel 1reverse channel	N/Adate	2019/09/12time	18:50:34forward acquisition time	15.00reverse acquisition time	0.00gamma	496.2192k internal	0.2319k external	0.2319temperature offset calibration	1.0095default loss term (dB/km)	0.3790temperature slope calibration	1.0000multiplexer offset coefficient	1.0000multiplexer slope coefficient	1.0000fibre end	0.00T internal ref (°C)	32.94T ext. ref 1 (°C)	2.98T ext. ref 2 (°C)	27.42length (m)	temperature (°C)	Stokes	anti-Stokes-747.200	-70.473	-0.218	-0.083
-746.185	26.325	-0.505	0.427
-745.171	-200.000	0.041	0.345
-744.156	111.546	-0.312	-0.381
-743.142	-89.377	-0.703	0.209
-742.127	-137.828	0.762	0.086
-741.112	-200.000	0.166	-1.103
-740.098	-52.548	-0.518	0.242
-739.083	-35.384	-0.361	-0.198
-738.069	94.246	-0.294	0.338
-737.054	128.332	-0.238	0.307
-736.039	264.831	0.184	-0.325
-735.025	558.881	0.086	-0.210
-734.010	-200.000	0.017	-0.677
-732.996	689.839	-0.157	-0.416
-731.981	-200.000	-0.167	-1.675
-730.966	-200.000	0.085	-0.656
-729.952	53.047	0.251	-0.243
-728.937	-156.534	-0.506	-0.032
-727.923	-200.000	0.068	-0.538
-726.908	104.432	-0.493	-0.586
-725.894	287.513	0.334	0.611
-724.879	190.578	0.210	0.319
-723.864	105.011	0.255	0.304
-722.850	-110.239	-0.652	-0.137
-721.835	800.000	0.089	-0.346
-720.821	216.077	0.198	-0.318
-719.806	-200.000	0.028	0.363
-718.791	-200.000	-0.013	0.141
-717.777	-200.000	0.127	-0.606
-716.762	-70.866	-0.338	-0.129
-715.748	-6.546	-0.848	-0.583
-714.733	722.572	0.181	-0.486
-713.718	-191.450	-0.099	0.001
-712.704	-200.000	0.031	-0.438
-711.689	-200.000	0.023	-1.414
-710.675	256.139	-0.577	1.000
-709.660	195.720	0.351	0.540
-708.645	-100.072	-0.143	0.036
-707.631	469.229	-0.468	1.061
-706.616	-31.081	0.824	-0.469
-705.602	280.391	0.236	0.426
-704.587	306.179	0.112	-0.210
-703.572	11.002	0.102	-0.079
-702.558	563.523	-0.017	0.042
-701.543	56.034	-0.101	-0.099
-700.529	800.000	-0.281	-1.000
-699.514	207.750	0.135	0.213
-698.499	-67.272	-0.345	-0.137
-697.485	-57.714	0.257	0.114
-696.470	756.105	0.253	-0.692
-695.456	142.967	0.245	0.329
-694.441	-69.771	0.324	-0.125
-693.426	-79.320	1.120	-0.383
-692.412	-200.000	0.060	-0.741
-691.397	-2.737	1.168	0.824
-690.383	800.000	0.053	0.221
-689.368	62.593	-0.176	-0.178
-688.354	-112.761	-0.746	0.149
-687.339	800.000	0.102	0.433
-686.324	421.071	-0.201	-0.435
-685.310	265.495	0.447	0.786
-684.295	294.421	-0.349	-0.644
-683.281	-200.000	0.138	-0.679
-682.266	-200.000	-0.667	-0.002
-681.251	247.927	0.191	-0.326
-680.237	707.727	-0.179	0.476
-679.222	92.976	-0.424	0.483
-678.208	-200.000	-0.072	0.630
-677.193	-156.212	0.290	0.018
-676.178	280.293	0.288	-0.520
-675.164	-40.333	0.196	-0.103
-674.149	48.602	0.064	0.061
-673.135	-56.026	-0.820	0.369
-672.120	800.000	0.149	-0.586
-671.105	-17.540	0.351	-0.223
-670.091	-68.203	-0.152	0.060
-669.076	-120.443	-1.199	0.206
-668.062	62.514	-0.802	-0.808
-667.047	800.000	-0.226	-0.688
-666.032	-102.055	0.372	-0.091
-665.018	-200.000	-0.182	-1.185
-664.003	800.000	0.280	-0.933
-662.989	-46.128	0.110	0.055
-661.974	800.000	-0.112	-0.350
-660.959	-129.689	-1.178	-0.164
-659.945	-200.000	0.001	0.050
-658.930	-124.838	0.248	0.039
-657.916	150.853	-0.398	-0.546
-656.901	-107.703	0.401	0.088
-655.886	800.000	0.151	0.662
-654.872	-92.209	0.595	-0.169
-653.857	-132.391	0.840	-0.109
-652.843	-65.800	-0.382	0.154
-651.828	441.745	0.233	-0.513
-650.814	-80.497	-0.327	-0.110
-649.799	-88.369	-0.081	0.024
-648.784	20.376	0.256	0.208
-647.770	-200.000	-0.316	-1.413
-646.755	-104.657	0.698	-0.162
-645.741	240.912	0.325	0.547
-644.726	800.000	0.090	0.293
-643.711	-200.000	-0.090	-0.513
-642.697	-16.307	-0.187	0.119
-641.682	-200.000	0.012	0.651
-640.668	-43.689	-0.524	-0.266
-639.653	800.000	-0.160	-0.573
-638.638	800.000	0.222	-0.747
-637.624	-101.974	-0.590	0.143
-636.609	8.275	-0.471	-0.356
-635.595	-76.182	-0.131	0.046
-634.580	800.000	-0.089	-0.362
-633.565	-117.559	-1.037	0.189
-632.551	-2.586	-0.423	0.298
-631.536	-84.285	-0.756	-0.241
-630.522	-200.000	-0.035	-0.210
-629.507	-59.834	0.377	-0.163
-628.492	-200.000	-0.113	0.531
-627.478	800.000	0.175	0.541
-626.463	315.757	-0.320	-0.607
-625.449	63.553	-0.228	-0.230
-624.434	-127.335	-0.298	0.044
-623.419	265.076	0.561	-0.984
-622.405	568.047	-0.269	-0.657
-621.390	-200.000	0.085	0.785
-620.376	91.916	-0.307	0.347
-619.361	-200.000	0.046	0.261
-618.346	-200.000	-0.028	-0.162
-617.332	-145.550	0.327	-0.030
-616.317	-200.000	0.020	0.983
-615.303	302.249	0.179	0.334
-614.288	42.946	-0.286	0.262
-613.273	188.646	-0.217	-0.326
-612.259	224.531	-0.216	0.352
-611.244	800.000	0.221	0.802
-610.230	-132.143	-0.440	-0.057
-609.215	223.142	-0.184	-0.298
-608.201	-69.367	0.250	0.096
-607.186	186.324	-0.139	-0.209
-606.171	-200.000	-0.008	0.434
-605.157	-25.930	-0.713	-0.422
-604.142	-139.446	-0.270	0.029
-603.128	440.086	-0.170	0.373
-602.113	417.781	-0.353	-0.759
-601.098	467.763	-0.115	-0.260
-600.084	-85.874	0.286	0.089
-599.069	-149.362	0.475	-0.038
-598.055	-108.574	-0.676	0.146
-597.040	-89.449	-0.418	-0.124
-596.025	-116.683	0.122	-0.023
-595.011	201.262	-0.583	-0.903
-593.996	-200.000	-0.081	0.522
-592.982	246.668	0.373	-0.633
-591.967	800.000	0.249	-0.715
-590.952	-76.642	0.443	0.156
-589.938	169.367	0.047	-0.068
-588.923	103.054	0.306	-0.361
-587.909	1.694	0.409	0.296
-586.894	-145.757	-0.427	0.038
-585.879	664.528	-0.204	0.530
-584.865	-15.774	0.213	0.137
-583.850	48.097	-0.349	0.328
-582.836	-94.525	0.274	0.075
-581.821	286.942	0.247	-0.449
-580.806	111.381	0.394	0.477
-579.792	-64.533	0.100	-0.041
-578.777	-200.000	0.002	-0.040
-577.763	214.037	0.212	-0.337
-576.748	-60.296	0.303	0.130
-575.733	557.174	0.271	-0.657
-574.719	-200.000	-0.115	0.563
-573.704	226.877	0.152	0.248
-572.690	-70.377	-0.713	-0.272
-571.675	213.076	-0.118	0.187
-570.661	-200.000	0.002	-0.495
-569.646	-163.443	1.047	-0.050
-568.631	76.467	-0.360	-0.383
-567.617	-91.118	-0.133	0.038
-566.602	-100.201	0.534	-0.133
-565.588	266.705	-0.290	-0.508
-564.573	-109.996	1.024	0.215
-563.558	336.200	-0.243	-0.473
-562.544	-162.267	0.966	0.048
-561.529	28.798	-0.153	-0.131
-560.515	-200.000	-0.137	-0.758
-559.500	-162.044	0.610	0.031
-558.485	314.363	0.406	0.768
-557.471	398.447	-0.244	0.512
-556.456	-200.000	0.136	-0.882
-555.442	-138.601	-0.760	-0.084
-554.427	28.047	0.634	0.537
-553.412	-200.000	-0.119	0.896
-552.398	256.472	0.139	-0.240
-551.383	800.000	0.150	0.497
-550.369	800.000	-0.109	-0.401
-549.354	-200.000	-0.157	-0.697
-548.339	-53.237	0.441	0.203
-547.325	800.000	-0.047	-0.172
-546.310	800.000	0.194	-0.701
-545.296	-125.796	0.713	-0.108
-544.281	-88.300	-0.280	-0.084
-543.266	-200.000	-0.028	-0.383
-542.252	-122.255	-0.053	0.009
-541.237	230.980	-0.202	0.332
-540.223	51.003	-0.451	0.429
-539.208	-200.000	0.029	-0.242
-538.193	288.812	-0.479	0.872
-537.179	-31.224	-0.262	0.148
-536.164	-200.000	0.002	-0.525
-535.150	-76.165	-0.838	-0.297
-534.135	-200.000	0.067	-0.526
-533.121	-43.342	-0.336	0.171
-532.106	-200.000	0.053	-0.413
-531.091	604.106	-0.152	-0.381
-530.077	-126.759	0.404	-0.060
-529.062	228.437	0.257	0.420
-528.048	516.220	-0.188	-0.440
-527.033	122.793	-0.109	-0.136
-526.018	-105.079	-0.804	0.185
-525.004	800.000	0.256	-0.906
-523.989	-12.644	0.485	0.317
-522.975	251.106	-0.335	-0.571
-521.960	-84.907	0.521	0.164
-520.945	-26.952	-0.303	0.177
-519.931	-200.000	0.049	0.696
-518.916	-6.480	-0.671	-0.459
-517.902	560.186	-0.048	-0.117
-516.887	-100.348	0.247	0.062
-515.872	-77.999	-0.563	-0.194
-514.858	-200.000	0.017	-0.728
-513.843	76.950	-0.283	0.301
-512.829	-166.012	0.222	-0.009
-511.814	205.592	-0.248	-0.387
-510.799	-31.110	0.787	0.445
-509.785	-200.000	-0.077	-0.362
-508.770	-200.000	-0.018	-0.275
-507.756	800.000	-0.082	0.245
-506.741	286.954	0.253	-0.458
-505.726	600.458	-0.205	0.510
-504.712	216.031	0.570	0.907
-503.697	-179.794	0.526	-0.011
-502.683	26.844	-0.392	-0.329
-501.668	-150.356	0.477	0.037
-500.653	-27.178	0.218	-0.128
-499.639	-120.045	-0.636	0.109
-498.624	-138.769	0.745	-0.081
-497.610	-89.604	-0.387	0.114
-496.595	-71.479	-0.711	0.266
-495.581	-176.130	1.023	-0.027
-494.566	-104.925	0.939	0.216
-493.551	800.000	0.214	0.649
-492.537	323.628	0.204	-0.389
-491.522	-200.000	-0.059	-0.268
-490.508	20.821	0.127	0.103
-489.493	259.254	-0.274	0.474
-488.478	11.896	0.368	-0.283
-487.464	-200.000	-0.042	0.392
-486.449	130.119	-0.333	-0.427
-485.435	-200.000	0.119	1.052
-484.420	269.682	0.406	0.714
-483.405	-200.000	-0.035	0.743
-482.391	207.743	0.253	0.396
-481.376	-130.036	-0.647	0.089
-480.362	-19.503	0.280	-0.174
-479.347	-138.589	-0.480	-0.053
-478.332	504.884	0.270	0.626
-477.318	243.954	-0.356	0.599
-476.303	10.180	-0.271	0.206
-475.289	-29.562	-0.255	0.146
-474.274	322.468	0.689	1.313
-473.259	278.636	-0.390	-0.696
-472.245	-138.571	-0.519	-0.057
-471.230	-200.000	-0.117	0.772
-470.216	188.373	-0.288	0.431
-469.201	-104.735	-0.398	-0.092
-468.186	796.312	0.068	0.188
-467.172	-62.503	-0.465	-0.193
-466.157	386.115	0.344	-0.711
-465.143	38.477	0.323	0.288
-464.128	-173.814	0.407	0.012
-463.113	274.901	0.545	0.967
-462.099	-55.187	0.289	-0.130
-461.084	-200.000	-0.063	0.287
-460.070	-200.000	0.124	0.705
-459.055	682.393	-0.331	-0.864
-458.040	-22.853	0.320	-0.193
-457.026	141.816	0.071	-0.094
-456.011	-200.000	-0.007	0.106
-454.997	-83.655	0.401	-0.128
-453.982	-14.206	-0.237	-0.153
-452.968	10.748	0.394	0.300
-451.953	-50.228	-0.319	-0.151
-450.938	-200.000	0.065	0.481
-449.924	-135.960	0.155	-0.018
-448.909	55.957	0.317	-0.308
-447.895	-159.153	-0.608	-0.034
-446.880	42.607	0.290	0.264
-445.865	-143.019	0.217	-0.021
-444.851	-43.188	0.321	0.162
-443.836	-195.426	0.649	-0.005
-442.822	-101.909	0.634	0.153
-441.807	-200.000	0.073	0.361
-440.792	-200.000	-0.054	1.024
-439.778	-127.415	0.298	0.043
-438.763	640.889	-0.169	-0.431
-437.749	-200.000	0.923	-0.002
-436.734	800.000	-0.252	-0.729
-435.719	-60.201	0.526	-0.224
-434.705	800.000	0.163	0.599
-433.690	176.630	-0.198	0.287
-432.676	34.243	-0.741	0.646
-431.661	800.000	-0.126	-0.372
-430.646	800.000	0.208	-0.704
-429.632	-200.000	-0.102	-0.537
-428.617	11.705	0.196	0.150
-427.603	350.676	-0.312	0.616
-426.588	-2.465	0.275	0.192
-425.573	75.019	0.590	0.621
-424.559	385.047	0.327	-0.673
-423.544	-6.524	-0.724	0.493
-422.530	745.931	-0.169	-0.455
-421.515	-80.217	1.058	0.354
-420.500	697.030	0.258	0.678
-419.486	800.000	0.342	1.422
-418.471	-17.642	1.026	-0.644
-417.457	-103.846	0.175	-0.041
-416.442	-170.990	0.810	-0.028
-415.428	571.236	-0.431	1.049
-414.413	146.979	-0.590	0.793
-413.398	14.935	-0.429	-0.335
-412.384	25.115	-0.552	-0.457
-411.369	800.000	-0.068	0.298
-410.355	-59.399	0.520	0.223
-409.340	-17.386	-0.474	0.298
-408.325	-200.000	0.006	-0.561
-407.311	800.000	-0.112	-0.325
-406.296	-27.993	-0.521	0.301
-405.282	76.189	-0.047	0.050
-404.267	-100.785	0.477	0.117
-403.252	-99.793	-0.219	-0.055
-402.238	-147.630	0.887	0.074
-401.223	107.243	0.178	-0.211
-400.209	-200.000	0.007	-0.225
-399.194	-200.000	0.019	-0.248
-398.179	-200.000	-0.111	-0.495
-397.165	-200.000	-0.083	0.375
-396.150	153.890	0.501	0.686
-395.136	-174.851	0.569	0.016
-394.121	-77.214	-0.383	0.133
-393.106	-145.318	0.828	-0.075
-392.092	-124.848	0.568	0.088
-391.077	-200.000	-0.090	-0.466
-390.063	-200.000	0.011	-0.270
-389.048	-66.350	-0.972	0.385
-388.033	164.181	-0.399	-0.561
-387.019	106.191	-0.329	-0.389
-386.004	-95.801	-0.689	-0.183
-384.990	-200.000	-0.002	0.899
-383.975	800.000	0.053	0.178
-382.960	-200.000	0.057	-0.394
-381.946	-114.939	-0.196	-0.037
-380.931	-200.000	0.007	-0.804
-379.917	-53.301	0.899	-0.411
-378.902	494.001	0.302	0.691
-377.888	800.000	-0.066	-0.272
-376.873	8.576	-0.164	-0.123
-375.858	45.059	-0.144	0.132
-374.844	-71.501	-0.686	-0.256
-373.829	84.062	-0.331	0.360
-372.815	-99.867	-0.563	-0.140
-371.800	-170.367	0.318	-0.011
-370.785	648.765	-0.071	-0.181
-369.771	-150.086	-0.521	0.040
-368.756	292.560	0.294	0.534
-367.742	-198.210	-1.257	0.007
-366.727	-123.643	-0.395	-0.062
-365.712	38.697	-0.349	0.311
-364.698	-139.648	0.532	-0.057
-363.683	351.186	0.287	0.566
-362.669	-59.971	0.710	0.302
-361.654	-95.473	0.502	-0.134
-360.639	-200.000	0.019	-0.092
-359.625	-98.185	0.342	-0.088
-358.610	50.951	0.160	0.151
-357.596	-172.152	0.231	0.007
-356.581	-45.900	0.598	-0.294
-355.566	74.449	-0.129	-0.135
-354.552	-25.720	0.433	-0.255
-353.537	-12.738	0.641	-0.416
-352.523	800.000	-0.327	-1.260
-351.508	-200.000	-0.022	0.789
-350.493	-200.000	0.011	0.204
-349.479	798.575	0.121	-0.332
-348.464	-200.000	-0.054	0.252
-347.450	334.915	-0.310	-0.598
-346.435	169.207	-0.538	0.764
-345.420	-109.744	-0.576	-0.121
-344.406	-24.974	-0.271	-0.160
-343.391	-64.615	0.642	0.259
-342.377	-83.300	0.456	0.146
-341.362	800.000	-0.134	-0.448
-340.348	276.561	-0.442	0.782
-339.333	-200.000	-0.025	-1.176
-338.318	270.212	-0.137	-0.240
-337.304	70.759	-0.184	0.190
-336.289	-200.000	0.093	-0.531
-335.275	148.396	-0.396	-0.532
-334.260	570.556	-0.158	-0.384
-333.245	-12.687	-0.506	-0.328
-332.231	-72.765	0.335	-0.123
-331.216	516.783	0.039	0.090
-330.202	84.218	-0.295	-0.321
-329.187	-72.423	0.435	-0.160
-328.172	-114.598	1.041	-0.198
-327.158	-24.771	-0.416	-0.246
-326.143	48.025	-0.251	0.233
-325.129	-43.693	-0.221	-0.111
-324.114	183.691	0.163	-0.240
-323.099	-200.000	0.079	0.383
-322.085	-200.000	0.095	0.688
-321.070	800.000	0.081	0.274
-320.056	483.055	0.090	-0.203
-319.041	659.051	0.252	0.645
-318.026	355.946	0.372	-0.738
-317.012	11.617	-0.574	-0.438
-315.997	134.917	-0.182	0.235
-314.983	161.380	-0.433	0.602
-313.968	-113.470	0.324	-0.063
-312.953	-99.570	-0.690	-0.173
-311.939	367.245	-0.081	0.164
-310.924	19.101	0.521	-0.416
-309.910	-40.813	-0.621	0.320
-308.895	-200.000	0.004	0.134
-307.880	-200.000	-0.068	0.781
-306.866	-200.000	0.136	-1.294
-305.851	-118.242	-0.104	-0.018
-304.837	-200.000	-0.017	-0.120
-303.822	800.000	0.240	-0.723
-302.807	-96.100	-0.288	-0.076
-301.793	542.949	-0.317	-0.753
-300.778	308.726	-0.275	0.511
-299.764	248.449	0.148	-0.248
-298.749	0.113	-0.245	0.174
-297.735	-163.063	-0.784	0.038
-296.720	800.000	-0.303	-0.862
-295.705	-88.856	0.408	-0.120
-294.691	-97.215	0.106	0.028
-293.676	-99.596	-0.277	0.069
-292.662	45.223	0.167	-0.153
-291.647	800.000	-0.220	0.780
-290.632	-67.187	0.880	-0.345
-289.618	-74.780	-0.546	0.195
-288.603	800.000	0.078	-0.308
-287.589	198.297	0.609	0.925
-286.574	119.313	0.394	0.484
-285.559	800.000	-0.167	0.671
-284.545	230.707	0.220	0.357
-283.530	-112.332	0.208	-0.041
-282.516	5.666	0.219	0.161
-281.501	-130.220	-0.382	-0.052
-280.486	-200.000	-0.101	0.468
-279.472	-200.000	0.004	-0.171
-278.457	337.174	-0.063	-0.122
-277.443	299.660	-0.396	-0.724
-276.428	-33.202	-0.504	-0.277
-275.413	83.195	-0.255	-0.275
-274.399	97.764	-0.109	0.124
-273.384	156.962	-0.291	0.400
-272.370	-35.621	0.217	0.117
-271.355	-68.620	0.514	-0.198
-270.340	154.161	0.278	0.378
-269.326	-200.000	-0.015	0.556
-268.311	-52.349	-0.788	-0.362
-267.297	-57.604	-0.497	-0.216
-266.282	-200.000	0.093	-0.468
-265.267	102.061	0.157	-0.182
-264.253	298.883	-0.133	-0.242
-263.238	48.868	0.456	-0.425
-262.224	-117.646	0.396	-0.071
-261.209	-100.800	-0.312	-0.076
-260.195	64.144	-0.227	-0.226
-259.180	-108.398	-0.404	0.086
-258.165	59.926	-0.699	0.685
-257.151	-200.000	0.057	-0.476
-256.136	-151.887	-0.336	-0.024
-255.122	686.060	-0.306	-0.793
-254.107	28.512	0.307	-0.257
-253.092	198.090	0.429	-0.651
-252.078	800.000	0.082	0.250
-251.063	-106.558	-0.762	-0.168
-250.049	800.000	0.115	-0.363
-249.034	800.000	-0.105	-0.317
-248.019	-56.922	-0.507	-0.222
-247.005	-177.420	0.646	-0.016
-245.990	55.800	0.962	0.925
-244.976	-100.561	-0.508	0.125
-243.961	471.648	0.141	-0.315
-242.946	-88.120	-0.517	0.154
-241.932	-129.444	-0.535	0.074
-240.917	-200.000	0.008	-0.471
-239.903	-200.000	-0.060	0.408
-238.888	-200.000	-0.027	-0.303
-237.873	-30.932	-0.199	0.112
-236.859	415.872	-0.213	-0.451
-235.844	-200.000	0.069	0.491
-234.830	89.927	-0.143	0.158
-233.815	-70.284	-0.204	-0.077
-232.800	-14.393	0.572	0.365
-231.786	63.538	-0.105	0.104
-230.771	120.179	0.103	-0.127
-229.757	91.229	0.452	-0.503
-228.742	379.422	0.569	-1.155
-227.727	-138.459	-0.075	0.008
-226.713	167.356	0.169	0.238
-225.698	209.910	-0.292	-0.455
-224.684	-142.389	1.198	0.117
-223.669	60.902	-0.594	-0.584
-222.655	-200.000	-0.158	-0.799
-221.640	40.378	-0.403	0.359
-220.625	154.700	0.384	-0.523
-219.611	-200.000	-0.084	-0.435
-218.596	-143.568	-0.506	-0.048
-217.582	23.822	-0.277	-0.226
-216.567	800.000	-0.068	0.265
-215.552	-200.000	0.126	-0.579
-214.538	-64.723	-0.623	-0.250
-213.523	35.745	-0.606	0.527
-212.509	-200.000	0.043	0.194
-211.494	-200.000	0.014	1.042
-210.479	-9.904	-0.812	0.535
-209.465	-200.000	-0.045	-0.257
-208.450	-1.905	0.488	0.340
-207.436	49.635	0.663	0.619
-206.421	136.947	0.389	-0.504
-205.406	-167.696	0.548	0.021
-204.392	-75.750	-0.573	-0.201
-203.377	180.457	-0.312	0.453
-202.363	78.614	0.048	0.051
-201.348	374.535	0.213	-0.429
-200.333	478.606	-0.211	-0.472
-199.319	-81.677	-0.553	-0.180
-198.304	-102.585	-1.140	-0.270
-197.290	-67.647	0.559	-0.217
-196.275	-200.000	0.019	0.295
-195.260	-79.050	-0.155	0.052
-194.246	70.713	-0.441	-0.451
-193.231	800.000	0.384	1.074
-192.217	443.373	0.044	-0.094
-191.202	-33.466	-0.039	-0.021
-190.187	302.029	0.816	1.494
-189.173	-200.000	0.036	0.886
-188.158	800.000	-0.208	0.762
-187.144	800.000	-0.162	-0.579
-186.129	612.985	0.405	1.004
-185.114	-19.052	0.156	0.096
-184.100	126.485	0.388	-0.486
-183.085	-200.000	-0.034	-0.367
-182.071	-112.242	0.738	-0.147
-181.056	-148.928	0.290	-0.023
-180.042	61.823	-0.718	0.707
-179.027	-200.000	-0.073	-0.341
-178.012	-137.197	-0.434	-0.049
-176.998	162.470	-0.346	0.480
-175.983	-13.050	-0.228	0.147
-174.969	800.000	-0.133	0.448
-173.954	-200.000	0.074	0.750
-172.939	28.980	0.275	0.231
-171.925	-71.340	0.572	-0.212
-170.910	33.977	0.204	-0.176
-169.896	-62.261	0.501	-0.206
-168.881	147.986	-0.393	-0.524
-167.866	-181.651	-0.806	-0.015
-166.852	-72.652	0.423	0.154
-165.837	-53.395	0.498	0.226
-164.823	618.713	-0.254	0.632
-163.808	-42.811	-0.377	0.190
-162.793	213.167	0.144	0.225
-161.779	-84.166	0.588	0.184
-160.764	-200.000	-0.096	-0.777
-159.750	155.544	0.256	-0.348
-158.735	240.550	0.159	0.263
-157.720	-63.434	0.370	-0.150
-156.706	9.338	0.522	0.390
-155.691	63.238	-0.146	0.145
-154.677	-101.244	0.249	-0.060
-153.662	-200.000	-0.009	-0.619
-152.647	169.196	0.388	-0.548
-151.633	-85.261	-0.470	0.145
-150.618	-176.814	0.238	0.006
-149.604	20.526	0.245	0.196
-148.589	-17.051	0.356	-0.222
-147.574	800.000	-0.100	0.351
-146.560	487.710	-0.414	0.935
-145.545	54.014	0.257	-0.244
-144.531	105.266	0.098	0.115
-143.516	72.830	0.372	-0.383
-142.502	-23.900	0.489	-0.289
-141.487	-200.000	-0.189	-1.104
-140.472	-200.000	0.067	-0.924
-139.458	-62.613	0.870	-0.357
-138.443	-115.448	-0.323	0.060
-137.429	123.649	-0.672	0.833
-136.414	62.712	0.149	0.147
-135.399	-93.885	-0.488	0.132
-134.385	620.095	0.153	0.379
-133.370	536.247	0.303	0.709
-132.356	-26.443	0.881	0.510
-131.341	-105.554	-0.524	-0.117
-130.326	-142.283	-0.401	-0.039
-129.312	-200.000	-0.031	-0.391
-128.297	657.718	-0.268	0.681
-127.283	182.660	-0.430	0.626
-126.268	258.502	-0.183	0.311
-125.253	499.578	-0.299	-0.681
-124.239	-102.906	-0.534	-0.125
-123.224	-200.000	-0.094	-0.599
-122.210	-6.879	-0.570	-0.383
-121.195	-135.832	1.122	0.131
-120.180	-123.915	-0.369	-0.057
-119.166	-159.789	-0.440	0.024
-118.151	-200.000	0.084	0.891
-117.137	295.055	0.302	0.545
-116.122	-60.369	-0.602	0.253
-115.107	115.813	-0.471	0.568
-114.093	244.445	-0.325	0.538
-113.078	140.636	-0.508	0.663
-112.064	737.262	0.312	-0.826
-111.049	731.126	-0.257	-0.679
-110.034	-200.000	-0.166	-0.791
-109.020	164.524	-0.210	-0.293
-108.005	243.665	-0.092	-0.153
-106.991	61.069	-0.245	0.240
-105.976	-200.000	0.080	-0.526
-104.962	-200.000	-0.028	0.416
-103.947	320.422	-0.162	-0.304
-102.932	52.638	0.157	-0.148
-101.918	-63.816	0.894	0.361
-100.903	181.417	0.474	0.688
-99.889	614.796	-0.218	0.540
-98.874	149.339	-0.169	0.226
-97.859	36.330	-0.344	-0.299
-96.845	557.130	0.140	0.334
-95.830	-138.325	0.531	0.058
-94.816	78.234	-0.512	0.538
-93.801	-129.190	-0.836	-0.115
-92.786	389.102	0.178	-0.363
-91.772	14.657	-0.919	0.708
-90.757	133.175	-0.256	0.326
-89.743	-30.864	0.171	0.095
-88.728	-115.744	-0.965	-0.178
-87.713	-200.000	-0.002	-0.026
-86.699	188.384	0.407	-0.600
-85.684	800.000	-0.220	0.935
-84.670	304.866	-0.388	0.710
-83.655	127.792	0.064	0.081
-82.640	-200.000	0.262	-1.329
-81.626	-45.471	0.483	0.236
-80.611	-200.000	-0.034	0.727
-79.597	6.623	-0.447	0.328
-78.582	18.853	0.162	0.128
-77.567	-168.408	0.713	0.027
-76.553	-12.525	0.402	0.258
-75.538	-106.251	0.934	0.206
-74.524	-105.055	-1.258	0.284
-73.509	-45.670	-0.437	-0.213
-72.494	7.869	-0.416	-0.307
-71.480	47.259	-0.693	0.636
-70.465	-137.959	-0.294	-0.032
-69.451	-200.000	0.047	0.309
-68.436	-200.000	-0.011	-0.119
-67.422	-86.702	-1.120	0.338
-66.407	-56.914	0.562	0.245
-65.392	133.755	-0.707	-0.901
-64.378	3.142	0.653	0.468
-63.363	-137.040	-0.218	-0.025
-62.349	205.218	-0.176	0.269
-61.334	-40.944	-1.446	-0.736
-60.319	-200.000	0.037	0.345
-59.305	585.487	-0.395	-0.956
-58.290	-200.000	0.117	1.098
-57.276	800.000	-0.246	1.041
-56.261	-200.000	96.719	579.750
-55.246	660.967	1362.081	3454.525
-54.232	202.779	2524.635	3839.391
-53.217	119.335	2124.272	2588.134
-52.203	44.578	1595.549	1443.708
-51.188	36.426	1334.523	1158.824
-50.173	33.318	1293.622	1105.153
-49.159	56.707	1343.269	1287.122
-48.144	57.880	1358.858	1308.970
-47.130	36.586	1316.933	1144.312
-46.115	33.213	1299.902	1109.723
-45.100	32.993	1295.622	1104.737
-44.086	33.085	1292.052	1102.184
-43.071	32.705	1290.921	1098.961
-42.057	32.883	1288.496	1097.894
-41.042	32.952	1287.044	1097.013
-40.027	32.801	1285.887	1095.104
-39.013	33.121	1282.496	1094.026
-37.998	32.675	1282.158	1091.113
-36.984	33.037	1280.190	1091.487
-35.969	32.923	1278.944	1089.723
-34.954	33.017	1275.991	1087.704
-33.940	33.075	1275.508	1087.586
-32.925	32.776	1274.853	1085.265
-31.911	32.953	1272.482	1084.219
-30.896	33.056	1271.331	1083.787
-29.881	33.027	1269.716	1082.200
-28.867	33.222	1268.021	1081.825
-27.852	33.033	1267.040	1079.868
-26.838	33.159	1264.928	1078.742
-25.823	33.048	1264.165	1077.415
-24.809	33.081	1262.739	1076.347
-23.794	33.006	1261.982	1075.232
-22.779	33.020	1261.116	1074.532
-21.765	32.880	1259.749	1072.526
-20.750	33.025	1258.096	1071.900
-19.736	32.916	1256.367	1069.769
-18.721	32.859	1255.160	1068.373
-17.706	32.954	1254.820	1068.578
-16.692	33.081	1252.994	1067.704
-15.677	32.816	1252.477	1065.724
-14.663	32.823	1250.864	1064.345
-13.648	32.846	1250.721	1064.314
-12.633	33.053	1248.643	1063.667
-11.619	32.775	1249.033	1062.390
-10.604	33.006	1247.003	1061.921
-9.590	32.887	1246.805	1061.039
-8.575	32.766	1246.002	1059.635
-7.560	32.731	1244.162	1057.832
-6.546	32.727	1244.233	1057.827
-5.531	32.721	1243.819	1057.401
-4.517	32.509	1242.604	1055.137
-3.502	33.003	1241.107	1056.590
-2.487	33.017	1239.626	1055.368
-1.473	33.075	1235.764	1052.359
-0.458	31.576	1220.411	1030.993
0.556	28.395	1203.933	991.779
1.571	24.503	1208.816	974.516
2.586	23.602	1223.458	981.251
3.600	23.131	1211.641	969.110
4.615	17.258	1140.228	881.539
5.629	7.517	1064.378	775.449
6.644	3.339	1044.320	740.713
7.659	2.870	1042.221	736.906
8.673	2.953	1039.690	735.449
9.688	2.760	1038.964	733.949
10.702	3.022	1038.779	735.005
11.717	9.164	1046.945	770.247
12.731	18.646	1060.890	826.311
13.746	23.736	1065.582	854.447
14.761	24.520	1065.739	858.263
15.775	24.303	1065.651	857.075
16.790	24.160	1064.185	855.131
17.804	23.861	1065.824	854.939
18.819	24.073	1063.858	854.303
19.834	24.079	1063.081	853.630
20.848	24.380	1062.403	854.451
21.863	24.083	1062.175	852.773
22.877	24.126	1061.325	852.221
23.892	24.339	1060.497	852.498
24.907	24.278	1059.326	851.188
25.921	24.158	1058.389	849.788
26.936	24.059	1057.620	848.623
27.950	23.708	1056.040	845.610
28.965	23.842	1054.359	844.826
29.980	23.927	1052.751	843.865
30.994	23.954	1052.901	844.042
32.009	24.060	1051.148	843.063
33.023	24.074	1049.794	841.967
34.038	24.148	1048.578	841.268
35.053	24.193	1049.212	841.913
36.067	24.043	1048.143	840.276
37.082	24.065	1047.340	839.661
38.096	24.334	1045.911	839.705
39.111	24.134	1045.962	838.732
40.126	23.853	1045.177	836.705
41.140	23.737	1042.821	834.200
42.155	23.550	1041.361	832.084
43.169	23.388	1041.984	831.745
44.184	23.678	1040.438	831.795
45.199	23.697	1039.425	831.003
46.213	23.843	1038.042	830.507
47.228	23.809	1038.415	830.572
48.242	24.052	1037.468	830.876
49.257	24.091	1036.709	830.374
50.271	24.314	1035.663	830.503
51.286	24.113	1035.491	829.356
52.301	23.880	1034.553	827.445
53.315	23.785	1034.159	826.617
54.330	23.773	1032.132	824.866
55.344	24.069	1031.357	825.550
56.359	23.832	1031.053	824.134
57.374	23.948	1030.233	823.941
58.388	23.855	1028.616	822.145
59.403	23.779	1028.325	821.489
60.417	23.423	1027.505	819.117
61.432	23.802	1026.441	819.944
62.447	23.724	1025.399	818.682
63.461	23.976	1025.120	819.545
64.476	23.605	1023.573	816.530
65.490	23.523	1024.353	816.704
66.505	23.610	1023.182	816.097
67.520	23.741	1021.810	815.533
68.534	23.394	1020.972	813.199
69.549	23.152	1019.867	811.136
70.563	23.003	1019.968	810.464
71.578	22.909	1018.330	808.661
72.593	23.039	1017.293	808.360
73.607	22.979	1017.030	807.807
74.622	23.739	1015.707	810.149
75.636	23.250	1016.121	808.178
76.651	23.627	1014.663	808.663
77.666	23.319	1015.329	807.717
78.680	23.298	1014.058	806.542
79.695	23.300	1012.608	805.324
80.709	23.351	1012.613	805.491
81.724	23.442	1012.721	805.918
82.739	23.770	1011.071	806.020
83.753	23.980	1011.150	806.964
84.768	24.457	1010.577	808.597
85.782	24.450	1009.545	807.668
86.797	24.584	1008.118	807.064
87.812	24.436	1007.809	806.077
88.826	24.173	1008.380	805.271
89.841	24.475	1005.728	804.442
90.855	24.595	1005.017	804.344
91.870	24.260	1004.084	802.018
92.884	24.508	1002.621	801.894
93.899	24.073	1003.273	800.388
94.914	24.452	1002.077	801.066
95.928	24.103	1000.883	798.473
96.943	24.182	999.417	797.587
97.957	24.125	998.645	796.646
98.972	24.265	997.458	796.255
99.987	24.141	997.912	795.991
101.001	23.853	996.613	793.603
102.016	24.084	996.048	794.109
103.030	24.177	994.017	792.836
104.045	24.317	993.952	793.339
105.060	24.177	992.339	791.359
106.074	24.241	991.092	790.577
107.089	24.172	990.668	789.863
108.103	23.818	989.714	787.462
109.118	23.840	988.907	786.851
110.133	23.532	986.945	783.859
111.147	23.404	987.298	783.502
112.162	23.722	985.500	783.411
113.176	23.695	984.593	782.501
114.191	23.989	983.955	783.217
115.206	23.613	983.700	781.291
116.220	23.230	983.922	779.713
117.235	23.413	982.116	779.015
118.249	23.558	981.368	778.992
119.264	23.352	979.895	776.848
120.279	23.303	979.811	776.499
121.293	23.493	978.871	776.516
122.308	23.340	978.500	775.485
123.322	23.301	976.668	773.793
124.337	23.281	975.407	772.640
125.352	23.391	974.511	772.339
126.366	23.203	974.172	771.186
127.381	23.619	972.937	771.951
128.395	24.030	972.462	773.292
129.410	23.979	971.877	772.536
130.424	24.055	971.142	772.213
131.439	24.171	969.978	771.720
132.454	23.743	969.817	769.672
133.468	23.959	968.946	769.846
134.483	23.932	967.767	768.724
135.497	24.029	967.764	769.073
136.512	24.094	966.556	768.324
137.527	24.077	965.892	767.655
138.541	23.925	965.212	766.391
139.556	24.145	964.642	766.822
140.570	24.296	963.835	766.761
141.585	24.536	963.210	767.224
142.600	24.654	961.523	766.320
143.614	24.374	961.699	765.192
144.629	24.558	959.848	764.438
145.643	24.260	959.583	762.886
146.658	24.152	958.749	761.692
147.673	24.181	956.814	760.212
148.687	24.058	955.692	758.729
149.702	24.128	954.512	758.024
150.716	24.074	954.097	757.398
151.731	23.964	954.360	757.072
152.746	24.245	951.870	756.221
153.760	24.038	952.359	755.662
154.775	24.222	952.453	756.453
155.789	24.453	950.973	756.190
156.804	24.408	950.181	755.302
157.819	24.473	949.994	755.363
158.833	24.338	948.876	753.836
159.848	24.813	947.095	754.358
160.862	24.695	945.974	752.900
161.877	24.558	944.345	750.963
162.892	24.450	944.509	750.571
163.906	24.109	943.166	748.003
164.921	24.364	941.902	748.006
165.935	24.243	941.915	747.441
166.950	24.068	941.637	746.422
167.964	24.298	940.074	746.078
168.979	24.004	938.982	743.920
169.994	23.919	938.974	743.490
171.008	24.370	938.344	744.810
172.023	24.678	937.162	745.089
173.037	24.580	935.353	743.178
174.052	24.575	934.472	742.391
175.067	24.220	934.286	740.703
176.081	24.266	933.804	740.446
177.096	23.961	933.732	739.054
178.110	23.791	932.545	737.348
179.125	23.630	932.240	736.370
180.140	23.964	930.607	736.400
181.154	23.932	931.419	736.846
182.169	24.440	931.660	739.073
183.183	24.423	930.979	738.400
184.198	24.178	929.005	735.756
185.213	24.458	928.468	736.420
186.227	24.211	928.479	735.345
187.242	24.565	927.389	735.877
188.256	24.616	927.038	735.740
189.271	24.736	926.170	735.482
190.286	24.246	925.254	732.677
191.300	23.975	924.498	730.901
192.315	23.270	923.370	727.050
193.329	23.216	922.432	726.023
194.344	23.616	923.697	728.599
195.359	23.917	923.342	729.489
196.373	24.824	921.414	731.611
197.388	24.567	921.969	730.936
198.402	24.615	922.305	731.335
199.417	24.911	921.184	731.589
200.432	24.771	920.234	730.200
201.446	24.825	919.123	729.473
202.461	24.582	919.222	728.498
203.475	24.199	917.684	725.652
204.490	23.651	916.262	722.236
205.504	24.141	916.228	724.138
206.519	24.659	915.817	725.855
207.534	24.213	915.863	724.015
208.548	24.583	915.086	724.838
209.563	24.598	913.945	723.930
210.577	24.565	913.159	723.109
211.592	24.684	913.582	723.863
212.607	24.929	912.594	724.008
213.621	24.921	911.630	723.146
214.636	24.657	911.585	721.981
215.650	24.574	911.456	721.479
216.665	24.617	910.039	720.467
217.680	24.684	908.775	719.674
218.694	24.646	908.161	718.968
219.709	24.234	908.213	717.289
220.723	24.239	907.298	716.523
221.738	24.212	906.278	715.547
222.753	24.521	905.573	716.166
223.767	24.764	905.611	717.106
224.782	24.781	904.931	716.572
225.796	24.669	904.430	715.666
226.811	24.816	901.978	714.247
227.826	23.977	902.399	711.166
228.840	24.212	901.588	711.402
229.855	24.467	901.168	712.024
230.869	24.305	900.204	710.556
231.884	24.180	900.176	709.972
232.899	24.612	899.826	711.351
233.913	24.333	898.962	709.495
234.928	23.865	898.641	707.319
235.942	23.820	897.305	706.027
236.957	24.010	896.942	706.433
237.972	24.001	897.112	706.466
238.986	24.050	895.544	705.364
240.001	24.042	895.248	705.037
241.015	23.728	895.702	704.090
242.030	24.194	895.020	705.334
243.045	24.537	893.058	705.082
244.059	24.278	893.871	704.636
245.074	24.339	893.216	704.299
246.088	24.798	892.056	705.132
247.103	24.498	892.322	704.098
248.117	24.960	892.421	705.935
249.132	25.109	891.305	705.574
250.147	25.528	890.828	706.783
251.161	25.369	890.716	706.006
252.176	25.018	890.843	704.666
253.190	25.340	888.678	704.153
254.205	25.190	888.482	703.348
255.220	25.458	887.218	703.333
256.234	25.148	886.869	701.780
257.249	25.137	886.726	701.564
258.263	24.996	885.915	700.308
259.278	25.327	884.434	700.366
260.293	25.038	885.142	699.738
261.307	25.340	884.380	700.250
262.322	25.360	882.869	699.069
263.336	24.731	883.040	696.694
264.351	24.438	882.086	694.740
265.366	24.858	881.278	695.675
266.380	24.982	881.341	696.144
267.395	25.091	880.985	696.225
268.409	24.889	879.410	694.137
269.424	25.100	879.503	694.966
270.439	25.190	878.657	694.583
271.453	25.228	877.244	693.552
272.468	25.234	877.036	693.349
273.482	25.232	876.274	692.678
274.497	25.036	876.528	692.062
275.512	25.121	875.124	691.219
276.526	24.901	876.048	691.040
277.541	25.240	873.833	690.534
278.555	25.440	874.475	691.754
279.570	25.265	873.673	690.384
280.585	25.504	872.519	690.327
281.599	25.103	870.908	687.454
282.614	25.031	870.039	686.434
283.628	24.788	870.419	685.740
284.643	24.719	870.358	685.366
285.657	24.873	869.097	684.905
286.672	25.232	867.245	684.754
287.687	25.132	868.480	685.285
288.701	25.178	868.111	685.110
289.716	24.808	867.133	682.865
290.730	24.898	867.524	683.457
291.745	24.998	865.848	682.455
292.760	24.920	864.765	681.247
293.774	25.672	864.520	683.852
294.789	25.797	864.416	684.182
295.803	25.354	863.558	681.763
296.818	25.489	862.562	681.426
297.833	25.623	861.399	680.957
298.847	25.051	862.018	679.218
299.862	25.596	860.232	679.809
300.876	25.125	861.320	678.826
301.891	25.747	860.172	680.213
302.906	25.670	859.689	679.482
303.920	25.906	859.275	679.985
304.935	25.917	859.252	679.946
305.949	25.845	857.523	678.248
306.964	25.392	857.546	676.499
307.979	25.293	857.319	675.890
308.993	25.415	856.693	675.792
310.008	25.427	855.747	675.034
311.022	25.301	855.214	674.079
312.037	25.124	854.948	673.145
313.052	25.249	854.187	672.956
314.066	24.817	853.123	670.441
315.081	24.875	852.306	669.956
316.095	24.936	852.256	670.085
317.110	25.208	851.473	670.428
318.125	24.803	850.903	668.408
319.139	24.484	850.393	666.755
320.154	24.645	849.558	666.644
321.168	24.758	848.346	666.051
322.183	24.781	848.933	666.542
323.197	25.142	848.145	667.207
324.212	25.172	847.386	666.662
325.227	24.533	847.548	664.354
326.241	24.809	847.310	665.133
327.256	24.755	846.099	663.926
328.270	24.938	845.605	664.158
329.285	24.464	844.759	661.676
330.300	24.797	843.540	661.895
331.314	24.979	843.690	662.628
332.329	25.066	843.785	662.967
333.343	25.207	843.927	663.541
334.358	25.298	843.150	663.206
335.373	25.371	841.973	662.494
336.387	25.337	842.120	662.423
337.402	25.430	842.178	662.754
338.416	25.733	842.209	663.837
339.431	25.850	841.841	663.919
340.446	25.982	841.659	664.202
341.460	26.084	839.908	663.140
342.475	26.042	839.816	662.851
343.489	26.016	839.858	662.730
344.504	25.838	839.694	661.891
345.519	26.024	839.562	662.411
346.533	25.922	839.043	661.566
347.548	25.735	837.910	659.932
348.562	26.047	836.466	659.874
349.577	25.767	836.621	658.914
350.592	25.441	836.392	657.484
351.606	25.736	834.939	657.359
352.621	25.524	834.582	656.249
353.635	25.494	834.561	656.063
354.650	25.182	833.050	653.681
355.665	25.327	832.164	653.457
356.679	25.334	831.838	653.168
357.694	25.422	831.446	653.121
358.708	24.956	830.868	650.918
359.723	25.541	829.349	651.792
360.738	25.389	828.977	650.891
361.752	25.457	829.361	651.380
362.767	26.033	828.271	652.552
363.781	25.854	828.029	651.656
364.796	26.158	827.316	652.134
365.810	26.323	827.209	652.588
366.825	25.998	827.008	651.198
367.840	26.102	825.925	650.663
368.854	25.468	826.173	648.513
369.869	25.477	825.537	647.989
370.883	25.861	825.144	649.005
371.898	25.782	825.063	648.600
372.913	26.119	823.573	648.586
373.927	25.672	823.678	647.001
374.942	26.110	822.569	647.645
375.956	25.669	822.927	646.288
376.971	26.126	822.637	647.643
377.986	26.200	821.496	646.953
379.000	26.272	820.884	646.671
380.015	26.194	820.550	646.071
381.029	26.318	819.838	645.898
382.044	26.015	819.887	644.796
383.059	26.169	819.182	644.734
384.073	26.354	817.688	644.162
385.088	25.912	817.539	642.412
386.102	25.367	816.739	639.784
387.117	25.629	815.175	639.434
388.132	25.902	814.525	639.837
389.146	25.548	815.008	638.902
390.161	25.920	815.346	640.434
391.175	26.089	815.242	640.894
392.190	26.097	813.315	639.351
393.205	25.306	812.368	635.751
394.219	24.977	810.673	633.205
395.234	24.640	811.902	632.914
396.248	25.342	811.388	634.940
397.263	25.348	811.317	634.852
398.278	25.206	811.530	634.459
399.292	25.197	810.642	633.679
400.307	25.342	809.444	633.197
401.321	25.082	809.485	632.254
402.336	25.351	810.000	633.549
403.350	25.966	809.047	634.917
404.365	26.105	808.531	634.942
405.380	26.711	807.959	636.570
406.394	26.517	807.944	635.817
407.409	26.442	808.305	635.782
408.423	26.612	806.838	635.170
409.438	26.500	806.709	634.619
410.453	26.513	806.430	634.388
411.467	26.144	805.437	632.260
412.482	26.077	805.886	632.322
413.496	26.614	804.183	632.804
414.511	26.364	804.203	631.890
415.526	26.398	803.063	631.058
416.540	26.354	804.083	631.649
417.555	26.600	802.201	630.975
418.569	26.634	803.004	631.666
419.584	26.621	801.991	630.769
420.599	26.495	802.099	630.362
421.613	159.482	1371.485	1793.038
422.628	138.438	1454.504	1793.107
