DTS Sentinel unit serial number:	SN413079Multiplexer serial number:	ORYXHardware model number:	OX4-SRSoftware version number:	ORYX F/W v4.00 Oryx Data Collector v3.7.2.0data status	okinstallation	princeton_trtdifferential loss correction	single-endedforward channel	channel 1reverse channel	N/Adate	2019/09/13time	12:22:35forward acquisition time	60.00reverse acquisition time	0.00gamma	496.2192k internal	0.2308k external	0.2308temperature offset calibration	1.0167default loss term (dB/km)	0.3790temperature slope calibration	1.0000multiplexer offset coefficient	1.0000multiplexer slope coefficient	1.0000fibre end	0.00T internal ref (°C)	34.17T ext. ref 1 (°C)	4.62T ext. ref 2 (°C)	31.17length (m)	temperature (°C)	Stokes	anti-Stokes-747.200	-200.000	0.039	0.191
-746.185	-80.116	0.286	-0.097
-745.171	-51.149	0.160	0.076
-744.156	177.257	-0.167	0.248
-743.142	46.902	0.221	-0.209
-742.127	2.247	0.162	-0.119
-741.112	-200.000	0.026	0.571
-740.098	633.479	-0.049	0.125
-739.083	-84.040	0.227	-0.073
-738.069	-200.000	-0.050	0.285
-737.054	99.210	0.041	0.048
-736.039	11.544	-0.256	-0.199
-735.025	541.388	0.060	0.144
-734.010	-200.000	-0.007	-0.130
-732.996	-60.730	0.107	-0.046
-731.981	-40.937	-0.510	-0.268
-730.966	800.000	-0.062	0.212
-729.952	-134.263	0.224	0.028
-728.937	648.155	0.088	-0.228
-727.923	-9.561	-0.134	0.091
-726.908	142.748	0.148	-0.199
-725.894	-72.553	0.253	-0.095
-724.879	213.549	0.146	-0.234
-723.864	-114.332	-0.041	0.008
-722.850	-89.453	-0.176	-0.052
-721.835	-28.751	-0.213	-0.124
-720.821	-33.238	-0.325	-0.183
-719.806	-72.903	-0.134	-0.050
-718.791	123.208	-0.109	0.138
-717.777	282.327	-0.113	-0.206
-716.762	-97.035	-0.247	-0.066
-715.748	317.149	-0.087	-0.167
-714.733	19.300	0.326	-0.265
-713.718	89.410	0.145	0.164
-712.704	123.834	-0.113	-0.144
-711.689	-136.056	-0.094	-0.011
-710.675	-139.104	-0.289	0.032
-709.660	-200.000	-0.050	-0.278
-708.645	77.057	-0.096	0.103
-707.631	-200.000	0.053	0.373
-706.616	119.882	0.225	0.283
-705.602	-46.262	-0.415	-0.207
-704.587	113.320	-0.076	0.094
-703.572	-200.000	0.040	-0.259
-702.558	-100.828	-0.104	-0.026
-701.543	191.816	-0.044	-0.067
-700.529	-32.292	0.205	-0.116
-699.514	-26.765	0.106	-0.063
-698.499	-38.895	0.150	-0.080
-697.485	627.318	-0.111	-0.284
-696.470	540.008	0.091	0.220
-695.456	-12.934	-0.172	-0.113
-694.441	107.498	-0.127	-0.154
-693.426	-172.762	-0.171	-0.005
-692.412	-136.073	-0.148	0.018
-691.397	124.122	0.152	0.193
-690.383	-34.898	-0.243	-0.135
-689.368	-22.345	0.199	0.122
-688.354	-132.573	0.218	0.028
-687.339	-151.622	0.301	0.023
-686.324	-37.534	0.198	-0.107
-685.310	312.856	-0.213	-0.406
-684.295	299.994	0.125	0.234
-683.281	-144.874	0.511	0.047
-682.266	-200.000	-0.000	0.040
-681.251	219.995	-0.215	0.348
-680.237	-200.000	-0.005	-0.074
-679.222	24.341	-0.083	-0.069
-678.208	-48.845	-0.171	0.083
-677.193	-56.329	0.159	-0.072
-676.178	-111.687	0.082	-0.017
-675.164	-200.000	0.030	0.135
-674.149	50.544	-0.081	-0.077
-673.135	-200.000	0.013	0.093
-672.120	-141.868	0.174	0.018
-671.105	-174.045	-0.318	0.009
-670.091	-11.915	-0.125	-0.083
-669.076	440.610	0.063	0.140
-668.062	-200.000	-0.006	-0.504
-667.047	-136.295	-0.299	-0.035
-666.032	139.521	0.049	-0.065
-665.018	-146.470	-0.369	-0.033
-664.003	61.585	-0.305	-0.308
-662.989	316.151	-0.102	0.195
-661.974	28.815	0.222	-0.191
-660.959	130.609	-0.108	-0.140
-659.945	43.085	-0.048	0.045
-658.930	-11.548	-0.170	-0.113
-657.916	288.078	0.069	-0.127
-656.901	545.678	-0.079	0.192
-655.886	-92.475	-0.190	0.054
-654.872	-200.000	0.008	-0.106
-653.857	-69.611	0.421	-0.163
-652.843	116.558	-0.182	0.226
-651.828	142.872	-0.052	0.070
-650.814	-99.765	0.105	0.027
-649.799	-130.810	-0.377	0.051
-648.784	-45.502	0.229	0.115
-647.770	-94.652	-0.178	-0.049
-646.755	-47.960	0.118	-0.058
-645.741	212.474	0.064	-0.102
-644.726	-114.628	0.097	-0.019
-643.711	76.605	-0.098	0.105
-642.697	800.000	0.038	-0.129
-641.682	58.023	0.125	-0.124
-640.668	-100.557	-0.079	0.020
-639.653	800.000	0.048	0.158
-638.638	-101.497	-0.125	0.031
-637.624	-104.432	0.270	0.063
-636.609	-200.000	0.033	0.210
-635.595	172.768	-0.190	-0.277
-634.580	615.089	-0.036	0.092
-633.565	-121.582	0.117	0.020
-632.551	-88.658	0.076	0.023
-631.536	632.407	0.073	0.188
-630.522	13.189	0.200	-0.157
-629.507	-200.000	0.016	0.250
-628.492	-50.853	-0.243	0.115
-627.478	-15.834	-0.184	0.118
-626.463	-200.000	0.038	-0.218
-625.449	186.005	-0.048	-0.073
-624.434	18.097	-0.216	-0.174
-623.419	326.532	-0.086	0.167
-622.405	-60.775	-0.095	-0.041
-621.390	-16.945	-0.115	0.073
-620.376	-14.709	0.156	0.101
-619.361	-200.000	-0.016	0.146
-618.346	-58.162	0.273	0.120
-617.332	800.000	-0.038	0.164
-616.317	101.785	-0.077	-0.091
-615.303	-200.000	-0.025	0.283
-614.288	8.744	-0.259	-0.198
-613.273	-83.988	-0.368	0.118
-612.259	800.000	0.032	-0.110
-611.244	-119.184	-0.420	0.074
-610.230	76.223	0.153	0.164
-609.215	-200.000	0.025	-0.147
-608.201	17.192	-0.465	-0.373
-607.186	107.993	-0.059	-0.071
-606.171	-42.062	0.269	-0.139
-605.157	-200.000	0.043	0.465
-604.142	800.000	-0.086	0.333
-603.128	6.907	-0.051	-0.038
-602.113	800.000	0.033	-0.143
-601.098	255.580	-0.135	0.235
-600.084	-200.000	0.025	-0.116
-599.069	-85.991	0.476	0.149
-598.055	24.792	-0.301	0.252
-597.040	800.000	0.102	-0.381
-596.025	800.000	-0.061	-0.263
-595.011	106.292	-0.149	0.179
-593.996	168.536	0.113	0.163
-592.982	-74.875	-0.228	0.083
-591.967	302.930	-0.120	-0.224
-590.952	-105.621	0.331	-0.076
-589.938	-125.024	-0.108	0.017
-588.923	-149.125	0.173	-0.014
-587.909	218.428	-0.025	-0.040
-586.894	-136.286	0.261	-0.031
-585.879	-39.944	-0.245	0.129
-584.865	226.967	-0.230	-0.377
-583.850	45.588	0.167	0.156
-582.836	-200.000	-0.002	0.263
-581.821	-200.000	0.007	-0.232
-580.806	25.555	0.162	-0.136
-579.792	104.269	-0.114	0.136
-578.777	-200.000	-0.007	-0.169
-577.763	457.358	0.072	0.162
-576.748	-68.852	-0.283	-0.110
-575.733	-151.892	-0.272	-0.020
-574.719	41.405	0.074	-0.068
-573.704	624.363	-0.181	-0.461
-572.690	235.141	0.143	0.238
-571.675	-173.580	0.085	-0.003
-570.661	-3.206	-0.031	0.022
-569.646	-200.000	-0.031	-0.141
-568.631	-200.000	-0.006	-0.154
-567.617	800.000	0.078	0.278
-566.602	-187.117	-0.023	-0.000
-565.588	-38.430	0.079	0.042
-564.573	800.000	-0.077	-0.275
-563.558	-86.048	-0.369	0.115
-562.544	77.720	0.169	0.182
-561.529	-48.322	0.270	-0.131
-560.515	-79.783	0.140	-0.048
-559.500	800.000	0.105	0.405
-558.485	800.000	-0.069	-0.254
-557.471	569.154	-0.048	-0.118
-556.456	800.000	0.074	0.295
-555.442	145.818	0.037	0.050
-554.427	-200.000	-0.026	-0.183
-553.412	-200.000	-0.001	-0.063
-552.398	-144.324	0.281	0.026
-551.383	-130.579	0.148	-0.020
-550.369	-105.366	0.160	-0.037
-549.354	-167.839	0.159	-0.006
-548.339	800.000	-0.041	-0.118
-547.325	800.000	-0.050	0.172
-546.310	60.744	-0.194	-0.194
-545.296	800.000	0.103	-0.360
-544.281	-200.000	0.001	0.195
-543.266	-200.000	-0.012	-0.231
-542.252	133.119	0.102	0.133
-541.237	37.930	-0.053	0.048
-540.223	-40.605	-0.253	0.132
-539.208	-107.141	0.215	-0.048
-538.193	800.000	-0.057	0.237
-537.179	-81.187	-0.286	-0.095
-536.164	33.170	0.299	-0.261
-535.150	57.829	0.114	0.112
-534.135	205.676	-0.129	-0.201
-533.121	-53.247	0.318	0.147
-532.106	800.000	0.050	0.162
-531.091	-91.108	0.278	0.080
-530.077	278.296	-0.044	0.080
-529.062	-200.000	-0.004	-0.520
-528.048	237.594	-0.148	-0.248
-527.033	-133.429	0.105	-0.013
-526.018	-29.624	-0.236	-0.136
-525.004	-97.068	0.316	0.083
-523.989	-200.000	-0.008	-0.088
-522.975	138.263	0.125	0.165
-521.960	762.584	0.046	-0.126
-520.945	127.133	-0.211	0.270
-519.931	20.905	0.239	0.195
-518.916	-147.450	-0.048	-0.004
-517.902	-47.014	-0.217	0.107
-516.887	800.000	0.118	-0.353
-515.872	-114.314	-0.107	0.021
-514.858	800.000	0.032	-0.099
-513.843	800.000	-0.028	0.113
-512.829	299.816	-0.099	0.184
-511.814	-104.356	0.261	0.061
-510.799	481.868	-0.139	-0.318
-509.785	-200.000	0.004	-0.153
-508.770	349.337	0.073	-0.145
-507.756	-180.986	-0.360	-0.007
-506.741	412.749	-0.042	0.090
-505.726	-200.000	-0.084	-0.388
-504.712	-34.295	0.233	-0.129
-503.697	-124.260	-0.139	-0.022
-502.683	-58.812	0.302	-0.132
-501.668	-48.561	-0.259	-0.125
-500.653	243.087	0.177	0.299
-499.639	128.945	0.114	0.146
-498.624	800.000	0.101	0.431
-497.610	615.876	-0.114	-0.288
-496.595	2.468	-0.290	0.212
-495.581	-107.356	0.078	0.017
-494.566	-200.000	0.018	-0.195
-493.551	-200.000	0.038	-0.266
-492.537	-104.005	-0.203	-0.048
-491.522	-116.636	0.215	-0.040
-490.508	-38.066	-0.152	-0.081
-489.493	-96.153	-0.233	0.062
-488.478	800.000	-0.050	0.196
-487.464	235.288	-0.103	-0.171
-486.449	9.552	0.112	-0.085
-485.435	-62.750	-0.034	0.014
-484.420	-49.681	0.135	0.064
-483.405	-125.450	0.402	0.062
-482.391	-200.000	-0.021	0.179
-481.376	205.990	0.177	-0.276
-480.362	1.906	-0.286	0.208
-479.347	43.795	-0.108	-0.099
-478.332	800.000	-0.080	-0.323
-477.318	-200.000	0.033	-0.169
-476.303	-200.000	0.039	0.242
-475.289	-200.000	-0.012	0.233
-474.274	-106.246	-0.275	0.062
-473.259	12.944	-0.208	-0.162
-472.245	-16.764	-0.159	-0.101
-471.230	248.130	0.102	-0.174
-470.216	-34.500	0.068	-0.038
-469.201	-200.000	-0.033	-0.264
-468.186	-200.000	-0.004	-0.108
-467.172	57.536	0.081	0.080
-466.157	-75.848	0.096	-0.034
-465.143	-200.000	-0.017	0.336
-464.128	-200.000	0.016	-0.109
-463.113	800.000	-0.067	-0.219
-462.099	-11.838	-0.175	-0.115
-461.084	65.288	0.024	-0.025
-460.070	27.034	-0.048	-0.040
-459.055	-148.851	0.038	0.003
-458.040	800.000	-0.050	0.200
-457.026	506.133	0.173	0.404
-456.011	104.903	-0.084	-0.099
-454.997	-74.515	-0.129	0.047
-453.982	74.077	0.159	-0.167
-452.968	193.094	-0.103	0.157
-451.953	51.498	0.317	0.302
-450.938	800.000	-0.030	-0.109
-449.924	-15.080	-0.397	0.255
-448.909	23.924	0.052	-0.043
-447.895	145.350	0.070	0.094
-446.880	160.364	0.146	0.204
-445.865	-24.390	0.282	0.169
-444.851	-108.951	-0.403	0.086
-443.836	-114.488	0.164	0.032
-442.822	800.000	-0.042	-0.166
-441.807	-152.205	0.227	-0.017
-440.792	-114.579	0.015	-0.003
-439.778	-200.000	0.004	-0.072
-438.763	-61.983	0.130	0.055
-437.749	134.887	-0.107	-0.140
-436.734	-22.899	0.134	0.081
-435.719	-70.011	-0.099	-0.038
-434.705	-14.710	0.154	0.099
-433.690	-67.770	0.365	0.143
-432.676	280.269	0.102	-0.183
-431.661	-200.000	-0.030	0.167
-430.646	139.972	-0.117	0.155
-429.632	-200.000	-0.033	-0.251
-428.617	158.322	-0.091	0.126
-427.603	-92.581	-0.174	0.049
-426.588	-85.081	0.406	-0.128
-425.573	-34.117	0.232	-0.128
-424.559	-37.806	-0.364	-0.195
-423.544	216.070	-0.133	0.213
-422.530	588.309	0.055	0.135
-421.515	-167.802	-0.265	0.010
-420.500	800.000	-0.081	-0.235
-419.486	89.157	0.137	-0.153
-418.471	143.333	0.140	-0.187
-417.457	-143.869	-0.167	0.016
-416.442	800.000	0.093	-0.377
-415.428	-15.412	-0.360	0.231
-414.413	800.000	0.067	0.240
-413.398	-47.154	-0.060	0.029
-412.384	-200.000	-0.002	0.132
-411.369	-169.049	-0.311	-0.012
-410.355	-152.125	-0.320	0.023
-409.340	-200.000	0.076	0.534
-408.325	189.911	0.222	0.334
-407.311	85.445	-0.212	0.233
-406.296	125.320	0.213	-0.270
-405.282	-200.000	-0.067	0.301
-404.267	-200.000	0.027	0.123
-403.252	438.041	-0.217	0.475
-402.238	-130.097	-0.315	-0.043
-401.223	-28.906	-0.115	0.066
-400.209	-171.839	-0.144	0.005
-399.194	-107.914	0.156	-0.034
-398.179	-10.333	-0.076	-0.051
-397.165	-200.000	-0.006	0.084
-396.150	-200.000	-0.017	0.179
-395.136	256.926	0.171	-0.294
-394.121	296.625	0.069	-0.127
-393.106	800.000	-0.071	-0.245
-392.092	260.105	0.177	0.307
-391.077	-100.696	-0.338	0.084
-390.063	8.001	0.203	-0.153
-389.048	-151.764	-0.191	0.014
-388.033	-200.000	0.034	0.274
-387.019	-88.121	0.237	0.071
-386.004	-4.385	0.189	0.131
-384.990	139.846	-0.085	0.112
-383.975	-200.000	0.037	-0.229
-382.960	-86.833	-0.195	0.060
-381.946	649.030	0.110	-0.282
-380.931	-114.862	0.202	0.039
-379.917	800.000	-0.022	0.061
-378.902	172.681	0.092	-0.133
-377.888	45.935	0.092	-0.085
-376.873	17.022	0.345	-0.274
-375.858	-11.962	-0.215	-0.141
-374.844	53.583	0.060	-0.058
-373.829	-200.000	0.047	-0.228
-372.815	175.088	-0.332	0.482
-371.800	141.452	-0.099	-0.131
-370.785	562.365	0.070	-0.170
-369.771	220.099	-0.234	0.376
-368.756	-140.719	-0.004	0.000
-367.742	128.806	0.165	-0.211
-366.727	-133.471	-0.070	0.009
-365.712	-200.000	-0.025	0.126
-364.698	800.000	0.085	0.321
-363.683	126.308	-0.254	-0.322
-362.669	7.485	-0.333	0.250
-361.654	-200.000	-0.020	0.461
-360.639	-200.000	0.026	0.201
-359.625	800.000	0.084	-0.296
-358.610	-46.290	0.105	0.051
-357.596	27.511	-0.052	-0.044
-356.581	155.449	-0.039	-0.054
-355.566	-77.472	0.120	-0.042
-354.552	-23.051	-0.060	0.036
-353.537	-75.675	0.130	-0.046
-352.523	-114.684	-0.277	-0.053
-351.508	-38.818	0.250	0.132
-350.493	-127.730	0.087	0.013
-349.479	800.000	-0.097	-0.330
-348.464	-88.380	-0.084	0.025
-347.450	41.379	0.089	0.080
-346.435	28.601	0.115	0.097
-345.420	-130.900	0.201	-0.027
-344.406	65.583	-0.132	0.134
-343.391	155.599	-0.019	0.027
-342.377	-125.077	0.333	0.051
-341.362	280.658	-0.035	0.062
-340.348	-45.178	-0.367	-0.182
-339.333	-108.545	-0.128	0.027
-338.318	118.251	0.227	0.280
-337.304	-53.464	0.100	0.046
-336.289	268.532	-0.173	0.303
-335.275	-79.521	-0.066	0.022
-334.260	120.469	0.097	0.120
-333.245	-200.000	0.041	-0.252
-332.231	-200.000	-0.006	0.140
-331.216	-200.000	-0.015	0.284
-330.202	-119.738	0.158	-0.027
-329.187	-200.000	0.043	0.369
-328.172	800.000	0.026	0.104
-327.158	497.753	-0.069	0.158
-326.143	-92.519	0.053	0.015
-325.129	-200.000	0.057	0.340
-324.114	269.902	-0.030	-0.053
-323.099	-138.990	-0.308	0.033
-322.085	-37.741	-0.072	0.038
-321.070	-17.565	0.216	0.136
-320.056	19.829	-0.163	-0.132
-319.041	111.161	-0.179	0.216
-318.026	-33.189	-0.137	-0.076
-317.012	-98.245	0.208	-0.053
-315.997	152.542	0.124	0.169
-314.983	585.196	0.083	0.204
-313.968	-26.692	0.263	-0.154
-312.953	5.098	-0.264	0.194
-311.939	-15.574	0.077	-0.049
-310.924	-27.810	0.447	-0.259
-309.910	9.465	0.002	-0.002
-308.895	800.000	0.062	0.174
-307.880	-110.066	0.312	-0.065
-306.866	4.593	0.172	0.126
-305.851	-200.000	0.014	-0.172
-304.837	255.713	-0.134	-0.229
-303.822	57.240	0.015	0.014
-302.807	-43.852	0.214	-0.108
-301.793	168.948	0.187	-0.266
-300.778	193.021	0.111	0.168
-299.764	-49.452	-0.127	0.060
-298.749	31.355	-0.199	-0.170
-297.735	523.327	-0.051	-0.119
-296.720	800.000	-0.043	0.134
-295.705	-157.754	0.276	-0.016
-294.691	96.792	-0.111	-0.127
-293.676	194.151	-0.155	-0.235
-292.662	-55.678	-0.212	-0.095
-291.647	-137.092	-0.169	-0.019
-290.632	215.681	-0.134	-0.212
-289.618	-161.920	-0.037	-0.002
-288.603	-30.636	-0.240	0.136
-287.589	-93.638	-0.137	-0.038
-286.574	22.242	0.369	0.301
-285.559	-30.340	0.087	-0.049
-284.545	-144.055	0.119	-0.011
-283.530	-88.969	-0.250	-0.074
-282.516	-88.598	0.429	0.128
-281.501	33.939	-0.124	-0.108
-280.486	238.648	-0.104	-0.172
-279.472	-16.891	0.131	-0.082
-278.457	-25.411	-0.182	0.108
-277.443	-200.000	0.019	-0.104
-276.428	-84.160	0.221	-0.070
-275.413	-200.000	-0.011	0.178
-274.399	800.000	-0.068	-0.230
-273.384	73.105	-0.271	-0.283
-272.370	23.780	0.086	-0.071
-271.355	800.000	-0.080	-0.233
-270.340	-200.000	-0.033	-0.194
-269.326	-60.307	0.347	0.147
-268.311	800.000	0.063	0.189
-267.297	665.951	-0.058	-0.150
-266.282	10.338	0.267	-0.203
-265.267	-146.353	-0.157	-0.014
-264.253	-137.048	0.147	0.017
-263.238	-200.000	-0.008	-0.344
-262.224	18.852	0.067	0.053
-261.209	-39.798	-0.095	-0.049
-260.195	800.000	-0.043	-0.164
-259.180	-87.855	-0.170	0.051
-258.165	306.834	0.068	-0.127
-257.151	-200.000	-0.037	-0.225
-256.136	217.834	0.083	0.133
-255.122	-200.000	0.041	-0.399
-254.107	202.123	-0.027	-0.041
-253.092	-17.449	0.156	-0.098
-252.078	-200.000	-0.061	0.442
-251.063	83.878	-0.146	-0.159
-250.049	-200.000	-0.017	0.145
-249.034	424.904	0.044	0.095
-248.019	-200.000	0.022	0.179
-247.005	-76.839	-0.180	0.063
-245.990	-101.990	0.046	-0.011
-244.976	-3.049	-0.207	0.144
-243.961	-200.000	-0.070	-0.463
-242.946	-101.073	0.131	-0.032
-241.932	320.495	0.069	0.131
-240.917	800.000	0.039	-0.131
-239.903	-49.367	-0.122	-0.058
-238.888	275.224	0.032	-0.056
-237.873	267.120	0.153	0.267
-236.859	-68.841	0.235	0.091
-235.844	-23.731	0.382	0.228
-234.830	362.252	0.110	0.220
-233.815	46.919	-0.092	0.085
-232.800	-9.975	-0.301	0.199
-231.786	800.000	-0.048	0.141
-230.771	-169.385	-0.099	-0.004
-229.757	65.684	-0.240	-0.243
-228.742	-61.830	0.474	0.198
-227.727	-163.074	-0.306	-0.015
-226.713	-80.480	0.270	0.090
-225.698	-3.229	-0.361	-0.251
-224.684	-200.000	-0.055	-0.423
-223.669	56.316	0.241	0.234
-222.655	16.293	0.090	-0.071
-221.640	-200.000	-0.032	-0.181
-220.625	800.000	0.056	-0.192
-219.611	-154.222	-0.148	-0.010
-218.596	-88.090	0.125	-0.037
-217.582	68.432	0.085	-0.086
-216.567	126.197	-0.093	0.117
-215.552	489.733	-0.041	0.093
-214.538	-200.000	0.025	-0.121
-213.523	266.771	0.134	-0.233
-212.509	-84.688	-0.173	-0.054
-211.494	282.539	-0.172	-0.307
-210.479	-200.000	0.007	0.064
-209.465	-168.013	0.180	-0.007
-208.450	-200.000	-0.030	-0.319
-207.436	159.717	0.104	0.145
-206.421	-200.000	0.023	0.450
-205.406	-166.991	-0.058	0.002
-204.392	-200.000	0.040	0.260
-203.377	-166.415	-0.324	-0.014
-202.363	-27.374	0.047	0.027
-201.348	-44.734	-0.211	0.105
-200.333	23.972	0.235	0.193
-199.319	-80.235	0.116	-0.039
-198.304	-111.751	-0.247	0.050
-197.290	-28.482	0.262	-0.150
-196.275	150.292	0.163	-0.221
-195.260	-77.029	0.050	-0.017
-194.246	38.918	0.082	-0.073
-193.231	245.889	-0.119	0.200
-192.217	126.503	0.189	-0.238
-191.202	-15.727	-0.277	-0.176
-190.187	800.000	-0.048	-0.141
-189.173	-200.000	0.010	0.207
-188.158	118.140	-0.129	-0.158
-187.144	-5.703	0.244	0.166
-186.129	-200.000	0.017	-0.264
-185.114	-163.964	0.235	-0.011
-184.100	120.174	-0.235	-0.290
-183.085	3.221	0.330	0.239
-182.071	-74.516	0.197	-0.071
-181.056	-200.000	0.024	-0.316
-180.042	131.826	0.247	-0.316
-179.027	-160.024	-0.066	-0.004
-178.012	70.895	0.138	0.142
-176.998	389.068	-0.152	-0.313
-175.983	395.724	-0.142	0.294
-174.969	-200.000	-0.008	0.067
-173.954	179.684	-0.073	-0.107
-172.939	-200.000	-0.009	0.134
-171.925	89.749	-0.057	0.063
-170.910	10.798	-0.148	-0.113
-169.896	63.663	0.116	-0.116
-168.881	584.265	-0.093	-0.228
-167.866	23.648	0.230	0.188
-166.852	86.060	0.156	0.170
-165.837	655.126	0.084	0.215
-164.823	800.000	-0.048	0.190
-163.808	-68.415	-0.242	0.093
-162.793	40.440	-0.052	0.046
-161.779	-99.415	0.255	-0.064
-160.764	39.080	0.030	0.027
-159.750	52.929	-0.168	0.160
-158.735	50.948	-0.044	-0.041
-157.720	36.589	-0.031	-0.027
-156.706	190.292	0.055	-0.081
-155.691	535.103	0.130	-0.306
-154.677	-197.773	-0.127	-0.001
-153.662	140.537	0.226	0.296
-152.647	5.209	-0.294	-0.215
-151.633	366.665	-0.077	0.155
-150.618	147.420	0.047	-0.062
-149.604	-200.000	0.033	-0.243
-148.589	-73.998	0.113	0.041
-147.574	-40.218	-0.185	-0.096
-146.560	-200.000	0.001	-0.078
-145.545	-65.814	0.178	0.071
-144.531	-46.427	-0.260	0.127
-143.516	312.234	-0.106	0.197
-142.502	-61.153	-0.203	-0.085
-141.487	101.868	-0.267	-0.309
-140.472	-73.024	-0.335	-0.122
-139.458	-52.631	-0.185	-0.085
-138.443	-1.621	0.296	-0.207
-137.429	-64.408	-0.372	0.150
-136.414	-11.809	0.348	-0.226
-135.399	-16.489	0.166	0.105
-134.385	-76.365	0.137	0.048
-133.370	-92.224	-0.244	0.068
-132.356	-173.068	0.249	-0.008
-131.341	43.151	0.201	-0.182
-130.326	-62.177	0.171	0.071
-129.312	20.465	0.331	-0.265
-128.297	-75.212	-0.303	-0.108
-127.283	-78.784	0.163	0.055
-126.268	-81.828	-0.247	0.080
-125.253	-200.000	-0.044	-0.373
-124.239	-4.670	-0.040	-0.027
-123.224	-200.000	-0.027	-0.231
-122.210	-12.897	0.037	-0.024
-121.195	800.000	-0.041	-0.135
-120.180	218.430	-0.030	-0.047
-119.166	-200.000	-0.000	0.176
-118.151	260.117	0.050	-0.085
-117.137	-129.357	-0.273	-0.038
-116.122	568.905	0.099	-0.237
-115.107	-39.315	-0.109	-0.057
-114.093	229.782	0.073	0.118
-113.078	385.819	-0.090	0.183
-112.064	92.681	-0.048	-0.054
-111.049	-108.964	-0.106	0.022
-110.034	-200.000	-0.005	-0.297
-109.020	62.892	0.274	0.272
-108.005	64.505	0.104	0.104
-106.991	-84.819	-0.245	-0.076
-105.976	81.257	0.219	-0.235
-104.962	-200.000	-0.005	-0.042
-103.947	136.831	0.107	0.138
-102.932	306.503	0.161	0.296
-101.918	800.000	0.069	-0.191
-100.903	-200.000	-0.007	-0.131
-99.889	800.000	0.092	0.265
-98.874	-109.073	-0.328	-0.069
-97.859	800.000	-0.078	-0.325
-96.845	335.940	-0.087	-0.167
-95.830	-10.621	-0.039	0.025
-94.816	318.322	0.095	0.179
-93.801	-32.398	0.201	-0.111
-92.786	114.169	-0.062	-0.075
-91.772	-200.000	-0.045	0.209
-90.757	-109.011	0.252	0.053
-89.743	113.352	-0.077	-0.092
-88.728	619.926	0.012	-0.031
-87.713	227.781	-0.154	0.249
-86.699	-78.667	-0.165	0.056
-85.684	-177.468	0.135	-0.003
-84.670	-78.929	-0.210	-0.071
-83.655	-72.000	-0.096	-0.036
-82.640	800.000	0.063	-0.214
-81.626	-138.446	-0.261	0.028
-80.611	-200.000	-0.008	-0.114
-79.597	69.844	0.047	-0.048
-78.582	-49.642	0.249	0.118
-77.567	-200.000	-0.028	-0.269
-76.553	800.000	0.060	0.193
-75.538	-95.529	-0.214	-0.057
-74.524	800.000	-0.053	0.206
-73.509	96.438	-0.085	0.097
-72.494	598.937	-0.136	-0.334
-71.480	133.175	0.142	0.182
-70.465	720.572	0.077	0.202
-69.451	161.822	0.096	-0.134
-68.436	-66.081	0.112	0.044
-67.422	-26.336	0.343	-0.199
-66.407	281.520	0.088	0.156
-65.392	-61.415	0.320	-0.133
-64.378	-25.858	0.161	-0.094
-63.363	292.738	0.187	0.337
-62.349	110.873	-0.063	-0.075
-61.334	125.954	-0.724	-0.905
-60.319	106.184	0.495	0.580
-59.305	800.000	-0.170	-0.635
-58.290	236.747	0.521	0.854
-57.276	449.512	0.802	1.749
-56.261	-200.000	96.226	565.800
-55.246	621.222	1398.359	3480.316
-54.232	183.749	2623.044	3837.747
-53.217	120.428	2199.925	2702.565
-52.203	45.995	1644.989	1505.948
-51.188	37.742	1376.815	1209.427
-50.173	34.311	1333.872	1150.977
-49.159	56.075	1382.820	1327.504
-48.144	59.999	1401.184	1369.174
-47.130	37.947	1355.186	1191.493
-46.115	34.354	1337.073	1153.812
-45.100	34.121	1332.641	1148.541
-44.086	33.990	1330.550	1145.899
-43.071	33.973	1327.911	1143.478
-42.057	34.082	1325.589	1142.091
-41.042	34.115	1323.706	1140.622
-40.027	34.106	1322.480	1139.465
-39.013	34.161	1320.325	1137.893
-37.998	34.097	1318.684	1136.048
-36.984	34.188	1316.831	1134.949
-35.969	34.213	1314.760	1133.272
-34.954	34.153	1313.451	1131.739
-33.940	34.352	1311.448	1131.153
-32.925	34.257	1310.599	1129.810
-31.911	34.209	1309.555	1128.583
-30.896	34.301	1307.511	1127.317
-29.881	34.233	1306.473	1125.980
-28.867	34.248	1305.044	1124.791
-27.852	34.251	1303.240	1123.209
-26.838	34.295	1301.781	1122.162
-25.823	34.248	1300.781	1120.981
-24.809	34.232	1299.191	1119.474
-23.794	34.233	1297.968	1118.383
-22.779	34.305	1296.037	1117.095
-21.765	34.315	1294.935	1116.157
-20.750	34.146	1293.974	1114.296
-19.736	34.217	1292.668	1113.541
-18.721	34.215	1290.898	1111.964
-17.706	34.150	1290.150	1110.896
-16.692	34.203	1288.613	1109.837
-15.677	34.136	1287.933	1108.815
-14.663	34.196	1286.691	1108.050
-13.648	34.146	1285.853	1106.995
-12.633	34.031	1285.030	1105.575
-11.619	34.030	1284.122	1104.742
-10.604	34.094	1282.791	1103.925
-9.590	34.095	1281.949	1103.166
-8.575	33.976	1281.069	1101.673
-7.560	33.978	1280.255	1100.942
-6.546	34.060	1279.198	1100.460
-5.531	34.105	1278.183	1099.809
-4.517	34.145	1277.362	1099.284
-3.502	34.016	1276.989	1098.177
-2.487	33.956	1275.911	1096.860
-1.473	34.228	1271.020	1094.173
-0.458	33.058	1257.059	1075.458
0.556	31.455	1238.620	1035.028
1.571	27.477	1243.320	1016.704
2.586	25.966	1257.999	1020.077
3.600	24.127	1244.442	998.691
4.615	17.938	1170.423	906.460
5.629	9.151	1093.548	803.083
6.644	5.033	1072.800	767.544
7.659	4.550	1070.094	763.169
8.673	4.481	1068.214	761.422
9.688	4.428	1067.345	760.475
10.702	4.988	1066.502	762.548
11.717	10.925	1074.505	797.386
12.731	19.399	1086.604	848.140
13.746	22.464	1090.004	865.810
14.761	22.072	1088.880	862.914
15.775	21.187	1087.155	857.130
16.790	20.113	1085.368	850.377
17.804	19.431	1083.512	845.509
18.819	19.314	1082.325	843.936
19.834	19.174	1081.578	842.590
20.848	19.000	1081.150	841.334
21.863	18.740	1080.598	839.558
22.877	18.643	1079.352	838.041
23.892	18.646	1078.939	837.661
24.907	18.607	1077.806	836.519
25.921	18.639	1076.641	835.696
26.936	18.730	1075.476	835.161
27.950	18.658	1074.181	833.730
28.965	18.859	1072.943	833.672
29.980	18.888	1071.448	832.575
30.994	19.044	1070.176	832.271
32.009	19.048	1068.901	831.222
33.023	18.936	1068.019	829.922
34.038	18.950	1066.785	828.957
35.053	18.661	1066.884	827.567
36.067	18.607	1065.694	826.311
37.082	18.793	1064.579	826.271
38.096	18.952	1063.820	826.371
39.111	19.020	1063.343	826.254
40.126	18.794	1061.620	823.761
41.140	18.426	1060.476	821.033
42.155	18.295	1059.114	819.281
43.169	18.276	1058.007	818.264
44.184	18.291	1057.019	817.498
45.199	18.310	1056.104	816.809
46.213	18.598	1054.987	817.244
47.228	18.801	1054.416	817.696
48.242	18.779	1053.451	816.771
49.257	18.671	1052.458	815.414
50.271	18.782	1051.593	815.198
51.286	18.939	1050.657	815.146
52.301	18.827	1049.784	813.865
53.315	18.687	1048.513	812.144
54.330	18.563	1047.746	810.896
55.344	18.455	1046.829	809.602
56.359	18.508	1046.055	809.183
57.374	18.578	1044.549	808.276
58.388	18.354	1043.877	806.628
59.403	18.344	1043.143	805.942
60.417	18.365	1042.527	805.495
61.432	18.311	1041.844	804.643
62.447	18.123	1041.239	803.219
63.461	18.148	1040.202	802.467
64.476	18.198	1038.878	801.608
65.490	18.245	1038.269	801.286
66.505	18.266	1037.428	800.666
67.520	18.271	1037.081	800.353
68.534	18.091	1036.741	799.178
69.549	18.320	1035.513	799.231
70.563	18.083	1034.703	797.426
71.578	18.113	1033.498	796.566
72.593	17.965	1033.040	795.453
73.607	17.946	1032.380	794.788
74.622	17.991	1031.989	794.625
75.636	18.123	1030.888	794.322
76.651	17.989	1030.509	793.336
77.666	18.179	1029.926	793.698
78.680	17.992	1029.481	792.420
79.695	18.099	1028.734	792.269
80.709	18.245	1028.232	792.488
81.724	18.338	1027.668	792.415
82.739	18.480	1026.946	792.444
83.753	18.745	1026.309	793.108
84.768	19.077	1025.514	793.952
85.782	19.127	1024.499	793.330
86.797	19.084	1023.530	792.308
87.812	18.854	1022.709	790.547
88.826	18.957	1021.581	790.078
89.841	18.835	1021.220	789.170
90.855	19.122	1019.755	789.284
91.870	19.002	1019.328	788.333
92.884	19.009	1018.478	787.636
93.899	18.968	1017.607	786.707
94.914	18.981	1017.072	786.282
95.928	18.989	1015.974	785.400
96.943	19.006	1014.635	784.374
97.957	18.873	1013.992	783.201
98.972	18.836	1013.352	782.469
99.987	19.086	1012.246	782.682
101.001	18.977	1011.235	781.338
102.016	18.910	1010.066	780.060
103.030	18.932	1009.776	779.865
104.045	18.998	1008.613	779.198
105.060	18.739	1007.788	777.318
106.074	18.474	1006.867	775.342
107.089	18.294	1005.760	773.608
108.103	18.300	1004.470	772.574
109.118	18.315	1003.243	771.630
110.133	18.205	1002.653	770.613
111.147	18.199	1001.868	769.912
112.162	18.274	1001.106	769.595
113.176	18.421	1000.249	769.531
114.191	18.466	999.892	769.388
115.206	18.381	998.874	768.156
116.220	18.484	997.555	767.537
117.235	18.390	996.796	766.465
118.249	18.270	996.406	765.559
119.264	18.282	995.535	764.876
120.279	18.214	994.350	763.597
121.293	18.217	993.189	762.648
122.308	18.175	992.440	761.819
123.322	18.109	991.411	760.667
124.337	18.128	990.613	760.073
125.352	18.055	989.468	758.803
126.366	17.997	988.550	757.773
127.381	18.067	987.468	757.188
128.395	18.035	987.013	756.630
129.410	18.119	985.910	756.090
130.424	18.254	984.984	755.911
131.439	18.480	984.139	756.191
132.454	18.668	983.414	756.398
133.468	18.533	982.768	755.237
134.483	18.550	982.015	754.665
135.497	18.541	980.971	753.759
136.512	18.564	980.419	753.369
137.527	18.589	979.681	752.844
138.541	18.656	978.425	752.108
139.556	18.670	978.528	752.182
140.570	18.821	977.458	751.952
141.585	18.872	977.065	751.808
142.600	18.803	976.338	750.879
143.614	19.016	975.037	750.743
144.629	19.113	974.663	750.810
145.643	19.035	973.185	749.268
146.658	18.861	971.809	747.382
147.673	18.655	971.378	746.092
148.687	18.578	970.137	744.737
149.702	18.462	969.239	743.477
150.716	18.486	968.563	742.998
151.731	18.518	968.058	742.683
152.746	18.575	967.232	742.230
153.760	18.603	966.614	741.813
154.775	18.799	965.915	742.057
155.789	18.844	965.290	741.706
156.804	18.757	964.662	740.784
157.819	18.870	963.985	740.685
158.833	18.961	963.543	740.669
159.848	19.115	962.808	740.704
160.862	19.015	961.330	739.071
161.877	18.710	960.018	736.689
162.892	18.590	959.079	735.390
163.906	18.535	958.081	734.320
164.921	18.524	957.481	733.752
165.935	18.700	956.638	733.791
166.950	18.620	955.934	732.847
167.964	18.720	954.808	732.344
168.979	18.535	953.916	730.807
169.994	18.527	953.143	730.115
171.008	18.675	952.695	730.338
172.023	18.938	951.827	730.724
173.037	19.001	951.449	730.639
174.052	18.943	950.407	729.526
175.067	18.609	949.806	727.586
176.081	18.462	949.148	726.391
177.096	18.568	948.481	726.269
178.110	18.668	948.105	726.338
179.125	18.643	947.177	725.457
180.140	18.631	947.125	725.303
181.154	18.911	946.630	726.043
182.169	19.074	946.094	726.257
183.183	18.854	945.972	725.167
184.198	19.100	944.606	725.093
185.213	19.029	943.775	724.094
186.227	19.112	943.314	724.024
187.242	19.128	942.938	723.740
188.256	19.260	942.313	723.750
189.271	19.261	941.387	722.977
190.286	18.864	940.382	720.479
191.300	18.566	939.196	718.260
192.315	18.385	938.995	717.283
193.329	18.396	938.481	716.873
194.344	18.630	937.382	716.949
195.359	18.621	937.304	716.785
196.373	18.946	936.412	717.400
197.388	19.120	936.387	718.042
198.402	19.254	936.004	718.241
199.417	19.394	935.341	718.253
200.432	19.517	934.531	718.078
201.446	19.587	934.444	718.242
202.461	19.593	933.843	717.741
203.475	19.564	933.352	717.179
204.490	19.277	932.279	715.099
205.504	19.077	931.546	713.643
206.519	19.189	930.484	713.232
207.534	19.168	930.142	712.820
208.548	19.131	929.249	711.920
209.563	19.193	928.564	711.589
210.577	19.298	927.728	711.317
211.592	19.456	927.330	711.599
212.607	19.519	926.924	711.485
213.621	19.397	926.303	710.445
214.636	19.407	925.265	709.625
215.650	19.380	924.465	708.841
216.665	19.453	923.929	708.666
217.680	19.654	923.412	709.031
218.694	19.672	922.814	708.581
219.709	19.641	922.260	707.969
220.723	19.408	921.666	706.493
221.738	19.503	920.421	705.867
222.753	19.557	919.994	705.699
223.767	19.550	919.779	705.441
224.782	19.638	919.489	705.516
225.796	19.729	918.559	705.112
226.811	19.660	917.771	704.164
227.826	19.525	916.906	702.889
228.840	19.497	916.233	702.194
229.855	19.534	915.064	701.387
230.869	19.351	914.930	700.477
231.884	19.292	914.319	699.709
232.899	19.301	913.352	698.943
233.913	19.229	912.654	698.057
234.928	19.179	911.453	696.873
235.942	19.170	911.185	696.569
236.957	19.359	910.462	696.721
237.972	19.379	909.846	696.268
238.986	19.305	909.435	695.592
240.001	19.355	908.835	695.273
241.015	19.386	908.339	694.959
242.030	19.443	907.877	694.773
243.045	19.645	906.808	694.707
244.059	19.460	906.887	693.960
245.074	19.586	905.951	693.689
246.088	19.608	905.373	693.274
247.103	19.856	904.638	693.645
248.117	19.897	904.810	693.881
249.132	20.117	904.509	694.467
250.147	20.450	903.888	695.262
251.161	20.336	903.075	694.120
252.176	20.409	902.441	693.864
253.190	20.225	902.433	693.062
254.205	20.499	901.133	693.096
255.220	20.450	900.470	692.328
256.234	20.286	900.350	691.522
257.249	20.429	899.340	691.254
258.263	20.307	898.672	690.192
259.278	20.425	897.943	690.040
260.293	20.396	897.427	689.469
261.307	20.530	896.957	689.579
262.322	20.614	896.016	689.127
263.336	20.603	895.353	688.512
264.351	20.618	894.632	687.956
265.366	20.670	894.029	687.639
266.380	20.728	893.290	687.237
267.395	20.329	892.720	685.161
268.409	20.546	891.808	685.257
269.424	20.469	890.744	684.078
270.439	20.318	890.228	683.026
271.453	20.211	889.889	682.283
272.468	20.230	889.305	681.851
273.482	20.298	888.467	681.414
274.497	20.165	888.332	680.730
275.512	20.282	887.568	680.540
276.526	20.379	887.015	680.436
277.541	20.459	886.515	680.309
278.555	20.497	886.472	680.363
279.570	20.630	885.762	680.277
280.585	20.519	884.814	679.057
281.599	20.566	883.691	678.318
282.614	20.384	883.436	677.351
283.628	20.336	882.814	676.628
284.643	20.449	882.207	676.542
285.657	20.458	881.360	675.870
286.672	20.469	880.919	675.512
287.687	20.445	879.834	674.527
288.701	20.463	879.538	674.312
289.716	20.489	878.826	673.808
290.730	20.502	878.632	673.647
291.745	20.546	877.991	673.270
292.760	20.734	877.113	673.262
293.774	20.711	876.986	673.018
294.789	20.786	875.715	672.270
295.803	20.479	875.156	670.599
296.818	20.580	873.904	669.969
297.833	20.497	873.835	669.538
298.847	20.460	873.343	668.958
299.862	20.638	872.937	669.273
300.876	20.664	872.426	668.923
301.891	20.892	871.776	669.238
302.906	20.790	871.719	668.743
303.920	21.056	871.064	669.206
304.935	21.171	870.515	669.165
305.949	20.962	869.556	667.568
306.964	20.903	868.724	666.642
307.979	20.892	868.344	666.251
308.993	20.942	868.142	666.227
310.008	21.198	866.789	666.109
311.022	21.000	866.043	664.720
312.037	20.817	865.786	663.767
313.052	20.501	865.467	662.260
314.066	20.578	864.553	661.793
315.081	20.493	863.830	660.859
316.095	20.524	863.319	660.527
317.110	20.550	862.827	660.193
318.125	20.501	862.418	659.636
319.139	20.559	861.776	659.305
320.154	20.653	861.531	659.416
321.168	20.862	860.661	659.483
322.183	20.818	860.231	658.927
323.197	20.790	859.672	658.335
324.212	20.769	859.261	657.884
325.227	20.516	859.066	656.720
326.241	20.697	857.863	656.425
327.256	20.811	857.271	656.344
328.270	20.716	856.946	655.679
329.285	20.730	856.478	655.314
330.300	20.754	855.463	654.571
331.314	20.780	855.335	654.515
332.329	20.823	855.056	654.405
333.343	20.990	854.406	654.474
334.358	20.873	854.007	653.674
335.373	21.025	853.563	653.845
336.387	21.086	853.249	653.777
337.402	21.087	853.218	653.696
338.416	21.325	853.004	654.368
339.431	21.467	852.616	654.544
340.446	21.472	852.308	654.268
341.460	21.527	851.892	654.097
342.475	21.593	851.242	653.785
343.489	21.639	851.042	653.745
344.504	21.643	850.652	653.403
345.519	21.685	850.030	653.025
346.533	21.740	849.204	652.537
347.548	21.246	848.783	650.316
348.562	21.240	848.300	649.865
349.577	21.264	847.213	649.063
350.592	21.188	846.407	648.106
351.606	21.235	845.619	647.623
352.621	21.098	845.340	646.842
353.635	21.174	844.569	646.477
354.650	21.392	843.831	646.660
355.665	21.261	843.377	645.774
356.679	21.415	843.102	646.075
357.694	21.445	842.563	645.713
358.708	21.488	841.551	645.040
359.723	21.413	840.709	644.062
360.738	21.332	840.464	643.518
361.752	21.452	839.796	643.390
362.767	21.600	839.502	643.654
363.781	21.777	839.180	643.999
364.796	21.832	838.757	643.821
365.810	21.886	838.339	643.641
366.825	22.135	837.856	644.124
367.840	21.819	837.506	642.640
368.854	21.860	836.720	642.131
369.869	21.671	836.565	641.262
370.883	21.846	835.818	641.275
371.898	21.731	836.068	640.990
372.913	21.965	835.395	641.273
373.927	21.751	834.780	639.959
374.942	21.744	834.517	639.679
375.956	21.956	833.695	639.762
376.971	22.286	833.389	640.676
377.986	22.119	833.046	639.747
379.000	22.130	832.653	639.426
380.015	22.093	831.633	638.453
381.029	22.171	831.004	638.195
382.044	22.131	830.406	637.535
383.059	22.260	829.784	637.471
384.073	22.025	829.087	636.026
385.088	21.857	828.421	634.852
386.102	21.794	828.111	634.331
387.117	21.656	827.461	633.276
388.132	21.730	826.861	633.028
389.146	21.794	826.290	632.767
390.161	22.056	826.010	633.441
391.175	22.181	825.436	633.395
392.190	21.939	825.286	632.354
393.205	22.003	824.204	631.700
394.219	21.947	824.055	631.327
395.234	21.868	823.433	630.509
396.248	21.860	822.765	629.914
397.263	21.558	822.422	628.511
398.278	21.622	822.185	628.506
399.292	21.670	821.542	628.128
400.307	21.690	820.941	627.686
401.321	21.609	820.802	627.233
402.336	21.773	820.427	627.480
403.350	21.936	819.837	627.554
404.365	21.966	819.873	627.633
405.380	22.215	819.190	627.948
406.394	22.363	818.907	628.200
407.409	22.253	818.585	627.507
408.423	22.439	818.247	627.855
409.438	22.544	817.918	627.922
410.453	22.379	817.677	627.092
411.467	22.532	816.826	626.928
412.482	22.472	816.756	626.608
413.496	22.539	816.222	626.381
414.511	22.637	816.090	626.570
415.526	22.711	814.964	625.915
416.540	22.475	814.685	624.806
417.555	22.529	814.226	624.592
418.569	22.636	813.684	624.500
419.584	22.534	813.341	623.820
420.599	22.566	813.038	623.646
421.613	160.034	1370.456	1790.273
422.628	139.348	1451.701	1790.382
