DTS Sentinel unit serial number:	SN413079Multiplexer serial number:	ORYXHardware model number:	OX4-SRSoftware version number:	ORYX F/W v4.00 Oryx Data Collector v3.7.2.0data status	okinstallation	princeton_trtdifferential loss correction	single-endedforward channel	channel 1reverse channel	N/Adate	2019/09/19time	10:46:35forward acquisition time	60.00reverse acquisition time	0.00gamma	496.2192k internal	0.2338k external	0.2338temperature offset calibration	1.0009default loss term (dB/km)	0.3790temperature slope calibration	1.0000multiplexer offset coefficient	1.0000multiplexer slope coefficient	1.0000fibre end	0.00T internal ref (°C)	24.67T ext. ref 1 (°C)	0.73T ext. ref 2 (°C)	20.07length (m)	temperature (°C)	Stokes	anti-Stokes-747.200	-200.000	0.114	-0.001
-746.185	73.414	-0.190	0.199
-745.171	157.278	-0.177	-0.246
-744.156	-200.000	-0.000	0.207
-743.142	73.704	0.079	-0.083
-742.127	36.346	-0.370	0.327
-741.112	223.704	0.066	0.107
-740.098	-200.000	0.001	0.545
-739.083	-200.000	0.053	0.403
-738.069	-200.000	0.033	0.335
-737.054	321.603	0.007	-0.014
-736.039	269.348	-0.203	0.357
-735.025	160.957	0.096	0.135
-734.010	79.943	-0.029	-0.031
-732.996	-1.980	0.353	-0.249
-731.981	-92.274	0.050	0.014
-730.966	-73.537	-0.294	0.107
-729.952	-121.724	-0.124	-0.021
-728.937	89.046	-0.145	0.162
-727.923	-92.640	0.129	-0.036
-726.908	79.277	-0.116	-0.125
-725.894	66.766	-0.228	-0.233
-724.879	-104.501	-0.386	0.089
-723.864	246.762	0.020	-0.034
-722.850	779.234	-0.013	-0.036
-721.835	-33.314	-0.206	0.114
-720.821	-165.759	0.337	-0.015
-719.806	-200.000	-0.043	-0.255
-718.791	-102.482	-0.104	-0.025
-717.777	128.665	-0.099	0.127
-716.762	-21.845	0.115	0.070
-715.748	-79.878	0.276	-0.093
-714.733	-118.513	-0.107	-0.019
-713.718	-200.000	-0.059	0.296
-712.704	-132.040	0.130	0.017
-711.689	354.480	0.009	0.018
-710.675	-200.000	-0.032	0.217
-709.660	-200.000	0.015	0.184
-708.645	24.471	-0.200	-0.165
-707.631	-131.757	-0.087	0.011
-706.616	-98.419	0.095	0.024
-705.602	-200.000	0.043	-0.341
-704.587	17.604	-0.156	-0.124
-703.572	274.963	-0.126	-0.224
-702.558	6.890	0.136	-0.101
-701.543	-200.000	-0.025	-0.501
-700.529	104.616	0.163	0.192
-699.514	343.904	0.038	-0.075
-698.499	-200.000	0.009	0.288
-697.485	-136.657	0.176	0.020
-696.470	-102.441	0.230	-0.055
-695.456	-29.613	0.293	-0.167
-694.441	42.376	0.256	-0.233
-693.426	-56.052	0.097	0.043
-692.412	-95.071	0.237	0.064
-691.397	800.000	0.051	0.151
-690.383	-77.894	0.229	-0.079
-689.368	-43.334	0.212	-0.107
-688.354	-200.000	-0.002	-0.195
-687.339	62.147	0.115	-0.115
-686.324	104.427	0.152	-0.180
-685.310	-47.463	0.063	0.031
-684.295	26.457	0.071	-0.059
-683.281	160.269	0.168	-0.234
-682.266	-109.416	0.156	-0.033
-681.251	55.631	0.093	-0.090
-680.237	525.476	-0.114	0.268
-679.222	-125.114	0.444	-0.068
-678.208	-25.520	-0.298	-0.176
-677.193	-116.431	-0.278	0.051
-676.178	-200.000	0.080	-0.445
-675.164	-148.378	-0.390	0.032
-674.149	-200.000	0.033	-0.164
-673.135	285.368	-0.105	0.190
-672.120	-57.911	0.397	-0.173
-671.105	-68.543	-0.165	-0.064
-670.091	800.000	0.035	0.100
-669.076	800.000	0.040	0.118
-668.062	800.000	0.059	-0.165
-667.047	-82.218	0.258	-0.084
-666.032	-87.284	0.218	0.066
-665.018	8.283	0.260	0.195
-664.003	-200.000	-0.035	-0.155
-662.989	-200.000	-0.087	-0.419
-661.974	210.361	0.130	-0.204
-660.959	114.019	0.121	-0.147
-659.945	-200.000	-0.004	0.382
-658.930	35.020	0.086	0.075
-657.916	-179.712	-0.265	0.006
-656.901	-46.396	-0.147	-0.072
-655.886	-172.397	0.427	0.014
-654.872	-106.341	0.168	0.038
-653.857	-42.527	0.191	0.098
-652.843	-59.927	-0.381	-0.163
-651.828	475.927	0.085	-0.191
-650.814	109.087	0.197	0.236
-649.799	-20.551	-0.213	0.131
-648.784	-200.000	-0.036	-0.358
-647.770	-16.066	-0.059	0.038
-646.755	-185.368	0.339	-0.005
-645.741	353.691	-0.080	0.158
-644.726	-24.143	-0.124	-0.074
-643.711	17.648	-0.172	0.137
-642.697	84.589	0.224	0.245
-641.682	259.510	-0.115	0.198
-640.668	-1.996	0.152	0.106
-639.653	-130.910	0.302	-0.040
-638.638	-28.589	0.050	-0.029
-637.624	-38.676	-0.083	-0.044
-636.609	-200.000	0.056	0.318
-635.595	-43.301	0.211	0.107
-634.580	269.992	0.074	0.129
-633.565	183.088	0.091	0.134
-632.551	201.789	-0.177	0.273
-631.536	-100.473	-0.262	-0.065
-630.522	-152.143	-0.243	0.018
-629.507	86.960	0.182	-0.200
-628.492	-143.384	0.276	-0.026
-627.478	-116.986	-0.314	-0.057
-626.463	14.563	-0.274	0.213
-625.449	196.697	-0.085	0.130
-624.434	137.319	-0.127	-0.166
-623.419	280.631	-0.081	0.144
-622.405	650.955	-0.123	-0.316
-621.390	-26.114	-0.178	0.104
-620.376	205.411	-0.134	0.208
-619.361	800.000	-0.113	0.325
-618.346	-160.664	0.137	0.007
-617.332	55.600	-0.133	-0.129
-616.317	270.745	0.034	0.061
-615.303	-102.903	-0.039	0.009
-614.288	0.295	-0.094	-0.067
-613.273	-80.062	0.250	-0.084
-612.259	-16.166	-0.281	0.178
-611.244	-103.068	-0.198	-0.047
-610.230	-27.788	-0.071	0.041
-609.215	-115.955	0.372	0.069
-608.201	-200.000	0.024	-0.137
-607.186	-130.314	0.111	0.015
-606.171	-149.289	-0.190	-0.015
-605.157	226.224	0.062	0.100
-604.142	800.000	-0.051	-0.201
-603.128	-154.313	-0.012	-0.001
-602.113	-187.227	0.382	0.005
-601.098	616.873	-0.186	0.467
-600.084	-23.846	0.219	0.131
-599.069	-81.988	0.181	-0.059
-598.055	211.334	0.173	-0.272
-597.040	198.688	0.256	-0.391
-596.025	-200.000	-0.065	0.392
-595.011	-67.784	-0.329	-0.129
-593.996	800.000	-0.106	-0.458
-592.982	-200.000	0.011	-0.050
-591.967	84.126	0.081	0.088
-590.952	-131.196	-0.096	0.013
-589.938	-200.000	-0.020	0.132
-588.923	13.435	-0.171	0.132
-587.909	643.831	0.117	-0.297
-586.894	-66.476	-0.433	0.172
-585.879	-200.000	0.016	-0.257
-584.865	60.982	-0.346	-0.342
-583.850	6.424	-0.014	0.011
-582.836	45.805	0.194	0.179
-581.821	800.000	0.075	-0.260
-580.806	591.130	0.051	0.125
-579.792	-23.635	-0.281	0.168
-578.777	-200.000	-0.012	0.164
-577.763	564.541	0.023	-0.055
-576.748	66.754	-0.241	-0.244
-575.733	-200.000	-0.051	0.511
-574.719	-54.623	0.364	-0.164
-573.704	425.061	0.145	-0.310
-572.690	-107.911	0.419	0.091
-571.675	132.485	-0.108	0.139
-570.661	219.033	-0.157	0.250
-569.646	-137.181	0.361	0.041
-568.631	28.812	0.145	0.122
-567.617	-31.848	0.196	0.110
-566.602	-200.000	-0.020	-0.353
-565.588	217.849	-0.168	-0.267
-564.573	800.000	0.033	-0.114
-563.558	-200.000	-0.022	-0.168
-562.544	800.000	0.041	-0.121
-561.529	190.400	0.237	-0.355
-560.515	-57.554	-0.360	0.157
-559.500	-200.000	0.036	0.306
-558.485	-25.898	0.277	0.163
-557.471	183.234	-0.195	0.286
-556.456	-166.616	0.138	0.006
-555.442	-93.480	-0.100	0.027
-554.427	-92.728	-0.394	-0.110
-553.412	800.000	0.091	0.338
-552.398	96.046	-0.274	-0.311
-551.383	-200.000	0.031	-0.238
-550.369	194.869	0.083	0.125
-549.354	-65.652	0.249	-0.100
-548.339	800.000	0.127	0.420
-547.325	7.912	-0.099	0.074
-546.310	800.000	-0.055	0.215
-545.296	-37.360	0.237	0.126
-544.281	-200.000	-0.008	-0.233
-543.266	-111.452	-0.238	0.048
-542.252	46.581	-0.256	0.237
-541.237	800.000	0.064	0.232
-540.223	-1.101	0.363	-0.255
-539.208	-200.000	0.022	-0.242
-538.193	72.081	0.010	-0.010
-537.179	-200.000	0.009	-0.084
-536.164	165.993	0.057	0.081
-535.150	41.506	0.060	0.054
-534.135	-61.397	-0.398	0.167
-533.121	-200.000	-0.061	0.328
-532.106	287.838	0.132	-0.237
-531.091	277.421	-0.236	0.418
-530.077	55.187	0.261	0.251
-529.062	-200.000	-0.004	0.283
-528.048	130.071	-0.032	-0.041
-527.033	800.000	0.063	-0.271
-526.018	107.641	0.038	0.045
-525.004	61.004	-0.425	-0.419
-523.989	50.992	0.251	-0.237
-522.975	62.755	0.066	0.065
-521.960	49.294	-0.185	-0.173
-520.945	-130.914	0.312	0.042
-519.931	800.000	-0.063	-0.228
-518.916	-22.878	0.509	-0.305
-517.902	-12.227	-0.258	-0.168
-516.887	-200.000	0.018	-0.186
-515.872	8.260	0.245	-0.183
-514.858	-155.313	-0.253	-0.016
-513.843	151.784	0.125	-0.170
-512.829	-104.956	-0.083	0.019
-511.814	150.068	-0.050	0.068
-510.799	292.318	-0.065	0.118
-509.785	42.187	-0.074	0.067
-508.770	-118.503	-0.277	-0.049
-507.756	284.399	0.132	-0.235
-506.741	-21.904	0.087	-0.053
-505.726	-80.162	-0.225	-0.075
-504.712	-52.041	0.227	0.105
-503.697	121.332	0.385	-0.477
-502.683	-119.194	0.081	0.014
-501.668	800.000	0.040	-0.165
-500.653	7.207	0.118	-0.087
-499.639	-43.272	-0.175	-0.088
-498.624	161.552	-0.141	-0.197
-497.610	44.157	0.175	0.159
-496.595	-200.000	0.030	0.298
-495.581	-200.000	-0.079	0.403
-494.566	-107.638	-0.370	-0.080
-493.551	800.000	0.043	0.129
-492.537	15.576	0.224	-0.175
-491.522	323.963	-0.093	0.177
-490.508	18.487	-0.101	-0.080
-489.493	-60.990	-0.078	-0.033
-488.478	-200.000	0.025	0.167
-487.464	-200.000	-0.062	0.349
-486.449	38.708	-0.073	0.065
-485.435	238.668	-0.144	0.238
-484.420	115.257	-0.118	0.143
-483.405	174.548	0.133	0.192
-482.391	389.297	-0.053	-0.109
-481.376	-200.000	0.050	-0.261
-480.362	3.059	0.084	0.061
-479.347	246.133	0.094	-0.158
-478.332	111.052	0.129	0.155
-477.318	-18.890	0.083	0.051
-476.303	-20.340	-0.299	0.183
-475.289	86.990	0.190	0.208
-474.274	4.189	0.109	0.079
-473.259	98.198	-0.121	0.138
-472.245	-28.892	-0.267	-0.152
-471.230	266.520	0.035	0.061
-470.216	-200.000	0.036	-0.183
-469.201	-87.496	-0.118	-0.036
-468.186	-5.428	0.348	-0.237
-467.172	5.450	0.105	-0.077
-466.157	-195.330	-0.339	0.003
-465.143	-30.710	0.065	0.037
-464.128	291.206	-0.041	0.074
-463.113	154.831	0.083	0.113
-462.099	149.399	-0.074	-0.099
-461.084	272.999	-0.106	0.185
-460.070	154.889	0.197	-0.269
-459.055	-200.000	0.012	-0.173
-458.040	193.542	-0.121	-0.182
-457.026	-13.030	0.144	-0.093
-456.011	-200.000	-0.047	-0.329
-454.997	-164.207	0.258	0.012
-453.982	-139.324	0.111	-0.012
-452.968	-157.326	0.157	-0.009
-451.953	512.754	-0.111	-0.256
-450.938	11.856	0.300	0.229
-449.924	-153.156	0.252	0.017
-448.909	239.195	-0.068	0.113
-447.895	-82.314	-0.229	-0.074
-446.880	-178.592	0.419	0.010
-445.865	-23.340	-0.060	-0.036
-444.851	527.692	-0.121	-0.282
-443.836	-200.000	0.021	0.096
-442.822	177.048	0.192	-0.278
-441.807	-47.394	0.189	-0.091
-440.792	116.178	0.063	0.076
-439.778	-148.312	-0.140	0.011
-438.763	-200.000	0.021	-0.112
-437.749	-119.932	-0.045	-0.008
-436.734	194.623	0.331	-0.498
-435.719	-98.175	-0.317	0.081
-434.705	-122.935	0.170	0.027
-433.690	-114.003	-0.024	-0.005
-432.676	-24.172	-0.429	0.254
-431.661	800.000	0.057	0.169
-430.646	0.147	0.108	-0.076
-429.632	-54.482	-0.163	0.073
-428.617	-200.000	0.003	-0.153
-427.603	-200.000	-0.002	0.132
-426.588	-14.136	0.189	-0.121
-425.573	-20.477	0.093	-0.057
-424.559	-200.000	-0.077	0.339
-423.544	-63.305	0.260	-0.106
-422.530	-46.189	-0.429	0.209
-421.515	-70.407	-0.086	-0.032
-420.500	603.410	0.093	-0.230
-419.486	205.708	0.058	0.089
-418.471	-86.263	0.359	0.109
-417.457	-149.037	0.104	-0.008
-416.442	800.000	-0.124	-0.379
-415.428	125.309	-0.142	0.177
-414.413	60.341	-0.345	0.338
-413.398	-135.610	0.175	-0.021
-412.384	-200.000	0.000	-0.425
-411.369	-176.224	-0.058	-0.001
-410.355	-39.694	0.208	0.108
-409.340	62.829	0.069	0.068
-408.325	-64.275	-0.244	0.099
-407.311	-167.331	-0.183	-0.007
-406.296	331.551	0.004	0.007
-405.282	-93.690	0.101	0.028
-404.267	271.030	0.151	0.263
-403.252	214.955	-0.095	-0.149
-402.238	-17.515	-0.267	-0.166
-401.223	800.000	0.053	0.179
-400.209	-27.747	0.038	-0.022
-399.194	26.481	0.170	-0.141
-398.179	156.073	0.121	-0.166
-397.165	18.262	-0.272	0.215
-396.150	800.000	0.106	-0.357
-395.136	284.948	0.150	-0.268
-394.121	72.600	-0.089	-0.092
-393.106	-200.000	0.034	0.290
-392.092	-200.000	0.054	0.000
-391.077	-2.303	0.146	-0.101
-390.063	122.701	0.121	0.150
-389.048	23.638	-0.117	-0.096
-388.033	-152.430	-0.120	-0.009
-387.019	800.000	0.112	-0.367
-386.004	-28.226	-0.055	-0.031
-384.990	-30.521	0.215	0.120
-383.975	57.388	0.058	0.056
-382.960	800.000	0.092	0.345
-381.946	-171.851	0.104	0.003
-380.931	-55.570	-0.153	-0.068
-379.917	-143.547	0.013	-0.001
-378.902	-162.472	-0.327	0.016
-377.888	-57.480	0.149	-0.065
-376.873	-69.506	-0.122	0.046
-375.858	-85.618	-0.303	0.093
-374.844	-184.938	-0.170	0.003
-373.829	406.889	0.087	0.181
-372.815	-200.000	-0.048	0.263
-371.800	-6.214	-0.162	0.109
-370.785	44.596	0.110	0.100
-369.771	578.610	0.069	-0.166
-368.756	97.727	-0.175	0.199
-367.742	800.000	0.072	0.232
-366.727	-200.000	-0.082	0.378
-365.712	2.444	0.065	-0.046
-364.698	248.245	-0.031	-0.051
-363.683	72.727	-0.128	-0.132
-362.669	-92.119	0.349	0.098
-361.654	-200.000	-0.039	0.231
-360.639	-91.071	-0.380	-0.108
-359.625	-200.000	-0.008	0.210
-358.610	135.817	-0.082	-0.105
-357.596	-15.206	0.286	-0.181
-356.581	-200.000	-0.026	-0.279
-355.566	-101.046	0.260	-0.063
-354.552	-200.000	-0.003	0.035
-353.537	800.000	-0.155	0.449
-352.523	88.234	0.257	0.282
-351.508	-6.290	0.243	-0.164
-350.493	118.690	-0.112	-0.137
-349.479	-92.009	-0.282	-0.079
-348.464	-84.714	0.254	-0.079
-347.450	-200.000	0.015	0.095
-346.435	387.646	0.131	0.267
-345.420	69.979	-0.057	-0.058
-344.406	180.680	0.117	0.170
-343.391	-200.000	-0.002	0.063
-342.377	232.175	-0.202	0.328
-341.362	800.000	0.121	0.363
-340.348	800.000	-0.044	0.154
-339.333	-139.779	-0.239	0.025
-338.318	44.933	0.121	-0.110
-337.304	237.217	-0.072	-0.118
-336.289	-200.000	-0.018	-0.368
-335.275	52.416	-0.160	0.151
-334.260	46.233	0.223	-0.204
-333.245	-115.186	-0.110	-0.021
-332.231	-31.265	-0.214	0.119
-331.216	331.684	0.109	0.207
-330.202	-59.953	0.118	0.050
-329.187	-200.000	-0.006	0.035
-328.172	20.797	0.150	0.120
-327.158	-39.549	-0.327	-0.169
-326.143	399.727	0.137	0.284
-325.129	58.949	-0.158	0.154
-324.114	43.854	-0.138	-0.125
-323.099	50.633	-0.041	0.039
-322.085	375.173	-0.241	0.485
-321.070	85.818	-0.123	0.133
-320.056	-200.000	-0.033	0.469
-319.041	310.346	-0.053	-0.098
-318.026	-91.686	0.228	0.064
-317.012	-4.884	-0.142	-0.096
-315.997	-64.486	-0.174	0.070
-314.983	800.000	0.026	-0.095
-313.968	800.000	-0.103	-0.324
-312.953	193.467	-0.092	-0.137
-311.939	-96.232	0.161	-0.042
-310.924	-32.387	0.179	0.098
-309.910	-76.993	0.249	0.086
-308.895	-1.359	-0.083	0.058
-307.880	-80.920	-0.360	0.118
-306.866	-33.126	-0.220	-0.120
-305.851	602.542	-0.046	-0.112
-304.837	-165.038	0.272	-0.012
-303.822	-93.272	-0.068	-0.019
-302.807	-1.293	0.060	-0.042
-301.793	-200.000	0.024	-0.195
-300.778	52.916	0.050	0.048
-299.764	-76.612	0.214	0.074
-298.749	-16.508	-0.279	0.175
-297.735	676.717	0.080	-0.205
-296.720	800.000	0.022	-0.069
-295.705	800.000	-0.093	0.342
-294.691	-59.247	0.301	-0.128
-293.676	-129.950	-0.302	0.041
-292.662	320.021	0.125	-0.233
-291.647	-89.884	-0.201	-0.058
-290.632	-200.000	0.094	-0.442
-289.618	-200.000	0.008	-0.145
-288.603	-200.000	-0.038	0.196
-287.589	-117.824	0.267	-0.047
-286.574	60.285	0.086	-0.084
-285.559	-30.800	-0.053	0.030
-284.545	34.249	-0.136	-0.117
-283.530	274.955	0.150	-0.262
-282.516	-35.252	0.166	-0.089
-281.501	-200.000	-0.014	0.083
-280.486	85.915	-0.280	-0.303
-279.472	-24.634	0.197	0.115
-278.457	-200.000	-0.028	0.434
-277.443	-137.497	-0.181	-0.020
-276.428	15.603	0.063	-0.049
-275.413	276.330	0.057	0.100
-274.399	-66.959	-0.239	0.093
-273.384	-13.869	0.068	-0.043
-272.370	382.434	-0.020	-0.040
-271.355	-200.000	0.003	-0.016
-270.340	369.122	0.113	-0.226
-269.326	117.726	-0.187	0.226
-268.311	556.659	-0.145	0.343
-267.297	22.307	0.207	0.166
-266.282	150.141	0.131	0.175
-265.267	705.661	-0.142	-0.370
-264.253	140.886	0.115	-0.150
-263.238	-200.000	-0.032	-0.204
-262.224	-80.390	0.421	0.138
-261.209	7.049	-0.085	0.063
-260.195	-79.468	-0.195	0.065
-259.180	30.920	-0.114	0.096
-258.165	-200.000	-0.018	0.148
-257.151	-200.000	0.002	-0.107
-256.136	21.153	-0.092	-0.073
-255.122	83.093	0.150	0.160
-254.107	-200.000	-0.008	-0.060
-253.092	-200.000	-0.099	0.509
-252.078	-123.914	-0.172	0.027
-251.063	325.693	-0.074	-0.139
-250.049	-200.000	-0.177	-0.000
-249.034	484.133	-0.154	-0.345
-248.019	33.583	0.180	-0.154
-247.005	-102.265	0.245	0.058
-245.990	-200.000	-0.015	-0.193
-244.976	-40.825	0.071	-0.036
-243.961	-118.095	0.403	0.071
-242.946	-200.000	0.038	0.253
-241.932	134.017	0.227	0.289
-240.917	-131.006	-0.262	0.034
-239.903	-2.988	0.077	-0.053
-238.888	-200.000	0.009	0.241
-237.873	80.858	-0.060	0.063
-236.859	-200.000	0.049	0.248
-235.844	-141.825	0.135	0.013
-234.830	-200.000	-0.014	-0.164
-233.815	800.000	-0.056	-0.222
-232.800	363.646	0.123	-0.244
-231.786	-200.000	-0.018	-0.230
-230.771	-200.000	0.060	0.283
-229.757	63.480	0.061	-0.061
-228.742	-111.099	-0.107	-0.022
-227.727	-200.000	0.016	0.178
-226.713	279.705	0.206	-0.362
-225.698	179.525	0.086	0.124
-224.684	-97.898	0.331	-0.084
-223.669	140.601	-0.100	-0.130
-222.655	133.736	-0.165	-0.210
-221.640	165.170	-0.127	-0.176
-220.625	605.125	0.030	0.074
-219.611	30.326	-0.277	-0.233
-218.596	65.225	-0.273	-0.272
-217.582	55.690	-0.070	-0.067
-216.567	169.286	0.168	-0.235
-215.552	-200.000	0.045	0.366
-214.538	80.142	0.218	0.230
-213.523	357.157	-0.108	0.211
-212.509	800.000	0.086	-0.261
-211.494	-200.000	0.005	0.155
-210.479	-67.543	0.063	-0.024
-209.465	800.000	0.052	0.147
-208.450	-54.865	0.399	-0.177
-207.436	-200.000	0.016	-0.216
-206.421	-200.000	-0.013	-0.323
-205.406	-200.000	-0.031	-0.221
-204.392	-26.218	0.189	0.109
-203.377	499.752	0.030	0.068
-202.363	-200.000	0.011	-0.290
-201.348	-200.000	0.021	-0.279
-200.333	632.837	-0.069	-0.172
-199.319	800.000	0.027	0.097
-198.304	4.077	0.043	-0.031
-197.290	-200.000	-0.008	-0.048
-196.275	-146.337	-0.611	-0.053
-195.260	-28.112	-0.117	-0.066
-194.246	80.618	-0.141	0.149
-193.231	601.776	-0.098	-0.240
-192.217	-108.823	-0.100	0.021
-191.202	-98.425	-0.233	0.059
-190.187	-8.309	-0.148	-0.098
-189.173	-136.119	0.136	0.016
-188.158	-200.000	-0.064	-0.343
-187.144	-200.000	0.023	-0.121
-186.129	-55.183	0.405	-0.179
-185.114	102.312	-0.050	0.057
-184.100	71.478	0.176	0.180
-183.085	-143.554	0.250	-0.023
-182.071	-94.227	0.216	-0.058
-181.056	88.213	0.160	-0.175
-180.042	28.029	-0.332	0.275
-179.027	-200.000	0.014	0.060
-178.012	-171.678	-0.229	0.007
-176.998	558.743	0.135	0.320
-175.983	151.960	0.189	0.253
-174.969	-24.624	-0.171	-0.100
-173.954	43.271	0.056	-0.050
-172.939	-200.000	-0.016	-0.118
-171.925	443.706	0.028	-0.060
-170.910	-200.000	0.016	0.120
-169.896	-1.066	-0.169	-0.117
-168.881	-24.984	0.419	-0.244
-167.866	81.095	-0.113	0.120
-166.852	-80.577	-0.352	0.115
-165.837	-29.169	0.407	-0.229
-164.823	25.431	-0.129	-0.105
-163.808	138.519	-0.034	-0.044
-162.793	-200.000	-0.015	-0.092
-161.779	12.108	0.071	-0.053
-160.764	39.617	-0.234	-0.206
-159.750	-168.900	-0.121	0.004
-158.735	184.052	0.054	0.079
-157.720	-200.000	0.055	0.282
-156.706	800.000	0.088	0.253
-155.691	-37.839	-0.416	-0.217
-154.677	800.000	-0.031	-0.085
-153.662	-200.000	-0.011	0.142
-152.647	236.411	0.040	0.064
-151.633	294.420	0.071	-0.127
-150.618	-126.759	0.134	0.019
-149.604	-200.000	0.004	0.273
-148.589	58.439	-0.130	-0.125
-147.574	-98.209	0.133	0.034
-146.560	-200.000	0.027	0.153
-145.545	-0.297	-0.349	0.243
-144.531	39.210	0.084	-0.073
-143.516	-110.549	0.251	0.051
-142.502	-160.853	-0.251	-0.013
-141.487	-57.093	-0.117	-0.051
-140.472	465.589	-0.155	-0.341
-139.458	-49.819	-0.156	-0.072
-138.443	264.978	0.200	0.342
-137.429	-200.000	0.001	0.231
-136.414	-61.679	0.258	-0.106
-135.399	308.721	0.020	0.036
-134.385	189.393	0.018	0.026
-133.370	-23.223	-0.408	-0.240
-132.356	-165.052	-0.219	-0.010
-131.341	-144.702	0.401	0.036
-130.326	-200.000	0.025	0.200
-129.312	-200.000	-0.040	0.180
-128.297	-200.000	0.021	0.310
-127.283	17.278	0.083	-0.064
-126.268	800.000	0.035	-0.118
-125.253	-131.198	0.143	-0.019
-124.239	800.000	-0.184	-0.501
-123.224	270.001	0.084	-0.145
-122.210	-31.301	0.141	-0.078
-121.195	-50.111	-0.161	-0.074
-120.180	800.000	0.080	0.321
-119.166	-200.000	-0.014	0.166
-118.151	-200.000	0.006	-0.101
-117.137	-91.349	0.161	0.045
-116.122	329.755	-0.040	0.075
-115.107	-138.648	-0.183	0.020
-114.093	121.179	0.231	-0.282
-113.078	-54.285	0.016	-0.007
-112.064	6.377	-0.190	-0.138
-111.049	1.644	0.300	0.212
-110.034	-182.263	0.225	0.004
-109.020	-200.000	0.023	0.185
-108.005	94.505	0.141	-0.157
-106.991	-45.586	0.162	-0.078
-105.976	754.888	-0.080	-0.210
-104.962	-114.462	0.244	0.046
-103.947	-84.858	-0.011	-0.003
-102.932	800.000	0.080	-0.260
-101.918	-79.119	-0.146	0.048
-100.903	-11.713	0.262	0.169
-99.889	25.337	-0.195	-0.158
-98.874	-110.032	0.228	0.047
-97.859	89.864	-0.259	0.283
-96.845	-200.000	0.014	0.120
-95.830	800.000	-0.095	0.357
-94.816	94.434	0.017	0.019
-93.801	-162.383	-0.294	-0.014
-92.786	-200.000	0.035	-0.209
-91.772	-19.315	-0.252	0.153
-90.757	-200.000	-0.034	0.341
-89.743	-19.181	-0.183	0.111
-88.728	29.743	0.184	-0.153
-87.713	-200.000	-0.006	0.400
-86.699	-10.691	0.073	-0.047
-85.684	453.474	-0.135	0.292
-84.670	80.588	0.338	-0.356
-83.655	149.328	0.104	-0.137
-82.640	800.000	-0.057	0.220
-81.626	59.923	-0.055	-0.053
-80.611	44.527	0.213	-0.191
-79.597	-142.013	0.353	0.034
-78.582	-200.000	-0.003	0.066
-77.567	172.566	-0.038	0.054
-76.553	-89.385	-0.093	0.027
-75.538	-200.000	-0.008	0.307
-74.524	-200.000	0.006	-0.218
-73.509	-81.813	0.296	0.095
-72.494	-174.892	-0.108	0.003
-71.480	-52.711	-0.244	0.110
-70.465	-198.393	-0.262	0.001
-69.451	-200.000	0.023	0.305
-68.436	246.639	0.063	-0.104
-67.422	-200.000	0.083	0.434
-66.407	696.493	-0.093	-0.240
-65.392	800.000	0.065	0.225
-64.378	215.463	0.049	-0.076
-63.363	-79.522	-0.309	-0.102
-62.349	112.754	0.158	-0.187
-61.334	125.013	-1.104	-1.359
-60.319	-200.000	0.139	0.669
-59.305	539.550	-0.533	-1.238
-58.290	503.629	0.605	1.367
-57.276	-200.000	0.205	1.534
-56.261	-200.000	121.971	614.261
-55.246	377.191	1581.881	3156.052
-54.232	139.129	2751.820	3533.692
-53.217	95.146	2187.177	2432.495
-52.203	36.360	1613.502	1389.255
-51.188	27.947	1355.342	1115.807
-50.173	25.206	1316.990	1067.897
-49.159	50.358	1382.459	1275.674
-48.144	48.490	1395.777	1276.492
-47.130	28.093	1344.616	1107.685
-46.115	24.812	1326.220	1072.848
-45.100	24.613	1320.995	1067.390
-44.086	24.599	1318.272	1065.065
-43.071	24.459	1316.341	1062.631
-42.057	24.504	1314.490	1061.364
-41.042	24.582	1312.346	1060.050
-40.027	24.534	1311.115	1058.732
-39.013	24.512	1309.054	1056.891
-37.998	24.592	1307.052	1055.707
-36.984	24.648	1305.333	1054.611
-35.969	24.655	1303.818	1053.384
-34.954	24.592	1302.429	1051.852
-33.940	24.635	1300.822	1050.762
-32.925	24.744	1298.987	1049.878
-31.911	24.729	1297.885	1048.859
-30.896	24.748	1296.758	1048.017
-29.881	24.710	1295.366	1046.627
-28.867	24.801	1293.693	1045.768
-27.852	24.849	1292.471	1045.016
-26.838	24.788	1291.259	1043.643
-25.823	24.930	1289.498	1043.005
-24.809	24.751	1288.823	1041.377
-23.794	24.785	1287.043	1040.091
-22.779	24.789	1285.702	1038.988
-21.765	24.830	1284.655	1038.343
-20.750	24.777	1283.314	1036.908
-19.736	24.677	1282.240	1035.418
-18.721	24.716	1281.207	1034.771
-17.706	24.582	1279.778	1032.800
-16.692	24.658	1278.665	1032.298
-15.677	24.611	1277.888	1031.362
-14.663	24.573	1276.547	1030.016
-13.648	24.700	1275.066	1029.514
-12.633	24.589	1274.304	1028.220
-11.619	24.661	1273.461	1027.912
-10.604	24.680	1272.592	1027.278
-9.590	24.567	1271.390	1025.617
-8.575	24.551	1270.600	1024.852
-7.560	24.507	1269.788	1023.901
-6.546	24.520	1269.020	1023.316
-5.531	24.605	1267.722	1022.716
-4.517	24.585	1267.539	1022.416
-3.502	24.684	1266.367	1021.992
-2.487	24.624	1265.506	1020.913
-1.473	24.596	1261.551	1017.525
-0.458	23.239	1246.014	997.316
0.556	18.864	1230.677	961.258
1.571	15.410	1237.783	947.257
2.586	14.512	1252.735	953.485
3.600	14.273	1240.446	942.692
4.615	10.477	1167.456	866.879
5.629	3.916	1094.917	779.953
6.644	0.882	1077.544	752.439
7.659	0.686	1074.946	749.589
8.673	0.644	1074.737	749.170
9.688	0.698	1073.203	748.300
10.702	0.828	1071.157	747.450
11.717	4.868	1075.514	770.436
12.731	11.625	1084.886	810.695
13.746	16.024	1090.093	836.395
14.761	17.282	1090.989	843.254
15.775	16.451	1089.656	838.031
16.790	15.629	1087.205	832.004
17.804	14.848	1086.019	827.159
18.819	14.523	1084.868	824.602
19.834	14.181	1083.984	822.167
20.848	14.079	1082.932	820.795
21.863	13.748	1081.877	818.287
22.877	13.632	1081.106	817.060
23.892	13.498	1080.903	816.173
24.907	13.530	1079.756	815.395
25.921	13.704	1078.707	815.384
26.936	13.645	1078.049	814.526
27.950	13.677	1077.062	813.862
28.965	13.743	1076.167	813.439
29.980	13.785	1074.289	812.156
30.994	13.796	1073.693	811.686
32.009	13.759	1072.608	810.610
33.023	13.699	1071.832	809.663
34.038	13.851	1070.249	809.136
35.053	13.737	1069.565	807.993
36.067	13.790	1068.894	807.673
37.082	13.725	1067.839	806.486
38.096	13.705	1067.197	805.831
39.111	13.774	1066.210	805.351
40.126	13.565	1065.707	803.887
41.140	13.567	1064.056	802.577
42.155	13.548	1062.739	801.423
43.169	13.557	1061.601	800.535
44.184	13.686	1060.235	800.059
45.199	13.606	1059.268	798.873
46.213	13.662	1058.415	798.426
47.228	13.667	1056.947	797.276
48.242	13.612	1056.412	796.537
49.257	13.677	1055.508	796.098
50.271	13.696	1054.840	795.615
51.286	13.721	1053.589	794.717
52.301	13.696	1052.749	793.894
53.315	13.610	1051.417	792.411
54.330	13.711	1050.189	791.894
55.344	13.635	1049.939	791.274
56.359	13.620	1048.981	790.413
57.374	13.502	1047.719	788.826
58.388	13.576	1046.810	788.427
59.403	13.560	1046.140	787.775
60.417	13.482	1045.597	786.927
61.432	13.553	1044.409	786.300
62.447	13.541	1043.708	785.645
63.461	13.426	1043.292	784.719
64.476	13.554	1041.813	784.140
65.490	13.585	1041.221	783.772
66.505	13.625	1040.333	783.227
67.520	13.524	1040.257	782.619
68.534	13.565	1038.994	781.793
69.549	13.544	1038.437	781.206
70.563	13.535	1037.355	780.282
71.578	13.560	1036.785	779.904
72.593	13.493	1035.773	778.759
73.607	13.545	1034.992	778.345
74.622	13.516	1034.563	777.819
75.636	13.558	1033.562	777.193
76.651	13.554	1033.028	776.703
77.666	13.483	1032.462	775.879
78.680	13.433	1031.829	775.097
79.695	13.559	1031.049	775.033
80.709	13.655	1030.195	774.771
81.724	13.530	1029.731	773.769
82.739	13.686	1028.636	773.606
83.753	13.637	1028.236	773.011
84.768	13.681	1027.373	772.499
85.782	13.643	1026.523	771.613
86.797	13.671	1025.127	770.627
87.812	13.697	1024.114	769.915
88.826	13.709	1023.319	769.307
89.841	13.510	1022.696	767.846
90.855	13.720	1021.439	767.808
91.870	13.806	1020.195	767.201
92.884	13.913	1019.437	767.058
93.899	13.899	1018.789	766.437
94.914	13.852	1018.188	765.700
95.928	13.751	1017.194	764.423
96.943	13.770	1016.784	764.131
97.957	13.653	1015.502	762.565
98.972	13.897	1014.641	762.972
99.987	13.817	1014.055	762.097
101.001	13.730	1013.207	760.992
102.016	13.814	1012.134	760.502
103.030	14.008	1010.815	760.332
104.045	13.758	1010.547	758.922
105.060	13.752	1010.152	758.531
106.074	13.804	1008.681	757.597
107.089	13.646	1007.985	756.283
108.103	13.609	1007.192	755.454
109.118	13.575	1006.308	754.567
110.133	13.615	1005.275	753.909
111.147	13.655	1004.117	753.157
112.162	13.640	1003.721	752.724
113.176	13.745	1002.658	752.337
114.191	13.691	1002.100	751.608
115.206	13.740	1001.162	751.059
116.220	13.702	1000.292	750.167
117.235	13.718	999.375	749.486
118.249	13.690	998.604	748.717
119.264	13.594	998.053	747.804
120.279	13.748	996.940	747.598
121.293	13.606	996.341	746.440
122.308	13.684	995.399	746.021
123.322	13.679	994.091	744.953
124.337	13.623	993.174	743.950
125.352	13.651	992.448	743.462
126.366	13.690	991.062	742.534
127.381	13.723	989.974	741.799
128.395	13.608	989.489	740.858
129.410	13.699	988.335	740.335
130.424	13.737	987.229	739.609
131.439	13.605	986.886	738.698
132.454	13.764	985.717	738.467
133.468	13.718	984.640	737.392
134.483	13.900	983.867	737.556
135.497	13.794	982.997	736.367
136.512	13.793	982.343	735.807
137.527	13.687	981.873	734.918
138.541	13.708	980.978	734.276
139.556	13.750	980.694	734.185
140.570	13.732	979.897	733.447
141.585	13.854	978.597	732.946
142.600	13.870	977.755	732.321
143.614	13.837	977.251	731.732
144.629	13.970	976.150	731.431
145.643	13.875	975.483	730.448
146.658	13.746	974.567	729.128
147.673	13.937	973.389	729.023
148.687	13.798	973.208	728.211
149.702	13.928	971.413	727.374
150.716	13.842	971.208	726.778
151.731	13.840	969.748	725.613
152.746	13.972	969.128	725.661
153.760	13.863	968.842	724.907
154.775	14.071	967.974	725.103
155.789	13.966	967.576	724.284
156.804	14.062	966.768	724.030
157.819	13.960	966.095	723.021
158.833	14.105	965.230	722.937
159.848	14.127	964.627	722.520
160.862	13.937	963.736	720.963
161.877	13.973	962.824	720.374
162.892	14.007	961.745	719.647
163.906	13.870	960.881	718.346
164.921	13.987	960.434	718.456
165.935	14.187	959.400	718.481
166.950	14.055	958.359	717.069
167.964	14.156	957.478	716.783
168.979	14.032	956.677	715.586
169.994	14.070	956.018	715.190
171.008	14.043	955.121	714.340
172.023	14.123	954.433	714.109
173.037	14.199	953.737	713.848
174.052	14.178	952.938	713.098
175.067	14.050	952.724	712.327
176.081	14.016	952.006	711.581
177.096	14.081	951.709	711.573
178.110	14.298	950.414	711.468
179.125	14.140	950.026	710.440
180.140	14.069	949.774	709.887
181.154	14.192	949.003	709.773
182.169	14.290	948.981	710.111
183.183	14.252	948.110	709.234
184.198	14.389	947.050	708.964
185.213	14.352	946.410	708.265
186.227	14.380	945.402	707.567
187.242	14.281	945.574	707.209
188.256	14.374	944.336	706.618
189.271	14.388	943.457	705.958
190.286	14.350	943.019	705.407
191.300	14.326	942.087	704.543
192.315	14.151	941.636	703.405
193.329	14.261	940.942	703.286
194.344	14.233	940.714	702.938
195.359	14.286	939.803	702.416
196.373	14.416	938.391	701.847
197.388	14.375	938.713	701.854
198.402	14.374	937.955	701.219
199.417	14.440	937.282	700.934
200.432	14.480	936.799	700.679
201.446	14.581	936.120	700.531
202.461	14.528	935.349	699.670
203.475	14.434	935.196	699.100
204.490	14.695	934.124	699.331
205.504	14.434	933.842	697.966
206.519	14.546	932.889	697.658
207.534	14.477	931.986	696.634
208.548	14.573	931.374	696.513
209.563	14.516	931.144	696.043
210.577	14.590	930.035	695.462
211.592	14.633	929.085	694.869
212.607	14.831	928.206	694.974
213.621	14.732	927.358	693.864
214.636	14.777	926.989	693.716
215.650	14.737	926.630	693.219
216.665	14.787	925.586	692.585
217.680	14.746	925.167	692.041
218.694	14.791	924.509	691.674
219.709	14.738	923.594	690.706
220.723	14.817	922.861	690.424
221.738	14.799	922.074	689.699
222.753	14.763	921.336	688.939
223.767	14.797	920.824	688.633
224.782	14.870	920.381	688.542
225.796	14.822	919.690	687.769
226.811	14.971	919.099	687.879
227.826	14.930	918.345	687.086
228.840	14.957	917.514	686.511
229.855	15.050	916.151	685.812
230.869	14.833	915.951	684.713
231.884	14.884	915.037	684.179
232.899	14.914	914.541	683.869
233.913	14.956	913.525	683.220
234.928	15.096	912.913	683.273
235.942	14.990	912.540	682.501
236.957	15.053	911.523	681.938
237.972	14.974	911.330	681.412
238.986	15.041	910.555	681.046
240.001	15.015	909.764	680.288
241.015	14.878	909.955	679.814
242.030	14.873	909.248	679.205
243.045	14.945	908.536	678.903
244.059	15.019	907.614	678.454
245.074	15.199	906.731	678.464
246.088	15.101	906.181	677.596
247.103	15.084	905.704	677.111
248.117	15.148	905.091	676.852
249.132	15.340	904.437	677.079
250.147	15.337	903.602	676.378
251.161	15.304	903.167	675.864
252.176	15.409	902.503	675.730
253.190	15.304	901.674	674.627
254.205	15.336	900.967	674.165
255.220	15.281	900.448	673.498
256.234	15.382	899.652	673.245
257.249	15.257	899.237	672.374
258.263	15.359	898.436	672.125
259.278	15.441	897.577	671.752
260.293	15.450	897.102	671.374
261.307	15.566	896.681	671.463
262.322	15.570	895.874	670.814
263.336	15.492	895.460	670.133
264.351	15.718	893.972	669.863
265.366	15.546	893.863	669.036
266.380	15.685	893.409	669.190
267.395	15.633	892.633	668.342
268.409	15.617	891.700	667.519
269.424	15.686	890.646	666.947
270.439	15.640	890.293	666.439
271.453	15.590	889.642	665.695
272.468	15.634	889.462	665.677
273.482	15.637	888.630	665.008
274.497	15.764	888.030	665.000
275.512	15.854	887.087	664.590
276.526	15.689	886.972	663.796
277.541	15.769	886.348	663.586
278.555	15.763	885.730	663.039
279.570	15.805	885.275	662.806
280.585	15.740	884.355	661.803
281.599	15.696	883.702	661.085
282.614	15.806	883.046	660.964
283.628	15.873	882.415	660.699
284.643	15.769	881.915	659.857
285.657	15.878	881.282	659.752
286.672	15.821	880.534	658.912
287.687	15.857	880.083	658.656
288.701	15.880	879.846	658.508
289.716	15.959	878.897	658.052
290.730	15.863	878.170	657.073
291.745	15.996	877.389	656.950
292.760	16.113	876.656	656.798
293.774	16.079	876.065	656.164
294.789	16.035	875.536	655.537
295.803	15.918	874.666	654.375
296.818	15.805	874.732	653.929
297.833	16.085	873.660	654.155
298.847	16.169	872.971	653.907
299.862	16.132	872.295	653.200
300.876	16.060	871.881	652.552
301.891	16.195	871.013	652.367
302.906	16.193	870.789	652.135
303.920	16.274	870.103	651.875
304.935	16.354	869.178	651.433
305.949	16.252	868.794	650.695
306.964	16.233	868.384	650.257
307.979	16.215	868.023	649.861
308.993	16.233	867.313	649.341
310.008	16.242	866.647	648.818
311.022	16.382	865.663	648.561
312.037	16.298	865.726	648.228
313.052	16.249	864.679	647.200
314.066	16.212	864.262	646.688
315.081	16.214	863.934	646.392
316.095	16.307	862.873	645.899
317.110	16.321	862.490	645.608
318.125	16.324	861.722	644.989
319.139	16.196	861.826	644.520
320.154	16.391	861.052	644.627
321.168	16.473	860.229	644.268
322.183	16.439	859.893	643.829
323.197	16.452	859.428	643.472
324.212	16.305	858.963	642.510
325.227	16.453	857.839	642.173
326.241	16.370	857.725	641.717
327.256	16.356	857.388	641.356
328.270	16.413	856.700	641.000
329.285	16.477	855.756	640.479
330.300	16.388	855.103	639.594
331.314	16.510	854.655	639.667
332.329	16.552	854.075	639.335
333.343	16.591	853.723	639.161
334.358	16.462	853.617	638.538
335.373	16.568	853.149	638.532
336.387	16.636	852.282	638.083
337.402	16.516	852.410	637.671
338.416	16.517	852.248	637.494
339.431	16.692	851.368	637.439
340.446	16.781	850.958	637.411
341.460	16.747	850.575	636.939
342.475	16.796	850.362	636.909
343.489	16.755	850.137	636.530
344.504	16.810	849.280	636.038
345.519	16.936	848.618	635.959
346.533	16.902	847.932	635.262
347.548	16.783	847.623	634.527
348.562	16.823	847.202	634.306
349.577	16.709	846.699	633.445
350.592	16.777	846.397	633.418
351.606	16.834	845.007	632.537
352.621	16.910	844.619	632.473
353.635	16.934	843.845	631.926
354.650	16.884	843.673	631.556
355.665	16.888	842.494	630.631
356.679	17.011	842.141	630.769
357.694	17.001	841.307	630.051
358.708	17.138	840.616	629.988
359.723	16.914	840.409	628.943
360.738	16.909	839.667	628.316
361.752	17.031	838.915	628.148
362.767	17.031	838.212	627.566
363.781	17.104	837.883	627.534
364.796	17.176	837.617	627.546
365.810	17.172	837.212	627.171
366.825	17.167	836.971	626.917
367.840	17.217	836.465	626.669
368.854	17.132	835.790	625.792
369.869	17.173	835.476	625.655
370.883	17.374	834.734	625.783
371.898	17.322	834.373	625.264
372.913	17.325	833.727	624.737
373.927	17.173	833.712	624.113
374.942	17.192	833.067	623.643
375.956	17.585	832.198	624.378
376.971	17.419	832.209	623.724
377.986	17.338	831.808	623.069
379.000	17.371	831.250	622.719
380.015	17.407	830.841	622.487
381.029	17.463	830.379	622.291
382.044	17.537	829.604	621.927
383.059	17.495	828.910	621.196
384.073	17.456	828.547	620.730
385.088	17.521	828.063	620.549
386.102	17.520	827.240	619.872
387.117	17.560	826.673	619.538
388.132	17.428	826.208	618.655
389.146	17.533	825.804	618.679
390.161	17.600	825.418	618.580
391.175	17.644	824.655	618.112
392.190	17.568	824.288	617.507
393.205	17.655	823.812	617.411
394.219	17.679	823.375	617.115
395.234	17.563	823.327	616.603
396.248	17.597	823.032	616.453
397.263	17.492	822.169	615.371
398.278	17.547	821.928	615.337
399.292	17.647	821.430	615.268
400.307	17.522	820.999	614.440
401.321	17.663	820.411	614.457
402.336	17.712	819.815	614.133
403.350	17.719	819.385	613.780
404.365	17.531	819.359	613.028
405.380	17.643	818.660	612.854
406.394	17.740	817.986	612.646
407.409	17.746	817.760	612.443
408.423	17.741	817.628	612.272
409.438	17.819	816.995	612.025
410.453	17.789	816.399	611.416
411.467	18.022	815.775	611.729
412.482	17.860	815.300	610.739
413.496	17.870	815.385	610.783
414.511	17.944	814.971	610.684
415.526	17.972	814.250	610.189
416.540	17.944	813.743	609.655
417.555	18.010	813.244	609.462
418.569	18.018	813.182	609.390
419.584	17.918	812.505	608.472
420.599	18.143	812.083	608.906
421.613	114.422	1298.645	1486.571
422.628	99.015	1369.498	1486.616
