DTS Sentinel unit serial number:	SN413079Multiplexer serial number:	ORYXHardware model number:	OX4-SRSoftware version number:	ORYX F/W v4.00 Oryx Data Collector v3.7.2.0data status	okinstallation	princeton_trtdifferential loss correction	single-endedforward channel	channel 1reverse channel	N/Adate	2019/09/16time	20:30:35forward acquisition time	60.00reverse acquisition time	0.00gamma	496.2192k internal	0.2323k external	0.2323temperature offset calibration	0.9949default loss term (dB/km)	0.3790temperature slope calibration	1.0000multiplexer offset coefficient	1.0000multiplexer slope coefficient	1.0000fibre end	0.00T internal ref (°C)	32.62T ext. ref 1 (°C)	0.07T ext. ref 2 (°C)	26.59length (m)	temperature (°C)	Stokes	anti-Stokes-747.200	-200.000	0.046	-0.243
-746.185	131.882	-0.192	0.250
-745.171	-99.648	-0.170	-0.043
-744.156	-25.948	0.263	-0.156
-743.142	104.286	-0.019	0.023
-742.127	-200.000	-0.060	0.379
-741.112	129.521	-0.301	0.389
-740.098	548.813	0.106	0.256
-739.083	-42.161	-0.347	0.179
-738.069	436.737	-0.017	-0.038
-737.054	800.000	-0.043	0.147
-736.039	-182.286	-0.292	0.005
-735.025	502.533	0.120	0.280
-734.010	-154.109	-0.258	0.018
-732.996	-149.097	-0.126	-0.010
-731.981	473.764	0.102	-0.232
-730.966	-93.970	-0.123	0.034
-729.952	-171.326	0.158	0.005
-728.937	361.803	0.122	0.246
-727.923	-200.000	0.009	-0.225
-726.908	44.372	-0.150	-0.139
-725.894	385.595	0.112	-0.233
-724.879	-200.000	-0.026	0.219
-723.864	-173.873	-0.319	-0.010
-722.850	800.000	0.040	-0.130
-721.835	215.929	0.067	-0.107
-720.821	-200.000	0.032	0.242
-719.806	89.519	-0.250	0.282
-718.791	800.000	0.062	-0.175
-717.777	261.972	-0.170	-0.297
-716.762	148.475	-0.170	0.232
-715.748	126.828	-0.259	0.332
-714.733	-8.376	0.105	0.071
-713.718	800.000	-0.165	0.472
-712.704	-46.936	0.041	0.020
-711.689	-135.415	0.078	-0.009
-710.675	-6.028	0.107	-0.074
-709.660	164.420	-0.091	-0.130
-708.645	-200.000	0.014	0.204
-707.631	-129.905	-0.238	-0.033
-706.616	-6.681	0.145	-0.099
-705.602	383.861	-0.069	-0.142
-704.587	-48.606	-0.429	-0.208
-703.572	-200.000	0.040	-0.178
-702.558	-84.296	0.179	0.057
-701.543	-81.824	0.237	0.078
-700.529	-200.000	-0.001	-0.427
-699.514	-164.942	-0.247	-0.011
-698.499	-132.510	0.149	-0.019
-697.485	-200.000	0.020	-0.162
-696.470	693.781	-0.097	0.257
-695.456	-131.068	-0.275	0.037
-694.441	800.000	-0.031	-0.125
-693.426	229.599	0.066	-0.109
-692.412	-28.609	-0.172	-0.100
-691.397	-113.630	-0.189	-0.037
-690.383	-107.434	0.405	-0.090
-689.368	-200.000	0.069	-0.397
-688.354	-81.143	0.215	0.072
-687.339	-68.252	0.108	0.042
-686.324	-200.000	0.021	-0.410
-685.310	-39.529	-0.231	-0.122
-684.295	-153.961	0.231	-0.016
-683.281	75.646	0.137	0.146
-682.266	7.127	0.187	0.140
-681.251	-66.215	0.312	0.125
-680.237	-64.725	-0.334	0.136
-679.222	-200.000	-0.037	-0.210
-678.208	-137.517	0.365	-0.042
-677.193	-200.000	-0.033	-0.209
-676.178	-104.401	-0.195	-0.045
-675.164	387.624	0.032	-0.067
-674.149	266.952	-0.065	-0.114
-673.135	-105.023	-0.407	-0.094
-672.120	20.273	-0.139	0.113
-671.105	165.069	0.080	-0.113
-670.091	772.809	-0.089	0.243
-669.076	800.000	0.065	0.250
-668.062	175.871	0.123	-0.180
-667.047	-200.000	0.051	-0.289
-666.032	-171.096	-0.449	0.015
-665.018	71.618	-0.073	0.076
-664.003	29.457	-0.278	0.238
-662.989	338.495	-0.137	0.268
-661.974	800.000	0.046	-0.167
-660.959	-52.254	0.244	0.114
-659.945	-200.000	0.039	0.175
-658.930	536.508	0.161	0.384
-657.916	-29.065	0.130	-0.075
-656.901	483.042	0.022	0.050
-655.886	-79.628	-0.074	0.025
-654.872	800.000	-0.030	0.097
-653.857	251.272	-0.124	0.212
-652.843	-80.770	0.324	-0.108
-651.828	-106.957	-0.167	-0.037
-650.814	289.855	-0.150	-0.275
-649.799	45.903	0.095	-0.088
-648.784	800.000	0.016	-0.067
-647.770	-59.180	-0.392	-0.170
-646.755	-89.382	-0.292	-0.087
-645.741	-117.760	-0.182	-0.033
-644.726	13.511	0.037	-0.029
-643.711	517.212	-0.096	0.225
-642.697	-54.148	0.142	-0.065
-641.682	25.105	0.099	-0.083
-640.668	9.366	-0.317	-0.241
-639.653	690.649	-0.103	0.271
-638.638	-150.072	0.176	0.014
-637.624	550.436	0.026	0.062
-636.609	-60.855	0.159	-0.068
-635.595	-106.217	0.083	0.019
-634.580	-96.516	-0.195	0.052
-633.565	36.730	0.104	-0.092
-632.551	45.360	0.084	0.077
-631.536	99.247	0.061	-0.071
-630.522	-32.886	0.174	0.097
-629.507	308.601	0.084	0.157
-628.492	199.790	0.143	-0.221
-627.478	328.394	-0.025	0.049
-626.463	-200.000	-0.024	0.109
-625.449	-200.000	0.003	0.019
-624.434	225.935	0.276	0.450
-623.419	4.510	0.302	0.223
-622.405	206.427	-0.093	-0.146
-621.390	800.000	0.033	-0.105
-620.376	318.347	-0.132	0.251
-619.361	-108.256	-0.271	0.059
-618.346	260.570	0.182	0.316
-617.332	-48.316	-0.130	-0.063
-616.317	800.000	0.073	0.260
-615.303	161.603	0.238	0.334
-614.288	323.381	-0.064	0.122
-613.273	-160.564	0.238	0.013
-612.259	-200.000	-0.026	0.269
-611.244	-200.000	0.014	-0.161
-610.230	-200.000	-0.014	0.096
-609.215	478.206	0.041	0.094
-608.201	-200.000	-0.026	-0.272
-607.186	-97.533	-0.146	-0.038
-606.171	65.973	-0.130	0.132
-605.157	-113.880	0.209	0.041
-604.142	-200.000	-0.034	0.271
-603.128	479.233	0.124	0.282
-602.113	-87.578	-0.189	0.057
-601.098	-121.552	0.335	-0.056
-600.084	576.340	0.045	0.110
-599.069	-86.401	-0.075	-0.023
-598.055	-15.037	-0.100	-0.064
-597.040	-200.000	-0.025	-0.181
-596.025	-152.092	-0.118	-0.009
-595.011	277.606	-0.058	0.103
-593.996	-200.000	-0.017	-0.215
-592.982	-127.531	0.370	-0.054
-591.967	27.723	-0.182	-0.154
-590.952	-21.612	-0.082	0.050
-589.938	-143.998	0.105	0.010
-588.923	273.331	-0.157	0.278
-587.909	-107.794	-0.112	-0.025
-586.894	357.876	0.043	0.086
-585.879	-70.023	-0.085	0.033
-584.865	525.348	0.129	-0.304
-583.850	140.602	-0.087	0.116
-582.836	800.000	-0.076	-0.268
-581.821	579.398	-0.118	0.290
-580.806	8.546	-0.263	-0.199
-579.792	-200.000	-0.016	-0.464
-578.777	450.866	0.147	-0.326
-577.763	20.553	-0.038	0.031
-576.748	800.000	-0.022	0.072
-575.733	218.831	-0.046	0.073
-574.719	169.052	0.158	-0.226
-573.704	800.000	0.078	-0.320
-572.690	800.000	0.094	-0.277
-571.675	-200.000	-0.036	0.192
-570.661	104.263	0.142	0.167
-569.646	-82.169	-0.174	-0.057
-568.631	594.467	-0.110	0.274
-567.617	449.311	0.118	-0.261
-566.602	-23.650	0.095	-0.057
-565.588	-27.944	-0.013	0.008
-564.573	800.000	-0.024	0.082
-563.558	-46.123	-0.283	-0.140
-562.544	800.000	0.043	0.181
-561.529	-70.214	-0.075	0.029
-560.515	113.429	0.118	-0.144
-559.500	-88.587	-0.316	0.094
-558.485	-166.681	-0.371	-0.015
-557.471	-7.052	-0.156	0.106
-556.456	118.426	0.024	-0.030
-555.442	203.543	0.163	-0.253
-554.427	-200.000	-0.028	-0.365
-553.412	-87.584	-0.127	-0.039
-552.398	113.507	-0.032	0.039
-551.383	800.000	0.041	-0.146
-550.369	127.371	-0.161	-0.205
-549.354	-79.629	0.076	0.026
-548.339	-95.158	-0.221	-0.060
-547.325	800.000	0.045	-0.143
-546.310	-66.937	0.060	-0.024
-545.296	25.431	0.164	0.137
-544.281	-164.988	0.093	0.004
-543.266	-134.590	-0.443	-0.054
-542.252	-3.991	-0.118	-0.082
-541.237	513.859	0.157	0.367
-540.223	-43.737	0.168	-0.085
-539.208	800.000	0.100	-0.334
-538.193	-10.632	-0.260	-0.172
-537.179	-150.641	0.210	-0.016
-536.164	-114.310	-0.121	-0.023
-535.150	332.239	0.088	-0.170
-534.135	106.139	0.084	0.100
-533.121	800.000	-0.169	-0.592
-532.106	364.392	0.049	0.098
-531.091	53.510	0.233	-0.223
-530.077	-151.686	0.219	-0.016
-529.062	-200.000	-0.040	-0.447
-528.048	37.107	0.026	0.023
-527.033	622.063	-0.043	-0.108
-526.018	800.000	-0.063	0.257
-525.004	133.624	-0.118	-0.153
-523.989	-130.109	-0.152	0.021
-522.975	-200.000	0.043	0.229
-521.960	-153.555	0.388	-0.027
-520.945	47.525	0.166	-0.155
-519.931	-55.440	-0.078	0.035
-518.916	295.808	-0.051	0.093
-517.902	409.630	0.117	0.248
-516.887	800.000	0.109	0.360
-515.872	600.497	0.144	-0.358
-514.858	164.410	0.079	-0.111
-513.843	59.807	0.174	0.172
-512.829	325.435	0.070	0.133
-511.814	-200.000	-0.004	0.128
-510.799	-52.661	0.253	0.117
-509.785	-96.383	0.099	0.026
-508.770	-200.000	-0.039	-0.192
-507.756	53.798	-0.363	0.348
-506.741	-131.620	0.307	0.040
-505.726	-120.858	-0.125	-0.021
-504.712	298.541	-0.065	-0.120
-503.697	800.000	-0.060	-0.239
-502.683	26.603	0.240	0.201
-501.668	-200.000	-0.003	0.131
-500.653	-180.008	-0.341	0.007
-499.639	-26.903	-0.303	-0.177
-498.624	72.703	-0.090	-0.094
-497.610	-110.585	0.354	0.073
-496.595	800.000	0.091	0.306
-495.581	-34.775	-0.019	-0.010
-494.566	238.656	-0.046	0.077
-493.551	-85.683	0.276	-0.086
-492.537	88.912	-0.067	-0.074
-491.522	679.681	0.138	-0.359
-490.508	16.662	-0.146	-0.115
-489.493	-200.000	0.011	0.322
-488.478	66.342	0.155	-0.157
-487.464	-42.079	0.237	0.121
-486.449	-24.391	-0.353	0.210
-485.435	208.032	0.135	0.211
-484.420	285.185	0.040	0.073
-483.405	800.000	-0.105	-0.403
-482.391	-73.666	-0.113	0.041
-481.376	-88.594	0.204	0.061
-480.362	-114.575	-0.157	-0.030
-479.347	-200.000	-0.383	-0.001
-478.332	-53.987	-0.029	0.013
-477.318	-144.376	-0.238	0.022
-476.303	-87.165	-0.155	-0.047
-475.289	-15.216	-0.339	0.217
-474.274	-200.000	0.011	0.268
-473.259	224.860	-0.084	-0.136
-472.245	-136.417	-0.175	-0.020
-471.230	-200.000	-0.009	-0.055
-470.216	100.411	-0.143	0.165
-469.201	655.743	0.037	-0.094
-468.186	467.505	0.041	-0.093
-467.172	800.000	-0.028	-0.113
-466.157	82.057	-0.243	-0.264
-465.143	-153.377	-0.116	0.008
-464.128	-200.000	0.021	-0.155
-463.113	800.000	0.115	-0.346
-462.099	-86.006	-0.448	0.138
-461.084	272.998	-0.147	-0.259
-460.070	172.679	-0.069	0.099
-459.055	-20.249	-0.290	-0.178
-458.040	-154.118	0.311	0.021
-457.026	604.613	-0.052	0.130
-456.011	-4.202	-0.108	-0.075
-454.997	116.658	0.153	-0.187
-453.982	274.621	-0.149	-0.264
-452.968	-71.325	0.280	-0.105
-451.953	192.384	-0.140	-0.210
-450.938	258.948	0.203	0.350
-449.924	-200.000	-0.025	0.122
-448.909	-200.000	-0.005	0.128
-447.895	-200.000	0.064	-0.318
-446.880	65.155	-0.084	0.085
-445.865	199.069	-0.043	-0.065
-444.851	74.621	-0.184	-0.193
-443.836	-141.434	0.204	-0.021
-442.822	26.522	-0.175	-0.147
-441.807	-8.465	0.226	-0.152
-440.792	59.205	0.154	-0.152
-439.778	85.489	-0.086	-0.094
-438.763	-30.766	-0.184	0.104
-437.749	43.592	0.106	-0.097
-436.734	160.464	-0.032	0.045
-435.719	-200.000	0.026	-0.162
-434.705	-55.760	-0.153	-0.068
-433.690	65.216	0.076	-0.077
-432.676	18.330	-0.177	0.141
-431.661	-200.000	-0.025	0.256
-430.646	-46.020	-0.243	0.120
-429.632	85.097	0.084	-0.092
-428.617	-5.590	0.070	-0.048
-427.603	578.203	-0.197	0.480
-426.588	-200.000	0.021	-0.173
-425.573	96.054	-0.277	0.315
-424.559	-136.263	-0.375	0.044
-423.544	-200.000	0.016	-0.260
-422.530	394.174	-0.138	0.287
-421.515	166.193	0.079	0.111
-420.500	-10.468	0.175	0.116
-419.486	290.017	-0.033	-0.059
-418.471	800.000	-0.086	-0.251
-417.457	-58.605	-0.150	0.065
-416.442	132.135	0.170	0.219
-415.428	-81.612	0.267	-0.087
-414.413	355.297	0.091	-0.181
-413.398	800.000	0.047	-0.173
-412.384	16.628	-0.222	0.175
-411.369	130.378	-0.115	-0.147
-410.355	-83.032	0.127	-0.041
-409.340	-9.201	0.085	0.057
-408.325	800.000	0.071	0.221
-407.311	-200.000	0.006	-0.208
-406.296	-200.000	-0.028	-0.304
-405.282	60.526	0.075	-0.074
-404.267	98.808	-0.086	-0.099
-403.252	-117.471	-0.347	0.063
-402.238	-200.000	-0.011	-0.134
-401.223	-80.006	-0.150	0.050
-400.209	60.525	0.204	-0.202
-399.194	-200.000	-0.012	-0.137
-398.179	-27.729	-0.153	-0.088
-397.165	446.737	-0.102	0.223
-396.150	718.737	-0.087	0.230
-395.136	-34.906	0.067	0.036
-394.121	58.315	-0.230	0.225
-393.106	-171.802	0.132	-0.004
-392.092	96.578	0.312	0.356
-391.077	-193.596	0.158	-0.001
-390.063	166.112	-0.042	0.059
-389.048	-179.799	-0.395	-0.008
-388.033	133.578	-0.062	0.080
-387.019	-90.268	0.203	-0.059
-386.004	92.353	-0.310	0.348
-384.990	-62.858	0.389	-0.160
-383.975	-200.000	0.011	-0.126
-382.960	-200.000	0.012	-0.167
-381.946	-140.395	-0.079	-0.008
-380.931	-200.000	0.036	-0.255
-379.917	-97.989	-0.342	-0.088
-378.902	-1.320	0.506	-0.355
-377.888	-128.993	-0.197	0.027
-376.873	-200.000	-0.003	0.054
-375.858	-200.000	0.076	-0.418
-374.844	361.348	-0.029	0.059
-373.829	14.070	0.127	-0.098
-372.815	-21.174	-0.063	0.038
-371.800	77.068	0.181	0.191
-370.785	699.433	0.062	0.163
-369.771	278.843	0.053	-0.094
-368.756	-97.525	0.249	0.064
-367.742	450.815	-0.056	0.123
-366.727	-95.792	-0.136	-0.036
-365.712	-179.875	-0.105	0.002
-364.698	373.953	-0.054	0.108
-363.683	750.090	-0.082	0.220
-362.669	-81.756	0.197	-0.064
-361.654	-77.529	0.224	-0.077
-360.639	-200.000	0.032	0.181
-359.625	-27.166	0.323	-0.188
-358.610	-117.279	-0.289	-0.052
-357.596	37.422	0.254	0.224
-356.581	149.044	0.244	0.329
-355.566	-200.000	-0.005	0.156
-354.552	-74.323	0.071	0.026
-353.537	233.556	0.143	0.234
-352.523	-82.688	0.142	0.046
-351.508	175.736	-0.153	0.220
-350.493	-7.121	-0.081	-0.055
-349.479	-200.000	0.045	0.257
-348.464	-156.337	0.112	-0.007
-347.450	-192.668	-0.161	-0.001
-346.435	341.568	0.029	0.057
-345.420	-200.000	-0.008	0.037
-344.406	103.616	-0.056	-0.065
-343.391	-113.192	-0.332	0.065
-342.377	372.287	0.151	0.306
-341.362	-101.834	0.127	-0.030
-340.348	-200.000	-0.104	0.506
-339.333	217.154	0.095	0.151
-338.318	180.652	-0.159	-0.232
-337.304	-66.184	-0.193	0.077
-336.289	22.268	-0.075	0.061
-335.275	54.823	0.095	-0.091
-334.260	-45.622	0.170	0.084
-333.245	107.485	-0.247	-0.293
-332.231	-167.431	0.365	0.015
-331.216	106.957	-0.257	-0.303
-330.202	-66.877	0.049	-0.019
-329.187	-190.294	0.246	0.003
-328.172	51.372	-0.188	-0.177
-327.158	623.541	0.124	-0.312
-326.143	79.006	-0.134	-0.143
-325.129	-200.000	0.035	-0.373
-324.114	-200.000	-0.023	-0.130
-323.099	666.500	0.184	0.471
-322.085	-111.108	0.337	0.069
-321.070	27.293	-0.177	-0.148
-320.056	422.507	0.026	-0.055
-319.041	52.465	0.109	-0.103
-318.026	-98.498	-0.199	0.051
-317.012	-151.746	0.158	-0.012
-315.997	800.000	0.086	-0.255
-314.983	-200.000	-0.001	-0.142
-313.968	-200.000	0.052	0.302
-312.953	800.000	-0.079	-0.326
-311.939	116.274	-0.107	0.130
-310.924	800.000	-0.045	-0.178
-309.910	330.910	-0.123	0.236
-308.895	-95.014	-0.219	0.059
-307.880	-106.125	0.441	0.098
-306.866	-200.000	0.037	-0.176
-305.851	-116.955	-0.196	-0.035
-304.837	-92.746	-0.260	0.072
-303.822	81.077	0.229	-0.245
-302.807	243.896	-0.164	0.273
-301.793	-105.722	0.138	0.031
-300.778	-200.000	0.020	0.107
-299.764	-200.000	-0.484	-0.001
-298.749	-59.033	-0.210	-0.090
-297.735	45.486	-0.137	0.126
-296.720	-200.000	0.035	0.294
-295.705	-119.125	-0.339	-0.059
-294.691	157.607	0.142	0.195
-293.676	169.872	-0.133	-0.189
-292.662	169.594	-0.155	0.220
-291.647	-19.314	0.083	-0.051
-290.632	189.028	0.167	0.248
-289.618	-116.933	-0.111	-0.020
-288.603	-181.957	0.212	-0.004
-287.589	524.459	0.083	-0.193
-286.574	424.404	0.054	0.116
-285.559	476.842	0.153	0.344
-284.545	-200.000	-0.033	-0.311
-283.530	-200.000	-0.018	0.130
-282.516	-69.386	0.240	-0.091
-281.501	171.966	0.028	-0.041
-280.486	146.610	-0.038	0.050
-279.472	109.266	0.054	-0.064
-278.457	-200.000	0.071	-0.000
-277.443	73.069	0.221	0.229
-276.428	161.752	0.066	0.091
-275.413	-109.242	0.179	0.038
-274.399	-50.367	0.258	0.121
-273.384	-26.308	0.111	-0.065
-272.370	-174.745	0.260	0.007
-271.355	800.000	-0.102	0.294
-270.340	268.299	-0.244	0.424
-269.326	430.000	-0.118	-0.253
-268.311	800.000	-0.071	-0.195
-267.297	274.573	-0.070	-0.122
-266.282	2.517	0.072	0.051
-265.267	-107.410	-0.107	0.023
-264.253	19.364	-0.139	0.111
-263.238	63.529	0.265	-0.264
-262.224	93.029	-0.124	-0.139
-261.209	-55.133	-0.499	0.223
-260.195	-200.000	-0.015	-0.225
-259.180	105.021	0.316	0.369
-258.165	131.129	-0.072	0.092
-257.151	-200.000	-0.010	-0.258
-256.136	800.000	-0.072	-0.217
-255.122	-126.601	-0.141	-0.021
-254.107	660.358	0.111	-0.283
-253.092	-93.644	0.156	0.043
-252.078	-15.785	0.128	-0.081
-251.063	-114.508	-0.103	-0.020
-250.049	-200.000	-0.077	0.424
-249.034	51.771	-0.187	0.176
-248.019	-200.000	-0.010	-0.195
-247.005	800.000	-0.020	0.084
-245.990	-200.000	0.047	-0.260
-244.976	153.800	0.041	-0.056
-243.961	-200.000	-0.016	-0.101
-242.946	-97.489	0.131	0.034
-241.932	551.785	-0.156	-0.371
-240.917	-101.084	0.052	-0.013
-239.903	128.949	0.101	-0.128
-238.888	210.743	0.140	0.217
-237.873	800.000	-0.065	-0.214
-236.859	-88.405	0.090	0.027
-235.844	148.169	0.030	-0.041
-234.830	-106.126	0.325	-0.072
-233.815	134.517	0.128	0.164
-232.800	23.111	0.229	0.186
-231.786	-200.000	0.027	0.250
-230.771	800.000	-0.081	0.290
-229.757	-63.759	-0.266	0.108
-228.742	-112.765	0.224	0.044
-227.727	-99.859	0.152	-0.038
-226.713	123.436	0.150	-0.186
-225.698	20.806	0.218	-0.175
-224.684	800.000	-0.039	-0.144
-223.669	106.859	0.269	-0.316
-222.655	55.506	-0.193	0.185
-221.640	28.740	0.194	0.163
-220.625	91.982	-0.133	-0.148
-219.611	413.790	0.086	0.181
-218.596	800.000	0.101	0.321
-217.582	-2.695	-0.078	-0.054
-216.567	-72.898	-0.189	0.069
-215.552	174.873	0.025	-0.036
-214.538	166.585	0.141	-0.198
-213.523	-121.574	0.325	-0.053
-212.509	800.000	0.039	-0.136
-211.494	-28.794	0.223	-0.127
-210.479	-200.000	0.051	-0.287
-209.465	531.530	-0.022	0.050
-208.450	800.000	0.024	0.092
-207.436	165.971	-0.051	0.071
-206.421	-53.462	0.197	0.089
-205.406	-200.000	0.002	-0.102
-204.392	800.000	0.096	-0.381
-203.377	190.702	0.049	0.074
-202.363	383.774	-0.072	-0.146
-201.348	-200.000	-0.032	0.162
-200.333	31.087	0.274	-0.232
-199.319	-138.162	0.112	-0.012
-198.304	166.561	0.227	0.318
-197.290	-8.048	-0.322	0.215
-196.275	-68.295	-0.216	-0.083
-195.260	217.261	-0.139	0.218
-194.246	-159.702	-0.324	-0.018
-193.231	103.753	0.072	-0.083
-192.217	323.502	0.092	0.174
-191.202	-69.196	0.059	0.023
-190.187	16.402	-0.252	-0.197
-189.173	613.763	-0.029	-0.072
-188.158	277.717	-0.183	0.322
-187.144	94.015	-0.027	-0.030
-186.129	564.399	0.054	-0.129
-185.114	-85.959	-0.343	0.105
-184.100	260.115	-0.072	-0.123
-183.085	800.000	0.084	-0.231
-182.071	144.259	0.075	0.099
-181.056	-65.768	-0.258	0.102
-180.042	79.340	-0.074	-0.079
-179.027	20.199	0.092	0.073
-178.012	541.027	0.020	0.046
-176.998	-53.293	0.180	0.082
-175.983	-200.000	0.044	-0.369
-174.969	-36.790	-0.145	0.077
-173.954	-26.279	0.119	0.069
-172.939	-200.000	-0.016	0.328
-171.925	-200.000	0.014	0.331
-170.910	485.541	-0.090	0.203
-169.896	-43.667	-0.322	-0.160
-168.881	-200.000	0.041	-0.221
-167.866	775.529	-0.030	-0.082
-166.852	-200.000	0.010	-0.211
-165.837	800.000	-0.098	0.352
-164.823	800.000	0.111	0.419
-163.808	-22.080	0.154	0.092
-162.793	202.643	-0.146	-0.222
-161.779	-106.167	0.163	0.036
-160.764	800.000	0.049	0.151
-159.750	-62.377	0.212	0.087
-158.735	-200.000	0.007	-0.034
-157.720	688.945	-0.070	-0.182
-156.706	100.815	0.082	-0.094
-155.691	-200.000	0.007	0.100
-154.677	45.883	0.070	-0.064
-153.662	9.585	0.219	0.164
-152.647	-35.686	0.257	0.137
-151.633	800.000	0.053	0.202
-150.618	-33.408	0.279	-0.152
-149.604	312.555	-0.189	0.350
-148.589	38.154	-0.189	0.166
-147.574	-134.196	0.055	-0.007
-146.560	-200.000	0.052	0.323
-145.545	452.124	0.063	0.137
-144.531	-130.395	0.242	-0.032
-143.516	-101.510	-0.316	-0.076
-142.502	425.489	-0.065	0.137
-141.487	-120.954	-0.207	0.034
-140.472	-1.482	-0.324	0.226
-139.458	14.360	0.122	-0.094
-138.443	175.489	-0.112	0.160
-137.429	270.671	-0.136	0.236
-136.414	144.960	-0.249	-0.329
-135.399	-108.562	-0.084	-0.018
-134.385	-200.000	-0.028	0.229
-133.370	770.770	0.180	-0.482
-132.356	-11.438	-0.139	-0.090
-131.341	-200.000	0.019	-0.220
-130.326	18.495	-0.024	0.019
-129.312	-58.381	0.319	-0.137
-128.297	79.095	0.093	0.098
-127.283	-76.394	0.250	0.087
-126.268	-17.035	-0.209	-0.130
-125.253	-100.036	0.165	0.041
-124.239	800.000	-0.047	-0.163
-123.224	-78.388	-0.228	0.077
-122.210	-40.742	0.299	-0.153
-121.195	-200.000	0.038	-0.212
-120.180	141.894	0.133	0.173
-119.166	-62.780	-0.104	0.042
-118.151	-149.950	0.448	-0.034
-117.137	120.991	-0.123	0.151
-116.122	-75.177	-0.269	0.095
-115.107	-73.908	-0.109	-0.039
-114.093	222.043	-0.156	0.247
-113.078	621.930	0.073	-0.182
-112.064	413.568	0.101	0.211
-111.049	280.012	0.162	-0.286
-110.034	800.000	0.087	0.244
-109.020	-200.000	-0.030	-0.197
-108.005	800.000	0.138	0.534
-106.991	-200.000	-0.002	0.358
-105.976	-80.813	0.255	-0.083
-104.962	-200.000	-0.017	0.104
-103.947	36.269	0.145	0.126
-102.932	-62.015	-0.154	-0.063
-101.918	335.193	-0.093	0.177
-100.903	-35.631	0.424	0.227
-99.889	800.000	-0.032	-0.104
-98.874	-131.332	0.075	0.010
-97.859	-95.658	0.336	0.089
-96.845	34.766	0.300	0.258
-95.830	-200.000	-0.020	0.100
-94.816	24.650	0.165	0.135
-93.801	55.977	-0.083	-0.079
-92.786	-131.493	-0.258	-0.034
-91.772	29.606	0.268	-0.224
-90.757	800.000	-0.097	-0.311
-89.743	243.130	-0.117	-0.192
-88.728	-122.024	-0.119	0.019
-87.713	89.181	0.081	-0.089
-86.699	-200.000	-0.008	-0.149
-85.684	-200.000	-0.002	0.312
-84.670	-96.572	-0.276	0.072
-83.655	-200.000	-0.026	-0.242
-82.640	5.861	-0.238	-0.173
-81.626	-86.164	0.252	0.076
-80.611	800.000	0.031	-0.085
-79.597	-144.085	0.301	0.028
-78.582	753.163	0.070	-0.186
-77.567	460.972	-0.120	-0.263
-76.553	88.786	0.050	-0.054
-75.538	230.069	-0.155	0.250
-74.524	3.771	0.035	0.025
-73.509	-45.536	0.048	-0.023
-72.494	171.067	-0.164	-0.231
-71.480	-44.872	0.290	0.142
-70.465	72.423	0.166	0.170
-69.451	-200.000	-0.052	-0.306
-68.436	476.450	-0.105	0.234
-67.422	-0.808	-0.152	-0.106
-66.407	-134.973	0.006	-0.001
-65.392	-33.341	-0.176	-0.096
-64.378	-92.653	0.349	-0.096
-63.363	-200.000	0.044	-0.323
-62.349	-171.347	-0.320	-0.011
-61.334	25.960	-0.976	-0.801
-60.319	-20.539	0.483	0.292
-59.305	463.536	-0.368	-0.809
-58.290	340.285	0.538	1.033
-57.276	335.106	0.723	1.378
-56.261	-200.000	93.567	572.907
-55.246	570.835	1359.916	3253.918
-54.232	165.102	2524.163	3504.277
-53.217	114.949	2135.696	2561.284
-52.203	44.581	1603.066	1448.350
-51.188	36.231	1341.854	1162.265
-50.173	32.848	1300.398	1106.517
-49.159	55.258	1345.695	1278.993
-48.144	57.368	1363.511	1308.435
-47.130	36.269	1323.084	1146.049
-46.115	32.819	1305.608	1110.601
-45.100	32.588	1300.758	1105.078
-44.086	32.540	1297.961	1102.375
-43.071	32.538	1295.638	1100.349
-42.057	32.493	1293.505	1098.229
-41.042	32.497	1292.065	1096.986
-40.027	32.586	1290.022	1095.723
-39.013	32.503	1288.719	1094.094
-37.998	32.643	1286.542	1093.014
-36.984	32.615	1284.940	1091.447
-35.969	32.590	1283.202	1089.782
-34.954	32.629	1281.498	1088.519
-33.940	32.662	1280.487	1087.805
-32.925	32.688	1278.866	1086.536
-31.911	32.738	1277.671	1085.763
-30.896	32.744	1275.962	1084.306
-29.881	32.722	1274.835	1083.175
-28.867	32.759	1273.262	1082.010
-27.852	32.718	1271.764	1080.458
-26.838	32.743	1270.229	1079.254
-25.823	32.720	1269.104	1078.122
-24.809	32.723	1267.985	1077.150
-23.794	32.718	1266.491	1075.806
-22.779	32.724	1265.163	1074.671
-21.765	32.638	1264.096	1073.230
-20.750	32.739	1262.515	1072.425
-19.736	32.749	1261.149	1071.278
-18.721	32.567	1260.207	1069.398
-17.706	32.641	1258.996	1068.752
-16.692	32.639	1257.756	1067.641
-15.677	32.435	1257.270	1066.031
-14.663	32.585	1255.650	1065.464
-13.648	32.536	1254.821	1064.443
-12.633	32.611	1253.656	1063.834
-11.619	32.615	1252.676	1062.983
-10.604	32.467	1251.965	1061.507
-9.590	32.604	1251.085	1061.491
-8.575	32.503	1250.256	1060.178
-7.560	32.494	1249.148	1059.144
-6.546	32.540	1248.052	1058.432
-5.531	32.488	1247.788	1057.870
-4.517	32.524	1246.702	1057.110
-3.502	32.593	1245.702	1056.608
-2.487	32.530	1244.825	1055.467
-1.473	32.520	1240.951	1052.086
-0.458	30.970	1226.018	1030.823
0.556	25.313	1207.987	991.249
1.571	21.355	1213.045	973.315
2.586	20.220	1227.673	978.568
3.600	19.924	1216.510	967.928
4.615	14.614	1143.720	881.940
5.629	5.063	1066.680	775.188
6.644	0.444	1045.674	737.312
7.659	-0.015	1043.265	733.314
8.673	-0.054	1042.139	732.265
9.688	-0.103	1041.105	731.234
10.702	0.239	1039.259	731.537
11.717	5.667	1046.690	763.199
12.731	14.508	1058.214	814.909
13.746	17.779	1061.378	833.279
14.761	16.956	1059.974	828.089
15.775	15.924	1057.651	821.168
16.790	14.908	1055.753	814.678
17.804	14.204	1054.674	810.343
18.819	13.900	1052.870	807.409
19.834	13.487	1052.294	804.889
20.848	13.284	1051.741	803.407
21.863	13.174	1050.591	801.924
22.877	12.990	1049.821	800.376
23.892	13.013	1048.952	799.750
24.907	12.978	1048.180	798.922
25.921	12.996	1047.677	798.554
26.936	13.056	1046.416	797.815
27.950	13.024	1045.602	796.969
28.965	13.128	1044.771	796.766
29.980	13.221	1043.014	795.805
30.994	13.133	1042.239	794.716
32.009	13.198	1041.400	794.322
33.023	13.230	1040.004	793.338
34.038	13.109	1039.395	792.223
35.053	13.111	1038.845	791.745
36.067	13.130	1037.715	790.906
37.082	13.058	1037.229	790.119
38.096	13.194	1035.775	789.594
39.111	13.198	1035.162	789.075
40.126	13.126	1034.139	787.883
41.140	12.959	1033.175	786.282
42.155	12.967	1031.442	784.931
43.169	12.977	1030.668	784.318
44.184	12.975	1029.560	783.398
45.199	12.982	1028.579	782.616
46.213	13.010	1027.431	781.806
47.228	12.937	1026.801	780.909
48.242	13.118	1025.545	780.743
49.257	13.030	1024.974	779.824
50.271	13.081	1024.111	779.337
51.286	13.002	1023.504	778.431
52.301	13.073	1022.276	777.768
53.315	13.071	1021.055	776.760
54.330	12.970	1020.086	775.478
55.344	13.021	1019.552	775.243
56.359	12.980	1018.173	773.935
57.374	13.051	1017.473	773.665
58.388	12.926	1016.610	772.356
59.403	12.800	1016.097	771.306
60.417	12.910	1015.122	771.012
61.432	12.986	1014.184	770.591
62.447	12.826	1013.928	769.579
63.461	12.959	1012.788	769.267
64.476	12.829	1012.219	768.158
65.490	12.909	1011.110	767.623
66.505	12.897	1010.676	767.169
67.520	12.937	1010.021	766.792
68.534	12.981	1009.058	766.194
69.549	12.848	1008.441	765.042
70.563	12.902	1007.321	764.374
71.578	12.770	1006.844	763.335
72.593	12.721	1006.180	762.535
73.607	12.635	1005.741	761.736
74.622	12.810	1004.742	761.724
75.636	12.862	1003.852	761.220
76.651	12.618	1003.709	759.918
77.666	12.805	1002.591	759.867
78.680	12.792	1002.589	759.736
79.695	12.853	1001.294	758.968
80.709	12.867	1001.228	758.916
81.724	12.810	1000.585	758.101
82.739	12.968	999.579	758.000
83.753	13.215	998.553	758.286
84.768	13.113	997.985	757.319
85.782	13.318	996.724	757.235
86.797	13.026	996.329	755.531
87.812	13.016	995.785	755.004
88.826	13.120	994.207	754.219
89.841	13.149	993.118	753.457
90.855	13.100	992.715	752.860
91.870	13.128	991.938	752.334
92.884	13.125	991.006	751.544
93.899	13.237	990.092	751.296
94.914	13.361	989.161	751.087
95.928	13.243	988.799	750.210
96.943	13.162	987.813	749.026
97.957	13.090	987.330	748.268
98.972	13.251	985.902	747.849
99.987	13.162	985.357	746.964
101.001	13.271	984.311	746.601
102.016	13.197	983.252	745.397
103.030	13.228	982.759	745.096
104.045	13.309	981.966	744.795
105.060	13.202	980.884	743.425
106.074	13.087	980.057	742.215
107.089	12.976	979.433	741.179
108.103	13.010	978.400	740.486
109.118	12.956	977.429	739.443
110.133	12.967	976.761	738.920
111.147	13.043	975.736	738.419
112.162	13.055	975.274	738.058
113.176	13.049	974.175	737.136
114.191	13.128	973.363	736.810
115.206	13.064	972.960	736.150
116.220	12.918	972.198	734.859
117.235	13.000	970.947	734.215
118.249	13.056	969.888	733.598
119.264	13.082	969.221	733.142
120.279	13.153	968.175	732.602
121.293	13.043	967.773	731.748
122.308	12.944	967.081	730.718
123.322	13.044	966.071	730.333
124.337	13.020	964.889	729.271
125.352	12.905	963.922	727.969
126.366	13.002	962.775	727.463
127.381	13.028	961.846	726.814
128.395	13.032	961.122	726.221
129.410	13.151	960.295	726.053
130.424	13.102	959.572	725.225
131.439	13.081	958.794	724.484
132.454	13.131	958.426	724.359
133.468	13.278	956.880	723.772
134.483	13.293	955.962	723.077
135.497	13.007	955.477	721.395
136.512	13.116	954.645	721.181
137.527	13.190	953.648	720.685
138.541	13.203	952.946	720.148
139.556	13.197	952.422	719.664
140.570	13.430	951.422	719.856
141.585	13.273	950.728	718.585
142.600	13.299	949.855	717.974
143.614	13.370	949.081	717.634
144.629	13.329	948.550	716.993
145.643	13.261	947.941	716.174
146.658	13.354	946.336	715.299
147.673	13.151	945.862	714.001
148.687	13.106	945.041	713.124
149.702	13.189	944.082	712.696
150.716	13.169	943.245	711.914
151.731	13.233	942.527	711.587
152.746	13.183	941.968	710.884
153.760	13.268	941.504	710.839
154.775	13.388	940.439	710.484
155.789	13.286	940.420	709.970
156.804	13.367	939.627	709.655
157.819	13.436	938.470	709.016
158.833	13.401	937.965	708.419
159.848	13.493	937.115	708.111
160.862	13.423	936.193	707.050
161.877	13.403	935.299	706.229
162.892	13.285	934.534	705.087
163.906	13.356	933.519	704.560
164.921	13.219	932.948	703.484
165.935	13.389	931.717	703.215
166.950	13.277	931.099	702.211
167.964	13.294	930.112	701.476
168.979	13.277	929.370	700.782
169.994	13.382	928.632	700.608
171.008	13.410	927.911	700.121
172.023	13.413	927.370	699.663
173.037	13.529	926.684	699.576
174.052	13.464	925.819	698.586
175.067	13.447	925.070	697.886
176.081	13.361	924.890	697.328
177.096	13.452	923.921	696.918
178.110	13.536	923.469	696.869
179.125	13.375	922.964	695.750
180.140	13.468	922.506	695.732
181.154	13.537	921.764	695.401
182.169	13.659	920.838	695.152
183.183	13.635	920.411	694.670
184.198	13.679	919.702	694.258
185.213	13.619	919.205	693.568
186.227	13.523	918.827	692.821
187.242	13.658	918.068	692.751
188.256	13.754	917.484	692.650
189.271	13.711	916.443	691.622
190.286	13.589	915.662	690.466
191.300	13.623	914.422	689.609
192.315	13.437	914.042	688.488
193.329	13.573	913.653	688.700
194.344	13.617	913.108	688.410
195.359	13.527	912.542	687.550
196.373	13.686	911.795	687.585
197.388	13.795	911.733	687.929
198.402	13.801	910.959	687.312
199.417	13.864	910.469	687.139
200.432	13.858	910.051	686.739
201.446	13.907	909.340	686.346
202.461	13.940	908.639	685.889
203.475	13.899	908.145	685.287
204.490	13.931	907.613	684.959
205.504	13.911	906.738	684.155
206.519	13.809	905.681	682.874
207.534	13.920	905.384	683.049
208.548	13.935	904.488	682.374
209.563	13.898	904.333	682.043
210.577	13.990	903.441	681.691
211.592	14.062	902.238	681.015
212.607	14.100	901.815	680.794
213.621	14.080	900.790	679.875
214.636	14.005	900.170	679.040
215.650	14.191	899.630	679.336
216.665	14.198	898.799	678.673
217.680	14.194	898.250	678.185
218.694	14.167	897.611	677.533
219.709	14.177	896.500	676.673
220.723	14.071	896.157	675.925
221.738	14.133	895.750	675.809
222.753	14.216	894.719	675.309
223.767	14.163	894.466	674.843
224.782	14.237	894.313	674.965
225.796	14.370	893.165	674.578
226.811	14.206	892.611	673.437
227.826	14.291	892.012	673.269
228.840	14.241	891.333	672.495
229.855	14.305	890.118	671.776
230.869	14.173	889.735	670.896
231.884	14.163	889.374	670.526
232.899	14.151	888.504	669.761
233.913	14.145	887.777	669.129
234.928	14.029	887.233	668.196
235.942	14.107	886.616	667.984
236.957	14.167	885.941	667.658
237.972	14.257	885.371	667.532
238.986	14.435	884.421	667.470
240.001	14.190	884.146	666.220
241.015	14.322	883.358	666.096
242.030	14.242	882.552	665.110
243.045	14.237	882.601	665.065
244.059	14.369	881.728	664.876
245.074	14.301	881.411	664.310
246.088	14.376	880.416	663.798
247.103	14.421	879.612	663.314
248.117	14.491	879.447	663.407
249.132	14.570	878.549	662.985
250.147	14.695	877.987	662.998
251.161	14.596	877.261	662.000
252.176	14.588	876.554	661.376
253.190	14.689	875.974	661.280
254.205	14.650	875.139	660.438
255.220	14.703	874.824	660.350
256.234	14.796	874.181	660.175
257.249	14.698	873.703	659.368
258.263	14.914	872.490	659.243
259.278	14.821	871.801	658.299
260.293	14.841	871.487	658.085
261.307	14.813	871.350	657.810
262.322	14.789	870.860	657.288
263.336	15.008	869.531	657.087
264.351	14.965	868.353	655.972
265.366	14.876	868.373	655.580
266.380	14.948	867.642	655.249
267.395	14.958	867.020	654.764
268.409	14.919	865.984	653.768
269.424	14.803	865.676	653.024
270.439	14.776	864.905	652.280
271.453	14.786	864.201	651.732
272.468	14.879	863.705	651.662
273.482	14.981	863.033	651.494
274.497	14.998	862.627	651.198
275.512	15.006	862.040	650.727
276.526	14.989	861.606	650.278
277.541	14.995	860.910	649.718
278.555	15.159	859.883	649.521
279.570	15.061	859.704	648.949
280.585	15.170	858.824	648.648
281.599	15.119	858.137	647.874
282.614	15.224	857.433	647.690
283.628	14.943	857.093	646.291
284.643	15.248	856.458	646.933
285.657	15.097	855.923	645.889
286.672	15.201	855.112	645.620
287.687	15.154	854.519	644.934
288.701	15.228	854.052	644.809
289.716	15.204	853.537	644.272
290.730	15.286	852.884	644.036
291.745	15.279	852.655	643.782
292.760	15.329	851.552	643.082
293.774	15.464	851.007	643.131
294.789	15.363	850.580	642.365
295.803	15.357	849.759	641.663
296.818	15.352	849.026	641.036
297.833	15.357	848.097	640.296
298.847	15.386	847.329	639.770
299.862	15.405	847.027	639.561
300.876	15.394	846.899	639.365
301.891	15.349	846.076	638.515
302.906	15.509	845.463	638.604
303.920	15.446	845.435	638.288
304.935	15.479	844.931	637.974
305.949	15.614	843.793	637.571
306.964	15.653	843.028	637.086
307.979	15.601	842.569	636.483
308.993	15.628	842.153	636.218
310.008	15.651	841.596	635.827
311.022	15.648	840.976	635.290
312.037	15.532	840.698	634.587
313.052	15.470	840.130	633.865
314.066	15.499	839.774	633.652
315.081	15.442	839.053	632.837
316.095	15.538	838.407	632.654
317.110	15.424	837.920	631.803
318.125	15.541	837.250	631.680
319.139	15.624	836.599	631.445
320.154	15.523	836.682	631.072
321.168	15.591	835.880	630.666
322.183	15.703	835.257	630.560
323.197	15.647	834.697	629.874
324.212	15.670	834.189	629.521
325.227	15.692	833.675	629.161
326.241	15.635	833.297	628.603
327.256	15.732	832.540	628.342
328.270	15.671	832.035	627.675
329.285	15.686	831.426	627.217
330.300	15.694	830.553	626.533
331.314	15.713	830.479	626.492
332.329	15.832	829.713	626.302
333.343	15.705	829.732	625.790
334.358	15.765	829.659	625.902
335.373	15.802	828.712	625.269
336.387	15.896	828.258	625.220
337.402	15.809	828.737	625.204
338.416	15.946	827.930	625.048
339.431	15.911	827.349	624.426
340.446	15.962	827.170	624.423
341.460	15.944	826.681	623.932
342.475	16.088	826.225	624.064
343.489	16.125	825.755	623.792
344.504	16.167	825.336	623.576
345.519	16.134	824.867	623.043
346.533	16.127	824.232	622.485
347.548	15.985	824.007	621.734
348.562	15.934	823.446	621.067
349.577	15.928	822.677	620.411
350.592	16.122	821.529	620.203
351.606	15.956	821.036	619.165
352.621	15.989	820.683	618.967
353.635	16.161	820.073	619.085
354.650	16.178	819.350	618.546
355.665	16.189	818.662	618.013
356.679	16.168	818.016	617.393
357.694	16.251	817.343	617.135
358.708	16.324	816.554	616.748
359.723	16.239	816.416	616.282
360.738	16.171	815.966	615.640
361.752	16.275	815.176	615.367
362.767	16.197	814.955	614.862
363.781	16.286	814.333	614.661
364.796	16.358	813.757	614.435
365.810	16.301	813.828	614.224
366.825	16.365	813.126	613.876
367.840	16.445	812.539	613.667
368.854	16.435	812.373	613.450
369.869	16.325	812.066	612.768
370.883	16.490	811.352	612.770
371.898	16.373	811.278	612.238
372.913	16.613	810.419	612.402
373.927	16.620	809.791	611.901
374.942	16.537	809.578	611.384
375.956	16.606	809.182	611.279
376.971	16.716	808.587	611.174
377.986	16.800	807.845	610.861
379.000	16.773	807.846	610.711
380.015	16.719	806.905	609.753
381.029	16.764	806.711	609.712
382.044	16.811	805.999	609.292
383.059	16.813	805.559	608.911
384.073	16.684	804.934	607.921
385.088	16.574	804.571	607.198
386.102	16.738	803.886	607.217
387.117	16.863	803.428	607.263
388.132	16.604	803.113	606.044
389.146	16.647	802.494	605.678
390.161	16.822	801.964	605.849
391.175	16.887	801.336	605.552
392.190	16.891	800.839	605.140
393.205	16.921	800.360	604.830
394.219	16.782	800.235	604.187
395.234	16.774	799.678	603.683
396.248	16.847	798.876	603.286
397.263	16.890	798.554	603.142
398.278	16.788	798.441	602.640
399.292	16.769	798.268	602.391
400.307	16.863	797.501	602.091
401.321	16.824	797.107	601.602
402.336	16.708	796.696	600.825
403.350	16.832	796.281	600.899
404.365	16.865	795.865	600.651
405.380	16.956	795.264	600.467
406.394	17.090	794.851	600.576
407.409	17.021	794.305	599.866
408.423	17.093	793.794	599.680
409.438	17.231	793.577	599.950
410.453	17.098	793.284	599.205
411.467	17.310	792.408	599.239
412.482	17.241	792.354	598.903
413.496	17.389	792.128	599.200
414.511	17.187	791.675	598.094
415.526	17.210	791.165	597.734
416.540	17.304	790.853	597.776
417.555	17.280	790.151	597.109
418.569	17.235	789.928	596.729
419.584	17.166	789.617	596.199
420.599	17.316	789.038	596.236
421.613	107.015	1287.969	1456.279
422.628	91.713	1360.655	1456.380
