DTS Sentinel unit serial number:	SN413079Multiplexer serial number:	ORYXHardware model number:	OX4-SRSoftware version number:	ORYX F/W v4.00 Oryx Data Collector v3.7.2.0data status	okinstallation	princeton_trtdifferential loss correction	single-endedforward channel	channel 1reverse channel	N/Adate	2019/09/13time	15:54:36forward acquisition time	60.00reverse acquisition time	0.00gamma	496.2192k internal	0.2308k external	0.2308temperature offset calibration	1.0162default loss term (dB/km)	0.3790temperature slope calibration	1.0000multiplexer offset coefficient	1.0000multiplexer slope coefficient	1.0000fibre end	0.00T internal ref (°C)	34.62T ext. ref 1 (°C)	4.79T ext. ref 2 (°C)	30.50length (m)	temperature (°C)	Stokes	anti-Stokes-747.200	-80.826	-0.236	-0.080
-746.185	800.000	-0.035	-0.118
-745.171	-200.000	-0.060	0.294
-744.156	-28.077	-0.266	-0.156
-743.142	-60.255	0.186	-0.081
-742.127	-66.611	0.117	-0.047
-741.112	442.264	-0.052	0.116
-740.098	800.000	-0.048	-0.198
-739.083	-12.100	0.161	0.107
-738.069	-200.000	-0.055	0.352
-737.054	90.653	0.124	-0.141
-736.039	-106.904	-0.239	-0.054
-735.025	416.335	0.123	0.267
-734.010	-78.007	-0.152	0.053
-732.996	27.062	-0.068	-0.058
-731.981	107.430	-0.133	-0.161
-730.966	-200.000	-0.030	-0.352
-729.952	331.034	-0.067	-0.131
-728.937	-200.000	-0.003	-0.164
-727.923	-200.000	0.012	0.108
-726.908	-155.881	-0.109	0.007
-725.894	325.907	0.019	0.036
-724.879	-114.769	-0.286	0.055
-723.864	2.020	0.133	0.098
-722.850	-0.527	0.251	0.181
-721.835	-21.825	-0.047	0.029
-720.821	-28.950	0.091	0.053
-719.806	800.000	-0.035	0.148
-718.791	71.217	0.188	-0.198
-717.777	800.000	0.072	0.223
-716.762	95.631	-0.277	0.321
-715.748	-0.404	0.074	0.053
-714.733	-84.612	0.118	0.038
-713.718	543.336	-0.070	-0.169
-712.704	-166.943	-0.376	-0.016
-711.689	-80.001	0.437	-0.149
-710.675	-115.002	-0.313	0.060
-709.660	-94.415	0.099	0.027
-708.645	800.000	-0.108	-0.326
-707.631	268.310	-0.079	-0.141
-706.616	35.981	0.126	-0.113
-705.602	-200.000	-0.006	0.065
-704.587	-131.656	-0.261	0.035
-703.572	18.879	-0.049	0.039
-702.558	-140.242	0.249	0.026
-701.543	45.696	-0.229	-0.215
-700.529	69.707	0.117	-0.123
-699.514	182.814	-0.110	-0.165
-698.499	800.000	-0.113	-0.369
-697.485	-6.009	-0.234	-0.162
-696.470	-92.903	0.053	0.015
-695.456	89.077	-0.113	-0.128
-694.441	17.154	0.338	0.272
-693.426	69.488	-0.177	-0.185
-692.412	-61.718	0.210	-0.089
-691.397	800.000	0.035	-0.123
-690.383	-200.000	-0.029	-0.226
-689.368	-88.691	-0.073	-0.022
-688.354	277.817	0.073	0.132
-687.339	-200.000	-0.030	-0.200
-686.324	256.254	-0.046	0.081
-685.310	-78.517	-0.221	0.077
-684.295	-70.989	-0.327	-0.125
-683.281	-35.699	-0.091	0.050
-682.266	-67.657	0.031	0.012
-681.251	800.000	-0.032	-0.124
-680.237	29.330	-0.159	0.137
-679.222	-55.262	0.126	-0.058
-678.208	700.399	-0.113	-0.302
-677.193	-10.401	0.256	0.172
-676.178	-56.475	0.095	0.043
-675.164	-26.707	-0.123	0.073
-674.149	-69.691	0.281	0.109
-673.135	-200.000	0.004	-0.119
-672.120	800.000	0.026	-0.077
-671.105	800.000	-0.086	-0.376
-670.091	-19.067	-0.220	-0.138
-669.076	-108.145	-0.066	-0.015
-668.062	-61.782	0.132	-0.056
-667.047	-58.133	0.210	-0.093
-666.032	355.342	0.101	0.204
-665.018	-200.000	-0.010	-0.258
-664.003	-106.037	-0.166	0.038
-662.989	75.550	0.072	0.077
-661.974	32.222	-0.141	-0.123
-660.959	-95.550	0.152	0.041
-659.945	116.448	0.147	0.182
-658.930	-126.765	0.497	0.074
-657.916	-26.318	0.137	0.082
-656.901	157.531	0.301	0.422
-655.886	-156.123	0.226	0.014
-654.872	263.470	0.243	0.427
-653.857	-67.334	0.234	-0.093
-652.843	126.960	0.259	0.332
-651.828	-200.000	-0.015	0.082
-650.814	-126.036	0.110	0.017
-649.799	63.480	-0.100	0.101
-648.784	28.245	-0.170	-0.145
-647.770	110.189	0.162	-0.197
-646.755	-99.719	-0.122	-0.031
-645.741	151.574	0.173	-0.238
-644.726	-107.068	-0.058	0.013
-643.711	174.319	0.067	-0.098
-642.697	-78.324	0.093	-0.032
-641.682	-46.508	0.211	-0.105
-640.668	453.812	-0.047	-0.106
-639.653	-200.000	0.027	-0.323
-638.638	300.166	0.053	-0.099
-637.624	-71.288	0.157	-0.060
-636.609	38.193	0.208	-0.187
-635.595	690.943	-0.115	-0.304
-634.580	-29.529	-0.075	0.044
-633.565	90.123	-0.153	0.174
-632.551	-200.000	0.015	-0.300
-631.536	167.300	-0.050	-0.072
-630.522	23.324	-0.092	-0.076
-629.507	-151.762	-0.193	0.014
-628.492	-200.000	-0.040	0.342
-627.478	-200.000	0.012	-0.142
-626.463	6.218	-0.115	0.086
-625.449	-154.921	-0.141	0.009
-624.434	235.342	-0.077	-0.128
-623.419	241.724	0.172	0.291
-622.405	-200.000	-0.048	0.268
-621.390	800.000	-0.122	0.382
-620.376	638.641	0.113	-0.291
-619.361	800.000	0.074	-0.286
-618.346	-60.626	-0.350	-0.150
-617.332	22.852	-0.204	0.169
-616.317	236.512	-0.021	-0.036
-615.303	117.691	0.106	-0.132
-614.288	35.530	0.044	0.039
-613.273	-200.000	0.030	0.256
-612.259	-200.000	0.043	0.250
-611.244	51.835	0.078	-0.075
-610.230	-200.000	-0.008	0.092
-609.215	-200.000	0.049	-0.264
-608.201	34.331	0.131	-0.115
-607.186	-200.000	0.056	-0.282
-606.171	-53.685	-0.109	0.050
-605.157	-154.102	-0.622	-0.043
-604.142	67.398	-0.093	0.096
-603.128	-176.967	0.347	0.009
-602.113	-6.134	-0.080	0.055
-601.098	-200.000	0.043	0.352
-600.084	120.487	0.114	-0.143
-599.069	800.000	0.041	-0.118
-598.055	-200.000	0.030	-0.252
-597.040	-143.225	0.086	-0.008
-596.025	-155.357	-0.290	-0.019
-595.011	-200.000	0.030	-0.388
-593.996	331.295	0.143	-0.278
-592.982	19.551	-0.199	-0.162
-591.967	301.599	-0.068	-0.127
-590.952	329.836	0.085	-0.166
-589.938	678.774	-0.052	-0.137
-588.923	38.524	0.257	-0.232
-587.909	210.705	-0.211	0.335
-586.894	157.554	0.094	0.132
-585.879	-36.543	-0.095	0.052
-584.865	11.513	-0.371	0.287
-583.850	154.871	-0.066	-0.091
-582.836	99.568	-0.212	0.247
-581.821	6.059	-0.244	-0.182
-580.806	-200.000	0.021	-0.094
-579.792	0.901	-0.008	-0.006
-578.777	-200.000	-0.026	-0.122
-577.763	-171.329	0.202	-0.007
-576.748	15.537	0.347	0.275
-575.733	14.055	-0.287	0.225
-574.719	-40.036	0.313	-0.165
-573.704	800.000	-0.100	-0.286
-572.690	-200.000	0.023	-0.210
-571.675	187.585	0.120	0.180
-570.661	19.549	0.233	-0.189
-569.646	85.820	0.064	-0.071
-568.631	551.844	-0.089	-0.216
-567.617	-128.391	-0.514	-0.074
-566.602	-144.719	0.073	0.007
-565.588	86.679	0.262	0.292
-564.573	-134.040	-0.131	-0.016
-563.558	-64.091	0.189	-0.078
-562.544	1.718	0.227	0.165
-561.529	-19.975	0.146	0.091
-560.515	-200.000	-0.058	0.296
-559.500	390.253	-0.170	-0.355
-558.485	800.000	-0.103	-0.290
-557.471	800.000	0.036	-0.159
-556.456	293.455	0.029	-0.054
-555.442	539.644	0.176	-0.422
-554.427	-62.086	-0.036	-0.015
-553.412	364.470	-0.153	-0.312
-552.398	-92.132	0.235	-0.067
-551.383	-23.597	-0.203	-0.123
-550.369	-120.863	-0.320	0.054
-549.354	-143.739	0.113	0.011
-548.339	-107.710	0.161	0.035
-547.325	800.000	0.073	-0.302
-546.310	-2.913	-0.065	-0.046
-545.296	-0.728	0.209	0.149
-544.281	-200.000	-0.026	-0.213
-543.266	-16.487	0.275	-0.176
-542.252	105.691	-0.164	-0.196
-541.237	39.621	0.246	0.223
-540.223	73.293	0.149	0.158
-539.208	-69.334	0.435	-0.168
-538.193	32.843	0.146	0.127
-537.179	760.978	-0.035	-0.096
-536.164	472.467	0.132	-0.299
-535.150	125.773	-0.150	0.191
-534.135	132.757	-0.168	-0.219
-533.121	-56.606	-0.333	0.149
-532.106	-200.000	-0.019	0.161
-531.091	495.276	-0.074	0.172
-530.077	-70.515	-0.237	-0.090
-529.062	70.045	-0.099	0.103
-528.048	-63.640	0.176	-0.073
-527.033	-76.803	-0.144	-0.051
-526.018	13.938	-0.148	-0.116
-525.004	236.236	0.152	0.253
-523.989	61.751	0.183	0.183
-522.975	116.059	-0.073	0.090
-521.960	458.796	-0.044	0.099
-520.945	800.000	-0.068	-0.249
-519.931	800.000	0.095	0.318
-518.916	-112.111	-0.120	-0.024
-517.902	-78.662	-0.163	-0.056
-516.887	-18.266	-0.428	-0.269
-515.872	-51.887	-0.281	0.132
-514.858	-200.000	-0.018	0.195
-513.843	405.498	-0.214	0.454
-512.829	-46.904	-0.313	0.154
-511.814	-140.214	-0.136	-0.014
-510.799	39.769	-0.054	-0.049
-509.785	-200.000	0.025	-0.116
-508.770	-200.000	-0.007	0.066
-507.756	69.371	0.201	-0.208
-506.741	-134.006	-0.070	-0.009
-505.726	-200.000	0.076	-0.359
-504.712	800.000	0.035	-0.138
-503.697	-26.119	-0.186	-0.110
-502.683	800.000	0.034	0.106
-501.668	-12.160	-0.057	0.038
-500.653	-111.480	-0.293	-0.060
-499.639	-200.000	0.019	0.151
-498.624	611.523	0.056	0.140
-497.610	148.210	0.106	-0.145
-496.595	800.000	-0.070	-0.307
-495.581	-200.000	-0.002	0.100
-494.566	-92.911	-0.109	0.031
-493.551	98.632	-0.112	-0.130
-492.537	-63.787	0.250	-0.103
-491.522	800.000	-0.077	0.236
-490.508	50.560	-0.176	-0.168
-489.493	800.000	-0.074	0.242
-488.478	-27.416	-0.225	-0.132
-487.464	-3.993	0.202	0.141
-486.449	543.683	-0.125	-0.301
-485.435	142.102	-0.344	0.459
-484.420	-26.265	0.075	-0.044
-483.405	-68.218	0.212	0.083
-482.391	-9.915	-0.139	-0.093
-481.376	-112.177	0.102	-0.021
-480.362	-160.371	-0.323	0.017
-479.347	-112.437	0.089	-0.018
-478.332	308.908	0.247	-0.463
-477.318	-97.454	-0.251	0.066
-476.303	-71.826	-0.086	-0.032
-475.289	800.000	0.044	-0.176
-474.274	-7.025	0.123	-0.084
-473.259	395.215	-0.140	0.294
-472.245	21.763	-0.125	-0.102
-471.230	167.762	0.153	0.219
-470.216	800.000	-0.057	0.182
-469.201	-200.000	-0.040	0.323
-468.186	-200.000	0.005	0.072
-467.172	-137.470	-0.313	-0.036
-466.157	61.469	-0.293	0.293
-465.143	800.000	-0.064	0.264
-464.128	-28.235	0.202	0.117
-463.113	115.174	0.152	0.186
-462.099	288.531	-0.046	0.083
-461.084	409.967	0.088	-0.187
-460.070	-90.633	-0.076	0.022
-459.055	800.000	0.040	0.131
-458.040	-164.920	-0.311	-0.014
-457.026	762.164	0.104	0.282
-456.011	-122.755	-0.342	-0.056
-454.997	-170.441	0.492	0.017
-453.982	-7.810	-0.134	-0.091
-452.968	-180.915	-0.216	0.004
-451.953	-42.056	-0.172	-0.089
-450.938	-200.000	-0.008	-0.040
-449.924	-200.000	0.003	-0.042
-448.909	113.270	0.112	-0.136
-447.895	-17.913	0.068	0.043
-446.880	80.036	-0.248	-0.268
-445.865	-104.420	0.406	0.094
-444.851	300.657	-0.200	0.371
-443.836	245.482	0.078	0.132
-442.822	72.977	0.187	0.196
-441.807	-100.831	-0.281	-0.069
-440.792	-145.819	-0.268	0.024
-439.778	-155.376	-0.226	-0.015
-438.763	-119.871	0.422	0.073
-437.749	-144.577	0.078	0.007
-436.734	-94.792	0.278	-0.076
-435.719	63.339	-0.209	0.210
-434.705	-106.867	-0.439	-0.098
-433.690	0.199	0.273	-0.196
-432.676	-91.740	-0.057	0.016
-431.661	800.000	-0.035	-0.147
-430.646	563.549	0.051	-0.125
-429.632	-200.000	0.048	0.230
-428.617	-80.964	0.131	0.044
-427.603	328.648	0.209	-0.404
-426.588	553.460	-0.120	-0.290
-425.573	84.034	0.308	-0.338
-424.559	-173.864	-0.087	-0.003
-423.544	-114.550	0.359	-0.069
-422.530	800.000	-0.061	0.192
-421.515	-38.874	-0.354	0.187
-420.500	-76.934	0.166	0.058
-419.486	67.589	-0.309	-0.316
-418.471	134.300	-0.045	0.058
-417.457	311.679	0.246	0.463
-416.442	43.712	-0.402	-0.370
-415.428	-84.647	-0.109	-0.034
-414.413	303.641	0.136	-0.252
-413.398	25.976	0.077	-0.065
-412.384	5.830	0.261	0.194
-411.369	31.887	-0.103	0.089
-410.355	172.974	0.027	-0.039
-409.340	39.301	0.204	0.183
-408.325	43.109	0.165	-0.151
-407.311	800.000	-0.037	0.146
-406.296	169.230	-0.072	-0.103
-405.282	582.339	-0.093	0.230
-404.267	310.707	-0.048	-0.089
-403.252	124.109	0.061	0.077
-402.238	-200.000	-0.004	-0.313
-401.223	-200.000	0.028	-0.221
-400.209	48.723	-0.128	0.120
-399.194	-166.919	0.440	0.018
-398.179	502.976	0.038	-0.089
-397.165	46.222	0.029	-0.027
-396.150	45.995	0.233	0.216
-395.136	-135.162	0.247	0.030
-394.121	18.367	-0.028	0.023
-393.106	-64.033	-0.092	0.038
-392.092	-116.972	-0.138	-0.025
-391.077	800.000	-0.043	-0.145
-390.063	-112.772	0.152	-0.030
-389.048	87.476	-0.084	0.093
-388.033	-30.486	0.011	0.006
-387.019	-36.435	0.091	0.049
-386.004	-200.000	0.053	0.251
-384.990	506.358	0.042	-0.097
-383.975	-200.000	-0.012	0.143
-382.960	446.769	0.094	0.207
-381.946	223.048	0.222	-0.358
-380.931	800.000	0.079	0.271
-379.917	217.819	-0.062	0.099
-378.902	278.797	-0.132	0.237
-377.888	487.715	0.081	-0.184
-376.873	-5.445	-0.198	0.136
-375.858	20.208	-0.255	-0.206
-374.844	11.765	0.185	-0.142
-373.829	-50.779	-0.123	0.058
-372.815	58.903	0.119	0.117
-371.800	-63.350	0.171	-0.071
-370.785	800.000	-0.072	0.269
-369.771	-200.000	-0.012	0.112
-368.756	32.421	0.178	-0.154
-367.742	731.785	0.072	-0.193
-366.727	379.385	0.073	-0.149
-365.712	-64.322	-0.210	0.085
-364.698	49.381	0.064	0.061
-363.683	440.047	-0.054	-0.117
-362.669	-93.863	0.413	0.114
-361.654	-102.909	-0.293	-0.070
-360.639	800.000	0.038	-0.146
-359.625	-200.000	0.065	-0.312
-358.610	-32.209	-0.333	-0.186
-357.596	-106.551	0.085	-0.019
-356.581	-25.344	0.115	-0.068
-355.566	-1.799	0.194	-0.137
-354.552	709.413	0.134	0.354
-353.537	800.000	-0.079	-0.257
-352.523	-55.056	0.257	-0.116
-351.508	-184.459	-0.241	0.004
-350.493	-200.000	-0.108	0.476
-349.479	18.297	-0.202	-0.161
-348.464	107.746	-0.249	-0.297
-347.450	44.811	-0.308	-0.284
-346.435	-120.297	0.245	0.042
-345.420	800.000	-0.086	-0.315
-344.406	215.458	0.221	-0.351
-343.391	-200.000	-0.000	-0.019
-342.377	-200.000	-0.001	-0.061
-341.362	-132.830	-0.066	0.008
-340.348	-65.879	0.247	0.099
-339.333	-176.445	-0.181	0.005
-338.318	800.000	-0.028	0.085
-337.304	-137.165	-0.350	0.040
-336.289	-83.617	-0.173	-0.055
-335.275	27.337	0.210	0.177
-334.260	-20.974	0.086	0.053
-333.245	-135.451	0.171	-0.020
-332.231	-200.000	0.005	-0.297
-331.216	-37.571	0.241	0.128
-330.202	-5.197	-0.224	0.154
-329.187	232.875	0.120	-0.197
-328.172	-200.000	-0.011	0.221
-327.158	-92.933	0.062	-0.017
-326.143	545.781	0.086	0.205
-325.129	-200.000	0.017	-0.215
-324.114	-58.095	0.238	0.104
-323.099	800.000	0.101	0.285
-322.085	-161.267	-0.175	-0.009
-321.070	-153.117	0.257	-0.018
-320.056	463.597	-0.138	0.308
-319.041	800.000	0.094	-0.325
-318.026	-99.828	0.236	0.059
-317.012	800.000	0.003	0.011
-315.997	-200.000	-0.019	0.256
-314.983	-200.000	0.025	0.176
-313.968	-109.393	0.184	0.039
-312.953	229.427	-0.085	-0.138
-311.939	-89.827	0.306	-0.089
-310.924	218.566	0.131	0.208
-309.910	95.405	0.092	-0.105
-308.895	-146.226	0.363	-0.032
-307.880	-78.566	0.448	0.153
-306.866	133.105	0.084	-0.109
-305.851	-15.912	-0.187	-0.119
-304.837	-190.488	0.185	0.002
-303.822	-200.000	0.001	-0.323
-302.807	157.210	-0.050	0.069
-301.793	-175.369	0.173	0.005
-300.778	-114.012	0.186	-0.036
-299.764	-99.562	-0.091	0.023
-298.749	30.688	0.049	-0.042
-297.735	538.626	-0.034	-0.082
-296.720	250.049	0.089	0.150
-295.705	800.000	0.090	0.380
-294.691	745.013	-0.167	0.450
-293.676	-152.833	-0.159	0.011
-292.662	-134.383	0.113	-0.014
-291.647	-93.790	0.163	0.045
-290.632	227.408	-0.058	-0.093
-289.618	-200.000	-0.011	-0.087
-288.603	-188.853	-0.165	0.002
-287.589	-29.657	-0.366	0.209
-286.574	295.876	0.052	0.095
-285.559	-163.187	0.087	-0.004
-284.545	-200.000	0.002	-0.088
-283.530	-200.000	0.021	0.243
-282.516	176.664	0.152	0.221
-281.501	-157.826	0.198	-0.012
-280.486	-96.181	-0.275	0.073
-279.472	-200.000	0.009	0.166
-278.457	117.650	0.192	0.236
-277.443	37.378	0.171	0.152
-276.428	651.032	0.026	0.066
-275.413	44.951	0.219	-0.202
-274.399	-45.242	-0.131	-0.065
-273.384	-200.000	0.160	-0.000
-272.370	-92.135	0.073	0.021
-271.355	800.000	-0.057	-0.164
-270.340	-96.543	0.178	-0.047
-269.326	-55.845	-0.415	0.185
-268.311	-27.623	-0.285	0.165
-267.297	-200.000	0.007	0.302
-266.282	-200.000	0.052	0.275
-265.267	-124.290	-0.411	0.064
-264.253	119.471	0.075	0.093
-263.238	5.938	-0.060	0.045
-262.224	629.469	0.076	0.191
-261.209	-200.000	0.024	0.326
-260.195	-200.000	0.011	0.146
-259.180	109.834	0.085	-0.102
-258.165	-200.000	-0.055	0.261
-257.151	-35.315	-0.162	0.088
-256.136	-200.000	-0.019	0.132
-255.122	534.463	0.052	-0.123
-254.107	-109.687	-0.188	0.040
-253.092	-59.958	0.161	0.069
-252.078	-154.789	0.136	-0.009
-251.063	11.170	0.183	0.139
-250.049	-21.261	0.076	-0.046
-249.034	107.497	0.211	-0.250
-248.019	-16.260	0.125	0.079
-247.005	238.698	0.134	0.222
-245.990	19.347	0.136	-0.109
-244.976	50.779	-0.218	0.205
-243.961	145.189	-0.196	-0.262
-242.946	177.806	-0.093	-0.136
-241.932	-104.902	-0.181	0.041
-240.917	15.137	-0.226	0.176
-239.903	600.813	0.200	0.494
-238.888	395.034	0.011	0.024
-237.873	-139.737	-0.337	0.036
-236.859	205.715	-0.111	-0.171
-235.844	-112.243	-0.071	-0.014
-234.830	-166.212	-0.265	-0.011
-233.815	126.336	-0.100	0.126
-232.800	-200.000	-0.021	-0.286
-231.786	-200.000	-0.005	-0.161
-230.771	-36.444	-0.144	0.077
-229.757	70.460	-0.078	0.081
-228.742	11.122	0.175	0.133
-227.727	437.482	-0.065	-0.141
-226.713	-200.000	-0.023	-0.102
-225.698	582.452	-0.077	0.188
-224.684	135.734	-0.306	-0.397
-223.669	-46.160	-0.128	-0.063
-222.655	-200.000	-0.022	0.104
-221.640	-185.215	-0.091	0.001
-220.625	-135.804	-0.168	0.020
-219.611	439.514	-0.058	0.126
-218.596	28.857	-0.095	0.080
-217.582	438.750	-0.118	0.256
-216.567	-200.000	0.020	0.091
-215.552	-110.955	-0.336	0.069
-214.538	661.376	-0.041	-0.105
-213.523	800.000	0.133	-0.514
-212.509	-67.292	-0.514	0.201
-211.494	-71.129	-0.276	-0.103
-210.479	195.024	0.191	0.288
-209.465	-200.000	0.012	-0.125
-208.450	153.055	0.212	0.288
-207.436	-146.520	0.155	-0.013
-206.421	241.039	0.218	-0.362
-205.406	-71.914	-0.310	0.115
-204.392	194.302	-0.089	-0.134
-203.377	-97.342	0.123	0.032
-202.363	800.000	-0.047	0.194
-201.348	41.167	-0.142	-0.127
-200.333	301.999	-0.133	-0.246
-199.319	137.152	0.036	-0.047
-198.304	-118.407	0.031	0.005
-197.290	708.530	0.064	0.168
-196.275	-28.640	0.308	0.176
-195.260	-67.859	0.274	0.106
-194.246	-200.000	0.007	-0.117
-193.231	-5.903	0.165	0.113
-192.217	17.723	0.273	0.216
-191.202	800.000	0.078	0.246
-190.187	-13.626	0.242	-0.156
-189.173	800.000	-0.020	0.065
-188.158	-147.321	0.107	0.009
-187.144	-137.448	-0.102	-0.012
-186.129	43.120	-0.103	-0.093
-185.114	800.000	0.055	-0.180
-184.100	800.000	0.041	-0.162
-183.085	-173.754	0.058	0.002
-182.071	-200.000	0.048	0.248
-181.056	-62.461	-0.179	0.074
-180.042	-2.901	0.189	-0.131
-179.027	-10.895	0.388	0.255
-178.012	35.408	0.301	-0.262
-176.998	32.831	0.241	-0.208
-175.983	-200.000	-0.012	0.561
-174.969	800.000	-0.020	-0.080
-173.954	-200.000	0.033	-0.310
-172.939	800.000	-0.045	-0.139
-171.925	254.487	0.038	-0.064
-170.910	117.461	0.232	0.283
-169.896	137.812	0.211	0.275
-168.881	-99.895	0.367	0.091
-167.866	25.452	-0.061	0.050
-166.852	204.269	-0.050	0.077
-165.837	519.022	-0.090	-0.209
-164.823	-117.703	-0.273	0.049
-163.808	-165.933	0.219	0.009
-162.793	-200.000	-0.032	0.214
-161.779	-200.000	-0.006	0.174
-160.764	130.230	-0.218	-0.277
-159.750	706.590	0.020	-0.051
-158.735	-13.292	-0.061	-0.039
-157.720	37.158	0.210	0.184
-156.706	122.471	0.078	0.096
-155.691	-125.293	-0.103	0.016
-154.677	50.788	-0.341	-0.321
-153.662	-11.588	0.219	-0.143
-152.647	-88.231	0.224	-0.067
-151.633	99.944	0.114	-0.132
-150.618	-138.147	0.244	-0.027
-149.604	17.737	-0.224	0.177
-148.589	-200.000	0.007	-0.083
-147.574	128.836	0.078	-0.098
-146.560	466.432	-0.077	-0.171
-145.545	-80.200	0.278	0.092
-144.531	-56.978	0.389	-0.170
-143.516	800.000	-0.049	0.138
-142.502	190.903	-0.087	0.130
-141.487	203.911	-0.126	-0.193
-140.472	-33.907	-0.157	0.086
-139.458	-200.000	0.036	-0.174
-138.443	-161.723	-0.292	0.015
-137.429	-119.416	-0.130	0.022
-136.414	344.123	-0.041	0.081
-135.399	102.616	0.064	0.074
-134.385	-72.287	-0.147	0.054
-133.370	166.120	-0.047	-0.066
-132.356	249.130	0.094	0.158
-131.341	80.782	0.153	-0.164
-130.326	349.676	0.056	-0.110
-129.312	-200.000	0.038	0.356
-128.297	800.000	0.045	-0.156
-127.283	-45.822	-0.469	-0.230
-126.268	21.389	-0.134	0.108
-125.253	-118.449	0.239	-0.042
-124.239	351.562	-0.075	-0.147
-123.224	-80.777	0.095	0.031
-122.210	7.155	0.263	0.195
-121.195	-26.297	-0.102	0.059
-120.180	-18.179	0.275	0.170
-119.166	269.894	0.160	0.280
-118.151	-158.325	-0.153	-0.009
-117.137	-200.000	0.015	0.347
-116.122	-200.000	-0.025	-0.488
-115.107	-47.450	-0.132	-0.064
-114.093	-64.295	0.124	-0.050
-113.078	-44.083	-0.557	0.277
-112.064	81.342	-0.234	0.250
-111.049	-200.000	0.005	-0.194
-110.034	-67.643	0.075	-0.029
-109.020	-1.759	0.284	-0.198
-108.005	-200.000	0.011	-0.164
-106.991	800.000	0.055	0.152
-105.976	488.257	0.114	0.259
-104.962	340.777	0.053	-0.102
-103.947	-56.342	-0.135	0.060
-102.932	88.668	0.150	-0.165
-101.918	79.619	0.117	-0.124
-100.903	800.000	0.066	-0.218
-99.889	800.000	0.037	0.146
-98.874	143.994	-0.067	-0.089
-97.859	-191.699	-0.204	-0.002
-96.845	800.000	0.020	0.081
-95.830	341.151	-0.062	0.121
-94.816	800.000	-0.032	0.127
-93.801	-95.647	-0.540	0.143
-92.786	33.665	-0.222	-0.191
-91.772	-73.191	-0.250	0.091
-90.757	290.685	0.172	-0.311
-89.743	16.265	0.045	-0.035
-88.728	800.000	-0.042	0.124
-87.713	157.046	0.108	0.148
-86.699	621.738	0.058	-0.146
-85.684	366.664	0.010	-0.020
-84.670	126.062	0.179	-0.224
-83.655	-97.005	-0.339	-0.088
-82.640	-9.215	0.160	-0.106
-81.626	598.061	-0.062	-0.153
-80.611	1.776	0.039	-0.028
-79.597	-200.000	-0.025	-0.148
-78.582	-176.075	-0.267	-0.007
-77.567	376.832	-0.154	0.312
-76.553	-177.007	0.257	-0.006
-75.538	37.491	-0.053	0.046
-74.524	-18.741	0.202	0.125
-73.509	-200.000	-0.011	0.295
-72.494	0.134	0.269	-0.190
-71.480	330.544	-0.161	0.306
-70.465	111.142	-0.095	0.114
-69.451	-87.878	-0.317	0.094
-68.436	725.230	-0.124	-0.326
-67.422	157.364	0.033	-0.045
-66.407	-49.817	-0.215	0.101
-65.392	372.085	-0.061	-0.122
-64.378	-173.914	-0.325	0.009
-63.363	-96.624	0.222	0.058
-62.349	0.301	-0.201	0.142
-61.334	56.034	-0.949	-0.911
-60.319	-22.262	0.376	0.226
-59.305	274.732	-0.316	-0.555
-58.290	591.024	0.407	0.994
-57.276	531.351	0.775	1.813
-56.261	-200.000	98.031	579.865
-55.246	639.048	1395.383	3511.189
-54.232	186.122	2607.469	3836.881
-53.217	122.208	2180.045	2693.714
-52.203	46.505	1631.038	1497.066
-51.188	38.119	1365.966	1202.362
-50.173	34.763	1323.469	1144.845
-49.159	56.841	1372.878	1322.737
-48.144	61.249	1390.771	1366.746
-47.130	38.412	1344.806	1185.328
-46.115	34.852	1326.452	1147.779
-45.100	34.677	1321.903	1142.746
-44.086	34.548	1319.589	1139.930
-43.071	34.443	1317.744	1137.665
-42.057	34.577	1314.939	1135.996
-41.042	34.505	1313.790	1134.530
-40.027	34.539	1312.090	1133.221
-39.013	34.605	1310.273	1131.999
-37.998	34.654	1308.018	1130.296
-36.984	34.559	1306.336	1128.235
-35.969	34.618	1304.793	1127.203
-34.954	34.610	1302.967	1125.535
-33.940	34.662	1301.805	1124.796
-32.925	34.763	1300.740	1124.425
-31.911	34.740	1298.910	1122.662
-30.896	34.813	1297.491	1121.821
-29.881	34.666	1296.410	1119.976
-28.867	34.691	1295.023	1118.879
-27.852	34.632	1293.442	1117.129
-26.838	34.796	1291.791	1116.613
-25.823	34.787	1290.193	1115.134
-24.809	34.694	1289.075	1113.582
-23.794	34.796	1287.714	1112.956
-22.779	34.736	1286.640	1111.635
-21.765	34.699	1285.029	1109.986
-20.750	34.687	1283.970	1108.959
-19.736	34.576	1283.094	1107.511
-18.721	34.519	1281.743	1105.972
-17.706	34.544	1280.560	1105.050
-16.692	34.615	1279.254	1104.294
-15.677	34.573	1277.921	1102.854
-14.663	34.609	1276.847	1102.091
-13.648	34.565	1275.995	1101.061
-12.633	34.469	1275.221	1099.796
-11.619	34.484	1274.288	1099.029
-10.604	34.592	1273.179	1098.652
-9.590	34.606	1271.785	1097.486
-8.575	34.644	1270.924	1096.918
-7.560	34.496	1270.700	1095.831
-6.546	34.542	1269.280	1094.825
-5.531	34.450	1268.607	1093.677
-4.517	34.528	1267.664	1093.267
-3.502	34.546	1267.084	1092.827
-2.487	34.555	1266.021	1091.917
-1.473	34.678	1261.521	1088.697
-0.458	33.234	1246.906	1067.893
0.556	31.323	1227.606	1025.644
1.571	27.008	1231.453	1004.944
2.586	25.693	1245.211	1008.718
3.600	24.042	1233.227	989.747
4.615	18.257	1160.199	900.703
5.629	9.434	1084.282	798.107
6.644	5.131	1063.496	761.770
7.659	4.811	1060.769	758.192
8.673	4.613	1059.526	756.276
9.688	4.606	1058.087	755.148
10.702	5.303	1057.245	757.860
11.717	10.990	1065.660	791.559
12.731	19.450	1076.610	841.034
13.746	22.333	1079.814	857.537
14.761	21.917	1078.516	854.405
15.775	20.858	1076.755	847.781
16.790	19.808	1075.126	841.322
17.804	19.231	1073.294	837.007
18.819	18.972	1071.737	834.463
19.834	18.767	1071.395	833.131
20.848	18.631	1070.388	831.614
21.863	18.516	1069.568	830.349
22.877	18.236	1068.872	828.379
23.892	18.225	1068.410	827.893
24.907	18.265	1067.528	827.330
25.921	18.265	1066.130	826.174
26.936	18.287	1065.222	825.504
27.950	18.265	1063.737	824.174
28.965	18.446	1062.499	824.009
29.980	18.540	1060.883	823.134
30.994	18.663	1059.893	822.883
32.009	18.461	1059.591	821.610
33.023	18.479	1058.497	820.773
34.038	18.535	1057.087	819.874
35.053	18.266	1056.509	818.070
36.067	18.344	1055.284	817.424
37.082	18.522	1054.047	817.240
38.096	18.553	1053.443	816.846
39.111	18.499	1053.193	816.326
40.126	18.369	1051.299	814.167
41.140	18.234	1049.747	812.250
42.155	17.934	1049.173	810.309
43.169	17.882	1047.878	808.994
44.184	17.979	1046.716	808.485
45.199	18.086	1045.477	807.961
46.213	18.077	1045.286	807.696
47.228	18.366	1044.230	808.175
48.242	18.345	1043.353	807.325
49.257	18.426	1041.806	806.438
50.271	18.448	1041.032	805.872
51.286	18.403	1040.704	805.337
52.301	18.381	1039.368	804.127
53.315	18.342	1038.178	802.953
54.330	18.101	1037.456	801.195
55.344	18.145	1036.361	800.481
56.359	18.131	1035.647	799.796
57.374	18.096	1034.760	798.874
58.388	18.077	1033.371	797.642
59.403	17.947	1032.680	796.434
60.417	17.848	1032.349	795.646
61.432	17.959	1031.410	795.371
62.447	17.866	1030.271	793.986
63.461	17.861	1029.620	793.393
64.476	17.719	1028.708	791.958
65.490	17.849	1027.864	791.847
66.505	17.893	1027.316	791.556
67.520	17.864	1026.534	790.749
68.534	17.878	1025.850	790.219
69.549	17.765	1025.288	789.190
70.563	17.859	1024.102	788.642
71.578	17.719	1023.054	787.120
72.593	17.606	1022.435	786.053
73.607	17.790	1021.641	786.223
74.622	17.647	1021.468	785.359
75.636	17.611	1020.685	784.522
76.651	17.768	1019.566	784.315
77.666	17.695	1019.549	783.898
78.680	17.780	1019.028	783.815
79.695	17.801	1018.109	783.136
80.709	17.851	1017.572	782.886
81.724	18.059	1016.938	783.280
82.739	18.132	1016.109	782.906
83.753	18.347	1016.064	783.789
84.768	18.660	1014.938	784.280
85.782	18.715	1013.926	783.679
86.797	18.501	1013.598	782.380
87.812	18.401	1012.292	780.845
88.826	18.450	1011.324	780.256
89.841	18.514	1010.495	779.836
90.855	18.580	1009.777	779.512
91.870	18.720	1008.418	779.032
92.884	18.533	1007.839	777.665
93.899	18.612	1007.032	777.333
94.914	18.774	1005.837	777.075
95.928	18.637	1005.718	776.294
96.943	18.617	1004.323	775.061
97.957	18.461	1003.882	773.946
98.972	18.310	1003.074	772.573
99.987	18.604	1001.727	772.789
101.001	18.562	1000.775	771.801
102.016	18.612	1000.025	771.377
103.030	18.579	999.545	770.791
104.045	18.544	998.446	769.720
105.060	18.507	998.124	769.234
106.074	18.310	996.605	767.114
107.089	17.996	995.418	764.727
108.103	17.941	994.903	764.019
109.118	17.986	993.249	762.883
110.133	17.905	992.651	761.992
111.147	18.020	991.630	761.653
112.162	17.858	991.345	760.645
113.176	18.048	991.006	761.166
114.191	18.108	990.006	760.597
115.206	18.167	989.150	760.136
116.220	17.986	988.458	758.731
117.235	18.065	987.420	758.217
118.249	18.032	986.290	757.139
119.264	17.911	985.730	756.103
120.279	17.796	984.988	754.958
121.293	17.863	983.895	754.352
122.308	17.751	983.101	753.181
123.322	17.796	981.456	752.052
124.337	17.743	980.673	751.153
125.352	17.861	979.487	750.696
126.366	17.823	978.523	749.725
127.381	17.870	977.431	749.029
128.395	17.901	977.028	748.787
129.410	17.925	976.279	748.255
130.424	18.007	975.047	747.602
131.439	18.144	974.603	747.795
132.454	18.197	974.217	747.662
133.468	18.206	973.232	746.880
134.483	18.151	972.441	745.968
135.497	18.141	971.687	745.282
136.512	18.192	970.722	744.696
137.527	18.106	969.880	743.609
138.541	18.154	969.174	743.212
139.556	18.283	968.566	743.241
140.570	18.400	968.161	743.371
141.585	18.540	967.463	743.378
142.600	18.566	966.284	742.519
143.614	18.665	965.372	742.180
144.629	18.717	964.990	742.043
145.643	18.669	963.713	740.791
146.658	18.478	962.753	739.161
147.673	18.275	961.883	737.554
148.687	18.262	960.765	736.576
149.702	18.083	960.179	735.291
150.716	18.205	959.018	734.860
151.731	18.197	958.618	734.457
152.746	18.355	957.556	734.253
153.760	18.443	956.780	733.971
154.775	18.358	956.857	733.602
155.789	18.397	956.268	733.252
156.804	18.399	955.688	732.750
157.819	18.425	954.952	732.233
158.833	18.656	954.075	732.483
159.848	18.840	953.171	732.507
160.862	18.500	952.758	730.676
161.877	18.440	950.863	728.904
162.892	18.274	949.728	727.263
163.906	18.169	948.678	725.948
164.921	18.126	948.335	725.439
165.935	18.268	947.525	725.360
166.950	18.412	946.625	725.216
167.964	18.331	945.584	724.012
168.979	18.295	944.852	723.236
169.994	18.306	943.656	722.303
171.008	18.325	943.618	722.289
172.023	18.591	942.491	722.481
173.037	18.637	942.489	722.612
174.052	18.599	940.938	721.198
175.067	18.328	940.631	719.758
176.081	18.195	939.677	718.406
177.096	18.074	939.417	717.639
178.110	18.213	938.872	717.740
179.125	18.333	938.268	717.719
180.140	18.380	937.843	717.526
181.154	18.449	937.422	717.432
182.169	18.662	936.939	717.887
183.183	18.691	936.510	717.618
184.198	18.618	935.387	716.387
185.213	18.689	934.847	716.207
186.227	18.743	934.370	716.002
187.242	18.806	933.894	715.837
188.256	19.026	933.035	716.031
189.271	18.887	932.346	714.860
190.286	18.574	931.486	712.837
191.300	18.005	930.842	709.918
192.315	18.041	929.675	709.114
193.329	18.176	929.557	709.523
194.344	18.349	928.544	709.402
195.359	18.452	928.183	709.490
196.373	18.602	927.606	709.607
197.388	18.749	927.262	709.889
198.402	18.827	927.041	709.981
199.417	19.032	926.652	710.467
200.432	19.120	925.876	710.171
201.446	19.224	925.323	710.113
202.461	19.329	924.787	710.070
203.475	19.087	924.434	708.741
204.490	19.026	923.298	707.558
205.504	18.831	922.546	706.117
206.519	18.918	921.279	705.440
207.534	18.790	920.584	704.323
208.548	18.838	919.834	703.881
209.563	18.810	919.818	703.693
210.577	18.718	919.511	703.020
211.592	19.156	918.467	703.951
212.607	19.283	917.467	703.640
213.621	19.047	917.136	702.360
214.636	19.088	916.170	701.725
215.650	19.028	915.821	701.152
216.665	19.190	915.301	701.350
217.680	19.247	914.632	701.007
218.694	19.307	913.817	700.566
219.709	19.250	913.224	699.816
220.723	19.156	912.662	698.943
221.738	19.171	911.751	698.244
222.753	19.148	911.314	697.755
223.767	19.207	911.000	697.691
224.782	19.202	910.705	697.386
225.796	19.312	909.999	697.228
226.811	19.257	908.950	696.139
227.826	19.160	907.982	694.944
228.840	19.242	907.191	694.607
229.855	19.108	906.601	693.553
230.869	19.253	905.620	693.329
231.884	19.014	904.975	691.812
232.899	18.914	904.266	690.806
233.913	18.939	903.691	690.406
234.928	19.096	902.792	690.286
235.942	18.863	902.349	688.955
236.957	18.980	901.630	688.811
237.972	18.912	901.056	688.040
238.986	18.885	900.947	687.788
240.001	18.899	900.045	687.094
241.015	19.117	899.236	687.289
242.030	19.134	898.907	687.041
243.045	19.271	898.378	687.125
244.059	19.078	898.130	686.105
245.074	19.268	897.055	685.979
246.088	19.309	896.459	685.624
247.103	19.569	896.001	686.246
248.117	19.473	895.879	685.711
249.132	19.803	895.303	686.520
250.147	20.001	894.718	686.797
251.161	20.032	893.792	686.150
252.176	20.052	893.174	685.691
253.190	19.951	892.860	684.990
254.205	20.061	892.306	684.940
255.220	19.960	891.471	683.840
256.234	19.818	890.900	682.779
257.249	20.150	889.977	683.321
258.263	19.939	889.370	681.963
259.278	19.954	888.577	681.355
260.293	20.195	888.048	681.837
261.307	20.187	887.501	681.325
262.322	20.177	886.913	680.774
263.336	20.197	886.060	680.136
264.351	20.084	885.726	679.378
265.366	20.083	885.110	678.839
266.380	20.083	884.409	678.242
267.395	20.149	883.194	677.508
268.409	20.109	882.575	676.817
269.424	20.151	881.642	676.208
270.439	20.093	881.004	675.433
271.453	19.987	880.646	674.686
272.468	19.862	880.113	673.729
273.482	19.907	879.309	673.231
274.497	20.021	878.656	673.115
275.512	20.110	878.010	672.904
276.526	19.981	877.724	672.124
277.541	20.020	877.466	672.018
278.555	20.133	876.812	671.896
279.570	20.319	876.638	672.423
280.585	20.251	875.545	671.265
281.599	20.228	874.283	670.146
282.614	20.050	873.754	668.997
283.628	20.153	873.286	668.975
284.643	20.109	872.817	668.387
285.657	20.174	872.241	668.140
286.672	20.171	871.438	667.453
287.687	20.130	870.624	666.611
288.701	20.309	870.119	666.853
289.716	20.298	869.907	666.591
290.730	20.208	869.047	665.528
291.745	20.285	868.379	665.253
292.760	20.445	867.903	665.440
293.774	20.494	867.432	665.209
294.789	20.302	866.900	664.007
295.803	20.216	866.142	663.038
296.818	20.226	865.400	662.450
297.833	20.173	864.413	661.434
298.847	20.139	864.252	661.122
299.862	20.307	863.791	661.352
300.876	20.456	863.105	661.337
301.891	20.532	862.840	661.364
302.906	20.515	862.037	660.627
303.920	20.597	862.004	660.853
304.935	20.846	861.244	661.158
305.949	20.687	860.639	660.032
306.964	20.501	860.157	658.898
307.979	20.552	859.339	658.408
308.993	20.718	858.886	658.629
310.008	20.657	858.316	657.901
311.022	20.848	857.279	657.770
312.037	20.507	856.979	656.197
313.052	20.414	855.839	654.915
314.066	20.262	855.537	654.051
315.081	20.348	855.008	653.911
316.095	20.234	854.441	652.991
317.110	20.320	853.842	652.799
318.125	20.209	853.599	652.141
319.139	20.328	853.131	652.173
320.154	20.333	852.331	651.521
321.168	20.606	851.301	651.699
322.183	20.567	850.985	651.252
323.197	20.516	851.110	651.100
324.212	20.357	850.410	649.910
325.227	20.468	849.483	649.563
326.241	20.506	848.964	649.248
327.256	20.275	848.663	648.100
328.270	20.352	848.042	647.855
329.285	20.257	847.380	646.939
330.300	20.402	846.581	646.808
331.314	20.463	846.240	646.718
332.329	20.678	845.819	647.139
333.343	20.647	845.732	646.903
334.358	20.661	845.273	646.546
335.373	20.752	844.905	646.546
336.387	20.550	845.080	645.869
337.402	20.872	844.239	646.367
338.416	20.915	844.263	646.486
339.431	21.114	843.834	646.837
340.446	21.062	843.547	646.368
341.460	21.112	842.902	646.002
342.475	21.247	842.727	646.309
343.489	21.122	842.593	645.688
344.504	21.303	841.403	645.386
345.519	21.315	841.417	645.386
346.533	21.293	840.554	644.586
347.548	21.157	839.877	643.508
348.562	20.850	839.142	641.758
349.577	20.813	838.304	640.922
350.592	20.822	837.970	640.643
351.606	20.787	836.796	639.561
352.621	20.850	836.344	639.390
353.635	20.824	836.155	639.093
354.650	20.950	835.620	639.091
355.665	21.084	835.038	639.081
356.679	21.196	834.246	638.828
357.694	21.121	833.907	638.237
358.708	21.085	833.299	637.582
359.723	20.935	832.769	636.574
360.738	21.158	831.710	636.520
361.752	21.109	831.358	636.017
362.767	21.268	830.863	636.161
363.781	21.441	830.231	636.249
364.796	21.365	830.353	636.011
365.810	21.602	829.794	636.388
366.825	21.605	829.526	636.137
367.840	21.569	828.706	635.320
368.854	21.382	828.281	634.259
369.869	21.481	827.518	633.980
370.883	21.493	827.028	633.591
371.898	21.623	827.040	634.015
372.913	21.588	826.608	633.501
373.927	21.482	825.956	632.563
374.942	21.480	825.713	632.314
375.956	21.588	825.416	632.419
376.971	21.872	824.730	632.861
377.986	21.721	824.628	632.182
379.000	21.951	823.799	632.320
380.015	21.873	823.169	631.502
381.029	21.742	822.557	630.504
382.044	21.671	822.470	630.125
383.059	21.780	821.586	629.784
384.073	21.663	820.761	628.677
385.088	21.560	819.988	627.658
386.102	21.593	819.651	627.462
387.117	21.313	819.056	625.951
388.132	21.531	818.163	625.991
389.146	21.610	817.978	626.079
390.161	21.630	817.799	625.957
391.175	21.741	817.577	626.129
392.190	21.744	816.368	625.156
393.205	21.745	815.607	624.524
394.219	21.498	815.802	623.737
395.234	21.383	815.490	623.031
396.248	21.467	814.448	622.479
397.263	21.522	813.975	622.261
398.278	21.291	813.681	621.159
399.292	21.411	813.121	621.102
400.307	21.407	812.774	620.769
401.321	21.458	812.459	620.655
402.336	21.579	811.802	620.526
403.350	21.607	811.688	620.481
404.365	21.540	811.664	620.171
405.380	21.997	810.867	621.127
406.394	21.904	810.314	620.319
407.409	21.978	810.133	620.387
408.423	22.004	809.847	620.204
409.438	22.275	809.320	620.704
410.453	22.165	808.720	619.800
411.467	22.281	808.244	619.790
412.482	22.272	808.182	619.653
413.496	22.352	807.723	619.528
414.511	22.233	807.370	618.785
415.526	22.185	807.121	618.372
416.540	22.150	806.231	617.512
417.555	22.159	805.861	617.205
418.569	22.198	805.582	617.073
419.584	22.274	805.035	616.865
420.599	22.301	804.267	616.319
421.613	159.903	1369.472	1789.325
422.628	138.953	1451.825	1789.424
