DTS Sentinel unit serial number:	SN413079Multiplexer serial number:	ORYXHardware model number:	OX4-SRSoftware version number:	ORYX F/W v4.00 Oryx Data Collector v3.7.2.0data status	okinstallation	princeton_trtdifferential loss correction	single-endedforward channel	channel 1reverse channel	N/Adate	2019/09/19time	05:38:35forward acquisition time	60.00reverse acquisition time	0.00gamma	496.2192k internal	0.2343k external	0.2343temperature offset calibration	1.0020default loss term (dB/km)	0.3790temperature slope calibration	1.0000multiplexer offset coefficient	1.0000multiplexer slope coefficient	1.0000fibre end	0.00T internal ref (°C)	19.31T ext. ref 1 (°C)	0.59T ext. ref 2 (°C)	12.85length (m)	temperature (°C)	Stokes	anti-Stokes-747.200	-169.976	0.155	-0.006
-746.185	78.644	0.106	0.113
-745.171	258.156	0.147	0.253
-744.156	-200.000	-0.036	0.370
-743.142	-104.852	-0.098	0.023
-742.127	44.275	-0.144	0.132
-741.112	-7.457	0.056	-0.038
-740.098	10.617	-0.145	0.110
-739.083	-102.939	-0.099	-0.024
-738.069	-133.457	-0.278	0.035
-737.054	209.944	-0.214	-0.337
-736.039	-66.917	-0.226	-0.090
-735.025	298.772	0.093	0.171
-734.010	-193.042	-0.195	0.002
-732.996	800.000	-0.103	-0.359
-731.981	-183.314	-0.439	0.008
-730.966	-183.453	0.260	-0.005
-729.952	-118.355	0.038	-0.007
-728.937	-200.000	0.014	-0.332
-727.923	-41.933	0.193	-0.099
-726.908	-79.799	-0.182	-0.061
-725.894	-59.749	-0.091	0.039
-724.879	-200.000	0.027	0.168
-723.864	-43.828	-0.268	-0.135
-722.850	-200.000	-0.001	0.087
-721.835	-16.558	-0.243	0.154
-720.821	-91.418	-0.133	0.038
-719.806	-156.377	0.207	-0.013
-718.791	-64.244	0.190	0.078
-717.777	137.089	-0.043	0.056
-716.762	-200.000	0.090	0.418
-715.748	-54.209	0.359	0.163
-714.733	-109.166	0.146	0.031
-713.718	-19.929	0.213	-0.132
-712.704	142.302	-0.029	0.039
-711.689	43.977	0.370	0.339
-710.675	-114.012	0.204	-0.040
-709.660	-200.000	-0.006	0.110
-708.645	-200.000	0.010	0.258
-707.631	-136.339	-0.038	0.004
-706.616	5.708	-0.264	-0.195
-705.602	26.119	0.106	0.088
-704.587	-57.774	0.395	0.173
-703.572	-100.272	-0.054	-0.013
-702.558	-64.715	0.106	-0.043
-701.543	-200.000	0.058	0.273
-700.529	329.800	-0.077	-0.148
-699.514	312.224	0.141	-0.265
-698.499	-200.000	0.012	0.347
-697.485	68.341	0.143	0.147
-696.470	-28.411	0.257	0.148
-695.456	-135.311	0.275	0.033
-694.441	74.097	0.088	-0.092
-693.426	-118.060	0.081	0.015
-692.412	-4.762	0.148	-0.102
-691.397	-33.372	-0.317	-0.175
-690.383	-54.669	-0.057	-0.026
-689.368	-200.000	0.028	-0.358
-688.354	195.184	0.103	0.156
-687.339	-53.683	0.068	-0.031
-686.324	800.000	0.046	0.179
-685.310	259.187	-0.089	0.154
-684.295	102.433	0.085	0.099
-683.281	-200.000	-0.040	0.176
-682.266	159.034	0.109	-0.151
-681.251	-91.376	0.393	0.112
-680.237	-200.000	0.003	-0.091
-679.222	304.415	0.040	-0.075
-678.208	-104.437	0.158	-0.037
-677.193	66.578	-0.012	0.013
-676.178	-97.698	-0.192	-0.050
-675.164	800.000	-0.067	-0.266
-674.149	800.000	0.055	-0.180
-673.135	800.000	0.062	0.267
-672.120	-9.215	-0.235	-0.157
-671.105	56.647	-0.033	-0.032
-670.091	-200.000	-0.033	-0.182
-669.076	-104.983	-0.219	-0.050
-668.062	800.000	-0.101	0.345
-667.047	-96.284	-0.401	-0.106
-666.032	-52.460	0.135	-0.062
-665.018	-94.877	0.115	-0.031
-664.003	-43.680	0.233	0.117
-662.989	-58.916	0.299	0.129
-661.974	0.391	-0.095	0.068
-660.959	-99.833	-0.045	0.011
-659.945	551.127	-0.032	-0.077
-658.930	101.980	0.083	-0.097
-657.916	-123.785	0.174	-0.028
-656.901	800.000	-0.037	-0.146
-655.886	-147.629	-0.123	0.010
-654.872	-200.000	-0.016	0.157
-653.857	-25.853	-0.213	-0.125
-652.843	421.634	0.122	-0.261
-651.828	-157.108	-0.255	-0.015
-650.814	366.894	-0.088	0.177
-649.799	1.847	-0.028	-0.020
-648.784	800.000	0.052	-0.220
-647.770	-16.538	-0.039	0.025
-646.755	-200.000	-0.016	0.101
-645.741	-200.000	0.020	-0.091
-644.726	-42.899	-0.404	0.204
-643.711	13.084	0.234	-0.181
-642.697	-100.328	-0.283	-0.070
-641.682	209.265	0.010	-0.016
-640.668	20.677	0.349	0.282
-639.653	-200.000	-0.094	-0.440
-638.638	800.000	-0.053	0.213
-637.624	80.836	-0.102	-0.110
-636.609	800.000	-0.071	0.241
-635.595	317.048	-0.090	-0.169
-634.580	-45.439	-0.231	-0.114
-633.565	43.716	0.112	-0.102
-632.551	-135.982	-0.344	-0.040
-631.536	101.417	-0.294	0.342
-630.522	-72.062	-0.155	0.057
-629.507	-68.717	-0.158	0.061
-628.492	20.326	0.033	0.026
-627.478	800.000	0.030	0.102
-626.463	-200.000	0.036	0.485
-625.449	246.773	-0.128	-0.215
-624.434	-51.658	0.198	0.092
-623.419	88.681	0.139	-0.154
-622.405	-200.000	-0.007	-0.193
-621.390	209.546	-0.118	0.184
-620.376	-200.000	-0.001	-0.007
-619.361	-20.975	0.255	-0.156
-618.346	373.583	-0.096	-0.194
-617.332	-200.000	0.081	-0.379
-616.317	-54.296	0.087	0.039
-615.303	800.000	-0.079	-0.273
-614.288	40.767	0.180	-0.162
-613.273	27.064	0.192	-0.161
-612.259	135.970	-0.260	-0.337
-611.244	-90.196	-0.150	-0.044
-610.230	61.481	-0.263	0.261
-609.215	-200.000	-0.013	0.091
-608.201	-80.740	0.260	0.086
-607.186	-24.913	-0.171	0.101
-606.171	-200.000	-0.018	0.118
-605.157	799.766	0.138	0.379
-604.142	538.554	0.022	0.053
-603.128	-52.151	-0.278	0.128
-602.113	-200.000	-0.005	-0.212
-601.098	-200.000	-0.067	0.366
-600.084	56.636	0.254	-0.246
-599.069	-39.462	-0.206	0.108
-598.055	477.165	0.152	0.342
-597.040	40.142	-0.417	0.373
-596.025	-72.534	-0.080	-0.029
-595.011	-0.486	-0.170	-0.120
-593.996	800.000	0.070	0.240
-592.982	-200.000	-0.011	-0.092
-591.967	6.544	0.067	0.050
-590.952	737.472	-0.071	-0.191
-589.938	12.730	-0.093	0.071
-588.923	-111.439	0.017	-0.003
-587.909	-200.000	0.006	0.123
-586.894	390.968	-0.105	-0.216
-585.879	800.000	-0.062	-0.210
-584.865	232.354	-0.206	-0.337
-583.850	203.833	0.088	0.135
-582.836	-134.197	0.144	0.018
-581.821	-82.004	0.179	-0.058
-580.806	-200.000	0.068	0.325
-579.792	-19.048	0.078	-0.048
-578.777	-200.000	0.013	-0.192
-577.763	-200.000	0.024	-0.463
-576.748	-21.885	-0.129	-0.078
-575.733	800.000	-0.078	0.271
-574.719	800.000	0.059	-0.217
-573.704	800.000	0.120	-0.494
-572.690	-200.000	-0.015	0.170
-571.675	234.752	-0.075	-0.122
-570.661	206.614	-0.030	-0.047
-569.646	346.768	0.070	0.137
-568.631	-33.199	0.349	-0.192
-567.617	-200.000	-0.031	0.425
-566.602	-81.203	-0.441	0.145
-565.588	-31.859	0.223	0.124
-564.573	529.821	-0.106	-0.248
-563.558	539.440	-0.148	0.350
-562.544	-200.000	-0.035	-0.239
-561.529	-86.316	0.505	-0.154
-560.515	800.000	0.032	-0.105
-559.500	-200.000	-0.003	-0.337
-558.485	-200.000	-0.009	-0.165
-557.471	-8.367	0.231	-0.154
-556.456	-200.000	0.030	-0.133
-555.442	800.000	0.110	-0.349
-554.427	-200.000	0.024	0.108
-553.412	25.982	0.152	-0.126
-552.398	-27.468	-0.312	-0.180
-551.383	-128.823	0.221	0.031
-550.369	-1.188	0.148	-0.104
-549.354	-60.449	-0.154	0.065
-548.339	-200.000	-0.014	0.159
-547.325	267.192	-0.041	-0.071
-546.310	-200.000	0.014	-0.333
-545.296	27.186	-0.096	0.080
-544.281	-125.349	0.151	-0.023
-543.266	-117.083	-0.175	-0.032
-542.252	78.993	-0.194	0.206
-541.237	-101.032	0.304	-0.074
-540.223	103.203	0.381	0.444
-539.208	103.119	0.198	-0.230
-538.193	-96.834	0.260	-0.068
-537.179	-86.410	-0.407	0.124
-536.164	-153.979	0.218	0.015
-535.150	800.000	-0.014	0.045
-534.135	26.755	0.124	-0.103
-533.121	-103.645	0.118	0.028
-532.106	4.992	0.265	0.194
-531.091	-200.000	-0.031	-0.211
-530.077	-200.000	-0.001	0.011
-529.062	-45.888	-0.239	-0.117
-528.048	-47.533	-0.150	-0.072
-527.033	-179.723	0.320	-0.007
-526.018	147.206	0.143	-0.191
-525.004	800.000	-0.067	0.286
-523.989	-200.000	0.055	-0.261
-522.975	-106.774	-0.255	-0.056
-521.960	76.661	-0.154	-0.162
-520.945	19.648	-0.193	-0.154
-519.931	-200.000	0.020	-0.214
-518.916	11.041	0.079	0.060
-517.902	188.568	0.112	-0.166
-516.887	-73.672	-0.290	-0.105
-515.872	-100.795	0.383	-0.094
-514.858	-200.000	-0.021	-0.204
-513.843	-78.294	0.348	0.119
-512.829	144.324	-0.151	-0.200
-511.814	-55.078	-0.375	-0.168
-510.799	-102.115	0.092	0.022
-509.785	33.360	0.047	0.040
-508.770	102.174	-0.146	0.169
-507.756	-106.970	-0.159	0.035
-506.741	-96.478	-0.440	-0.115
-505.726	-27.347	-0.189	-0.109
-504.712	-200.000	-0.019	0.113
-503.697	-29.578	0.215	0.122
-502.683	800.000	0.040	0.132
-501.668	-47.921	0.182	0.087
-500.653	-149.350	-0.139	0.011
-499.639	250.617	0.141	0.237
-498.624	-200.000	-0.047	-0.237
-497.610	-59.664	0.108	-0.046
-496.595	142.435	-0.088	-0.117
-495.581	-200.000	-0.025	0.150
-494.566	-24.627	-0.152	0.090
-493.551	-118.370	0.215	0.038
-492.537	-162.939	0.332	0.016
-491.522	-27.770	0.130	0.075
-490.508	69.996	-0.028	0.028
-489.493	39.815	0.008	0.007
-488.478	23.527	0.245	-0.200
-487.464	-129.623	-0.248	-0.034
-486.449	143.636	-0.129	0.171
-485.435	344.274	0.123	-0.240
-484.420	163.945	-0.095	0.133
-483.405	-137.343	-0.260	-0.029
-482.391	-200.000	-0.021	-0.295
-481.376	56.053	-0.334	0.321
-480.362	-169.855	0.095	0.003
-479.347	-29.920	-0.226	-0.127
-478.332	412.623	0.049	-0.104
-477.318	-120.082	0.293	0.050
-476.303	-58.487	0.175	0.075
-475.289	296.452	-0.022	0.041
-474.274	-76.760	0.232	0.080
-473.259	-59.622	0.101	-0.043
-472.245	-95.491	0.377	0.100
-471.230	-200.000	-0.002	-0.125
-470.216	-200.000	-0.002	0.197
-469.201	129.665	0.136	0.172
-468.186	33.428	0.025	-0.021
-467.172	-43.681	0.160	-0.080
-466.157	-143.390	0.346	0.033
-465.143	273.872	-0.108	0.189
-464.128	-70.944	-0.249	-0.093
-463.113	-61.075	0.485	0.203
-462.099	81.815	0.249	0.267
-461.084	97.252	-0.017	-0.019
-460.070	-89.844	-0.126	-0.037
-459.055	-200.000	0.008	0.045
-458.040	-1.170	-0.240	0.168
-457.026	-50.367	-0.255	-0.119
-456.011	-200.000	-0.012	0.210
-454.997	-33.407	-0.181	0.099
-453.982	-141.264	0.136	-0.014
-452.968	208.464	-0.122	-0.189
-451.953	163.999	0.266	-0.371
-450.938	-60.278	0.322	0.136
-449.924	177.957	-0.184	0.266
-448.909	800.000	0.070	-0.228
-447.895	4.818	-0.144	-0.105
-446.880	356.368	0.204	0.402
-445.865	800.000	-0.128	-0.494
-444.851	-23.005	-0.383	-0.229
-443.836	-39.520	-0.299	-0.155
-442.822	78.083	-0.128	-0.135
-441.807	290.773	-0.193	0.347
-440.792	-200.000	0.025	0.132
-439.778	-200.000	-0.022	-0.274
-438.763	-82.850	-0.193	0.062
-437.749	-62.136	0.189	-0.078
-436.734	-69.716	-0.090	0.034
-435.719	-5.796	0.111	0.075
-434.705	-200.000	-0.000	0.182
-433.690	310.957	-0.160	0.297
-432.676	-200.000	-0.030	0.256
-431.661	555.381	0.138	-0.328
-430.646	-125.972	-0.084	0.013
-429.632	800.000	-0.070	-0.298
-428.617	439.706	0.045	-0.097
-427.603	131.745	-0.098	-0.125
-426.588	534.276	0.063	0.149
-425.573	584.698	0.101	0.246
-424.559	37.945	-0.219	-0.192
-423.544	-200.000	0.002	-0.257
-422.530	114.819	-0.111	0.134
-421.515	612.323	0.026	0.063
-420.500	379.458	-0.072	-0.145
-419.486	-77.455	-0.178	-0.061
-418.471	172.896	-0.156	0.222
-417.457	-200.000	0.006	0.138
-416.442	-200.000	-0.013	0.262
-415.428	-87.062	-0.200	-0.060
-414.413	-17.350	-0.139	0.087
-413.398	-80.968	-0.193	-0.063
-412.384	99.992	0.321	0.368
-411.369	800.000	0.069	0.231
-410.355	800.000	0.026	-0.081
-409.340	-46.198	-0.287	-0.140
-408.325	-69.619	0.318	0.120
-407.311	173.254	0.132	-0.188
-406.296	-200.000	0.008	-0.050
-405.282	416.179	-0.046	-0.097
-404.267	148.824	-0.136	0.181
-403.252	800.000	0.068	0.198
-402.238	15.356	-0.182	0.141
-401.223	-200.000	-0.022	0.202
-400.209	-82.776	-0.123	0.039
-399.194	-200.000	-0.046	0.306
-398.179	-200.000	0.020	0.144
-397.165	800.000	0.010	0.039
-396.150	-80.475	0.198	0.065
-395.136	-200.000	0.052	-0.225
-394.121	800.000	0.030	-0.083
-393.106	-60.650	-0.286	0.120
-392.092	-200.000	-0.019	0.182
-391.077	-200.000	-0.031	0.247
-390.063	-108.175	0.395	0.084
-389.048	-150.973	0.411	-0.031
-388.033	-15.321	-0.282	0.178
-387.019	-27.315	-0.081	-0.047
-386.004	-108.034	0.195	-0.042
-384.990	92.531	-0.100	-0.112
-383.975	564.392	0.068	0.164
-382.960	-23.172	0.291	0.173
-381.946	-200.000	-0.001	0.180
-380.931	63.194	0.182	-0.180
-379.917	-200.000	0.011	0.344
-378.902	-48.567	0.053	-0.025
-377.888	226.575	0.164	0.263
-376.873	800.000	-0.064	-0.218
-375.858	-156.501	-0.183	0.011
-374.844	76.454	0.091	0.096
-373.829	-13.499	0.065	-0.042
-372.815	-79.864	-0.156	-0.052
-371.800	10.473	0.230	0.173
-370.785	252.166	-0.114	-0.192
-369.771	-200.000	-0.247	0.000
-368.756	382.213	0.246	0.500
-367.742	3.143	0.016	0.011
-366.727	46.959	0.077	0.070
-365.712	121.310	-0.084	0.104
-364.698	472.366	0.045	0.101
-363.683	12.633	-0.564	-0.430
-362.669	9.152	-0.144	0.107
-361.654	-141.132	-0.045	-0.005
-360.639	-30.145	-0.199	0.112
-359.625	-92.891	0.234	-0.065
-358.610	-200.000	-0.016	-0.093
-357.596	67.481	-0.300	-0.302
-356.581	-105.057	-0.384	0.087
-355.566	-177.468	-0.174	-0.004
-354.552	-177.135	0.152	-0.004
-353.537	-200.000	-0.010	0.253
-352.523	-200.000	0.044	0.195
-351.508	104.775	0.215	0.250
-350.493	-87.030	-0.263	-0.079
-349.479	152.619	0.163	-0.220
-348.464	135.325	0.171	0.219
-347.450	62.773	0.115	0.113
-346.435	407.207	-0.154	0.320
-345.420	-49.409	-0.197	0.093
-344.406	-200.000	0.030	-0.176
-343.391	230.523	-0.031	-0.050
-342.377	-125.951	-0.177	0.026
-341.362	13.142	-0.287	0.219
-340.348	-61.632	0.229	-0.095
-339.333	287.118	0.116	0.206
-338.318	37.305	-0.108	-0.094
-337.304	-55.794	-0.108	-0.048
-336.289	383.724	0.092	0.187
-335.275	470.845	0.115	0.254
-334.260	14.904	-0.110	-0.085
-333.245	-80.828	-0.243	0.080
-332.231	12.715	-0.139	0.106
-331.216	800.000	0.044	-0.149
-330.202	-200.000	-0.033	-0.286
-329.187	-200.000	0.016	0.204
-328.172	-106.751	0.162	-0.035
-327.158	-53.202	-0.293	-0.132
-326.143	376.585	0.084	-0.169
-325.129	800.000	-0.037	0.118
-324.114	-17.520	0.125	0.078
-323.099	-47.378	0.209	-0.100
-322.085	800.000	-0.150	0.443
-321.070	-200.000	-0.019	0.107
-320.056	-38.416	0.264	0.138
-319.041	-20.415	0.264	-0.160
-318.026	-200.000	-0.005	0.075
-317.012	800.000	-0.062	0.193
-315.997	-200.000	0.021	-0.143
-314.983	-200.000	-0.059	0.265
-313.968	800.000	-0.113	-0.328
-312.953	26.337	0.256	-0.211
-311.939	22.704	0.375	0.302
-310.924	84.667	-0.045	-0.049
-309.910	-106.813	0.261	-0.057
-308.895	80.524	-0.145	0.154
-307.880	165.122	-0.115	0.160
-306.866	389.472	0.093	0.190
-305.851	-200.000	-0.008	0.085
-304.837	43.932	-0.126	-0.113
-303.822	-56.983	0.186	-0.081
-302.807	-200.000	0.126	-0.652
-301.793	-200.000	0.060	0.497
-300.778	237.251	0.123	0.201
-299.764	560.222	-0.028	-0.066
-298.749	-200.000	0.009	0.082
-297.735	381.324	-0.096	0.194
-296.720	-112.706	0.333	0.065
-295.705	34.443	0.078	-0.067
-294.691	-200.000	0.021	-0.367
-293.676	-135.844	0.267	-0.031
-292.662	46.843	0.123	-0.112
-291.647	-33.927	-0.336	0.182
-290.632	-200.000	0.041	-0.273
-289.618	63.632	0.081	0.080
-288.603	-93.137	-0.117	-0.032
-287.589	94.281	0.119	0.132
-286.574	766.203	-0.118	0.315
-285.559	-115.693	0.275	0.051
-284.545	584.873	0.081	-0.196
-283.530	-105.809	-0.007	0.002
-282.516	-62.694	0.155	-0.063
-281.501	-200.000	-0.026	-0.230
-280.486	131.443	-0.120	-0.152
-279.472	-106.464	0.403	-0.088
-278.457	-43.812	0.179	0.089
-277.443	108.341	-0.197	0.231
-276.428	109.375	-0.063	-0.075
-275.413	-71.024	0.455	0.168
-274.399	167.246	0.106	-0.149
-273.384	-44.647	-0.132	-0.065
-272.370	276.387	0.118	0.206
-271.355	-102.956	-0.165	-0.039
-270.340	-92.360	-0.374	0.104
-269.326	-4.899	-0.064	-0.044
-268.311	-91.526	-0.200	-0.056
-267.297	-25.778	-0.145	-0.084
-266.282	16.224	0.218	-0.169
-265.267	-49.515	0.364	-0.170
-264.253	108.920	0.194	0.228
-263.238	-158.306	-0.019	-0.001
-262.224	-44.240	0.093	0.046
-261.209	707.216	-0.108	-0.280
-260.195	-48.378	-0.185	0.087
-259.180	-189.669	0.398	-0.004
-258.165	800.000	-0.058	0.165
-257.151	632.771	-0.120	-0.299
-256.136	-78.226	0.376	-0.127
-255.122	-116.918	-0.165	-0.030
-254.107	800.000	0.118	-0.322
-253.092	106.109	0.105	-0.122
-252.078	0.081	-0.142	0.099
-251.063	-22.621	0.305	-0.181
-250.049	-37.446	0.205	0.108
-249.034	-200.000	-0.041	-0.315
-248.019	-113.546	-0.284	-0.055
-247.005	778.755	-0.052	0.138
-245.990	-200.000	0.060	0.430
-244.976	-83.707	-0.156	-0.049
-243.961	-105.149	0.402	-0.090
-242.946	-24.738	-0.256	0.150
-241.932	-200.000	0.043	0.196
-240.917	109.373	-0.023	-0.027
-239.903	-18.195	-0.298	-0.183
-238.888	800.000	-0.020	0.053
-237.873	-93.703	-0.018	-0.005
-236.859	-10.519	0.112	-0.073
-235.844	602.579	0.129	0.315
-234.830	-193.984	-0.287	0.002
-233.815	158.366	-0.006	-0.009
-232.800	-144.791	-0.225	0.020
-231.786	-42.717	-0.125	0.062
-230.771	-79.948	0.051	-0.017
-229.757	800.000	0.075	-0.231
-228.742	-25.977	0.103	-0.060
-227.727	425.861	-0.011	-0.022
-226.713	-110.625	-0.044	0.009
-225.698	-98.084	-0.245	-0.062
-224.684	298.019	0.068	-0.123
-223.669	800.000	0.131	-0.363
-222.655	800.000	-0.081	-0.264
-221.640	-64.089	-0.135	-0.054
-220.625	74.245	0.200	-0.206
-219.611	800.000	-0.036	-0.101
-218.596	223.857	-0.097	-0.153
-217.582	-200.000	-0.010	-0.112
-216.567	-200.000	-0.013	0.216
-215.552	11.818	-0.280	-0.211
-214.538	-188.667	0.236	-0.003
-213.523	800.000	-0.046	-0.181
-212.509	-12.805	-0.183	-0.117
-211.494	114.482	-0.137	0.164
-210.479	9.526	-0.221	0.164
-209.465	34.576	-0.093	0.080
-208.450	-99.961	-0.286	0.070
-207.436	160.422	-0.196	-0.269
-206.421	116.414	0.032	-0.039
-205.406	-118.621	0.344	0.060
-204.392	185.562	0.135	0.197
-203.377	760.772	-0.164	-0.435
-202.363	-200.000	-0.011	-0.171
-201.348	-121.199	0.246	-0.040
-200.333	335.856	0.208	0.396
-199.319	800.000	-0.032	-0.103
-198.304	-17.318	-0.159	-0.098
-197.290	-58.980	0.193	0.082
-196.275	114.345	-0.135	0.162
-195.260	8.268	-0.164	0.121
-194.246	182.365	0.205	-0.296
-193.231	-87.126	0.242	-0.072
-192.217	-65.823	0.108	-0.042
-191.202	489.618	0.078	-0.174
-190.187	163.599	-0.091	0.125
-189.173	132.263	0.026	0.032
-188.158	310.059	0.055	0.100
-187.144	46.267	-0.139	0.126
-186.129	800.000	0.086	-0.273
-185.114	240.651	0.201	-0.328
-184.100	-90.336	-0.503	0.143
-183.085	3.145	0.098	-0.070
-182.071	16.707	0.089	-0.069
-181.056	-200.000	0.042	-0.219
-180.042	-200.000	-0.051	-0.346
-179.027	-200.000	0.003	-0.084
-178.012	155.705	-0.077	0.103
-176.998	-158.644	-0.193	-0.011
-175.983	201.617	-0.137	0.207
-174.969	-57.381	0.493	0.212
-173.954	-200.000	0.037	0.167
-172.939	-29.519	-0.232	-0.130
-171.925	-200.000	-0.038	-0.307
-170.910	49.494	0.062	-0.057
-169.896	16.948	0.076	0.059
-168.881	110.999	0.166	0.196
-167.866	31.745	0.040	0.034
-166.852	197.646	-0.155	0.232
-165.837	-200.000	-0.010	0.213
-164.823	63.821	0.341	0.335
-163.808	-200.000	0.001	-0.018
-162.793	201.367	0.174	-0.262
-161.779	50.964	0.074	-0.069
-160.764	-66.232	0.121	0.047
-159.750	458.201	-0.073	-0.159
-158.735	687.681	0.115	0.294
-157.720	372.273	-0.169	0.335
-156.706	139.330	-0.180	0.231
-155.691	-157.917	0.185	-0.011
-154.677	14.168	-0.329	-0.251
-153.662	463.095	0.121	-0.265
-152.647	-113.153	-0.342	0.066
-151.633	800.000	0.028	0.083
-150.618	423.573	0.098	-0.205
-149.604	-171.952	-0.274	0.009
-148.589	647.136	0.035	-0.087
-147.574	-20.922	-0.092	-0.055
-146.560	-9.337	0.273	-0.178
-145.545	596.847	-0.019	-0.046
-144.531	-101.382	0.295	0.070
-143.516	-149.324	-0.249	0.019
-142.502	34.736	-0.086	0.074
-141.487	-56.208	-0.111	0.048
-140.472	800.000	-0.051	-0.156
-139.458	136.715	-0.224	0.286
-138.443	409.638	0.124	0.258
-137.429	35.066	0.106	0.091
-136.414	-121.882	0.276	0.044
-135.399	430.285	-0.060	0.127
-134.385	661.801	0.079	-0.200
-133.370	0.945	-0.189	0.133
-132.356	-146.909	0.132	0.011
-131.341	-73.735	0.190	0.067
-130.326	-200.000	0.031	0.167
-129.312	799.627	-0.084	-0.226
-128.297	509.033	-0.027	0.060
-127.283	492.875	-0.056	-0.126
-126.268	32.650	0.204	0.172
-125.253	-18.332	0.260	0.159
-124.239	391.754	-0.065	-0.132
-123.224	-31.272	0.135	-0.075
-122.210	43.757	-0.263	-0.236
-121.195	108.888	0.212	-0.248
-120.180	-90.424	0.138	-0.039
-119.166	-25.641	-0.295	-0.170
-118.151	-37.916	0.252	-0.131
-117.137	-200.000	-0.012	-0.137
-116.122	186.876	-0.140	0.203
-115.107	171.568	-0.023	-0.032
-114.093	-200.000	-0.027	-0.171
-113.078	42.871	-0.100	-0.089
-112.064	-48.653	0.124	0.058
-111.049	23.574	-0.269	-0.217
-110.034	-121.666	-0.175	0.028
-109.020	-38.962	0.146	0.075
-108.005	-200.000	-0.110	0.487
-106.991	127.123	-0.234	-0.289
-105.976	-51.926	-0.123	-0.056
-104.962	-200.000	0.009	0.201
-103.947	289.342	0.132	-0.233
-102.932	182.111	0.064	0.092
-101.918	659.458	0.011	-0.027
-100.903	171.032	0.090	-0.126
-99.889	800.000	0.030	-0.122
-98.874	195.972	0.112	-0.167
-97.859	-200.000	-0.047	0.344
-96.845	185.373	-0.073	0.106
-95.830	85.962	-0.190	0.204
-94.816	-200.000	-0.016	0.254
-93.801	15.786	0.284	-0.218
-92.786	800.000	0.102	-0.316
-91.772	-200.000	-0.004	0.157
-90.757	77.293	-0.299	0.311
-89.743	-22.115	-0.128	-0.076
-88.728	319.394	-0.025	-0.045
-87.713	226.596	0.123	0.196
-86.699	96.925	0.136	-0.152
-85.684	-154.851	0.141	-0.009
-84.670	-62.375	-0.253	-0.103
-83.655	-200.000	0.012	0.235
-82.640	174.391	0.328	0.462
-81.626	800.000	-0.055	0.230
-80.611	158.181	0.090	-0.122
-79.597	-200.000	0.017	0.185
-78.582	91.053	0.103	0.112
-77.567	-111.448	0.230	0.046
-76.553	800.000	-0.054	-0.159
-75.538	-76.920	0.331	0.113
-74.524	39.113	-0.323	-0.282
-73.509	800.000	-0.145	0.391
-72.494	-111.331	-0.168	-0.033
-71.480	-200.000	0.007	-0.227
-70.465	167.840	-0.159	-0.220
-69.451	176.045	0.071	-0.100
-68.436	140.912	-0.142	-0.183
-67.422	-73.884	-0.239	-0.085
-66.407	-141.707	-0.431	0.042
-65.392	50.327	0.230	0.212
-64.378	268.893	0.066	-0.113
-63.363	-200.000	0.048	0.286
-62.349	18.860	-0.040	0.032
-61.334	63.842	-1.176	-1.152
-60.319	42.481	1.167	1.034
-59.305	800.000	-0.374	-1.394
-58.290	413.469	0.783	1.623
-57.276	597.625	0.611	1.476
-56.261	-200.000	135.939	624.045
-55.246	341.720	1637.652	3120.337
-54.232	137.339	2772.776	3534.846
-53.217	81.822	2154.595	2273.501
-52.203	29.908	1590.591	1320.908
-51.188	22.250	1343.628	1069.407
-50.173	20.324	1309.292	1030.613
-49.159	47.104	1383.556	1254.420
-48.144	42.621	1391.772	1234.366
-47.130	22.353	1340.303	1067.212
-46.115	19.473	1321.844	1035.224
-45.100	19.318	1316.719	1030.245
-44.086	19.296	1314.268	1028.151
-43.071	19.091	1311.852	1025.001
-42.057	19.306	1308.823	1023.871
-41.042	19.130	1308.241	1022.328
-40.027	19.219	1306.745	1021.649
-39.013	19.177	1304.753	1019.803
-37.998	19.219	1302.926	1018.579
-36.984	19.262	1300.953	1017.252
-35.969	19.379	1299.377	1016.671
-34.954	19.305	1298.005	1015.122
-33.940	19.255	1296.749	1013.805
-32.925	19.389	1295.070	1013.240
-31.911	19.481	1293.021	1012.133
-30.896	19.346	1292.006	1010.510
-29.881	19.508	1290.400	1010.157
-28.867	19.413	1288.920	1008.407
-27.852	19.439	1287.923	1007.737
-26.838	19.467	1286.062	1006.404
-25.823	19.416	1285.081	1005.298
-24.809	19.354	1283.552	1003.704
-23.794	19.349	1282.298	1002.653
-22.779	19.422	1281.298	1002.255
-21.765	19.327	1280.441	1000.991
-20.750	19.426	1278.674	1000.147
-19.736	19.349	1277.728	998.919
-18.721	19.362	1276.176	997.746
-17.706	19.256	1275.486	996.551
-16.692	19.253	1274.095	995.408
-15.677	19.236	1272.870	994.313
-14.663	19.122	1272.370	993.227
-13.648	19.319	1270.590	992.930
-12.633	19.249	1269.353	991.523
-11.619	19.198	1269.168	991.048
-10.604	19.372	1267.979	991.078
-9.590	19.276	1267.130	989.823
-8.575	19.213	1266.422	988.866
-7.560	19.291	1265.527	988.578
-6.546	19.185	1264.718	987.302
-5.531	19.214	1263.777	986.689
-4.517	19.243	1262.882	986.119
-3.502	19.260	1262.187	985.634
-2.487	19.238	1261.125	984.639
-1.473	19.192	1256.523	980.745
-0.458	17.467	1241.719	959.440
0.556	13.127	1226.457	923.015
1.571	9.693	1234.869	909.911
2.586	9.096	1249.541	917.230
3.600	9.245	1237.433	909.108
4.615	7.047	1166.445	845.146
5.629	2.716	1098.392	773.950
6.644	0.733	1082.848	753.055
7.659	0.517	1081.602	751.047
8.673	0.532	1080.093	750.011
9.688	0.578	1079.035	749.438
10.702	0.700	1076.499	748.211
11.717	3.307	1079.319	763.032
12.731	9.427	1087.073	798.910
13.746	14.995	1094.534	832.080
14.761	17.095	1096.676	844.090
15.775	16.502	1095.448	840.124
16.790	15.476	1093.425	833.406
17.804	14.774	1092.041	828.794
18.819	14.375	1090.971	825.932
19.834	14.303	1089.973	824.749
20.848	13.975	1089.296	822.541
21.863	13.707	1087.913	820.096
22.877	13.617	1087.303	819.121
23.892	13.553	1086.831	818.373
24.907	13.715	1085.577	818.159
25.921	13.487	1085.517	816.918
26.936	13.682	1084.333	816.912
27.950	13.815	1083.100	816.567
28.965	13.847	1081.830	815.695
29.980	13.731	1080.582	814.110
30.994	13.878	1079.504	813.948
32.009	13.912	1078.570	813.339
33.023	13.812	1078.284	812.562
34.038	13.831	1076.551	811.276
35.053	13.676	1076.122	810.122
36.067	13.784	1074.807	809.589
37.082	13.832	1074.176	809.277
38.096	13.827	1073.380	808.582
39.111	13.747	1072.859	807.724
40.126	13.563	1071.590	805.804
41.140	13.787	1069.873	805.532
42.155	13.611	1069.219	804.111
43.169	13.543	1068.271	802.998
44.184	13.586	1066.902	802.106
45.199	13.662	1066.215	801.889
46.213	13.647	1064.746	800.641
47.228	13.660	1063.402	799.619
48.242	13.730	1062.535	799.237
49.257	13.753	1061.177	798.254
50.271	13.718	1060.737	797.685
51.286	13.800	1059.590	797.143
52.301	13.748	1058.577	796.064
53.315	13.766	1057.626	795.362
54.330	13.654	1057.227	794.457
55.344	13.669	1055.934	793.487
56.359	13.646	1055.414	792.914
57.374	13.676	1053.984	791.913
58.388	13.613	1053.300	791.029
59.403	13.587	1052.145	789.969
60.417	13.613	1051.220	789.327
61.432	13.535	1050.893	788.642
62.447	13.489	1049.980	787.665
63.461	13.506	1049.092	787.011
64.476	13.592	1048.225	786.698
65.490	13.570	1047.450	785.946
66.505	13.652	1046.597	785.622
67.520	13.545	1046.093	784.667
68.534	13.760	1045.014	784.809
69.549	13.626	1044.785	783.933
70.563	13.554	1043.798	782.782
71.578	13.494	1042.822	781.698
72.593	13.505	1042.067	781.115
73.607	13.490	1041.505	780.552
74.622	13.521	1040.631	779.975
75.636	13.639	1039.576	779.669
76.651	13.522	1039.526	779.011
77.666	13.562	1038.682	778.499
78.680	13.525	1038.210	777.905
79.695	13.430	1037.765	777.055
80.709	13.438	1036.926	776.397
81.724	13.597	1036.055	776.420
82.739	13.674	1035.256	776.115
83.753	13.637	1034.278	775.136
84.768	13.641	1033.826	774.749
85.782	13.868	1032.182	774.510
86.797	13.718	1032.088	773.670
87.812	13.713	1030.786	772.600
88.826	13.765	1029.392	771.733
89.841	13.729	1028.697	770.974
90.855	13.734	1027.862	770.305
91.870	13.686	1027.391	769.659
92.884	13.762	1026.046	768.936
93.899	13.810	1025.198	768.456
94.914	13.736	1024.701	767.670
95.928	13.830	1023.463	767.110
96.943	13.790	1022.596	766.209
97.957	13.794	1022.176	765.842
98.972	13.905	1021.164	765.528
99.987	13.858	1020.169	764.498
101.001	13.855	1019.043	763.575
102.016	13.815	1018.326	762.786
103.030	13.783	1017.985	762.318
104.045	13.814	1017.000	761.654
105.060	13.835	1016.101	761.008
106.074	13.810	1015.123	760.092
107.089	13.687	1013.971	758.603
108.103	13.706	1013.201	758.044
109.118	13.874	1011.766	757.672
110.133	13.687	1011.435	756.505
111.147	13.632	1010.507	755.491
112.162	13.700	1009.727	755.151
113.176	13.719	1009.174	754.758
114.191	13.808	1008.351	754.479
115.206	13.753	1007.355	753.417
116.220	13.789	1006.657	752.994
117.235	13.707	1005.651	751.800
118.249	13.738	1004.751	751.205
119.264	13.822	1003.699	750.732
120.279	13.773	1002.903	749.845
121.293	13.645	1002.588	748.964
122.308	13.726	1001.464	748.425
123.322	13.859	999.956	747.832
124.337	13.688	999.283	746.495
125.352	13.776	998.034	745.888
126.366	13.703	997.387	745.014
127.381	13.764	996.278	744.391
128.395	13.630	994.939	742.726
129.410	13.752	994.041	742.535
130.424	13.790	992.903	741.789
131.439	13.717	992.315	740.960
132.454	13.785	991.903	740.889
133.468	13.807	990.577	739.932
134.483	13.704	990.360	739.244
135.497	13.748	988.896	738.280
136.512	13.786	988.214	737.875
137.527	13.712	987.422	736.888
138.541	13.704	986.680	736.239
139.556	13.729	985.969	735.753
140.570	13.805	985.045	735.334
141.585	13.953	983.988	735.135
142.600	13.919	983.370	734.456
143.614	13.905	982.339	733.562
144.629	13.966	981.682	733.273
145.643	13.949	980.600	732.324
146.658	13.915	979.831	731.536
147.673	13.865	979.065	730.681
148.687	13.845	978.397	730.031
149.702	14.013	977.045	729.694
150.716	13.954	976.446	728.922
151.731	13.981	975.770	728.471
152.746	13.923	975.201	727.728
153.760	13.961	974.381	727.220
154.775	14.033	973.977	727.169
155.789	13.945	973.387	726.280
156.804	14.079	972.065	725.812
157.819	14.001	972.030	725.381
158.833	14.072	971.024	724.877
159.848	14.087	970.176	724.245
160.862	14.028	969.437	723.370
161.877	14.029	968.552	722.653
162.892	13.978	967.698	721.732
163.906	13.941	966.740	720.790
164.921	14.078	965.941	720.724
165.935	14.136	965.022	720.226
166.950	14.023	964.182	719.049
167.964	14.032	963.365	718.414
168.979	14.170	962.285	718.142
169.994	14.064	961.463	717.008
171.008	14.107	960.712	716.568
172.023	14.184	959.855	716.198
173.037	14.213	959.781	716.201
174.052	14.109	958.705	714.888
175.067	14.096	958.223	714.411
176.081	14.084	957.510	713.764
177.096	14.136	956.906	713.476
178.110	14.110	956.183	712.761
179.125	14.162	955.628	712.509
180.140	14.314	955.304	712.853
181.154	14.403	954.943	712.901
182.169	14.324	954.004	711.802
183.183	14.308	953.332	711.167
184.198	14.432	952.223	710.805
185.213	14.417	951.617	710.228
186.227	14.291	951.479	709.522
187.242	14.419	950.550	709.315
188.256	14.544	949.892	709.290
189.271	14.365	949.119	707.891
190.286	14.241	948.476	706.821
191.300	14.270	947.906	706.456
192.315	14.337	946.950	705.969
193.329	14.234	946.630	705.228
194.344	14.336	945.928	705.074
195.359	14.464	944.855	704.753
196.373	14.462	944.242	704.226
197.388	14.569	943.979	704.419
198.402	14.515	943.619	703.860
199.417	14.640	942.612	703.576
200.432	14.647	941.957	703.053
201.446	14.686	941.573	702.867
202.461	14.594	941.512	702.371
203.475	14.660	940.412	701.768
204.490	14.598	939.602	700.840
205.504	14.635	938.808	700.341
206.519	14.645	938.017	699.731
207.534	14.636	937.561	699.291
208.548	14.579	937.106	698.653
209.563	14.531	936.556	697.979
210.577	14.489	935.883	697.241
211.592	14.693	935.054	697.414
212.607	14.806	934.080	697.096
213.621	14.716	933.495	696.222
214.636	14.805	932.682	695.926
215.650	14.798	931.927	695.271
216.665	14.765	931.307	694.612
217.680	14.867	930.519	694.384
218.694	14.904	929.531	693.739
219.709	14.896	929.052	693.287
220.723	14.770	928.642	692.400
221.738	14.775	927.927	691.827
222.753	14.896	927.164	691.697
223.767	15.007	926.308	691.454
224.782	14.972	925.739	690.822
225.796	15.044	925.261	690.704
226.811	15.117	924.869	690.649
227.826	15.007	924.018	689.500
228.840	15.006	923.520	689.065
229.855	15.080	922.136	688.276
230.869	14.999	921.488	687.396
231.884	15.007	921.352	687.268
232.899	14.842	920.520	685.911
233.913	15.077	919.658	686.172
234.928	14.946	919.170	685.208
235.942	14.992	918.298	684.687
236.957	14.995	918.136	684.518
237.972	15.022	917.291	683.935
238.986	14.991	916.558	683.204
240.001	15.002	916.127	682.866
241.015	15.039	915.186	682.256
242.030	15.144	914.537	682.138
243.045	14.985	914.607	681.484
244.059	15.107	913.618	681.184
245.074	15.174	912.654	680.676
246.088	15.048	912.462	679.959
247.103	15.240	911.482	679.946
248.117	15.301	910.684	679.539
249.132	15.351	910.173	679.303
250.147	15.369	909.632	678.912
251.161	15.356	909.231	678.500
252.176	15.447	908.112	677.972
253.190	15.338	907.576	677.070
254.205	15.377	906.809	676.596
255.220	15.506	906.120	676.540
256.234	15.426	905.475	675.679
257.249	15.427	905.253	675.458
258.263	15.342	904.532	674.516
259.278	15.505	903.428	674.288
260.293	15.493	902.878	673.769
261.307	15.623	902.316	673.814
262.322	15.581	901.654	673.089
263.336	15.662	900.882	672.777
264.351	15.698	900.014	672.216
265.366	15.600	899.687	671.520
266.380	15.662	899.026	671.216
267.395	15.666	898.249	670.593
268.409	15.611	897.178	669.513
269.424	15.706	896.595	669.397
270.439	15.648	895.882	668.574
271.453	15.708	895.458	668.437
272.468	15.567	895.590	667.917
273.482	15.624	894.500	667.270
274.497	15.580	893.751	666.477
275.512	15.670	893.359	666.483
276.526	15.816	892.710	666.520
277.541	15.706	892.560	665.910
278.555	15.604	891.863	664.928
279.570	15.850	890.729	664.997
280.585	15.925	889.834	664.566
281.599	15.904	889.087	663.866
282.614	15.925	888.407	663.385
283.628	16.107	887.432	663.312
284.643	15.963	887.151	662.478
285.657	15.887	886.908	661.940
286.672	15.843	886.393	661.322
287.687	15.843	885.618	660.687
288.701	15.987	884.822	660.600
289.716	15.965	884.434	660.163
290.730	15.990	883.637	659.611
291.745	16.175	882.579	659.486
292.760	16.267	881.935	659.302
293.774	16.205	881.462	658.649
294.789	16.113	880.879	657.798
295.803	16.175	880.614	657.783
296.818	16.057	879.825	656.676
297.833	16.041	879.054	655.978
298.847	16.168	878.425	655.944
299.862	16.173	877.975	655.571
300.876	16.025	877.406	654.515
301.891	16.149	876.780	654.468
302.906	16.286	876.100	654.437
303.920	16.350	875.260	653.998
304.935	16.333	874.805	653.537
305.949	16.388	874.068	653.139
306.964	16.264	873.821	652.415
307.979	16.288	873.251	652.026
308.993	16.409	872.452	651.840
310.008	16.361	871.958	651.226
311.022	16.274	871.430	650.442
312.037	16.410	870.725	650.379
313.052	16.244	870.037	649.168
314.066	16.292	869.479	648.883
315.081	16.253	869.080	648.374
316.095	16.263	868.856	648.189
317.110	16.303	867.742	647.455
318.125	16.430	867.371	647.606
319.139	16.474	866.821	647.310
320.154	16.430	866.178	646.601
321.168	16.494	865.602	646.360
322.183	16.518	864.972	645.924
323.197	16.516	865.097	645.951
324.212	16.497	864.088	645.070
325.227	16.498	863.886	644.863
326.241	16.544	862.944	644.281
327.256	16.464	862.209	643.369
328.270	16.503	861.538	642.962
329.285	16.609	861.401	643.204
330.300	16.624	860.402	642.458
331.314	16.505	860.303	641.876
332.329	16.411	860.253	641.427
333.343	16.528	859.490	641.243
334.358	16.567	858.958	640.939
335.373	16.586	858.928	640.930
336.387	16.718	857.646	640.414
337.402	16.693	857.876	640.436
338.416	16.718	857.330	640.067
339.431	16.805	856.689	639.860
340.446	16.741	856.399	639.345
341.460	16.851	856.035	639.433
342.475	16.722	855.976	638.847
343.489	16.832	855.093	638.544
344.504	16.769	854.931	638.127
345.519	16.876	854.676	638.285
346.533	16.897	853.633	637.529
347.548	16.784	853.317	636.811
348.562	16.837	853.045	636.750
349.577	16.859	852.222	636.164
350.592	16.978	851.427	635.958
351.606	16.693	850.989	634.508
352.621	16.952	850.496	635.053
353.635	16.907	849.796	634.308
354.650	16.885	849.005	633.577
355.665	16.836	848.243	632.769
356.679	16.995	847.682	632.889
357.694	16.913	846.858	631.914
358.708	16.961	846.640	631.875
359.723	17.003	845.918	631.436
360.738	17.046	845.236	631.031
361.752	16.958	845.124	630.564
362.767	17.139	844.036	630.368
363.781	17.142	843.754	630.114
364.796	17.035	843.497	629.467
365.810	17.256	842.652	629.601
366.825	17.160	842.436	629.029
367.840	17.154	841.950	628.585
368.854	17.142	841.486	628.141
369.869	17.295	840.884	628.201
370.883	17.257	840.430	627.666
371.898	17.207	840.354	627.370
372.913	17.362	839.497	627.247
373.927	17.334	839.154	626.829
374.942	17.305	838.988	626.545
375.956	17.354	838.554	626.345
376.971	17.420	837.495	625.741
377.986	17.488	837.462	625.911
379.000	17.486	836.978	625.487
380.015	17.519	836.291	625.039
381.029	17.404	835.792	624.187
382.044	17.591	834.910	624.161
383.059	17.673	834.707	624.254
384.073	17.587	833.963	623.326
385.088	17.487	833.519	622.574
386.102	17.513	833.007	622.232
387.117	17.567	832.219	621.784
388.132	17.519	831.888	621.308
389.146	17.597	830.943	620.829
390.161	17.668	831.071	621.131
391.175	17.614	830.230	620.249
392.190	17.518	829.539	619.331
393.205	17.473	829.703	619.235
394.219	17.620	829.038	619.218
395.234	17.715	828.432	619.055
396.248	17.587	827.700	617.987
397.263	17.599	827.657	617.944
398.278	17.465	827.414	617.222
399.292	17.593	826.675	617.083
400.307	17.662	826.337	617.024
401.321	17.648	825.581	616.353
402.336	17.701	825.165	616.181
403.350	17.591	824.770	615.436
404.365	17.730	824.122	615.396
405.380	17.826	823.783	615.435
406.394	17.946	822.965	615.202
407.409	17.909	822.943	614.998
408.423	17.963	822.420	614.747
409.438	17.876	822.462	614.411
410.453	17.957	821.776	614.138
411.467	17.990	821.151	613.732
412.482	18.105	820.830	613.852
413.496	17.992	820.925	613.462
414.511	18.000	820.397	613.043
415.526	18.067	819.839	612.813
416.540	18.046	819.403	612.357
417.555	17.944	818.736	611.437
418.569	18.183	818.431	612.011
419.584	18.114	817.895	611.309
420.599	18.078	817.074	610.515
421.613	115.940	1301.012	1492.092
422.628	100.530	1371.461	1492.168
