DTS Sentinel unit serial number:	SN413079Multiplexer serial number:	ORYXHardware model number:	OX4-SRSoftware version number:	ORYX F/W v4.00 Oryx Data Collector v3.7.2.0data status	okinstallation	princeton_trtdifferential loss correction	single-endedforward channel	channel 1reverse channel	N/Adate	2019/09/12time	09:08:11forward acquisition time	60.00reverse acquisition time	0.00gamma	496.2192k internal	0.2306k external	0.2306temperature offset calibration	1.0042default loss term (dB/km)	0.3790temperature slope calibration	1.0000multiplexer offset coefficient	1.0000multiplexer slope coefficient	1.0000fibre end	0.00T internal ref (°C)	34.50T ext. ref 1 (°C)	1.77T ext. ref 2 (°C)	32.38length (m)	temperature (°C)	Stokes	anti-Stokes-747.200	-76.037	0.543	-0.195
-746.185	-5.954	-0.335	0.233
-745.171	-64.962	-0.279	0.115
-744.156	-0.245	-0.207	-0.150
-743.142	23.266	-0.286	0.239
-742.127	156.400	0.216	0.303
-741.112	-200.000	-0.057	-0.276
-740.098	800.000	-0.061	-0.196
-739.083	-185.374	-0.192	-0.003
-738.069	141.005	-0.226	0.303
-737.054	-200.000	0.024	0.325
-736.039	-155.815	-0.039	0.003
-735.025	179.312	-0.156	-0.232
-734.010	-38.201	-0.146	-0.079
-732.996	100.855	-0.249	-0.294
-731.981	104.133	-0.120	-0.143
-730.966	180.121	0.163	0.243
-729.952	101.966	-0.115	0.137
-728.937	-200.000	0.005	-0.248
-727.923	-200.000	-0.001	0.008
-726.908	-44.213	0.079	-0.040
-725.894	-50.011	-0.054	-0.026
-724.879	-73.786	-0.092	0.034
-723.864	-37.459	-0.442	-0.240
-722.850	89.800	0.262	-0.298
-721.835	-200.000	0.025	-0.166
-720.821	-164.038	0.218	-0.010
-719.806	-200.000	0.049	-0.232
-718.791	-101.146	-0.346	-0.086
-717.777	94.818	0.217	0.251
-716.762	800.000	-0.040	0.159
-715.748	351.022	-0.094	-0.188
-714.733	24.239	-0.180	0.151
-713.718	-87.878	-0.268	-0.082
-712.704	143.928	-0.077	-0.104
-711.689	-200.000	-0.018	0.288
-710.675	122.352	-0.162	-0.205
-709.660	95.808	-0.073	-0.085
-708.645	-6.465	0.082	-0.057
-707.631	-200.000	-0.005	-0.337
-706.616	449.184	-0.170	-0.382
-705.602	-138.242	-0.218	-0.024
-704.587	-85.756	0.224	0.070
-703.572	-142.488	0.237	0.024
-702.558	443.606	0.055	-0.123
-701.543	-50.031	-0.212	-0.102
-700.529	-74.993	-0.163	-0.059
-699.514	253.695	0.072	-0.125
-698.499	-89.048	-0.361	-0.108
-697.485	-43.127	0.165	-0.085
-696.470	-5.663	0.213	0.149
-695.456	800.000	-0.076	0.261
-694.441	190.982	-0.059	-0.090
-693.426	-155.813	-0.140	-0.009
-692.412	111.773	0.064	-0.078
-691.397	-180.647	-0.471	0.010
-690.383	-9.912	-0.288	-0.194
-689.368	800.000	-0.062	-0.211
-688.354	-200.000	0.040	-0.283
-687.339	181.091	-0.085	-0.126
-686.324	149.283	0.109	0.150
-685.310	-140.421	-0.272	0.029
-684.295	-137.537	-0.324	0.037
-683.281	288.146	-0.112	-0.206
-682.266	-21.949	0.142	-0.088
-681.251	155.351	-0.104	0.146
-680.237	-94.352	-0.351	-0.097
-679.222	-51.189	-0.082	0.039
-678.208	800.000	-0.038	-0.108
-677.193	284.565	-0.155	0.283
-676.178	73.734	0.179	-0.190
-675.164	-113.026	-0.191	0.038
-674.149	-54.653	-0.152	-0.070
-673.135	-200.000	-0.017	-0.097
-672.120	-200.000	-0.045	-0.271
-671.105	-42.162	-0.123	0.064
-670.091	452.306	-0.144	0.323
-669.076	-114.314	0.084	-0.016
-668.062	-41.470	0.137	-0.072
-667.047	-24.546	-0.295	-0.178
-666.032	143.485	-0.023	-0.031
-665.018	800.000	0.028	0.102
-664.003	-114.477	-0.261	0.051
-662.989	502.277	0.091	-0.212
-661.974	-125.328	-0.529	-0.082
-660.959	-56.075	0.175	0.079
-659.945	-60.592	0.240	0.103
-658.930	242.981	0.126	0.215
-657.916	-200.000	0.103	-0.672
-656.901	-138.517	0.195	0.022
-655.886	-101.958	-0.071	-0.017
-654.872	138.037	-0.073	-0.096
-653.857	-159.090	-0.085	0.005
-652.843	800.000	-0.114	-0.440
-651.828	576.906	0.009	0.022
-650.814	800.000	0.020	-0.060
-649.799	-91.516	-0.369	-0.107
-648.784	271.923	-0.162	-0.290
-647.770	-3.344	-0.297	0.209
-646.755	77.301	0.136	-0.147
-645.741	-93.371	-0.429	-0.121
-644.726	45.457	-0.186	-0.174
-643.711	-92.075	-0.141	0.040
-642.697	-200.000	0.026	0.120
-641.682	800.000	0.033	0.120
-640.668	-55.770	0.176	0.080
-639.653	324.962	0.186	-0.360
-638.638	800.000	0.035	0.111
-637.624	11.916	0.228	0.178
-636.609	-12.492	-0.143	0.095
-635.595	-14.017	-0.254	-0.166
-634.580	181.436	-0.062	-0.093
-633.565	1.656	0.277	0.202
-632.551	-181.937	0.177	-0.003
-631.536	-200.000	0.013	0.134
-630.522	249.520	0.147	-0.253
-629.507	33.668	-0.366	-0.322
-628.492	617.743	0.060	-0.153
-627.478	184.152	-0.242	0.363
-626.463	-190.044	0.210	-0.002
-625.449	800.000	-0.016	0.066
-624.434	-97.854	-0.163	0.043
-623.419	340.233	0.114	-0.225
-622.405	-124.038	0.494	0.079
-621.390	800.000	0.044	-0.130
-620.376	92.277	0.177	-0.202
-619.361	-128.163	-0.153	0.022
-618.346	12.483	0.092	0.072
-617.332	-137.211	0.156	-0.018
-616.317	-82.114	-0.208	0.069
-615.303	1.804	-0.390	-0.285
-614.288	313.591	0.012	-0.022
-613.273	267.725	-0.030	0.053
-612.259	-39.209	0.418	-0.222
-611.244	632.962	-0.072	0.183
-610.230	800.000	-0.089	0.275
-609.215	-94.753	-0.183	0.050
-608.201	-193.248	-0.184	0.002
-607.186	-200.000	-0.040	-0.256
-606.171	-200.000	0.001	-0.257
-605.157	-60.401	-0.020	0.008
-604.142	154.856	-0.181	-0.252
-603.128	36.975	0.312	0.280
-602.113	-155.167	-0.108	-0.007
-601.098	41.661	-0.114	0.104
-600.084	-23.032	0.115	0.070
-599.069	800.000	0.058	-0.201
-598.055	0.973	0.149	0.108
-597.040	-30.160	-0.255	0.147
-596.025	800.000	0.026	-0.095
-595.011	-200.000	-0.036	-0.246
-593.996	215.079	-0.162	-0.259
-592.982	-39.389	-0.295	0.156
-591.967	159.972	-0.232	0.327
-590.952	28.367	-0.222	-0.190
-589.938	-62.256	-0.385	-0.162
-588.923	421.007	-0.271	-0.587
-587.909	75.863	0.162	0.173
-586.894	251.295	0.150	-0.258
-585.879	-101.652	-0.080	0.020
-584.865	26.836	-0.161	0.137
-583.850	-200.000	-0.005	-0.046
-582.836	800.000	-0.085	-0.321
-581.821	334.644	-0.106	-0.208
-580.806	127.542	-0.109	-0.139
-579.792	-69.005	-0.178	0.069
-578.777	-95.347	0.455	0.124
-577.763	170.213	0.187	-0.271
-576.748	800.000	0.072	-0.254
-575.733	470.820	-0.053	0.121
-574.719	296.090	0.059	-0.109
-573.704	152.677	-0.167	0.230
-572.690	800.000	0.160	0.493
-571.675	-12.645	-0.214	-0.141
-570.661	9.017	0.252	0.192
-569.646	56.434	0.107	0.105
-568.631	800.000	0.050	-0.150
-567.617	800.000	-0.114	0.332
-566.602	800.000	0.085	-0.276
-565.588	-67.607	0.170	-0.067
-564.573	337.694	0.147	0.288
-563.558	175.381	0.062	-0.091
-562.544	-130.297	-0.362	0.050
-561.529	800.000	-0.070	0.216
-560.515	193.548	0.181	0.276
-559.500	-2.421	-0.283	-0.200
-558.485	800.000	0.072	-0.261
-557.471	-31.293	0.295	0.167
-556.456	800.000	0.123	0.395
-555.442	-200.000	-0.088	-0.450
-554.427	-67.158	0.070	0.028
-553.412	-89.794	-0.128	0.038
-552.398	-48.834	-0.167	0.081
-551.383	-112.705	0.129	-0.026
-550.369	-79.983	0.271	-0.092
-549.354	-180.575	0.279	0.006
-548.339	-12.154	-0.176	-0.116
-547.325	259.096	-0.072	-0.125
-546.310	-91.632	0.379	-0.109
-545.296	62.969	-0.382	-0.386
-544.281	38.703	-0.045	0.041
-543.266	-5.201	-0.092	0.064
-542.252	80.246	-0.183	0.199
-541.237	800.000	0.076	-0.242
-540.223	-0.403	-0.326	0.233
-539.208	779.633	0.055	-0.151
-538.193	253.911	0.118	0.204
-537.179	-200.000	-0.057	-0.259
-536.164	800.000	0.062	0.269
-535.150	-191.943	0.121	-0.001
-534.135	-33.405	-0.344	-0.192
-533.121	-9.399	0.169	0.114
-532.106	-93.293	0.111	0.031
-531.091	42.528	0.112	-0.102
-530.077	46.672	-0.196	-0.184
-529.062	-77.314	0.061	0.021
-528.048	5.932	-0.134	0.100
-527.033	279.195	-0.148	-0.267
-526.018	83.743	-0.057	-0.062
-525.004	-77.054	-0.192	-0.068
-523.989	-200.000	-0.015	0.087
-522.975	44.871	-0.184	-0.171
-521.960	-21.258	-0.134	-0.083
-520.945	379.944	-0.024	0.049
-519.931	51.308	-0.320	0.306
-518.916	219.668	-0.077	0.124
-517.902	17.600	0.137	0.110
-516.887	-124.864	-0.361	0.056
-515.872	-55.973	-0.256	-0.115
-514.858	29.575	-0.102	0.088
-513.843	-65.761	-0.065	0.026
-512.829	164.300	0.273	-0.388
-511.814	-62.832	-0.174	0.072
-510.799	-100.810	-0.313	0.078
-509.785	-6.323	-0.609	-0.419
-508.770	-141.611	0.210	-0.021
-507.756	-200.000	-0.081	-0.484
-506.741	-13.209	0.113	-0.074
-505.726	173.032	-0.058	0.084
-504.712	222.882	0.107	-0.174
-503.697	-100.007	-0.223	0.056
-502.683	25.852	-0.123	0.103
-501.668	354.699	0.157	-0.314
-500.653	-200.000	0.028	-0.303
-499.639	-200.000	0.023	-0.194
-498.624	-20.760	0.255	0.158
-497.610	54.541	0.027	0.026
-496.595	3.550	0.132	0.097
-495.581	-200.000	0.013	-0.115
-494.566	41.319	-0.197	0.179
-493.551	17.917	0.108	0.086
-492.537	-64.765	0.122	0.050
-491.522	17.335	0.075	-0.060
-490.508	359.921	0.014	0.028
-489.493	-200.000	0.001	0.100
-488.478	176.176	0.165	-0.241
-487.464	369.731	-0.128	0.262
-486.449	34.345	0.018	0.016
-485.435	44.722	0.061	0.056
-484.420	-200.000	0.016	-0.203
-483.405	-7.251	0.323	-0.220
-482.391	158.540	0.130	-0.182
-481.376	800.000	-0.087	-0.261
-480.362	6.403	-0.331	0.247
-479.347	-111.912	0.228	0.046
-478.332	173.829	0.161	-0.235
-477.318	-58.458	0.108	0.047
-476.303	147.290	-0.191	-0.258
-475.289	-83.145	0.330	0.107
-474.274	-11.524	-0.270	-0.178
-473.259	-117.847	0.189	0.034
-472.245	61.220	-0.122	0.122
-471.230	589.132	-0.068	-0.169
-470.216	433.335	0.107	-0.233
-469.201	198.878	-0.090	-0.138
-468.186	-113.088	0.250	-0.050
-467.172	104.342	0.272	-0.322
-466.157	-196.703	0.356	0.002
-465.143	661.131	-0.046	0.119
-464.128	-178.518	0.217	-0.005
-463.113	84.754	-0.106	0.117
-462.099	-79.157	0.263	-0.090
-461.084	313.903	0.198	-0.375
-460.070	593.930	0.074	0.183
-459.055	-51.318	0.189	0.089
-458.040	800.000	0.043	-0.137
-457.026	283.610	0.022	-0.040
-456.011	64.658	0.157	-0.159
-454.997	-45.747	-0.292	0.145
-453.982	-111.510	-0.238	-0.049
-452.968	61.257	0.150	-0.150
-451.953	-54.993	-0.418	0.190
-450.938	287.187	-0.111	0.203
-449.924	-3.585	0.119	-0.083
-448.909	-200.000	-0.019	0.115
-447.895	56.432	-0.021	-0.021
-446.880	-186.183	-0.241	0.004
-445.865	-200.000	0.017	0.125
-444.851	742.022	0.073	0.197
-443.836	116.284	0.227	-0.279
-442.822	791.711	-0.015	0.042
-441.807	73.933	0.020	0.021
-440.792	12.590	-0.177	-0.137
-439.778	-200.000	0.018	-0.392
-438.763	-115.864	0.220	0.041
-437.749	-143.872	-0.324	-0.031
-436.734	-100.277	0.271	-0.068
-435.719	-200.000	-0.011	0.245
-434.705	-200.000	0.009	0.190
-433.690	216.131	0.023	0.036
-432.676	199.130	0.055	-0.084
-431.661	-23.801	-0.272	0.164
-430.646	800.000	0.019	0.066
-429.632	-200.000	-0.005	-0.164
-428.617	-41.235	-0.027	-0.014
-427.603	-141.099	0.155	0.016
-426.588	-200.000	0.008	-0.127
-425.573	45.830	-0.090	0.084
-424.559	-125.292	0.360	0.055
-423.544	-110.300	-0.048	-0.010
-422.530	68.250	-0.169	0.174
-421.515	546.876	-0.086	0.208
-420.500	-200.000	0.012	0.084
-419.486	90.479	-0.223	-0.251
-418.471	-52.792	0.095	0.044
-417.457	77.953	0.120	0.129
-416.442	23.967	0.332	0.275
-415.428	49.154	-0.053	0.050
-414.413	116.845	-0.066	0.081
-413.398	4.344	-0.154	-0.113
-412.384	383.020	0.153	-0.316
-411.369	-59.911	-0.126	-0.054
-410.355	-200.000	0.003	0.064
-409.340	-200.000	0.034	-0.322
-408.325	-56.916	0.333	-0.148
-407.311	-200.000	0.021	-0.110
-406.296	-200.000	0.031	0.155
-405.282	-10.438	-0.118	-0.079
-404.267	-200.000	-0.032	-0.212
-403.252	-113.581	0.357	0.070
-402.238	221.820	-0.061	0.099
-401.223	-200.000	0.020	-0.229
-400.209	-200.000	0.023	-0.179
-399.194	52.492	0.166	-0.159
-398.179	800.000	0.111	-0.451
-397.165	800.000	-0.060	0.177
-396.150	-7.371	-0.128	0.087
-395.136	376.099	0.077	0.157
-394.121	117.061	-0.051	-0.062
-393.106	0.248	0.314	0.225
-392.092	-200.000	0.041	0.262
-391.077	-39.665	0.180	0.094
-390.063	27.770	-0.313	-0.264
-389.048	6.529	0.160	0.119
-388.033	741.078	0.084	-0.225
-387.019	102.476	0.193	-0.227
-386.004	-135.101	-0.187	0.023
-384.990	-200.000	0.014	-0.191
-383.975	-119.001	-0.203	-0.036
-382.960	-38.442	-0.116	-0.062
-381.946	59.812	-0.151	0.150
-380.931	-83.437	-0.260	0.083
-379.917	6.530	-0.038	-0.029
-378.902	429.719	-0.203	0.440
-377.888	-74.730	-0.156	0.056
-376.873	75.450	-0.244	-0.258
-375.858	60.232	0.174	-0.173
-374.844	-200.000	-0.009	0.113
-373.829	-0.388	-0.192	-0.137
-372.815	-8.182	-0.284	0.192
-371.800	156.851	0.088	0.122
-370.785	-11.142	0.378	-0.250
-369.771	297.031	0.051	-0.093
-368.756	-200.000	0.002	0.181
-367.742	421.275	-0.024	0.051
-366.727	-33.223	-0.075	0.042
-365.712	262.110	0.059	0.102
-364.698	391.484	0.072	0.150
-363.683	229.322	0.400	0.654
-362.669	-52.399	-0.117	0.054
-361.654	44.114	0.144	-0.133
-360.639	-139.638	0.189	-0.020
-359.625	-200.000	-0.020	0.309
-358.610	-78.761	-0.179	0.061
-357.596	36.894	0.395	0.350
-356.581	131.282	-0.069	0.089
-355.566	-76.985	-0.286	0.100
-354.552	568.995	-0.133	0.323
-353.537	-65.203	0.258	-0.104
-352.523	-200.000	0.032	-0.270
-351.508	327.550	0.069	0.132
-350.493	-200.000	-0.032	0.165
-349.479	127.043	0.208	-0.265
-348.464	-200.000	-0.067	0.478
-347.450	-129.333	-0.322	0.045
-346.435	13.791	-0.042	0.033
-345.420	-87.369	-0.202	-0.061
-344.406	135.529	-0.135	0.175
-343.391	-78.961	0.321	0.110
-342.377	800.000	0.069	-0.194
-341.362	157.547	0.145	-0.200
-340.348	-139.853	-0.344	0.037
-339.333	-7.492	0.096	0.065
-338.318	-39.477	0.202	0.106
-337.304	507.609	-0.006	0.015
-336.289	-20.315	-0.262	0.162
-335.275	-97.909	0.255	-0.066
-334.260	800.000	0.041	-0.130
-333.245	231.445	-0.150	0.246
-332.231	52.927	0.209	-0.200
-331.216	243.699	-0.096	-0.161
-330.202	-9.742	0.337	0.224
-329.187	-200.000	0.035	-0.282
-328.172	380.722	0.029	0.060
-327.158	-65.959	-0.230	-0.092
-326.143	194.169	0.167	-0.253
-325.129	-200.000	-0.011	0.179
-324.114	-115.695	0.282	0.053
-323.099	-200.000	-0.010	0.052
-322.085	261.277	-0.047	0.081
-321.070	12.567	-0.264	-0.204
-320.056	-148.646	-0.470	-0.038
-319.041	-200.000	-0.005	0.326
-318.026	30.991	0.263	-0.226
-317.012	118.424	-0.103	-0.128
-315.997	-48.913	-0.087	-0.042
-314.983	-8.138	-0.113	0.076
-313.968	-126.805	0.473	-0.070
-312.953	800.000	-0.058	0.214
-311.939	-200.000	0.049	0.484
-310.924	-16.914	-0.115	0.072
-309.910	-30.024	-0.104	-0.059
-308.895	800.000	-0.033	0.092
-307.880	98.703	0.068	-0.078
-306.866	-69.784	0.354	0.135
-305.851	57.484	-0.321	0.313
-304.837	-48.510	0.375	-0.181
-303.822	-110.112	0.163	0.034
-302.807	294.407	-0.111	0.203
-301.793	24.883	-0.060	-0.050
-300.778	-48.251	-0.307	0.148
-299.764	-36.358	0.274	0.148
-298.749	-120.907	0.147	-0.025
-297.735	-200.000	-0.003	-0.523
-296.720	198.526	0.089	-0.136
-295.705	800.000	0.077	0.277
-294.691	-200.000	0.011	0.293
-293.676	-119.724	-0.173	-0.030
-292.662	-172.179	0.170	0.005
-291.647	46.612	-0.103	-0.096
-290.632	-1.449	-0.030	0.021
-289.618	116.574	-0.087	-0.106
-288.603	110.281	0.300	-0.360
-287.589	-38.968	0.078	0.041
-286.574	77.436	-0.161	-0.171
-285.559	-200.000	0.017	0.358
-284.545	130.972	0.084	-0.107
-283.530	-200.000	0.014	0.211
-282.516	162.974	-0.042	0.059
-281.501	220.311	0.038	-0.061
-280.486	-200.000	-0.009	-0.177
-279.472	-128.921	-0.083	0.012
-278.457	-200.000	0.005	0.056
-277.443	-10.875	0.170	0.112
-276.428	788.935	-0.093	0.255
-275.413	-100.279	-0.206	0.051
-274.399	-140.185	-0.138	-0.014
-273.384	12.900	0.282	-0.218
-272.370	800.000	0.028	0.085
-271.355	7.929	0.152	-0.114
-270.340	298.694	-0.033	-0.061
-269.326	-76.908	-0.234	0.082
-268.311	-132.037	0.244	0.032
-267.297	-98.545	0.220	-0.056
-266.282	-91.958	0.070	-0.020
-265.267	65.336	0.064	-0.064
-264.253	196.192	0.233	0.354
-263.238	-200.000	-0.068	0.301
-262.224	462.769	0.211	0.470
-261.209	-200.000	0.037	0.429
-260.195	-39.160	0.252	-0.132
-259.180	259.165	0.159	-0.274
-258.165	-36.434	-0.067	0.036
-257.151	800.000	-0.020	-0.073
-256.136	148.854	0.191	0.257
-255.122	-54.102	-0.187	0.085
-254.107	-33.894	-0.449	-0.247
-253.092	-86.873	0.086	0.026
-252.078	-32.824	-0.080	0.044
-251.063	-146.487	0.132	0.011
-250.049	800.000	-0.009	0.038
-249.034	185.733	-0.151	-0.224
-248.019	-42.723	-0.065	-0.033
-247.005	52.428	-0.258	-0.245
-245.990	800.000	-0.050	-0.205
-244.976	800.000	-0.069	0.264
-243.961	225.649	0.100	0.161
-242.946	52.118	-0.214	0.203
-241.932	-91.716	-0.186	0.053
-240.917	800.000	-0.107	0.353
-239.903	-157.041	-0.132	-0.008
-238.888	645.205	-0.158	-0.402
-237.873	-7.868	-0.060	-0.041
-236.859	121.837	0.258	0.321
-235.844	106.959	0.093	0.110
-234.830	800.000	0.047	-0.146
-233.815	-150.638	0.383	-0.029
-232.800	-97.066	0.379	0.099
-231.786	-141.123	-0.217	-0.022
-230.771	41.369	0.196	0.177
-229.757	-104.812	0.057	-0.013
-228.742	-200.000	-0.007	0.190
-227.727	-31.630	-0.200	-0.112
-226.713	35.130	-0.226	0.198
-225.698	58.788	0.147	0.144
-224.684	-27.147	-0.025	-0.014
-223.669	145.906	-0.090	0.121
-222.655	-200.000	-0.028	0.423
-221.640	-23.717	0.305	-0.182
-220.625	800.000	-0.089	-0.340
-219.611	800.000	-0.068	-0.230
-218.596	461.253	0.102	-0.227
-217.582	212.839	-0.182	0.287
-216.567	143.981	0.141	0.187
-215.552	-140.674	-0.183	-0.019
-214.538	176.857	0.219	-0.317
-213.523	100.544	-0.112	0.130
-212.509	281.516	0.102	0.182
-211.494	183.226	0.106	-0.156
-210.479	154.427	0.159	0.217
-209.465	800.000	0.089	-0.285
-208.450	88.142	-0.134	0.148
-207.436	35.389	0.183	0.160
-206.421	-51.559	-0.311	-0.145
-205.406	800.000	0.045	-0.130
-204.392	362.311	0.065	-0.130
-203.377	-200.000	-0.009	0.220
-202.363	-110.851	-0.080	-0.016
-201.348	800.000	0.097	-0.326
-200.333	375.889	-0.165	0.334
-199.319	173.810	0.149	-0.215
-198.304	-200.000	0.055	0.252
-197.290	95.367	-0.330	0.375
-196.275	78.837	0.076	0.080
-195.260	404.171	0.125	-0.261
-194.246	597.769	0.050	0.123
-193.231	428.529	-0.142	0.305
-192.217	361.293	0.079	0.158
-191.202	800.000	0.064	-0.192
-190.187	-168.483	-0.039	-0.001
-189.173	11.109	0.223	0.170
-188.158	486.522	0.067	0.152
-187.144	800.000	0.025	-0.089
-186.129	168.445	0.175	-0.248
-185.114	518.106	0.065	-0.153
-184.100	81.268	0.117	-0.126
-183.085	-200.000	-0.011	-0.124
-182.071	96.117	-0.117	0.133
-181.056	-53.771	0.190	-0.086
-180.042	337.014	-0.194	0.375
-179.027	-200.000	0.025	0.339
-178.012	287.815	0.060	-0.108
-176.998	-200.000	-0.001	0.130
-175.983	800.000	0.060	-0.205
-174.969	-0.712	-0.139	0.098
-173.954	-38.124	-0.152	0.080
-172.939	-14.819	0.198	0.126
-171.925	-45.631	0.122	-0.060
-170.910	658.915	-0.134	-0.343
-169.896	-200.000	-0.014	0.302
-168.881	-165.723	0.201	-0.009
-167.866	123.146	0.202	-0.252
-166.852	306.170	-0.057	-0.106
-165.837	800.000	-0.079	0.312
-164.823	-49.020	-0.088	-0.042
-163.808	-55.224	0.109	-0.049
-162.793	-133.967	-0.150	-0.018
-161.779	-69.663	-0.294	-0.112
-160.764	800.000	0.044	-0.172
-159.750	800.000	0.044	0.132
-158.735	-104.305	-0.185	0.043
-157.720	246.358	-0.183	0.307
-156.706	-26.051	0.221	0.129
-155.691	277.154	0.020	-0.035
-154.677	12.228	0.263	0.202
-153.662	-78.551	-0.278	0.095
-152.647	554.002	0.053	-0.127
-151.633	-19.183	-0.173	-0.107
-150.618	-135.201	0.145	-0.017
-149.604	-200.000	0.007	-0.110
-148.589	-172.606	0.146	0.005
-147.574	32.260	0.155	-0.133
-146.560	800.000	-0.103	0.398
-145.545	-119.395	-0.296	0.051
-144.531	-162.567	-0.119	-0.006
-143.516	150.319	-0.146	0.196
-142.502	800.000	0.069	0.232
-141.487	240.280	-0.106	0.176
-140.472	-200.000	0.107	-0.540
-139.458	-3.605	-0.352	-0.243
-138.443	-200.000	-0.009	0.132
-137.429	800.000	-0.083	-0.281
-136.414	-84.143	0.105	0.033
-135.399	-120.479	-0.035	0.006
-134.385	-55.786	0.112	-0.050
-133.370	-93.886	-0.260	-0.071
-132.356	800.000	0.094	0.296
-131.341	-53.213	-0.153	0.070
-130.326	800.000	-0.060	-0.183
-129.312	-96.014	0.215	0.057
-128.297	243.518	0.066	0.110
-127.283	-132.110	0.094	0.012
-126.268	-4.270	0.259	0.178
-125.253	-88.504	-0.100	0.030
-124.239	211.162	-0.134	0.209
-123.224	-200.000	-0.052	0.468
-122.210	800.000	-0.054	-0.219
-121.195	-200.000	-0.026	-0.200
-120.180	800.000	-0.053	0.152
-119.166	442.097	0.002	-0.004
-118.151	131.888	0.230	-0.293
-117.137	94.638	0.174	0.196
-116.122	800.000	-0.137	0.414
-115.107	639.777	-0.095	0.239
-114.093	800.000	-0.076	0.280
-113.078	-111.464	0.162	-0.033
-112.064	-200.000	0.004	0.173
-111.049	-132.449	0.265	0.034
-110.034	106.121	0.163	0.192
-109.020	-177.278	-0.151	0.004
-108.005	-90.903	-0.081	0.023
-106.991	63.672	0.272	-0.271
-105.976	-152.317	-0.102	-0.007
-104.962	-149.214	-0.301	0.024
-103.947	-128.379	-0.262	0.037
-102.932	-100.321	0.385	-0.095
-101.918	498.579	0.171	0.390
-100.903	-40.835	0.129	0.066
-99.889	-64.877	-0.230	-0.092
-98.874	-200.000	-0.040	0.192
-97.859	-200.000	0.012	-0.152
-96.845	77.847	-0.023	-0.024
-95.830	160.393	0.128	0.177
-94.816	-200.000	0.002	0.061
-93.801	96.898	0.099	0.112
-92.786	-200.000	0.044	-0.205
-91.772	249.967	0.172	-0.290
-90.757	469.233	-0.150	-0.335
-89.743	264.643	0.112	0.193
-88.728	-43.092	-0.319	0.160
-87.713	140.032	0.149	0.194
-86.699	49.983	0.364	0.341
-85.684	-175.094	0.150	0.004
-84.670	-30.182	0.197	0.111
-83.655	136.896	-0.101	0.131
-82.640	-36.237	0.052	-0.028
-81.626	-200.000	-0.031	0.300
-80.611	163.639	-0.102	0.142
-79.597	800.000	0.021	-0.084
-78.582	-97.489	-0.274	0.071
-77.567	-160.616	-0.297	0.016
-76.553	315.238	0.051	0.096
-75.538	-127.805	0.376	0.054
-74.524	89.875	0.277	0.307
-73.509	173.360	0.076	-0.108
-72.494	123.421	0.196	-0.243
-71.480	422.106	-0.111	0.237
-70.465	72.792	-0.038	0.039
-69.451	287.851	0.018	0.032
-68.436	-124.660	-0.351	0.054
-67.422	-143.708	-0.301	-0.028
-66.407	2.752	-0.288	0.207
-65.392	-195.191	0.243	-0.002
-64.378	340.165	0.129	0.249
-63.363	-81.747	0.200	0.065
-62.349	-21.536	-0.117	-0.071
-61.334	111.289	-0.762	-0.910
-60.319	17.555	0.548	0.432
-59.305	307.690	-0.299	-0.552
-58.290	368.010	0.483	0.967
-57.276	498.199	0.739	1.686
-56.261	-200.000	95.427	558.422
-55.246	539.886	1378.606	3248.643
-54.232	150.460	2596.639	3491.267
-53.217	113.495	2182.587	2623.547
-52.203	46.260	1634.709	1499.739
-51.188	38.066	1369.743	1206.237
-50.173	34.694	1327.422	1148.684
-49.159	55.822	1376.050	1320.588
-48.144	60.120	1394.067	1364.108
-47.130	38.410	1347.797	1188.812
-46.115	34.658	1330.071	1150.574
-45.100	34.483	1325.723	1145.720
-44.086	34.402	1323.329	1143.120
-43.071	34.359	1320.768	1140.602
-42.057	34.297	1319.077	1138.725
-41.042	34.338	1316.906	1137.050
-40.027	34.433	1315.511	1136.367
-39.013	34.358	1313.070	1133.771
-37.998	34.441	1311.290	1132.678
-36.984	34.475	1310.191	1131.885
-35.969	34.553	1307.943	1130.365
-34.954	34.620	1306.378	1129.364
-33.940	34.566	1305.397	1128.152
-32.925	34.640	1303.675	1127.052
-31.911	34.482	1302.447	1125.015
-30.896	34.522	1300.883	1123.857
-29.881	34.619	1299.298	1123.011
-28.867	34.655	1298.125	1122.166
-27.852	34.666	1296.225	1120.545
-26.838	34.602	1295.240	1119.269
-25.823	34.545	1293.931	1117.760
-24.809	34.572	1292.174	1116.358
-23.794	34.587	1291.101	1115.474
-22.779	34.703	1288.981	1114.273
-21.765	34.673	1288.032	1113.235
-20.750	34.669	1286.927	1112.211
-19.736	34.483	1285.520	1109.870
-18.721	34.437	1284.871	1108.999
-17.706	34.501	1283.128	1107.824
-16.692	34.454	1281.939	1106.478
-15.677	34.463	1281.057	1105.723
-14.663	34.468	1279.684	1104.526
-13.648	34.437	1278.582	1103.353
-12.633	34.420	1277.759	1102.498
-11.619	34.395	1276.940	1101.604
-10.604	34.290	1276.524	1100.598
-9.590	34.390	1275.299	1100.070
-8.575	34.388	1274.206	1099.075
-7.560	34.403	1273.279	1098.315
-6.546	34.306	1273.038	1097.509
-5.531	34.458	1271.358	1096.887
-4.517	34.420	1270.781	1096.133
-3.502	34.489	1269.812	1095.645
-2.487	34.402	1268.874	1094.298
-1.473	34.422	1265.102	1091.111
-0.458	33.529	1250.272	1073.226
0.556	30.536	1232.297	1038.224
1.571	27.168	1237.447	1023.543
2.586	26.316	1253.118	1031.552
3.600	25.167	1241.958	1015.772
4.615	18.022	1165.495	915.029
5.629	6.937	1085.499	796.567
6.644	2.183	1063.955	757.167
7.659	1.785	1060.901	752.962
8.673	1.591	1059.646	751.046
9.688	1.533	1058.631	749.977
10.702	1.902	1056.775	750.410
11.717	8.201	1066.656	788.577
12.731	19.010	1081.729	853.568
13.746	24.150	1088.327	884.285
14.761	25.138	1088.753	889.457
15.775	25.010	1088.713	888.710
16.790	24.821	1087.941	887.066
17.804	24.750	1087.185	886.017
18.819	24.930	1086.711	886.443
19.834	25.053	1086.474	886.783
20.848	25.005	1086.198	886.240
21.863	25.099	1085.612	886.151
22.877	24.913	1084.695	884.405
23.892	24.889	1083.885	883.549
24.907	24.927	1083.383	883.246
25.921	24.943	1082.383	882.433
26.936	24.842	1081.160	880.860
27.950	24.987	1078.840	879.604
28.965	24.712	1077.404	877.006
29.980	24.858	1075.611	876.185
30.994	25.099	1074.940	876.737
32.009	25.062	1074.175	875.856
33.023	24.857	1072.895	873.734
34.038	24.872	1071.924	872.939
35.053	25.077	1071.350	873.394
36.067	25.030	1070.592	872.470
37.082	25.036	1070.200	872.105
38.096	25.126	1069.228	871.673
39.111	25.249	1068.773	871.822
40.126	25.074	1067.124	869.552
41.140	24.762	1065.511	866.646
42.155	24.507	1064.495	864.509
43.169	24.546	1063.478	863.798
44.184	24.535	1062.677	863.018
45.199	24.519	1061.169	861.638
46.213	24.649	1060.199	861.398
47.228	24.902	1059.013	861.577
48.242	24.907	1059.169	861.652
49.257	24.932	1058.207	860.916
50.271	25.064	1057.440	860.850
51.286	25.039	1056.281	859.709
52.301	25.030	1055.459	858.918
53.315	25.010	1054.574	858.030
54.330	24.957	1053.686	856.978
55.344	25.049	1053.412	857.119
56.359	24.915	1052.106	855.337
57.374	24.728	1051.038	853.501
58.388	24.841	1050.233	853.312
59.403	24.736	1049.173	851.875
60.417	24.641	1048.334	850.668
61.432	24.633	1048.171	850.422
62.447	24.725	1047.983	850.633
63.461	24.791	1046.471	849.642
64.476	24.570	1045.248	847.527
65.490	24.608	1044.630	847.130
66.505	24.640	1044.093	846.773
67.520	24.639	1043.298	846.046
68.534	24.478	1042.295	844.395
69.549	24.036	1041.507	841.595
70.563	24.290	1040.264	841.713
71.578	24.230	1039.476	840.720
72.593	24.054	1038.462	838.997
73.607	24.070	1038.518	839.044
74.622	24.542	1037.856	840.655
75.636	24.613	1036.832	840.083
76.651	24.463	1035.648	838.347
77.666	24.261	1035.330	837.065
78.680	24.321	1035.043	837.041
79.695	24.514	1034.141	837.146
80.709	24.649	1033.358	837.066
81.724	24.521	1032.700	835.863
82.739	24.755	1031.442	835.863
83.753	25.076	1031.110	837.020
84.768	25.361	1030.684	837.929
85.782	25.416	1029.577	837.211
86.797	25.275	1028.305	835.448
87.812	25.063	1028.083	834.206
88.826	25.179	1027.114	833.887
89.841	25.173	1026.309	833.129
90.855	25.422	1024.769	832.964
91.870	25.339	1024.024	831.897
92.884	25.121	1022.898	829.900
93.899	25.059	1021.753	828.611
94.914	25.403	1020.942	829.470
95.928	25.218	1019.885	827.686
96.943	24.927	1019.157	825.678
97.957	24.697	1017.832	823.474
98.972	24.459	1016.877	821.531
99.987	24.739	1016.231	822.224
101.001	25.037	1015.065	822.579
102.016	24.957	1014.399	821.598
103.030	24.853	1013.491	820.312
104.045	24.808	1012.280	819.052
105.060	24.649	1011.655	817.750
106.074	24.828	1010.793	817.799
107.089	25.240	1010.273	819.187
108.103	25.051	1009.466	817.595
109.118	24.745	1008.478	815.331
110.133	24.870	1007.035	814.660
111.147	24.607	1006.327	812.820
112.162	24.512	1005.436	811.596
113.176	24.640	1005.091	811.828
114.191	24.686	1003.837	810.949
115.206	24.310	1002.707	808.263
116.220	24.285	1002.022	807.525
117.235	24.445	1000.784	807.179
118.249	24.399	1000.188	806.420
119.264	24.412	999.495	805.849
120.279	24.360	999.361	805.433
121.293	24.434	998.247	804.797
122.308	24.532	997.078	804.224
123.322	24.372	996.200	802.726
124.337	24.290	995.128	801.423
125.352	23.780	993.391	797.667
126.366	23.732	992.315	796.514
127.381	24.572	992.193	800.110
128.395	24.914	991.952	801.376
129.410	25.071	990.789	801.069
130.424	24.928	990.283	799.949
131.439	25.178	988.695	799.711
132.454	25.041	988.071	798.524
133.468	24.791	987.779	797.106
134.483	24.933	986.931	796.980
135.497	25.150	986.334	797.392
136.512	25.270	985.142	796.892
137.527	25.304	984.354	796.336
138.541	25.304	983.649	795.696
139.556	25.207	982.942	794.623
140.570	25.266	982.251	794.254
141.585	25.117	981.483	792.903
142.600	25.028	980.270	791.461
143.614	25.477	979.398	792.670
144.629	25.583	978.461	792.308
145.643	25.410	977.275	790.518
146.658	25.187	976.195	788.592
147.673	25.197	974.843	787.473
148.687	25.148	973.882	786.411
149.702	24.973	972.870	784.762
150.716	25.042	971.794	784.123
151.731	25.046	971.101	783.514
152.746	25.355	971.007	784.717
153.760	25.520	969.836	784.424
154.775	25.325	969.775	783.452
155.789	25.343	968.706	782.600
156.804	25.440	967.579	782.042
157.819	25.357	967.305	781.389
158.833	25.588	966.440	781.625
159.848	25.610	965.210	780.657
160.862	25.354	963.998	778.498
161.877	25.297	963.055	777.422
162.892	25.441	962.087	777.193
163.906	25.303	961.021	775.666
164.921	25.318	960.124	774.940
165.935	25.348	959.340	774.368
166.950	25.265	958.528	773.285
167.964	25.428	957.377	772.990
168.979	25.226	956.258	771.151
169.994	25.240	955.388	770.442
171.008	25.494	954.589	770.817
172.023	25.417	954.366	770.238
173.037	25.337	952.709	768.492
174.052	25.012	952.165	766.595
175.067	25.123	951.091	766.135
176.081	25.136	950.744	765.843
177.096	25.104	950.755	765.649
178.110	24.955	949.284	763.762
179.125	24.808	948.381	762.343
180.140	24.758	948.406	762.081
181.154	24.855	948.321	762.360
182.169	25.250	947.969	763.689
183.183	25.418	947.220	763.733
184.198	25.244	946.509	762.351
185.213	25.253	945.509	761.517
186.227	25.303	944.738	761.039
187.242	25.356	944.124	760.703
188.256	25.490	943.136	760.407
189.271	25.477	942.845	760.051
190.286	25.036	941.733	757.225
191.300	24.502	940.148	753.631
192.315	23.790	938.152	748.962
193.329	23.640	938.313	748.393
194.344	24.533	939.014	752.649
195.359	25.120	939.040	755.080
196.373	25.283	938.396	755.180
197.388	25.188	937.604	754.074
198.402	25.317	936.794	753.899
199.417	25.305	936.385	753.451
200.432	24.977	935.414	751.231
201.446	24.855	934.582	749.984
202.461	24.944	934.187	749.972
203.475	24.161	931.879	744.781
204.490	23.129	930.909	739.626
205.504	24.162	931.119	744.045
206.519	24.917	930.888	746.949
207.534	24.944	930.651	746.804
208.548	25.300	930.470	748.078
209.563	24.981	929.626	746.004
210.577	25.088	929.085	745.947
211.592	25.399	928.653	746.827
212.607	25.443	927.576	746.080
213.621	25.471	927.081	745.732
214.636	25.532	926.310	745.300
215.650	25.441	925.720	744.381
216.665	25.482	925.442	744.259
217.680	25.433	924.228	743.015
218.694	25.145	922.672	740.511
219.709	24.889	922.713	739.420
220.723	25.232	922.269	740.415
221.738	25.228	921.345	739.592
222.753	25.090	920.736	738.467
223.767	25.340	920.580	739.308
224.782	25.546	920.288	739.854
225.796	25.456	919.447	738.745
226.811	24.921	917.949	735.280
227.826	24.201	916.649	731.217
228.840	24.432	916.062	731.634
229.855	24.336	915.805	730.971
230.869	24.153	914.454	729.077
231.884	24.653	914.554	731.139
232.899	25.329	914.884	734.101
233.913	25.204	914.126	732.918
234.928	25.197	913.336	732.192
235.942	25.213	912.315	731.375
236.957	24.773	911.867	729.159
237.972	24.939	911.163	729.204
238.986	24.948	910.644	728.763
240.001	24.959	910.110	728.313
241.015	25.050	909.497	728.128
242.030	25.100	909.547	728.308
243.045	25.205	908.800	728.071
244.059	25.378	908.580	728.535
245.074	25.309	907.390	727.235
246.088	24.803	906.642	724.523
247.103	25.202	905.864	725.450
248.117	25.781	905.832	727.704
249.132	25.973	905.699	728.306
250.147	26.010	905.129	727.931
251.161	26.212	904.749	728.378
252.176	26.215	904.460	728.091
253.190	26.081	903.814	726.967
254.205	26.383	903.227	727.646
255.220	26.187	902.680	726.354
256.234	26.140	901.908	725.478
257.249	26.116	900.627	724.287
258.263	26.189	900.029	724.037
259.278	26.276	899.569	723.949
260.293	26.236	899.099	723.349
261.307	26.082	898.427	722.129
262.322	25.937	897.621	720.838
263.336	25.111	895.899	716.090
264.351	24.247	893.381	710.571
265.366	24.249	893.503	710.613
266.380	25.424	894.048	715.669
267.395	25.881	893.544	717.022
268.409	25.738	893.167	716.085
269.424	25.963	892.954	716.746
270.439	25.910	891.960	715.675
271.453	26.027	891.496	715.706
272.468	26.127	891.184	715.785
273.482	26.143	891.012	715.647
274.497	25.793	889.561	713.033
275.512	25.476	888.875	711.169
276.526	25.785	888.716	712.198
277.541	26.027	888.455	712.883
278.555	25.681	887.383	710.595
279.570	25.748	886.460	710.059
280.585	25.851	885.858	709.917
281.599	25.705	885.194	708.748
282.614	25.188	883.919	705.633
283.628	25.085	883.372	704.727
284.643	25.614	882.692	706.200
285.657	25.228	881.900	703.987
286.672	24.948	881.035	702.139
287.687	25.392	881.655	704.311
288.701	25.510	880.655	703.915
289.716	25.207	879.824	702.000
290.730	25.168	879.301	701.370
291.745	24.955	878.130	699.540
292.760	25.204	878.082	700.415
293.774	26.198	878.416	704.499
294.789	26.502	877.809	705.134
295.803	26.493	877.743	704.982
296.818	26.724	876.854	705.105
297.833	26.057	875.460	701.331
298.847	25.901	875.140	700.406
299.862	26.290	874.891	701.657
300.876	26.463	874.833	702.218
301.891	26.350	873.743	700.845
302.906	26.010	872.842	698.741
303.920	26.198	872.691	699.288
304.935	26.566	872.030	700.121
305.949	26.380	871.536	698.942
306.964	26.050	871.008	697.181
307.979	26.254	870.332	697.365
308.993	26.705	870.324	699.039
310.008	26.658	869.691	698.286
311.022	26.252	869.294	696.343
312.037	26.152	868.292	695.091
313.052	25.961	867.482	693.649
314.066	25.195	865.444	689.017
315.081	24.690	864.988	686.654
316.095	25.624	865.393	690.501
317.110	26.054	865.167	691.907
318.125	25.227	863.831	687.609
319.139	24.171	862.030	682.074
320.154	24.190	861.654	681.791
321.168	25.211	862.164	686.040
322.183	25.930	862.415	688.927
323.197	26.049	861.862	688.880
324.212	26.227	861.652	689.331
325.227	26.284	861.186	689.113
326.241	26.182	860.042	687.748
327.256	25.935	859.879	686.619
328.270	25.830	859.092	685.529
329.285	25.864	858.101	684.808
330.300	25.575	857.060	682.819
331.314	25.822	856.664	683.380
332.329	26.294	856.698	685.136
333.343	26.421	856.591	685.473
334.358	26.398	856.133	684.955
335.373	26.327	856.366	684.815
336.387	26.746	855.719	685.822
337.402	26.773	855.901	686.010
338.416	26.835	854.885	685.370
339.431	26.831	854.861	685.272
340.446	27.037	854.497	685.700
341.460	26.867	853.943	684.552
342.475	26.646	853.317	683.158
343.489	26.791	852.796	683.226
344.504	26.992	852.743	683.879
345.519	27.176	852.639	684.428
346.533	27.189	851.896	683.821
347.548	27.124	851.426	683.140
348.562	27.116	851.046	682.743
349.577	26.981	850.169	681.473
350.592	27.054	849.743	681.343
351.606	27.045	849.063	680.703
352.621	27.045	847.836	679.662
353.635	27.018	847.114	678.919
354.650	26.258	845.340	674.603
355.665	25.408	843.818	670.160
356.679	25.841	843.583	671.529
357.694	26.245	843.499	672.908
358.708	26.155	842.782	671.940
359.723	26.426	843.279	673.285
360.738	26.791	842.335	673.830
361.752	26.875	842.303	674.056
362.767	27.195	842.062	674.991
363.781	27.395	841.530	675.248
364.796	27.571	841.278	675.640
365.810	27.630	840.583	675.241
366.825	27.663	840.253	675.037
367.840	27.283	839.387	672.875
368.854	26.817	838.353	670.264
369.869	26.790	838.111	669.913
370.883	26.966	837.659	670.141
371.898	26.789	837.471	669.279
372.913	26.935	837.324	669.639
373.927	26.958	836.765	669.221
374.942	27.133	836.336	669.463
375.956	27.389	835.376	669.574
376.971	27.341	835.732	669.624
377.986	27.513	835.402	669.935
379.000	27.444	834.756	669.104
380.015	27.206	833.949	667.522
381.029	27.347	833.397	667.540
382.044	27.393	832.849	667.210
383.059	27.492	832.330	667.098
384.073	27.384	831.967	666.351
385.088	27.381	831.173	665.649
386.102	27.188	830.309	664.192
387.117	27.123	829.663	663.378
388.132	26.819	828.170	661.017
389.146	26.367	827.241	658.572
390.161	26.722	827.598	660.089
391.175	27.311	827.185	661.848
392.190	26.790	826.120	659.045
393.205	25.354	824.052	652.123
394.219	23.931	822.427	645.619
395.234	23.979	821.996	645.397
396.248	25.594	823.674	652.522
397.263	27.014	824.409	658.200
398.278	27.035	824.001	657.890
399.292	26.784	823.300	656.366
400.307	26.661	822.805	655.468
401.321	26.891	822.670	656.132
402.336	27.199	822.434	657.001
403.350	27.650	822.257	658.429
404.365	28.014	822.267	659.692
405.380	28.175	821.839	659.872
406.394	28.258	821.368	659.735
407.409	28.128	820.761	658.721
408.423	28.170	820.346	658.482
409.438	28.150	820.402	658.396
410.453	28.235	819.431	657.862
411.467	28.246	819.097	657.575
412.482	28.052	818.882	656.650
413.496	28.334	818.285	657.125
414.511	28.250	817.812	656.387
415.526	28.287	816.856	655.693
416.540	28.176	816.494	654.945
417.555	27.919	816.204	653.736
418.569	27.906	815.709	653.234
419.584	27.944	814.814	652.596
420.599	27.697	814.220	651.182
421.613	106.195	1282.866	1443.221
422.628	91.775	1351.149	1443.337
