DTS Sentinel unit serial number:	SN413079Multiplexer serial number:	ORYXHardware model number:	OX4-SRSoftware version number:	ORYX F/W v4.00 Oryx Data Collector v3.7.2.0data status	okinstallation	princeton_trtdifferential loss correction	single-endedforward channel	channel 1reverse channel	N/Adate	2019/09/15time	07:58:35forward acquisition time	60.00reverse acquisition time	0.00gamma	496.2192k internal	0.2324k external	0.2324temperature offset calibration	1.0001default loss term (dB/km)	0.3790temperature slope calibration	1.0000multiplexer offset coefficient	1.0000multiplexer slope coefficient	1.0000fibre end	0.00T internal ref (°C)	30.75T ext. ref 1 (°C)	4.99T ext. ref 2 (°C)	26.38length (m)	temperature (°C)	Stokes	anti-Stokes-747.200	-200.000	-0.002	0.147
-746.185	187.751	0.161	0.242
-745.171	64.067	-0.181	-0.183
-744.156	-27.325	-0.227	0.133
-743.142	136.386	0.116	0.153
-742.127	-42.450	0.396	0.204
-741.112	-35.754	-0.271	0.148
-740.098	-95.243	-0.146	-0.040
-739.083	261.420	-0.080	0.140
-738.069	120.470	-0.123	0.154
-737.054	505.642	0.041	-0.097
-736.039	386.258	-0.178	-0.370
-735.025	519.933	-0.047	0.111
-734.010	-98.532	-0.236	0.061
-732.996	-200.000	0.008	-0.245
-731.981	-69.341	0.077	-0.030
-730.966	-200.000	0.006	-0.190
-729.952	47.855	-0.147	0.138
-728.937	58.897	-0.167	-0.165
-727.923	-200.000	0.036	-0.322
-726.908	-56.359	-0.173	0.077
-725.894	-200.000	0.001	0.021
-724.879	799.989	-0.058	0.163
-723.864	-200.000	-0.007	-0.175
-722.850	152.926	0.058	-0.080
-721.835	78.174	-0.157	-0.169
-720.821	-20.965	-0.284	0.175
-719.806	33.727	0.200	0.176
-718.791	337.487	0.036	-0.072
-717.777	-82.326	-0.161	-0.053
-716.762	106.976	0.175	-0.210
-715.748	-116.131	-0.247	0.046
-714.733	-62.095	-0.608	0.256
-713.718	-200.000	-0.021	-0.178
-712.704	-50.341	-0.148	0.070
-711.689	392.558	-0.084	0.177
-710.675	282.461	-0.087	-0.157
-709.660	179.664	-0.180	-0.266
-708.645	-19.488	-0.261	-0.163
-707.631	287.816	-0.037	-0.068
-706.616	49.783	0.231	-0.220
-705.602	-62.545	0.260	0.109
-704.587	-32.989	0.175	0.098
-703.572	304.625	0.201	-0.375
-702.558	339.648	0.108	-0.213
-701.543	454.972	0.176	-0.392
-700.529	387.924	0.131	-0.272
-699.514	3.106	0.167	0.122
-698.499	219.532	0.087	0.140
-697.485	721.793	-0.064	-0.173
-696.470	36.687	-0.037	0.033
-695.456	-94.203	0.413	0.114
-694.441	-200.000	0.006	-0.419
-693.426	-27.803	-0.296	-0.173
-692.412	800.000	0.054	0.177
-691.397	-123.047	-0.174	0.028
-690.383	493.990	-0.113	-0.262
-689.368	-48.693	-0.321	-0.155
-688.354	613.724	-0.139	0.350
-687.339	28.598	-0.108	-0.092
-686.324	-59.265	0.192	-0.083
-685.310	-126.288	-0.373	0.056
-684.295	353.350	-0.026	0.052
-683.281	88.427	-0.124	0.138
-682.266	-0.388	0.099	0.071
-681.251	-200.000	0.009	0.140
-680.237	-200.000	-0.012	0.069
-679.222	251.484	0.049	-0.083
-678.208	-51.793	-0.270	-0.126
-677.193	106.509	0.226	-0.270
-676.178	-159.571	-0.133	0.007
-675.164	-119.006	0.398	0.070
-674.149	-196.544	-0.220	0.001
-673.135	498.883	0.088	-0.204
-672.120	-166.491	-0.237	0.010
-671.105	800.000	-0.044	-0.138
-670.091	179.678	0.082	-0.121
-669.076	-200.000	0.073	-0.452
-668.062	366.034	-0.142	-0.288
-667.047	-46.405	0.257	-0.127
-666.032	529.115	-0.014	0.034
-665.018	494.361	-0.065	0.150
-664.003	-119.391	-0.025	-0.004
-662.989	-41.711	0.255	-0.132
-661.974	43.802	-0.100	0.092
-660.959	-41.763	-0.272	-0.140
-659.945	-120.176	-0.225	-0.039
-658.930	-62.198	-0.138	-0.058
-657.916	55.044	0.146	0.142
-656.901	9.726	-0.220	-0.168
-655.886	-15.880	-0.234	-0.150
-654.872	-17.177	-0.266	-0.169
-653.857	-81.625	0.133	-0.044
-652.843	-91.769	0.053	-0.015
-651.828	-29.993	0.166	0.095
-650.814	8.317	-0.262	0.198
-649.799	112.401	0.054	0.066
-648.784	-200.000	-0.006	0.270
-647.770	304.888	-0.112	0.210
-646.755	-32.084	-0.435	0.245
-645.741	-61.381	-0.169	0.071
-644.726	-22.180	0.188	-0.115
-643.711	696.211	0.065	0.172
-642.697	-127.616	0.311	0.045
-641.682	-72.527	0.127	0.047
-640.668	-61.415	-0.185	0.078
-639.653	131.922	0.093	0.120
-638.638	-200.000	-0.331	-0.001
-637.624	-55.901	-0.117	0.053
-636.609	433.877	0.069	-0.151
-635.595	123.100	0.169	-0.213
-634.580	74.388	-0.190	-0.200
-633.565	-200.000	-0.030	-0.153
-632.551	242.888	-0.098	-0.165
-631.536	102.011	0.083	-0.098
-630.522	42.844	-0.080	-0.073
-629.507	-34.954	0.249	-0.137
-628.492	-29.196	0.220	-0.127
-627.478	141.535	-0.104	-0.138
-626.463	118.578	-0.122	0.152
-625.449	298.871	-0.088	0.162
-624.434	-133.067	-0.253	0.032
-623.419	-57.909	-0.216	0.095
-622.405	-200.000	-0.025	0.290
-621.390	-200.000	0.030	0.152
-620.376	-33.624	-0.191	0.106
-619.361	-146.532	-0.300	-0.026
-618.346	-91.265	0.155	0.045
-617.332	283.473	-0.141	0.255
-616.317	800.000	0.060	-0.242
-615.303	331.214	-0.159	0.307
-614.288	-52.484	0.227	-0.105
-613.273	362.118	-0.086	-0.173
-612.259	-200.000	0.011	-0.340
-611.244	58.773	0.099	-0.098
-610.230	73.926	0.204	0.215
-609.215	59.081	-0.200	-0.198
-608.201	-135.877	-0.224	-0.027
-607.186	-128.133	-0.437	0.063
-606.171	532.765	0.092	-0.218
-605.157	409.958	0.063	-0.134
-604.142	800.000	0.081	0.259
-603.128	800.000	-0.061	0.256
-602.113	377.473	-0.054	0.111
-601.098	-200.000	-0.015	0.159
-600.084	239.482	-0.142	-0.238
-599.069	-69.845	0.301	-0.115
-598.055	-92.955	-0.143	0.040
-597.040	-113.653	-0.417	-0.082
-596.025	-12.753	0.261	-0.171
-595.011	-112.109	-0.133	0.027
-593.996	-18.994	-0.265	0.165
-592.982	-200.000	0.034	-0.336
-591.967	-99.910	0.281	0.070
-590.952	-55.232	0.051	0.023
-589.938	-9.213	-0.371	0.249
-588.923	112.013	0.065	0.078
-587.909	174.298	-0.167	-0.243
-586.894	-45.111	0.260	-0.130
-585.879	-17.951	-0.190	0.119
-584.865	-55.476	-0.252	0.114
-583.850	445.177	-0.154	-0.340
-582.836	51.463	-0.152	-0.145
-581.821	-200.000	0.005	-0.026
-580.806	-121.736	0.130	0.022
-579.792	800.000	-0.048	-0.140
-578.777	-200.000	0.081	-0.375
-577.763	68.330	0.076	-0.078
-576.748	343.916	0.065	-0.127
-575.733	-112.508	-0.453	0.091
-574.719	127.432	0.413	0.525
-573.704	45.458	-0.182	0.168
-572.690	800.000	-0.054	0.185
-571.675	147.551	-0.259	-0.350
-570.661	-132.994	0.199	0.025
-569.646	800.000	0.050	-0.179
-568.631	-177.847	-0.111	-0.003
-567.617	-7.055	0.051	0.035
-566.602	-36.241	-0.180	0.097
-565.588	73.498	-0.141	0.148
-564.573	746.434	-0.024	0.065
-563.558	-200.000	0.040	-0.192
-562.544	434.123	0.055	-0.121
-561.529	-200.000	-0.000	0.062
-560.515	-130.762	0.088	-0.012
-559.500	-55.696	0.073	0.033
-558.485	-79.391	-0.138	0.047
-557.471	800.000	-0.014	0.052
-556.456	-76.208	0.076	-0.027
-555.442	312.875	0.136	0.256
-554.427	-68.594	-0.067	-0.026
-553.412	509.968	0.128	0.298
-552.398	-19.818	0.253	0.157
-551.383	514.780	0.088	-0.206
-550.369	-71.201	-0.362	0.136
-549.354	-200.000	0.016	0.329
-548.339	-159.844	0.159	0.009
-547.325	35.702	-0.252	-0.222
-546.310	398.689	-0.160	-0.336
-545.296	-200.000	-0.002	-0.209
-544.281	-73.775	-0.566	-0.206
-543.266	-200.000	0.001	-0.153
-542.252	-14.335	0.133	-0.085
-541.237	1.810	0.197	0.142
-540.223	-200.000	0.062	-0.344
-539.208	-200.000	-0.026	-0.358
-538.193	-75.197	-0.473	0.169
-537.179	107.937	-0.223	0.266
-536.164	-131.728	0.322	-0.042
-535.150	-3.727	0.102	-0.071
-534.135	123.630	-0.157	0.197
-533.121	-15.663	0.138	-0.088
-532.106	0.988	0.149	-0.107
-531.091	-40.042	-0.104	-0.054
-530.077	-200.000	0.012	-0.214
-529.062	800.000	-0.038	0.108
-528.048	800.000	0.066	0.201
-527.033	-62.546	0.325	-0.135
-526.018	59.939	0.141	-0.140
-525.004	-200.000	0.033	-0.253
-523.989	-28.583	0.106	-0.061
-522.975	72.707	0.185	-0.193
-521.960	-200.000	-0.008	-0.162
-520.945	41.733	-0.180	-0.163
-519.931	24.905	0.259	-0.215
-518.916	-117.480	-0.302	0.055
-517.902	218.504	0.045	0.072
-516.887	-50.637	0.196	-0.093
-515.872	-163.453	0.059	0.003
-514.858	-76.019	0.115	-0.041
-513.843	299.062	0.147	0.270
-512.829	-39.855	0.060	0.031
-511.814	-200.000	-0.016	0.102
-510.799	-200.000	0.008	-0.139
-509.785	800.000	-0.016	-0.049
-508.770	4.279	0.230	-0.169
-507.756	-124.637	0.041	-0.006
-506.741	5.354	-0.182	-0.134
-505.726	-41.566	-0.131	0.067
-504.712	-48.508	0.350	-0.169
-503.697	708.102	0.116	-0.305
-502.683	-113.202	0.316	-0.062
-501.668	-92.668	0.070	0.020
-500.653	-51.415	-0.151	-0.070
-499.639	-22.153	-0.139	-0.084
-498.624	280.320	-0.171	0.306
-497.610	-200.000	0.025	0.172
-496.595	149.731	0.131	0.177
-495.581	495.940	0.077	-0.178
-494.566	81.684	0.102	-0.110
-493.551	567.736	-0.161	0.392
-492.537	42.808	0.106	-0.097
-491.522	-200.000	-0.010	-0.217
-490.508	-200.000	0.009	-0.077
-489.493	-200.000	-0.037	-0.168
-488.478	227.273	-0.025	0.041
-487.464	-200.000	-0.062	0.295
-486.449	52.099	-0.221	0.210
-485.435	-59.951	0.154	0.066
-484.420	-11.452	-0.262	-0.172
-483.405	-200.000	-0.001	0.024
-482.391	-36.282	-0.053	-0.029
-481.376	396.550	0.026	0.055
-480.362	-200.000	-0.008	-0.162
-479.347	-148.284	0.184	-0.015
-478.332	-22.281	-0.318	-0.193
-477.318	-200.000	0.012	0.185
-476.303	800.000	-0.074	-0.221
-475.289	-200.000	0.010	0.068
-474.274	-43.868	0.265	0.133
-473.259	800.000	0.054	0.183
-472.245	10.369	-0.410	-0.312
-471.230	64.458	0.026	-0.026
-470.216	-106.339	-0.177	0.040
-469.201	120.319	-0.116	-0.143
-468.186	114.162	-0.071	-0.086
-467.172	-176.933	-0.165	0.004
-466.157	217.590	-0.093	-0.148
-465.143	-107.794	-0.350	-0.076
-464.128	3.814	0.190	-0.139
-463.113	-23.743	-0.102	0.061
-462.099	-51.467	-0.259	0.121
-461.084	-145.549	0.295	0.026
-460.070	-11.443	0.063	0.041
-459.055	-200.000	0.002	0.238
-458.040	-95.923	0.170	-0.045
-457.026	-59.928	0.023	0.010
-456.011	-11.844	-0.056	-0.036
-454.997	-200.000	0.015	0.267
-453.982	399.614	0.116	-0.242
-452.968	670.370	-0.129	-0.335
-451.953	-200.000	0.002	0.312
-450.938	-200.000	-0.013	0.174
-449.924	322.686	0.226	0.430
-448.909	-200.000	0.047	-0.238
-447.895	27.271	-0.161	0.135
-446.880	-111.069	0.309	0.063
-445.865	-127.312	0.119	-0.017
-444.851	200.197	0.056	-0.086
-443.836	800.000	-0.062	-0.210
-442.822	193.352	-0.173	-0.261
-441.807	-200.000	0.038	0.227
-440.792	1.145	0.249	0.178
-439.778	25.922	0.271	-0.226
-438.763	20.042	-0.047	-0.038
-437.749	-88.129	0.336	-0.100
-436.734	41.556	-0.251	-0.227
-435.719	-63.579	0.355	-0.145
-434.705	-200.000	-0.047	-0.232
-433.690	283.993	-0.109	0.196
-432.676	69.561	0.028	-0.029
-431.661	596.577	-0.029	-0.071
-430.646	-157.118	-0.262	-0.016
-429.632	176.433	0.099	0.144
-428.617	-51.285	-0.201	-0.094
-427.603	173.808	0.147	0.212
-426.588	-54.909	0.173	0.078
-425.573	230.640	0.062	-0.101
-424.559	-48.067	-0.213	-0.102
-423.544	31.340	0.252	-0.216
-422.530	-47.458	0.091	-0.044
-421.515	198.969	0.060	0.091
-420.500	90.684	0.015	-0.017
-419.486	40.030	-0.156	-0.140
-418.471	-74.520	-0.339	-0.122
-417.457	800.000	-0.036	0.118
-416.442	-51.487	-0.060	0.028
-415.428	-200.000	-0.007	-0.058
-414.413	-7.780	0.192	0.129
-413.398	-200.000	-0.060	-0.325
-412.384	47.795	0.168	0.156
-411.369	315.642	0.056	0.106
-410.355	800.000	0.039	-0.134
-409.340	52.790	-0.312	-0.298
-408.325	-111.279	0.147	0.030
-407.311	474.795	-0.110	0.248
-406.296	18.148	0.086	-0.068
-405.282	-200.000	0.062	-0.383
-404.267	-6.384	0.165	-0.112
-403.252	800.000	-0.035	0.114
-402.238	59.331	-0.103	0.101
-401.223	-76.145	0.139	-0.049
-400.209	45.867	0.069	-0.064
-399.194	545.816	-0.107	0.254
-398.179	-200.000	-0.026	0.133
-397.165	-86.789	0.113	-0.034
-396.150	-200.000	0.072	-0.523
-395.136	70.128	0.213	-0.219
-394.121	-132.814	-0.172	0.022
-393.106	-124.868	-0.182	0.028
-392.092	97.307	0.245	0.281
-391.077	-65.208	0.189	0.076
-390.063	800.000	-0.037	-0.110
-389.048	800.000	0.159	-0.442
-388.033	-200.000	0.011	-0.123
-387.019	-50.791	0.315	0.147
-386.004	436.792	-0.159	-0.344
-384.990	390.507	-0.043	0.089
-383.975	-14.114	0.154	0.099
-382.960	278.739	-0.126	0.223
-381.946	-110.820	-0.245	0.050
-380.931	721.111	-0.091	0.242
-379.917	-127.223	-0.273	0.040
-378.902	-146.184	-0.195	0.017
-377.888	-75.378	0.133	0.047
-376.873	284.803	0.135	-0.242
-375.858	-131.546	-0.169	-0.022
-374.844	191.094	-0.159	-0.238
-373.829	-91.409	-0.207	-0.059
-372.815	306.880	0.075	-0.140
-371.800	152.766	-0.026	0.035
-370.785	33.166	-0.225	-0.194
-369.771	-200.000	-0.038	0.483
-368.756	-200.000	0.006	-0.137
-367.742	-112.360	-0.059	0.012
-366.727	34.780	0.036	-0.032
-365.712	-86.624	-0.264	0.081
-364.698	800.000	0.054	-0.209
-363.683	19.633	0.387	0.310
-362.669	481.618	-0.127	0.287
-361.654	115.448	0.137	-0.166
-360.639	-103.113	0.213	-0.050
-359.625	800.000	0.062	0.206
-358.610	220.745	0.090	0.144
-357.596	-74.214	-0.233	-0.084
-356.581	-117.620	-0.428	0.077
-355.566	144.550	-0.095	0.126
-354.552	-141.115	0.250	-0.025
-353.537	800.000	-0.073	-0.254
-352.523	-18.075	0.290	-0.181
-351.508	-98.160	0.170	0.043
-350.493	165.739	0.124	-0.174
-349.479	590.418	0.019	-0.046
-348.464	90.312	0.185	-0.205
-347.450	-200.000	0.014	0.093
-346.435	1.851	0.091	0.065
-345.420	800.000	-0.106	0.390
-344.406	800.000	0.027	-0.104
-343.391	268.003	-0.034	0.060
-342.377	-200.000	-0.007	0.057
-341.362	19.820	-0.249	0.199
-340.348	77.202	0.032	0.034
-339.333	-179.615	-0.323	0.007
-338.318	-53.904	0.199	-0.090
-337.304	-36.286	0.063	0.034
-336.289	-196.638	-0.202	0.001
-335.275	800.000	-0.112	0.381
-334.260	-200.000	-0.071	0.399
-333.245	-99.811	0.158	-0.039
-332.231	800.000	0.037	0.158
-331.216	-31.897	-0.221	-0.123
-330.202	-200.000	-0.026	0.400
-329.187	72.581	0.270	0.279
-328.172	-89.668	-0.346	-0.101
-327.158	-158.096	-0.130	0.008
-326.143	40.926	-0.046	-0.041
-325.129	207.272	-0.269	0.416
-324.114	800.000	-0.063	0.270
-323.099	-157.433	0.251	-0.015
-322.085	-200.000	0.033	0.299
-321.070	-107.468	-0.087	-0.019
-320.056	800.000	0.043	-0.159
-319.041	-102.478	-0.167	0.040
-318.026	800.000	-0.024	0.072
-317.012	-12.264	0.203	0.132
-315.997	800.000	0.068	0.195
-314.983	110.002	0.054	-0.065
-313.968	-200.000	0.004	0.174
-312.953	251.428	-0.183	0.309
-311.939	88.527	0.132	0.145
-310.924	-109.112	-0.221	0.047
-309.910	-200.000	0.008	0.050
-308.895	152.536	-0.117	-0.159
-307.880	-41.513	-0.078	0.040
-306.866	-160.458	-0.207	0.011
-305.851	-28.326	-0.282	-0.162
-304.837	-122.872	-0.245	0.039
-303.822	4.180	-0.129	0.094
-302.807	-149.917	0.362	0.028
-301.793	-200.000	0.071	-0.311
-300.778	-41.093	-0.194	0.099
-299.764	-89.149	0.304	-0.089
-298.749	-200.000	-0.027	0.248
-297.735	122.894	-0.069	0.085
-296.720	164.960	0.117	-0.164
-295.705	-24.126	0.062	-0.037
-294.691	800.000	-0.048	0.171
-293.676	55.440	-0.034	0.032
-292.662	-12.743	-0.142	-0.092
-291.647	165.866	0.064	-0.090
-290.632	800.000	-0.056	-0.198
-289.618	60.735	-0.088	-0.087
-288.603	121.136	0.209	0.258
-287.589	30.338	0.328	0.277
-286.574	-86.203	0.194	0.059
-285.559	-77.044	0.330	-0.114
-284.545	236.532	0.146	-0.240
-283.530	-191.937	-0.216	0.002
-282.516	-176.029	0.413	0.011
-281.501	86.708	-0.208	-0.228
-280.486	393.753	-0.080	-0.166
-279.472	-31.700	-0.429	0.239
-278.457	-200.000	0.012	0.265
-277.443	-200.000	-0.016	0.117
-276.428	309.582	-0.160	-0.297
-275.413	144.152	-0.052	-0.069
-274.399	-124.953	-0.314	0.048
-273.384	-81.670	0.116	-0.038
-272.370	301.029	0.156	0.286
-271.355	-200.000	0.069	0.333
-270.340	-12.915	0.282	-0.182
-269.326	-166.779	0.450	0.018
-268.311	800.000	0.108	-0.426
-267.297	-126.455	0.132	0.019
-266.282	-68.100	0.030	0.012
-265.267	-35.062	0.377	0.203
-264.253	-47.976	0.110	-0.053
-263.238	-200.000	0.002	0.258
-262.224	-116.120	0.109	-0.020
-261.209	-65.801	-0.366	0.145
-260.195	-140.798	-0.272	-0.028
-259.180	303.611	0.088	-0.162
-258.165	634.346	-0.159	-0.400
-257.151	-74.097	0.215	0.077
-256.136	800.000	0.056	-0.158
-255.122	177.609	0.095	0.136
-254.107	-116.335	0.297	0.054
-253.092	56.853	0.133	0.128
-252.078	155.129	-0.102	-0.139
-251.063	3.959	0.236	0.171
-250.049	279.459	-0.083	-0.146
-249.034	-200.000	-0.075	0.333
-248.019	281.979	0.132	-0.234
-247.005	102.348	-0.092	-0.107
-245.990	-102.619	0.262	0.062
-244.976	119.579	0.064	-0.078
-243.961	42.094	0.023	-0.021
-242.946	800.000	-0.070	-0.247
-241.932	-5.975	0.157	0.106
-240.917	341.221	0.098	0.189
-239.903	-135.182	0.207	0.025
-238.888	-6.979	-0.096	-0.065
-237.873	-200.000	0.032	0.279
-236.859	16.581	0.238	0.186
-235.844	636.030	-0.124	-0.311
-234.830	645.160	0.057	0.145
-233.815	-111.196	0.550	-0.111
-232.800	-200.000	-0.005	-0.342
-231.786	-128.995	-0.186	-0.026
-230.771	-138.241	0.336	-0.037
-229.757	363.430	0.032	0.064
-228.742	-25.341	0.169	0.099
-227.727	-22.900	-0.205	-0.123
-226.713	10.574	-0.089	-0.067
-225.698	-108.661	-0.230	-0.049
-224.684	-25.653	-0.142	0.083
-223.669	-107.334	-0.301	0.065
-222.655	-49.213	-0.271	0.128
-221.640	74.125	0.102	0.106
-220.625	-62.066	-0.041	0.017
-219.611	-127.842	0.280	-0.040
-218.596	-158.266	-0.126	0.007
-217.582	22.448	0.205	0.166
-216.567	-200.000	0.314	-0.000
-215.552	-200.000	0.001	0.122
-214.538	-101.263	-0.049	-0.012
-213.523	800.000	0.076	-0.318
-212.509	-98.144	-0.192	0.049
-211.494	-193.832	-0.338	-0.003
-210.479	-200.000	-0.046	-0.218
-209.465	98.882	-0.171	-0.195
-208.450	122.685	0.211	-0.261
-207.436	-13.315	0.158	0.101
-206.421	-36.215	-0.316	0.168
-205.406	-73.428	0.331	0.120
-204.392	-157.923	-0.427	0.025
-203.377	303.548	-0.169	-0.309
-202.363	-166.520	0.345	0.014
-201.348	113.236	-0.031	-0.037
-200.333	-48.399	-0.340	-0.162
-199.319	-5.290	-0.230	-0.156
-198.304	800.000	0.026	-0.100
-197.290	154.998	-0.241	0.327
-196.275	-174.865	0.048	0.001
-195.260	211.806	0.173	-0.269
-194.246	-200.000	0.049	0.313
-193.231	-150.280	0.354	0.027
-192.217	-59.074	-0.328	0.140
-191.202	-106.204	-0.042	0.009
-190.187	429.965	0.126	0.270
-189.173	-100.714	-0.062	0.015
-188.158	149.169	0.137	0.183
-187.144	131.755	-0.066	0.084
-186.129	-200.000	0.021	-0.121
-185.114	-200.000	0.019	0.350
-184.100	-148.813	-0.189	-0.015
-183.085	-149.174	-0.081	-0.006
-182.071	293.526	0.118	0.213
-181.056	-200.000	0.083	0.437
-180.042	135.483	0.203	-0.261
-179.027	-79.539	0.186	0.062
-178.012	800.000	-0.020	0.070
-176.998	-82.845	0.103	-0.033
-175.983	79.369	-0.098	-0.104
-174.969	141.772	0.137	0.180
-173.954	13.581	0.197	0.151
-172.939	-200.000	0.045	-0.388
-171.925	-200.000	-0.006	0.120
-170.910	800.000	0.034	0.100
-169.896	57.787	-0.052	0.050
-168.881	-200.000	0.015	-0.359
-167.866	-70.951	-0.184	-0.069
-166.852	-34.670	0.155	0.084
-165.837	800.000	-0.052	0.221
-164.823	-200.000	0.036	0.355
-163.808	59.703	-0.231	0.225
-162.793	-200.000	0.049	-0.224
-161.779	-200.000	0.003	0.054
-160.764	-156.905	0.285	0.017
-159.750	-200.000	-0.002	0.092
-158.735	172.393	0.106	-0.151
-157.720	-76.526	-0.149	-0.052
-156.706	8.456	0.298	-0.221
-155.691	10.642	0.211	-0.159
-154.677	201.672	0.173	-0.263
-153.662	800.000	-0.061	0.212
-152.647	-39.697	-0.045	-0.023
-151.633	-27.816	0.028	-0.016
-150.618	-98.723	-0.195	-0.049
-149.604	76.171	0.092	0.096
-148.589	-142.344	-0.145	0.014
-147.574	197.576	-0.084	-0.127
-146.560	-200.000	-0.009	-0.576
-145.545	-200.000	0.001	-0.134
-144.531	-87.595	0.248	0.074
-143.516	126.855	0.312	-0.390
-142.502	800.000	0.040	-0.124
-141.487	-28.708	-0.054	0.031
-140.472	-51.097	-0.077	-0.036
-139.458	39.498	-0.205	0.181
-138.443	24.395	0.267	-0.218
-137.429	800.000	0.141	-0.462
-136.414	-97.590	0.228	0.058
-135.399	250.803	-0.137	0.229
-134.385	-141.594	-0.058	0.006
-133.370	180.901	0.124	-0.180
-132.356	-200.000	-0.009	-0.042
-131.341	800.000	-0.019	-0.071
-130.326	-200.000	-0.032	-0.218
-129.312	18.638	0.054	0.042
-128.297	496.275	0.142	0.321
-127.283	-128.804	-0.229	-0.032
-126.268	-74.647	0.170	0.060
-125.253	-200.000	0.016	-0.097
-124.239	-17.297	0.024	0.015
-123.224	-37.783	-0.229	-0.120
-122.210	-200.000	-0.041	-0.198
-121.195	78.260	-0.071	-0.075
-120.180	741.882	0.067	0.178
-119.166	-200.000	-0.030	0.158
-118.151	-5.319	-0.159	-0.108
-117.137	-19.726	-0.214	-0.130
-116.122	94.906	0.273	0.306
-115.107	124.501	0.199	0.246
-114.093	-5.237	0.198	0.134
-113.078	-41.045	-0.127	0.064
-112.064	-68.122	-0.164	0.063
-111.049	-200.000	0.039	-0.332
-110.034	-200.000	0.340	0.001
-109.020	800.000	0.041	0.117
-108.005	47.483	-0.085	0.078
-106.991	103.809	-0.134	0.156
-105.976	-200.000	-0.008	0.138
-104.962	22.061	0.173	0.139
-103.947	-102.827	0.042	-0.010
-102.932	-200.000	-0.012	-0.156
-101.918	-56.888	0.249	-0.108
-100.903	-200.000	0.013	-0.107
-99.889	341.525	0.174	0.335
-98.874	-23.425	-0.262	0.155
-97.859	36.003	-0.113	-0.098
-96.845	-112.332	-0.236	-0.047
-95.830	157.522	-0.143	0.194
-94.816	-200.000	0.013	0.148
-93.801	-162.158	-0.184	0.009
-92.786	-111.469	0.189	-0.038
-91.772	-95.253	0.119	-0.031
-90.757	170.063	0.288	-0.406
-89.743	-200.000	-0.031	-0.802
-88.728	-200.000	-0.001	0.065
-87.713	451.109	0.177	0.384
-86.699	248.208	0.139	-0.231
-85.684	-200.000	0.004	0.067
-84.670	18.386	0.124	-0.097
-83.655	-23.896	-0.288	-0.169
-82.640	-134.350	-0.513	0.062
-81.626	221.712	-0.032	-0.051
-80.611	-85.433	0.212	-0.065
-79.597	-35.423	0.287	0.154
-78.582	-86.595	0.234	0.070
-77.567	41.476	-0.147	0.131
-76.553	-51.812	-0.271	-0.124
-75.538	276.881	0.154	0.269
-74.524	467.912	0.080	0.176
-73.509	643.947	-0.094	-0.236
-72.494	301.532	-0.124	0.225
-71.480	42.796	-0.100	0.089
-70.465	151.664	0.181	0.243
-69.451	366.822	-0.066	0.132
-68.436	339.469	-0.128	0.245
-67.422	58.294	0.052	0.050
-66.407	-14.297	-0.283	-0.179
-65.392	-166.992	0.181	0.007
-64.378	76.805	0.231	-0.241
-63.363	-200.000	0.004	-0.255
-62.349	-89.495	0.313	0.091
-61.334	85.050	-0.881	-0.950
-60.319	-65.698	0.513	0.202
-59.305	-200.000	-0.226	-1.287
-58.290	277.198	0.570	0.996
-57.276	313.361	0.694	1.281
-56.261	-200.000	101.730	594.871
-55.246	561.604	1424.154	3383.585
-54.232	188.670	2613.882	3842.480
-53.217	116.542	2148.185	2588.269
-52.203	42.659	1595.899	1427.412
-51.188	34.290	1329.513	1139.314
-50.173	31.079	1287.496	1084.627
-49.159	54.310	1338.334	1265.711
-48.144	55.699	1354.588	1289.264
-47.130	34.333	1312.095	1124.460
-46.115	30.960	1294.182	1089.390
-45.100	30.798	1288.964	1084.012
-44.086	30.727	1286.755	1081.701
-43.071	30.721	1284.180	1079.459
-42.057	30.585	1282.553	1077.257
-41.042	30.603	1280.833	1075.875
-40.027	30.673	1279.096	1074.780
-39.013	30.608	1277.715	1073.199
-37.998	30.739	1275.805	1072.307
-36.984	30.726	1274.190	1070.833
-35.969	30.790	1272.093	1069.398
-34.954	30.814	1270.342	1068.019
-33.940	30.745	1269.404	1066.792
-32.925	30.905	1267.915	1066.414
-31.911	30.872	1266.978	1065.395
-30.896	30.702	1265.882	1063.459
-29.881	30.872	1264.127	1062.913
-28.867	30.896	1262.383	1061.540
-27.852	30.854	1261.207	1060.273
-26.838	30.949	1259.457	1059.302
-25.823	30.919	1258.213	1058.040
-24.809	30.818	1256.969	1056.381
-23.794	30.763	1256.237	1055.413
-22.779	30.863	1254.624	1054.577
-21.765	30.904	1253.027	1053.426
-20.750	30.831	1251.886	1052.017
-19.736	30.795	1250.219	1050.369
-18.721	30.582	1249.917	1048.868
-17.706	30.610	1248.804	1048.053
-16.692	30.744	1247.206	1047.423
-15.677	30.643	1246.266	1046.025
-14.663	30.671	1245.089	1045.154
-13.648	30.658	1244.081	1044.195
-12.633	30.694	1243.049	1043.490
-11.619	30.575	1242.789	1042.560
-10.604	30.814	1241.197	1042.521
-9.590	30.704	1240.441	1041.228
-8.575	30.638	1239.480	1040.014
-7.560	30.725	1238.326	1039.487
-6.546	30.637	1237.683	1038.419
-5.531	30.677	1236.677	1037.754
-4.517	30.641	1235.991	1036.936
-3.502	30.673	1235.390	1036.569
-2.487	30.789	1233.863	1035.893
-1.473	30.730	1229.802	1032.115
-0.458	29.459	1215.609	1013.192
0.556	25.181	1198.816	977.300
1.571	21.662	1204.888	962.859
2.586	20.722	1219.911	969.542
3.600	20.341	1208.818	958.535
4.615	15.682	1138.717	878.579
5.629	8.376	1066.599	786.981
6.644	5.258	1047.598	757.784
7.659	4.950	1045.596	754.779
8.673	4.897	1044.147	753.412
9.688	4.836	1042.870	752.128
10.702	5.114	1041.279	752.252
11.717	9.522	1046.494	777.270
12.731	16.358	1055.925	817.395
13.746	18.890	1058.664	831.710
14.761	18.237	1057.233	827.357
15.775	17.124	1055.381	820.459
16.790	16.098	1053.302	813.821
17.804	15.326	1051.861	808.915
18.819	14.997	1050.823	806.460
19.834	14.751	1049.747	804.375
20.848	14.504	1049.230	802.724
21.863	14.377	1047.894	801.020
22.877	14.237	1047.165	799.717
23.892	14.150	1046.682	798.858
24.907	14.196	1045.728	798.281
25.921	14.191	1044.818	797.490
26.936	14.346	1043.537	797.188
27.950	14.307	1042.424	796.079
28.965	14.398	1040.686	795.116
29.980	14.429	1039.432	794.235
30.994	14.546	1038.060	793.673
32.009	14.505	1037.323	792.842
33.023	14.482	1036.062	791.700
34.038	14.364	1035.403	790.568
35.053	14.379	1034.164	789.622
36.067	14.392	1033.191	788.870
37.082	14.351	1032.481	788.065
38.096	14.427	1032.006	787.994
39.111	14.564	1030.776	787.628
40.126	14.336	1030.298	786.122
41.140	14.165	1028.527	783.895
42.155	14.083	1027.723	782.823
43.169	14.125	1026.215	781.806
44.184	14.115	1025.273	780.970
45.199	13.987	1024.364	779.611
46.213	14.142	1023.685	779.749
47.228	14.244	1022.427	779.201
48.242	14.293	1021.402	778.579
49.257	14.212	1020.159	777.183
50.271	14.387	1019.396	777.351
51.286	14.284	1018.711	776.277
52.301	14.405	1017.156	775.591
53.315	14.329	1016.542	774.701
54.330	14.241	1015.485	773.418
55.344	14.038	1015.055	772.077
56.359	14.191	1013.857	771.805
57.374	14.202	1012.850	771.023
58.388	14.183	1011.787	770.056
59.403	14.064	1011.733	769.400
60.417	14.150	1010.445	768.750
61.432	14.140	1009.666	768.040
62.447	13.966	1008.947	766.622
63.461	13.875	1008.004	765.420
64.476	13.933	1007.450	765.200
65.490	13.888	1006.444	764.161
66.505	14.002	1005.718	764.067
67.520	13.913	1005.305	763.275
68.534	14.137	1004.175	763.379
69.549	14.102	1003.546	762.669
70.563	14.133	1002.692	762.094
71.578	13.982	1001.926	760.756
72.593	13.780	1001.313	759.297
73.607	13.818	1000.816	759.029
74.622	13.952	999.918	758.894
75.636	13.868	999.261	757.944
76.651	14.023	998.385	757.919
77.666	13.930	997.838	757.011
78.680	13.887	997.497	756.490
79.695	13.998	996.534	756.198
80.709	14.101	996.226	756.366
81.724	14.153	995.535	756.012
82.739	14.284	994.664	755.878
83.753	14.299	994.055	755.417
84.768	14.465	993.058	755.343
85.782	14.378	992.445	754.418
86.797	14.395	991.399	753.631
87.812	14.376	990.414	752.732
88.826	14.391	989.405	751.967
89.841	14.413	988.371	751.213
90.855	14.391	987.596	750.455
91.870	14.490	986.782	750.219
92.884	14.484	985.465	749.124
93.899	14.447	985.191	748.680
94.914	14.460	984.724	748.318
95.928	14.441	983.724	747.407
96.943	14.446	982.582	746.497
97.957	14.450	981.931	745.952
98.972	14.345	981.338	744.968
99.987	14.445	980.489	744.704
101.001	14.414	979.265	743.568
102.016	14.458	978.246	742.926
103.030	14.344	977.890	742.085
104.045	14.396	977.022	741.590
105.060	14.381	976.159	740.803
106.074	14.214	975.343	739.376
107.089	14.177	974.257	738.326
108.103	14.090	973.463	737.272
109.118	14.118	972.737	736.779
110.133	14.104	971.729	735.889
111.147	14.016	971.101	734.957
112.162	14.087	970.337	734.631
113.176	14.170	969.402	734.223
114.191	14.204	968.718	733.789
115.206	14.284	967.807	733.387
116.220	14.208	967.063	732.423
117.235	14.260	966.070	731.835
118.249	14.320	965.233	731.400
119.264	14.169	964.454	730.084
120.279	14.115	964.204	729.591
121.293	14.161	962.886	728.732
122.308	14.105	961.952	727.715
123.322	14.103	960.687	726.688
124.337	13.966	960.251	725.693
125.352	14.190	958.752	725.475
126.366	14.011	958.092	724.129
127.381	14.254	956.492	723.914
128.395	14.235	956.160	723.515
129.410	14.206	955.381	722.735
130.424	14.125	954.533	721.677
131.439	14.250	953.526	721.397
132.454	14.264	953.233	721.172
133.468	14.320	952.134	720.519
134.483	14.274	951.608	719.857
135.497	14.308	950.680	719.239
136.512	14.170	949.999	718.063
137.527	14.296	949.147	717.898
138.541	14.129	948.686	716.766
139.556	14.292	947.985	716.877
140.570	14.417	947.101	716.681
141.585	14.543	946.092	716.396
142.600	14.591	945.317	715.952
143.614	14.410	944.859	714.766
144.629	14.560	944.033	714.719
145.643	14.489	942.989	713.564
146.658	14.386	941.685	712.071
147.673	14.441	940.671	711.479
148.687	14.347	940.257	710.700
149.702	14.364	939.060	709.807
150.716	14.364	938.384	709.231
151.731	14.245	938.172	708.500
152.746	14.305	937.361	708.080
153.760	14.415	936.779	708.047
154.775	14.514	936.067	707.867
155.789	14.419	935.510	706.981
156.804	14.507	934.567	706.577
157.819	14.527	933.907	706.101
158.833	14.601	933.263	705.864
159.848	14.792	932.125	705.749
160.862	14.457	931.719	703.965
161.877	14.503	930.525	703.194
162.892	14.378	929.781	702.041
163.906	14.404	928.750	701.309
164.921	14.520	927.996	701.168
165.935	14.540	927.251	700.628
166.950	14.397	926.575	699.454
167.964	14.531	925.414	699.075
168.979	14.453	924.892	698.292
169.994	14.539	923.571	697.593
171.008	14.528	923.438	697.385
172.023	14.655	922.544	697.179
173.037	14.571	921.974	696.336
174.052	14.627	920.861	695.667
175.067	14.552	920.271	694.847
176.081	14.464	920.158	694.334
177.096	14.494	919.564	693.949
178.110	14.551	918.423	693.266
179.125	14.535	917.994	692.814
180.140	14.594	917.776	692.834
181.154	14.525	917.388	692.192
182.169	14.803	916.199	692.385
183.183	14.767	915.746	691.832
184.198	14.770	915.202	691.374
185.213	14.850	914.393	691.032
186.227	14.787	913.971	690.393
187.242	14.800	913.600	690.105
188.256	14.947	912.862	690.091
189.271	14.955	911.767	689.237
190.286	14.632	911.059	687.309
191.300	14.455	910.460	686.070
192.315	14.498	909.527	685.483
193.329	14.461	909.509	685.254
194.344	14.579	908.969	685.271
195.359	14.706	908.041	685.035
196.373	14.853	907.461	685.138
197.388	14.848	907.303	684.936
198.402	15.050	906.646	685.208
199.417	15.077	905.879	684.677
200.432	15.074	905.536	684.345
201.446	15.160	904.901	684.158
202.461	15.142	904.309	683.576
203.475	15.082	904.193	683.183
204.490	14.935	903.243	681.803
205.504	15.023	902.107	681.244
206.519	15.033	901.493	680.762
207.534	14.837	900.890	679.447
208.548	14.943	900.405	679.453
209.563	15.020	899.538	679.050
210.577	15.088	898.615	678.571
211.592	15.118	898.152	678.283
212.607	15.288	897.405	678.346
213.621	15.121	896.853	677.195
214.636	15.146	896.307	676.821
215.650	15.291	895.103	676.437
216.665	15.298	894.820	676.193
217.680	15.247	894.144	675.416
218.694	15.206	893.945	675.041
219.709	15.379	892.914	674.901
220.723	15.279	892.440	674.078
221.738	15.259	891.643	673.338
222.753	15.339	890.711	672.895
223.767	15.325	890.724	672.790
224.782	15.432	889.862	672.506
225.796	15.463	889.097	671.995
226.811	15.331	888.915	671.270
227.826	15.256	888.170	670.345
228.840	15.357	887.009	669.815
229.855	15.364	886.556	669.440
230.869	15.258	885.945	668.496
231.884	15.240	885.301	667.879
232.899	15.392	884.268	667.646
233.913	15.345	883.458	666.789
234.928	15.234	882.862	665.840
235.942	15.247	882.617	665.648
236.957	15.342	881.652	665.237
237.972	15.319	881.432	664.923
238.986	15.333	880.407	664.145
240.001	15.317	880.100	663.790
241.015	15.349	879.722	663.576
242.030	15.305	879.397	663.098
243.045	15.303	878.668	662.481
244.059	15.498	878.038	662.717
245.074	15.422	877.436	661.905
246.088	15.499	876.536	661.471
247.103	15.763	875.621	661.758
248.117	15.536	876.328	661.341
249.132	15.818	874.936	661.342
250.147	15.870	874.737	661.338
251.161	15.784	873.896	660.306
252.176	15.722	873.653	659.820
253.190	15.843	872.571	659.417
254.205	15.917	872.076	659.274
255.220	15.982	871.234	658.835
256.234	15.957	870.865	658.398
257.249	16.075	869.968	658.122
258.263	15.853	869.473	656.823
259.278	15.775	868.871	656.008
260.293	16.001	868.146	656.283
261.307	16.135	867.474	656.238
262.322	16.210	867.097	656.186
263.336	16.144	865.910	654.972
264.351	16.084	865.472	654.350
265.366	16.081	865.091	653.995
266.380	16.147	864.338	653.621
267.395	16.142	863.561	652.956
268.409	16.061	862.761	651.983
269.424	16.002	861.964	651.093
270.439	15.957	861.297	650.359
271.453	16.133	860.460	650.347
272.468	16.009	860.538	649.872
273.482	16.034	859.873	649.409
274.497	16.039	859.340	648.965
275.512	16.113	858.472	648.540
276.526	16.080	858.161	648.120
277.541	16.235	857.269	647.985
278.555	16.228	857.413	648.007
279.570	16.231	856.382	647.185
280.585	16.325	855.433	646.770
281.599	16.238	854.845	645.933
282.614	16.102	854.396	645.016
283.628	16.232	853.724	644.951
284.643	16.232	852.906	644.276
285.657	16.263	852.324	643.897
286.672	16.272	851.905	643.557
287.687	16.365	851.454	643.514
288.701	16.331	850.854	642.873
289.716	16.262	850.299	642.137
290.730	16.360	849.568	641.897
291.745	16.282	848.999	641.116
292.760	16.482	848.688	641.584
293.774	16.557	847.877	641.196
294.789	16.530	846.992	640.372
295.803	16.379	846.500	639.372
296.818	16.432	845.653	638.872
297.833	16.415	845.260	638.457
298.847	16.451	844.624	638.054
299.862	16.493	844.175	637.818
300.876	16.452	843.520	637.113
301.891	16.548	842.927	636.971
302.906	16.517	843.253	637.043
303.920	16.618	842.532	636.823
304.935	16.836	841.444	636.760
305.949	16.664	841.068	635.774
306.964	16.751	840.130	635.337
307.979	16.694	839.777	634.799
308.993	16.715	839.024	634.251
310.008	16.740	838.826	634.142
311.022	16.736	838.037	633.474
312.037	16.666	837.396	632.671
313.052	16.682	836.837	632.251
314.066	16.617	836.312	631.559
315.081	16.527	835.938	630.883
316.095	16.657	834.988	630.595
317.110	16.670	834.739	630.399
318.125	16.654	833.944	629.685
319.139	16.581	833.923	629.340
320.154	16.651	833.277	629.056
321.168	16.699	832.851	628.857
322.183	16.782	832.020	628.485
323.197	16.818	831.533	628.192
324.212	16.793	831.142	627.751
325.227	16.802	830.488	627.233
326.241	16.626	830.203	626.311
327.256	16.778	829.433	626.236
328.270	16.841	828.741	625.893
329.285	16.712	828.437	625.132
330.300	16.724	827.890	624.706
331.314	16.782	827.419	624.511
332.329	16.781	827.405	624.441
333.343	16.793	826.548	623.781
334.358	16.894	825.873	623.591
335.373	16.872	825.677	623.304
336.387	16.999	825.466	623.557
337.402	16.943	825.324	623.189
338.416	16.931	824.882	622.757
339.431	17.212	823.889	622.981
340.446	17.110	823.759	622.454
341.460	17.122	823.791	622.468
342.475	17.204	823.422	622.433
343.489	17.158	823.150	622.005
344.504	17.255	822.198	621.586
345.519	17.374	821.452	621.400
346.533	17.311	821.466	621.126
347.548	17.169	820.802	620.050
348.562	17.070	820.028	619.050
349.577	17.048	819.690	618.660
350.592	17.015	819.428	618.287
351.606	17.300	817.849	618.080
352.621	17.203	817.514	617.420
353.635	17.183	817.366	617.181
354.650	17.220	816.270	616.433
355.665	17.278	815.693	616.152
356.679	17.428	815.151	616.228
357.694	17.446	814.218	615.537
358.708	17.219	814.513	614.881
359.723	17.302	813.466	614.340
360.738	17.268	812.695	613.580
361.752	17.340	812.449	613.599
362.767	17.567	811.704	613.799
363.781	17.487	811.256	613.118
364.796	17.486	810.738	612.670
365.810	17.586	810.590	612.863
366.825	17.676	810.183	612.823
367.840	17.757	809.571	612.599
368.854	17.588	809.136	611.608
369.869	17.636	808.726	611.418
370.883	17.461	808.440	610.518
371.898	17.694	808.093	611.039
372.913	17.706	807.814	610.815
373.927	17.666	807.285	610.217
374.942	17.666	806.688	609.712
375.956	17.712	806.514	609.693
376.971	17.801	805.844	609.449
377.986	17.817	805.682	609.332
379.000	17.762	805.067	608.614
380.015	17.927	804.314	608.581
381.029	17.924	803.553	607.938
382.044	17.941	803.149	607.639
383.059	17.948	802.824	607.366
384.073	17.823	802.517	606.636
385.088	17.788	801.614	605.774
386.102	17.771	800.953	605.161
387.117	17.776	800.771	604.988
388.132	17.749	799.870	604.160
389.146	17.980	799.324	604.509
390.161	17.900	799.213	604.091
391.175	17.892	798.650	603.582
392.190	17.727	798.052	602.495
393.205	17.928	797.426	602.678
394.219	17.881	797.273	602.342
395.234	17.697	796.968	601.408
396.248	17.734	796.431	601.083
397.263	17.826	795.663	600.773
398.278	17.705	795.746	600.356
399.292	17.792	795.185	600.187
400.307	17.846	794.558	599.852
401.321	17.819	794.123	599.372
402.336	17.749	793.664	598.729
403.350	17.808	793.666	598.883
404.365	17.955	793.240	599.023
405.380	18.179	791.987	598.810
406.394	18.057	792.155	598.456
407.409	18.143	791.611	598.294
408.423	18.187	791.441	598.266
409.438	18.114	791.048	597.662
410.453	18.304	790.562	597.904
411.467	18.258	790.071	597.319
412.482	18.251	789.995	597.184
413.496	18.292	789.414	596.837
414.511	18.331	788.719	596.393
415.526	18.204	788.550	595.771
416.540	18.257	788.290	595.707
417.555	18.361	787.808	595.651
418.569	18.454	787.012	595.320
419.584	18.299	786.785	594.557
420.599	18.315	786.225	594.137
421.613	157.745	1369.731	1795.512
422.628	136.376	1454.754	1795.594
