DTS Sentinel unit serial number:	SN413079Multiplexer serial number:	ORYXHardware model number:	OX4-SRSoftware version number:	ORYX F/W v4.00 Oryx Data Collector v3.7.2.0data status	okinstallation	princeton_trtdifferential loss correction	single-endedforward channel	channel 1reverse channel	N/Adate	2019/09/17time	22:06:35forward acquisition time	60.00reverse acquisition time	0.00gamma	496.2192k internal	0.2341k external	0.2341temperature offset calibration	0.9976default loss term (dB/km)	0.3790temperature slope calibration	1.0000multiplexer offset coefficient	1.0000multiplexer slope coefficient	1.0000fibre end	0.00T internal ref (°C)	25.91T ext. ref 1 (°C)	0.18T ext. ref 2 (°C)	18.82length (m)	temperature (°C)	Stokes	anti-Stokes-747.200	-40.197	0.351	-0.183
-746.185	117.212	-0.200	0.246
-745.171	31.231	0.333	0.287
-744.156	-108.376	-0.448	0.097
-743.142	33.196	-0.229	0.199
-742.127	-113.819	-0.079	0.015
-741.112	-57.630	-0.164	0.072
-740.098	-153.736	-0.203	0.014
-739.083	-200.000	-0.049	-0.291
-738.069	208.761	0.143	0.224
-737.054	-190.185	-0.173	-0.002
-736.039	-126.738	-0.213	-0.031
-735.025	-53.980	0.351	-0.160
-734.010	-39.816	-0.461	-0.241
-732.996	-107.133	-0.123	-0.027
-731.981	540.887	-0.111	-0.266
-730.966	-45.551	0.269	0.133
-729.952	208.874	0.059	0.092
-728.937	-134.581	-0.170	-0.021
-727.923	-98.055	0.206	0.053
-726.908	-200.000	0.028	-0.145
-725.894	121.758	-0.117	-0.146
-724.879	800.000	-0.061	-0.179
-723.864	-200.000	-0.052	0.278
-722.850	-64.032	-0.273	0.112
-721.835	800.000	0.033	0.095
-720.821	-68.221	0.140	-0.055
-719.806	800.000	-0.106	-0.299
-718.791	-55.882	-0.188	-0.084
-717.777	-56.801	0.168	-0.074
-716.762	106.666	-0.147	-0.175
-715.748	36.582	-0.100	-0.089
-714.733	800.000	0.060	0.230
-713.718	800.000	-0.031	-0.106
-712.704	-137.272	-0.459	-0.052
-711.689	-91.684	0.376	-0.107
-710.675	800.000	0.061	-0.226
-709.660	10.053	0.293	-0.222
-708.645	-31.339	0.323	-0.182
-707.631	-40.040	0.191	-0.100
-706.616	40.920	-0.195	-0.176
-705.602	523.981	0.088	0.206
-704.587	5.628	-0.382	0.282
-703.572	29.544	-0.070	-0.060
-702.558	-80.129	-0.175	-0.059
-701.543	13.185	-0.196	-0.152
-700.529	13.394	0.249	-0.193
-699.514	800.000	0.038	0.109
-698.499	11.506	-0.083	0.064
-697.485	17.861	0.236	-0.188
-696.470	-200.000	0.013	0.431
-695.456	800.000	-0.064	0.222
-694.441	64.772	-0.082	-0.083
-693.426	125.923	-0.099	0.125
-692.412	-200.000	0.001	-0.224
-691.397	-24.512	-0.268	0.159
-690.383	-14.658	0.155	-0.100
-689.368	-45.983	-0.278	0.137
-688.354	-14.333	-0.135	0.087
-687.339	-62.449	-0.365	-0.152
-686.324	12.348	-0.305	-0.235
-685.310	15.201	-0.211	0.166
-684.295	800.000	-0.090	-0.319
-683.281	524.412	-0.082	0.194
-682.266	26.816	0.066	0.055
-681.251	-200.000	0.029	0.214
-680.237	130.618	-0.110	-0.141
-679.222	103.116	-0.118	-0.139
-678.208	202.951	0.015	-0.023
-677.193	-89.771	-0.274	0.080
-676.178	-200.000	-0.047	0.332
-675.164	-117.625	0.351	-0.063
-674.149	-62.606	0.318	-0.132
-673.135	-27.679	-0.243	-0.141
-672.120	-200.000	-0.004	-0.272
-671.105	-200.000	-0.090	0.587
-670.091	529.315	0.071	-0.168
-669.076	490.772	0.045	-0.102
-668.062	63.655	-0.179	-0.180
-667.047	-18.637	0.127	0.079
-666.032	156.891	-0.200	0.276
-665.018	29.928	-0.049	-0.042
-664.003	1.772	-0.134	-0.096
-662.989	319.424	-0.187	0.355
-661.974	-47.362	0.212	-0.103
-660.959	-200.000	0.030	-0.296
-659.945	-121.489	0.193	-0.032
-658.930	134.236	-0.054	-0.070
-657.916	-100.009	0.358	0.089
-656.901	-200.000	-0.001	-0.098
-655.886	28.203	-0.037	0.031
-654.872	-177.967	-0.162	-0.004
-653.857	800.000	0.132	-0.544
-652.843	-143.477	-0.118	-0.011
-651.828	-100.471	-0.258	0.064
-650.814	415.873	-0.060	0.128
-649.799	-200.000	-0.035	-0.443
-648.784	330.628	0.154	-0.297
-647.770	45.472	0.177	-0.164
-646.755	-38.198	0.077	0.041
-645.741	195.529	-0.129	-0.196
-644.726	576.858	-0.144	0.350
-643.711	-16.749	-0.242	0.153
-642.697	168.426	0.187	0.265
-641.682	6.262	-0.149	-0.111
-640.668	800.000	-0.104	-0.307
-639.653	-67.319	-0.314	-0.123
-638.638	226.898	0.130	-0.210
-637.624	530.542	-0.121	0.285
-636.609	471.115	-0.108	-0.243
-635.595	85.244	-0.108	-0.118
-634.580	79.356	0.111	0.119
-633.565	-78.340	-0.319	0.109
-632.551	-152.018	-0.096	-0.007
-631.536	-12.539	0.208	0.135
-630.522	800.000	-0.036	-0.131
-629.507	-200.000	0.040	-0.184
-628.492	-200.000	0.028	-0.138
-627.478	-33.439	-0.220	-0.121
-626.463	-46.550	-0.162	0.079
-625.449	141.496	0.295	-0.389
-624.434	-85.278	0.083	-0.026
-623.419	448.718	-0.054	-0.119
-622.405	-45.553	0.083	0.041
-621.390	-200.000	0.013	0.100
-620.376	203.718	0.044	-0.068
-619.361	583.239	0.077	0.188
-618.346	-122.638	-0.076	-0.012
-617.332	-137.396	-0.251	-0.028
-616.317	-55.851	-0.136	-0.061
-615.303	-92.194	0.336	-0.095
-614.288	60.046	-0.260	-0.256
-613.273	-70.041	0.285	-0.108
-612.259	-12.232	0.108	-0.071
-611.244	261.103	-0.206	0.356
-610.230	28.957	-0.374	-0.316
-609.215	592.198	-0.123	0.302
-608.201	-1.306	0.214	0.151
-607.186	-43.967	0.303	0.152
-606.171	318.144	-0.138	0.260
-605.157	-45.913	0.299	-0.147
-604.142	-45.742	-0.300	-0.148
-603.128	-24.708	-0.287	-0.170
-602.113	164.415	0.092	-0.130
-601.098	-200.000	0.003	0.100
-600.084	-65.385	-0.196	0.078
-599.069	-200.000	-0.046	-0.234
-598.055	-71.434	0.215	-0.080
-597.040	217.671	-0.174	-0.276
-596.025	800.000	0.016	0.047
-595.011	226.014	-0.054	0.087
-593.996	-134.159	-0.118	-0.015
-592.982	-73.702	0.178	-0.064
-591.967	-154.717	0.088	-0.006
-590.952	800.000	0.101	-0.345
-589.938	-139.074	0.289	-0.031
-588.923	-78.993	-0.446	-0.151
-587.909	-65.144	0.198	0.079
-586.894	691.231	-0.046	-0.119
-585.879	-20.461	-0.145	-0.089
-584.865	800.000	0.035	0.135
-583.850	47.149	0.120	0.111
-582.836	-200.000	0.037	-0.330
-581.821	-73.134	0.533	-0.195
-580.806	-1.041	-0.131	0.092
-579.792	-158.312	0.379	0.022
-578.777	53.066	-0.117	-0.112
-577.763	800.000	-0.014	-0.054
-576.748	800.000	-0.110	0.354
-575.733	518.130	-0.122	-0.285
-574.719	101.089	-0.191	0.222
-573.704	-125.689	0.221	-0.033
-572.690	-159.078	-0.274	-0.015
-571.675	-11.346	-0.260	0.170
-570.661	-138.899	0.451	-0.049
-569.646	738.285	-0.131	0.350
-568.631	-99.505	-0.286	-0.072
-567.617	347.135	0.094	0.184
-566.602	-70.200	0.117	-0.044
-565.588	375.137	0.050	0.101
-564.573	271.706	0.086	-0.151
-563.558	-200.000	0.043	-0.260
-562.544	800.000	0.027	-0.114
-561.529	-200.000	0.040	-0.216
-560.515	-151.948	-0.096	0.007
-559.500	-200.000	-0.020	0.102
-558.485	95.887	0.130	0.148
-557.471	-15.739	-0.201	0.128
-556.456	269.137	0.233	0.407
-555.442	-29.299	-0.104	0.059
-554.427	-44.654	-0.206	0.102
-553.412	-110.100	0.263	-0.055
-552.398	800.000	0.071	-0.228
-551.383	-200.000	-0.009	-0.262
-550.369	28.206	-0.172	-0.145
-549.354	-140.780	-0.258	-0.026
-548.339	-102.426	-0.174	-0.041
-547.325	211.555	-0.163	0.255
-546.310	-137.636	-0.218	0.024
-545.296	800.000	0.084	-0.294
-544.281	-179.888	-0.153	-0.003
-543.266	-200.000	-0.001	-0.250
-542.252	-119.977	0.447	0.076
-541.237	-200.000	-0.020	0.211
-540.223	-96.561	0.257	0.067
-539.208	-117.818	0.250	-0.045
-538.193	-109.536	-0.129	-0.027
-537.179	800.000	0.107	0.369
-536.164	355.359	-0.070	0.139
-535.150	-31.007	-0.069	0.039
-534.135	-87.480	-0.220	-0.066
-533.121	-200.000	0.014	0.071
-532.106	-157.944	0.170	0.010
-531.091	106.469	-0.156	-0.184
-530.077	-200.000	0.053	-0.406
-529.062	-126.602	-0.153	0.023
-528.048	63.907	0.197	0.197
-527.033	-55.627	0.198	0.088
-526.018	44.139	0.121	-0.111
-525.004	800.000	-0.042	-0.156
-523.989	-200.000	-0.024	0.301
-522.975	-106.698	-0.157	0.035
-521.960	206.940	-0.225	0.349
-520.945	-200.000	-0.001	-0.149
-519.931	-120.266	0.520	0.088
-518.916	125.079	0.094	0.117
-517.902	217.583	0.221	0.351
-516.887	-156.250	0.509	-0.032
-515.872	-53.917	-0.212	-0.096
-514.858	-200.000	-0.070	-0.456
-513.843	-82.474	0.238	0.077
-512.829	542.927	0.118	-0.280
-511.814	-9.438	-0.191	0.127
-510.799	77.595	0.332	0.351
-509.785	800.000	0.023	-0.085
-508.770	800.000	-0.079	-0.220
-507.756	446.112	-0.049	0.108
-506.741	-25.769	0.255	0.149
-505.726	86.426	-0.085	-0.093
-504.712	-90.795	0.360	-0.103
-503.697	-143.715	0.219	-0.021
-502.683	189.613	0.161	-0.239
-501.668	800.000	0.042	-0.126
-500.653	-110.439	0.109	0.022
-499.639	-72.824	0.139	0.051
-498.624	-128.401	0.232	-0.033
-497.610	-197.592	-0.168	-0.001
-496.595	50.100	-0.031	0.029
-495.581	-200.000	0.051	-0.300
-494.566	49.680	0.029	-0.027
-493.551	-149.709	-0.445	0.035
-492.537	-23.569	-0.206	-0.123
-491.522	181.263	0.293	-0.427
-490.508	800.000	-0.016	-0.063
-489.493	-65.622	0.166	0.066
-488.478	-67.713	0.104	0.040
-487.464	-83.836	-0.199	-0.063
-486.449	-200.000	-0.003	0.389
-485.435	-77.692	-0.142	0.049
-484.420	98.419	0.168	0.192
-483.405	800.000	0.051	0.150
-482.391	-27.394	-0.107	-0.061
-481.376	775.221	0.069	0.186
-480.362	214.991	-0.085	-0.133
-479.347	39.808	-0.214	-0.190
-478.332	622.736	-0.128	0.319
-477.318	-132.287	0.481	0.062
-476.303	684.605	0.072	0.185
-475.289	165.294	-0.076	-0.106
-474.274	-200.000	-0.011	0.149
-473.259	-57.312	-0.091	0.040
-472.245	20.825	-0.231	-0.185
-471.230	-99.877	-0.343	0.085
-470.216	-126.677	0.320	-0.047
-469.201	-31.112	-0.291	0.163
-468.186	-138.290	-0.183	0.020
-467.172	13.775	0.057	-0.044
-466.157	800.000	0.052	0.209
-465.143	-200.000	0.013	0.092
-464.128	-30.098	-0.202	-0.114
-463.113	-106.385	0.227	-0.050
-462.099	123.367	-0.226	-0.281
-461.084	352.703	-0.192	-0.378
-460.070	725.171	-0.017	0.045
-459.055	-6.120	-0.086	-0.058
-458.040	-117.812	-0.091	0.016
-457.026	64.226	-0.041	0.041
-456.011	-91.451	0.095	-0.027
-454.997	-200.000	-0.045	-0.264
-453.982	-32.830	0.164	0.090
-452.968	-171.240	0.063	0.002
-451.953	-145.644	-0.922	-0.082
-450.938	-200.000	-0.058	-0.463
-449.924	-44.568	-0.368	0.182
-448.909	26.788	0.245	-0.203
-447.895	121.178	-0.062	0.076
-446.880	62.286	0.136	0.135
-445.865	199.188	0.155	0.235
-444.851	60.904	-0.212	0.209
-443.836	-166.352	-0.178	-0.007
-442.822	-86.283	-0.223	-0.068
-441.807	-35.031	0.188	-0.101
-440.792	97.514	-0.189	-0.215
-439.778	63.377	-0.185	-0.184
-438.763	-170.154	0.105	-0.004
-437.749	800.000	0.121	-0.352
-436.734	31.429	0.123	0.104
-435.719	107.744	-0.176	-0.208
-434.705	-200.000	0.015	0.154
-433.690	-18.907	-0.198	-0.122
-432.676	471.272	0.114	0.254
-431.661	-133.358	0.201	-0.025
-430.646	280.988	-0.222	0.393
-429.632	175.441	0.199	0.286
-428.617	181.025	-0.160	-0.232
-427.603	36.828	-0.223	0.195
-426.588	513.070	0.119	0.274
-425.573	800.000	-0.125	0.461
-424.559	59.488	-0.114	0.112
-423.544	-13.922	-0.271	0.173
-422.530	-25.927	0.276	-0.161
-421.515	117.279	-0.094	0.115
-420.500	17.712	0.139	0.110
-419.486	137.249	0.036	0.047
-418.471	-200.000	0.047	0.438
-417.457	-63.413	-0.086	0.035
-416.442	-200.000	-0.013	-0.216
-415.428	6.913	-0.040	-0.030
-414.413	224.475	0.049	0.078
-413.398	-127.556	0.109	-0.016
-412.384	-107.870	-0.210	0.045
-411.369	11.522	0.069	0.053
-410.355	141.170	-0.145	-0.190
-409.340	40.625	-0.047	-0.042
-408.325	46.242	0.175	-0.161
-407.311	-62.395	-0.357	-0.147
-406.296	-100.152	0.173	0.043
-405.282	-71.370	-0.188	0.070
-404.267	-200.000	-0.075	-0.342
-403.252	-135.668	0.246	-0.029
-402.238	-31.142	0.347	-0.194
-401.223	-22.129	-0.148	-0.089
-400.209	494.424	0.087	-0.198
-399.194	-105.553	-0.166	0.037
-398.179	542.590	-0.100	0.235
-397.165	93.932	-0.028	0.031
-396.150	188.898	0.126	0.187
-395.136	47.962	0.083	-0.077
-394.121	435.377	0.078	0.169
-393.106	-23.315	0.150	-0.089
-392.092	-83.416	-0.120	-0.038
-391.077	800.000	-0.084	0.247
-390.063	-200.000	0.009	0.418
-389.048	-83.232	-0.143	0.045
-388.033	216.710	-0.086	-0.136
-387.019	398.391	-0.014	-0.029
-386.004	-200.000	0.024	0.316
-384.990	-73.057	-0.285	0.103
-383.975	213.461	0.225	0.351
-382.960	-200.000	-0.001	0.009
-381.946	164.916	-0.167	0.234
-380.931	-200.000	-0.005	0.202
-379.917	52.163	-0.432	-0.407
-378.902	4.922	-0.271	0.197
-377.888	-200.000	0.014	0.189
-376.873	800.000	0.036	-0.101
-375.858	-108.918	-0.121	0.026
-374.844	-200.000	-0.023	-0.155
-373.829	-200.000	-0.005	-0.246
-372.815	157.857	-0.046	0.063
-371.800	-65.796	-0.135	0.053
-370.785	1.753	0.099	-0.071
-369.771	800.000	-0.015	-0.061
-368.756	112.822	-0.205	-0.245
-367.742	37.791	-0.099	0.087
-366.727	169.933	0.194	0.274
-365.712	155.802	-0.098	0.133
-364.698	699.670	0.119	-0.309
-363.683	-200.000	-0.005	0.097
-362.669	-200.000	-0.001	-0.126
-361.654	269.949	0.131	-0.227
-360.639	800.000	-0.031	0.089
-359.625	229.696	-0.114	0.184
-358.610	-200.000	-0.067	0.472
-357.596	-200.000	0.046	-0.390
-356.581	-200.000	-0.011	0.205
-355.566	707.201	0.063	-0.165
-354.552	483.080	-0.081	-0.182
-353.537	-200.000	0.037	-0.214
-352.523	-3.207	0.050	-0.034
-351.508	83.694	0.217	0.233
-350.493	-200.000	-0.126	0.581
-349.479	-20.767	-0.198	0.120
-348.464	-58.136	0.263	0.113
-347.450	800.000	0.069	0.212
-346.435	227.107	-0.070	-0.113
-345.420	-69.027	0.326	0.124
-344.406	800.000	-0.024	0.091
-343.391	-127.049	0.154	-0.022
-342.377	-23.527	0.050	-0.030
-341.362	308.593	-0.093	-0.171
-340.348	-143.010	0.081	-0.008
-339.333	800.000	0.085	-0.322
-338.318	800.000	0.100	-0.295
-337.304	-86.461	0.452	0.137
-336.289	-187.675	-0.251	-0.003
-335.275	-106.579	-0.095	-0.021
-334.260	759.349	-0.078	-0.207
-333.245	640.137	-0.126	-0.316
-332.231	189.246	0.104	0.153
-331.216	-139.281	0.199	-0.021
-330.202	25.356	-0.212	0.174
-329.187	-85.717	0.078	0.024
-328.172	53.525	0.266	-0.252
-327.158	154.630	0.098	0.133
-326.143	622.909	-0.092	0.228
-325.129	209.805	0.167	0.258
-324.114	74.416	0.198	-0.205
-323.099	239.699	0.023	-0.038
-322.085	653.301	0.030	0.076
-321.070	624.876	-0.155	0.386
-320.056	484.284	-0.033	-0.073
-319.041	49.453	0.058	-0.054
-318.026	72.273	-0.098	-0.100
-317.012	103.610	0.072	0.083
-315.997	652.188	-0.120	0.303
-314.983	240.035	0.178	0.293
-313.968	-33.089	0.391	0.214
-312.953	-35.550	-0.202	-0.108
-311.939	-200.000	0.001	-0.643
-310.924	-98.489	-0.341	0.086
-309.910	-129.104	-0.344	0.047
-308.895	800.000	-0.064	-0.212
-307.880	-140.740	0.502	-0.051
-306.866	-70.598	0.098	-0.036
-305.851	-69.383	0.180	-0.068
-304.837	-80.637	0.557	0.183
-303.822	-195.698	0.208	-0.001
-302.807	13.367	0.203	0.155
-301.793	0.664	-0.138	-0.097
-300.778	-35.121	0.170	0.091
-299.764	262.287	-0.134	0.229
-298.749	-200.000	-0.051	-0.438
-297.735	800.000	-0.050	-0.138
-296.720	-21.034	0.119	-0.072
-295.705	-112.108	0.227	0.045
-294.691	-95.721	-0.389	-0.102
-293.676	-200.000	0.001	-0.335
-292.662	-200.000	-0.019	-0.480
-291.647	800.000	-0.042	0.151
-290.632	-62.000	-0.236	-0.097
-289.618	-200.000	-0.001	0.184
-288.603	-105.648	-0.090	0.020
-287.589	40.028	0.162	-0.143
-286.574	-107.611	-0.239	-0.051
-285.559	34.024	0.223	0.191
-284.545	-86.494	0.081	0.025
-283.530	-113.785	-0.550	0.105
-282.516	70.476	-0.279	0.284
-281.501	800.000	0.095	0.357
-280.486	-77.810	-0.354	-0.120
-279.472	-96.475	0.313	0.081
-278.457	800.000	0.065	0.261
-277.443	-27.956	-0.114	0.065
-276.428	-114.599	-0.079	0.015
-275.413	186.368	0.245	-0.359
-274.399	-152.572	-0.116	0.008
-273.384	-8.640	-0.240	-0.159
-272.370	-200.000	-0.008	0.354
-271.355	-167.679	0.145	0.006
-270.340	114.461	0.081	0.098
-269.326	-91.817	0.278	0.078
-268.311	134.512	0.228	-0.291
-267.297	-25.645	0.124	0.072
-266.282	178.306	0.160	-0.230
-265.267	-200.000	0.000	-0.099
-264.253	87.919	-0.065	0.070
-263.238	-32.108	-0.272	-0.150
-262.224	378.684	-0.099	0.198
-261.209	800.000	0.112	0.310
-260.195	-127.833	0.218	0.031
-259.180	-200.000	-0.054	0.386
-258.165	-108.851	0.406	0.085
-257.151	800.000	-0.016	0.047
-256.136	62.582	0.054	0.053
-255.122	-200.000	0.006	-0.134
-254.107	382.561	-0.066	-0.133
-253.092	191.138	0.175	-0.259
-252.078	800.000	-0.063	0.246
-251.063	69.575	-0.149	0.151
-250.049	-200.000	0.047	0.243
-249.034	251.197	-0.079	-0.131
-248.019	223.921	0.107	-0.170
-247.005	-90.209	-0.168	0.048
-245.990	21.273	0.103	-0.083
-244.976	638.023	-0.068	-0.170
-243.961	-96.386	0.161	-0.042
-242.946	84.521	-0.267	0.287
-241.932	-200.000	-0.170	0.000
-240.917	44.509	0.133	0.120
-239.903	-36.599	-0.137	0.072
-238.888	33.544	-0.025	0.021
-237.873	-200.000	-0.031	0.215
-236.859	800.000	0.074	-0.313
-235.844	354.092	-0.084	0.165
-234.830	-200.000	0.046	-0.263
-233.815	69.376	-0.056	-0.057
-232.800	290.789	-0.172	-0.308
-231.786	182.091	-0.135	0.196
-230.771	163.167	0.200	0.276
-229.757	644.274	0.033	0.083
-228.742	-200.000	-0.013	-0.307
-227.727	-74.838	0.170	0.060
-226.713	494.854	0.038	0.086
-225.698	-200.000	-0.008	0.655
-224.684	43.718	0.126	0.113
-223.669	800.000	-0.124	-0.419
-222.655	-38.756	0.186	0.097
-221.640	-165.598	0.209	0.009
-220.625	60.051	0.114	0.111
-219.611	-143.506	-0.105	0.010
-218.596	-149.901	-0.170	-0.013
-217.582	35.014	0.104	0.089
-216.567	-30.216	0.176	0.098
-215.552	-200.000	-0.016	-0.141
-214.538	-200.000	-0.011	-0.211
-213.523	-200.000	0.126	-0.000
-212.509	800.000	0.048	0.154
-211.494	572.885	-0.045	0.108
-210.479	176.789	0.068	0.097
-209.465	617.731	-0.066	-0.162
-208.450	305.045	0.065	0.119
-207.436	125.218	-0.056	-0.070
-206.421	-52.486	-0.103	-0.047
-205.406	760.069	-0.092	-0.246
-204.392	-200.000	0.047	-0.252
-203.377	552.252	0.140	0.331
-202.363	-96.020	-0.006	-0.001
-201.348	20.865	-0.064	0.051
-200.333	-155.624	0.339	-0.021
-199.319	171.565	0.194	0.273
-198.304	800.000	0.029	0.116
-197.290	-97.445	-0.165	-0.042
-196.275	659.263	0.077	-0.193
-195.260	159.658	0.012	-0.016
-194.246	-111.376	0.143	0.029
-193.231	150.264	0.114	-0.151
-192.217	32.718	0.174	0.148
-191.202	-77.577	-0.215	0.073
-190.187	800.000	-0.120	-0.395
-189.173	-112.080	-0.226	-0.045
-188.158	-200.000	0.001	0.180
-187.144	752.098	-0.027	-0.072
-186.129	-200.000	-0.063	0.337
-185.114	-200.000	-0.008	-0.182
-184.100	312.591	0.120	0.220
-183.085	-129.555	-0.464	-0.063
-182.071	-27.924	-0.238	-0.135
-181.056	-200.000	0.008	0.252
-180.042	-105.355	0.242	0.054
-179.027	-19.865	0.114	0.069
-178.012	-142.270	0.090	0.009
-176.998	44.685	0.105	-0.094
-175.983	-200.000	-0.006	0.272
-174.969	582.570	-0.087	-0.209
-173.954	-200.000	-0.014	-0.150
-172.939	-59.877	-0.088	0.037
-171.925	34.648	0.162	-0.139
-170.910	-67.304	0.182	-0.070
-169.896	561.134	-0.052	-0.124
-168.881	80.947	0.048	-0.051
-167.866	95.165	-0.333	0.372
-166.852	800.000	-0.058	0.169
-165.837	-200.000	0.000	-0.119
-164.823	-45.241	0.203	-0.099
-163.808	594.907	0.198	-0.479
-162.793	-200.000	-0.016	-0.266
-161.779	-96.196	-0.372	-0.097
-160.764	-149.647	0.246	-0.019
-159.750	-107.935	-0.363	0.077
-158.735	-131.488	0.290	0.037
-157.720	127.995	-0.138	0.172
-156.706	81.711	-0.121	-0.129
-155.691	280.184	-0.119	-0.209
-154.677	9.292	0.307	-0.228
-153.662	104.474	0.088	0.102
-152.647	196.683	0.036	0.054
-151.633	-200.000	-0.003	0.174
-150.618	-106.255	0.262	-0.057
-149.604	-62.947	0.125	0.051
-148.589	-200.000	0.023	0.132
-147.574	-200.000	-0.005	-0.105
-146.560	129.654	0.156	0.195
-145.545	385.603	-0.063	0.126
-144.531	34.044	0.397	0.339
-143.516	-187.175	0.600	0.008
-142.502	53.006	-0.091	-0.086
-141.487	60.280	-0.133	0.129
-140.472	800.000	-0.113	0.372
-139.458	76.213	0.226	0.234
-138.443	277.609	0.200	0.349
-137.429	-67.997	-0.101	0.038
-136.414	265.123	-0.117	0.199
-135.399	-87.614	-0.293	-0.087
-134.385	283.460	-0.176	-0.309
-133.370	-142.190	-0.346	0.034
-132.356	-64.325	0.035	-0.014
-131.341	-91.870	0.124	-0.034
-130.326	-200.000	-0.008	0.166
-129.312	-200.000	-0.051	0.237
-128.297	-200.000	-0.023	-0.156
-127.283	28.584	-0.178	0.147
-126.268	-200.000	-0.015	0.134
-125.253	67.465	0.196	-0.195
-124.239	9.194	0.164	-0.121
-123.224	-4.188	-0.149	0.101
-122.210	219.714	0.082	0.129
-121.195	-126.943	0.489	-0.070
-120.180	-200.000	0.029	0.322
-119.166	-27.402	-0.019	0.011
-118.151	-94.379	0.361	-0.096
-117.137	-109.173	0.224	0.047
-116.122	-15.320	-0.291	-0.182
-115.107	-94.658	0.174	0.046
-114.093	177.935	0.077	-0.109
-113.078	423.167	-0.024	0.051
-112.064	27.340	-0.135	0.111
-111.049	254.910	0.083	-0.139
-110.034	-200.000	0.006	0.068
-109.020	-77.739	-0.205	0.069
-108.005	-74.025	0.073	0.026
-106.991	726.575	-0.085	0.222
-105.976	-26.971	-0.269	0.154
-104.962	-4.211	0.300	0.203
-103.947	597.481	-0.085	0.205
-102.932	365.265	-0.079	0.155
-101.918	-17.122	0.157	0.097
-100.903	-200.000	0.025	0.189
-99.889	64.474	0.248	0.244
-98.874	-29.237	-0.028	0.016
-97.859	-114.238	0.447	-0.084
-96.845	-194.307	0.131	0.001
-95.830	85.208	-0.277	0.296
-94.816	800.000	0.060	0.183
-93.801	-145.499	0.147	-0.013
-92.786	48.050	-0.095	-0.087
-91.772	-69.107	0.250	0.094
-90.757	232.631	-0.093	0.150
-89.743	-137.770	0.363	-0.040
-88.728	-200.000	-0.016	-0.117
-87.713	-137.526	0.120	-0.013
-86.699	-19.508	0.261	0.158
-85.684	-2.662	-0.194	0.132
-84.670	-175.894	-0.382	-0.010
-83.655	250.689	0.303	-0.503
-82.640	60.490	0.039	-0.038
-81.626	-71.521	0.040	0.015
-80.611	-125.919	0.276	0.041
-79.597	609.394	0.025	0.060
-78.582	-65.871	-0.231	-0.090
-77.567	800.000	0.049	0.178
-76.553	-200.000	0.029	-0.139
-75.538	-99.453	-0.045	-0.011
-74.524	-200.000	0.060	-0.327
-73.509	55.267	0.105	-0.099
-72.494	-200.000	0.048	0.599
-71.480	349.708	0.097	0.186
-70.465	-200.000	-0.053	0.255
-69.451	-200.000	-0.058	0.268
-68.436	248.058	0.083	0.136
-67.422	-84.961	0.465	0.142
-66.407	259.739	0.041	0.069
-65.392	-57.179	0.167	0.072
-64.378	41.405	-0.267	0.236
-63.363	132.117	0.050	-0.062
-62.349	-64.218	-0.166	0.066
-61.334	56.960	-1.062	-1.010
-60.319	160.302	0.619	0.842
-59.305	166.170	-0.919	-1.270
-58.290	158.250	0.933	1.262
-57.276	800.000	0.393	1.672
-56.261	-200.000	118.255	612.577
-55.246	417.719	1523.169	3175.104
-54.232	149.220	2673.947	3530.618
-53.217	96.971	2124.219	2376.031
-52.203	36.619	1569.591	1352.013
-51.188	29.216	1315.898	1089.847
-50.173	26.444	1277.960	1042.439
-49.159	50.265	1341.636	1236.324
-48.144	48.925	1354.914	1240.567
-47.130	29.245	1305.611	1081.327
-46.115	26.186	1286.711	1047.914
-45.100	25.793	1282.059	1041.810
-44.086	25.729	1279.584	1039.388
-43.071	25.711	1277.096	1037.223
-42.057	25.781	1275.200	1036.042
-41.042	25.691	1273.846	1034.383
-40.027	25.758	1272.269	1033.445
-39.013	25.829	1270.438	1032.324
-37.998	25.777	1269.028	1030.843
-36.984	25.767	1267.737	1029.696
-35.969	25.860	1265.498	1028.365
-34.954	25.965	1263.547	1027.340
-33.940	25.968	1262.036	1026.088
-32.925	25.877	1260.870	1024.582
-31.911	26.041	1258.871	1023.844
-30.896	25.999	1258.359	1023.152
-29.881	25.991	1257.010	1021.967
-28.867	26.009	1255.427	1020.742
-27.852	25.898	1254.122	1019.012
-26.838	25.987	1252.631	1018.264
-25.823	25.989	1251.402	1017.234
-24.809	25.982	1249.754	1015.818
-23.794	25.907	1249.130	1014.849
-22.779	26.046	1247.645	1014.384
-21.765	25.941	1246.805	1013.069
-20.750	26.028	1244.816	1011.898
-19.736	25.902	1244.060	1010.539
-18.721	25.987	1242.976	1010.093
-17.706	25.814	1241.744	1008.085
-16.692	25.804	1240.433	1006.927
-15.677	25.837	1239.556	1006.354
-14.663	25.795	1238.368	1005.118
-13.648	25.943	1236.733	1004.579
-12.633	25.864	1236.600	1003.986
-11.619	25.921	1235.521	1003.390
-10.604	25.787	1234.774	1002.000
-9.590	25.871	1233.438	1001.343
-8.575	25.867	1232.591	1000.589
-7.560	25.882	1231.724	999.928
-6.546	25.861	1230.698	998.944
-5.531	26.043	1229.521	998.955
-4.517	25.902	1229.084	997.782
-3.502	25.930	1228.426	997.363
-2.487	25.888	1227.678	996.481
-1.473	25.795	1222.742	991.921
-0.458	23.874	1207.904	969.382
0.556	18.419	1192.251	930.963
1.571	14.572	1199.762	915.666
2.586	13.746	1214.555	922.284
3.600	13.733	1202.456	912.947
4.615	10.039	1133.003	840.949
5.629	3.456	1062.508	756.344
6.644	0.382	1044.827	728.853
7.659	0.159	1042.907	726.370
8.673	0.084	1042.176	725.438
9.688	0.095	1040.920	724.550
10.702	0.437	1038.688	724.574
11.717	4.153	1043.392	745.698
12.731	11.436	1052.955	787.729
13.746	15.969	1057.903	813.289
14.761	16.799	1058.243	817.488
15.775	15.954	1056.899	812.305
16.790	15.060	1054.756	806.281
17.804	14.343	1053.348	801.682
18.819	14.140	1051.939	799.563
19.834	13.823	1051.154	797.372
20.848	13.692	1050.049	795.836
21.863	13.371	1049.755	794.003
22.877	13.251	1049.007	792.793
23.892	13.165	1048.190	791.689
24.907	13.233	1047.208	791.206
25.921	13.212	1046.814	790.736
26.936	13.243	1045.770	790.027
27.950	13.361	1044.857	789.832
28.965	13.225	1043.978	788.445
29.980	13.441	1042.380	788.201
30.994	13.378	1041.553	787.206
32.009	13.499	1040.291	786.758
33.023	13.437	1039.082	785.476
34.038	13.396	1038.437	784.728
35.053	13.445	1037.530	784.203
36.067	13.322	1037.228	783.326
37.082	13.216	1036.475	782.183
38.096	13.367	1035.456	782.061
39.111	13.450	1034.284	781.495
40.126	13.368	1033.136	780.175
41.140	13.292	1032.150	779.003
42.155	13.017	1031.680	777.282
43.169	13.226	1030.267	777.134
44.184	13.190	1029.467	776.292
45.199	13.252	1028.051	775.448
46.213	13.198	1027.393	774.629
47.228	13.185	1026.468	773.800
48.242	13.208	1025.621	773.204
49.257	13.266	1024.665	772.682
50.271	13.380	1023.734	772.445
51.286	13.286	1022.821	771.251
52.301	13.248	1022.030	770.407
53.315	13.276	1020.796	769.540
54.330	13.284	1019.967	768.883
55.344	13.313	1019.159	768.344
56.359	13.159	1018.414	766.998
57.374	13.296	1017.395	766.800
58.388	13.206	1016.429	765.584
59.403	13.200	1015.842	765.049
60.417	13.069	1014.872	763.644
61.432	13.211	1014.334	763.829
62.447	13.267	1013.220	763.179
63.461	13.274	1012.345	762.485
64.476	13.091	1011.774	761.145
65.490	13.044	1011.062	760.324
66.505	13.200	1009.872	760.080
67.520	13.113	1009.380	759.243
68.534	13.114	1009.053	758.931
69.549	13.166	1008.283	758.527
70.563	13.177	1007.109	757.627
71.578	13.070	1006.647	756.724
72.593	13.132	1005.743	756.257
73.607	13.029	1005.425	755.480
74.622	13.105	1004.561	755.111
75.636	13.079	1003.884	754.418
76.651	13.121	1003.224	754.046
77.666	13.056	1002.855	753.408
78.680	13.105	1001.621	752.637
79.695	13.044	1001.329	752.071
80.709	13.152	1000.399	751.797
81.724	13.094	999.931	751.119
82.739	13.272	998.812	751.017
83.753	13.225	998.368	750.406
84.768	13.263	996.962	749.452
85.782	13.315	996.176	749.031
86.797	13.299	995.267	748.209
87.812	13.202	994.565	747.176
88.826	13.311	993.579	746.865
89.841	13.312	992.671	746.118
90.855	13.402	991.402	745.505
91.870	13.332	990.977	744.803
92.884	13.366	989.962	744.129
93.899	13.437	989.152	743.772
94.914	13.463	988.659	743.454
95.928	13.376	987.504	742.127
96.943	13.405	986.565	741.485
97.957	13.300	985.825	740.394
98.972	13.393	985.091	740.193
99.987	13.424	984.317	739.688
101.001	13.415	982.812	738.448
102.016	13.398	982.258	737.894
103.030	13.391	981.845	737.486
104.045	13.430	980.898	736.881
105.060	13.342	980.249	735.935
106.074	13.269	979.232	734.785
107.089	13.227	978.371	733.886
108.103	13.131	977.546	732.779
109.118	13.286	976.236	732.416
110.133	13.239	975.603	731.668
111.147	13.266	974.710	731.056
112.162	13.310	973.685	730.418
113.176	13.348	972.882	729.916
114.191	13.436	972.310	729.810
115.206	13.308	971.481	728.559
116.220	13.230	970.730	727.590
117.235	13.319	969.792	727.211
118.249	13.425	968.611	726.727
119.264	13.329	968.194	725.929
120.279	13.309	967.736	725.436
121.293	13.270	966.840	724.528
122.308	13.237	966.000	723.688
123.322	13.249	964.869	722.831
124.337	13.200	964.146	722.011
125.352	13.211	963.108	721.219
126.366	13.270	961.785	720.422
127.381	13.310	960.551	719.606
128.395	13.405	959.930	719.490
129.410	13.203	959.561	718.273
130.424	13.325	958.166	717.695
131.439	13.558	957.168	717.892
132.454	13.387	956.504	716.592
133.468	13.401	955.590	715.903
134.483	13.448	954.814	715.460
135.497	13.418	953.949	714.620
136.512	13.389	953.239	713.900
137.527	13.323	953.035	713.400
138.541	13.344	952.299	712.875
139.556	13.451	951.382	712.587
140.570	13.410	950.461	711.656
141.585	13.429	949.910	711.265
142.600	13.603	948.077	710.577
143.614	13.544	948.135	710.305
144.629	13.696	947.414	710.352
145.643	13.592	946.447	709.118
146.658	13.503	945.312	707.823
147.673	13.466	944.488	706.988
148.687	13.582	943.251	706.493
149.702	13.462	942.984	705.718
150.716	13.452	942.042	704.910
151.731	13.466	941.470	704.478
152.746	13.520	940.964	704.267
153.760	13.554	940.106	703.708
154.775	13.578	939.261	703.116
155.789	13.483	939.142	702.560
156.804	13.683	938.096	702.564
157.819	13.729	937.360	702.144
158.833	13.696	936.878	701.583
159.848	13.681	935.888	700.716
160.862	13.596	935.365	699.904
161.877	13.587	934.420	699.093
162.892	13.459	933.278	697.638
163.906	13.631	932.633	697.819
164.921	13.673	931.631	697.185
165.935	13.743	930.495	696.569
166.950	13.661	929.423	695.359
167.964	13.652	929.094	695.015
168.979	13.661	927.877	694.079
169.994	13.603	927.236	693.294
171.008	13.818	926.435	693.536
172.023	13.847	925.540	692.924
173.037	13.913	925.314	692.969
174.052	13.780	924.597	691.817
175.067	13.647	924.083	690.816
176.081	13.711	923.293	690.429
177.096	13.612	923.178	689.872
178.110	13.619	922.314	689.193
179.125	13.833	921.415	689.350
180.140	13.902	920.779	689.097
181.154	13.812	920.671	688.582
182.169	13.945	919.761	688.393
183.183	14.008	919.220	688.191
184.198	13.952	918.250	687.171
185.213	13.991	917.640	686.815
186.227	13.884	917.242	686.013
187.242	13.994	916.478	685.836
188.256	14.030	915.898	685.490
189.271	13.995	915.178	684.747
190.286	13.770	914.520	683.268
191.300	13.771	913.955	682.787
192.315	13.854	913.105	682.432
193.329	13.722	912.889	681.667
194.344	13.786	912.166	681.331
195.359	13.814	911.482	680.877
196.373	14.047	910.740	681.215
197.388	13.950	910.530	680.602
198.402	14.252	909.323	680.874
199.417	14.065	909.158	679.926
200.432	14.113	908.905	679.873
201.446	14.336	907.944	680.004
202.461	14.258	907.746	679.475
203.475	14.239	907.066	678.830
204.490	14.176	906.094	677.789
205.504	14.083	905.736	677.079
206.519	14.205	904.881	676.877
207.534	14.181	904.282	676.271
208.548	14.278	903.582	676.084
209.563	14.260	902.781	675.350
210.577	14.260	902.304	674.933
211.592	14.396	901.451	674.788
212.607	14.410	900.615	674.156
213.621	14.289	899.948	673.111
214.636	14.363	899.577	673.073
215.650	14.310	898.732	672.164
216.665	14.413	898.215	672.134
217.680	14.469	897.695	671.912
218.694	14.490	897.128	671.512
219.709	14.429	896.358	670.632
220.723	14.444	895.552	670.031
221.738	14.504	894.923	669.743
222.753	14.523	894.170	669.193
223.767	14.476	893.628	668.543
224.782	14.441	893.266	668.071
225.796	14.413	892.739	667.507
226.811	14.467	891.868	667.013
227.826	14.555	891.155	666.772
228.840	14.599	890.532	666.421
229.855	14.483	890.054	665.541
230.869	14.433	889.122	664.585
231.884	14.475	888.427	664.175
232.899	14.504	887.619	663.628
233.913	14.575	886.477	662.996
234.928	14.675	885.797	662.827
235.942	14.621	885.772	662.537
236.957	14.543	885.232	661.762
237.972	14.577	884.227	661.090
238.986	14.457	883.969	660.362
240.001	14.688	883.569	660.919
241.015	14.543	883.079	659.919
242.030	14.591	882.465	659.594
243.045	14.693	881.473	659.194
244.059	14.544	881.259	658.390
245.074	14.717	880.658	658.567
246.088	14.684	879.663	657.634
247.103	14.699	879.011	657.145
248.117	14.746	878.611	656.972
249.132	14.898	877.727	656.853
250.147	14.920	876.989	656.329
251.161	14.900	876.721	655.990
252.176	14.932	876.164	655.641
253.190	14.894	875.497	654.935
254.205	15.020	874.885	654.911
255.220	15.043	874.218	654.446
256.234	14.936	874.028	653.826
257.249	15.084	872.901	653.505
258.263	15.044	872.149	652.726
259.278	15.091	871.675	652.497
260.293	15.208	870.962	652.363
261.307	15.117	870.441	651.561
262.322	15.249	869.552	651.351
263.336	15.300	868.878	650.985
264.351	15.403	867.848	650.555
265.366	15.229	867.648	649.672
266.380	15.264	866.904	649.194
267.395	15.103	866.494	648.208
268.409	15.190	865.586	647.804
269.424	15.277	865.043	647.678
270.439	15.311	863.943	646.927
271.453	15.304	863.514	646.525
272.468	15.258	863.022	645.919
273.482	15.325	862.585	645.794
274.497	15.222	862.079	644.963
275.512	15.393	861.282	644.964
276.526	15.342	860.851	644.390
277.541	15.426	860.124	644.112
278.555	15.372	859.839	643.635
279.570	15.443	859.035	643.246
280.585	15.440	858.198	642.551
281.599	15.474	857.486	642.093
282.614	15.480	856.589	641.385
283.628	15.496	856.030	640.974
284.643	15.483	855.556	640.513
285.657	15.478	855.391	640.313
286.672	15.566	854.295	639.768
287.687	15.505	854.208	639.417
288.701	15.539	853.494	638.955
289.716	15.499	852.961	638.345
290.730	15.646	852.272	638.334
291.745	15.505	851.671	637.292
292.760	15.666	850.989	637.336
293.774	15.675	850.473	636.927
294.789	15.542	850.039	636.043
295.803	15.571	849.116	635.403
296.818	15.531	848.551	634.774
297.833	15.672	847.897	634.760
298.847	15.737	847.062	634.324
299.862	15.682	846.402	633.569
300.876	15.759	846.212	633.658
301.891	15.710	845.281	632.722
302.906	15.619	845.610	632.568
303.920	15.726	844.828	632.330
304.935	15.858	843.950	632.113
305.949	15.822	843.334	631.460
306.964	15.806	843.058	631.137
307.979	15.969	842.034	630.928
308.993	16.011	841.788	630.842
310.008	15.914	840.867	629.733
311.022	15.854	840.698	629.327
312.037	16.023	839.793	629.225
313.052	15.902	839.428	628.446
314.066	15.869	838.889	627.863
315.081	15.887	838.557	627.625
316.095	15.802	837.905	626.766
317.110	15.975	837.228	626.846
318.125	15.978	836.544	626.291
319.139	15.859	836.546	625.793
320.154	15.953	835.942	625.638
321.168	15.793	835.431	624.605
322.183	16.081	834.528	624.941
323.197	16.045	834.359	624.627
324.212	16.065	833.730	624.174
325.227	16.047	832.778	623.342
326.241	16.097	832.381	623.172
327.256	16.060	831.783	622.533
328.270	15.998	831.534	622.065
329.285	16.047	830.399	621.341
330.300	15.979	830.157	620.853
331.314	16.033	829.952	620.846
332.329	16.174	829.400	620.896
333.343	16.064	828.722	619.927
334.358	16.099	828.547	619.871
335.373	16.188	828.258	619.926
336.387	16.149	827.918	619.473
337.402	16.207	827.595	619.391
338.416	16.275	827.446	619.474
339.431	16.309	826.767	619.035
340.446	16.400	826.386	619.029
341.460	16.377	825.758	618.419
342.475	16.463	825.760	618.680
343.489	16.571	824.957	618.420
344.504	16.436	824.217	617.316
345.519	16.561	824.027	617.576
346.533	16.369	823.830	616.674
347.548	16.341	823.154	616.009
348.562	16.466	822.597	615.993
349.577	16.344	822.113	615.134
350.592	16.343	821.767	614.815
351.606	16.335	820.747	613.971
352.621	16.337	819.866	613.263
353.635	16.446	819.415	613.268
354.650	16.510	818.661	612.883
355.665	16.460	818.363	612.422
356.679	16.566	817.720	612.270
357.694	16.533	816.936	611.512
358.708	16.654	816.189	611.334
359.723	16.518	815.926	610.593
360.738	16.587	815.250	610.283
361.752	16.680	814.588	610.066
362.767	16.671	814.274	609.746
363.781	16.712	813.892	609.555
364.796	16.793	812.997	609.119
365.810	16.780	813.035	609.047
366.825	16.731	812.584	608.480
367.840	16.769	812.033	608.150
368.854	16.766	811.558	607.728
369.869	16.708	811.471	607.403
370.883	16.779	810.554	606.915
371.898	16.872	810.082	606.844
372.913	16.996	809.659	606.916
373.927	16.879	809.405	606.254
374.942	16.928	808.785	605.911
375.956	16.949	808.721	605.882
376.971	16.955	808.338	605.566
377.986	17.089	807.654	605.476
379.000	17.205	807.110	605.428
380.015	17.080	806.572	604.525
381.029	17.058	806.176	604.098
382.044	16.987	805.807	603.515
383.059	17.088	804.810	603.072
384.073	17.031	804.585	602.651
385.088	16.986	803.889	601.915
386.102	17.152	803.340	602.040
387.117	17.074	802.868	601.356
388.132	16.979	802.695	600.838
389.146	17.110	801.827	600.597
390.161	17.154	801.184	600.219
391.175	17.221	800.743	600.070
392.190	17.106	800.526	599.450
393.205	17.151	799.917	599.100
394.219	17.156	799.470	598.729
395.234	17.135	799.196	598.397
396.248	17.094	798.317	597.540
397.263	17.178	798.288	597.764
398.278	17.177	797.919	597.430
399.292	17.230	797.479	597.235
400.307	17.220	796.965	596.759
401.321	17.254	796.417	596.419
402.336	17.272	796.232	596.288
403.350	17.332	795.456	595.864
404.365	17.315	794.869	595.312
405.380	17.289	795.104	595.346
406.394	17.337	794.410	594.940
407.409	17.361	794.103	594.742
408.423	17.421	793.575	594.504
409.438	17.360	793.351	594.070
410.453	17.549	792.472	594.020
411.467	17.537	792.307	593.802
412.482	17.492	791.917	593.300
413.496	17.605	791.476	593.310
414.511	17.630	791.145	593.095
415.526	17.600	790.795	592.675
416.540	17.634	789.966	592.121
417.555	17.733	789.830	592.311
418.569	17.627	789.270	591.472
419.584	17.691	789.082	591.499
420.599	17.811	788.522	591.443
421.613	113.797	1296.158	1484.050
422.628	97.796	1370.066	1484.123
