DTS Sentinel unit serial number:	SN413079Multiplexer serial number:	ORYXHardware model number:	OX4-SRSoftware version number:	ORYX F/W v4.00 Oryx Data Collector v3.7.2.0data status	okinstallation	princeton_trtdifferential loss correction	single-endedforward channel	channel 1reverse channel	N/Adate	2019/09/12time	12:56:11forward acquisition time	60.00reverse acquisition time	0.00gamma	496.2192k internal	0.2291k external	0.2291temperature offset calibration	1.0039default loss term (dB/km)	0.3790temperature slope calibration	1.0000multiplexer offset coefficient	1.0000multiplexer slope coefficient	1.0000fibre end	0.00T internal ref (°C)	40.81T ext. ref 1 (°C)	1.97T ext. ref 2 (°C)	37.08length (m)	temperature (°C)	Stokes	anti-Stokes-747.200	-194.774	0.119	-0.001
-746.185	125.548	-0.084	-0.109
-745.171	-200.000	-0.000	0.087
-744.156	-200.000	0.038	0.233
-743.142	98.460	-0.139	0.164
-742.127	24.046	-0.042	0.036
-741.112	-200.000	0.116	0.562
-740.098	174.045	0.177	0.262
-739.083	242.918	0.161	0.277
-738.069	800.000	-0.114	0.403
-737.054	80.512	0.095	0.104
-736.039	219.811	-0.125	-0.205
-735.025	407.579	0.170	0.368
-734.010	-142.154	-0.225	-0.023
-732.996	800.000	-0.087	-0.294
-731.981	-151.939	0.153	0.011
-730.966	-115.942	-0.208	-0.040
-729.952	-55.595	-0.265	-0.122
-728.937	191.409	-0.337	-0.519
-727.923	-85.741	0.182	0.058
-726.908	-46.815	-0.509	0.255
-725.894	-200.000	-0.012	-0.187
-724.879	409.200	0.215	0.467
-723.864	800.000	-0.041	0.180
-722.850	625.509	-0.184	-0.475
-721.835	64.223	-0.058	0.060
-720.821	250.640	-0.020	-0.035
-719.806	-109.270	-0.461	-0.100
-718.791	55.308	-0.212	-0.210
-717.777	-200.000	0.035	-0.184
-716.762	45.866	0.106	0.100
-715.748	3.129	-0.322	-0.239
-714.733	-9.563	-0.209	-0.143
-713.718	66.607	-0.121	-0.126
-712.704	-14.075	0.285	0.188
-711.689	456.410	-0.062	-0.140
-710.675	-112.332	-0.033	-0.007
-709.660	800.000	0.079	-0.246
-708.645	800.000	-0.033	-0.132
-707.631	75.374	-0.090	-0.097
-706.616	-65.316	0.100	0.041
-705.602	168.098	0.080	-0.117
-704.587	-193.574	-0.210	-0.002
-703.572	199.767	0.023	-0.036
-702.558	517.734	-0.100	-0.239
-701.543	-200.000	0.033	-0.230
-700.529	-76.414	0.054	0.019
-699.514	39.102	-0.165	-0.151
-698.499	800.000	-0.085	-0.367
-697.485	133.907	0.057	-0.076
-696.470	-13.530	-0.150	0.099
-695.456	-142.930	-0.331	-0.033
-694.441	772.115	-0.112	-0.311
-693.426	-161.932	-0.158	0.008
-692.412	-200.000	0.016	0.140
-691.397	800.000	0.076	0.330
-690.383	64.244	-0.071	-0.073
-689.368	-200.000	0.004	-0.356
-688.354	-156.464	-0.248	-0.016
-687.339	-102.476	-0.199	-0.049
-686.324	112.611	0.138	0.171
-685.310	-84.227	0.277	-0.090
-684.295	38.844	-0.367	0.335
-683.281	-27.003	0.168	-0.100
-682.266	128.637	-0.117	0.152
-681.251	-45.506	0.056	0.028
-680.237	800.000	0.078	-0.262
-679.222	-200.000	0.074	0.395
-678.208	-66.087	-0.018	-0.007
-677.193	428.477	-0.098	0.215
-676.178	-92.517	-0.344	-0.099
-675.164	90.526	0.252	-0.289
-674.149	342.254	0.173	0.347
-673.135	601.630	0.069	0.174
-672.120	-115.698	0.387	-0.074
-671.105	636.253	0.036	0.094
-670.091	85.467	0.074	-0.083
-669.076	800.000	0.203	-0.596
-668.062	53.213	0.180	-0.176
-667.047	-3.829	0.232	0.164
-666.032	28.547	-0.418	-0.361
-665.018	-142.300	-0.510	0.051
-664.003	42.118	0.198	0.183
-662.989	-142.508	-0.439	-0.044
-661.974	-200.000	0.005	0.124
-660.959	113.722	-0.107	-0.133
-659.945	478.358	0.185	0.427
-658.930	81.264	0.115	0.127
-657.916	-113.530	0.110	-0.022
-656.901	-102.893	-0.413	0.100
-655.886	-66.107	0.239	-0.097
-654.872	321.958	-0.234	-0.455
-653.857	-200.000	0.032	0.268
-652.843	386.568	0.063	-0.134
-651.828	652.318	-0.128	-0.335
-650.814	-114.143	0.191	-0.038
-649.799	30.389	-0.167	0.145
-648.784	180.223	0.103	0.155
-647.770	176.988	-0.131	0.194
-646.755	305.094	-0.032	0.061
-645.741	-42.184	-0.025	-0.013
-644.726	-100.247	-0.312	-0.079
-643.711	800.000	-0.053	0.225
-642.697	-151.778	-0.018	-0.001
-641.682	-95.826	-0.382	0.104
-640.668	6.658	-0.201	-0.153
-639.653	-115.979	-0.200	0.038
-638.638	-200.000	-0.003	0.139
-637.624	425.275	0.038	-0.083
-636.609	-200.000	0.016	-0.150
-635.595	-158.315	-0.127	0.008
-634.580	-98.219	-0.172	0.045
-633.565	-85.422	0.274	0.087
-632.551	-173.634	0.224	0.007
-631.536	298.100	-0.106	-0.198
-630.522	-153.294	0.255	0.018
-629.507	-45.031	-0.196	-0.099
-628.492	-109.332	-0.264	0.057
-627.478	251.100	0.066	-0.115
-626.463	800.000	0.076	-0.224
-625.449	-119.532	-0.289	0.051
-624.434	-99.018	0.127	0.033
-623.419	-131.340	-0.281	-0.038
-622.405	800.000	0.014	-0.052
-621.390	148.193	-0.144	0.198
-620.376	328.931	0.008	-0.016
-619.361	-75.173	-0.105	-0.038
-618.346	677.941	0.091	0.240
-617.332	111.347	0.112	0.137
-616.317	-126.769	0.281	-0.042
-615.303	161.085	0.059	-0.084
-614.288	-138.522	0.488	0.055
-613.273	-200.000	0.022	0.136
-612.259	19.817	-0.134	-0.110
-611.244	63.701	-0.296	-0.303
-610.230	-200.000	0.024	-0.126
-609.215	-200.000	-0.013	0.465
-608.201	347.919	-0.109	-0.219
-607.186	0.914	0.260	0.190
-606.171	49.634	-0.303	0.290
-605.157	692.755	-0.047	-0.126
-604.142	28.255	-0.138	-0.119
-603.128	291.515	0.147	-0.273
-602.113	260.873	-0.037	0.065
-601.098	800.000	0.078	-0.311
-600.084	-23.776	0.208	-0.127
-599.069	800.000	0.057	-0.161
-598.055	-200.000	-0.016	-0.091
-597.040	-28.618	-0.162	-0.095
-596.025	66.667	0.148	-0.153
-595.011	-200.000	-0.004	-0.511
-593.996	-107.452	0.272	0.061
-592.982	800.000	-0.080	-0.244
-591.967	-200.000	0.036	-0.321
-590.952	-36.088	-0.228	-0.126
-589.938	556.452	0.082	-0.200
-588.923	800.000	0.091	-0.302
-587.909	-31.801	0.281	-0.161
-586.894	-74.491	0.210	0.077
-585.879	-165.819	-0.091	-0.004
-584.865	-151.232	-0.194	-0.015
-583.850	-73.232	-0.185	-0.069
-582.836	-82.036	0.207	0.069
-581.821	637.397	0.088	-0.228
-580.806	143.524	-0.219	0.296
-579.792	-135.636	0.193	0.023
-578.777	-117.609	0.123	-0.022
-577.763	202.101	-0.070	-0.110
-576.748	-43.636	-0.158	0.081
-575.733	-200.000	-0.055	-0.273
-574.719	800.000	0.036	-0.140
-573.704	214.405	-0.275	-0.443
-572.690	-33.941	-0.035	-0.020
-571.675	153.176	0.137	0.191
-570.661	-141.903	-0.196	-0.020
-569.646	-119.838	-0.126	0.022
-568.631	-99.764	0.178	-0.045
-567.617	184.020	-0.078	0.117
-566.602	-142.732	-0.122	-0.012
-565.588	199.549	-0.139	0.217
-564.573	-12.432	-0.119	-0.079
-563.558	-121.631	0.125	-0.021
-562.544	-200.000	0.027	-0.203
-561.529	800.000	-0.127	-0.373
-560.515	490.590	-0.136	-0.317
-559.500	-114.831	-0.126	0.025
-558.485	12.125	0.037	-0.029
-557.471	92.580	0.177	-0.202
-556.456	-62.177	-0.118	-0.050
-555.442	-109.518	-0.536	-0.115
-554.427	247.012	0.032	-0.056
-553.412	121.667	-0.105	0.134
-552.398	-71.549	-0.210	-0.080
-551.383	87.723	0.201	-0.227
-550.369	-200.000	0.017	-0.094
-549.354	3.813	0.457	0.339
-548.339	658.904	0.081	0.212
-547.325	-2.380	0.077	-0.055
-546.310	800.000	0.070	0.225
-545.296	623.875	-0.100	-0.257
-544.281	-87.750	-0.323	-0.099
-543.266	800.000	0.049	-0.157
-542.252	-124.006	-0.147	0.024
-541.237	800.000	0.009	0.027
-540.223	-123.875	0.298	0.048
-539.208	-200.000	0.006	0.055
-538.193	-119.002	-0.315	-0.056
-537.179	-200.000	-0.019	0.130
-536.164	-190.025	-0.332	-0.004
-535.150	35.651	0.151	0.135
-534.135	-62.833	-0.150	0.063
-533.121	-62.431	-0.086	0.036
-532.106	383.887	0.141	-0.294
-531.091	-200.000	0.045	-0.216
-530.077	-134.833	-0.307	0.038
-529.062	-200.000	-0.012	0.115
-528.048	462.935	0.053	0.120
-527.033	16.270	0.217	-0.174
-526.018	-11.036	0.129	0.086
-525.004	421.854	0.065	-0.141
-523.989	-200.000	0.005	0.240
-522.975	-10.943	-0.118	0.079
-521.960	-54.978	-0.104	0.047
-520.945	97.259	-0.161	-0.187
-519.931	800.000	0.089	-0.285
-518.916	-83.365	-0.054	-0.018
-517.902	190.637	0.085	-0.130
-516.887	-200.000	-0.024	-0.237
-515.872	-117.607	0.091	0.017
-514.858	800.000	-0.070	0.291
-513.843	-200.000	0.018	0.129
-512.829	34.592	0.070	-0.062
-511.814	800.000	0.024	0.100
-510.799	170.947	-0.106	-0.154
-509.785	32.037	0.071	0.062
-508.770	800.000	0.025	0.102
-507.756	-200.000	-0.081	0.481
-506.741	14.042	-0.054	-0.043
-505.726	-200.000	-0.004	-0.257
-504.712	-200.000	-0.014	-0.140
-503.697	520.073	0.053	0.125
-502.683	-23.386	0.336	0.204
-501.668	75.757	-0.136	0.146
-500.653	521.574	-0.120	0.285
-499.639	-176.459	-0.286	0.008
-498.624	800.000	0.087	0.314
-497.610	-200.000	0.009	0.133
-496.595	-19.155	-0.189	0.119
-495.581	-126.530	-0.134	-0.020
-494.566	-200.000	0.004	-0.114
-493.551	800.000	0.045	-0.183
-492.537	-29.808	-0.170	-0.098
-491.522	47.141	0.262	-0.247
-490.508	-161.819	0.233	-0.012
-489.493	32.589	0.210	0.184
-488.478	471.514	0.046	0.106
-487.464	-152.998	0.429	0.031
-486.449	-200.000	0.067	0.311
-485.435	-200.000	-0.011	0.247
-484.420	556.736	-0.083	0.203
-483.405	76.177	-0.132	-0.142
-482.391	432.613	0.104	0.229
-481.376	-51.799	-0.268	0.126
-480.362	640.301	-0.050	-0.128
-479.347	-200.000	-0.080	0.365
-478.332	-22.795	-0.054	0.033
-477.318	-6.222	-0.080	0.055
-476.303	-16.307	0.174	0.112
-475.289	13.089	-0.247	-0.194
-474.274	-108.341	-0.275	-0.060
-473.259	-200.000	0.082	-0.416
-472.245	650.804	-0.067	-0.174
-471.230	-200.000	0.032	-0.164
-470.216	-100.226	-0.124	0.031
-469.201	277.381	0.070	0.127
-468.186	-80.396	0.381	-0.129
-467.172	-157.262	-0.081	-0.005
-466.157	-100.294	-0.298	-0.075
-465.143	-200.000	0.017	0.223
-464.128	75.148	-0.074	-0.079
-463.113	80.893	0.281	-0.307
-462.099	-200.000	-0.006	0.096
-461.084	126.763	-0.126	0.162
-460.070	-176.569	-0.017	0.000
-459.055	-119.313	0.145	0.026
-458.040	800.000	-0.042	0.145
-457.026	-31.528	-0.253	0.144
-456.011	800.000	0.034	-0.141
-454.997	-113.056	-0.226	0.045
-453.982	800.000	-0.013	-0.048
-452.968	-44.480	-0.134	0.068
-451.953	82.115	0.161	-0.177
-450.938	-2.975	0.329	0.233
-449.924	-118.970	-0.307	0.055
-448.909	-147.801	0.047	0.004
-447.895	-26.794	-0.163	0.096
-446.880	-200.000	0.014	-0.167
-445.865	117.937	-0.112	-0.140
-444.851	-86.248	-0.231	0.072
-443.836	496.176	-0.115	-0.268
-442.822	-141.363	0.242	0.025
-441.807	800.000	-0.069	0.223
-440.792	747.696	0.075	0.205
-439.778	31.924	-0.241	-0.210
-438.763	-34.170	-0.298	0.165
-437.749	450.849	0.037	0.082
-436.734	-89.667	-0.212	-0.063
-435.719	-200.000	0.013	0.347
-434.705	68.294	0.013	-0.013
-433.690	434.639	-0.155	-0.341
-432.676	-30.020	-0.226	0.130
-431.661	66.857	-0.123	0.127
-430.646	-200.000	0.028	0.202
-429.632	-200.000	-0.004	-0.535
-428.617	-118.773	0.283	-0.050
-427.603	195.672	-0.128	-0.197
-426.588	14.314	-0.080	-0.063
-425.573	-51.234	0.200	0.095
-424.559	25.841	-0.244	-0.205
-423.544	291.309	-0.138	-0.254
-422.530	-162.183	0.415	-0.021
-421.515	365.394	0.052	0.106
-420.500	-64.465	-0.078	-0.032
-419.486	94.653	-0.205	-0.235
-418.471	-62.317	0.254	-0.107
-417.457	-30.976	-0.118	-0.067
-416.442	-26.107	0.143	-0.085
-415.428	-92.750	0.157	-0.044
-414.413	-108.515	0.353	0.077
-413.398	-136.338	-0.089	-0.011
-412.384	68.171	0.146	-0.151
-411.369	800.000	-0.041	-0.123
-410.355	-173.624	-0.061	-0.002
-409.340	-107.832	-0.218	-0.048
-408.325	-112.045	-0.252	0.051
-407.311	115.404	-0.090	0.112
-406.296	-200.000	-0.020	-0.115
-405.282	-200.000	0.011	-0.118
-404.267	-200.000	-0.030	-0.192
-403.252	800.000	-0.075	0.280
-402.238	-47.429	0.131	-0.065
-401.223	-200.000	-0.029	-0.223
-400.209	-117.985	0.337	-0.061
-399.194	-200.000	0.022	0.325
-398.179	-133.945	0.331	-0.041
-397.165	592.318	-0.026	-0.066
-396.150	200.288	-0.108	-0.167
-395.136	-200.000	-0.004	-0.034
-394.121	-13.694	-0.107	-0.070
-393.106	715.025	-0.009	0.025
-392.092	-0.907	0.203	-0.145
-391.077	-54.129	-0.115	0.053
-390.063	-152.217	0.373	0.027
-389.048	-49.529	0.228	0.110
-388.033	-200.000	-0.056	0.322
-387.019	299.861	-0.067	0.124
-386.004	-71.311	-0.179	0.068
-384.990	-71.926	-0.098	-0.037
-383.975	225.145	0.064	0.105
-382.960	38.470	-0.069	0.062
-381.946	-27.682	0.121	0.071
-380.931	-90.539	0.157	-0.046
-379.917	635.065	0.160	-0.411
-378.902	629.126	0.134	0.342
-377.888	-69.903	-0.113	-0.043
-376.873	-200.000	0.038	-0.205
-375.858	-42.996	0.103	-0.052
-374.844	-86.885	0.110	0.034
-373.829	-131.632	0.082	-0.011
-372.815	140.395	0.135	0.180
-371.800	800.000	-0.040	-0.151
-370.785	-5.271	0.140	0.097
-369.771	800.000	-0.077	0.313
-368.756	442.709	0.162	0.357
-367.742	-200.000	-0.019	0.298
-366.727	-57.292	-0.131	0.058
-365.712	8.510	0.134	-0.101
-364.698	800.000	0.060	0.170
-363.683	-162.961	-0.305	-0.015
-362.669	299.226	0.116	0.215
-361.654	7.724	-0.122	0.092
-360.639	-200.000	-0.019	0.119
-359.625	24.555	0.126	-0.105
-358.610	317.965	0.166	0.317
-357.596	-200.000	-0.067	0.548
-356.581	53.111	-0.234	-0.226
-355.566	800.000	0.079	0.306
-354.552	-37.139	0.291	0.157
-353.537	800.000	0.132	0.408
-352.523	-63.089	0.189	0.079
-351.508	-74.296	-0.160	0.058
-350.493	-200.000	0.110	0.000
-349.479	315.676	0.175	0.333
-348.464	-200.000	0.002	0.036
-347.450	169.068	-0.158	0.228
-346.435	-74.936	-0.299	0.108
-345.420	-200.000	0.005	-0.313
-344.406	52.042	0.114	-0.110
-343.391	46.077	0.171	-0.159
-342.377	535.756	-0.063	-0.152
-341.362	-96.546	0.276	-0.073
-340.348	-111.816	-0.210	0.043
-339.333	-12.760	0.202	0.133
-338.318	-146.211	-0.050	0.004
-337.304	-133.369	0.138	0.017
-336.289	-174.409	-0.026	0.001
-335.275	224.534	-0.037	-0.061
-334.260	-200.000	0.037	-0.294
-333.245	-200.000	-0.029	0.318
-332.231	-200.000	0.014	-0.197
-331.216	55.773	0.113	-0.110
-330.202	-4.963	0.233	0.162
-329.187	24.897	0.296	0.247
-328.172	31.573	0.456	0.395
-327.158	73.379	-0.326	-0.344
-326.143	459.043	-0.048	-0.107
-325.129	800.000	-0.026	0.091
-324.114	-200.000	0.021	0.387
-323.099	186.533	-0.039	-0.059
-322.085	15.750	-0.202	0.160
-321.070	-55.049	-0.280	0.127
-320.056	-11.304	-0.070	-0.046
-319.041	800.000	0.124	0.427
-318.026	-200.000	0.007	0.140
-317.012	-87.076	-0.102	-0.031
-315.997	-118.393	0.144	0.026
-314.983	627.208	-0.127	-0.323
-313.968	-200.000	0.001	0.110
-312.953	800.000	-0.034	0.107
-311.939	-68.576	0.345	0.134
-310.924	245.888	0.022	-0.037
-309.910	-200.000	-0.025	0.270
-308.895	95.442	0.130	0.149
-307.880	-22.918	0.149	0.091
-306.866	-3.755	-0.131	-0.092
-305.851	-93.118	0.364	-0.102
-304.837	800.000	-0.103	0.301
-303.822	-109.114	0.146	-0.031
-302.807	314.383	0.114	0.216
-301.793	800.000	-0.052	0.207
-300.778	800.000	-0.118	-0.332
-299.764	5.440	0.218	0.162
-298.749	199.841	0.195	-0.302
-297.735	83.818	-0.215	0.236
-296.720	-86.316	-0.192	0.059
-295.705	11.749	0.133	-0.103
-294.691	261.444	0.126	0.220
-293.676	-200.000	-0.030	0.337
-292.662	648.462	0.059	-0.151
-291.647	129.659	-0.090	-0.116
-290.632	-116.680	0.301	-0.056
-289.618	-200.000	0.011	-0.073
-288.603	-200.000	-0.080	0.370
-287.589	-89.299	-0.265	0.078
-286.574	-200.000	-0.035	0.179
-285.559	-200.000	0.009	-0.526
-284.545	-18.168	0.068	-0.043
-283.530	122.093	-0.130	-0.163
-282.516	800.000	0.056	-0.194
-281.501	194.377	0.203	0.310
-280.486	222.665	0.115	-0.186
-279.472	55.523	0.048	-0.047
-278.457	-4.007	0.093	0.065
-277.443	-119.837	-0.347	0.060
-276.428	800.000	0.066	0.280
-275.413	800.000	-0.078	0.219
-274.399	-124.090	-0.062	0.010
-273.384	-184.059	-0.088	-0.001
-272.370	37.776	0.181	-0.162
-271.355	-120.661	-0.234	0.040
-270.340	62.151	-0.172	0.172
-269.326	-98.318	-0.382	-0.098
-268.311	-200.000	-0.037	0.171
-267.297	233.821	-0.159	-0.263
-266.282	-200.000	-0.040	0.195
-265.267	-50.821	0.329	-0.155
-264.253	-23.193	-0.227	-0.137
-263.238	-26.653	-0.128	-0.075
-262.224	-200.000	-0.016	0.226
-261.209	31.538	-0.280	-0.242
-260.195	334.244	0.030	-0.058
-259.180	134.916	0.250	-0.326
-258.165	-200.000	0.047	-0.222
-257.151	-200.000	-0.005	0.371
-256.136	-98.065	0.095	0.025
-255.122	-90.554	-0.129	-0.038
-254.107	316.609	0.176	-0.335
-253.092	-32.699	0.124	0.070
-252.078	-200.000	0.043	0.258
-251.063	-200.000	0.064	0.320
-250.049	128.091	0.132	0.169
-249.034	570.838	0.038	0.094
-248.019	-200.000	0.045	-0.307
-247.005	-163.402	0.006	-0.000
-245.990	-200.000	0.012	-0.259
-244.976	-112.699	-0.220	-0.044
-243.961	-35.430	0.240	0.131
-242.946	127.206	-0.088	-0.112
-241.932	111.523	0.127	-0.154
-240.917	-16.313	-0.105	0.067
-239.903	-200.000	-0.008	-0.103
-238.888	-55.944	-0.015	0.007
-237.873	521.194	0.120	0.282
-236.859	61.293	-0.082	-0.081
-235.844	757.313	-0.080	-0.218
-234.830	177.133	-0.137	0.199
-233.815	800.000	-0.008	0.031
-232.800	-156.756	-0.357	-0.022
-231.786	134.796	-0.083	0.108
-230.771	-109.703	-0.248	-0.052
-229.757	-69.671	0.083	0.032
-228.742	800.000	-0.036	0.147
-227.727	45.031	0.280	-0.259
-226.713	800.000	0.044	0.149
-225.698	-193.913	-0.117	0.001
-224.684	-178.203	0.037	-0.001
-223.669	0.973	0.272	0.195
-222.655	800.000	-0.064	0.239
-221.640	-93.844	0.250	0.069
-220.625	-125.988	-0.242	-0.037
-219.611	347.560	-0.099	-0.195
-218.596	-25.747	-0.146	-0.086
-217.582	-200.000	0.035	0.331
-216.567	172.065	0.245	-0.354
-215.552	36.452	0.326	-0.288
-214.538	371.958	-0.042	0.086
-213.523	-120.273	-0.168	0.029
-212.509	-200.000	-0.010	-0.094
-211.494	-77.480	0.228	-0.079
-210.479	7.843	0.286	0.215
-209.465	165.256	-0.202	-0.286
-208.450	165.685	-0.107	0.151
-207.436	-200.000	-0.020	-0.380
-206.421	47.036	0.153	0.143
-205.406	-200.000	0.073	0.358
-204.392	-54.204	0.514	0.234
-203.377	153.715	-0.128	-0.175
-202.363	33.047	0.238	-0.207
-201.348	-46.796	-0.030	-0.015
-200.333	44.354	0.230	0.211
-199.319	19.935	-0.153	0.124
-198.304	800.000	-0.063	-0.228
-197.290	-200.000	0.017	0.151
-196.275	-102.899	-0.092	-0.022
-195.260	492.027	-0.102	-0.234
-194.246	800.000	0.074	-0.285
-193.231	165.410	-0.190	-0.269
-192.217	533.984	-0.068	0.161
-191.202	800.000	-0.086	0.251
-190.187	800.000	0.068	-0.239
-189.173	382.467	0.068	0.140
-188.158	-176.133	-0.033	-0.001
-187.144	-200.000	0.054	-0.419
-186.129	103.568	-0.067	0.079
-185.114	-156.459	0.130	0.008
-184.100	131.978	0.194	0.250
-183.085	361.664	-0.088	-0.177
-182.071	153.171	-0.171	-0.234
-181.056	-74.745	-0.221	0.079
-180.042	-136.098	-0.250	0.029
-179.027	-144.655	0.043	0.004
-178.012	-142.263	0.198	0.020
-176.998	-183.285	-0.469	-0.008
-175.983	-200.000	0.021	-0.110
-174.969	614.258	0.143	-0.358
-173.954	-74.169	0.063	-0.023
-172.939	41.743	0.080	-0.073
-171.925	-108.222	-0.235	-0.051
-170.910	204.610	-0.064	0.099
-169.896	140.035	-0.159	0.210
-168.881	-200.000	0.034	0.311
-167.866	128.795	0.184	-0.235
-166.852	-151.044	0.106	0.008
-165.837	248.926	0.081	0.138
-164.823	-2.067	-0.038	-0.026
-163.808	-162.610	0.362	0.018
-162.793	-112.634	0.406	0.081
-161.779	-200.000	-0.039	0.236
-160.764	-104.028	-0.188	0.044
-159.750	-8.269	0.316	-0.213
-158.735	12.315	0.318	-0.245
-157.720	732.519	-0.152	-0.407
-156.706	52.330	0.150	-0.143
-155.691	-173.699	0.294	0.009
-154.677	-128.343	0.074	-0.011
-153.662	370.638	-0.070	0.143
-152.647	-110.054	-0.348	-0.073
-151.633	369.990	0.094	-0.191
-150.618	-200.000	0.029	-0.144
-149.604	-99.009	0.032	-0.008
-148.589	212.821	-0.100	-0.157
-147.574	110.802	-0.192	-0.231
-146.560	-127.494	0.141	0.020
-145.545	-198.453	0.285	-0.002
-144.531	-50.884	-0.066	0.031
-143.516	-29.840	-0.390	0.222
-142.502	24.276	-0.328	-0.271
-141.487	-135.460	-0.322	-0.038
-140.472	-70.621	0.162	-0.061
-139.458	-173.759	-0.289	-0.009
-138.443	27.935	0.122	0.103
-137.429	765.955	0.060	0.162
-136.414	86.951	0.171	-0.189
-135.399	771.649	0.110	0.300
-134.385	800.000	0.060	-0.239
-133.370	9.337	0.103	-0.078
-132.356	800.000	0.062	-0.193
-131.341	-157.223	0.223	0.014
-130.326	184.319	0.128	-0.190
-129.312	-200.000	0.044	-0.234
-128.297	-200.000	-0.026	0.121
-127.283	126.718	-0.118	-0.150
-126.268	245.272	-0.086	-0.145
-125.253	-200.000	-0.005	0.146
-124.239	-101.762	0.364	0.088
-123.224	-200.000	0.053	0.381
-122.210	-32.398	-0.297	0.166
-121.195	-103.745	-0.140	-0.033
-120.180	52.411	0.127	0.121
-119.166	-112.750	0.578	-0.115
-118.151	-200.000	0.017	0.120
-117.137	195.631	0.103	-0.157
-116.122	600.761	0.128	0.317
-115.107	-57.753	-0.254	0.111
-114.093	-181.928	0.270	0.005
-113.078	-12.515	-0.073	0.048
-112.064	-16.184	-0.346	-0.219
-111.049	101.424	-0.062	-0.072
-110.034	91.713	-0.284	0.320
-109.020	-200.000	0.020	0.125
-108.005	68.089	-0.180	0.184
-106.991	234.002	-0.264	-0.434
-105.976	-200.000	0.091	0.475
-104.962	-114.538	0.332	0.064
-103.947	131.736	-0.104	0.134
-102.932	-78.780	0.131	-0.045
-101.918	-149.653	0.116	-0.009
-100.903	154.834	0.091	-0.125
-99.889	83.759	-0.271	0.295
-98.874	-47.055	0.283	-0.138
-97.859	148.740	-0.065	0.088
-96.845	-200.000	0.014	0.307
-95.830	-78.240	-0.121	-0.042
-94.816	617.108	-0.019	0.048
-93.801	-101.298	0.181	0.044
-92.786	-88.970	-0.036	-0.011
-91.772	303.738	0.105	-0.195
-90.757	-200.000	0.054	-0.418
-89.743	-87.642	-0.155	-0.047
-88.728	800.000	-0.042	0.185
-87.713	-200.000	0.041	-0.224
-86.699	-81.795	-0.198	-0.065
-85.684	-146.202	0.053	0.005
-84.670	61.515	-0.163	0.162
-83.655	126.640	0.211	0.267
-82.640	-46.661	0.056	0.027
-81.626	-60.058	0.126	-0.054
-80.611	131.345	0.074	-0.095
-79.597	12.985	0.432	0.333
-78.582	142.243	-0.250	0.331
-77.567	-59.821	0.190	-0.081
-76.553	-200.000	-0.004	-0.026
-75.538	78.870	0.237	0.253
-74.524	-143.330	-0.158	-0.015
-73.509	23.167	-0.157	0.128
-72.494	-100.564	0.309	0.076
-71.480	-82.967	-0.273	0.088
-70.465	244.578	-0.323	-0.542
-69.451	-155.211	0.165	-0.011
-68.436	121.681	0.125	0.156
-67.422	-148.713	-0.305	0.025
-66.407	800.000	-0.146	-0.451
-65.392	172.241	0.054	-0.077
-64.378	95.585	-0.112	0.128
-63.363	599.971	-0.112	-0.278
-62.349	-200.000	-0.004	0.105
-61.334	45.850	-0.811	-0.747
-60.319	-47.152	0.454	0.221
-59.305	616.798	-0.236	-0.591
-58.290	225.500	0.542	0.875
-57.276	351.672	0.637	1.257
-56.261	-200.000	76.331	505.483
-55.246	511.696	1331.831	3090.373
-54.232	145.387	2564.461	3421.545
-53.217	117.169	2229.729	2730.468
-52.203	52.600	1671.697	1591.054
-51.188	44.482	1394.635	1276.621
-50.173	40.996	1348.563	1213.181
-49.159	59.331	1384.199	1358.520
-48.144	66.211	1402.057	1418.266
-47.130	45.040	1365.500	1253.181
-46.115	40.871	1349.196	1212.800
-45.100	40.636	1344.541	1207.133
-44.086	40.587	1342.062	1204.564
-43.071	40.672	1339.379	1202.626
-42.057	40.504	1337.285	1199.679
-41.042	40.642	1335.584	1198.940
-40.027	40.663	1334.146	1197.729
-39.013	40.707	1331.999	1196.020
-37.998	40.832	1329.948	1194.879
-36.984	40.776	1328.315	1193.028
-35.969	40.804	1326.706	1191.708
-34.954	40.862	1325.016	1190.486
-33.940	40.902	1323.541	1189.357
-32.925	40.869	1322.611	1188.274
-31.911	40.888	1320.820	1186.730
-30.896	40.959	1319.058	1185.522
-29.881	40.761	1318.681	1183.955
-28.867	40.836	1316.671	1182.551
-27.852	40.790	1315.506	1181.188
-26.838	41.087	1313.065	1180.708
-25.823	40.851	1312.382	1178.651
-24.809	40.868	1310.711	1177.203
-23.794	40.801	1309.570	1175.736
-22.779	40.911	1308.231	1175.137
-21.765	40.958	1306.712	1174.001
-20.750	40.907	1305.153	1172.254
-19.736	40.879	1303.764	1170.792
-18.721	40.818	1303.014	1169.713
-17.706	40.797	1301.992	1168.628
-16.692	40.705	1300.870	1167.035
-15.677	40.713	1299.816	1166.089
-14.663	40.705	1298.604	1164.908
-13.648	40.694	1297.323	1163.650
-12.633	40.734	1296.317	1162.934
-11.619	40.699	1295.590	1162.030
-10.604	40.846	1294.550	1161.910
-9.590	40.822	1293.196	1160.513
-8.575	40.837	1291.613	1159.131
-7.560	40.806	1291.352	1158.673
-6.546	40.790	1290.586	1157.843
-5.531	40.651	1290.118	1156.571
-4.517	40.802	1288.524	1155.970
-3.502	40.740	1288.191	1155.269
-2.487	40.806	1286.739	1154.305
-1.473	40.889	1283.271	1151.624
-0.458	39.901	1268.252	1132.439
0.556	36.226	1248.384	1091.312
1.571	31.989	1251.874	1070.165
2.586	30.702	1266.526	1075.168
3.600	29.128	1254.939	1056.215
4.615	20.995	1176.799	946.414
5.629	8.369	1092.555	814.563
6.644	2.523	1068.515	767.344
7.659	1.935	1065.777	762.369
8.673	1.742	1064.379	760.341
9.688	1.683	1062.746	758.812
10.702	2.141	1061.495	760.132
11.717	9.082	1072.826	802.995
12.731	20.379	1088.756	871.896
13.746	25.130	1094.305	900.178
14.761	25.256	1094.236	900.670
15.775	25.270	1093.354	899.939
16.790	25.126	1092.494	898.430
17.804	25.040	1091.772	897.325
18.819	25.098	1091.418	897.243
19.834	25.250	1091.106	897.670
20.848	25.292	1090.710	897.474
21.863	25.216	1090.296	896.675
22.877	25.226	1089.476	895.969
23.892	24.980	1089.011	894.278
24.907	25.223	1088.048	894.619
25.921	25.257	1086.569	893.496
26.936	25.178	1085.389	892.052
27.950	25.133	1083.786	890.436
28.965	24.980	1082.213	888.305
29.980	24.993	1080.877	887.195
30.994	25.251	1080.178	887.817
32.009	25.325	1078.905	887.057
33.023	25.191	1077.498	885.161
34.038	25.035	1077.114	883.998
35.053	25.033	1076.753	883.614
36.067	25.222	1075.738	883.636
37.082	25.249	1074.975	883.060
38.096	25.368	1074.262	882.985
39.111	25.465	1073.733	882.946
40.126	25.267	1072.232	880.661
41.140	25.002	1070.542	877.898
42.155	24.719	1069.156	875.300
43.169	24.775	1068.557	875.007
44.184	24.845	1067.497	874.403
45.199	24.754	1066.109	872.746
46.213	24.774	1065.696	872.428
47.228	25.004	1064.906	872.824
48.242	25.083	1063.907	872.311
49.257	25.176	1063.048	871.981
50.271	25.218	1062.629	871.766
51.286	25.341	1061.813	871.615
52.301	25.319	1060.902	870.682
53.315	25.126	1060.091	869.006
54.330	25.173	1058.764	868.070
55.344	25.289	1057.998	867.927
56.359	25.123	1057.600	866.722
57.374	24.879	1056.548	864.600
58.388	25.066	1055.548	864.611
59.403	24.825	1054.497	862.511
60.417	24.801	1053.908	861.836
61.432	24.708	1053.664	861.114
62.447	24.914	1053.056	861.531
63.461	24.991	1051.959	860.928
64.476	24.775	1051.486	859.426
65.490	24.819	1049.857	858.231
66.505	24.887	1049.364	858.078
67.520	24.933	1048.957	857.889
68.534	24.756	1047.903	856.103
69.549	24.350	1046.676	853.083
70.563	24.500	1045.312	852.615
71.578	24.409	1045.224	852.034
72.593	24.216	1044.134	850.148
73.607	24.394	1043.703	850.569
74.622	24.688	1043.324	851.585
75.636	24.794	1042.738	851.540
76.651	24.646	1041.719	849.928
77.666	24.447	1041.058	848.366
78.680	24.600	1040.781	848.790
79.695	24.573	1039.796	847.787
80.709	24.816	1039.134	848.324
81.724	24.718	1038.501	847.269
82.739	24.792	1037.726	846.912
83.753	25.192	1037.269	848.354
84.768	25.521	1036.091	848.870
85.782	25.582	1035.722	848.779
86.797	25.496	1034.435	847.244
87.812	25.359	1033.426	845.700
88.826	25.448	1032.427	845.227
89.841	25.445	1031.612	844.468
90.855	25.542	1030.592	844.017
91.870	25.418	1030.032	842.898
92.884	25.353	1028.561	841.319
93.899	25.280	1027.368	839.926
94.914	25.448	1027.026	840.356
95.928	25.383	1025.422	838.667
96.943	25.179	1024.529	836.909
97.957	24.823	1023.404	834.256
98.972	24.674	1022.270	832.567
99.987	24.832	1022.135	833.116
101.001	25.086	1021.459	833.675
102.016	25.073	1020.048	832.389
103.030	25.099	1019.280	831.811
104.045	24.772	1018.631	829.691
105.060	24.638	1017.523	828.094
106.074	24.966	1016.457	828.671
107.089	25.148	1016.542	829.510
108.103	25.104	1015.355	828.264
109.118	24.964	1013.687	826.182
110.133	24.870	1012.962	825.087
111.147	24.737	1011.700	823.374
112.162	24.583	1010.650	821.738
113.176	24.938	1010.135	822.879
114.191	24.801	1009.328	821.520
115.206	24.541	1008.429	819.522
116.220	24.300	1008.106	818.080
117.235	24.604	1006.743	818.294
118.249	24.653	1005.851	817.718
119.264	24.548	1005.042	816.509
120.279	24.499	1004.493	815.769
121.293	24.567	1004.135	815.715
122.308	24.475	1003.008	814.308
123.322	24.498	1002.031	813.546
124.337	24.313	1000.644	811.510
125.352	23.892	998.888	808.098
126.366	23.823	997.897	806.913
127.381	24.725	997.429	810.554
128.395	25.012	997.779	812.068
129.410	25.149	996.882	811.885
130.424	25.091	995.899	810.750
131.439	25.150	995.105	810.299
132.454	25.030	994.351	809.071
133.468	25.032	993.232	808.099
134.483	25.215	992.534	808.284
135.497	25.447	991.587	808.485
136.512	25.313	990.952	807.294
137.527	25.399	990.087	806.903
138.541	25.391	989.697	806.481
139.556	25.382	988.631	805.498
140.570	25.460	987.862	805.152
141.585	25.502	986.747	804.358
142.600	25.551	985.522	803.508
143.614	25.562	985.257	803.271
144.629	25.737	984.307	803.206
145.643	25.646	983.060	801.709
146.658	25.334	981.833	799.251
147.673	25.294	980.693	798.074
148.687	25.197	979.388	796.510
149.702	25.159	978.518	795.566
150.716	25.147	978.030	795.047
151.731	25.287	977.128	794.861
152.746	25.503	976.684	795.385
153.760	25.519	976.409	795.163
154.775	25.431	975.711	794.132
155.789	25.497	974.465	793.342
156.804	25.558	973.256	792.556
157.819	25.679	972.440	792.353
158.833	25.665	972.202	792.030
159.848	25.671	971.017	791.019
160.862	25.358	970.390	789.064
161.877	25.440	969.066	788.274
162.892	25.472	968.347	787.763
163.906	25.337	967.158	786.133
164.921	25.509	966.180	786.021
165.935	25.480	965.480	785.258
166.950	25.497	964.587	784.536
167.964	25.529	963.203	783.478
168.979	25.484	962.064	782.288
169.994	25.311	960.951	780.559
171.008	25.557	961.211	781.771
172.023	25.670	959.777	781.028
173.037	25.465	958.759	779.242
174.052	25.259	957.961	777.629
175.067	25.134	957.865	776.941
176.081	25.269	957.375	777.062
177.096	25.184	956.635	776.026
178.110	25.019	955.614	774.413
179.125	24.720	954.789	772.386
180.140	24.915	954.182	772.669
181.154	25.032	954.225	773.138
182.169	25.271	954.013	773.929
183.183	25.541	953.680	774.756
184.198	25.431	952.684	773.404
185.213	25.347	951.876	772.317
186.227	25.493	951.259	772.376
187.242	25.579	950.162	771.789
188.256	25.470	950.163	771.252
189.271	25.565	949.125	770.748
190.286	25.264	947.763	768.284
191.300	24.583	946.751	764.482
192.315	23.810	944.942	759.651
193.329	23.719	944.485	758.829
194.344	24.593	945.032	762.935
195.359	25.407	944.668	766.048
196.373	25.483	944.203	765.926
197.388	25.353	943.657	764.863
198.402	25.419	943.163	764.676
199.417	25.517	942.639	764.601
200.432	25.299	941.284	762.509
201.446	25.014	940.796	760.834
202.461	25.056	940.338	760.575
203.475	24.222	938.944	755.843
204.490	23.376	936.904	750.554
205.504	24.226	937.775	754.785
206.519	24.897	937.519	757.353
207.534	25.030	936.901	757.348
208.548	25.305	936.791	758.355
209.563	25.164	935.730	756.833
210.577	25.193	934.922	756.237
211.592	25.619	934.821	757.883
212.607	25.443	934.188	756.561
213.621	25.565	933.347	756.326
214.636	25.584	932.802	755.898
215.650	25.514	931.769	754.698
216.665	25.714	931.592	755.327
217.680	25.586	930.761	754.051
218.694	25.151	929.307	750.984
219.709	24.891	928.613	749.269
220.723	25.302	928.009	750.435
221.738	25.405	927.534	750.414
222.753	25.510	927.074	750.415
223.767	25.493	926.627	749.918
224.782	25.641	926.249	750.160
225.796	25.843	925.684	750.480
226.811	25.009	924.457	745.946
227.826	24.263	923.191	741.755
228.840	24.430	922.700	741.989
229.855	24.617	922.121	742.237
230.869	24.423	920.720	740.240
231.884	24.810	920.934	741.951
232.899	25.279	921.392	744.200
233.913	25.193	920.361	742.945
234.928	25.373	919.674	743.069
235.942	25.263	919.240	742.196
236.957	24.986	917.931	739.931
237.972	24.977	917.515	739.492
238.986	24.972	917.269	739.207
240.001	25.097	916.637	739.149
241.015	25.067	916.351	738.729
242.030	25.265	915.525	738.814
243.045	25.419	915.030	738.982
244.059	25.460	914.653	738.779
245.074	25.235	913.759	737.068
246.088	25.011	912.795	735.307
247.103	25.358	912.159	736.152
248.117	25.868	912.512	738.463
249.132	26.106	912.028	738.978
250.147	26.181	911.433	738.741
251.161	26.497	910.894	739.529
252.176	26.437	910.321	738.751
253.190	26.347	909.776	737.877
254.205	26.593	909.588	738.664
255.220	26.502	908.741	737.539
256.234	26.366	907.814	736.167
257.249	26.270	907.201	735.217
258.263	26.138	906.874	734.347
259.278	26.218	906.200	734.062
260.293	26.435	905.242	734.101
261.307	26.267	904.628	732.858
262.322	26.095	903.537	731.212
263.336	25.300	901.961	726.658
264.351	24.329	899.990	721.081
265.366	24.374	900.134	721.315
266.380	25.392	900.561	725.709
267.395	25.979	900.064	727.611
268.409	25.911	899.229	726.599
269.424	26.167	898.883	727.288
270.439	26.148	898.344	726.709
271.453	26.025	897.971	725.848
272.468	26.236	897.805	726.497
273.482	26.364	897.333	726.567
274.497	26.022	895.922	723.986
275.512	25.606	895.190	721.661
276.526	25.936	895.097	722.847
277.541	26.145	894.740	723.335
278.555	26.104	893.717	722.279
279.570	25.950	892.871	720.915
280.585	26.110	891.796	720.624
281.599	25.877	891.575	719.450
282.614	25.401	890.164	716.350
283.628	25.364	889.806	715.850
284.643	25.684	889.573	716.874
285.657	25.325	888.499	714.516
286.672	25.011	887.635	712.512
287.687	25.612	887.614	714.820
288.701	25.760	887.020	714.864
289.716	25.274	886.318	712.309
290.730	25.264	885.520	711.565
291.745	25.011	884.473	709.660
292.760	25.282	884.447	710.648
293.774	26.375	885.057	715.403
294.789	26.609	884.524	715.832
295.803	26.604	883.991	715.318
296.818	26.724	883.400	715.253
297.833	26.340	881.790	712.370
298.847	26.168	881.205	711.159
299.862	26.383	881.287	712.008
300.876	26.606	881.416	712.929
301.891	26.465	880.328	711.430
302.906	26.058	879.640	709.212
303.920	26.229	879.432	709.651
304.935	26.571	879.147	710.705
305.949	26.602	878.108	709.923
306.964	26.345	877.423	708.299
307.979	26.381	877.067	708.090
308.993	26.674	876.978	709.102
310.008	26.877	876.097	709.122
311.022	26.533	875.531	707.254
312.037	26.426	874.738	706.134
313.052	26.051	873.749	703.811
314.066	25.256	872.363	699.536
315.081	24.945	871.196	697.327
316.095	25.801	871.667	700.976
317.110	26.329	871.374	702.730
318.125	25.481	869.873	698.165
319.139	24.377	868.895	693.033
320.154	24.242	868.359	692.020
321.168	25.074	868.990	695.693
322.183	25.826	868.564	698.207
323.197	26.167	868.469	699.388
324.212	26.255	868.306	699.537
325.227	26.464	867.580	699.699
326.241	26.264	866.681	698.139
327.256	26.257	865.607	697.185
328.270	25.994	865.491	696.015
329.285	25.904	864.495	694.805
330.300	25.774	863.440	693.394
331.314	25.880	863.546	693.825
332.329	26.384	863.250	695.467
333.343	26.511	863.348	695.971
334.358	26.465	862.444	695.004
335.373	26.596	862.155	695.213
336.387	26.807	862.411	696.170
337.402	26.817	862.053	695.858
338.416	26.896	861.859	695.944
339.431	26.965	861.492	695.847
340.446	27.189	860.954	696.211
341.460	27.088	860.504	695.398
342.475	26.774	859.972	693.703
343.489	26.895	859.794	693.963
344.504	27.125	859.525	694.565
345.519	27.336	859.103	694.966
346.533	27.259	858.674	694.266
347.548	27.319	857.799	693.725
348.562	27.286	857.386	693.205
349.577	27.245	856.569	692.325
350.592	27.172	856.182	691.675
351.606	27.344	855.011	691.320
352.621	27.096	854.439	689.856
353.635	26.964	853.896	688.854
354.650	26.417	852.048	685.229
355.665	25.527	850.435	680.505
356.679	25.783	850.556	681.513
357.694	26.252	849.783	682.605
358.708	26.162	849.785	682.204
359.723	26.713	849.284	683.822
360.738	26.892	849.104	684.293
361.752	26.989	848.601	684.192
362.767	27.367	848.327	685.335
363.781	27.572	848.061	685.832
364.796	27.690	847.603	685.845
365.810	27.645	847.234	685.314
366.825	27.764	846.529	685.133
367.840	27.507	845.718	683.449
368.854	27.025	844.912	680.932
369.869	27.037	844.343	680.459
370.883	27.192	843.964	680.671
371.898	26.865	843.756	679.220
372.913	27.106	843.494	679.852
373.927	27.015	843.084	679.120
374.942	27.278	842.699	679.732
375.956	27.273	842.577	679.554
376.971	27.542	841.776	679.852
377.986	27.694	841.446	680.094
379.000	27.554	841.006	679.156
380.015	27.541	839.931	678.180
381.029	27.351	840.168	677.602
382.044	27.709	839.139	678.043
383.059	27.697	838.714	677.598
384.073	27.592	838.224	676.750
385.088	27.651	837.765	676.540
386.102	27.440	836.794	674.915
387.117	27.425	835.876	674.058
388.132	26.782	835.005	670.917
389.146	26.549	833.842	669.063
390.161	26.917	833.908	670.416
391.175	27.359	833.813	671.911
392.190	26.997	833.113	669.952
393.205	25.591	830.381	662.521
394.219	24.264	828.444	656.036
395.234	24.101	828.360	655.315
396.248	25.435	830.228	661.649
397.263	27.161	830.919	668.494
398.278	27.033	830.600	667.709
399.292	26.885	829.537	666.251
400.307	26.788	829.502	665.810
401.321	26.952	829.219	666.124
402.336	27.297	829.041	667.190
403.350	27.878	828.348	668.699
404.365	28.034	828.556	669.380
405.380	28.421	828.184	670.436
406.394	28.394	827.819	669.983
407.409	28.339	827.042	669.093
408.423	28.219	826.838	668.430
409.438	28.332	826.772	668.733
410.453	28.442	826.055	668.493
411.467	28.277	825.344	667.257
412.482	28.457	824.692	667.325
413.496	28.583	824.672	667.710
414.511	28.369	824.374	666.631
415.526	28.202	823.803	665.502
416.540	28.372	822.915	665.344
417.555	27.985	822.423	663.483
418.569	28.137	821.885	663.541
419.584	27.944	821.816	662.728
420.599	27.782	820.837	661.291
421.613	94.429	1264.390	1373.478
422.628	81.377	1329.049	1373.596
