DTS Sentinel unit serial number:	SN413079Multiplexer serial number:	ORYXHardware model number:	OX4-SRSoftware version number:	ORYX F/W v4.00 Oryx Data Collector v3.7.2.0data status	okinstallation	princeton_trtdifferential loss correction	single-endedforward channel	channel 1reverse channel	N/Adate	2019/09/12time	14:20:11forward acquisition time	60.00reverse acquisition time	0.00gamma	496.2192k internal	0.2294k external	0.2294temperature offset calibration	1.0062default loss term (dB/km)	0.3790temperature slope calibration	1.0000multiplexer offset coefficient	1.0000multiplexer slope coefficient	1.0000fibre end	0.00T internal ref (°C)	40.19T ext. ref 1 (°C)	2.25T ext. ref 2 (°C)	34.85length (m)	temperature (°C)	Stokes	anti-Stokes-747.200	-200.000	-0.052	0.295
-746.185	-200.000	-0.043	0.224
-745.171	-13.755	0.291	0.193
-744.156	-200.000	0.018	0.213
-743.142	188.801	-0.037	-0.056
-742.127	-14.785	-0.155	0.102
-741.112	90.526	-0.037	-0.042
-740.098	575.228	0.077	-0.191
-739.083	207.734	-0.150	0.240
-738.069	-158.829	0.354	0.021
-737.054	-59.664	-0.197	-0.086
-736.039	800.000	-0.072	0.233
-735.025	55.307	0.197	0.195
-734.010	-200.000	0.023	-0.371
-732.996	-109.839	-0.353	-0.076
-731.981	-23.029	-0.077	-0.047
-730.966	800.000	-0.125	-0.381
-729.952	255.010	0.091	-0.159
-728.937	-200.000	-0.050	0.283
-727.923	-143.565	-0.269	0.026
-726.908	-200.000	0.024	0.252
-725.894	-49.120	-0.319	-0.156
-724.879	178.750	-0.170	-0.254
-723.864	-72.485	0.072	0.027
-722.850	-74.618	0.306	-0.113
-721.835	-174.030	0.234	0.007
-720.821	439.293	0.113	-0.252
-719.806	-2.006	-0.247	-0.178
-718.791	800.000	-0.042	0.121
-717.777	68.820	-0.182	0.191
-716.762	450.361	-0.083	0.186
-715.748	-39.291	0.436	-0.234
-714.733	-164.220	0.510	-0.024
-713.718	-96.811	0.349	0.094
-712.704	-193.630	-0.241	0.002
-711.689	-64.685	0.397	-0.164
-710.675	800.000	-0.033	0.146
-709.660	502.752	0.081	-0.192
-708.645	165.417	0.151	-0.219
-707.631	-161.815	0.419	-0.022
-706.616	-15.937	0.138	0.089
-705.602	134.776	0.218	0.289
-704.587	-127.078	0.121	0.018
-703.572	313.673	-0.117	0.224
-702.558	58.668	-0.055	0.056
-701.543	-200.000	0.006	0.069
-700.529	-200.000	-0.018	0.089
-699.514	116.722	-0.056	-0.070
-698.499	153.698	0.063	0.088
-697.485	-200.000	-0.024	-0.273
-696.470	749.066	-0.098	-0.269
-695.456	-200.000	-0.037	-0.460
-694.441	273.230	0.166	-0.299
-693.426	-200.000	0.026	0.250
-692.412	-140.456	-0.130	-0.014
-691.397	-200.000	-0.037	0.213
-690.383	-200.000	0.046	0.288
-689.368	-46.552	-0.268	-0.134
-688.354	-139.224	0.325	0.036
-687.339	-113.679	0.103	0.021
-686.324	-200.000	-0.023	-0.171
-685.310	-200.000	0.041	0.301
-684.295	800.000	-0.050	0.202
-683.281	180.014	-0.088	0.132
-682.266	111.394	-0.043	0.052
-681.251	-200.000	0.051	0.247
-680.237	-200.000	-0.026	0.317
-679.222	-200.000	-0.021	0.147
-678.208	-95.734	0.212	-0.058
-677.193	-200.000	0.049	0.244
-676.178	-199.356	-0.602	-0.003
-675.164	-200.000	-0.018	0.097
-674.149	3.620	0.118	0.088
-673.135	-200.000	-0.018	0.381
-672.120	-121.205	0.185	0.032
-671.105	-200.000	-0.002	0.177
-670.091	-101.828	-0.290	0.072
-669.076	197.714	-0.156	-0.243
-668.062	800.000	-0.093	-0.291
-667.047	-128.688	0.253	0.036
-666.032	21.282	-0.244	-0.202
-665.018	800.000	-0.017	0.057
-664.003	148.374	-0.005	0.007
-662.989	40.009	0.289	0.264
-661.974	762.120	-0.152	0.422
-660.959	-200.000	0.027	0.277
-659.945	49.797	0.065	-0.062
-658.930	407.186	0.050	-0.108
-657.916	410.946	-0.215	0.466
-656.901	-84.346	0.204	0.066
-655.886	38.520	0.266	0.242
-654.872	275.751	0.080	0.145
-653.857	-54.473	-0.040	-0.018
-652.843	490.159	0.029	0.067
-651.828	734.876	-0.167	0.457
-650.814	-200.000	0.041	-0.224
-649.799	-73.994	-0.157	0.058
-648.784	-111.729	-0.046	-0.010
-647.770	-39.047	-0.243	0.130
-646.755	183.460	0.261	-0.393
-645.741	-200.000	-0.003	-0.198
-644.726	140.184	0.154	-0.207
-643.711	-125.376	0.265	-0.041
-642.697	-63.852	-0.175	-0.073
-641.682	-137.459	-0.172	0.020
-640.668	-114.024	-0.321	-0.063
-639.653	-65.616	-0.148	0.061
-638.638	21.742	0.051	-0.043
-637.624	800.000	-0.094	-0.305
-636.609	-105.241	0.240	-0.056
-635.595	-71.871	-0.115	0.043
-634.580	-25.051	0.186	0.113
-633.565	-67.181	-0.154	-0.062
-632.551	45.419	-0.210	0.197
-631.536	-65.150	0.274	-0.113
-630.522	800.000	0.056	-0.186
-629.507	800.000	-0.025	-0.090
-628.492	-200.000	0.014	-0.120
-627.478	-166.451	-0.058	-0.002
-626.463	-122.171	-0.226	-0.038
-625.449	-120.227	0.481	-0.084
-624.434	257.896	-0.098	-0.171
-623.419	278.863	-0.050	0.091
-622.405	-200.000	0.040	0.273
-621.390	14.739	-0.122	-0.097
-620.376	-74.161	-0.224	-0.082
-619.361	-141.186	0.230	-0.024
-618.346	168.176	0.043	0.062
-617.332	-200.000	0.002	0.084
-616.317	-38.743	-0.312	-0.167
-615.303	-138.473	0.160	-0.018
-614.288	50.534	0.117	0.112
-613.273	22.782	-0.239	-0.200
-612.259	-150.357	0.062	-0.005
-611.244	261.096	0.058	0.102
-610.230	-93.746	-0.102	0.029
-609.215	800.000	-0.071	0.207
-608.201	64.753	-0.193	-0.198
-607.186	-38.789	0.414	-0.222
-606.171	800.000	-0.033	0.107
-605.157	299.390	-0.043	-0.080
-604.142	-200.000	-0.004	-0.209
-603.128	-4.234	-0.326	0.230
-602.113	800.000	-0.076	0.265
-601.098	87.673	-0.162	0.182
-600.084	-12.453	-0.093	-0.062
-599.069	-96.461	-0.172	0.046
-598.055	47.057	0.232	0.220
-597.040	26.856	0.066	0.056
-596.025	285.770	-0.171	-0.314
-595.011	-5.515	0.257	-0.179
-593.996	-96.780	-0.189	0.050
-592.982	-77.242	0.134	-0.047
-591.967	-42.961	-0.306	-0.158
-590.952	-151.852	0.020	0.002
-589.938	-81.492	-0.243	-0.081
-588.923	95.858	-0.283	-0.328
-587.909	58.753	0.053	0.053
-586.894	-10.151	-0.136	-0.092
-585.879	153.426	0.119	-0.165
-584.865	-155.809	0.289	0.019
-583.850	82.584	0.086	-0.094
-582.836	800.000	0.074	-0.257
-581.821	-77.289	-0.176	0.062
-580.806	59.711	-0.109	0.109
-579.792	-108.180	0.308	0.068
-578.777	58.034	-0.103	-0.102
-577.763	-63.211	0.212	-0.089
-576.748	-162.879	0.191	-0.009
-575.733	321.019	0.141	0.272
-574.719	-1.123	0.120	-0.086
-573.704	-200.000	-0.002	-0.031
-572.690	-135.414	-0.410	0.050
-571.675	112.061	0.057	0.070
-570.661	26.805	-0.050	-0.043
-569.646	-200.000	-0.081	0.487
-568.631	-200.000	-0.056	-0.372
-567.617	800.000	-0.091	-0.341
-566.602	-200.000	0.033	0.171
-565.588	321.580	-0.132	0.254
-564.573	34.455	0.185	-0.164
-563.558	37.593	0.056	-0.050
-562.544	-200.000	0.028	0.204
-561.529	-36.651	-0.069	0.037
-560.515	300.118	0.120	0.226
-559.500	-200.000	0.033	0.494
-558.485	69.855	-0.180	0.188
-557.471	-9.208	-0.156	0.106
-556.456	-81.197	0.208	0.070
-555.442	42.578	0.191	-0.177
-554.427	287.231	0.105	0.192
-553.412	-200.000	0.010	0.212
-552.398	150.837	-0.096	0.133
-551.383	-54.658	-0.155	0.071
-550.369	-105.666	-0.267	0.061
-549.354	196.146	0.074	-0.115
-548.339	-35.344	0.184	-0.101
-547.325	-200.000	0.008	-0.063
-546.310	-200.000	-0.003	-0.043
-545.296	166.290	-0.168	-0.242
-544.281	355.750	0.084	0.170
-543.266	-53.790	0.014	0.007
-542.252	561.994	-0.050	-0.124
-541.237	58.080	0.084	0.084
-540.223	-200.000	0.042	-0.400
-539.208	507.398	-0.097	-0.229
-538.193	-200.000	-0.058	-0.275
-537.179	-200.000	0.029	-0.202
-536.164	-53.940	-0.480	0.222
-535.150	655.021	-0.057	0.149
-534.135	-153.088	-0.225	0.016
-533.121	800.000	0.022	0.065
-532.106	-12.717	-0.153	-0.101
-531.091	-17.998	-0.186	0.118
-530.077	-20.270	0.143	-0.089
-529.062	-200.000	-0.071	0.323
-528.048	-42.320	0.053	-0.027
-527.033	-92.823	-0.021	0.006
-526.018	130.161	0.233	0.303
-525.004	-39.313	-0.484	0.258
-523.989	-95.718	-0.084	0.023
-522.975	396.663	0.143	0.303
-521.960	-200.000	-0.009	-0.208
-520.945	-183.979	-0.180	-0.003
-519.931	-124.963	0.310	0.048
-518.916	78.604	0.132	0.143
-517.902	-200.000	0.067	-0.354
-516.887	-91.686	-0.230	-0.066
-515.872	-29.599	0.283	0.164
-514.858	62.064	-0.116	-0.117
-513.843	-200.000	0.055	-0.306
-512.829	131.592	-0.036	0.047
-511.814	-196.958	-0.401	-0.003
-510.799	-200.000	-0.012	0.169
-509.785	164.044	-0.113	-0.161
-508.770	800.000	0.159	-0.472
-507.756	57.872	-0.041	-0.041
-506.741	-55.477	0.128	0.058
-505.726	252.577	0.184	0.318
-504.712	46.814	0.199	0.187
-503.697	2.774	0.178	-0.131
-502.683	-64.769	-0.120	-0.049
-501.668	489.715	-0.080	0.185
-500.653	-131.582	-0.198	0.026
-499.639	-112.710	0.192	-0.039
-498.624	535.605	0.047	-0.113
-497.610	-24.033	0.166	0.101
-496.595	-63.867	-0.166	-0.069
-495.581	-141.916	-0.201	-0.020
-494.566	-123.969	-0.124	0.020
-493.551	2.746	-0.210	-0.155
-492.537	438.992	0.022	-0.048
-491.522	168.483	0.118	-0.170
-490.508	-76.523	-0.154	0.055
-489.493	-35.360	-0.209	0.115
-488.478	-28.859	0.209	0.122
-487.464	280.664	0.104	-0.188
-486.449	-102.573	0.253	-0.061
-485.435	-200.000	-0.013	-0.352
-484.420	-49.679	-0.193	-0.093
-483.405	58.884	-0.251	0.250
-482.391	-103.234	0.121	0.029
-481.376	-45.939	-0.097	0.049
-480.362	-123.573	0.468	-0.075
-479.347	-106.258	0.205	0.046
-478.332	-16.641	0.183	0.117
-477.318	-108.942	-0.227	0.049
-476.303	-79.309	-0.362	-0.124
-475.289	-200.000	0.004	0.023
-474.274	226.992	0.128	-0.210
-473.259	-38.128	0.275	-0.148
-472.245	-76.169	0.111	-0.040
-471.230	539.382	-0.112	0.271
-470.216	-123.332	-0.355	-0.057
-469.201	174.364	0.073	0.106
-468.186	428.923	0.060	-0.132
-467.172	-50.602	-0.044	0.021
-466.157	8.252	0.093	-0.071
-465.143	-70.482	0.100	0.038
-464.128	-35.854	-0.044	0.024
-463.113	134.564	0.216	-0.284
-462.099	-33.141	0.263	0.147
-461.084	74.678	-0.228	-0.242
-460.070	651.130	0.103	-0.267
-459.055	800.000	0.028	-0.080
-458.040	85.102	0.157	-0.175
-457.026	-72.310	-0.307	-0.115
-456.011	155.655	-0.069	0.096
-454.997	800.000	0.058	0.186
-453.982	-180.753	-0.300	-0.006
-452.968	-76.710	0.406	0.144
-451.953	-28.389	-0.135	0.079
-450.938	-112.662	-0.242	-0.049
-449.924	536.881	-0.068	-0.164
-448.909	534.475	0.041	0.098
-447.895	-109.616	0.167	0.036
-446.880	-74.410	0.289	0.105
-445.865	800.000	0.096	-0.285
-444.851	182.572	0.108	-0.160
-443.836	800.000	-0.046	-0.141
-442.822	-118.520	-0.355	-0.063
-441.807	213.134	-0.052	0.082
-440.792	247.816	-0.146	-0.250
-439.778	120.225	0.216	0.270
-438.763	-200.000	0.004	0.410
-437.749	425.260	-0.050	0.108
-436.734	-200.000	-0.027	-0.139
-435.719	-200.000	-0.010	-0.093
-434.705	-29.610	-0.241	-0.139
-433.690	-14.126	0.119	-0.078
-432.676	134.813	0.141	-0.185
-431.661	27.751	0.121	-0.103
-430.646	-58.048	-0.259	-0.114
-429.632	89.624	0.214	0.241
-428.617	-36.755	-0.144	-0.078
-427.603	314.057	0.098	0.186
-426.588	-200.000	-0.005	-0.080
-425.573	-200.000	-0.019	-0.118
-424.559	17.522	0.174	0.139
-423.544	-14.420	-0.086	0.056
-422.530	-171.711	0.090	0.003
-421.515	18.496	0.190	0.153
-420.500	396.056	0.143	0.302
-419.486	-40.871	0.150	-0.078
-418.471	-80.567	0.136	-0.046
-417.457	-24.011	0.094	-0.057
-416.442	-86.565	-0.291	0.090
-415.428	-46.598	-0.222	-0.110
-414.413	-145.547	0.107	0.010
-413.398	-200.000	0.026	-0.229
-412.384	581.185	0.133	0.330
-411.369	1.535	0.170	-0.123
-410.355	-125.202	0.200	0.031
-409.340	367.006	-0.007	0.015
-408.325	204.704	0.153	-0.240
-407.311	61.655	-0.139	-0.139
-406.296	21.330	-0.188	0.154
-405.282	-174.844	-0.305	0.009
-404.267	160.206	0.277	-0.390
-403.252	-200.000	0.000	0.208
-402.238	-200.000	0.029	0.217
-401.223	-110.924	-0.258	-0.054
-400.209	-200.000	-0.009	0.178
-399.194	-155.690	0.054	-0.004
-398.179	50.683	0.168	0.160
-397.165	164.152	0.054	0.077
-396.150	67.177	0.074	0.076
-395.136	-100.472	0.161	-0.040
-394.121	198.076	0.168	-0.259
-393.106	800.000	-0.012	0.038
-392.092	203.423	0.084	0.131
-391.077	-136.778	0.166	0.019
-390.063	-166.298	-0.320	-0.014
-389.048	-3.473	0.088	-0.062
-388.033	-50.515	-0.122	0.058
-387.019	-97.278	0.295	0.077
-386.004	-133.862	-0.281	0.035
-384.990	555.724	0.113	-0.273
-383.975	99.094	0.133	0.155
-382.960	-200.000	0.029	-0.183
-381.946	392.978	-0.104	-0.218
-380.931	-74.801	-0.330	-0.120
-379.917	-200.000	-0.002	0.131
-378.902	-130.230	0.083	-0.011
-377.888	-124.696	-0.095	-0.015
-376.873	505.889	0.072	-0.169
-375.858	-200.000	-0.008	0.107
-374.844	57.504	-0.085	-0.083
-373.829	-113.140	0.213	0.042
-372.815	-1.059	-0.115	0.082
-371.800	-200.000	0.009	-0.368
-370.785	-200.000	-0.031	0.140
-369.771	-65.142	0.376	0.153
-368.756	-12.994	-0.200	0.131
-367.742	392.740	-0.069	0.146
-366.727	617.844	-0.077	0.195
-365.712	229.936	-0.095	0.156
-364.698	-45.538	0.337	0.168
-363.683	800.000	0.033	-0.096
-362.669	540.481	0.108	0.260
-361.654	117.717	0.100	0.124
-360.639	52.134	-0.279	-0.268
-359.625	-100.684	0.092	-0.023
-358.610	-91.560	0.193	-0.055
-357.596	25.992	-0.062	0.052
-356.581	-86.733	0.243	-0.075
-355.566	610.384	0.133	0.335
-354.552	24.387	-0.097	0.080
-353.537	107.320	-0.171	0.205
-352.523	-44.743	-0.096	0.048
-351.508	-200.000	0.001	-0.026
-350.493	-72.316	-0.170	-0.064
-349.479	40.098	-0.229	-0.207
-348.464	-35.955	0.167	-0.091
-347.450	507.645	-0.060	-0.139
-346.435	800.000	-0.010	0.031
-345.420	14.255	0.200	-0.157
-344.406	268.103	0.082	0.145
-343.391	71.390	-0.315	-0.329
-342.377	-200.000	-0.040	0.434
-341.362	179.714	-0.106	0.156
-340.348	-39.386	-0.259	-0.137
-339.333	330.213	0.076	0.147
-338.318	-60.453	0.210	-0.090
-337.304	-123.353	0.132	-0.021
-336.289	-83.941	-0.073	0.023
-335.275	473.701	0.118	-0.267
-334.260	-200.000	0.007	-0.062
-333.245	-64.685	0.060	-0.024
-332.231	-37.330	0.357	0.192
-331.216	-60.901	0.222	0.095
-330.202	800.000	0.192	-0.549
-329.187	-57.853	-0.437	0.192
-328.172	-134.603	0.358	0.044
-327.158	-122.800	0.143	0.023
-326.143	641.071	-0.078	-0.199
-325.129	-200.000	-0.054	0.331
-324.114	-200.000	0.039	0.364
-323.099	800.000	0.129	0.543
-322.085	-200.000	-0.040	0.213
-321.070	-200.000	0.043	-0.313
-320.056	131.850	-0.056	-0.073
-319.041	-126.413	0.069	-0.010
-318.026	-0.738	-0.232	0.165
-317.012	453.515	-0.049	0.109
-315.997	-58.367	0.208	0.091
-314.983	20.688	0.356	0.290
-313.968	256.400	-0.043	-0.074
-312.953	-200.000	-0.018	0.159
-311.939	-26.652	-0.076	0.045
-310.924	-108.832	-0.203	-0.044
-309.910	35.706	0.115	-0.102
-308.895	423.854	-0.086	0.186
-307.880	167.999	0.032	-0.046
-306.866	119.706	-0.077	0.096
-305.851	-58.593	0.302	0.132
-304.837	390.084	-0.071	-0.148
-303.822	-112.236	-0.095	0.019
-302.807	800.000	0.060	-0.202
-301.793	-51.946	-0.111	-0.052
-300.778	70.117	0.099	0.103
-299.764	-33.722	0.222	-0.123
-298.749	800.000	-0.069	-0.208
-297.735	-125.289	0.096	0.015
-296.720	-98.522	0.139	0.036
-295.705	144.782	0.198	0.266
-294.691	-200.000	-0.034	-0.307
-293.676	-200.000	-0.003	-0.136
-292.662	-200.000	-0.056	0.357
-291.647	-179.807	0.181	0.004
-290.632	8.277	0.055	-0.042
-289.618	-200.000	-0.071	-0.437
-288.603	-200.000	-0.022	0.124
-287.589	800.000	-0.065	0.240
-286.574	-26.142	-0.110	0.065
-285.559	-45.064	-0.227	0.113
-284.545	-200.000	0.038	0.237
-283.530	-200.000	-0.019	0.087
-282.516	72.858	-0.154	-0.161
-281.501	-72.674	0.134	0.050
-280.486	12.286	-0.062	-0.048
-279.472	-200.000	-0.080	0.404
-278.457	-99.304	0.411	-0.104
-277.443	-86.329	0.048	-0.015
-276.428	-58.195	-0.196	-0.086
-275.413	235.746	-0.156	-0.258
-274.399	158.831	0.121	0.169
-273.384	-23.761	0.186	-0.112
-272.370	-125.393	-0.173	0.026
-271.355	-16.200	0.059	0.038
-270.340	800.000	0.094	0.393
-269.326	-67.391	0.310	0.122
-268.311	-200.000	-0.011	-0.190
-267.297	150.534	0.052	-0.071
-266.282	-104.599	-0.236	0.055
-265.267	-44.420	-0.092	-0.046
-264.253	148.650	-0.256	0.347
-263.238	-200.000	-0.026	0.392
-262.224	-36.849	-0.328	-0.177
-261.209	101.561	-0.294	-0.344
-260.195	2.580	0.184	-0.134
-259.180	-51.871	-0.072	-0.033
-258.165	-140.060	0.547	-0.058
-257.151	545.205	-0.088	0.210
-256.136	-33.040	-0.320	0.178
-255.122	-21.383	0.296	0.181
-254.107	-76.309	0.095	-0.033
-253.092	-85.828	-0.367	-0.114
-252.078	-126.146	-0.100	-0.015
-251.063	-70.885	0.359	-0.136
-250.049	50.225	-0.170	0.161
-249.034	561.015	-0.157	0.382
-248.019	96.777	0.109	0.125
-247.005	93.436	0.055	-0.062
-245.990	345.528	0.150	0.296
-244.976	126.842	-0.174	0.221
-243.961	-18.176	-0.082	-0.052
-242.946	55.619	-0.222	-0.215
-241.932	-103.490	0.310	0.073
-240.917	-200.000	0.013	-0.110
-239.903	-158.268	-0.088	-0.005
-238.888	-200.000	-0.016	-0.140
-237.873	81.543	0.130	-0.141
-236.859	11.903	-0.191	-0.147
-235.844	493.315	0.049	0.113
-234.830	-40.123	0.144	-0.075
-233.815	191.163	-0.045	-0.067
-232.800	-47.337	-0.287	0.140
-231.786	-100.047	0.278	-0.069
-230.771	-154.244	0.251	-0.017
-229.757	800.000	-0.035	-0.132
-228.742	118.429	0.230	-0.284
-227.727	162.036	-0.084	-0.118
-226.713	-6.140	-0.045	0.031
-225.698	-50.574	0.203	-0.096
-224.684	800.000	-0.029	-0.117
-223.669	-50.864	-0.097	0.046
-222.655	-155.821	0.159	-0.010
-221.640	800.000	-0.043	-0.124
-220.625	-200.000	0.029	0.212
-219.611	-28.102	0.326	0.189
-218.596	53.390	-0.113	0.108
-217.582	212.982	0.207	-0.328
-216.567	-167.144	-0.173	0.007
-215.552	-200.000	-0.030	0.221
-214.538	254.171	0.012	0.021
-213.523	-71.209	-0.264	-0.099
-212.509	-55.017	0.135	-0.061
-211.494	245.947	0.138	-0.232
-210.479	-200.000	-0.037	0.351
-209.465	-38.557	-0.135	-0.072
-208.450	476.616	0.047	-0.106
-207.436	60.975	0.406	0.403
-206.421	173.872	-0.008	0.012
-205.406	-78.596	-0.159	-0.054
-204.392	-153.599	-0.023	-0.002
-203.377	300.960	0.114	0.211
-202.363	19.903	0.052	-0.042
-201.348	-200.000	0.019	0.215
-200.333	-200.000	-0.004	0.084
-199.319	-72.395	0.037	0.014
-198.304	148.573	-0.134	0.181
-197.290	-61.474	-0.309	-0.130
-196.275	-200.000	0.070	-0.370
-195.260	-9.538	-0.286	-0.191
-194.246	-47.737	-0.383	0.186
-193.231	287.239	-0.226	-0.409
-192.217	-200.000	0.073	-0.372
-191.202	800.000	-0.052	-0.224
-190.187	129.421	-0.194	0.248
-189.173	-200.000	0.190	0.001
-188.158	107.440	-0.075	0.089
-187.144	617.802	0.119	0.299
-186.129	448.979	-0.046	-0.101
-185.114	450.271	0.040	0.089
-184.100	24.765	0.238	-0.197
-183.085	800.000	0.063	-0.224
-182.071	-53.687	0.361	0.165
-181.056	143.852	0.234	0.313
-180.042	-43.039	-0.272	-0.138
-179.027	-44.909	-0.073	-0.036
-178.012	-160.364	-0.073	-0.004
-176.998	-104.861	-0.164	0.038
-175.983	36.474	0.260	0.229
-174.969	-48.094	-0.225	0.109
-173.954	-3.181	0.258	0.180
-172.939	755.708	-0.053	-0.143
-171.925	476.419	0.051	0.116
-170.910	794.429	0.132	-0.362
-169.896	-8.989	-0.303	0.203
-168.881	433.603	-0.046	0.100
-167.866	-93.649	-0.296	0.082
-166.852	-51.714	0.191	0.089
-165.837	255.824	-0.225	0.385
-164.823	-200.000	0.025	0.144
-163.808	-88.118	0.150	-0.045
-162.793	42.365	0.196	-0.178
-161.779	8.573	-0.139	-0.105
-160.764	-57.630	-0.431	-0.189
-159.750	-200.000	-0.047	-0.248
-158.735	673.866	0.027	0.070
-157.720	29.846	0.198	-0.169
-156.706	-137.579	-0.175	0.020
-155.691	-114.009	0.135	-0.026
-154.677	-1.374	0.211	-0.149
-153.662	-24.007	-0.080	-0.048
-152.647	-96.238	-0.400	0.106
-151.633	63.655	0.207	-0.208
-150.618	134.069	-0.056	-0.073
-149.604	-9.130	-0.149	-0.100
-148.589	16.426	-0.226	0.179
-147.574	-87.203	-0.358	0.109
-146.560	-32.112	0.182	0.102
-145.545	-200.000	-0.003	0.060
-144.531	-68.798	-0.258	0.100
-143.516	127.589	-0.086	0.109
-142.502	3.762	0.265	0.193
-141.487	-12.356	0.164	-0.107
-140.472	15.100	-0.247	-0.193
-139.458	-28.663	0.220	-0.126
-138.443	-149.309	-0.125	0.010
-137.429	-31.306	0.393	0.221
-136.414	-125.054	-0.159	0.024
-135.399	-61.235	0.379	-0.160
-134.385	31.511	0.116	-0.100
-133.370	157.610	0.240	0.331
-132.356	-85.887	0.257	-0.079
-131.341	-48.146	0.017	0.008
-130.326	122.886	-0.078	-0.097
-129.312	-42.954	-0.038	0.019
-128.297	36.496	0.378	0.333
-127.283	-74.227	0.191	0.069
-126.268	-118.996	-0.080	-0.014
-125.253	35.136	-0.175	-0.153
-124.239	-94.922	-0.193	-0.052
-123.224	-28.959	-0.073	0.042
-122.210	6.201	-0.155	0.115
-121.195	-200.000	-0.080	0.364
-120.180	-162.147	-0.131	0.007
-119.166	-142.291	-0.289	0.029
-118.151	98.520	-0.147	0.169
-117.137	-81.036	0.316	-0.104
-116.122	-46.048	-0.178	-0.087
-115.107	800.000	-0.050	0.172
-114.093	-6.251	-0.357	-0.243
-113.078	-8.546	-0.157	0.105
-112.064	85.967	-0.239	-0.262
-111.049	-141.718	0.182	-0.018
-110.034	78.119	0.285	-0.303
-109.020	184.911	0.194	-0.286
-108.005	14.626	0.120	-0.094
-106.991	90.957	-0.175	-0.196
-105.976	-97.668	0.243	0.063
-104.962	-50.587	-0.051	0.024
-103.947	-35.851	-0.049	-0.027
-102.932	304.397	-0.072	0.133
-101.918	-200.000	-0.015	-0.158
-100.903	307.491	0.034	0.063
-99.889	800.000	0.085	-0.335
-98.874	-110.537	0.608	0.126
-97.859	-140.205	-0.142	0.015
-96.845	82.026	-0.236	-0.255
-95.830	-34.624	-0.071	-0.039
-94.816	61.202	0.163	0.161
-93.801	-200.000	0.044	-0.215
-92.786	-109.157	0.242	-0.051
-91.772	43.339	0.166	0.151
-90.757	12.360	0.343	-0.264
-89.743	-108.080	0.220	0.048
-88.728	-146.093	-0.091	-0.008
-87.713	98.046	0.062	0.071
-86.699	488.302	0.031	-0.070
-85.684	-200.000	0.011	-0.213
-84.670	-200.000	0.025	-0.463
-83.655	144.056	0.232	-0.308
-82.640	110.032	-0.226	-0.270
-81.626	800.000	0.024	0.098
-80.611	401.550	0.155	0.323
-79.597	189.643	0.082	-0.122
-78.582	93.056	0.064	-0.073
-77.567	306.422	0.160	0.297
-76.553	429.535	-0.113	0.243
-75.538	125.671	-0.152	0.191
-74.524	167.849	0.097	-0.138
-73.509	800.000	0.118	0.328
-72.494	-90.778	-0.317	0.091
-71.480	134.400	0.107	0.139
-70.465	29.276	-0.040	0.034
-69.451	800.000	0.042	0.141
-68.436	16.388	0.112	0.088
-67.422	-84.154	-0.364	-0.115
-66.407	-184.725	-0.471	-0.008
-65.392	503.667	-0.124	-0.285
-64.378	-39.084	0.348	0.183
-63.363	-144.110	-0.265	-0.025
-62.349	800.000	-0.049	0.193
-61.334	-11.743	-0.652	-0.426
-60.319	207.260	0.054	0.083
-59.305	800.000	-0.295	-1.123
-58.290	291.085	0.485	0.879
-57.276	592.731	0.632	1.554
-56.261	-200.000	78.014	510.850
-55.246	513.565	1331.928	3092.328
-54.232	148.145	2557.006	3434.940
-53.217	114.999	2225.080	2702.922
-52.203	51.401	1678.884	1587.430
-51.188	43.759	1407.504	1282.609
-50.173	40.345	1362.753	1220.782
-49.159	58.447	1398.844	1366.155
-48.144	64.935	1418.061	1425.214
-47.130	44.263	1379.928	1260.409
-46.115	40.371	1363.104	1221.064
-45.100	40.156	1358.462	1215.538
-44.086	40.063	1356.223	1212.914
-43.071	39.942	1353.762	1209.925
-42.057	39.954	1351.631	1208.047
-41.042	39.986	1349.829	1206.583
-40.027	40.104	1348.055	1205.669
-39.013	40.041	1346.644	1203.977
-37.998	40.072	1344.410	1202.119
-36.984	40.195	1342.269	1200.903
-35.969	40.234	1340.703	1199.689
-34.954	40.232	1338.908	1198.026
-33.940	40.180	1338.176	1197.007
-32.925	40.235	1336.934	1196.179
-31.911	40.316	1334.803	1194.715
-30.896	40.285	1333.468	1193.287
-29.881	40.343	1331.876	1192.164
-28.867	40.302	1330.407	1190.556
-27.852	40.225	1329.490	1189.223
-26.838	40.235	1327.939	1187.849
-25.823	40.325	1326.041	1186.644
-24.809	40.227	1324.759	1184.861
-23.794	40.196	1323.671	1183.655
-22.779	40.281	1321.500	1182.178
-21.765	40.258	1320.656	1181.240
-20.750	40.266	1319.146	1179.885
-19.736	40.224	1317.824	1178.407
-18.721	40.157	1316.302	1176.603
-17.706	40.151	1315.521	1175.822
-16.692	40.225	1314.256	1175.086
-15.677	40.226	1312.571	1173.539
-14.663	40.140	1312.313	1172.749
-13.648	40.137	1311.287	1171.770
-12.633	40.115	1310.106	1170.538
-11.619	40.152	1308.965	1169.690
-10.604	40.135	1308.080	1168.752
-9.590	40.177	1307.182	1168.148
-8.575	40.094	1306.385	1166.900
-7.560	40.036	1305.685	1165.888
-6.546	40.125	1304.613	1165.408
-5.531	40.068	1303.805	1164.304
-4.517	40.155	1302.671	1163.759
-3.502	40.057	1301.856	1162.406
-2.487	40.183	1300.796	1162.153
-1.473	40.120	1296.616	1158.006
-0.458	38.768	1281.180	1136.346
0.556	34.952	1260.675	1091.272
1.571	30.694	1264.862	1070.366
2.586	29.518	1279.986	1076.218
3.600	28.290	1269.170	1059.924
4.615	20.638	1192.161	953.740
5.629	8.346	1108.033	823.338
6.644	2.693	1084.139	776.931
7.659	2.247	1081.360	772.617
8.673	2.048	1079.467	770.193
9.688	2.025	1078.421	769.262
10.702	2.471	1076.995	770.425
11.717	9.213	1087.470	812.015
12.731	20.349	1103.607	880.805
13.746	25.148	1109.617	909.944
14.761	25.740	1109.408	912.693
15.775	25.688	1108.633	911.712
16.790	25.457	1108.249	910.142
17.804	25.428	1107.176	909.038
18.819	25.566	1107.252	909.714
19.834	25.554	1106.841	909.236
20.848	25.595	1106.481	909.068
21.863	25.705	1105.494	908.730
22.877	25.611	1104.991	907.761
23.892	25.569	1104.212	906.832
24.907	25.620	1103.525	906.446
25.921	25.630	1102.347	905.446
26.936	25.554	1101.043	903.912
27.950	25.536	1099.036	902.096
28.965	25.437	1097.530	900.284
29.980	25.463	1096.303	899.328
30.994	25.670	1095.582	899.692
32.009	25.595	1094.703	898.518
33.023	25.465	1093.218	896.571
34.038	25.527	1092.481	896.196
35.053	25.664	1091.656	896.119
36.067	25.625	1090.851	895.183
37.082	25.643	1090.270	894.720
38.096	25.734	1089.869	894.763
39.111	25.812	1088.899	894.278
40.126	25.711	1087.341	892.415
41.140	25.378	1085.712	889.349
42.155	25.120	1084.399	886.922
43.169	25.170	1083.600	886.436
44.184	25.208	1082.197	885.397
45.199	25.000	1081.370	883.615
46.213	25.187	1080.426	883.688
47.228	25.375	1079.787	884.016
48.242	25.431	1078.777	883.382
49.257	25.448	1078.411	883.089
50.271	25.577	1077.427	882.840
51.286	25.739	1076.228	882.574
52.301	25.565	1075.931	881.395
53.315	25.501	1074.940	880.195
54.330	25.600	1073.478	879.404
55.344	25.574	1072.978	878.790
56.359	25.497	1071.695	877.287
57.374	25.301	1071.404	876.014
58.388	25.289	1070.579	875.201
59.403	25.354	1069.500	874.559
60.417	25.175	1068.711	872.964
61.432	25.201	1068.278	872.664
62.447	25.294	1068.030	872.833
63.461	25.275	1067.010	871.833
64.476	25.267	1065.873	870.784
65.490	25.122	1065.021	869.312
66.505	25.272	1064.563	869.588
67.520	25.327	1063.714	869.081
68.534	24.959	1062.734	866.424
69.549	24.859	1061.256	864.657
70.563	24.724	1060.883	863.627
71.578	24.761	1059.873	862.906
72.593	24.616	1058.821	861.275
73.607	24.681	1058.214	861.017
74.622	24.964	1058.150	862.255
75.636	25.056	1057.499	862.088
76.651	24.920	1056.429	860.488
77.666	24.818	1055.613	859.258
78.680	24.872	1054.910	858.866
79.695	25.027	1053.912	858.720
80.709	25.036	1053.390	858.260
81.724	24.985	1052.909	857.551
82.739	25.185	1051.874	857.588
83.753	25.577	1051.302	858.916
84.768	25.819	1050.661	859.473
85.782	25.909	1050.042	859.321
86.797	25.731	1048.875	857.440
87.812	25.633	1047.835	856.051
88.826	25.710	1046.944	855.611
89.841	25.695	1046.017	854.709
90.855	25.765	1044.918	854.068
91.870	25.889	1044.138	853.941
92.884	25.636	1043.065	851.790
93.899	25.702	1041.875	851.055
94.914	25.848	1041.397	851.279
95.928	25.608	1040.111	849.018
96.943	25.307	1039.219	846.798
97.957	25.196	1037.728	844.984
98.972	24.943	1036.790	842.957
99.987	25.371	1036.360	844.542
101.001	25.430	1035.539	844.076
102.016	25.498	1034.540	843.507
103.030	25.492	1033.592	842.634
104.045	25.293	1032.280	840.558
105.060	25.118	1032.059	839.481
106.074	25.279	1030.864	839.188
107.089	25.689	1030.093	840.402
108.103	25.398	1029.208	838.248
109.118	25.292	1027.848	836.574
110.133	25.312	1026.956	835.865
111.147	24.969	1026.245	833.616
112.162	24.919	1025.363	832.594
113.176	25.144	1024.789	833.100
114.191	25.190	1023.604	832.276
115.206	24.720	1022.434	829.073
116.220	24.862	1021.705	829.066
117.235	24.985	1021.022	829.008
118.249	24.922	1020.240	828.007
119.264	24.791	1019.467	826.699
120.279	24.788	1019.044	826.273
121.293	25.002	1017.853	826.218
122.308	24.971	1016.806	825.156
123.322	24.875	1016.273	824.207
124.337	24.721	1014.723	822.170
125.352	24.224	1012.954	818.381
126.366	24.137	1011.914	817.068
127.381	25.107	1012.045	821.553
128.395	25.379	1011.757	822.489
129.410	25.648	1010.567	822.682
130.424	25.468	1009.762	821.128
131.439	25.419	1009.121	820.311
132.454	25.491	1007.993	819.648
133.468	25.414	1007.305	818.668
134.483	25.528	1006.737	818.655
135.497	25.727	1005.575	818.542
136.512	25.720	1004.919	817.904
137.527	25.768	1003.973	817.276
138.541	25.832	1002.964	816.672
139.556	25.682	1002.686	815.694
140.570	25.880	1001.747	815.756
141.585	25.857	1000.856	814.853
142.600	25.727	1000.118	813.592
143.614	25.992	999.248	814.010
144.629	26.086	998.644	813.872
145.643	25.920	997.159	811.843
146.658	25.795	995.470	809.832
147.673	25.671	994.497	808.412
148.687	25.587	993.563	807.204
149.702	25.513	992.659	806.069
150.716	25.466	991.624	804.942
151.731	25.519	991.473	804.986
152.746	25.929	990.057	805.598
153.760	25.839	989.954	805.042
154.775	25.930	989.368	804.898
155.789	25.919	988.198	803.829
156.804	25.747	987.408	802.348
157.819	25.982	985.969	802.152
158.833	26.107	985.791	802.492
159.848	25.971	984.972	801.150
160.862	25.723	983.805	799.033
161.877	25.837	982.752	798.610
162.892	25.854	981.673	797.736
163.906	25.743	980.726	796.409
164.921	25.833	979.530	795.764
165.935	25.786	978.908	794.981
166.950	25.909	977.644	794.425
167.964	25.937	976.527	793.569
168.979	25.623	975.824	791.547
169.994	25.601	974.837	790.579
171.008	25.874	974.170	791.168
172.023	25.949	973.138	790.590
173.037	25.705	972.135	788.637
174.052	25.570	971.478	787.443
175.067	25.502	970.703	786.447
176.081	25.628	970.496	786.760
177.096	25.522	970.029	785.848
178.110	25.227	968.984	783.642
179.125	25.116	967.945	782.250
180.140	25.197	967.368	782.066
181.154	25.376	967.294	782.718
182.169	25.701	967.179	783.973
183.183	25.855	966.706	784.192
184.198	25.727	966.047	783.028
185.213	25.648	964.825	781.625
186.227	25.792	964.509	781.927
187.242	25.915	963.708	781.740
188.256	25.923	963.234	781.324
189.271	26.054	962.046	780.858
190.286	25.709	960.919	778.382
191.300	24.911	959.922	774.056
192.315	24.230	957.942	769.452
193.329	24.117	957.334	768.408
194.344	25.043	958.067	772.926
195.359	25.648	957.979	775.395
196.373	25.815	957.299	775.494
197.388	25.770	956.408	774.508
198.402	25.747	956.228	774.197
199.417	25.737	955.484	773.482
200.432	25.536	954.497	771.754
201.446	25.294	954.097	770.320
202.461	25.462	953.286	770.318
203.475	24.751	951.242	765.556
204.490	23.899	949.541	760.480
205.504	24.724	949.921	764.245
206.519	25.355	950.107	767.023
207.534	25.304	949.767	766.463
208.548	25.723	949.952	768.332
209.563	25.632	948.435	766.652
210.577	25.529	947.845	765.665
211.592	25.855	947.993	767.106
212.607	25.826	946.931	766.056
213.621	25.948	946.328	766.016
214.636	25.944	945.563	765.314
215.650	25.844	944.897	764.285
216.665	25.940	944.263	764.111
217.680	25.865	943.324	762.966
218.694	25.625	941.861	760.701
219.709	25.383	941.381	759.221
220.723	25.728	941.084	760.374
221.738	25.720	940.609	759.886
222.753	25.774	939.889	759.466
223.767	25.855	939.559	759.474
224.782	26.079	939.319	760.157
225.796	26.030	938.784	759.451
226.811	25.484	937.031	755.669
227.826	24.757	935.694	751.472
228.840	24.902	935.230	751.642
229.855	24.947	934.684	751.326
230.869	24.461	933.906	748.595
231.884	25.062	933.717	750.897
232.899	25.815	933.451	753.770
233.913	25.669	933.115	752.820
234.928	25.444	932.663	751.447
235.942	25.580	931.547	751.049
236.957	25.207	930.847	748.861
237.972	25.223	930.716	748.758
238.986	25.327	930.204	748.715
240.001	25.335	929.453	748.074
241.015	25.472	928.856	748.100
242.030	25.660	928.427	748.469
243.045	25.685	928.184	748.312
244.059	25.877	927.277	748.312
245.074	25.714	926.839	747.214
246.088	25.307	925.531	744.408
247.103	25.713	924.987	745.585
248.117	26.249	925.268	747.968
249.132	26.425	924.638	748.117
250.147	26.677	924.014	748.588
251.161	26.665	923.935	748.407
252.176	26.597	923.520	747.725
253.190	26.740	922.619	747.519
254.205	26.867	921.960	747.444
255.220	26.874	921.583	747.102
256.234	26.722	921.072	745.993
257.249	26.492	920.102	744.198
258.263	26.578	919.196	743.752
259.278	26.646	918.263	743.212
260.293	26.796	918.024	743.567
261.307	26.590	917.477	742.212
262.322	26.449	916.738	740.971
263.336	25.686	914.837	736.249
264.351	24.633	912.561	730.056
265.366	24.797	912.710	730.780
266.380	26.050	912.805	735.902
267.395	26.183	913.299	736.779
268.409	26.211	912.026	735.802
269.424	26.301	912.073	736.144
270.439	26.504	911.013	736.047
271.453	26.547	910.505	735.745
272.468	26.677	909.940	735.753
273.482	26.776	909.757	735.941
274.497	26.363	908.246	732.980
275.512	25.967	907.586	730.779
276.526	26.372	907.520	732.302
277.541	26.560	907.051	732.619
278.555	26.267	906.185	730.668
279.570	26.162	905.467	729.600
280.585	26.311	905.039	729.793
281.599	26.273	904.187	728.890
282.614	25.637	902.984	725.292
283.628	25.691	902.389	724.966
284.643	25.982	902.163	725.892
285.657	25.776	900.673	723.800
286.672	25.399	900.132	721.788
287.687	26.114	899.618	724.183
288.701	25.963	899.504	723.423
289.716	25.677	898.203	721.163
290.730	25.582	897.977	720.539
291.745	25.351	897.014	718.776
292.760	25.546	897.386	719.793
293.774	26.824	897.142	724.645
294.789	27.000	896.833	725.033
295.803	27.146	896.332	725.147
296.818	27.100	895.774	724.447
297.833	26.668	894.457	721.599
298.847	26.482	893.691	720.175
299.862	26.729	893.549	720.980
300.876	27.031	893.277	721.897
301.891	26.966	892.458	720.914
302.906	26.589	891.647	718.698
303.920	26.618	891.410	718.561
304.935	26.945	891.118	719.557
305.949	26.879	890.246	718.529
306.964	26.726	889.697	717.416
307.979	26.760	889.194	717.081
308.993	26.985	889.075	717.813
310.008	27.106	888.237	717.551
311.022	26.766	887.646	715.668
312.037	26.691	886.880	714.691
313.052	26.452	885.744	712.768
314.066	25.578	884.413	708.195
315.081	25.173	883.535	705.837
316.095	25.961	884.003	709.249
317.110	26.525	883.646	711.116
318.125	25.793	881.901	706.778
319.139	24.610	880.707	701.119
320.154	24.700	880.117	700.939
321.168	25.559	880.902	704.873
322.183	26.365	880.618	707.739
323.197	26.568	880.198	708.136
324.212	26.787	880.067	708.820
325.227	26.683	879.793	708.133
326.241	26.538	878.983	706.851
327.256	26.358	878.436	705.645
328.270	26.405	877.349	704.893
329.285	26.242	876.516	703.528
330.300	26.140	875.639	702.366
331.314	26.231	875.624	702.643
332.329	26.595	875.790	704.132
333.343	26.763	875.196	704.244
334.358	26.761	874.808	703.862
335.373	26.963	874.422	704.272
336.387	27.190	874.618	705.247
337.402	27.170	874.620	705.111
338.416	27.217	873.521	704.343
339.431	27.341	873.431	704.690
340.446	27.479	873.429	705.161
341.460	27.356	872.440	703.822
342.475	27.042	871.769	702.008
343.489	27.177	871.830	702.517
344.504	27.556	871.412	703.581
345.519	27.581	871.031	703.307
346.533	27.803	870.593	703.746
347.548	27.745	870.133	703.087
348.562	27.646	869.266	701.944
349.577	27.618	868.336	701.024
350.592	27.566	867.939	700.443
351.606	27.506	867.392	699.710
352.621	27.380	866.169	698.176
353.635	27.291	865.718	697.410
354.650	26.720	863.884	693.685
355.665	25.795	862.325	688.835
356.679	26.094	862.585	690.125
357.694	26.516	862.318	691.463
358.708	26.545	861.248	690.655
359.723	26.910	861.407	692.116
360.738	27.300	861.152	693.337
361.752	27.290	860.519	692.728
362.767	27.707	860.099	693.915
363.781	27.794	860.291	694.341
364.796	28.082	859.374	694.632
365.810	28.103	858.849	694.225
366.825	28.117	858.375	693.834
367.840	27.581	858.028	691.457
368.854	27.439	856.728	689.814
369.869	27.317	856.142	688.819
370.883	27.358	855.700	688.558
371.898	27.135	855.464	687.464
372.913	27.423	854.985	688.104
373.927	27.544	855.030	688.538
374.942	27.641	854.494	688.413
375.956	27.623	854.218	688.060
376.971	27.933	853.581	688.656
377.986	27.976	853.127	688.391
379.000	27.878	852.593	687.527
380.015	27.807	852.006	686.729
381.029	27.992	851.051	686.591
382.044	27.961	850.852	686.256
383.059	28.027	850.100	685.836
384.073	28.105	849.848	685.864
385.088	27.887	849.327	684.563
386.102	27.718	848.091	682.877
387.117	27.786	847.190	682.343
388.132	27.404	846.411	680.231
389.146	26.815	845.536	677.268
390.161	27.179	845.620	678.634
391.175	27.819	844.955	680.426
392.190	27.546	843.651	678.300
393.205	25.831	842.125	670.633
394.219	24.448	840.592	664.212
395.234	24.294	840.272	663.327
396.248	25.911	841.754	670.460
397.263	27.275	842.528	676.089
398.278	27.555	841.815	676.497
399.292	27.170	840.901	674.276
400.307	27.236	840.758	674.346
401.321	27.370	840.305	674.419
402.336	27.776	840.202	675.781
403.350	28.037	839.943	676.479
404.365	28.360	839.972	677.635
405.380	28.649	839.877	678.571
406.394	28.704	839.444	678.361
407.409	28.518	838.763	677.065
408.423	28.534	838.281	676.675
409.438	28.537	838.010	676.408
410.453	28.745	837.363	676.590
411.467	28.590	836.647	675.383
412.482	28.744	836.267	675.584
413.496	28.777	835.987	675.420
414.511	28.701	835.615	674.777
415.526	28.660	834.968	674.045
416.540	28.556	834.249	673.025
417.555	28.285	833.468	671.339
418.569	28.173	833.582	670.963
419.584	28.293	832.990	670.868
420.599	28.115	832.325	669.620
421.613	96.579	1270.840	1386.911
422.628	83.583	1334.762	1387.040
