DTS Sentinel unit serial number:	SN413079Multiplexer serial number:	ORYXHardware model number:	OX4-SRSoftware version number:	ORYX F/W v4.00 Oryx Data Collector v3.7.2.0data status	okinstallation	princeton_trtdifferential loss correction	single-endedforward channel	channel 1reverse channel	N/Adate	2019/09/19time	04:34:35forward acquisition time	60.00reverse acquisition time	0.00gamma	496.2192k internal	0.2342k external	0.2342temperature offset calibration	1.0023default loss term (dB/km)	0.3790temperature slope calibration	1.0000multiplexer offset coefficient	1.0000multiplexer slope coefficient	1.0000fibre end	0.00T internal ref (°C)	20.06T ext. ref 1 (°C)	0.62T ext. ref 2 (°C)	13.12length (m)	temperature (°C)	Stokes	anti-Stokes-747.200	33.518	-0.370	0.322
-746.185	-200.000	0.019	0.239
-745.171	-104.697	0.175	0.040
-744.156	-81.649	0.122	-0.040
-743.142	209.509	0.096	0.151
-742.127	217.562	-0.061	-0.098
-741.112	-61.227	-0.257	-0.109
-740.098	179.264	0.047	0.069
-739.083	-124.053	0.179	0.028
-738.069	-113.305	-0.260	0.051
-737.054	26.392	0.141	0.118
-736.039	13.255	-0.180	-0.140
-735.025	745.020	-0.086	0.232
-734.010	181.491	0.107	0.158
-732.996	-200.000	0.024	-0.278
-731.981	-200.000	-0.022	-0.172
-730.966	342.699	-0.080	0.157
-729.952	-13.879	0.268	-0.173
-728.937	-101.515	0.158	0.038
-727.923	203.674	-0.226	-0.350
-726.908	210.273	-0.402	-0.632
-725.894	266.384	-0.151	-0.264
-724.879	33.640	-0.196	-0.171
-723.864	162.183	-0.174	-0.244
-722.850	109.335	0.124	-0.148
-721.835	-21.496	0.140	0.085
-720.821	610.291	-0.110	-0.275
-719.806	-107.080	-0.098	-0.022
-718.791	-1.765	-0.166	0.117
-717.777	296.971	-0.068	-0.125
-716.762	34.352	0.231	-0.202
-715.748	-101.745	0.140	0.034
-714.733	48.955	-0.109	0.102
-713.718	-200.000	0.006	0.417
-712.704	99.489	0.279	-0.323
-711.689	-200.000	-0.021	0.161
-710.675	-200.000	0.009	-0.130
-709.660	-44.247	-0.136	0.068
-708.645	-50.535	-0.122	-0.058
-707.631	34.419	0.150	0.131
-706.616	-91.037	-0.459	0.132
-705.602	-178.016	0.307	-0.007
-704.587	125.150	-0.113	-0.142
-703.572	-10.542	0.146	0.096
-702.558	504.148	0.119	-0.275
-701.543	766.454	-0.033	-0.090
-700.529	116.352	-0.028	0.034
-699.514	100.668	0.123	0.143
-698.499	-78.141	-0.165	-0.057
-697.485	110.467	0.171	-0.206
-696.470	-200.000	-0.032	-0.427
-695.456	800.000	-0.073	-0.264
-694.441	-4.792	-0.117	-0.081
-693.426	800.000	-0.010	0.035
-692.412	-62.335	0.220	0.091
-691.397	479.954	0.110	-0.250
-690.383	-164.131	-0.141	-0.007
-689.368	-22.873	-0.086	0.052
-688.354	800.000	-0.091	0.322
-687.339	205.481	-0.166	-0.257
-686.324	6.057	-0.153	0.113
-685.310	800.000	0.099	-0.403
-684.295	-200.000	0.013	-0.206
-683.281	-200.000	-0.007	-0.167
-682.266	49.026	0.082	0.077
-681.251	-200.000	0.031	-0.262
-680.237	-96.826	-0.229	0.060
-679.222	-200.000	0.042	-0.353
-678.208	-33.051	0.162	0.090
-677.193	-106.969	-0.042	0.009
-676.178	-81.704	0.139	0.046
-675.164	112.989	0.129	-0.157
-674.149	44.394	0.203	0.186
-673.135	236.853	-0.095	-0.158
-672.120	12.918	0.050	-0.039
-671.105	259.899	0.059	0.102
-670.091	-78.389	-0.394	0.135
-669.076	-200.000	-0.006	0.451
-668.062	-80.362	0.215	0.072
-667.047	134.416	-0.171	0.221
-666.032	-66.656	-0.156	-0.062
-665.018	102.871	-0.143	-0.167
-664.003	-200.000	0.009	0.050
-662.989	11.020	-0.202	0.154
-661.974	-43.269	-0.068	0.034
-660.959	-107.234	0.225	-0.050
-659.945	-102.307	0.065	-0.016
-658.930	-11.964	-0.364	-0.239
-657.916	-72.314	-0.285	0.106
-656.901	0.943	0.094	-0.067
-655.886	285.468	0.167	-0.300
-654.872	32.813	0.105	-0.091
-653.857	-200.000	0.012	-0.075
-652.843	-17.205	-0.245	-0.154
-651.828	68.656	-0.214	0.219
-650.814	-200.000	-0.013	-0.070
-649.799	800.000	-0.032	-0.137
-648.784	30.593	-0.263	0.224
-647.770	-136.215	0.175	0.020
-646.755	800.000	0.055	-0.175
-645.741	-200.000	-0.026	-0.154
-644.726	661.034	0.017	-0.044
-643.711	114.057	0.104	0.127
-642.697	36.461	0.122	-0.107
-641.682	-200.000	-0.008	-0.123
-640.668	-105.200	-0.305	0.070
-639.653	-54.560	0.167	0.075
-638.638	-200.000	-0.010	0.187
-637.624	800.000	-0.047	-0.139
-636.609	-61.836	0.105	-0.044
-635.595	265.618	0.308	-0.536
-634.580	43.034	0.070	0.064
-633.565	-62.204	0.075	0.031
-632.551	800.000	-0.055	-0.213
-631.536	-200.000	-0.009	-0.200
-630.522	-74.249	-0.114	0.041
-629.507	-48.350	0.207	-0.100
-628.492	-17.462	-0.311	-0.195
-627.478	-81.305	-0.278	-0.091
-626.463	70.154	-0.223	-0.230
-625.449	87.077	0.262	-0.289
-624.434	-200.000	0.024	-0.189
-623.419	508.393	-0.067	-0.155
-622.405	-200.000	0.002	-0.283
-621.390	800.000	0.087	-0.277
-620.376	157.426	0.037	-0.051
-619.361	-126.623	0.150	-0.022
-618.346	11.735	-0.083	-0.063
-617.332	-132.273	-0.200	-0.026
-616.317	215.141	0.194	-0.306
-615.303	240.301	0.150	-0.249
-614.288	142.814	0.025	0.034
-613.273	-200.000	0.022	0.134
-612.259	-200.000	0.049	-0.364
-611.244	96.252	0.038	-0.044
-610.230	107.526	0.158	-0.187
-609.215	-8.202	-0.316	-0.212
-608.201	-78.014	0.237	0.081
-607.186	-33.055	0.333	0.184
-606.171	197.761	0.057	-0.087
-605.157	229.860	-0.074	-0.120
-604.142	-91.391	0.521	-0.148
-603.128	30.606	-0.346	0.295
-602.113	-49.501	-0.097	0.046
-601.098	108.759	0.151	-0.179
-600.084	-31.490	-0.179	-0.100
-599.069	-4.023	0.040	-0.027
-598.055	133.920	0.174	0.224
-597.040	800.000	0.167	0.478
-596.025	130.303	-0.091	0.116
-595.011	800.000	-0.060	-0.208
-593.996	-2.087	-0.241	0.168
-592.982	-200.000	0.036	-0.346
-591.967	800.000	0.025	0.079
-590.952	-200.000	-0.014	0.170
-589.938	667.051	0.020	-0.052
-588.923	-103.647	0.292	-0.068
-587.909	-176.335	0.305	-0.008
-586.894	16.910	-0.094	-0.074
-585.879	-8.616	-0.061	0.041
-584.865	-93.682	-0.142	-0.039
-583.850	251.634	0.151	-0.256
-582.836	-200.000	0.021	-0.173
-581.821	-3.330	0.190	-0.132
-580.806	-83.620	-0.395	0.126
-579.792	-126.400	0.093	-0.014
-578.777	-122.034	-0.124	0.020
-577.763	186.561	0.169	-0.250
-576.748	274.523	0.129	-0.228
-575.733	-95.879	-0.042	-0.011
-574.719	-200.000	0.052	0.258
-573.704	63.111	0.109	-0.109
-572.690	-200.000	-0.016	-0.154
-571.675	45.611	-0.289	0.265
-570.661	219.762	0.131	-0.209
-569.646	-86.337	0.103	-0.032
-568.631	-200.000	0.049	-0.246
-567.617	-54.776	-0.421	-0.189
-566.602	-200.000	0.099	0.482
-565.588	-117.938	-0.173	-0.031
-564.573	265.854	0.115	0.200
-563.558	-200.000	0.024	0.265
-562.544	-61.028	0.103	-0.043
-561.529	-50.187	-0.104	0.049
-560.515	-110.063	0.276	-0.057
-559.500	-93.587	-0.278	-0.076
-558.485	401.170	0.033	-0.068
-557.471	146.487	0.118	-0.158
-556.456	49.820	-0.184	0.172
-555.442	-61.016	0.130	-0.055
-554.427	-200.000	-0.007	0.047
-553.412	-44.486	-0.093	-0.046
-552.398	46.646	-0.142	0.131
-551.383	395.238	-0.036	0.074
-550.369	96.086	-0.090	-0.102
-549.354	-29.531	0.036	-0.020
-548.339	-70.856	-0.318	0.119
-547.325	397.882	0.092	-0.192
-546.310	6.720	0.024	-0.018
-545.296	-100.338	0.205	-0.051
-544.281	33.426	-0.175	0.151
-543.266	-200.000	0.005	0.121
-542.252	-200.000	0.047	-0.297
-541.237	653.102	0.113	0.288
-540.223	32.954	0.213	0.184
-539.208	-16.823	-0.059	-0.037
-538.193	261.700	-0.156	0.268
-537.179	-34.483	0.174	-0.095
-536.164	-31.445	0.355	-0.198
-535.150	-42.990	-0.375	0.189
-534.135	-81.486	-0.089	-0.029
-533.121	-200.000	-0.019	0.165
-532.106	-24.228	0.054	-0.032
-531.091	198.804	0.130	0.198
-530.077	-55.224	-0.418	0.186
-529.062	-148.666	0.263	-0.021
-528.048	185.747	-0.077	0.114
-527.033	-200.000	0.019	0.100
-526.018	800.000	-0.036	-0.109
-525.004	-65.358	-0.081	0.033
-523.989	79.027	-0.107	0.114
-522.975	800.000	-0.101	0.288
-521.960	-20.866	0.102	-0.062
-520.945	553.482	-0.019	0.045
-519.931	-71.517	-0.264	0.098
-518.916	-136.539	-0.271	0.031
-517.902	-144.941	0.133	0.012
-516.887	-22.612	-0.101	-0.061
-515.872	-200.000	-0.033	0.301
-514.858	542.972	0.137	-0.324
-513.843	-118.886	-0.250	-0.044
-512.829	22.739	0.140	-0.114
-511.814	-33.469	-0.080	-0.044
-510.799	-200.000	-0.041	-0.325
-509.785	-73.377	-0.463	0.168
-508.770	-17.079	0.226	-0.141
-507.756	418.458	-0.048	0.102
-506.741	401.945	-0.055	0.115
-505.726	-107.835	-0.107	-0.023
-504.712	108.402	0.287	-0.340
-503.697	-165.255	0.123	0.005
-502.683	359.318	0.168	-0.333
-501.668	205.432	0.111	-0.171
-500.653	-26.397	-0.188	-0.110
-499.639	25.595	-0.253	-0.209
-498.624	-33.084	-0.347	0.191
-497.610	-200.000	0.009	-0.346
-496.595	-200.000	-0.045	0.278
-495.581	137.335	0.074	-0.097
-494.566	-77.608	-0.282	0.097
-493.551	215.443	-0.048	0.076
-492.537	-200.000	0.030	0.166
-491.522	-118.054	-0.169	0.030
-490.508	800.000	0.159	-0.544
-489.493	-51.437	-0.164	-0.076
-488.478	-78.755	-0.174	-0.059
-487.464	383.432	0.045	0.093
-486.449	480.567	-0.081	-0.182
-485.435	-164.031	-0.161	-0.007
-484.420	71.261	-0.112	-0.115
-483.405	48.202	-0.183	0.170
-482.391	800.000	-0.122	0.405
-481.376	-81.318	-0.224	-0.073
-480.362	300.142	-0.120	-0.220
-479.347	-200.000	0.011	-0.222
-478.332	-65.364	0.048	0.019
-477.318	-107.752	0.107	0.023
-476.303	18.350	0.075	-0.059
-475.289	156.986	0.140	-0.191
-474.274	576.737	-0.121	-0.292
-473.259	476.011	0.106	0.238
-472.245	-200.000	0.003	0.416
-471.230	-41.990	-0.155	0.079
-470.216	-200.000	0.062	-0.297
-469.201	231.274	0.119	0.193
-468.186	-180.421	0.398	-0.008
-467.172	-129.102	-0.306	0.042
-466.157	800.000	-0.086	0.364
-465.143	580.956	0.061	0.149
-464.128	-140.183	0.095	0.010
-463.113	-142.957	-0.110	0.011
-462.099	800.000	0.089	-0.255
-461.084	-105.945	0.206	-0.046
-460.070	-200.000	0.019	0.227
-459.055	-200.000	0.032	0.143
-458.040	-12.944	0.213	-0.137
-457.026	-64.095	-0.351	-0.142
-456.011	-48.067	-0.252	-0.121
-454.997	-200.000	-0.007	-0.057
-453.982	800.000	0.044	-0.144
-452.968	-200.000	-0.062	0.296
-451.953	252.604	-0.176	-0.297
-450.938	-150.204	0.256	0.020
-449.924	52.296	-0.069	0.065
-448.909	178.005	-0.150	-0.217
-447.895	-28.647	0.261	0.149
-446.880	-200.000	0.000	-0.073
-445.865	216.425	-0.138	0.218
-444.851	289.210	-0.089	0.160
-443.836	55.166	0.254	-0.243
-442.822	26.540	0.177	0.147
-441.807	-1.932	-0.145	0.101
-440.792	-200.000	-0.017	0.380
-439.778	50.639	0.145	0.136
-438.763	-136.804	-0.186	-0.021
-437.749	-144.402	-0.249	-0.023
-436.734	800.000	0.087	-0.260
-435.719	49.377	0.209	0.194
-434.705	71.604	-0.067	-0.068
-433.690	-200.000	0.002	-0.010
-432.676	77.226	0.120	-0.126
-431.661	-65.928	-0.287	0.113
-430.646	-192.701	0.345	0.003
-429.632	51.050	-0.221	0.208
-428.617	800.000	-0.054	-0.191
-427.603	-27.218	0.141	-0.081
-426.588	-200.000	0.013	0.205
-425.573	42.305	-0.144	-0.129
-424.559	-18.036	-0.158	-0.098
-423.544	343.432	0.137	-0.266
-422.530	34.248	0.038	0.032
-421.515	-44.853	-0.285	-0.141
-420.500	93.121	0.014	0.016
-419.486	160.770	0.196	0.270
-418.471	-74.650	-0.310	0.110
-417.457	-200.000	-0.022	-0.140
-416.442	-166.598	0.116	0.005
-415.428	265.588	-0.057	-0.099
-414.413	104.003	-0.057	-0.067
-413.398	-177.700	-0.365	0.009
-412.384	462.168	-0.061	-0.136
-411.369	-78.358	-0.176	0.060
-410.355	-61.609	0.422	-0.175
-409.340	163.198	0.103	-0.143
-408.325	624.977	-0.050	-0.125
-407.311	-200.000	0.031	-0.235
-406.296	-66.410	-0.114	0.045
-405.282	406.345	0.113	-0.236
-404.267	289.695	0.119	0.213
-403.252	-15.448	0.117	-0.074
-402.238	237.201	-0.269	-0.441
-401.223	-131.928	0.217	0.028
-400.209	-66.089	-0.135	-0.053
-399.194	-75.119	-0.135	0.048
-398.179	14.529	0.226	-0.175
-397.165	-5.548	-0.254	0.172
-396.150	-103.847	-0.189	-0.044
-395.136	-200.000	0.022	-0.321
-394.121	-200.000	-0.067	-0.298
-393.106	800.000	0.039	-0.119
-392.092	66.252	0.226	0.227
-391.077	483.075	-0.044	-0.099
-390.063	-141.094	-0.126	-0.013
-389.048	-25.897	0.201	-0.117
-388.033	-32.670	-0.084	-0.046
-387.019	-136.662	-0.099	-0.011
-386.004	-27.352	0.204	0.117
-384.990	-47.089	-0.289	0.139
-383.975	-200.000	-0.037	0.331
-382.960	-200.000	0.281	-0.001
-381.946	308.438	-0.190	-0.351
-380.931	-200.000	-0.027	0.137
-379.917	-74.461	0.305	0.109
-378.902	133.180	0.003	0.004
-377.888	-46.013	-0.341	0.166
-376.873	329.174	0.065	-0.124
-375.858	683.262	-0.046	-0.118
-374.844	-155.250	0.314	0.020
-373.829	-56.541	-0.061	-0.027
-372.815	-33.145	-0.130	-0.071
-371.800	-83.588	0.348	-0.110
-370.785	76.682	-0.042	0.044
-369.771	-200.000	-0.332	0.001
-368.756	-87.693	-0.287	0.085
-367.742	-24.110	0.177	-0.104
-366.727	-8.811	0.262	-0.173
-365.712	-109.192	-0.200	-0.042
-364.698	100.190	-0.279	0.320
-363.683	63.706	-0.178	-0.177
-362.669	-200.000	0.036	-0.190
-361.654	15.580	0.133	0.103
-360.639	-200.000	0.021	0.119
-359.625	-200.000	-0.077	0.384
-358.610	-200.000	0.013	-0.232
-357.596	-165.237	-0.198	-0.009
-356.581	183.132	0.057	0.083
-355.566	-116.386	-0.117	0.021
-354.552	800.000	-0.098	0.270
-353.537	21.781	0.359	0.289
-352.523	-14.490	-0.045	0.028
-351.508	156.750	0.344	0.469
-350.493	-127.866	0.158	-0.022
-349.479	800.000	-0.046	0.194
-348.464	379.871	-0.083	-0.167
-347.450	36.098	-0.042	-0.037
-346.435	76.049	-0.108	-0.112
-345.420	350.731	-0.102	-0.199
-344.406	92.855	0.110	0.123
-343.391	-200.000	0.007	0.416
-342.377	-200.000	-0.086	0.418
-341.362	-200.000	-0.025	0.125
-340.348	-141.987	-0.189	0.019
-339.333	15.946	0.185	0.144
-338.318	800.000	0.058	0.220
-337.304	245.271	0.049	0.081
-336.289	-16.028	-0.168	0.105
-335.275	-200.000	0.016	0.202
-334.260	141.379	-0.124	-0.161
-333.245	-200.000	0.017	0.171
-332.231	800.000	0.027	0.086
-331.216	-2.961	0.148	0.102
-330.202	327.898	-0.083	0.157
-329.187	701.197	-0.112	0.291
-328.172	58.708	0.099	-0.096
-327.158	-200.000	0.029	0.362
-326.143	317.350	0.021	-0.040
-325.129	-20.964	-0.324	-0.195
-324.114	-137.953	-0.078	0.009
-323.099	-140.738	-0.129	0.013
-322.085	651.829	0.048	0.122
-321.070	42.928	-0.101	-0.091
-320.056	250.368	-0.173	0.290
-319.041	657.231	0.054	-0.138
-318.026	-39.597	-0.088	-0.046
-317.012	127.811	-0.196	-0.245
-315.997	-200.000	0.026	0.190
-314.983	109.968	0.231	0.273
-313.968	800.000	-0.087	0.239
-312.953	-40.186	0.278	0.143
-311.939	800.000	-0.120	0.404
-310.924	-52.255	0.291	-0.133
-309.910	-182.434	0.162	0.003
-308.895	-159.342	0.245	-0.014
-307.880	-200.000	0.008	0.108
-306.866	-200.000	-0.003	0.096
-305.851	27.358	0.213	0.176
-304.837	-200.000	-0.009	-0.090
-303.822	200.533	0.045	0.068
-302.807	-200.000	0.031	-0.225
-301.793	-94.708	0.067	-0.018
-300.778	367.827	-0.034	0.067
-299.764	-197.335	-0.125	-0.001
-298.749	76.007	-0.146	0.152
-297.735	-200.000	0.052	-0.336
-296.720	552.673	0.113	0.267
-295.705	-47.779	-0.032	0.015
-294.691	800.000	0.084	-0.335
-293.676	-200.000	-0.004	0.233
-292.662	-200.000	-0.044	0.508
-291.647	-130.316	0.159	0.021
-290.632	405.426	0.079	-0.165
-289.618	-37.253	0.054	-0.028
-288.603	-58.494	0.151	-0.065
-287.589	-21.888	-0.164	0.098
-286.574	108.658	0.092	-0.109
-285.559	351.944	0.091	0.178
-284.545	62.703	-0.122	0.120
-283.530	9.803	0.231	0.173
-282.516	-200.000	-0.001	-0.028
-281.501	-110.238	-0.359	-0.074
-280.486	-200.000	-0.053	0.247
-279.472	21.712	0.114	0.091
-278.457	256.952	0.098	-0.165
-277.443	529.435	0.158	0.368
-276.428	800.000	-0.139	0.472
-275.413	778.531	-0.065	-0.174
-274.399	325.510	-0.033	-0.063
-273.384	-26.616	0.316	0.182
-272.370	-58.714	-0.068	0.029
-271.355	444.490	0.163	-0.351
-270.340	-40.374	0.115	0.059
-269.326	-123.154	0.153	0.024
-268.311	-90.488	0.069	0.020
-267.297	72.692	0.297	0.305
-266.282	800.000	0.112	-0.325
-265.267	-51.632	-0.228	0.105
-264.253	43.490	0.101	-0.091
-263.238	152.723	0.077	-0.103
-262.224	-138.886	0.435	-0.046
-261.209	-188.081	-0.151	0.002
-260.195	21.877	-0.128	0.103
-259.180	-182.672	0.201	-0.004
-258.165	373.897	0.121	-0.242
-257.151	-55.168	-0.100	0.044
-256.136	-162.760	0.078	0.004
-255.122	-15.210	-0.244	-0.154
-254.107	-200.000	-0.008	-0.262
-253.092	-36.137	-0.017	0.009
-252.078	-200.000	-0.039	-0.178
-251.063	47.038	0.095	0.086
-250.049	-200.000	-0.044	-0.195
-249.034	800.000	-0.086	-0.278
-248.019	-200.000	0.043	-0.266
-247.005	9.906	-0.152	-0.113
-245.990	-181.761	0.298	-0.006
-244.976	-15.390	0.200	-0.125
-243.961	79.853	-0.270	0.285
-242.946	-200.000	0.010	0.169
-241.932	-65.636	-0.118	0.046
-240.917	-179.950	-0.154	0.003
-239.903	-200.000	-0.005	0.289
-238.888	406.879	-0.146	0.304
-237.873	800.000	-0.105	-0.407
-236.859	16.673	0.231	0.179
-235.844	-44.182	-0.226	0.111
-234.830	-121.479	0.060	-0.010
-233.815	170.896	-0.283	-0.398
-232.800	-65.719	-0.127	0.050
-231.786	-46.268	0.309	-0.149
-230.771	-177.742	0.281	0.007
-229.757	648.877	-0.169	0.426
-228.742	-200.000	-0.025	0.119
-227.727	-26.248	-0.031	-0.018
-226.713	-37.938	-0.153	-0.080
-225.698	1.344	0.101	-0.071
-224.684	291.331	-0.101	-0.181
-223.669	-146.958	-0.328	0.028
-222.655	432.021	0.090	0.192
-221.640	-166.599	-0.291	0.012
-220.625	263.695	-0.221	0.378
-219.611	-86.222	0.120	-0.036
-218.596	140.736	0.165	-0.214
-217.582	98.283	0.018	-0.021
-216.567	800.000	-0.067	0.189
-215.552	-200.000	0.301	-0.001
-214.538	-200.000	0.005	0.043
-213.523	325.458	-0.120	0.225
-212.509	-12.434	0.099	0.064
-211.494	77.418	0.112	-0.117
-210.479	-62.895	-0.236	-0.096
-209.465	-106.586	-0.205	0.045
-208.450	512.294	0.055	-0.126
-207.436	50.635	0.166	-0.154
-206.421	-119.707	-0.198	-0.033
-205.406	-200.000	-0.054	0.328
-204.392	95.759	0.094	0.105
-203.377	80.222	-0.013	-0.013
-202.363	-200.000	-0.082	0.408
-201.348	-200.000	0.007	0.072
-200.333	34.772	-0.073	-0.063
-199.319	-1.418	0.235	-0.163
-198.304	-92.527	-0.086	-0.024
-197.290	124.115	0.101	-0.124
-196.275	241.034	0.156	-0.255
-195.260	7.118	0.324	-0.237
-194.246	-200.000	0.016	0.091
-193.231	-72.862	0.197	0.071
-192.217	-200.000	0.029	0.130
-191.202	0.410	-0.107	0.075
-190.187	-121.698	-0.125	-0.020
-189.173	-39.749	-0.283	-0.145
-188.158	15.087	0.126	0.097
-187.144	-96.181	-0.239	-0.062
-186.129	-74.800	-0.149	0.052
-185.114	206.389	-0.167	0.255
-184.100	800.000	-0.047	-0.149
-183.085	15.023	0.064	-0.049
-182.071	632.496	0.029	-0.073
-181.056	-171.392	0.036	-0.001
-180.042	35.465	0.429	-0.369
-179.027	-200.000	-0.034	-0.191
-178.012	74.237	0.389	0.401
-176.998	-200.000	0.054	0.330
-175.983	122.441	0.056	0.068
-174.969	-95.587	-0.262	0.069
-173.954	-200.000	-0.022	-0.096
-172.939	5.387	0.314	-0.227
-171.925	5.391	0.187	-0.135
-170.910	-97.058	0.267	-0.068
-169.896	17.542	-0.316	-0.246
-168.881	-154.433	0.360	-0.024
-167.866	-87.196	-0.311	0.093
-166.852	154.497	0.107	0.144
-165.837	-118.986	0.303	0.052
-164.823	7.792	-0.178	-0.131
-163.808	-200.000	0.003	0.012
-162.793	86.895	-0.123	-0.133
-161.779	8.302	-0.111	-0.082
-160.764	-200.000	-0.000	0.136
-159.750	68.080	0.091	0.091
-158.735	-200.000	0.010	0.129
-157.720	-91.149	0.369	-0.104
-156.706	-76.221	0.297	0.103
-155.691	-200.000	0.057	0.298
-154.677	9.176	0.211	0.156
-153.662	-6.308	-0.017	-0.011
-152.647	58.193	-0.151	0.145
-151.633	800.000	-0.026	0.093
-150.618	-150.368	0.497	0.037
-149.604	-77.292	-0.258	-0.088
-148.589	-76.910	-0.045	0.015
-147.574	215.100	-0.098	-0.152
-146.560	-175.497	-0.055	-0.001
-145.545	-88.970	0.310	0.090
-144.531	68.653	-0.315	-0.316
-143.516	-200.000	-0.051	-0.253
-142.502	704.943	-0.072	-0.187
-141.487	-200.000	-0.042	-0.257
-140.472	-26.878	-0.352	0.202
-139.458	210.863	-0.015	-0.023
-138.443	800.000	0.067	0.208
-137.429	24.135	-0.227	-0.184
-136.414	506.238	-0.107	-0.242
-135.399	800.000	0.147	0.553
-134.385	-200.000	-0.021	-0.208
-133.370	-181.295	-0.225	-0.004
-132.356	800.000	-0.106	0.321
-131.341	294.864	0.115	-0.205
-130.326	366.161	0.109	0.215
-129.312	-200.000	-0.039	0.311
-128.297	800.000	-0.014	0.056
-127.283	-200.000	0.016	-0.223
-126.268	303.157	-0.157	-0.285
-125.253	634.776	-0.121	-0.301
-124.239	-200.000	-0.017	-0.151
-123.224	-126.182	-0.078	0.011
-122.210	-88.698	-0.122	-0.035
-121.195	-200.000	0.039	0.447
-120.180	-200.000	-0.012	0.216
-119.166	-112.880	0.192	0.037
-118.151	-6.063	-0.179	0.119
-117.137	-41.681	-0.173	-0.087
-116.122	-62.848	-0.379	0.154
-115.107	-70.907	-0.286	0.105
-114.093	-200.000	0.012	-0.141
-113.078	-200.000	-0.003	-0.118
-112.064	-200.000	0.031	0.321
-111.049	-13.142	0.166	0.105
-110.034	437.987	0.172	0.366
-109.020	-76.832	-0.362	0.124
-108.005	800.000	-0.057	-0.187
-106.991	-34.332	0.410	0.220
-105.976	800.000	0.043	-0.123
-104.962	-70.543	-0.103	-0.038
-103.947	-89.138	-0.286	0.083
-102.932	1.576	0.113	-0.080
-101.918	199.103	-0.022	-0.033
-100.903	98.866	-0.175	-0.198
-99.889	-76.934	-0.164	-0.056
-98.874	217.937	0.082	-0.127
-97.859	-103.339	0.146	-0.034
-96.845	726.460	0.102	-0.265
-95.830	800.000	-0.055	-0.160
-94.816	800.000	0.044	-0.160
-93.801	-200.000	-0.022	-0.160
-92.786	-110.526	-0.253	0.051
-91.772	-22.646	-0.231	0.136
-90.757	-70.408	0.218	-0.081
-89.743	45.511	0.083	-0.075
-88.728	794.783	0.070	0.188
-87.713	-35.803	0.127	0.067
-86.699	207.369	-0.159	0.242
-85.684	549.859	0.083	0.194
-84.670	35.404	0.190	-0.163
-83.655	800.000	-0.090	0.274
-82.640	45.026	-0.316	-0.284
-81.626	-100.528	0.148	-0.036
-80.611	-40.915	0.589	-0.297
-79.597	110.551	-0.053	-0.062
-78.582	307.185	-0.030	0.054
-77.567	119.491	0.170	0.205
-76.553	-200.000	-0.018	0.233
-75.538	116.042	0.166	-0.199
-74.524	-94.623	-0.170	0.045
-73.509	800.000	0.095	0.323
-72.494	800.000	-0.102	0.390
-71.480	-200.000	-0.027	0.165
-70.465	14.173	-0.186	0.142
-69.451	-200.000	0.074	-0.398
-68.436	-200.000	0.033	-0.295
-67.422	-93.728	-0.084	0.023
-66.407	800.000	-0.046	0.191
-65.392	142.897	0.173	0.224
-64.378	-200.000	-0.059	0.393
-63.363	-200.000	0.005	-0.210
-62.349	-111.129	0.587	-0.117
-61.334	68.830	-1.006	-1.008
-60.319	143.747	0.525	0.682
-59.305	354.234	-0.790	-1.532
-58.290	214.477	1.083	1.673
-57.276	564.007	0.613	1.448
-56.261	-200.000	137.501	641.571
-55.246	332.608	1662.935	3132.306
-54.232	134.691	2794.248	3536.655
-53.217	83.696	2165.322	2303.146
-52.203	30.621	1598.287	1333.273
-51.188	23.054	1349.540	1079.716
-50.173	20.986	1315.289	1039.950
-49.159	47.718	1390.389	1265.178
-48.144	43.468	1398.232	1246.126
-47.130	23.127	1345.995	1077.156
-46.115	20.241	1326.826	1044.424
-45.100	20.053	1322.031	1039.479
-44.086	20.015	1319.431	1037.166
-43.071	19.927	1317.456	1035.047
-42.057	19.873	1315.598	1033.223
-41.042	19.902	1313.931	1032.042
-40.027	20.019	1312.358	1031.463
-39.013	19.978	1310.093	1029.400
-37.998	20.015	1308.346	1028.207
-36.984	20.182	1306.885	1028.006
-35.969	19.989	1305.473	1025.715
-34.954	20.112	1303.504	1024.852
-33.940	20.064	1302.612	1023.828
-32.925	20.139	1300.688	1022.715
-31.911	20.150	1299.319	1021.665
-30.896	20.209	1297.866	1020.828
-29.881	20.171	1296.413	1019.419
-28.867	20.166	1295.262	1018.445
-27.852	20.139	1293.787	1017.091
-26.838	20.129	1292.774	1016.194
-25.823	20.161	1291.345	1015.218
-24.809	20.099	1290.321	1014.011
-23.794	20.122	1288.783	1012.895
-22.779	20.019	1287.419	1011.182
-21.765	20.110	1286.277	1010.777
-20.750	20.189	1284.840	1010.068
-19.736	20.052	1283.629	1008.274
-18.721	19.934	1282.785	1006.888
-17.706	20.055	1281.159	1006.276
-16.692	19.904	1280.278	1004.665
-15.677	20.059	1278.620	1004.226
-14.663	20.125	1277.237	1003.478
-13.648	19.984	1276.565	1002.096
-12.633	19.992	1275.422	1001.202
-11.619	19.983	1274.418	1000.325
-10.604	20.037	1273.886	1000.178
-9.590	20.091	1272.902	999.676
-8.575	20.026	1271.527	998.185
-7.560	20.029	1270.753	997.554
-6.546	19.940	1270.418	996.738
-5.531	19.975	1269.405	996.105
-4.517	20.095	1268.589	996.117
-3.502	20.061	1267.673	995.163
-2.487	19.943	1267.207	994.080
-1.473	19.927	1262.406	990.180
-0.458	18.168	1247.025	968.133
0.556	13.713	1231.041	930.022
1.571	9.898	1239.730	914.923
2.586	9.154	1255.832	922.450
3.600	9.402	1242.950	914.319
4.615	7.184	1171.590	849.858
5.629	2.746	1103.675	778.049
6.644	0.784	1087.697	756.904
7.659	0.551	1086.500	754.839
8.673	0.534	1085.751	754.166
9.688	0.632	1084.008	753.380
10.702	0.769	1081.583	752.307
11.717	3.415	1084.085	767.163
12.731	9.453	1092.014	802.905
13.746	15.042	1100.233	836.895
14.761	17.140	1101.989	848.653
15.775	16.446	1100.462	843.937
16.790	15.514	1098.400	837.630
17.804	14.986	1096.393	833.398
18.819	14.551	1095.321	830.345
19.834	14.397	1094.885	829.177
20.848	14.124	1093.984	827.062
21.863	13.894	1093.018	825.117
22.877	13.691	1092.531	823.665
23.892	13.769	1091.271	823.033
24.907	13.719	1090.748	822.317
25.921	13.773	1089.823	821.813
26.936	13.749	1089.076	821.058
27.950	13.749	1088.293	820.395
28.965	13.806	1086.531	819.278
29.980	13.938	1085.305	818.930
30.994	13.956	1084.129	818.059
32.009	13.842	1083.808	817.185
33.023	13.912	1082.489	816.458
34.038	13.878	1081.498	815.475
35.053	13.889	1080.676	814.835
36.067	13.815	1079.995	813.888
37.082	13.936	1078.564	813.328
38.096	13.928	1077.840	812.673
39.111	13.874	1077.272	811.906
40.126	13.765	1076.014	810.355
41.140	13.603	1074.800	808.577
42.155	13.740	1073.362	808.095
43.169	13.667	1072.483	807.003
44.184	13.566	1071.559	805.749
45.199	13.694	1070.198	805.276
46.213	13.751	1069.208	804.736
47.228	13.680	1068.195	803.557
48.242	13.879	1066.844	803.433
49.257	13.815	1065.899	802.342
50.271	13.821	1065.338	801.876
51.286	13.678	1064.571	800.536
52.301	13.813	1062.907	799.863
53.315	13.786	1061.925	798.927
54.330	13.790	1061.145	798.286
55.344	13.867	1059.988	797.715
56.359	13.838	1059.234	796.940
57.374	13.619	1058.783	795.480
58.388	13.697	1057.752	795.008
59.403	13.668	1056.791	794.077
60.417	13.733	1055.964	793.695
61.432	13.619	1055.238	792.536
62.447	13.615	1054.247	791.702
63.461	13.578	1053.479	790.877
64.476	13.595	1052.752	790.342
65.490	13.666	1051.730	789.845
66.505	13.688	1050.523	788.972
67.520	13.632	1050.177	788.377
68.534	13.684	1049.835	788.296
69.549	13.708	1048.830	787.587
70.563	13.659	1048.389	786.953
71.578	13.495	1047.559	785.483
72.593	13.685	1046.222	785.312
73.607	13.746	1045.211	784.771
74.622	13.646	1044.932	784.018
75.636	13.665	1044.333	783.589
76.651	13.569	1043.549	782.477
77.666	13.580	1042.894	781.972
78.680	13.511	1042.230	781.077
79.695	13.577	1041.554	780.815
80.709	13.672	1040.559	780.445
81.724	13.683	1040.283	780.221
82.739	13.694	1039.155	779.357
83.753	13.757	1038.748	779.280
84.768	13.833	1037.261	778.450
85.782	13.926	1036.417	778.186
86.797	13.776	1035.402	776.653
87.812	13.651	1034.932	775.644
88.826	13.742	1033.591	775.000
89.841	13.713	1032.846	774.237
90.855	13.783	1031.686	773.623
91.870	13.857	1030.982	773.370
92.884	13.796	1030.359	772.553
93.899	13.870	1029.416	772.119
94.914	13.864	1028.790	771.556
95.928	13.931	1027.970	771.183
96.943	14.031	1026.812	770.709
97.957	13.837	1026.053	769.175
98.972	13.672	1025.129	767.646
99.987	13.799	1024.674	767.825
101.001	13.765	1023.392	766.640
102.016	13.902	1022.360	766.433
103.030	13.900	1021.699	765.863
104.045	13.854	1020.783	764.893
105.060	14.014	1019.599	764.676
106.074	13.714	1019.144	762.887
107.089	13.836	1017.975	762.505
108.103	13.843	1017.389	762.029
109.118	13.656	1016.900	760.737
110.133	13.724	1015.565	759.983
111.147	13.724	1014.661	759.240
112.162	13.754	1013.605	758.521
113.176	13.756	1012.730	757.808
114.191	13.830	1012.165	757.656
115.206	13.802	1010.991	756.584
116.220	13.792	1010.391	756.021
117.235	13.889	1008.955	755.321
118.249	13.814	1008.595	754.642
119.264	13.740	1007.860	753.689
120.279	13.911	1006.457	753.352
121.293	13.858	1005.823	752.567
122.308	13.692	1005.012	751.142
123.322	13.793	1004.030	750.799
124.337	13.756	1003.018	749.808
125.352	13.795	1001.729	748.954
126.366	13.832	1000.537	748.165
127.381	13.731	999.863	747.138
128.395	13.689	999.074	746.296
129.410	13.727	997.919	745.538
130.424	13.748	997.136	744.982
131.439	13.730	996.526	744.377
132.454	13.780	995.701	743.920
133.468	13.864	994.386	743.250
134.483	13.749	993.698	742.153
135.497	13.756	992.979	741.582
136.512	13.733	991.786	740.521
137.527	13.828	991.413	740.604
138.541	13.766	990.966	739.930
139.556	13.832	989.977	739.418
140.570	13.908	989.113	739.043
141.585	13.782	988.621	738.051
142.600	13.991	987.197	737.852
143.614	14.047	986.482	737.500
144.629	14.178	985.169	737.035
145.643	14.116	984.505	736.197
146.658	13.968	983.959	735.067
147.673	13.913	982.845	733.929
148.687	13.883	981.791	732.945
149.702	13.933	981.268	732.708
150.716	14.048	980.218	732.367
151.731	13.934	979.724	731.431
152.746	13.816	979.472	730.661
153.760	14.087	978.024	730.706
154.775	14.098	977.837	730.550
155.789	14.193	976.889	730.192
156.804	14.039	976.451	729.124
157.819	14.009	975.841	728.472
158.833	14.147	975.055	728.427
159.848	14.153	974.230	727.774
160.862	14.220	973.192	727.227
161.877	14.108	972.309	726.014
162.892	14.070	971.196	724.950
163.906	14.075	970.332	724.267
164.921	14.214	969.709	724.341
165.935	14.095	968.702	723.009
166.950	14.068	967.941	722.258
167.964	14.118	967.392	722.003
168.979	14.135	966.119	721.063
169.994	14.262	964.904	720.642
171.008	14.134	964.841	719.978
172.023	14.185	963.579	719.191
173.037	14.228	963.148	718.991
174.052	14.306	962.075	718.463
175.067	14.145	961.560	717.320
176.081	14.070	961.429	716.836
177.096	14.063	961.146	716.532
178.110	14.141	960.125	716.044
179.125	14.278	959.380	716.011
180.140	14.300	958.808	715.618
181.154	14.052	958.789	714.475
182.169	14.366	957.582	714.858
183.183	14.488	957.047	714.919
184.198	14.337	956.152	713.539
185.213	14.330	955.768	713.162
186.227	14.439	954.577	712.675
187.242	14.316	954.587	712.093
188.256	14.486	953.690	712.085
189.271	14.577	952.927	711.843
190.286	14.277	952.366	710.083
191.300	14.369	951.492	709.759
192.315	14.291	950.537	708.653
193.329	14.308	950.052	708.300
194.344	14.407	949.308	708.105
195.359	14.407	948.486	707.426
196.373	14.524	948.046	707.532
197.388	14.368	947.998	706.774
198.402	14.562	946.766	706.616
199.417	14.590	946.712	706.629
200.432	14.739	945.808	706.522
201.446	14.708	945.434	706.050
202.461	14.743	944.635	705.538
203.475	14.672	944.492	705.071
204.490	14.743	942.870	704.096
205.504	14.674	942.684	703.603
206.519	14.722	941.623	702.950
207.534	14.639	941.045	702.109
208.548	14.653	940.503	701.702
209.563	14.792	939.622	701.564
210.577	14.736	939.151	700.915
211.592	14.691	938.581	700.241
212.607	14.760	937.454	699.627
213.621	14.661	937.106	698.889
214.636	14.882	936.322	699.168
215.650	14.955	935.132	698.521
216.665	14.935	934.432	697.854
217.680	14.871	934.225	697.372
218.694	14.832	933.322	696.475
219.709	14.777	932.865	695.842
220.723	14.939	931.855	695.702
221.738	14.926	931.227	695.118
222.753	14.854	930.830	694.460
223.767	14.838	930.256	693.901
224.782	14.927	929.361	693.541
225.796	14.954	929.098	693.398
226.811	15.142	928.137	693.398
227.826	14.875	927.599	691.829
228.840	15.061	926.599	691.790
229.855	14.955	926.015	690.854
230.869	14.934	925.359	690.220
231.884	15.059	924.389	689.949
232.899	15.004	923.636	689.100
233.913	14.948	923.163	688.456
234.928	14.899	922.691	687.839
235.942	15.015	921.755	687.557
236.957	15.013	921.380	687.208
237.972	14.960	920.852	686.536
238.986	15.035	919.874	686.055
240.001	15.244	919.130	686.297
241.015	15.056	918.655	685.111
242.030	15.229	917.739	685.073
243.045	15.066	917.648	684.280
244.059	14.931	917.012	683.194
245.074	15.080	916.358	683.253
246.088	15.130	915.686	682.897
247.103	15.274	914.698	682.685
248.117	15.254	914.761	682.591
249.132	15.275	913.911	681.980
250.147	15.341	912.959	681.477
251.161	15.326	912.796	681.235
252.176	15.389	911.593	680.533
253.190	15.450	910.961	680.250
254.205	15.493	910.345	679.901
255.220	15.530	909.499	679.358
256.234	15.413	909.228	678.626
257.249	15.555	908.289	678.437
258.263	15.288	907.804	676.937
259.278	15.587	906.960	677.455
260.293	15.588	906.427	677.000
261.307	15.646	905.932	676.802
262.322	15.661	904.977	676.090
263.336	15.671	904.291	675.560
264.351	15.721	903.656	675.225
265.366	15.618	903.242	674.441
266.380	15.672	902.488	674.035
267.395	15.681	901.877	673.557
268.409	15.718	900.947	672.951
269.424	15.614	899.923	671.710
270.439	15.700	899.174	671.434
271.453	15.661	898.802	670.942
272.468	15.774	898.101	670.811
273.482	15.705	897.514	670.037
274.497	15.711	896.925	669.562
275.512	15.723	896.624	669.326
276.526	15.760	896.299	669.172
277.541	15.856	895.377	668.807
278.555	15.846	894.999	668.425
279.570	15.955	894.046	668.087
280.585	15.934	893.076	667.218
281.599	15.905	892.531	666.638
282.614	15.991	892.314	666.757
283.628	16.063	890.856	665.894
284.643	15.977	890.413	665.164
285.657	15.848	890.073	664.343
286.672	15.888	889.469	663.989
287.687	15.886	888.888	663.490
288.701	16.026	888.017	663.330
289.716	16.121	887.341	663.142
290.730	15.981	887.173	662.406
291.745	16.050	885.972	661.723
292.760	16.026	885.897	661.512
293.774	16.139	885.505	661.605
294.789	16.051	884.591	660.520
295.803	16.115	883.660	660.015
296.818	16.065	883.219	659.435
297.833	16.137	882.459	659.088
298.847	16.156	881.802	658.616
299.862	16.237	881.124	658.364
300.876	16.066	880.921	657.489
301.891	16.255	880.108	657.560
302.906	16.314	879.426	657.221
303.920	16.325	878.937	656.840
304.935	16.288	878.485	656.300
305.949	16.313	877.616	655.690
306.964	16.463	877.259	655.949
307.979	16.402	876.630	655.183
308.993	16.425	875.958	654.711
310.008	16.364	875.126	653.797
311.022	16.528	874.485	653.893
312.037	16.401	873.915	652.917
313.052	16.349	873.395	652.271
314.066	16.392	872.782	651.921
315.081	16.413	872.323	651.603
316.095	16.267	871.834	650.617
317.110	16.313	871.319	650.353
318.125	16.422	870.573	650.159
319.139	16.271	870.859	649.734
320.154	16.391	869.598	649.196
321.168	16.449	869.518	649.302
322.183	16.455	868.872	648.785
323.197	16.613	867.914	648.617
324.212	16.464	867.472	647.657
325.227	16.467	867.225	647.429
326.241	16.456	866.320	646.653
327.256	16.522	865.986	646.598
328.270	16.526	864.936	645.775
329.285	16.539	864.383	645.354
330.300	16.597	863.834	645.106
331.314	16.467	863.564	644.354
332.329	16.550	862.914	644.126
333.343	16.538	862.425	643.658
334.358	16.638	861.968	643.640
335.373	16.689	861.645	643.538
336.387	16.632	861.625	643.248
337.402	16.651	861.248	642.983
338.416	16.634	861.060	642.719
339.431	16.750	860.910	642.993
340.446	16.664	860.224	642.096
341.460	16.777	859.745	642.111
342.475	16.918	858.858	641.925
343.489	16.883	858.724	641.637
344.504	16.960	858.238	641.509
345.519	16.939	857.725	640.989
346.533	16.923	856.877	640.235
347.548	16.804	856.736	639.625
348.562	16.840	855.902	639.081
349.577	16.829	855.707	638.837
350.592	17.049	854.663	638.831
351.606	16.987	853.862	637.942
352.621	16.881	853.407	637.148
353.635	16.953	852.729	636.855
354.650	17.018	851.832	636.372
355.665	17.025	851.319	635.961
356.679	17.064	850.682	635.572
357.694	17.171	850.112	635.492
358.708	16.981	849.270	634.097
359.723	17.122	848.732	634.165
360.738	17.129	848.204	633.740
361.752	17.117	847.681	633.250
362.767	17.070	847.141	632.615
363.781	17.333	846.446	633.017
364.796	17.231	846.167	632.373
365.810	17.188	845.857	631.927
366.825	17.225	845.294	631.590
367.840	17.236	845.024	631.372
368.854	17.347	844.205	631.115
369.869	17.252	843.985	630.544
370.883	17.398	843.311	630.525
371.898	17.220	843.236	629.751
372.913	17.308	842.994	629.843
373.927	17.315	842.335	629.320
374.942	17.381	841.723	629.050
375.956	17.429	841.349	628.894
376.971	17.357	841.206	628.465
377.986	17.466	840.433	628.233
379.000	17.566	839.871	628.129
380.015	17.552	839.308	627.597
381.029	17.561	838.757	627.163
382.044	17.664	837.896	626.845
383.059	17.534	837.782	626.225
384.073	17.657	837.237	626.213
385.088	17.624	836.308	625.341
386.102	17.654	835.893	625.087
387.117	17.735	835.384	624.950
388.132	17.438	834.914	623.452
389.146	17.621	834.326	623.628
390.161	17.731	833.549	623.394
391.175	17.509	833.643	622.597
392.190	17.614	833.103	622.522
393.205	17.659	832.461	622.155
394.219	17.703	831.921	621.856
395.234	17.681	831.474	621.387
396.248	17.631	831.308	621.026
397.263	17.624	830.574	620.396
398.278	17.676	830.135	620.204
399.292	17.689	830.004	620.096
400.307	17.726	829.522	619.818
401.321	17.687	828.999	619.228
402.336	17.727	828.378	618.857
403.350	17.707	828.129	618.541
404.365	17.654	827.495	617.822
405.380	17.818	826.803	617.845
406.394	17.706	826.711	617.315
407.409	17.715	826.470	617.114
408.423	17.972	825.524	617.280
409.438	17.963	825.192	616.946
410.453	18.012	824.753	616.739
411.467	18.053	823.880	616.180
412.482	17.868	824.357	615.816
413.496	18.067	823.815	616.073
414.511	18.084	823.216	615.632
415.526	18.098	822.533	615.117
416.540	18.128	821.991	614.765
417.555	18.105	821.595	614.332
418.569	18.224	821.009	614.268
419.584	18.048	820.938	613.529
420.599	18.197	820.494	613.677
421.613	115.675	1301.949	1492.304
422.628	100.364	1372.059	1492.379
