DTS Sentinel unit serial number:	SN413079Multiplexer serial number:	ORYXHardware model number:	OX4-SRSoftware version number:	ORYX F/W v4.00 Oryx Data Collector v3.7.2.0data status	okinstallation	princeton_trtdifferential loss correction	single-endedforward channel	channel 1reverse channel	N/Adate	2019/09/11time	02:00:11forward acquisition time	60.00reverse acquisition time	0.00gamma	496.2192k internal	0.2332k external	0.2332temperature offset calibration	0.9931default loss term (dB/km)	0.3790temperature slope calibration	1.0000multiplexer offset coefficient	1.0000multiplexer slope coefficient	1.0000fibre end	0.00T internal ref (°C)	29.19T ext. ref 1 (°C)	-0.29T ext. ref 2 (°C)	23.22length (m)	temperature (°C)	Stokes	anti-Stokes-747.200	-200.000	0.048	0.456
-746.185	356.377	0.118	-0.236
-745.171	-200.000	0.031	-0.314
-744.156	-20.922	-0.278	-0.171
-743.142	-74.050	-0.211	0.077
-742.127	449.958	0.092	0.203
-741.112	3.176	-0.329	0.240
-740.098	56.388	0.278	0.272
-739.083	385.572	0.106	-0.220
-738.069	-53.048	0.128	-0.059
-737.054	-200.000	-0.028	0.145
-736.039	-200.000	-0.053	0.244
-735.025	-200.000	0.067	-0.297
-734.010	800.000	-0.014	-0.052
-732.996	-45.554	0.288	-0.144
-731.981	-90.145	-0.070	0.021
-730.966	-116.680	0.130	-0.024
-729.952	-200.000	0.054	-0.260
-728.937	800.000	0.032	-0.094
-727.923	165.994	-0.020	-0.028
-726.908	273.612	0.064	-0.113
-725.894	-1.335	-0.087	0.062
-724.879	800.000	-0.049	-0.180
-723.864	-200.000	0.010	-0.183
-722.850	-167.192	-0.121	0.005
-721.835	284.073	-0.188	-0.339
-720.821	-88.421	-0.089	0.027
-719.806	-23.183	-0.097	-0.059
-718.791	-58.723	0.321	-0.140
-717.777	-66.403	0.382	-0.153
-716.762	-200.000	-0.000	-0.183
-715.748	-200.000	-0.036	-0.263
-714.733	-200.000	0.034	-0.225
-713.718	-200.000	0.027	-0.135
-712.704	-200.000	0.036	-0.371
-711.689	-72.495	0.088	-0.033
-710.675	13.720	-0.222	-0.173
-709.660	621.918	-0.079	-0.200
-708.645	-116.669	-0.278	-0.051
-707.631	-200.000	-0.058	0.298
-706.616	-158.617	0.118	-0.007
-705.602	800.000	0.080	0.263
-704.587	-46.535	0.030	-0.015
-703.572	800.000	-0.083	0.302
-702.558	-95.418	0.333	-0.090
-701.543	47.062	-0.159	0.149
-700.529	38.852	-0.275	-0.246
-699.514	-200.000	0.000	-0.084
-698.499	-0.214	0.165	0.118
-697.485	-200.000	-0.016	-0.151
-696.470	47.984	-0.206	-0.193
-695.456	-200.000	-0.023	0.459
-694.441	312.758	-0.072	-0.135
-693.426	-115.380	0.056	0.011
-692.412	-200.000	-0.048	0.268
-691.397	-183.036	0.037	0.001
-690.383	-51.093	-0.147	-0.069
-689.368	0.950	0.170	-0.122
-688.354	246.518	0.132	-0.223
-687.339	438.542	-0.094	-0.206
-686.324	229.886	0.034	-0.056
-685.310	-43.744	-0.148	-0.075
-684.295	258.551	0.114	-0.197
-683.281	-41.358	-0.167	-0.086
-682.266	28.564	0.011	0.010
-681.251	-27.986	0.346	-0.201
-680.237	3.887	-0.040	-0.029
-679.222	-200.000	0.026	-0.205
-678.208	191.519	-0.160	-0.242
-677.193	16.758	0.226	-0.179
-676.178	49.782	-0.051	-0.048
-675.164	458.619	0.088	0.196
-674.149	634.288	-0.018	-0.045
-673.135	-112.081	0.255	0.051
-672.120	-200.000	-0.026	-0.162
-671.105	800.000	-0.102	-0.327
-670.091	36.651	0.095	-0.084
-669.076	20.623	0.167	0.135
-668.062	-180.043	0.113	0.002
-667.047	-94.254	0.187	0.051
-666.032	800.000	-0.036	0.128
-665.018	-200.000	-0.073	-0.356
-664.003	-73.601	-0.401	-0.147
-662.989	-5.008	0.117	-0.081
-661.974	-62.990	-0.322	0.133
-660.959	800.000	0.027	0.078
-659.945	128.763	0.138	-0.177
-658.930	136.672	-0.169	-0.221
-657.916	-200.000	0.003	-0.046
-656.901	-141.054	-0.167	-0.017
-655.886	-23.676	0.122	-0.073
-654.872	-118.189	-0.381	0.068
-653.857	84.328	0.111	0.121
-652.843	-55.616	-0.253	-0.114
-651.828	277.734	0.081	0.144
-650.814	-45.592	0.334	0.166
-649.799	-60.483	0.170	0.073
-648.784	-84.329	0.339	0.108
-647.770	13.076	0.268	-0.208
-646.755	48.592	0.055	0.052
-645.741	122.960	0.058	-0.073
-644.726	-94.546	-0.145	-0.040
-643.711	800.000	-0.047	-0.180
-642.697	800.000	-0.032	-0.135
-641.682	-200.000	0.001	0.016
-640.668	-117.447	-0.108	0.020
-639.653	-200.000	-0.032	-0.498
-638.638	38.359	0.139	0.124
-637.624	800.000	0.005	-0.017
-636.609	680.392	0.078	-0.203
-635.595	55.753	-0.073	0.071
-634.580	-58.517	0.148	-0.064
-633.565	-151.746	-0.304	-0.022
-632.551	-66.462	0.164	0.065
-631.536	-1.438	-0.184	-0.130
-630.522	3.819	0.179	-0.131
-629.507	21.153	-0.279	0.227
-628.492	112.571	-0.212	-0.257
-627.478	-2.620	0.180	-0.126
-626.463	-9.988	0.313	-0.209
-625.449	125.982	0.027	-0.034
-624.434	-167.977	0.241	-0.009
-623.419	337.211	-0.095	0.185
-622.405	593.938	-0.029	0.072
-621.390	52.497	-0.038	0.036
-620.376	800.000	-0.142	-0.459
-619.361	12.552	0.057	-0.044
-618.346	800.000	0.087	0.251
-617.332	124.440	0.115	-0.145
-616.317	-11.357	0.145	-0.096
-615.303	800.000	0.036	0.113
-614.288	233.264	-0.094	-0.155
-613.273	729.312	0.073	0.195
-612.259	0.426	0.210	0.150
-611.244	258.608	-0.031	0.054
-610.230	-31.001	0.214	-0.121
-609.215	-140.692	-0.408	0.042
-608.201	-86.820	0.141	-0.043
-607.186	94.925	0.054	0.062
-606.171	-200.000	0.056	-0.255
-605.157	47.092	0.083	0.077
-604.142	376.701	0.129	0.263
-603.128	96.587	0.173	0.198
-602.113	-200.000	0.009	-0.228
-601.098	-168.871	-0.111	0.004
-600.084	290.033	-0.108	0.197
-599.069	17.650	0.200	0.159
-598.055	-148.796	0.175	-0.014
-597.040	183.615	0.177	0.262
-596.025	-11.686	0.314	0.206
-595.011	136.446	-0.068	0.089
-593.996	-76.746	-0.099	-0.035
-592.982	-6.216	-0.151	-0.103
-591.967	17.379	-0.156	-0.124
-590.952	-200.000	-0.016	-0.177
-589.938	-171.966	-0.423	-0.014
-588.923	-140.577	0.233	0.024
-587.909	35.348	-0.172	-0.151
-586.894	32.093	0.210	-0.181
-585.879	2.907	-0.230	0.167
-584.865	123.854	0.202	-0.254
-583.850	141.769	0.275	-0.364
-582.836	800.000	0.067	-0.271
-581.821	106.009	-0.258	-0.305
-580.806	218.451	-0.136	-0.217
-579.792	-200.000	-0.061	0.339
-578.777	-62.016	0.070	0.029
-577.763	-200.000	-0.000	-0.169
-576.748	-116.558	-0.226	0.042
-575.733	-112.071	0.287	0.058
-574.719	-49.304	-0.179	0.085
-573.704	-172.224	-0.183	-0.006
-572.690	800.000	0.018	-0.061
-571.675	-145.337	-0.223	-0.020
-570.661	184.003	-0.146	0.216
-569.646	-12.223	-0.058	-0.038
-568.631	800.000	-0.040	0.165
-567.617	800.000	0.052	0.189
-566.602	167.827	-0.143	-0.203
-565.588	42.688	-0.083	0.075
-564.573	146.741	0.145	0.194
-563.558	-88.988	0.528	-0.156
-562.544	76.903	0.053	0.056
-561.529	292.140	0.091	0.166
-560.515	688.505	-0.033	0.085
-559.500	77.531	-0.070	-0.074
-558.485	0.043	0.334	0.238
-557.471	-200.000	0.007	0.224
-556.456	336.671	-0.172	-0.333
-555.442	609.850	0.156	0.390
-554.427	-200.000	-0.031	-0.176
-553.412	42.583	-0.162	-0.147
-552.398	800.000	-0.054	-0.179
-551.383	170.994	-0.052	0.074
-550.369	439.748	0.107	0.234
-549.354	46.537	-0.180	-0.167
-548.339	-98.205	0.141	-0.036
-547.325	99.360	-0.158	-0.183
-546.310	344.565	-0.090	-0.177
-545.296	-26.340	-0.166	-0.097
-544.281	-17.087	-0.280	0.176
-543.266	21.683	0.130	-0.106
-542.252	-200.000	-0.027	-0.218
-541.237	270.400	0.069	-0.121
-540.223	-8.965	-0.302	0.202
-539.208	-35.246	-0.156	0.085
-538.193	10.191	-0.169	0.129
-537.179	-11.907	0.313	0.205
-536.164	-72.935	-0.163	-0.060
-535.150	-137.332	-0.357	0.040
-534.135	-68.815	0.166	-0.064
-533.121	-29.218	-0.159	-0.091
-532.106	-86.734	-0.434	0.133
-531.091	427.158	0.080	0.173
-530.077	49.433	0.128	-0.120
-529.062	-149.743	0.291	0.023
-528.048	44.017	0.355	-0.324
-527.033	-200.000	0.044	-0.435
-526.018	220.698	-0.148	-0.238
-525.004	94.221	-0.161	-0.183
-523.989	248.878	-0.086	-0.146
-522.975	-200.000	0.024	0.199
-521.960	-39.124	-0.049	-0.026
-520.945	800.000	-0.034	0.120
-519.931	800.000	0.105	0.293
-518.916	-55.714	-0.298	-0.133
-517.902	-158.299	-0.133	0.008
-516.887	800.000	-0.032	-0.120
-515.872	13.610	0.202	-0.156
-514.858	27.341	-0.206	-0.173
-513.843	-59.267	0.206	-0.088
-512.829	-200.000	0.039	-0.328
-511.814	-69.539	0.170	-0.065
-510.799	91.015	-0.135	0.151
-509.785	56.639	-0.335	-0.325
-508.770	62.182	-0.066	0.066
-507.756	92.289	0.292	0.328
-506.741	-46.910	-0.016	-0.008
-505.726	198.487	0.133	-0.203
-504.712	-10.282	0.136	0.090
-503.697	117.602	0.156	0.192
-502.683	-120.430	0.262	0.044
-501.668	-132.623	0.330	-0.042
-500.653	-89.899	-0.302	-0.088
-499.639	-117.955	-0.319	0.057
-498.624	29.100	0.148	0.125
-497.610	-200.000	0.023	0.342
-496.595	-200.000	0.006	0.248
-495.581	800.000	0.033	0.098
-494.566	337.019	-0.070	-0.135
-493.551	238.752	0.075	0.124
-492.537	-200.000	0.038	0.230
-491.522	800.000	0.046	0.171
-490.508	192.138	0.059	-0.088
-489.493	-37.869	0.418	-0.222
-488.478	-6.995	-0.040	-0.027
-487.464	217.108	-0.156	-0.247
-486.449	-43.353	-0.186	0.094
-485.435	-23.507	0.148	-0.088
-484.420	-110.010	0.311	-0.065
-483.405	-200.000	-0.011	0.245
-482.391	-136.635	-0.279	0.032
-481.376	40.231	0.022	0.020
-480.362	-64.558	0.168	0.068
-479.347	-63.819	-0.008	0.003
-478.332	43.624	0.106	-0.096
-477.318	-194.550	0.229	0.002
-476.303	-14.867	-0.147	-0.094
-475.289	41.207	0.175	0.158
-474.274	-28.527	0.108	-0.062
-473.259	498.970	0.173	-0.397
-472.245	800.000	-0.048	-0.134
-471.230	-12.553	0.115	-0.075
-470.216	222.145	0.096	0.154
-469.201	-72.370	0.223	-0.082
-468.186	310.721	-0.218	-0.406
-467.172	376.558	0.139	-0.282
-466.157	-200.000	0.012	-0.093
-465.143	98.094	-0.122	-0.140
-464.128	-118.236	-0.197	0.035
-463.113	-93.336	-0.161	0.045
-462.099	142.556	-0.114	0.150
-461.084	800.000	-0.049	0.192
-460.070	376.520	-0.090	-0.182
-459.055	427.067	0.089	0.192
-458.040	49.637	0.296	-0.277
-457.026	242.799	-0.125	-0.208
-456.011	474.392	-0.038	-0.086
-454.997	-200.000	-0.118	-0.000
-453.982	-59.340	-0.263	-0.113
-452.968	-200.000	0.030	-0.220
-451.953	-162.963	-0.316	-0.015
-450.938	-141.524	0.102	0.010
-449.924	-200.000	-0.013	0.084
-448.909	64.384	-0.035	-0.035
-447.895	10.275	-0.197	0.149
-446.880	318.071	0.169	-0.319
-445.865	773.724	-0.055	-0.149
-444.851	-106.838	0.328	0.072
-443.836	-20.195	-0.115	-0.071
-442.822	0.832	0.451	0.321
-441.807	502.515	-0.079	0.182
-440.792	-119.987	-0.279	0.048
-439.778	431.656	-0.091	-0.196
-438.763	-200.000	-0.017	0.191
-437.749	-32.571	0.268	-0.149
-436.734	-154.751	0.140	0.009
-435.719	800.000	0.159	-0.470
-434.705	609.164	-0.083	-0.205
-433.690	16.347	-0.126	-0.098
-432.676	251.056	0.059	0.099
-431.661	149.340	0.131	0.176
-430.646	-65.404	-0.061	0.025
-429.632	80.587	0.066	0.070
-428.617	792.383	-0.205	0.559
-427.603	-85.385	-0.398	-0.123
-426.588	-186.346	0.143	-0.002
-425.573	191.647	0.317	0.475
-424.559	-200.000	0.040	0.218
-423.544	-30.833	-0.248	0.139
-422.530	48.508	-0.116	0.108
-421.515	292.048	-0.146	0.264
-420.500	-200.000	0.072	0.455
-419.486	-90.138	0.133	0.039
-418.471	63.755	-0.313	-0.312
-417.457	-57.022	0.157	0.069
-416.442	-109.771	-0.247	-0.051
-415.428	-3.654	-0.175	0.121
-414.413	-88.033	-0.127	0.038
-413.398	-200.000	-0.013	0.202
-412.384	140.484	0.170	-0.224
-411.369	180.448	-0.201	0.292
-410.355	-153.884	0.298	0.020
-409.340	402.320	-0.097	0.202
-408.325	-54.229	-0.091	0.041
-407.311	-200.000	-0.005	0.171
-406.296	-90.384	-0.284	0.082
-405.282	-150.416	0.201	-0.015
-404.267	-45.994	0.169	-0.083
-403.252	112.502	0.266	0.320
-402.238	-85.319	-0.063	0.019
-401.223	-104.193	-0.343	0.079
-400.209	-200.000	-0.041	-0.345
-399.194	-200.000	0.071	-0.478
-398.179	-74.318	-0.165	-0.059
-397.165	702.396	-0.076	-0.199
-396.150	-141.212	0.184	0.019
-395.136	-200.000	0.045	0.254
-394.121	-131.745	0.113	-0.015
-393.106	210.511	0.094	-0.146
-392.092	4.962	-0.104	0.076
-391.077	129.415	0.128	0.163
-390.063	214.306	0.116	0.182
-389.048	-100.723	0.278	-0.068
-388.033	-72.834	0.214	0.078
-387.019	800.000	-0.023	-0.069
-386.004	92.048	0.016	0.018
-384.990	-103.248	-0.275	-0.065
-383.975	-176.311	0.142	-0.004
-382.960	19.559	0.003	0.002
-381.946	-120.285	-0.489	-0.083
-380.931	-29.958	0.104	-0.059
-379.917	-57.955	-0.091	-0.039
-378.902	57.714	-0.233	-0.226
-377.888	-79.481	-0.084	0.028
-376.873	-200.000	0.007	-0.134
-375.858	363.526	-0.056	0.112
-374.844	-79.880	-0.543	0.181
-373.829	800.000	-0.120	0.397
-372.815	40.434	-0.024	0.022
-371.800	-95.039	0.203	0.055
-370.785	102.158	-0.125	0.144
-369.771	267.391	0.211	0.366
-368.756	-200.000	-0.020	-0.092
-367.742	-100.749	-0.246	-0.060
-366.727	506.519	0.126	-0.290
-365.712	-16.702	-0.424	-0.266
-364.698	-196.229	0.356	0.002
-363.683	-200.000	0.011	-0.125
-362.669	290.681	-0.050	0.091
-361.654	800.000	-0.002	0.008
-360.639	-129.530	0.019	0.003
-359.625	-200.000	-0.030	-0.197
-358.610	800.000	0.024	0.071
-357.596	88.766	-0.072	0.080
-356.581	282.819	0.108	0.193
-355.566	-106.993	0.041	-0.009
-354.552	746.239	-0.032	0.085
-353.537	-143.702	-0.368	0.035
-352.523	174.636	0.068	0.098
-351.508	239.218	0.110	0.181
-350.493	-113.339	-0.179	0.035
-349.479	-70.240	-0.256	0.096
-348.464	-200.000	-0.014	-0.180
-347.450	-75.217	0.256	0.091
-346.435	-87.505	0.133	0.040
-345.420	103.050	-0.087	0.101
-344.406	-28.940	-0.137	0.078
-343.391	-200.000	-0.037	-0.467
-342.377	-88.931	-0.137	-0.040
-341.362	-78.467	-0.110	-0.037
-340.348	-200.000	-0.003	-0.190
-339.333	-76.879	0.283	-0.098
-338.318	-125.710	0.317	0.048
-337.304	800.000	-0.069	0.256
-336.289	800.000	0.099	0.272
-335.275	155.305	0.033	0.044
-334.260	118.356	0.071	-0.087
-333.245	800.000	0.055	-0.175
-332.231	55.887	-0.117	0.112
-331.216	-107.880	0.092	-0.020
-330.202	-200.000	-0.011	0.173
-329.187	-25.202	0.120	-0.070
-328.172	-200.000	0.009	0.370
-327.158	-146.722	0.190	-0.016
-326.143	397.264	0.165	0.341
-325.129	-13.660	-0.292	0.187
-324.114	331.770	-0.013	-0.026
-323.099	-5.243	-0.137	-0.093
-322.085	-23.512	0.226	-0.134
-321.070	-200.000	0.010	0.123
-320.056	-200.000	0.001	0.022
-319.041	33.599	0.107	-0.092
-318.026	-61.380	-0.115	-0.048
-317.012	800.000	0.025	-0.071
-315.997	800.000	-0.110	0.391
-314.983	315.698	-0.074	0.138
-313.968	-141.803	-0.140	-0.014
-312.953	800.000	-0.054	-0.152
-311.939	111.374	0.030	-0.036
-310.924	-153.802	-0.248	0.017
-309.910	-200.000	0.019	0.309
-308.895	-84.866	0.240	-0.075
-307.880	256.947	0.130	0.220
-306.866	800.000	-0.059	0.194
-305.851	60.957	-0.233	0.229
-304.837	-110.374	0.288	-0.059
-303.822	800.000	0.115	-0.351
-302.807	17.659	0.326	-0.256
-301.793	215.952	-0.101	-0.159
-300.778	-200.000	-0.005	0.055
-299.764	-110.302	0.246	-0.051
-298.749	-119.825	0.093	0.016
-297.735	800.000	0.046	0.169
-296.720	74.596	0.066	0.068
-295.705	800.000	-0.071	0.225
-294.691	412.891	-0.176	0.371
-293.676	236.355	0.181	0.295
-292.662	-200.000	-0.016	0.137
-291.647	14.583	0.120	-0.093
-290.632	-31.118	-0.014	0.008
-289.618	112.190	-0.170	0.204
-288.603	-77.841	0.180	-0.061
-287.589	-52.830	0.055	0.025
-286.574	-55.378	-0.264	-0.117
-285.559	-101.807	0.383	-0.092
-284.545	-200.000	0.014	0.245
-283.530	-18.656	0.062	-0.038
-282.516	-76.371	-0.093	-0.032
-281.501	68.148	0.200	-0.202
-280.486	37.482	0.051	0.045
-279.472	-163.918	-0.104	0.005
-278.457	376.155	0.028	0.057
-277.443	-12.198	-0.084	0.054
-276.428	-160.680	-0.234	-0.012
-275.413	93.626	-0.049	0.055
-274.399	-200.000	0.073	-0.390
-273.384	-50.595	0.086	-0.040
-272.370	-48.915	0.262	0.124
-271.355	-200.000	-0.053	-0.313
-270.340	-200.000	0.004	-0.130
-269.326	669.743	-0.060	0.153
-268.311	376.527	-0.041	0.082
-267.297	-200.000	0.062	0.296
-266.282	90.741	0.106	-0.118
-265.267	-37.039	-0.132	-0.070
-264.253	80.338	-0.165	0.175
-263.238	56.223	-0.142	-0.136
-262.224	-192.592	-0.306	-0.003
-261.209	-54.798	0.290	-0.129
-260.195	800.000	0.031	-0.089
-259.180	-200.000	0.018	-0.168
-258.165	13.281	-0.116	0.088
-257.151	159.754	-0.185	-0.254
-256.136	800.000	-0.061	0.192
-255.122	-155.379	0.061	0.004
-254.107	-75.123	0.146	-0.052
-253.092	-200.000	0.062	0.350
-252.078	-59.185	-0.078	0.033
-251.063	-200.000	0.067	-0.301
-250.049	-92.620	0.268	0.074
-249.034	-167.491	-0.212	0.008
-248.019	-7.814	-0.151	-0.101
-247.005	-60.454	-0.269	0.113
-245.990	-105.755	0.373	0.083
-244.976	-200.000	0.042	-0.291
-243.961	-200.000	-0.032	-0.254
-242.946	-200.000	0.017	0.191
-241.932	193.320	-0.154	0.229
-240.917	800.000	0.125	0.366
-239.903	-200.000	0.043	0.307
-238.888	68.365	0.115	0.117
-237.873	49.116	0.157	-0.146
-236.859	147.903	-0.062	0.082
-235.844	56.270	-0.199	0.191
-234.830	710.154	-0.075	-0.195
-233.815	471.036	0.075	-0.165
-232.800	-132.083	-0.218	-0.028
-231.786	-56.269	-0.334	0.146
-230.771	-200.000	0.036	-0.436
-229.757	-13.376	0.107	-0.069
-228.742	800.000	-0.080	0.273
-227.727	-200.000	-0.019	-0.085
-226.713	-71.749	-0.558	-0.205
-225.698	243.456	0.198	-0.327
-224.684	-92.513	0.150	-0.042
-223.669	663.198	-0.078	-0.198
-222.655	-137.829	0.138	0.015
-221.640	800.000	0.059	0.205
-220.625	56.684	0.123	0.118
-219.611	31.194	0.172	0.145
-218.596	76.077	-0.269	-0.280
-217.582	-134.596	0.403	0.048
-216.567	-200.000	0.005	0.077
-215.552	49.613	-0.163	0.152
-214.538	800.000	0.069	-0.219
-213.523	198.139	-0.073	-0.111
-212.509	-90.141	-0.228	-0.065
-211.494	-66.107	-0.479	0.188
-210.479	-4.813	0.225	-0.153
-209.465	-60.254	-0.231	0.097
-208.450	-29.384	-0.118	0.066
-207.436	-200.000	0.007	0.137
-206.421	-6.614	-0.144	-0.096
-205.406	-200.000	0.017	-0.115
-204.392	-54.677	0.053	-0.024
-203.377	14.447	-0.322	-0.248
-202.363	-49.883	0.183	-0.085
-201.348	-200.000	0.013	0.278
-200.333	-89.941	-0.209	0.060
-199.319	279.183	0.094	-0.165
-198.304	-125.822	0.127	-0.019
-197.290	52.663	-0.119	0.112
-196.275	-50.869	-0.276	0.128
-195.260	191.692	-0.140	0.207
-194.246	800.000	0.031	0.116
-193.231	-200.000	0.026	-0.308
-192.217	416.032	0.038	0.079
-191.202	509.307	-0.056	0.128
-190.187	-200.000	0.000	0.189
-189.173	-80.389	-0.159	0.052
-188.158	800.000	0.081	-0.269
-187.144	87.652	0.092	0.100
-186.129	-200.000	0.036	0.263
-185.114	17.451	-0.090	-0.070
-184.100	-136.646	0.181	-0.021
-183.085	-200.000	-0.019	-0.446
-182.071	-200.000	-0.008	-0.154
-181.056	44.471	-0.131	-0.118
-180.042	239.096	0.193	0.316
-179.027	-132.071	0.062	-0.008
-178.012	-144.184	-0.479	-0.044
-176.998	116.888	-0.094	-0.114
-175.983	41.479	0.166	-0.148
-174.969	454.438	0.144	0.313
-173.954	405.495	0.086	0.178
-172.939	-200.000	0.011	-0.107
-171.925	184.455	0.037	-0.054
-170.910	397.929	-0.070	0.145
-169.896	-42.558	0.276	-0.138
-168.881	800.000	-0.055	0.217
-167.866	61.721	-0.104	0.102
-166.852	18.815	-0.172	0.136
-165.837	-83.562	0.297	0.094
-164.823	-110.429	0.280	-0.057
-163.808	-19.991	0.305	0.185
-162.793	-200.000	-0.044	-0.255
-161.779	1.615	0.355	-0.251
-160.764	460.191	-0.091	-0.200
-159.750	-103.712	-0.265	0.061
-158.735	-178.054	0.272	-0.006
-157.720	-4.665	-0.124	-0.084
-156.706	-200.000	0.026	-0.200
-155.691	-27.883	0.323	0.184
-154.677	-200.000	0.049	0.342
-153.662	-46.166	-0.077	-0.037
-152.647	-200.000	-0.006	-0.386
-151.633	-144.315	-0.098	-0.009
-150.618	252.362	-0.129	-0.217
-149.604	119.862	0.078	-0.095
-148.589	-59.850	0.282	-0.119
-147.574	-62.214	-0.231	0.095
-146.560	-28.822	-0.459	-0.259
-145.545	-200.000	0.014	-0.133
-144.531	-42.830	-0.193	-0.097
-143.516	800.000	-0.174	0.586
-142.502	-53.264	-0.114	-0.051
-141.487	304.591	-0.114	-0.208
-140.472	-200.000	-0.029	-0.400
-139.458	540.303	0.078	-0.183
-138.443	-11.486	-0.225	0.146
-137.429	-99.848	0.353	-0.087
-136.414	-200.000	-0.001	-0.061
-135.399	800.000	-0.023	-0.069
-134.385	710.392	0.164	-0.427
-133.370	-200.000	0.022	-0.277
-132.356	37.424	0.075	0.065
-131.341	14.040	-0.108	-0.083
-130.326	658.812	0.045	0.115
-129.312	328.688	0.207	-0.390
-128.297	-120.240	-0.038	-0.006
-127.283	-81.595	-0.285	0.092
-126.268	-164.894	0.423	0.019
-125.253	-2.508	-0.255	-0.175
-124.239	-124.504	0.111	0.017
-123.224	276.774	0.143	0.249
-122.210	26.085	-0.137	0.112
-121.195	-200.000	0.007	0.220
-120.180	-200.000	0.020	0.146
-119.166	56.895	0.125	0.120
-118.151	-25.719	-0.344	-0.199
-117.137	-200.000	-0.001	0.190
-116.122	-200.000	0.001	-0.168
-115.107	72.374	0.138	0.141
-114.093	-5.216	-0.287	-0.194
-113.078	514.358	-0.102	-0.233
-112.064	148.823	0.158	-0.209
-111.049	-200.000	-0.018	0.209
-110.034	-99.992	0.100	0.025
-109.020	187.064	0.063	0.092
-108.005	-122.425	-0.243	0.039
-106.991	800.000	0.094	-0.285
-105.976	71.564	0.090	0.092
-104.962	800.000	-0.090	-0.288
-103.947	-200.000	0.004	0.053
-102.932	189.384	-0.087	-0.127
-101.918	8.558	-0.209	-0.154
-100.903	-193.213	-0.284	-0.002
-99.889	800.000	0.023	0.065
-98.874	-144.546	-0.133	0.012
-97.859	103.940	-0.188	-0.217
-96.845	614.019	0.107	0.263
-95.830	-64.796	-0.092	0.036
-94.816	90.275	0.178	-0.195
-93.801	174.866	-0.026	0.037
-92.786	-63.902	-0.167	0.067
-91.772	91.592	0.024	-0.026
-90.757	-38.077	-0.141	0.074
-89.743	-200.000	-0.036	-0.173
-88.728	118.502	-0.197	0.238
-87.713	-200.000	-0.036	0.172
-86.699	-128.381	0.201	-0.028
-85.684	-63.646	-0.260	0.105
-84.670	112.038	-0.321	-0.380
-83.655	-144.353	0.235	0.021
-82.640	-200.000	0.000	-0.162
-81.626	-200.000	-0.013	-0.277
-80.611	-100.982	-0.383	0.092
-79.597	97.374	-0.035	-0.039
-78.582	-81.758	0.311	-0.100
-77.567	-191.206	-0.101	-0.001
-76.553	-93.974	-0.172	-0.046
-75.538	21.679	-0.276	0.220
-74.524	800.000	0.016	0.062
-73.509	17.585	0.187	-0.145
-72.494	498.316	0.096	-0.216
-71.480	566.382	0.144	-0.342
-70.465	-111.105	-0.008	0.002
-69.451	262.299	0.102	-0.173
-68.436	-34.943	-0.137	0.073
-67.422	-75.961	0.349	-0.121
-66.407	-53.932	0.346	-0.154
-65.392	171.030	-0.215	0.302
-64.378	-34.859	0.261	0.139
-63.363	-200.000	-0.015	-0.145
-62.349	744.531	-0.110	-0.289
-61.334	26.975	-0.920	-0.756
-60.319	146.377	0.590	0.776
-59.305	-200.000	-0.235	-1.059
-58.290	189.794	0.695	1.021
-57.276	615.103	0.580	1.423
-56.261	-200.000	106.342	625.747
-55.246	522.189	1514.157	3481.386
-54.232	176.051	2704.861	3845.178
-53.217	112.032	2163.469	2559.580
-52.203	41.384	1600.108	1417.367
-51.188	32.738	1337.557	1133.080
-50.173	29.617	1296.307	1079.886
-49.159	54.016	1351.674	1272.349
-48.144	54.167	1366.415	1287.076
-47.130	32.692	1320.641	1118.298
-46.115	29.423	1302.850	1084.022
-45.100	29.165	1298.122	1078.535
-44.086	28.975	1295.990	1075.608
-43.071	29.071	1293.262	1073.864
-42.057	29.027	1291.058	1071.732
-41.042	29.078	1289.077	1070.343
-40.027	29.188	1287.555	1069.678
-39.013	29.059	1285.935	1067.543
-37.998	29.020	1284.261	1065.880
-36.984	29.117	1282.235	1064.719
-35.969	29.124	1280.206	1063.034
-34.954	29.064	1279.063	1061.693
-33.940	29.263	1277.194	1061.250
-32.925	29.179	1276.240	1059.929
-31.911	29.225	1274.851	1059.000
-30.896	29.285	1273.328	1058.036
-29.881	29.309	1271.918	1056.960
-28.867	29.262	1270.424	1055.409
-27.852	29.392	1268.779	1054.742
-26.838	29.252	1267.745	1053.040
-25.823	29.300	1266.241	1052.021
-24.809	29.279	1264.697	1050.578
-23.794	29.323	1263.510	1049.800
-22.779	29.259	1262.152	1048.267
-21.765	29.347	1260.629	1047.462
-20.750	29.350	1259.716	1046.679
-19.736	29.139	1258.743	1044.630
-18.721	29.194	1257.504	1043.875
-17.706	29.232	1256.260	1043.016
-16.692	29.221	1255.357	1042.159
-15.677	29.156	1254.174	1040.771
-14.663	29.145	1253.014	1039.708
-13.648	29.082	1251.710	1038.227
-12.633	29.167	1251.042	1038.108
-11.619	29.094	1250.288	1037.035
-10.604	29.158	1249.202	1036.449
-9.590	29.199	1248.724	1036.244
-8.575	29.123	1247.265	1034.563
-7.560	29.158	1246.563	1034.138
-6.546	29.128	1245.781	1033.278
-5.531	28.997	1245.631	1032.378
-4.517	29.111	1244.207	1031.798
-3.502	29.182	1243.531	1031.592
-2.487	29.215	1241.924	1030.405
-1.473	29.136	1238.283	1026.902
-0.458	27.777	1223.396	1007.023
0.556	22.071	1206.601	970.195
1.571	18.712	1212.125	955.883
2.586	17.938	1226.598	962.847
3.600	17.792	1215.698	953.388
4.615	13.008	1144.840	872.503
5.629	4.134	1070.711	771.887
6.644	0.125	1050.562	737.674
7.659	-0.354	1048.380	733.734
8.673	-0.400	1047.315	732.698
9.688	-0.540	1046.062	731.075
10.702	-0.059	1044.063	731.952
11.717	5.579	1052.419	765.370
12.731	14.840	1064.851	819.962
13.746	19.321	1070.920	846.622
14.761	20.324	1071.977	852.311
15.775	20.311	1071.557	851.839
16.790	20.108	1070.752	850.125
17.804	20.214	1069.603	849.660
18.819	20.293	1069.317	849.744
19.834	20.307	1069.023	849.501
20.848	20.274	1068.825	849.108
21.863	20.287	1067.971	848.419
22.877	20.234	1067.367	847.605
23.892	20.162	1066.633	846.597
24.907	20.270	1066.206	846.709
25.921	20.159	1065.072	845.190
26.936	20.158	1063.445	843.820
27.950	20.131	1061.889	842.379
28.965	19.979	1060.302	840.311
29.980	20.025	1058.096	838.711
30.994	20.258	1057.249	839.093
32.009	20.319	1056.282	838.545
33.023	19.970	1054.822	835.625
34.038	20.251	1054.381	836.557
35.053	20.226	1053.962	836.031
36.067	20.372	1052.805	835.744
37.082	20.272	1052.193	834.703
38.096	20.544	1051.059	835.035
39.111	20.608	1049.907	834.354
40.126	20.222	1049.176	831.848
41.140	19.976	1047.506	829.274
42.155	19.847	1045.727	827.172
43.169	19.987	1044.804	827.040
44.184	20.010	1043.751	826.244
45.199	19.943	1042.561	824.906
46.213	19.932	1041.413	823.872
47.228	20.052	1040.905	823.970
48.242	20.112	1039.653	823.190
49.257	20.130	1039.235	822.871
50.271	20.201	1038.327	822.416
51.286	20.338	1037.473	822.318
52.301	20.311	1036.650	821.465
53.315	20.276	1035.428	820.260
54.330	20.258	1034.497	819.362
55.344	20.239	1033.687	818.561
56.359	20.178	1032.769	817.473
57.374	20.053	1032.112	816.291
58.388	20.012	1031.402	815.463
59.403	19.945	1030.449	814.326
60.417	19.867	1029.557	813.180
61.432	19.986	1029.000	813.229
62.447	20.157	1027.952	813.131
63.461	20.189	1027.271	812.669
64.476	20.081	1026.291	811.317
65.490	19.968	1025.408	810.018
66.505	20.185	1024.366	810.136
67.520	20.193	1024.118	809.906
68.534	19.949	1022.665	807.547
69.549	19.647	1021.802	805.388
70.563	19.679	1020.980	804.817
71.578	19.542	1020.261	803.543
72.593	19.445	1019.191	802.176
73.607	19.676	1019.107	803.115
74.622	19.975	1018.066	803.609
75.636	19.824	1018.203	802.946
76.651	19.779	1016.816	801.572
77.666	19.689	1016.051	800.483
78.680	19.794	1015.005	800.072
79.695	19.778	1014.908	799.852
80.709	19.879	1013.848	799.412
81.724	19.797	1013.309	798.537
82.739	19.888	1012.589	798.320
83.753	20.251	1011.777	799.283
84.768	20.473	1010.807	799.464
85.782	20.498	1009.910	798.798
86.797	20.375	1008.812	797.296
87.812	20.421	1007.725	796.577
88.826	20.403	1006.848	795.731
89.841	20.524	1005.855	795.432
90.855	20.486	1005.222	794.687
91.870	20.383	1004.139	793.290
92.884	20.368	1002.606	791.940
93.899	20.162	1002.539	790.875
94.914	20.530	1000.923	791.206
95.928	20.256	1000.566	789.610
96.943	20.033	999.097	787.367
97.957	19.914	997.387	785.407
98.972	19.711	996.447	783.677
99.987	19.879	996.670	784.544
101.001	20.161	995.538	784.864
102.016	20.149	994.751	784.118
103.030	20.108	993.306	782.725
104.045	20.020	992.070	781.282
105.060	19.787	991.436	779.667
106.074	19.997	990.662	779.933
107.089	20.427	989.838	781.149
108.103	20.271	989.056	779.764
109.118	20.115	987.710	777.933
110.133	20.145	986.722	777.219
111.147	19.856	986.000	775.288
112.162	19.843	984.415	773.916
113.176	20.012	983.674	774.018
114.191	19.852	982.748	772.507
115.206	19.466	981.974	770.109
116.220	19.600	980.906	769.802
117.235	19.799	980.080	769.971
118.249	19.772	978.914	768.868
119.264	19.531	978.667	767.534
120.279	19.607	977.959	767.246
121.293	19.788	976.500	766.835
122.308	19.928	975.489	766.594
123.322	19.871	974.518	765.512
124.337	19.675	973.639	763.890
125.352	19.156	971.435	759.802
126.366	19.145	970.533	758.982
127.381	19.883	970.672	762.273
128.395	20.332	969.786	763.484
129.410	20.243	969.575	762.860
130.424	20.214	968.109	761.514
131.439	20.234	967.262	760.868
132.454	20.123	966.130	759.422
133.468	20.062	965.372	758.493
134.483	20.264	964.461	758.594
135.497	20.525	963.624	759.007
136.512	20.488	962.559	757.942
137.527	20.498	962.268	757.689
138.541	20.500	961.181	756.772
139.556	20.401	960.589	755.809
140.570	20.544	959.404	755.432
141.585	20.496	958.638	754.552
142.600	20.489	957.315	753.417
143.614	20.663	956.905	753.782
144.629	20.614	956.234	752.973
145.643	20.539	954.704	751.378
146.658	20.487	953.502	750.141
147.673	20.419	952.444	748.949
148.687	20.327	951.389	747.658
149.702	20.253	950.644	746.686
150.716	20.121	949.973	745.526
151.731	20.305	949.203	745.644
152.746	20.565	948.873	746.435
153.760	20.643	948.075	746.076
154.775	20.592	947.493	745.336
155.789	20.591	946.296	744.324
156.804	20.682	944.950	743.589
157.819	20.619	944.199	742.660
158.833	20.776	943.331	742.583
159.848	20.839	942.400	742.053
160.862	20.567	941.079	739.790
161.877	20.570	940.560	739.330
162.892	20.702	939.836	739.256
163.906	20.701	938.202	737.902
164.921	20.640	937.893	737.332
165.935	20.480	937.517	736.294
166.950	20.723	935.858	735.952
167.964	20.615	934.838	734.631
168.979	20.338	934.032	732.762
169.994	20.390	932.824	731.970
171.008	20.659	932.893	733.093
172.023	20.579	932.369	732.281
173.037	20.437	930.344	730.028
174.052	20.169	929.767	728.387
175.067	20.391	929.246	728.846
176.081	20.490	928.676	728.748
177.096	20.405	927.815	727.652
178.110	20.121	926.879	725.664
179.125	19.925	925.969	724.068
180.140	20.072	925.978	724.624
181.154	20.206	925.457	724.715
182.169	20.474	925.257	725.611
183.183	20.587	924.971	725.794
184.198	20.557	923.759	724.657
185.213	20.577	922.977	724.063
186.227	20.555	922.201	723.296
187.242	20.548	921.636	722.761
188.256	20.541	920.972	722.149
189.271	20.571	920.545	721.871
190.286	20.472	918.975	720.166
191.300	19.917	917.958	717.010
192.315	19.238	916.599	713.075
193.329	19.135	915.893	712.037
194.344	20.017	916.430	716.040
195.359	20.489	916.349	717.862
196.373	20.682	915.360	717.821
197.388	20.400	914.976	716.293
198.402	20.550	913.977	716.063
199.417	20.443	913.392	715.103
200.432	20.111	912.332	712.844
201.446	20.027	911.903	712.101
202.461	20.052	911.192	711.586
203.475	19.190	909.303	706.513
204.490	18.563	907.794	702.708
205.504	19.492	908.282	706.832
206.519	20.191	908.021	709.424
207.534	20.272	907.759	709.491
208.548	20.568	907.710	710.598
209.563	20.303	906.524	708.526
210.577	20.418	905.738	708.319
211.592	20.565	905.667	708.799
212.607	20.652	904.533	708.201
213.621	20.647	904.166	707.834
214.636	20.721	903.310	707.403
215.650	20.506	902.741	706.018
216.665	20.758	901.541	706.041
217.680	20.743	900.726	705.278
218.694	20.333	899.472	702.574
219.709	20.131	899.157	701.451
220.723	20.366	898.919	702.153
221.738	20.427	898.286	701.842
222.753	20.419	897.627	701.233
223.767	20.601	896.754	701.225
224.782	20.770	896.854	701.921
225.796	20.691	895.981	700.859
226.811	19.944	894.774	696.847
227.826	19.470	893.452	693.848
228.840	19.727	893.226	694.645
229.855	19.752	892.522	694.135
230.869	19.348	891.361	691.553
231.884	19.723	891.178	692.853
232.899	20.606	891.313	696.435
233.913	20.446	890.512	695.104
234.928	20.443	890.509	695.032
235.942	20.438	889.162	693.899
236.957	20.051	888.452	691.739
237.972	20.096	887.774	691.326
238.986	20.235	887.327	691.472
240.001	20.244	886.842	691.068
241.015	20.416	885.876	690.941
242.030	20.285	885.957	690.420
243.045	20.594	884.999	690.841
244.059	20.637	884.127	690.271
245.074	20.473	883.470	689.044
246.088	20.204	882.580	687.225
247.103	20.451	882.341	687.956
248.117	20.902	882.054	689.455
249.132	21.161	881.745	690.177
250.147	21.120	881.129	689.471
251.161	21.182	881.034	689.582
252.176	21.217	879.827	688.715
253.190	21.227	879.730	688.618
254.205	21.414	878.974	688.701
255.220	21.374	878.366	688.006
256.234	21.266	877.424	686.781
257.249	21.127	877.117	685.934
258.263	21.184	876.200	685.383
259.278	21.313	875.353	685.162
260.293	21.570	874.444	685.397
261.307	21.291	873.764	683.712
262.322	21.085	872.955	682.215
263.336	20.176	870.886	676.988
264.351	19.273	868.960	671.914
265.366	19.592	868.592	672.811
266.380	20.482	869.533	676.950
267.395	20.957	868.850	678.207
268.409	20.875	868.709	677.720
269.424	21.145	867.963	678.124
270.439	21.214	867.087	677.649
271.453	21.299	866.738	677.646
272.468	21.417	866.419	677.793
273.482	21.499	865.755	677.533
274.497	20.951	864.517	674.382
275.512	20.744	863.370	672.629
276.526	21.059	863.808	674.128
277.541	21.174	863.399	674.194
278.555	20.963	862.374	672.518
279.570	20.793	861.691	671.272
280.585	20.899	860.805	670.932
281.599	21.082	859.803	670.796
282.614	20.468	858.875	667.655
283.628	20.404	858.494	667.050
284.643	20.688	858.198	667.852
285.657	20.398	856.959	665.716
286.672	20.250	855.956	664.315
287.687	20.715	856.037	666.098
288.701	20.645	855.608	665.436
289.716	20.390	854.683	663.684
290.730	20.449	853.854	663.207
291.745	20.111	853.058	661.240
292.760	20.443	853.126	662.501
293.774	21.410	853.177	666.168
294.789	21.707	852.665	666.841
295.803	21.936	851.988	667.121
296.818	21.708	851.494	665.812
297.833	21.384	850.128	663.454
298.847	21.169	849.751	662.287
299.862	21.522	849.775	663.584
300.876	21.824	849.121	664.160
301.891	21.672	848.546	663.076
302.906	21.174	847.357	660.206
303.920	21.292	847.287	660.537
304.935	21.595	847.104	661.480
305.949	21.517	846.512	660.668
306.964	21.348	845.327	659.045
307.979	21.525	845.011	659.410
308.993	21.861	844.800	660.450
310.008	21.756	843.990	659.365
311.022	21.588	843.406	658.219
312.037	21.520	842.792	657.425
313.052	21.282	841.725	655.640
314.066	20.373	840.269	651.043
315.081	19.994	839.897	649.278
316.095	20.994	839.752	652.851
317.110	21.379	839.889	654.342
318.125	20.701	838.274	650.492
319.139	19.615	836.847	645.276
320.154	19.550	836.523	644.723
321.168	20.468	837.234	648.645
322.183	21.129	837.016	650.882
323.197	21.354	836.440	651.215
324.212	21.456	836.399	651.508
325.227	21.577	835.642	651.311
326.241	21.430	835.008	650.211
327.256	21.276	834.387	649.098
328.270	21.261	833.635	648.401
329.285	21.092	832.786	647.056
330.300	20.985	831.825	645.856
331.314	21.054	831.890	646.104
332.329	21.567	831.455	647.609
333.343	21.645	831.076	647.545
334.358	21.588	830.614	646.916
335.373	21.619	830.493	646.877
336.387	21.836	830.507	647.633
337.402	21.849	830.246	647.422
338.416	21.877	829.931	647.223
339.431	22.083	829.289	647.422
340.446	22.151	829.300	647.624
341.460	21.865	828.406	645.815
342.475	21.800	827.852	645.089
343.489	21.849	827.595	645.012
344.504	22.224	827.645	646.373
345.519	22.104	827.253	645.569
346.533	22.392	826.772	646.191
347.548	22.510	826.191	646.114
348.562	22.318	825.084	644.489
349.577	22.322	825.066	644.431
350.592	22.385	824.086	643.838
351.606	22.260	823.087	642.544
352.621	22.038	822.878	641.513
353.635	22.020	821.885	640.618
354.650	21.575	820.021	637.488
355.665	20.498	818.968	632.696
356.679	21.120	818.268	634.360
357.694	21.511	818.056	635.561
358.708	21.405	817.914	635.009
359.723	21.835	817.568	636.244
360.738	22.076	817.281	636.838
361.752	22.172	816.802	636.754
362.767	22.336	816.644	637.171
363.781	22.637	816.524	638.110
364.796	22.676	815.728	637.570
365.810	22.729	815.156	637.260
366.825	22.535	815.067	636.434
367.840	22.373	814.018	634.974
368.854	21.978	813.352	632.973
369.869	22.027	813.037	632.849
370.883	22.148	812.315	632.667
371.898	21.942	811.846	631.506
372.913	21.908	811.876	631.348
373.927	22.379	811.087	632.372
374.942	22.387	810.753	632.086
375.956	22.189	810.405	631.046
376.971	22.513	809.802	631.684
377.986	22.628	809.672	631.940
379.000	22.750	808.887	631.706
380.015	22.531	808.254	630.372
381.029	22.647	807.699	630.299
382.044	22.596	807.360	629.798
383.059	22.660	806.713	629.464
384.073	22.710	806.540	629.452
385.088	22.638	805.995	628.716
386.102	22.542	805.087	627.610
387.117	22.387	804.448	626.504
388.132	22.147	803.556	624.901
389.146	21.685	802.426	622.327
390.161	21.990	802.297	623.251
391.175	22.384	802.324	624.618
392.190	22.121	801.284	622.822
393.205	20.762	799.090	616.254
394.219	19.391	797.557	610.170
395.234	19.537	797.347	610.471
396.248	21.105	798.509	616.856
397.263	22.491	799.174	622.212
398.278	22.366	798.877	621.485
399.292	22.221	797.891	620.151
400.307	22.110	797.840	619.668
401.321	22.108	797.826	619.594
402.336	22.614	797.287	620.902
403.350	22.885	797.340	621.843
404.365	23.075	797.237	622.375
405.380	23.416	796.449	622.903
406.394	23.356	796.354	622.565
407.409	23.169	795.861	621.468
408.423	23.258	794.949	621.013
409.438	23.215	794.954	620.812
410.453	23.341	794.541	620.874
411.467	23.197	794.083	619.956
412.482	23.282	793.547	619.780
413.496	23.290	793.265	619.533
414.511	23.221	792.980	619.017
415.526	23.327	792.356	618.845
416.540	23.103	791.761	617.542
417.555	23.047	791.052	616.738
418.569	22.981	790.829	616.280
419.584	22.928	790.099	615.474
420.599	22.759	789.569	614.419
421.613	158.493	1364.380	1798.812
422.628	137.272	1448.128	1798.885
