DTS Sentinel unit serial number:	SN413079Multiplexer serial number:	ORYXHardware model number:	OX4-SRSoftware version number:	ORYX F/W v4.00 Oryx Data Collector v3.7.2.0data status	okinstallation	princeton_trtdifferential loss correction	single-endedforward channel	channel 1reverse channel	N/Adate	2019/09/18time	15:54:35forward acquisition time	60.00reverse acquisition time	0.00gamma	496.2192k internal	0.2294k external	0.2294temperature offset calibration	0.9993default loss term (dB/km)	0.3790temperature slope calibration	1.0000multiplexer offset coefficient	1.0000multiplexer slope coefficient	1.0000fibre end	0.00T internal ref (°C)	36.92T ext. ref 1 (°C)	0.79T ext. ref 2 (°C)	36.03length (m)	temperature (°C)	Stokes	anti-Stokes-747.200	-152.999	0.420	0.030
-746.185	154.050	0.115	0.162
-745.171	423.715	0.090	-0.199
-744.156	800.000	0.034	0.114
-743.142	433.645	0.100	-0.221
-742.127	411.765	-0.053	0.116
-741.112	-200.000	-0.002	-0.293
-740.098	641.964	-0.093	0.241
-739.083	-51.109	0.073	-0.035
-738.069	320.866	-0.085	0.165
-737.054	800.000	-0.032	-0.109
-736.039	-200.000	-0.002	-0.119
-735.025	62.361	0.260	0.266
-734.010	-200.000	0.050	0.235
-732.996	163.418	-0.194	-0.279
-731.981	-91.329	0.232	0.068
-730.966	-158.686	-0.205	0.012
-729.952	88.202	0.061	-0.070
-728.937	-115.347	-0.169	0.033
-727.923	800.000	0.121	-0.528
-726.908	-107.488	-0.109	-0.024
-725.894	-200.000	0.017	0.079
-724.879	645.594	-0.116	0.302
-723.864	-81.980	0.145	0.049
-722.850	7.790	-0.153	-0.117
-721.835	-87.692	-0.086	-0.027
-720.821	166.965	0.042	0.061
-719.806	800.000	0.040	0.167
-718.791	432.344	0.158	0.349
-717.777	234.061	0.122	0.205
-716.762	94.797	-0.092	0.107
-715.748	-200.000	-0.047	-0.297
-714.733	-2.031	-0.338	-0.242
-713.718	-33.383	-0.457	-0.258
-712.704	-129.019	-0.309	-0.044
-711.689	-200.000	-0.019	0.419
-710.675	-126.365	-0.224	0.034
-709.660	-200.000	0.015	-0.103
-708.645	800.000	-0.045	-0.152
-707.631	126.963	-0.061	-0.079
-706.616	-140.027	0.229	0.025
-705.602	165.421	0.031	0.044
-704.587	-200.000	-0.014	-0.324
-703.572	-200.000	0.001	0.249
-702.558	1.250	-0.051	-0.037
-701.543	-200.000	0.011	0.153
-700.529	-150.220	-0.019	-0.002
-699.514	212.760	0.054	0.087
-698.499	86.554	-0.112	0.126
-697.485	-21.957	0.157	-0.098
-696.470	-85.100	-0.060	-0.019
-695.456	-74.718	0.388	-0.142
-694.441	49.170	0.225	0.216
-693.426	37.147	-0.243	-0.219
-692.412	240.341	-0.203	-0.345
-691.397	-167.529	-0.359	0.015
-690.383	-156.929	-0.111	0.007
-689.368	-87.733	-0.269	0.083
-688.354	47.087	0.102	0.097
-687.339	-200.000	-0.001	-0.139
-686.324	-200.000	0.018	0.227
-685.310	240.774	-0.091	-0.154
-684.295	111.187	0.177	-0.218
-683.281	-166.451	0.158	-0.007
-682.266	800.000	-0.109	-0.417
-681.251	36.515	-0.151	-0.136
-680.237	-200.000	-0.015	-0.145
-679.222	-53.156	0.214	-0.100
-678.208	11.532	-0.147	-0.115
-677.193	767.675	-0.056	-0.157
-676.178	-62.035	0.193	-0.082
-675.164	-121.729	-0.184	-0.031
-674.149	457.582	0.154	0.350
-673.135	-173.259	-0.303	-0.009
-672.120	-111.465	-0.320	0.066
-671.105	-144.876	0.340	-0.032
-670.091	38.344	-0.311	-0.282
-669.076	800.000	-0.025	0.093
-668.062	-169.107	-0.140	0.005
-667.047	176.054	0.039	0.058
-666.032	-154.579	0.182	-0.012
-665.018	-200.000	0.028	-0.414
-664.003	-67.125	0.215	-0.086
-662.989	333.363	-0.110	-0.217
-661.974	140.039	0.102	-0.137
-660.959	-4.545	0.152	-0.107
-659.945	207.713	-0.077	-0.123
-658.930	-149.041	-0.255	-0.021
-657.916	188.627	0.037	-0.056
-656.901	163.401	-0.071	-0.102
-655.886	-79.922	0.195	0.067
-654.872	-177.734	-0.304	-0.007
-653.857	-200.000	-0.022	-0.265
-652.843	151.178	0.177	-0.245
-651.828	800.000	-0.052	-0.201
-650.814	124.396	0.152	-0.195
-649.799	633.088	-0.077	-0.198
-648.784	800.000	-0.031	0.116
-647.770	-71.883	-0.344	-0.131
-646.755	-200.000	0.002	-0.053
-645.741	-33.511	0.205	-0.116
-644.726	800.000	-0.038	0.169
-643.711	-55.491	0.137	-0.063
-642.697	-200.000	0.101	0.507
-641.682	-149.500	0.104	-0.008
-640.668	800.000	-0.050	-0.144
-639.653	396.970	0.187	-0.397
-638.638	-119.115	-0.211	-0.037
-637.624	258.057	0.078	-0.136
-636.609	103.306	-0.109	0.130
-635.595	97.077	0.084	-0.099
-634.580	-31.068	0.215	0.123
-633.565	239.126	0.159	0.269
-632.551	82.107	-0.090	0.099
-631.536	-91.602	-0.434	0.126
-630.522	264.944	0.018	-0.032
-629.507	110.951	0.156	-0.191
-628.492	233.900	-0.015	-0.024
-627.478	83.441	0.188	-0.209
-626.463	-200.000	-0.002	0.054
-625.449	134.818	-0.211	0.279
-624.434	2.031	-0.171	0.125
-623.419	-138.017	0.147	-0.017
-622.405	-9.848	0.233	0.158
-621.390	401.618	0.064	-0.136
-620.376	115.387	-0.108	-0.135
-619.361	169.100	-0.164	-0.238
-618.346	-139.217	-0.186	-0.020
-617.332	-64.122	0.042	-0.018
-616.317	155.920	-0.067	-0.094
-615.303	-137.810	0.105	-0.012
-614.288	-200.000	0.101	-0.524
-613.273	428.723	-0.041	-0.090
-612.259	235.348	0.191	-0.321
-611.244	-89.775	-0.182	-0.054
-610.230	-149.524	0.237	0.019
-609.215	-200.000	0.007	0.071
-608.201	274.974	0.206	-0.372
-607.186	106.664	0.319	-0.385
-606.171	390.528	-0.079	-0.166
-605.157	-200.000	-0.002	-0.072
-604.142	95.934	-0.126	-0.147
-603.128	80.700	-0.154	-0.169
-602.113	246.027	0.189	-0.324
-601.098	800.000	0.028	-0.110
-600.084	-65.407	0.299	-0.122
-599.069	-52.157	-0.338	-0.160
-598.055	312.595	-0.073	0.140
-597.040	-116.598	0.215	0.040
-596.025	320.081	0.041	-0.079
-595.011	-200.000	-0.031	-0.313
-593.996	-86.062	0.029	0.009
-592.982	30.610	0.163	0.142
-591.967	28.803	0.036	0.031
-590.952	-200.000	-0.007	0.066
-589.938	3.965	0.205	0.153
-588.923	-200.000	0.001	-0.351
-587.909	-116.418	-0.282	-0.053
-586.894	201.053	0.191	0.299
-585.879	486.387	0.099	-0.229
-584.865	-90.861	0.238	-0.070
-583.850	-200.000	-0.023	0.158
-582.836	800.000	-0.026	0.098
-581.821	595.868	-0.042	0.106
-580.806	800.000	-0.153	0.453
-579.792	125.769	0.010	0.013
-578.777	547.449	0.098	0.238
-577.763	84.159	0.031	0.034
-576.748	-126.624	0.385	-0.058
-575.733	-130.814	-0.322	-0.044
-574.719	213.966	0.097	-0.156
-573.704	-46.414	0.064	-0.032
-572.690	44.706	-0.160	-0.150
-571.675	-81.823	0.118	-0.039
-570.661	36.836	-0.205	-0.184
-569.646	800.000	0.085	-0.324
-568.631	-118.195	-0.206	-0.037
-567.617	-90.651	0.254	0.075
-566.602	22.414	-0.257	-0.213
-565.588	-173.777	-0.056	-0.002
-564.573	-16.839	-0.332	0.213
-563.558	120.561	-0.079	-0.099
-562.544	-34.111	0.093	-0.052
-561.529	-95.512	0.151	-0.041
-560.515	-70.251	-0.405	-0.156
-559.500	43.245	0.255	-0.236
-558.485	277.848	-0.141	0.255
-557.471	322.073	0.095	0.183
-556.456	-200.000	0.030	0.298
-555.442	-7.374	0.246	-0.169
-554.427	117.719	0.147	-0.183
-553.412	17.834	-0.205	-0.166
-552.398	359.781	0.043	-0.086
-551.383	-54.440	-0.254	-0.117
-550.369	-166.185	0.208	-0.009
-549.354	-4.000	-0.223	-0.157
-548.339	-88.371	-0.174	0.053
-547.325	-5.923	0.048	0.034
-546.310	-109.753	-0.338	0.072
-545.296	-200.000	0.065	0.379
-544.281	-29.386	0.106	0.061
-543.266	-27.788	-0.318	0.187
-542.252	-200.000	-0.015	-0.228
-541.237	34.716	-0.212	0.188
-540.223	202.433	-0.156	0.244
-539.208	800.000	-0.025	0.086
-538.193	526.713	0.074	-0.176
-537.179	-200.000	0.043	0.223
-536.164	60.966	-0.152	0.153
-535.150	156.362	0.089	-0.124
-534.135	-147.135	0.146	-0.013
-533.121	-151.341	-0.193	-0.015
-532.106	800.000	0.135	0.401
-531.091	-93.617	0.098	0.027
-530.077	731.499	0.062	-0.167
-529.062	43.541	-0.216	-0.200
-528.048	239.353	0.121	-0.204
-527.033	-40.049	0.288	-0.152
-526.018	351.861	-0.086	-0.172
-525.004	32.671	-0.070	-0.061
-523.989	-81.857	-0.125	-0.041
-522.975	-200.000	0.013	0.079
-521.960	-133.736	0.238	-0.030
-520.945	39.007	0.171	0.155
-519.931	-35.817	-0.181	-0.099
-518.916	-200.000	0.052	0.288
-517.902	588.153	-0.126	0.313
-516.887	-109.103	0.057	-0.012
-515.872	-141.971	-0.332	-0.034
-514.858	-16.231	-0.105	-0.068
-513.843	-1.287	0.073	-0.052
-512.829	590.388	-0.067	-0.168
-511.814	38.444	-0.094	0.085
-510.799	-55.600	-0.362	0.164
-509.785	-200.000	-0.039	0.449
-508.770	89.787	-0.239	-0.271
-507.756	668.134	-0.019	0.049
-506.741	-68.166	0.170	0.067
-505.726	-77.095	-0.341	0.121
-504.712	28.134	-0.191	-0.163
-503.697	-178.661	-0.235	0.005
-502.683	481.013	0.184	0.424
-501.668	71.436	-0.209	0.220
-500.653	-38.976	-0.110	0.058
-499.639	115.186	0.032	0.040
-498.624	40.451	-0.342	-0.312
-497.610	133.236	-0.228	0.298
-496.595	-113.732	-0.150	0.030
-495.581	99.220	-0.148	-0.173
-494.566	63.218	0.127	0.129
-493.551	-142.580	0.164	-0.016
-492.537	-200.000	0.039	0.218
-491.522	-24.210	-0.144	-0.087
-490.508	-200.000	0.064	-0.296
-489.493	-108.847	0.373	0.081
-488.478	173.348	-0.110	-0.160
-487.464	66.426	0.119	0.122
-486.449	159.325	0.083	0.117
-485.435	-117.813	-0.113	-0.021
-484.420	-174.725	0.215	0.006
-483.405	-0.881	0.222	0.159
-482.391	-200.000	-0.014	-0.405
-481.376	150.541	-0.083	0.114
-480.362	260.195	0.052	-0.090
-479.347	268.090	0.104	0.185
-478.332	-200.000	0.013	0.276
-477.318	-200.000	0.037	0.296
-476.303	-44.712	0.247	-0.125
-475.289	152.407	-0.137	0.190
-474.274	449.493	-0.144	0.322
-473.259	-34.826	-0.177	0.098
-472.245	-7.996	0.127	0.087
-471.230	-14.737	-0.310	0.201
-470.216	-200.000	0.001	-0.097
-469.201	-54.002	0.207	0.095
-468.186	-200.000	-0.010	0.117
-467.172	-93.246	0.289	-0.081
-466.157	86.480	-0.182	-0.203
-465.143	-24.150	-0.155	0.094
-464.128	140.010	0.130	0.174
-463.113	-200.000	-0.046	-0.369
-462.099	-68.349	0.271	0.106
-461.084	455.418	0.092	-0.207
-460.070	755.605	0.125	0.342
-459.055	283.661	0.107	-0.194
-458.040	-59.322	0.173	0.075
-457.026	250.618	0.176	-0.302
-456.011	-200.000	-0.008	-0.097
-454.997	124.175	-0.077	-0.098
-453.982	-63.756	-0.230	-0.095
-452.968	-42.795	-0.124	-0.064
-451.953	54.990	0.015	-0.015
-450.938	-101.930	-0.111	-0.027
-449.924	158.326	-0.129	0.180
-448.909	800.000	-0.109	0.359
-447.895	800.000	0.128	0.394
-446.880	-51.825	-0.040	-0.019
-445.865	107.664	0.097	0.117
-444.851	-33.906	-0.285	0.158
-443.836	800.000	-0.056	0.243
-442.822	-48.547	-0.122	-0.059
-441.807	-83.069	-0.049	-0.016
-440.792	-200.000	0.042	-0.187
-439.778	-49.845	0.269	-0.129
-438.763	-111.942	0.087	0.018
-437.749	-34.306	-0.321	-0.178
-436.734	-121.432	-0.194	0.033
-435.719	-200.000	0.040	-0.335
-434.705	40.302	-0.144	0.131
-433.690	-167.663	-0.246	-0.010
-432.676	347.439	-0.124	0.246
-431.661	-29.156	0.283	0.164
-430.646	-25.162	0.222	-0.133
-429.632	345.456	0.153	0.304
-428.617	-89.826	-0.138	0.041
-427.603	800.000	0.056	0.229
-426.588	374.853	0.081	0.166
-425.573	-127.325	0.213	-0.031
-424.559	512.372	0.036	0.086
-423.544	-200.000	-0.006	-0.208
-422.530	276.059	-0.111	0.200
-421.515	-132.656	0.252	-0.033
-420.500	53.916	-0.030	-0.029
-419.486	475.683	0.061	-0.139
-418.471	68.801	-0.098	-0.101
-417.457	-148.134	0.106	0.009
-416.442	42.760	0.169	-0.155
-415.428	-109.704	-0.070	-0.015
-414.413	92.859	0.175	0.200
-413.398	188.465	-0.084	0.127
-412.384	-48.630	0.130	0.063
-411.369	1.554	0.075	0.054
-410.355	800.000	0.032	-0.110
-409.340	74.732	-0.138	0.146
-408.325	-140.605	0.093	0.010
-407.311	800.000	0.033	0.098
-406.296	195.641	0.166	0.255
-405.282	541.112	0.087	0.210
-404.267	-200.000	0.005	0.355
-403.252	-161.011	0.217	-0.012
-402.238	140.576	0.217	-0.289
-401.223	-1.343	0.201	-0.143
-400.209	-200.000	0.044	0.291
-399.194	-35.278	0.372	-0.204
-398.179	-100.074	-0.272	0.068
-397.165	-115.212	-0.072	-0.014
-396.150	-200.000	-0.051	0.255
-395.136	-89.623	0.320	-0.095
-394.121	-200.000	-0.420	0.001
-393.106	-152.082	-0.544	0.040
-392.092	48.556	-0.171	0.162
-391.077	705.475	0.107	0.284
-390.063	-170.993	0.165	-0.006
-389.048	86.980	0.093	0.104
-388.033	800.000	-0.016	-0.062
-387.019	-200.000	0.016	-0.133
-386.004	452.044	-0.021	0.047
-384.990	159.591	-0.103	0.145
-383.975	11.148	-0.060	-0.046
-382.960	-107.068	-0.277	0.062
-381.946	63.225	0.264	-0.267
-380.931	800.000	-0.047	-0.155
-379.917	388.017	-0.158	-0.329
-378.902	-2.734	0.267	-0.188
-377.888	-133.026	-0.288	0.037
-376.873	-200.000	0.000	0.167
-375.858	81.048	-0.321	-0.349
-374.844	176.349	-0.235	-0.345
-373.829	-87.494	0.281	-0.086
-372.815	-200.000	0.000	0.105
-371.800	211.651	-0.095	0.151
-370.785	800.000	0.039	0.147
-369.771	-32.326	-0.273	0.153
-368.756	-159.526	-0.123	-0.007
-367.742	-200.000	-0.034	-0.343
-366.727	-200.000	0.019	0.153
-365.712	-81.587	0.046	-0.015
-364.698	800.000	0.039	0.154
-363.683	-105.273	-0.348	-0.080
-362.669	13.839	-0.374	0.293
-361.654	17.813	0.060	0.048
-360.639	50.126	0.029	-0.027
-359.625	96.517	-0.092	0.106
-358.610	800.000	-0.126	-0.468
-357.596	-161.329	-0.384	0.020
-356.581	103.952	0.108	-0.128
-355.566	21.626	-0.047	-0.039
-354.552	-17.445	-0.358	-0.227
-353.537	-200.000	0.030	-0.280
-352.523	-24.309	-0.252	0.152
-351.508	-84.082	0.092	-0.029
-350.493	-17.206	0.327	-0.207
-349.479	515.457	0.096	0.226
-348.464	-184.054	-0.385	0.006
-347.450	-200.000	0.027	0.303
-346.435	-50.946	0.388	-0.184
-345.420	-150.540	0.352	0.027
-344.406	438.231	0.158	-0.346
-343.391	404.199	-0.080	-0.170
-342.377	-13.002	-0.079	-0.051
-341.362	-128.199	-0.530	-0.076
-340.348	-30.549	0.267	0.152
-339.333	27.256	0.265	0.224
-338.318	195.120	-0.099	0.152
-337.304	-200.000	-0.002	0.288
-336.289	-46.491	0.178	0.088
-335.275	800.000	-0.038	-0.154
-334.260	-200.000	0.001	-0.248
-333.245	-135.223	0.319	-0.039
-332.231	-165.225	-0.152	-0.007
-331.216	-179.708	0.240	-0.005
-330.202	74.065	-0.107	-0.113
-329.187	335.758	-0.157	-0.306
-328.172	-107.192	-0.154	-0.034
-327.158	800.000	0.038	-0.145
-326.143	-132.809	-0.225	-0.029
-325.129	-15.360	-0.203	0.131
-324.114	-115.351	-0.385	0.073
-323.099	174.221	-0.269	0.391
-322.085	-64.632	-0.272	-0.111
-321.070	800.000	0.025	-0.094
-320.056	238.548	0.108	0.180
-319.041	-107.346	0.228	0.050
-318.026	335.131	0.091	0.177
-317.012	-6.652	0.147	-0.101
-315.997	412.635	-0.084	-0.179
-314.983	-18.497	0.296	-0.186
-313.968	-158.063	0.358	0.021
-312.953	67.134	0.161	0.165
-311.939	71.124	-0.174	0.181
-310.924	-200.000	0.002	0.057
-309.910	-4.033	0.169	0.118
-308.895	52.171	-0.110	-0.106
-307.880	-117.536	-0.160	0.029
-306.866	-167.935	0.485	0.019
-305.851	27.418	0.046	0.039
-304.837	-102.913	0.224	-0.054
-303.822	38.650	-0.133	0.119
-302.807	-82.932	-0.179	0.058
-301.793	43.711	0.247	-0.227
-300.778	-185.305	0.314	0.005
-299.764	-200.000	0.010	-0.256
-298.749	44.628	-0.138	-0.128
-297.735	59.623	-0.078	-0.077
-296.720	-129.465	0.463	0.064
-295.705	39.321	-0.230	-0.207
-294.691	-88.822	0.311	0.093
-293.676	-68.256	0.287	-0.112
-292.662	-110.708	0.056	0.012
-291.647	-200.000	-0.051	0.245
-290.632	313.736	-0.078	0.147
-289.618	19.558	0.051	-0.042
-288.603	-62.848	0.178	0.074
-287.589	-66.462	0.221	0.088
-286.574	800.000	-0.029	0.115
-285.559	-107.369	0.331	-0.073
-284.545	-200.000	-0.040	0.277
-283.530	800.000	0.079	0.244
-282.516	-94.011	-0.172	0.047
-281.501	2.500	-0.226	0.165
-280.486	-48.938	0.272	0.131
-279.472	800.000	-0.023	-0.074
-278.457	800.000	-0.082	-0.300
-277.443	-37.232	0.103	0.055
-276.428	-200.000	0.020	0.144
-275.413	-200.000	-0.177	0.000
-274.399	-75.676	0.402	0.143
-273.384	-48.528	0.104	0.050
-272.370	-197.558	0.197	-0.001
-271.355	451.464	0.211	-0.467
-270.340	160.377	-0.095	-0.133
-269.326	112.304	0.074	0.090
-268.311	-130.609	-0.168	-0.023
-267.297	-10.928	-0.146	0.097
-266.282	-200.000	-0.026	-0.152
-265.267	-16.162	0.186	0.119
-264.253	-136.987	-0.080	-0.009
-263.238	93.929	-0.100	0.113
-262.224	800.000	0.082	0.341
-261.209	61.038	0.159	0.159
-260.195	299.176	0.133	-0.245
-259.180	-125.414	-0.211	0.032
-258.165	-54.182	0.135	-0.062
-257.151	347.795	-0.075	-0.149
-256.136	-116.024	-0.161	-0.030
-255.122	-37.261	0.228	0.122
-254.107	-37.749	0.127	0.068
-253.092	-125.782	-0.268	-0.041
-252.078	-5.348	-0.159	0.110
-251.063	461.590	-0.187	0.419
-250.049	31.109	-0.240	-0.207
-249.034	-95.643	-0.400	-0.107
-248.019	10.212	0.335	-0.256
-247.005	-101.534	0.339	-0.083
-245.990	98.409	0.250	-0.289
-244.976	800.000	0.031	0.127
-243.961	-74.366	0.121	-0.044
-242.946	-101.684	-0.384	-0.093
-241.932	-76.053	-0.199	-0.071
-240.917	-48.880	-0.250	-0.120
-239.903	161.321	0.212	0.297
-238.888	-5.805	-0.156	0.107
-237.873	110.703	-0.064	0.077
-236.859	271.190	-0.085	0.149
-235.844	-200.000	0.045	-0.198
-234.830	78.930	0.117	0.126
-233.815	-200.000	-0.050	0.242
-232.800	111.784	0.059	-0.072
-231.786	91.224	-0.317	-0.357
-230.771	-14.066	-0.321	0.207
-229.757	800.000	0.024	-0.093
-228.742	-200.000	0.014	0.159
-227.727	265.147	0.034	0.059
-226.713	-109.682	-0.274	-0.058
-225.698	-64.499	0.229	0.093
-224.684	334.083	0.086	0.166
-223.669	800.000	0.041	-0.139
-222.655	227.901	-0.107	-0.175
-221.640	136.334	-0.141	-0.185
-220.625	221.788	0.104	-0.167
-219.611	800.000	0.084	0.300
-218.596	-200.000	-0.016	0.139
-217.582	800.000	-0.040	-0.118
-216.567	800.000	-0.070	-0.241
-215.552	-200.000	-0.021	0.116
-214.538	800.000	-0.056	-0.243
-213.523	158.587	0.171	-0.237
-212.509	162.078	0.218	0.306
-211.494	698.753	0.127	-0.335
-210.479	-126.918	0.145	0.021
-209.465	34.156	0.058	-0.051
-208.450	-121.826	0.296	-0.049
-207.436	532.450	0.059	0.139
-206.421	-200.000	-0.013	-0.263
-205.406	-138.252	-0.343	0.038
-204.392	428.139	0.042	-0.091
-203.377	-56.253	0.137	0.061
-202.363	-133.607	0.124	0.016
-201.348	574.534	0.052	-0.128
-200.333	152.603	-0.048	-0.065
-199.319	527.852	-0.173	-0.408
-198.304	188.661	-0.066	0.099
-197.290	-26.584	0.294	-0.172
-196.275	-19.611	-0.050	-0.031
-195.260	800.000	-0.106	-0.353
-194.246	800.000	0.049	0.188
-193.231	251.126	-0.109	0.185
-192.217	-33.674	0.084	-0.046
-191.202	343.412	0.073	-0.143
-190.187	-200.000	0.032	0.249
-189.173	-116.149	0.084	0.016
-188.158	-107.270	0.110	-0.024
-187.144	-34.868	-0.196	0.107
-186.129	-85.441	-0.509	0.159
-185.114	525.081	0.112	0.264
-184.100	239.248	0.057	0.094
-183.085	-159.668	0.311	0.017
-182.071	-148.631	0.101	0.008
-181.056	188.023	0.074	0.111
-180.042	-9.742	0.341	-0.227
-179.027	-120.610	0.081	0.014
-178.012	-113.344	-0.176	0.035
-176.998	-11.767	0.064	0.042
-175.983	426.199	-0.124	0.267
-174.969	-200.000	0.019	0.250
-173.954	-69.220	0.060	-0.023
-172.939	5.423	0.092	0.068
-171.925	-68.009	0.109	-0.042
-170.910	-200.000	-0.019	0.313
-169.896	-153.240	0.135	-0.009
-168.881	-200.000	-0.006	-0.033
-167.866	152.969	-0.106	0.145
-166.852	130.054	-0.215	-0.275
-165.837	69.111	-0.099	-0.101
-164.823	-38.074	0.075	0.040
-163.808	-18.258	0.148	-0.093
-162.793	-57.165	0.073	0.032
-161.779	-200.000	-0.002	0.044
-160.764	-47.818	-0.219	0.106
-159.750	261.851	0.163	-0.282
-158.735	-200.000	-0.002	-0.018
-157.720	-88.328	-0.047	-0.014
-156.706	15.276	-0.177	0.139
-155.691	800.000	-0.106	-0.406
-154.677	414.976	-0.053	-0.112
-153.662	-200.000	0.044	-0.243
-152.647	14.032	0.118	0.091
-151.633	329.496	-0.147	0.282
-150.618	-41.157	-0.149	0.077
-149.604	55.243	-0.055	-0.053
-148.589	591.357	0.052	0.128
-147.574	158.696	-0.159	-0.221
-146.560	-200.000	-0.055	0.302
-145.545	530.189	-0.087	-0.206
-144.531	-18.328	-0.326	0.204
-143.516	134.887	-0.025	-0.032
-142.502	16.179	-0.195	0.153
-141.487	6.677	0.104	-0.077
-140.472	671.582	0.061	-0.157
-139.458	-92.391	0.278	0.078
-138.443	-137.126	-0.040	0.005
-137.429	268.474	-0.132	-0.231
-136.414	-173.928	-0.347	0.010
-135.399	201.685	0.101	-0.155
-134.385	-72.287	-0.174	-0.064
-133.370	114.724	-0.148	0.180
-132.356	-25.223	0.205	-0.121
-131.341	-17.201	-0.191	-0.120
-130.326	-57.768	-0.033	-0.014
-129.312	-55.389	-0.409	0.183
-128.297	800.000	0.107	0.301
-127.283	-200.000	0.045	0.267
-126.268	-39.450	0.358	-0.187
-125.253	303.377	-0.122	0.225
-124.239	-97.555	0.108	0.028
-123.224	251.091	0.102	0.172
-122.210	-95.177	-0.352	-0.095
-121.195	52.932	-0.231	-0.221
-120.180	-200.000	-0.010	0.124
-119.166	-116.186	-0.243	-0.045
-118.151	-11.690	0.157	0.103
-117.137	800.000	0.086	0.326
-116.122	-200.000	-0.003	-0.228
-115.107	89.109	0.209	-0.233
-114.093	-101.099	0.149	0.036
-113.078	16.315	-0.296	0.233
-112.064	226.171	0.059	0.096
-111.049	107.148	-0.224	0.265
-110.034	-200.000	-0.054	0.357
-109.020	-200.000	-0.040	-0.202
-108.005	33.316	0.154	0.133
-106.991	245.106	0.100	-0.168
-105.976	-200.000	-0.016	0.283
-104.962	249.981	0.108	0.183
-103.947	165.102	-0.134	-0.189
-102.932	10.457	0.100	0.076
-101.918	30.661	-0.065	-0.055
-100.903	-95.639	0.339	0.091
-99.889	800.000	0.134	0.399
-98.874	105.922	0.214	-0.253
-97.859	-21.665	-0.074	0.045
-96.845	517.449	0.095	0.221
-95.830	286.994	0.129	0.232
-94.816	-109.709	-0.456	0.096
-93.801	-200.000	0.415	-0.002
-92.786	81.642	0.041	0.044
-91.772	39.972	-0.080	0.072
-90.757	656.844	0.083	0.213
-89.743	103.169	-0.273	0.319
-88.728	598.548	0.103	-0.254
-87.713	-157.218	0.249	-0.015
-86.699	260.348	0.174	0.299
-85.684	232.283	-0.287	-0.469
-84.670	262.640	0.216	0.373
-83.655	-200.000	0.017	-0.129
-82.640	-200.000	0.019	0.105
-81.626	42.185	0.345	-0.312
-80.611	-200.000	0.029	-0.186
-79.597	41.706	-0.043	-0.039
-78.582	130.937	0.152	0.195
-77.567	800.000	0.025	0.071
-76.553	-46.236	-0.181	-0.089
-75.538	152.938	0.241	0.328
-74.524	69.195	-0.192	0.197
-73.509	-42.872	-0.105	0.053
-72.494	-122.178	-0.149	-0.024
-71.480	478.339	-0.090	-0.203
-70.465	-42.555	-0.089	-0.045
-69.451	192.002	-0.041	0.061
-68.436	-84.127	-0.188	-0.059
-67.422	336.573	-0.075	0.146
-66.407	29.731	0.202	0.172
-65.392	119.143	0.166	0.204
-64.378	275.975	-0.120	-0.213
-63.363	-98.992	-0.453	0.114
-62.349	-200.000	-0.029	0.261
-61.334	226.904	-0.592	-0.958
-60.319	255.526	0.178	0.303
-59.305	-200.000	-0.027	-1.084
-58.290	285.755	0.347	0.623
-57.276	259.003	0.852	1.462
-56.261	-200.000	86.723	489.595
-55.246	419.225	1418.044	3020.199
-54.232	140.943	2638.823	3471.895
-53.217	106.415	2251.775	2656.579
-52.203	47.319	1685.693	1562.643
-51.188	39.980	1413.140	1263.248
-50.173	36.892	1368.793	1204.391
-49.159	55.346	1411.210	1358.479
-48.144	59.580	1431.189	1404.397
-47.130	40.811	1388.565	1246.296
-46.115	37.227	1370.222	1207.543
-45.100	36.727	1365.981	1200.654
-44.086	36.790	1363.267	1198.613
-43.071	36.760	1360.727	1196.149
-42.057	36.757	1358.360	1194.004
-41.042	36.816	1356.864	1193.003
-40.027	36.879	1355.520	1192.161
-39.013	36.787	1353.665	1189.917
-37.998	36.919	1351.293	1188.596
-36.984	36.947	1349.410	1187.064
-35.969	36.946	1347.426	1185.263
-34.954	36.956	1345.976	1184.004
-33.940	37.000	1344.213	1182.672
-32.925	37.007	1343.059	1181.651
-31.911	37.109	1341.377	1180.746
-30.896	36.948	1340.182	1178.671
-29.881	36.911	1338.959	1177.325
-28.867	37.050	1336.983	1176.384
-27.852	36.953	1335.846	1174.746
-26.838	37.006	1334.130	1173.509
-25.823	37.078	1332.285	1172.280
-24.809	37.059	1331.368	1171.309
-23.794	37.099	1329.625	1169.971
-22.779	37.084	1328.222	1168.600
-21.765	37.018	1327.004	1167.085
-20.750	36.980	1325.618	1165.592
-19.736	36.924	1324.270	1164.025
-18.721	36.849	1323.026	1162.430
-17.706	36.895	1322.183	1161.925
-16.692	36.833	1320.867	1160.350
-15.677	36.878	1319.549	1159.414
-14.663	36.781	1318.685	1158.028
-13.648	36.844	1317.724	1157.515
-12.633	36.822	1316.480	1156.242
-11.619	36.840	1315.193	1155.178
-10.604	36.951	1314.150	1154.879
-9.590	36.929	1313.275	1153.927
-8.575	36.761	1312.920	1152.570
-7.560	36.822	1311.834	1151.937
-6.546	36.757	1311.327	1151.057
-5.531	36.831	1310.006	1150.295
-4.517	36.840	1308.817	1149.253
-3.502	36.865	1308.056	1148.688
-2.487	36.688	1307.320	1146.950
-1.473	37.007	1303.691	1145.607
-0.458	36.580	1290.130	1131.148
0.556	32.967	1272.268	1096.986
1.571	28.527	1276.392	1074.502
2.586	26.178	1289.542	1071.555
3.600	24.185	1276.218	1048.668
4.615	17.276	1197.684	945.747
5.629	6.532	1114.741	824.258
6.644	1.263	1091.723	780.131
7.659	0.685	1089.241	775.327
8.673	0.627	1088.289	774.282
9.688	0.598	1086.902	773.077
10.702	0.898	1085.282	773.390
11.717	6.325	1092.692	806.469
12.731	14.992	1104.851	860.097
13.746	18.159	1107.059	878.027
14.761	17.588	1105.628	873.886
15.775	16.627	1103.769	867.414
16.790	15.503	1102.033	860.220
17.804	14.792	1100.094	854.995
18.819	14.510	1098.850	852.511
19.834	14.284	1097.810	850.474
20.848	13.962	1097.090	848.197
21.863	13.632	1096.422	845.920
22.877	13.367	1095.942	844.124
23.892	13.439	1094.826	843.555
24.907	13.569	1093.945	843.461
25.921	13.454	1093.362	842.352
26.936	13.503	1092.235	841.662
27.950	13.463	1091.704	840.976
28.965	13.722	1090.027	840.919
29.980	13.686	1088.519	839.500
30.994	13.722	1087.782	839.042
32.009	13.720	1086.952	838.318
33.023	13.678	1085.858	837.188
34.038	13.766	1084.785	836.731
35.053	13.686	1084.164	835.770
36.067	13.588	1083.467	834.668
37.082	13.585	1082.304	833.685
38.096	13.675	1081.642	833.551
39.111	13.778	1080.564	833.164
40.126	13.553	1079.698	831.296
41.140	13.599	1078.508	830.534
42.155	13.573	1077.420	829.495
43.169	13.470	1076.291	828.036
44.184	13.480	1075.094	827.091
45.199	13.547	1073.957	826.476
46.213	13.599	1072.635	825.646
47.228	13.532	1071.764	824.570
48.242	13.540	1071.080	824.012
49.257	13.555	1069.892	823.098
50.271	13.571	1069.169	822.546
51.286	13.586	1068.409	821.964
52.301	13.624	1067.146	821.109
53.315	13.518	1066.017	819.641
54.330	13.566	1064.722	818.814
55.344	13.499	1064.531	818.264
56.359	13.505	1063.175	817.177
57.374	13.337	1062.591	815.829
58.388	13.490	1061.303	815.521
59.403	13.438	1060.764	814.779
60.417	13.336	1060.130	813.716
61.432	13.517	1058.556	813.324
62.447	13.460	1058.097	812.618
63.461	13.380	1057.248	811.506
64.476	13.455	1056.458	811.194
65.490	13.394	1055.421	810.026
66.505	13.434	1054.825	809.696
67.520	13.407	1054.365	809.137
68.534	13.423	1053.552	808.520
69.549	13.396	1052.736	807.688
70.563	13.510	1051.905	807.538
71.578	13.394	1051.013	806.214
72.593	13.438	1049.888	805.497
73.607	13.408	1049.534	805.006
74.622	13.404	1048.797	804.351
75.636	13.315	1048.117	803.326
76.651	13.499	1047.490	803.665
77.666	13.459	1046.678	802.779
78.680	13.410	1046.130	802.052
79.695	13.494	1045.195	801.668
80.709	13.426	1045.114	801.204
81.724	13.535	1044.309	801.046
82.739	13.562	1043.231	800.281
83.753	13.571	1042.496	799.687
84.768	13.617	1041.996	799.455
85.782	13.670	1040.820	798.736
86.797	13.605	1039.830	797.595
87.812	13.498	1039.074	796.427
88.826	13.546	1037.892	795.685
89.841	13.585	1036.791	794.958
90.855	13.523	1036.080	794.045
91.870	13.681	1035.290	794.125
92.884	13.702	1034.281	793.380
93.899	13.677	1033.606	792.675
94.914	13.611	1032.868	791.720
95.928	13.818	1031.144	791.318
96.943	13.641	1031.098	790.369
97.957	13.680	1030.045	789.675
98.972	13.564	1029.087	788.322
99.987	13.679	1028.001	787.965
101.001	13.664	1027.221	787.227
102.016	13.606	1026.424	786.270
103.030	13.684	1025.538	785.891
104.045	13.717	1024.730	785.361
105.060	13.651	1023.716	784.202
106.074	13.534	1023.183	783.172
107.089	13.510	1021.841	781.962
108.103	13.466	1020.897	780.960
109.118	13.478	1019.934	780.210
110.133	13.558	1019.147	779.916
111.147	13.623	1018.021	779.295
112.162	13.565	1017.145	778.282
113.176	13.629	1016.539	778.049
114.191	13.599	1015.849	777.310
115.206	13.553	1015.470	776.737
116.220	13.619	1014.127	775.949
117.235	13.467	1013.557	774.731
118.249	13.610	1012.418	774.465
119.264	13.579	1011.609	773.630
120.279	13.634	1010.820	773.215
121.293	13.485	1010.041	771.856
122.308	13.594	1008.676	771.254
123.322	13.450	1008.144	770.105
124.337	13.524	1007.225	769.682
125.352	13.633	1005.855	769.074
126.366	13.498	1005.394	768.025
127.381	13.636	1003.491	767.144
128.395	13.641	1002.802	766.572
129.410	13.593	1001.807	765.521
130.424	13.720	1001.055	765.464
131.439	13.717	1000.058	764.619
132.454	13.770	999.299	764.219
133.468	13.721	998.624	763.407
134.483	13.670	997.869	762.527
135.497	13.707	997.169	762.095
136.512	13.749	996.143	761.436
137.527	13.722	995.290	760.593
138.541	13.759	994.657	760.215
139.556	13.760	993.879	759.554
140.570	13.784	992.962	758.897
141.585	13.852	992.196	758.555
142.600	13.894	991.029	757.788
143.614	13.874	990.231	757.018
144.629	13.899	989.848	756.772
145.643	13.866	988.443	755.482
146.658	13.817	987.648	754.585
147.673	13.856	986.507	753.826
148.687	13.767	986.119	753.056
149.702	13.859	984.736	752.350
150.716	13.712	984.390	751.352
151.731	13.802	983.797	751.241
152.746	13.636	983.013	749.827
153.760	13.784	981.940	749.610
154.775	13.847	981.765	749.695
155.789	13.839	980.772	748.834
156.804	13.784	980.573	748.368
157.819	13.908	978.992	747.655
158.833	13.823	978.889	747.125
159.848	13.991	977.709	746.913
160.862	13.936	977.006	746.065
161.877	13.929	975.838	745.077
162.892	13.900	974.713	744.021
163.906	13.765	974.445	743.143
164.921	13.805	973.288	742.375
165.935	13.767	972.516	741.549
166.950	13.979	971.086	741.340
167.964	13.908	970.569	740.567
168.979	13.973	969.327	739.841
169.994	14.048	968.226	739.267
171.008	14.066	967.538	738.759
172.023	13.961	967.600	738.273
173.037	13.955	966.695	737.490
174.052	13.989	965.954	737.012
175.067	13.957	964.845	735.959
176.081	13.786	965.143	735.362
177.096	13.869	964.224	734.965
178.110	14.042	963.480	735.099
179.125	13.983	962.906	734.335
180.140	13.909	962.420	733.570
181.154	14.029	961.634	733.438
182.169	14.210	960.814	733.546
183.183	14.076	960.764	732.853
184.198	14.146	959.720	732.299
185.213	14.078	959.221	731.553
186.227	14.027	958.405	730.643
187.242	14.067	957.535	730.089
188.256	14.265	956.716	730.269
189.271	14.137	955.895	729.019
190.286	14.072	955.472	728.345
191.300	13.999	955.018	727.617
192.315	13.955	954.349	726.849
193.329	14.021	953.786	726.644
194.344	14.076	953.040	726.252
195.359	14.079	952.384	725.702
196.373	14.151	951.312	725.133
197.388	14.326	950.966	725.570
198.402	14.393	950.292	725.281
199.417	14.368	949.764	724.705
200.432	14.385	948.888	724.049
201.446	14.279	948.920	723.545
202.461	14.436	947.945	723.421
203.475	14.446	947.504	723.064
204.490	14.237	946.899	721.632
205.504	14.458	945.728	721.630
206.519	14.287	945.342	720.534
207.534	14.353	944.648	720.228
208.548	14.380	943.785	719.620
209.563	14.341	943.305	719.025
210.577	14.442	942.020	718.416
211.592	14.402	941.567	717.836
212.607	14.500	940.557	717.421
213.621	14.517	940.097	717.082
214.636	14.576	939.072	716.487
215.650	14.660	938.312	716.205
216.665	14.644	937.807	715.690
217.680	14.582	937.022	714.760
218.694	14.650	936.481	714.575
219.709	14.593	935.856	713.791
220.723	14.613	935.302	713.394
221.738	14.704	934.493	713.100
222.753	14.690	933.885	712.513
223.767	14.680	933.486	712.105
224.782	14.837	932.303	711.807
225.796	14.743	931.624	710.827
226.811	14.753	931.451	710.675
227.826	14.742	930.680	709.976
228.840	14.784	929.615	709.277
229.855	14.730	929.022	708.533
230.869	14.665	928.417	707.733
231.884	14.717	927.733	707.371
232.899	14.847	927.047	707.337
233.913	14.805	926.235	706.477
234.928	14.695	925.702	705.541
235.942	14.566	925.373	704.683
236.957	14.688	924.628	704.568
237.972	14.848	923.955	704.668
238.986	14.698	923.437	703.580
240.001	14.716	923.067	703.312
241.015	14.783	921.781	702.549
242.030	14.745	921.315	701.974
243.045	14.822	920.913	701.929
244.059	14.772	920.093	701.031
245.074	14.942	919.489	701.220
246.088	14.983	919.002	700.960
247.103	14.856	918.300	699.831
248.117	14.900	917.926	699.667
249.132	15.093	917.109	699.789
250.147	15.040	916.068	698.711
251.161	15.174	915.380	698.686
252.176	15.274	914.612	698.455
253.190	15.186	914.283	697.772
254.205	15.292	913.324	697.421
255.220	15.317	912.739	697.019
256.234	15.196	912.166	696.015
257.249	15.160	911.526	695.318
258.263	15.205	910.957	695.007
259.278	15.295	910.122	694.681
260.293	15.330	909.554	694.331
261.307	15.360	909.190	694.116
262.322	15.457	908.395	693.847
263.336	15.458	907.131	692.824
264.351	15.356	906.821	692.107
265.366	15.316	906.569	691.688
266.380	15.451	905.544	691.403
267.395	15.507	904.889	691.071
268.409	15.555	903.972	690.506
269.424	15.429	903.418	689.504
270.439	15.588	902.362	689.289
271.453	15.327	901.869	687.783
272.468	15.431	901.457	687.832
273.482	15.452	900.921	687.451
274.497	15.544	899.913	686.997
275.512	15.478	899.696	686.499
276.526	15.541	898.910	686.097
277.541	15.582	898.300	685.738
278.555	15.492	898.357	685.353
279.570	15.500	897.394	684.590
280.585	15.683	896.288	684.429
281.599	15.575	895.476	683.310
282.614	15.739	895.081	683.614
283.628	15.669	894.443	682.785
284.643	15.634	894.074	682.300
285.657	15.620	893.512	681.754
286.672	15.672	892.702	681.286
287.687	15.568	892.028	680.291
288.701	15.704	891.536	680.404
289.716	15.715	891.102	680.058
290.730	15.805	889.882	679.431
291.745	15.882	889.227	679.179
292.760	15.682	889.385	678.433
293.774	15.892	888.228	678.336
294.789	15.894	887.539	677.759
295.803	15.751	887.069	676.765
296.818	15.940	885.982	676.634
297.833	15.898	885.449	676.000
298.847	15.731	884.954	674.891
299.862	15.896	884.439	675.100
300.876	15.939	884.141	674.985
301.891	15.949	883.287	674.315
302.906	16.008	882.354	673.777
303.920	16.078	881.743	673.531
304.935	16.070	881.365	673.152
305.949	16.168	880.475	672.805
306.964	16.042	880.443	672.218
307.979	16.110	879.405	671.636
308.993	16.153	878.777	671.270
310.008	16.060	878.475	670.608
311.022	16.148	877.839	670.412
312.037	16.244	876.913	670.028
313.052	16.165	876.626	669.434
314.066	16.071	876.080	668.587
315.081	16.004	875.304	667.668
316.095	16.099	874.705	667.531
317.110	16.121	874.201	667.173
318.125	16.149	873.781	666.906
319.139	16.185	873.038	666.420
320.154	16.073	872.913	665.823
321.168	16.196	872.125	665.649
322.183	16.167	871.557	665.043
323.197	16.113	871.407	664.658
324.212	16.164	870.605	664.187
325.227	16.228	869.889	663.832
326.241	16.152	869.487	663.171
327.256	16.236	868.790	662.908
328.270	16.213	868.208	662.317
329.285	16.277	867.729	662.142
330.300	16.100	867.203	660.988
331.314	16.178	866.442	660.655
332.329	16.317	865.883	660.716
333.343	16.337	865.154	660.177
334.358	16.295	865.287	660.056
335.373	16.353	864.575	659.684
336.387	16.242	864.342	659.013
337.402	16.466	864.126	659.663
338.416	16.441	863.537	659.059
339.431	16.502	863.141	658.937
340.446	16.514	862.734	658.612
341.460	16.479	862.484	658.227
342.475	16.620	861.477	657.951
343.489	16.618	861.305	657.753
344.504	16.557	861.241	657.410
345.519	16.633	860.095	656.771
346.533	16.513	859.948	656.135
347.548	16.622	859.583	656.221
348.562	16.609	858.745	655.471
349.577	16.609	858.239	655.029
350.592	16.504	857.783	654.215
351.606	16.649	856.549	653.776
352.621	16.715	855.823	653.421
353.635	16.641	855.296	652.675
354.650	16.650	854.870	652.325
355.665	16.730	854.381	652.204
356.679	16.843	853.614	651.995
357.694	16.793	852.518	650.909
358.708	16.870	851.808	650.604
359.723	16.798	851.708	650.193
360.738	16.742	851.356	649.650
361.752	16.856	850.400	649.303
362.767	16.835	849.827	648.727
363.781	16.826	849.440	648.338
364.796	16.920	848.962	648.276
365.810	16.991	848.584	648.202
366.825	17.040	847.962	647.858
367.840	17.037	847.628	647.533
368.854	17.005	846.979	646.858
369.869	17.024	846.512	646.517
370.883	16.925	846.290	645.910
371.898	17.094	846.040	646.308
372.913	17.007	845.840	645.768
373.927	17.178	844.445	645.292
374.942	17.077	844.503	644.896
375.956	17.120	844.146	644.733
376.971	17.207	843.531	644.536
377.986	17.158	842.788	643.725
379.000	17.340	842.465	644.110
380.015	17.281	841.873	643.376
381.029	17.123	841.575	642.494
382.044	17.164	841.084	642.218
383.059	17.404	839.929	642.185
384.073	17.410	839.286	641.658
385.088	17.151	838.922	640.347
386.102	17.212	838.360	640.094
387.117	17.110	837.997	639.373
388.132	17.309	837.195	639.453
389.146	17.417	836.716	639.436
390.161	17.424	836.444	639.201
391.175	17.413	835.896	638.682
392.190	17.267	835.345	637.658
393.205	17.176	835.248	637.187
394.219	17.336	834.522	637.173
395.234	17.403	833.807	636.824
396.248	17.365	833.488	636.383
397.263	17.241	833.036	635.515
398.278	17.294	832.957	635.599
399.292	17.315	832.575	635.328
400.307	17.416	831.916	635.148
401.321	17.247	831.746	634.330
402.336	17.357	830.936	634.066
403.350	17.327	830.894	633.867
404.365	17.420	830.252	633.666
405.380	17.475	829.211	633.020
406.394	17.560	828.754	632.930
407.409	17.671	828.422	633.034
408.423	17.638	828.335	632.791
409.438	17.772	827.879	632.882
410.453	17.709	827.246	632.107
411.467	17.719	826.778	631.732
412.482	17.688	826.223	631.138
413.496	17.808	826.224	631.526
414.511	17.869	825.727	631.318
415.526	17.714	825.291	630.356
416.540	17.804	824.539	630.055
417.555	17.794	824.302	629.784
418.569	17.828	823.799	629.469
419.584	17.767	823.747	629.146
420.599	17.778	823.019	628.575
421.613	99.998	1280.433	1423.920
422.628	86.334	1347.077	1424.065
