DTS Sentinel unit serial number:	SN413079Multiplexer serial number:	ORYXHardware model number:	OX4-SRSoftware version number:	ORYX F/W v4.00 Oryx Data Collector v3.7.2.0data status	okinstallation	princeton_trtdifferential loss correction	single-endedforward channel	channel 1reverse channel	N/Adate	2019/09/15time	17:10:35forward acquisition time	60.00reverse acquisition time	0.00gamma	496.2192k internal	0.2291k external	0.2291temperature offset calibration	0.9935default loss term (dB/km)	0.3790temperature slope calibration	1.0000multiplexer offset coefficient	1.0000multiplexer slope coefficient	1.0000fibre end	0.00T internal ref (°C)	44.64T ext. ref 1 (°C)	5.96T ext. ref 2 (°C)	40.52length (m)	temperature (°C)	Stokes	anti-Stokes-747.200	-14.197	0.115	0.076
-746.185	195.265	0.061	0.095
-745.171	49.551	0.221	0.213
-744.156	372.278	-0.088	0.184
-743.142	800.000	0.107	-0.354
-742.127	-60.351	0.243	0.106
-741.112	-166.143	0.122	-0.005
-740.098	-200.000	0.005	0.042
-739.083	228.423	0.081	-0.135
-738.069	-68.336	-0.135	-0.054
-737.054	1.894	-0.186	-0.137
-736.039	89.245	-0.155	-0.177
-735.025	800.000	0.095	0.303
-734.010	27.291	0.199	-0.171
-732.996	-200.000	0.035	0.316
-731.981	800.000	-0.047	-0.163
-730.966	95.860	-0.072	-0.084
-729.952	33.024	-0.076	0.067
-728.937	148.233	-0.247	-0.341
-727.923	-112.998	0.198	0.040
-726.908	-31.631	0.027	-0.015
-725.894	-200.000	-0.023	-0.119
-724.879	800.000	0.071	0.279
-723.864	800.000	-0.127	-0.442
-722.850	-200.000	0.002	-0.199
-721.835	81.290	0.187	-0.207
-720.821	-61.488	0.088	0.038
-719.806	800.000	-0.114	-0.366
-718.791	6.615	0.126	-0.096
-717.777	-194.950	-0.177	-0.001
-716.762	800.000	-0.102	0.347
-715.748	483.658	0.159	0.370
-714.733	-124.378	-0.264	0.042
-713.718	426.607	0.076	0.167
-712.704	-40.430	-0.273	-0.145
-711.689	-200.000	-0.020	-0.250
-710.675	54.798	0.287	0.283
-709.660	91.033	0.221	-0.253
-708.645	-200.000	-0.042	-0.273
-707.631	397.378	-0.080	-0.171
-706.616	475.364	-0.063	-0.146
-705.602	334.711	-0.179	-0.355
-704.587	-86.341	-0.395	-0.124
-703.572	-200.000	-0.076	-0.423
-702.558	-49.910	-0.125	0.061
-701.543	345.250	-0.026	-0.053
-700.529	800.000	0.023	0.067
-699.514	-100.723	0.113	-0.029
-698.499	51.087	-0.423	0.410
-697.485	-56.287	-0.017	-0.008
-696.470	126.349	-0.117	0.152
-695.456	-200.000	-0.060	-0.429
-694.441	-103.309	0.374	-0.090
-693.426	-147.322	0.280	0.024
-692.412	800.000	-0.047	0.187
-691.397	-200.000	-0.040	-0.348
-690.383	354.378	-0.068	-0.138
-689.368	800.000	-0.023	-0.069
-688.354	-7.785	0.362	0.250
-687.339	228.723	-0.113	-0.189
-686.324	478.142	0.023	0.054
-685.310	179.289	-0.070	-0.104
-684.295	31.658	-0.181	-0.159
-683.281	-125.402	-0.239	0.037
-682.266	86.433	-0.237	0.267
-681.251	106.279	0.109	-0.131
-680.237	800.000	-0.061	0.257
-679.222	-200.000	-0.090	0.443
-678.208	-200.000	-0.029	0.163
-677.193	800.000	-0.048	0.217
-676.178	-69.196	0.227	0.089
-675.164	800.000	-0.047	-0.153
-674.149	-200.000	-0.080	-0.392
-673.135	-52.302	-0.079	-0.037
-672.120	-7.116	0.130	-0.090
-671.105	-147.175	-0.086	-0.007
-670.091	800.000	0.094	0.301
-669.076	-115.292	0.125	-0.024
-668.062	-138.540	0.233	0.026
-667.047	800.000	0.064	0.221
-666.032	-151.044	0.081	-0.006
-665.018	34.496	0.270	-0.240
-664.003	423.673	0.079	0.172
-662.989	-85.719	-0.142	-0.045
-661.974	-14.805	-0.121	0.080
-660.959	800.000	0.029	-0.100
-659.945	-161.934	0.129	-0.007
-658.930	-200.000	0.056	-0.268
-657.916	-106.460	0.073	-0.017
-656.901	-99.261	0.139	0.036
-655.886	-200.000	0.009	-0.050
-654.872	-200.000	-0.082	-0.388
-653.857	-200.000	-0.017	0.077
-652.843	-200.000	0.057	-0.265
-651.828	-22.937	-0.370	0.228
-650.814	-30.679	0.254	0.147
-649.799	-200.000	0.001	0.089
-648.784	163.591	-0.124	0.178
-647.770	800.000	0.030	-0.127
-646.755	-12.364	0.216	-0.144
-645.741	-10.117	-0.018	0.012
-644.726	68.051	0.057	-0.060
-643.711	-160.210	-0.210	0.012
-642.697	7.884	-0.202	-0.154
-641.682	-200.000	-0.031	-0.274
-640.668	9.889	-0.143	0.111
-639.653	-101.135	-0.355	-0.089
-638.638	59.078	-0.254	-0.255
-637.624	-102.233	0.268	0.066
-636.609	-143.106	0.126	-0.012
-635.595	-154.755	0.156	0.011
-634.580	-49.520	0.249	-0.121
-633.565	-200.000	0.031	0.199
-632.551	800.000	0.079	0.329
-631.536	-16.487	0.173	0.112
-630.522	171.299	-0.068	0.100
-629.507	-115.971	0.193	0.037
-628.492	-35.951	0.182	0.100
-627.478	-41.369	-0.053	0.028
-626.463	-147.864	0.027	0.002
-625.449	-48.874	0.087	0.042
-624.434	45.629	0.196	-0.185
-623.419	20.789	0.104	0.086
-622.405	13.892	0.248	0.196
-621.390	124.073	-0.206	0.264
-620.376	-200.000	-0.084	-0.426
-619.361	-27.217	0.215	0.128
-618.346	377.530	0.146	-0.304
-617.332	160.334	0.079	0.113
-616.317	141.574	-0.160	-0.217
-615.303	-29.291	0.316	-0.185
-614.288	-62.253	-0.153	0.065
-613.273	544.840	-0.057	-0.140
-612.259	235.571	0.076	0.129
-611.244	-200.000	-0.045	-0.237
-610.230	71.998	0.148	-0.157
-609.215	-200.000	-0.023	-0.235
-608.201	205.544	0.083	-0.132
-607.186	393.913	0.172	-0.365
-606.171	42.106	0.219	0.202
-605.157	-60.363	-0.331	-0.144
-604.142	-46.479	-0.339	-0.170
-603.128	218.990	-0.151	0.247
-602.113	-200.000	-0.085	0.414
-601.098	121.334	0.129	0.164
-600.084	51.358	0.166	0.160
-599.069	-161.478	-0.425	0.022
-598.055	-200.000	-0.039	-0.236
-597.040	-50.736	0.215	0.103
-596.025	254.055	0.051	-0.088
-595.011	-200.000	0.051	-0.512
-593.996	77.680	0.095	-0.103
-592.982	-141.100	-0.355	0.037
-591.967	-31.425	-0.087	-0.050
-590.952	800.000	0.086	-0.307
-589.938	330.105	0.166	-0.326
-588.923	800.000	-0.050	-0.209
-587.909	800.000	-0.045	-0.138
-586.894	49.947	-0.049	0.047
-585.879	-200.000	0.016	-0.193
-584.865	29.210	-0.128	0.110
-583.850	392.139	-0.095	-0.200
-582.836	-86.954	-0.120	-0.037
-581.821	-28.389	0.176	0.103
-580.806	32.869	0.056	-0.049
-579.792	-200.000	-0.062	-0.343
-578.777	-34.942	-0.186	0.103
-577.763	-132.525	-0.301	0.039
-576.748	101.082	-0.083	-0.098
-575.733	-200.000	0.013	0.078
-574.719	-200.000	-0.012	-0.197
-573.704	43.063	-0.121	0.113
-572.690	164.741	-0.112	0.160
-571.675	-200.000	0.010	-0.161
-570.661	-200.000	0.047	0.254
-569.646	-200.000	-0.041	0.226
-568.631	61.996	-0.149	0.151
-567.617	-25.423	-0.233	-0.140
-566.602	-153.895	0.280	0.019
-565.588	-28.041	0.327	0.192
-564.573	-147.303	-0.304	-0.026
-563.558	20.016	-0.052	-0.043
-562.544	20.864	0.173	0.143
-561.529	-112.781	-0.281	0.057
-560.515	123.978	0.140	-0.179
-559.500	-96.811	0.091	0.024
-558.485	-174.405	-0.032	0.001
-557.471	-49.284	-0.088	0.043
-556.456	800.000	-0.088	-0.273
-555.442	-66.264	-0.287	0.116
-554.427	-101.393	-0.235	-0.058
-553.412	800.000	-0.068	-0.238
-552.398	-155.339	-0.344	-0.023
-551.383	196.786	0.123	-0.190
-550.369	654.984	-0.143	0.372
-549.354	516.362	0.074	-0.176
-548.339	-120.962	-0.284	0.049
-547.325	800.000	0.058	0.217
-546.310	51.262	-0.228	-0.220
-545.296	125.298	0.090	-0.115
-544.281	274.576	0.069	-0.124
-543.266	-200.000	-0.011	-0.072
-542.252	237.852	-0.142	0.239
-541.237	46.492	0.188	0.177
-540.223	-102.374	-0.330	0.080
-539.208	-107.943	-0.403	-0.089
-538.193	-21.923	-0.117	0.072
-537.179	-58.209	-0.285	0.126
-536.164	161.480	0.155	-0.220
-535.150	-4.807	0.160	0.112
-534.135	-81.541	-0.160	-0.053
-533.121	144.671	-0.060	0.082
-532.106	157.383	0.032	0.045
-531.091	-77.517	0.358	0.126
-530.077	417.982	0.068	-0.147
-529.062	579.560	0.122	0.302
-528.048	178.325	0.292	0.432
-527.033	800.000	0.108	0.404
-526.018	-68.876	0.204	0.080
-525.004	81.210	-0.215	0.236
-523.989	30.495	0.068	-0.059
-522.975	127.499	0.124	-0.160
-521.960	488.680	-0.056	-0.131
-520.945	466.254	0.134	0.304
-519.931	-14.096	0.445	-0.292
-518.916	-88.808	0.303	0.091
-517.902	721.094	-0.048	0.131
-516.887	-124.332	-0.335	0.053
-515.872	219.908	0.234	0.380
-514.858	-170.266	-0.189	0.007
-513.843	368.124	-0.110	-0.227
-512.829	280.585	0.129	-0.234
-511.814	316.509	0.110	0.211
-510.799	800.000	0.083	-0.251
-509.785	197.723	0.054	0.084
-508.770	65.291	0.079	-0.081
-507.756	125.285	0.041	-0.053
-506.741	-200.000	-0.008	-0.146
-505.726	-73.827	0.138	-0.051
-504.712	-38.976	-0.374	0.200
-503.697	59.258	-0.024	0.024
-502.683	800.000	-0.055	-0.172
-501.668	-200.000	-0.014	0.095
-500.653	-161.659	0.216	-0.011
-499.639	-195.617	0.024	0.000
-498.624	39.350	0.296	0.268
-497.610	253.830	0.310	0.538
-496.595	-6.955	0.160	-0.110
-495.581	0.222	0.242	0.175
-494.566	46.156	-0.098	-0.092
-493.551	-78.532	-0.163	0.057
-492.537	-100.032	0.117	0.030
-491.522	-200.000	0.013	0.070
-490.508	-145.651	-0.384	-0.035
-489.493	-56.801	0.323	-0.145
-488.478	-200.000	-0.013	-0.254
-487.464	-101.127	0.072	-0.018
-486.449	-143.230	0.290	-0.028
-485.435	9.663	-0.097	-0.075
-484.420	-200.000	-0.020	0.241
-483.405	506.248	-0.180	-0.423
-482.391	-142.739	-0.342	0.034
-481.376	-83.000	0.263	-0.086
-480.362	-48.588	-0.267	-0.130
-479.347	-153.400	-0.198	-0.014
-478.332	159.291	0.107	0.151
-477.318	-62.099	0.293	-0.124
-476.303	237.513	-0.106	0.179
-475.289	-20.351	0.330	-0.205
-474.274	-200.000	0.012	-0.135
-473.259	800.000	0.060	-0.221
-472.245	-8.257	0.309	0.211
-471.230	172.742	0.103	-0.151
-470.216	104.822	-0.105	0.125
-469.201	-159.257	-0.336	-0.019
-468.186	-46.852	0.141	-0.070
-467.172	216.581	-0.216	-0.348
-466.157	25.456	-0.172	0.145
-465.143	-142.677	-0.578	0.057
-464.128	318.203	-0.106	-0.202
-463.113	-137.055	0.332	0.038
-462.099	-200.000	-0.002	0.171
-461.084	476.719	0.047	-0.109
-460.070	800.000	-0.039	-0.148
-459.055	409.295	-0.023	0.049
-458.040	289.838	-0.167	0.307
-457.026	150.024	-0.251	-0.345
-456.011	232.436	-0.078	-0.130
-454.997	-200.000	-0.057	0.342
-453.982	81.554	0.033	-0.036
-452.968	800.000	-0.060	-0.196
-451.953	-3.215	-0.285	0.201
-450.938	-44.616	0.049	0.025
-449.924	-200.000	-0.004	-0.138
-448.909	-200.000	-0.009	0.129
-447.895	-133.626	0.136	-0.017
-446.880	-200.000	0.028	0.272
-445.865	-63.580	0.241	-0.100
-444.851	-71.719	-0.394	0.149
-443.836	59.487	-0.182	0.182
-442.822	150.871	-0.133	0.182
-441.807	288.164	0.130	0.238
-440.792	-18.792	-0.071	-0.045
-439.778	-65.535	0.262	0.106
-438.763	190.163	0.184	-0.280
-437.749	25.328	0.088	-0.074
-436.734	-200.000	-0.027	0.246
-435.719	269.832	0.046	-0.081
-434.705	48.291	0.072	-0.068
-433.690	29.495	0.126	0.109
-432.676	-200.000	0.012	0.319
-431.661	19.615	-0.386	-0.314
-430.646	-100.114	-0.088	0.022
-429.632	542.200	-0.031	0.075
-428.617	-109.935	0.180	0.038
-427.603	-149.853	0.012	0.001
-426.588	77.574	-0.219	-0.236
-425.573	332.313	-0.077	-0.150
-424.559	-91.984	-0.145	-0.042
-423.544	-200.000	0.002	0.104
-422.530	-100.128	0.197	0.050
-421.515	47.312	-0.122	0.115
-420.500	162.781	0.133	0.189
-419.486	-132.490	-0.230	0.030
-418.471	-119.174	-0.181	-0.032
-417.457	800.000	0.052	-0.218
-416.442	23.939	0.045	-0.038
-415.428	-6.801	0.160	-0.110
-414.413	122.118	0.224	0.283
-413.398	-33.225	0.216	-0.121
-412.384	440.580	0.075	-0.166
-411.369	-131.692	0.204	-0.027
-410.355	399.278	-0.245	-0.519
-409.340	-200.000	0.016	0.354
-408.325	-200.000	0.005	0.365
-407.311	-200.000	-0.025	0.250
-406.296	80.627	-0.102	-0.111
-405.282	112.280	-0.269	-0.328
-404.267	-200.000	0.027	-0.178
-403.252	800.000	0.028	0.085
-402.238	7.120	0.161	-0.122
-401.223	130.470	-0.208	0.269
-400.209	73.105	0.148	-0.157
-399.194	800.000	-0.067	0.223
-398.179	22.720	-0.055	-0.045
-397.165	-47.028	0.210	0.104
-396.150	800.000	-0.079	0.337
-395.136	42.830	-0.452	-0.416
-394.121	-99.469	0.190	-0.048
-393.106	-38.442	-0.233	0.124
-392.092	-159.890	-0.225	-0.012
-391.077	800.000	0.026	-0.088
-390.063	410.653	-0.065	-0.139
-389.048	63.067	-0.309	-0.313
-388.033	19.014	-0.208	-0.168
-387.019	444.370	-0.083	-0.185
-386.004	-154.518	-0.225	0.015
-384.990	800.000	-0.060	-0.252
-383.975	130.131	0.269	0.348
-382.960	-11.510	-0.052	-0.034
-381.946	800.000	-0.021	0.068
-380.931	-200.000	0.028	0.125
-379.917	39.627	0.026	-0.024
-378.902	-108.746	0.169	0.037
-377.888	-114.024	0.071	0.014
-376.873	125.868	-0.129	0.164
-375.858	-89.223	-0.092	-0.027
-374.844	5.614	-0.315	-0.235
-373.829	-200.000	0.054	0.365
-372.815	-157.083	0.361	0.022
-371.800	-62.996	0.052	0.022
-370.785	53.748	0.230	0.223
-369.771	800.000	-0.124	0.377
-368.756	-159.904	-0.167	-0.009
-367.742	-98.456	-0.287	0.074
-366.727	-86.310	0.148	-0.046
-365.712	-200.000	-0.090	-0.399
-364.698	-200.000	-0.116	-0.593
-363.683	-197.053	-0.051	0.000
-362.669	800.000	0.093	0.298
-361.654	-9.271	-0.116	-0.078
-360.639	-114.934	-0.225	-0.043
-359.625	-52.191	-0.085	-0.040
-358.610	265.156	0.240	0.422
-357.596	439.412	-0.055	0.120
-356.581	-200.000	-0.002	0.303
-355.566	114.685	-0.126	0.155
-354.552	-200.000	0.026	0.270
-353.537	-200.000	0.030	0.221
-352.523	75.840	0.164	0.175
-351.508	412.978	-0.038	-0.082
-350.493	-46.721	0.388	-0.192
-349.479	-197.830	-0.214	-0.001
-348.464	-62.405	-0.217	-0.091
-347.450	-83.419	-0.202	0.065
-346.435	-85.759	0.231	-0.072
-345.420	183.572	0.105	0.156
-344.406	13.320	0.131	-0.102
-343.391	126.286	-0.130	0.166
-342.377	-112.257	-0.214	0.043
-341.362	800.000	0.131	0.402
-340.348	-107.733	0.212	0.047
-339.333	800.000	0.064	-0.213
-338.318	-200.000	0.006	0.228
-337.304	-90.703	-0.140	-0.041
-336.289	-138.379	-0.308	0.034
-335.275	-110.753	0.181	0.038
-334.260	-200.000	0.085	-0.479
-333.245	-200.000	-0.026	-0.139
-332.231	162.774	0.163	0.231
-331.216	-21.814	0.226	0.138
-330.202	103.154	-0.194	0.230
-329.187	276.437	0.111	0.198
-328.172	138.979	0.190	-0.252
-327.158	800.000	-0.105	-0.416
-326.143	-79.793	-0.178	-0.060
-325.129	800.000	0.055	0.163
-324.114	-200.000	-0.016	-0.310
-323.099	-122.715	0.420	-0.069
-322.085	-200.000	0.020	-0.257
-321.070	-64.794	-0.111	-0.045
-320.056	-93.063	0.262	-0.074
-319.041	-63.952	0.210	0.087
-318.026	-19.369	0.135	0.084
-317.012	-70.986	0.180	-0.068
-315.997	63.948	-0.156	0.158
-314.983	7.072	0.315	0.236
-313.968	11.987	0.101	0.078
-312.953	-200.000	0.001	0.152
-311.939	-40.467	0.257	-0.134
-310.924	127.896	0.143	0.183
-309.910	-48.830	-0.142	-0.069
-308.895	77.005	0.140	0.150
-307.880	134.561	0.131	0.171
-306.866	58.395	-0.168	0.165
-305.851	-69.176	-0.286	0.111
-304.837	-21.951	0.255	0.156
-303.822	57.667	0.055	0.054
-302.807	264.748	-0.101	-0.177
-301.793	800.000	0.147	0.414
-300.778	800.000	0.053	0.152
-299.764	-122.617	-0.224	-0.037
-298.749	-195.530	-0.125	0.001
-297.735	-84.148	0.107	-0.034
-296.720	416.421	0.099	0.212
-295.705	69.380	0.255	0.264
-294.691	154.718	-0.084	0.116
-293.676	178.696	0.133	-0.196
-292.662	-80.874	-0.358	0.119
-291.647	-147.974	0.286	-0.024
-290.632	-18.699	-0.139	-0.087
-289.618	-101.466	0.211	0.052
-288.603	62.133	-0.170	0.170
-287.589	-200.000	0.017	0.099
-286.574	800.000	-0.146	0.489
-285.559	-200.000	-0.033	0.437
-284.545	142.015	0.159	0.211
-283.530	26.260	-0.197	0.165
-282.516	-43.075	-0.249	0.127
-281.501	-178.302	-0.519	-0.012
-280.486	-22.240	-0.069	-0.042
-279.472	-160.522	-0.225	0.012
-278.457	83.142	-0.339	-0.371
-277.443	28.981	-0.038	-0.033
-276.428	-159.437	0.051	0.003
-275.413	-8.107	0.123	0.083
-274.399	-200.000	0.031	0.224
-273.384	-18.340	0.168	0.106
-272.370	33.441	-0.168	0.147
-271.355	178.484	-0.038	0.055
-270.340	49.865	0.067	0.063
-269.326	236.985	0.178	0.296
-268.311	84.126	0.106	-0.116
-267.297	-148.765	-0.197	-0.016
-266.282	49.209	0.216	0.204
-265.267	800.000	0.042	-0.169
-264.253	-52.994	-0.254	-0.117
-263.238	33.823	0.058	0.051
-262.224	744.250	0.104	-0.280
-261.209	-28.082	-0.101	-0.059
-260.195	-200.000	0.060	-0.340
-259.180	169.341	-0.176	-0.253
-258.165	-80.314	0.212	-0.071
-257.151	274.847	-0.087	-0.154
-256.136	-200.000	-0.010	0.129
-255.122	-200.000	0.017	0.089
-254.107	-46.838	-0.282	0.139
-253.092	43.222	0.188	-0.173
-252.078	-190.206	0.171	-0.002
-251.063	89.128	0.140	0.157
-250.049	31.643	0.120	0.104
-249.034	644.815	-0.100	-0.257
-248.019	708.529	-0.048	-0.127
-247.005	43.708	-0.081	0.074
-245.990	764.439	-0.222	-0.607
-244.976	24.902	0.126	0.105
-243.961	515.758	0.073	0.171
-242.946	42.865	0.081	-0.074
-241.932	217.234	-0.097	0.154
-240.917	-200.000	0.013	0.084
-239.903	-200.000	0.025	-0.265
-238.888	800.000	-0.132	-0.530
-237.873	-155.719	0.150	-0.010
-236.859	-200.000	0.025	0.157
-235.844	-147.726	0.074	0.006
-234.830	-54.773	-0.293	0.133
-233.815	-38.496	-0.379	-0.201
-232.800	56.161	-0.241	-0.235
-231.786	133.311	0.089	-0.116
-230.771	-71.764	-0.221	-0.083
-229.757	-75.941	0.183	-0.065
-228.742	800.000	0.036	0.141
-227.727	-200.000	0.004	-0.236
-226.713	-89.331	0.108	-0.032
-225.698	17.499	-0.154	0.123
-224.684	305.083	0.063	-0.117
-223.669	300.315	-0.176	0.326
-222.655	46.253	0.150	0.139
-221.640	-117.508	0.187	0.034
-220.625	-200.000	0.051	-0.275
-219.611	-200.000	-0.063	-0.296
-218.596	-137.880	0.171	-0.019
-217.582	800.000	0.052	-0.221
-216.567	580.039	0.028	0.069
-215.552	459.175	0.111	0.247
-214.538	284.997	-0.030	-0.053
-213.523	-156.794	0.257	-0.016
-212.509	67.229	-0.235	0.241
-211.494	-98.310	0.198	-0.051
-210.479	520.788	-0.099	0.233
-209.465	-56.661	-0.058	-0.026
-208.450	-200.000	0.006	0.299
-207.436	87.632	0.155	-0.172
-206.421	-122.707	-0.200	-0.032
-205.406	-52.434	0.105	-0.049
-204.392	416.264	0.023	0.049
-203.377	43.908	0.191	-0.175
-202.363	-200.000	0.015	0.193
-201.348	-59.869	-0.182	-0.078
-200.333	-200.000	-0.005	-0.189
-199.319	656.783	0.094	0.242
-198.304	31.210	-0.170	-0.146
-197.290	-65.304	0.331	-0.134
-196.275	129.904	-0.079	0.102
-195.260	800.000	0.095	0.266
-194.246	195.815	0.040	-0.062
-193.231	800.000	-0.056	-0.201
-192.217	21.204	-0.182	-0.148
-191.202	-58.399	0.090	0.039
-190.187	538.033	0.029	-0.070
-189.173	-165.969	0.219	0.009
-188.158	10.072	-0.013	0.010
-187.144	-200.000	-0.044	-0.239
-186.129	-67.771	0.103	-0.040
-185.114	-200.000	0.017	-0.106
-184.100	-200.000	-0.016	0.245
-183.085	-200.000	-0.040	-0.222
-182.071	-68.892	0.514	-0.199
-181.056	205.873	-0.117	0.183
-180.042	76.705	-0.208	-0.221
-179.027	-200.000	-0.005	-0.139
-178.012	120.626	0.154	0.191
-176.998	60.538	0.218	-0.216
-175.983	-200.000	0.109	-0.510
-174.969	-200.000	-0.023	0.292
-173.954	605.327	0.023	-0.057
-172.939	-99.217	-0.345	0.087
-171.925	202.951	0.105	-0.163
-170.910	-200.000	-0.003	0.084
-169.896	35.859	0.292	0.257
-168.881	-128.213	0.318	-0.046
-167.866	-178.514	0.201	-0.005
-166.852	96.979	0.247	-0.284
-165.837	-144.484	-0.158	0.015
-164.823	-12.080	0.361	-0.237
-163.808	51.833	-0.261	-0.248
-162.793	-42.210	-0.290	-0.148
-161.779	316.444	-0.059	0.111
-160.764	235.148	0.108	0.178
-159.750	115.567	-0.126	0.154
-158.735	-135.545	-0.160	-0.019
-157.720	401.443	0.105	0.220
-156.706	12.773	-0.105	0.081
-155.691	121.642	0.048	0.060
-154.677	-67.168	0.312	0.123
-153.662	93.463	0.266	-0.301
-152.647	550.414	-0.126	-0.304
-151.633	400.432	0.020	-0.042
-150.618	309.845	-0.122	-0.229
-149.604	16.465	0.097	0.077
-148.589	-59.012	0.279	0.121
-147.574	163.301	0.103	0.145
-146.560	-200.000	0.002	0.381
-145.545	34.540	0.256	-0.224
-144.531	-132.382	0.099	-0.013
-143.516	-157.138	-0.204	0.012
-142.502	126.207	-0.180	0.228
-141.487	800.000	-0.049	0.208
-140.472	800.000	-0.022	0.094
-139.458	-13.294	-0.146	-0.095
-138.443	85.758	0.063	-0.069
-137.429	-79.760	-0.213	-0.072
-136.414	340.568	-0.110	0.214
-135.399	439.477	0.107	-0.233
-134.385	-8.455	0.138	-0.093
-133.370	147.472	0.074	0.100
-132.356	-200.000	0.005	-0.064
-131.341	790.525	-0.145	-0.397
-130.326	-32.446	0.164	0.091
-129.312	800.000	-0.068	0.242
-128.297	-200.000	-0.043	0.310
-127.283	-200.000	0.058	-0.320
-126.268	-200.000	-0.038	0.288
-125.253	-67.140	0.241	0.095
-124.239	-34.429	-0.210	-0.115
-123.224	39.820	0.215	-0.193
-122.210	-80.351	-0.173	-0.058
-121.195	-76.004	0.130	-0.046
-120.180	66.975	0.199	-0.203
-119.166	7.843	0.162	0.121
-118.151	390.397	-0.033	-0.068
-117.137	-100.803	-0.147	-0.036
-116.122	254.669	-0.059	0.101
-115.107	300.333	0.021	0.039
-114.093	15.460	0.185	0.145
-113.078	-34.487	0.309	-0.169
-112.064	4.007	0.249	-0.182
-111.049	106.867	0.208	0.247
-110.034	-186.079	-0.048	-0.001
-109.020	800.000	0.074	0.318
-108.005	-3.169	0.200	0.139
-106.991	-200.000	0.001	0.178
-105.976	-200.000	-0.149	0.000
-104.962	-200.000	-0.082	-0.393
-103.947	-200.000	0.027	0.434
-102.932	-28.976	-0.233	-0.133
-101.918	-50.551	0.143	0.067
-100.903	-40.931	0.169	-0.087
-99.889	-63.568	0.134	0.055
-98.874	49.909	0.110	-0.103
-97.859	355.637	-0.023	-0.046
-96.845	318.874	0.072	0.136
-95.830	-200.000	-0.017	-0.164
-94.816	800.000	0.053	-0.187
-93.801	656.172	-0.032	-0.082
-92.786	379.845	-0.138	0.283
-91.772	-4.501	0.057	0.039
-90.757	185.893	-0.148	0.219
-89.743	8.883	-0.398	0.299
-88.728	-7.878	0.101	-0.068
-87.713	552.540	0.095	0.227
-86.699	-181.628	0.258	0.005
-85.684	-200.000	-0.020	0.122
-84.670	-16.073	-0.079	0.050
-83.655	60.768	0.117	0.116
-82.640	800.000	0.021	-0.073
-81.626	235.527	-0.149	0.245
-80.611	-18.930	-0.118	0.073
-79.597	800.000	0.069	0.220
-78.582	-131.541	0.110	0.014
-77.567	93.154	-0.236	-0.266
-76.553	-109.678	0.173	-0.036
-75.538	-38.906	0.351	0.185
-74.524	-200.000	-0.038	0.300
-73.509	65.779	-0.182	-0.184
-72.494	-95.936	-0.259	-0.069
-71.480	-47.861	0.202	0.097
-70.465	680.911	0.108	-0.280
-69.451	-119.112	-0.036	-0.006
-68.436	348.099	-0.132	0.260
-67.422	-200.000	0.014	0.113
-66.407	-91.604	0.055	-0.015
-65.392	-200.000	0.017	-0.107
-64.378	-59.746	0.129	-0.055
-63.363	-112.200	0.050	-0.010
-62.349	-77.011	0.268	-0.093
-61.334	286.861	-0.470	-0.846
-60.319	461.151	-0.035	-0.078
-59.305	441.609	-0.301	-0.657
-58.290	162.161	0.459	0.641
-57.276	800.000	0.413	1.323
-56.261	-200.000	69.845	521.303
-55.246	582.785	1261.544	3085.806
-54.232	138.807	2520.082	3300.011
-53.217	120.676	2248.691	2785.666
-52.203	57.807	1692.500	1650.296
-51.188	48.818	1406.534	1315.186
-50.173	44.872	1357.272	1245.036
-49.159	61.932	1388.577	1379.013
-48.144	71.161	1407.531	1454.381
-47.130	49.148	1371.581	1284.324
-46.115	44.762	1355.711	1242.736
-45.100	44.477	1351.089	1236.717
-44.086	44.495	1348.032	1233.979
-43.071	44.516	1345.778	1231.992
-42.057	44.469	1343.232	1229.328
-41.042	44.498	1341.959	1228.289
-40.027	44.616	1340.165	1227.313
-39.013	44.410	1338.581	1224.573
-37.998	44.595	1336.559	1223.786
-36.984	44.678	1334.800	1222.626
-35.969	44.660	1333.124	1220.935
-34.954	44.829	1331.267	1220.198
-33.940	44.719	1330.005	1218.335
-32.925	44.678	1328.505	1216.664
-31.911	44.649	1327.413	1215.445
-30.896	44.700	1325.848	1214.268
-29.881	44.885	1323.707	1213.356
-28.867	44.773	1322.123	1211.194
-27.852	44.720	1320.888	1209.701
-26.838	44.745	1319.330	1208.374
-25.823	44.836	1317.876	1207.531
-24.809	44.759	1316.488	1205.755
-23.794	44.726	1315.082	1204.223
-22.779	44.662	1313.768	1202.598
-21.765	44.742	1312.592	1201.944
-20.750	44.754	1311.435	1200.909
-19.736	44.586	1309.944	1198.503
-18.721	44.532	1308.490	1196.807
-17.706	44.593	1307.478	1196.193
-16.692	44.584	1306.436	1195.143
-15.677	44.555	1304.912	1193.528
-14.663	44.661	1304.015	1193.282
-13.648	44.512	1303.128	1191.550
-12.633	44.588	1302.087	1190.996
-11.619	44.610	1301.331	1190.389
-10.604	44.518	1300.894	1189.404
-9.590	44.568	1299.539	1188.407
-8.575	44.451	1298.310	1186.553
-7.560	44.591	1297.479	1186.565
-6.546	44.553	1296.495	1185.397
-5.531	44.613	1295.509	1184.796
-4.517	44.512	1295.062	1183.754
-3.502	44.560	1293.731	1182.771
-2.487	44.639	1292.708	1182.248
-1.473	44.722	1289.134	1179.410
-0.458	43.848	1274.316	1160.800
0.556	37.502	1252.757	1114.167
1.571	32.276	1252.683	1083.967
2.586	30.092	1265.960	1082.614
3.600	28.381	1254.888	1063.132
4.615	21.917	1180.571	964.672
5.629	11.694	1098.845	845.227
6.644	6.475	1073.881	799.528
7.659	5.899	1070.906	794.326
8.673	5.740	1069.573	792.467
9.688	5.718	1068.228	791.289
10.702	6.157	1067.155	792.638
11.717	11.866	1075.575	827.758
12.731	19.120	1085.351	872.092
13.746	19.618	1084.902	874.174
14.761	17.590	1081.130	860.818
15.775	16.248	1078.876	852.179
16.790	15.218	1076.565	845.083
17.804	14.512	1075.191	840.377
18.819	14.045	1073.909	836.945
19.834	13.768	1072.848	834.653
20.848	13.490	1072.106	832.604
21.863	13.246	1071.038	830.474
22.877	13.145	1070.733	829.658
23.892	13.153	1069.549	828.705
24.907	13.111	1069.236	828.179
25.921	13.172	1067.928	827.400
26.936	13.196	1066.776	826.552
27.950	13.205	1065.174	825.286
28.965	13.397	1063.594	824.944
29.980	13.426	1062.006	823.785
30.994	13.423	1060.906	822.846
32.009	13.324	1060.456	821.931
33.023	13.415	1059.081	821.242
34.038	13.347	1058.081	820.057
35.053	13.179	1057.335	818.577
36.067	13.244	1056.174	817.927
37.082	13.468	1054.816	817.907
38.096	13.329	1054.531	816.927
39.111	13.303	1054.472	816.680
40.126	13.203	1052.653	814.707
41.140	13.066	1051.497	813.067
42.155	13.119	1050.130	812.199
43.169	13.178	1048.842	811.422
44.184	13.172	1047.501	810.279
45.199	13.066	1046.850	809.184
46.213	13.118	1045.971	808.691
47.228	13.356	1044.402	808.566
48.242	13.234	1043.817	807.448
49.257	13.214	1042.630	806.361
50.271	13.174	1041.984	805.597
51.286	13.271	1040.970	805.212
52.301	13.195	1039.945	803.979
53.315	13.298	1038.470	803.267
54.330	13.067	1037.906	801.640
55.344	13.186	1036.687	801.204
56.359	13.181	1036.189	800.722
57.374	13.184	1034.964	799.721
58.388	13.061	1034.198	798.462
59.403	13.086	1033.431	797.920
60.417	13.036	1032.823	797.137
61.432	12.987	1031.910	796.129
62.447	12.994	1031.081	795.451
63.461	12.969	1029.987	794.415
64.476	12.829	1029.162	793.037
65.490	12.939	1028.630	793.085
66.505	13.079	1027.625	792.914
67.520	13.007	1027.161	792.138
68.534	13.131	1026.424	792.095
69.549	13.038	1025.498	790.863
70.563	12.963	1024.841	789.928
71.578	12.959	1024.140	789.300
72.593	12.976	1022.874	788.335
73.607	12.896	1021.855	787.099
74.622	12.969	1021.396	787.023
75.636	12.984	1021.095	786.794
76.651	13.021	1019.962	786.028
77.666	12.908	1019.780	785.280
78.680	12.973	1018.691	784.681
79.695	12.877	1018.730	784.182
80.709	13.096	1017.566	784.259
81.724	13.154	1016.664	783.772
82.739	13.103	1016.341	783.209
83.753	13.314	1015.272	783.317
84.768	13.494	1014.124	783.213
85.782	13.304	1013.718	781.931
86.797	13.264	1012.830	780.989
87.812	13.175	1011.913	779.792
88.826	13.138	1011.370	779.131
89.841	13.209	1010.161	778.462
90.855	13.238	1009.393	777.938
91.870	13.310	1008.526	777.541
92.884	13.375	1007.582	777.051
93.899	13.368	1006.645	776.226
94.914	13.463	1005.874	776.007
95.928	13.425	1005.381	775.380
96.943	13.395	1003.690	773.867
97.957	13.406	1002.984	773.305
98.972	13.206	1002.508	771.937
99.987	13.453	1001.377	772.148
101.001	13.501	1000.291	771.468
102.016	13.270	1000.011	770.108
103.030	13.368	999.231	769.893
104.045	13.315	998.306	768.866
105.060	13.226	997.529	767.787
106.074	13.184	996.183	766.491
107.089	13.055	995.824	765.548
108.103	13.136	994.515	764.847
109.118	13.223	993.337	764.275
110.133	13.064	992.842	763.093
111.147	13.200	991.778	762.838
112.162	13.195	990.895	762.066
113.176	13.246	989.984	761.532
114.191	13.283	989.405	761.190
115.206	13.347	988.263	760.539
116.220	13.205	987.881	759.525
117.235	13.224	986.830	758.739
118.249	13.261	985.901	758.125
119.264	13.150	985.066	756.908
120.279	13.168	984.501	756.489
121.293	13.230	983.514	755.946
122.308	13.151	982.584	754.805
123.322	13.044	981.658	753.538
124.337	13.070	980.890	753.001
125.352	13.097	979.760	752.190
126.366	13.085	978.770	751.309
127.381	13.135	977.534	750.520
128.395	13.149	976.392	749.641
129.410	13.237	975.819	749.536
130.424	13.342	974.818	749.173
131.439	13.273	974.761	748.751
132.454	13.414	973.964	748.711
133.468	13.350	972.562	747.276
134.483	13.388	971.935	746.904
135.497	13.346	971.041	745.958
136.512	13.493	970.101	745.833
137.527	13.423	969.374	744.894
138.541	13.358	968.940	744.200
139.556	13.469	967.913	743.845
140.570	13.491	967.534	743.587
141.585	13.644	966.468	743.387
142.600	13.586	965.790	742.543
143.614	13.673	964.701	742.030
144.629	13.692	964.106	741.591
145.643	13.624	962.987	740.361
146.658	13.430	962.425	738.998
147.673	13.423	961.492	738.183
148.687	13.320	960.614	736.984
149.702	13.339	959.951	736.493
150.716	13.252	958.827	735.180
151.731	13.300	958.415	735.012
152.746	13.423	957.458	734.758
153.760	13.588	956.482	734.678
154.775	13.396	956.752	733.968
155.789	13.519	955.611	733.573
156.804	13.539	955.119	733.219
157.819	13.655	953.920	732.746
158.833	13.534	953.928	732.153
159.848	13.572	953.103	731.621
160.862	13.565	951.695	730.447
161.877	13.427	950.916	729.175
162.892	13.427	949.632	728.128
163.906	13.548	948.639	727.833
164.921	13.462	948.087	726.967
165.935	13.393	947.569	726.201
166.950	13.448	946.020	725.191
167.964	13.569	945.044	724.909
168.979	13.537	944.438	724.240
169.994	13.520	943.453	723.349
171.008	13.529	942.885	722.889
172.023	13.682	942.326	723.061
173.037	13.721	941.595	722.607
174.052	13.692	940.728	721.753
175.067	13.529	940.190	720.565
176.081	13.459	939.681	719.806
177.096	13.555	939.277	719.852
178.110	13.521	938.551	719.085
179.125	13.618	937.775	718.846
180.140	13.667	937.060	718.447
181.154	13.593	936.897	717.939
182.169	13.656	936.157	717.580
183.183	13.671	935.811	717.318
184.198	13.823	934.655	717.024
185.213	13.903	933.746	716.608
186.227	13.925	932.892	715.984
187.242	13.824	932.764	715.388
188.256	13.894	932.409	715.354
189.271	13.891	931.321	714.440
190.286	13.742	930.269	712.931
191.300	13.516	929.841	711.571
192.315	13.522	929.238	711.069
193.329	13.609	928.921	711.137
194.344	13.641	927.991	710.502
195.359	13.745	927.448	710.467
196.373	13.934	926.878	710.779
197.388	13.871	926.386	710.067
198.402	14.124	925.861	710.686
199.417	14.086	925.086	709.865
200.432	14.113	924.592	709.538
201.446	14.180	924.397	709.611
202.461	14.256	923.479	709.166
203.475	14.105	923.366	708.375
204.490	14.074	922.474	707.495
205.504	13.877	921.862	706.127
206.519	13.920	921.076	705.645
207.534	14.019	920.308	705.415
208.548	14.103	919.360	704.979
209.563	13.943	919.164	704.091
210.577	14.077	918.518	704.100
211.592	14.216	917.338	703.722
212.607	14.214	916.638	703.111
213.621	14.099	916.020	702.090
214.636	14.243	915.243	702.042
215.650	14.131	914.583	701.001
216.665	14.372	913.602	701.202
217.680	14.346	913.561	700.999
218.694	14.261	912.735	699.946
219.709	14.398	911.979	699.881
220.723	14.217	911.358	698.579
221.738	14.305	910.645	698.340
222.753	14.219	910.119	697.515
223.767	14.289	909.435	697.223
224.782	14.512	908.710	697.536
225.796	14.579	908.067	697.264
226.811	14.397	907.375	695.909
227.826	14.512	906.427	695.600
228.840	14.442	905.905	694.849
229.855	14.420	905.343	694.263
230.869	14.397	904.406	693.389
231.884	14.313	903.950	692.629
232.899	14.360	903.209	692.191
233.913	14.350	901.989	691.155
234.928	14.264	901.645	690.475
235.942	14.348	901.332	690.523
236.957	14.373	900.586	689.991
237.972	14.360	900.109	689.510
238.986	14.380	899.723	689.239
240.001	14.433	898.713	688.624
241.015	14.437	898.062	688.078
242.030	14.510	897.318	687.751
243.045	14.615	896.924	687.820
244.059	14.490	896.409	686.847
245.074	14.480	895.930	686.381
246.088	14.544	895.022	685.888
247.103	14.700	894.335	685.938
248.117	14.654	894.341	685.693
249.132	14.698	893.750	685.363
250.147	14.770	893.148	685.136
251.161	14.797	892.225	684.476
252.176	14.847	891.537	684.091
253.190	14.892	890.436	683.371
254.205	14.944	890.136	683.294
255.220	14.954	889.560	682.830
256.234	14.944	888.920	682.239
257.249	14.914	888.491	681.728
258.263	14.933	887.601	681.060
259.278	14.989	887.256	680.966
260.293	15.055	886.715	680.756
261.307	15.032	885.982	680.041
262.322	15.085	885.216	679.607
263.336	15.142	884.362	679.122
264.351	15.246	883.556	678.867
265.366	15.238	882.710	678.125
266.380	15.086	882.268	677.110
267.395	15.137	881.428	676.611
268.409	15.158	880.637	676.028
269.424	15.099	880.282	675.456
270.439	15.049	879.357	674.485
271.453	15.150	878.703	674.334
272.468	15.184	878.137	673.974
273.482	15.147	877.613	673.362
274.497	15.027	877.286	672.570
275.512	15.108	876.746	672.424
276.526	15.159	876.241	672.180
277.541	15.173	875.513	671.620
278.555	15.331	875.283	672.016
279.570	15.429	874.194	671.512
280.585	15.419	873.424	670.820
281.599	15.193	872.846	669.415
282.614	15.325	871.909	669.164
283.628	15.449	871.019	668.918
284.643	15.302	871.039	668.288
285.657	15.348	869.966	667.588
286.672	15.340	869.202	666.909
287.687	15.366	869.125	666.896
288.701	15.385	868.366	666.328
289.716	15.326	867.907	665.686
290.730	15.464	867.166	665.607
291.745	15.483	866.450	665.074
292.760	15.479	866.056	664.694
293.774	15.461	865.404	664.063
294.789	15.479	864.541	663.415
295.803	15.475	863.865	662.819
296.818	15.416	863.477	662.231
297.833	15.524	862.713	662.015
298.847	15.473	861.868	661.104
299.862	15.535	861.694	661.157
300.876	15.656	861.133	661.145
301.891	15.682	860.711	660.864
302.906	15.646	860.081	660.180
303.920	15.685	859.418	659.767
304.935	15.898	858.886	660.135
305.949	15.830	858.255	659.326
306.964	15.743	857.152	658.078
307.979	15.786	856.680	657.825
308.993	15.881	856.429	657.947
310.008	15.776	855.831	657.021
311.022	15.689	855.268	656.191
312.037	15.652	854.901	655.704
313.052	15.729	853.912	655.190
314.066	15.687	853.307	654.504
315.081	15.645	852.814	653.904
316.095	15.655	852.348	653.528
317.110	15.602	851.928	652.943
318.125	15.641	851.038	652.353
319.139	15.895	850.560	652.916
320.154	15.751	850.541	652.281
321.168	15.771	849.721	651.672
322.183	15.787	849.174	651.258
323.197	15.890	848.834	651.338
324.212	15.787	848.242	650.427
325.227	15.866	847.376	650.011
326.241	15.908	846.536	649.474
327.256	15.815	846.315	648.886
328.270	15.891	845.323	648.361
329.285	16.005	845.158	648.618
330.300	15.921	844.140	647.456
331.314	15.975	843.842	647.378
332.329	15.930	843.938	647.219
333.343	15.954	843.478	646.903
334.358	15.988	842.749	646.416
335.373	15.971	842.519	646.116
336.387	16.151	841.658	646.091
337.402	16.000	841.840	645.594
338.416	16.081	841.478	645.568
339.431	16.138	841.301	645.594
340.446	16.249	840.382	645.258
341.460	16.216	840.098	644.856
342.475	16.310	839.699	644.852
343.489	16.166	839.226	643.879
344.504	16.278	838.894	643.995
345.519	16.328	838.293	643.668
346.533	16.332	838.004	643.404
347.548	16.168	837.410	642.268
348.562	16.145	836.835	641.683
349.577	16.322	836.131	641.760
350.592	16.148	835.875	640.845
351.606	16.157	834.731	639.945
352.621	16.169	834.283	639.589
353.635	16.274	833.929	639.661
354.650	16.326	832.945	639.043
355.665	16.217	832.386	638.146
356.679	16.337	831.585	637.930
357.694	16.409	831.053	637.736
358.708	16.275	830.579	636.813
359.723	16.310	829.972	636.423
360.738	16.401	829.571	636.400
361.752	16.446	828.680	635.832
362.767	16.545	828.343	635.888
363.781	16.605	827.670	635.541
364.796	16.755	827.182	635.674
365.810	16.662	826.874	635.030
366.825	16.628	826.750	634.754
367.840	16.637	826.502	634.540
368.854	16.676	825.685	634.003
369.869	16.653	825.340	633.595
370.883	16.645	824.781	633.080
371.898	16.757	824.322	633.088
372.913	16.792	823.831	632.786
373.927	16.878	823.324	632.661
374.942	16.775	823.010	631.980
375.956	16.888	822.195	631.719
376.971	16.812	822.268	631.436
377.986	16.979	821.585	631.477
379.000	17.047	821.221	631.395
380.015	17.071	820.150	630.605
381.029	16.961	820.091	630.095
382.044	16.889	819.891	629.619
383.059	16.841	819.071	628.755
384.073	16.925	818.477	628.557
385.088	16.847	817.823	627.709
386.102	16.811	817.100	626.964
387.117	16.806	816.461	626.402
388.132	16.970	816.090	626.666
389.146	17.087	815.599	626.668
390.161	16.987	815.105	625.861
391.175	17.051	815.062	626.010
392.190	16.859	814.471	624.795
393.205	16.907	813.727	624.346
394.219	16.768	813.556	623.646
395.234	16.909	813.291	623.908
396.248	16.869	812.153	622.830
397.263	16.868	812.030	622.678
398.278	16.815	811.408	621.953
399.292	16.790	811.641	621.982
400.307	16.778	811.310	621.630
401.321	16.954	810.512	621.609
402.336	17.036	809.965	621.436
403.350	17.057	809.234	620.895
404.365	17.023	809.190	620.684
405.380	17.044	808.989	620.551
406.394	17.271	807.859	620.458
407.409	17.236	807.510	620.009
408.423	17.242	807.539	619.996
409.438	17.218	807.008	619.445
410.453	17.141	806.668	618.851
411.467	17.328	806.007	618.967
412.482	17.470	805.045	618.691
413.496	17.454	804.924	618.485
414.511	17.543	804.940	618.766
415.526	17.280	804.811	617.657
416.540	17.519	803.931	617.793
417.555	17.540	803.336	617.360
418.569	17.471	802.954	616.760
419.584	17.583	802.702	616.918
420.599	17.466	802.331	616.153
421.613	74.428	1232.402	1251.919
422.628	62.791	1295.109	1252.030
