DTS Sentinel unit serial number:	SN413079Multiplexer serial number:	ORYXHardware model number:	OX4-SRSoftware version number:	ORYX F/W v4.00 Oryx Data Collector v3.7.2.0data status	okinstallation	princeton_trtdifferential loss correction	single-endedforward channel	channel 1reverse channel	N/Adate	2019/09/15time	14:50:35forward acquisition time	60.00reverse acquisition time	0.00gamma	496.2192k internal	0.2292k external	0.2292temperature offset calibration	0.9948default loss term (dB/km)	0.3790temperature slope calibration	1.0000multiplexer offset coefficient	1.0000multiplexer slope coefficient	1.0000fibre end	0.00T internal ref (°C)	39.91T ext. ref 1 (°C)	4.85T ext. ref 2 (°C)	36.85length (m)	temperature (°C)	Stokes	anti-Stokes-747.200	-21.297	-0.225	0.141
-746.185	-127.680	-0.272	0.040
-745.171	800.000	0.118	0.432
-744.156	-200.000	0.092	0.561
-743.142	-13.347	0.159	-0.106
-742.127	-49.329	-0.157	-0.076
-741.112	548.331	0.078	-0.191
-740.098	615.814	-0.077	0.199
-739.083	-96.473	0.385	-0.104
-738.069	244.671	-0.215	0.370
-737.054	-200.000	0.038	0.342
-736.039	-200.000	0.003	0.022
-735.025	-152.670	0.308	-0.022
-734.010	104.005	0.107	-0.129
-732.996	-32.012	-0.278	0.159
-731.981	270.717	0.036	-0.065
-730.966	-84.223	-0.127	0.041
-729.952	-1.046	0.119	-0.086
-728.937	34.770	0.202	-0.181
-727.923	-25.163	-0.088	-0.053
-726.908	-200.000	-0.028	0.225
-725.894	-134.197	-0.303	0.038
-724.879	-62.495	-0.101	0.043
-723.864	232.482	0.056	0.094
-722.850	60.470	-0.299	-0.302
-721.835	-171.669	-0.245	0.008
-720.821	508.293	0.078	-0.186
-719.806	-200.000	-0.031	-0.239
-718.791	800.000	0.102	0.315
-717.777	-106.997	-0.185	-0.042
-716.762	25.396	-0.251	-0.213
-715.748	85.849	-0.034	0.038
-714.733	-200.000	-0.001	0.056
-713.718	-93.846	-0.244	0.069
-712.704	-126.146	-0.224	0.034
-711.689	161.195	-0.084	0.119
-710.675	800.000	-0.067	-0.219
-709.660	89.939	-0.205	-0.235
-708.645	51.247	0.034	-0.033
-707.631	800.000	0.050	-0.210
-706.616	-200.000	-0.005	0.051
-705.602	-100.091	-0.158	0.040
-704.587	-200.000	0.006	-0.117
-703.572	-1.688	0.223	0.160
-702.558	28.879	0.261	0.226
-701.543	-0.295	0.263	0.191
-700.529	-144.038	0.295	0.028
-699.514	380.678	-0.211	0.443
-698.499	-115.622	-0.385	-0.074
-697.485	206.788	0.207	-0.329
-696.470	666.298	-0.114	-0.301
-695.456	-200.000	-0.036	0.175
-694.441	-83.817	0.118	-0.038
-693.426	-200.000	-0.009	0.265
-692.412	371.874	-0.179	0.371
-691.397	-101.223	-0.388	-0.097
-690.383	166.213	0.150	0.217
-689.368	-136.432	0.088	0.010
-688.354	800.000	0.020	-0.083
-687.339	-94.185	0.120	0.033
-686.324	216.333	-0.041	-0.066
-685.310	7.638	-0.173	-0.132
-684.295	-128.277	-0.271	-0.039
-683.281	-200.000	0.023	0.189
-682.266	-200.000	0.014	0.072
-681.251	-138.297	0.241	0.027
-680.237	43.395	-0.216	-0.202
-679.222	800.000	0.073	0.327
-678.208	157.537	0.080	0.113
-677.193	-103.352	0.422	0.102
-676.178	196.629	0.069	-0.107
-675.164	-144.264	-0.113	0.011
-674.149	-23.290	-0.388	0.238
-673.135	-11.816	0.219	-0.147
-672.120	15.764	-0.229	0.184
-671.105	-124.274	0.068	-0.011
-670.091	-144.207	-0.173	0.016
-669.076	-87.154	0.200	0.062
-668.062	-2.798	-0.205	0.146
-667.047	800.000	-0.083	-0.362
-666.032	125.234	-0.142	-0.183
-665.018	-122.598	-0.440	-0.073
-664.003	-100.912	-0.340	0.085
-662.989	-96.512	0.277	0.075
-661.974	-200.000	0.037	-0.181
-660.959	-143.393	0.177	0.017
-659.945	682.612	-0.047	0.124
-658.930	4.127	0.151	-0.113
-657.916	-104.271	0.269	0.064
-656.901	48.799	0.232	-0.222
-655.886	121.852	-0.123	-0.157
-654.872	2.976	-0.125	0.093
-653.857	15.778	-0.142	-0.114
-652.843	236.583	-0.070	0.119
-651.828	800.000	0.057	-0.169
-650.814	-129.323	-0.036	0.005
-649.799	-22.095	0.070	-0.043
-648.784	662.300	-0.061	0.160
-647.770	341.384	0.035	-0.069
-646.755	-64.904	0.242	0.100
-645.741	800.000	0.063	-0.276
-644.726	-49.206	-0.170	-0.083
-643.711	-200.000	0.029	0.221
-642.697	-29.404	-0.170	0.099
-641.682	-200.000	0.005	0.073
-640.668	148.501	-0.083	0.114
-639.653	-13.505	0.272	-0.180
-638.638	49.477	-0.067	0.065
-637.624	-50.459	-0.404	0.194
-636.609	25.232	0.169	0.143
-635.595	76.134	0.064	0.069
-634.580	-20.587	0.122	-0.077
-633.565	186.140	-0.114	-0.173
-632.551	-18.244	0.239	0.153
-631.536	800.000	-0.064	0.238
-630.522	93.401	-0.225	0.260
-629.507	800.000	-0.042	-0.179
-628.492	-40.651	0.273	-0.144
-627.478	-147.568	-0.113	-0.010
-626.463	29.949	0.129	-0.112
-625.449	-65.968	-0.202	0.082
-624.434	41.659	-0.063	-0.058
-623.419	-200.000	0.002	0.251
-622.405	800.000	0.022	0.096
-621.390	-200.000	0.164	0.001
-620.376	160.706	-0.088	-0.125
-619.361	131.474	0.117	-0.153
-618.346	-86.717	-0.228	0.071
-617.332	-99.903	0.454	-0.115
-616.317	-73.953	0.352	0.130
-615.303	155.082	-0.122	0.171
-614.288	101.330	0.110	-0.130
-613.273	36.783	-0.076	0.068
-612.259	-88.897	-0.153	-0.046
-611.244	-113.898	0.306	0.061
-610.230	704.154	-0.112	-0.301
-609.215	330.865	0.046	-0.089
-608.201	7.547	0.226	-0.172
-607.186	-22.089	0.136	0.084
-606.171	-60.323	-0.257	-0.111
-605.157	396.349	-0.060	-0.128
-604.142	406.431	-0.116	-0.249
-603.128	48.460	-0.289	-0.275
-602.113	-78.142	-0.132	0.046
-601.098	-157.059	-0.165	0.010
-600.084	229.206	0.035	-0.058
-599.069	-127.487	0.150	-0.022
-598.055	-200.000	0.015	0.089
-597.040	312.573	0.042	0.080
-596.025	800.000	0.013	0.041
-595.011	-160.402	-0.470	-0.026
-593.996	-37.714	-0.349	-0.189
-592.982	-111.971	-0.214	0.044
-591.967	-86.613	0.144	-0.045
-590.952	-39.091	-0.230	0.123
-589.938	-149.153	0.150	0.012
-588.923	-200.000	0.002	0.041
-587.909	-200.000	-0.056	-0.265
-586.894	146.870	0.056	-0.076
-585.879	86.174	0.179	0.200
-584.865	-31.297	-0.078	0.045
-583.850	-5.508	-0.225	-0.157
-582.836	186.101	0.286	-0.433
-581.821	-132.177	0.374	-0.049
-580.806	-82.288	0.241	0.080
-579.792	-179.190	-0.343	-0.008
-578.777	800.000	-0.078	-0.318
-577.763	-200.000	0.014	0.128
-576.748	-137.599	0.040	-0.005
-575.733	-87.753	0.219	-0.067
-574.719	799.735	-0.075	-0.211
-573.704	-129.864	0.092	-0.013
-572.690	-115.551	0.205	-0.039
-571.675	156.734	0.060	-0.084
-570.661	62.839	-0.149	-0.151
-569.646	109.077	0.066	0.081
-568.631	-200.000	0.057	0.328
-567.617	222.238	-0.127	-0.207
-566.602	-200.000	-0.020	-0.199
-565.588	189.739	-0.130	0.199
-564.573	597.340	0.051	-0.129
-563.558	-65.592	0.148	0.060
-562.544	-101.939	0.256	0.063
-561.529	-182.826	-0.337	0.006
-560.515	-19.060	0.156	-0.098
-559.500	-135.507	0.224	-0.027
-558.485	-200.000	0.032	-0.218
-557.471	-200.000	-0.031	-0.328
-556.456	-46.784	-0.150	-0.075
-555.442	-88.607	-0.318	-0.096
-554.427	246.923	-0.092	0.157
-553.412	-98.632	-0.466	-0.121
-552.398	-200.000	-0.036	0.252
-551.383	316.278	0.116	0.222
-550.369	-90.345	-0.273	-0.080
-549.354	-104.703	-0.319	-0.075
-548.339	-200.000	0.066	-0.328
-547.325	573.897	0.140	0.347
-546.310	-200.000	-0.034	0.313
-545.296	12.371	-0.163	0.127
-544.281	406.542	0.096	-0.206
-543.266	-200.000	-0.026	0.125
-542.252	-200.000	-0.020	0.096
-541.237	181.092	-0.110	-0.165
-540.223	-105.927	-0.054	0.012
-539.208	-83.600	-0.349	-0.113
-538.193	-149.661	0.119	-0.010
-537.179	-88.916	-0.313	-0.094
-536.164	125.468	-0.149	-0.191
-535.150	-200.000	-0.023	0.286
-534.135	-59.629	0.369	-0.161
-533.121	-108.681	-0.206	-0.045
-532.106	-103.517	0.034	-0.008
-531.091	-126.017	0.408	0.062
-530.077	-114.218	0.096	-0.019
-529.062	-64.047	-0.138	0.057
-528.048	-2.189	-0.366	0.261
-527.033	-44.964	-0.064	-0.033
-526.018	-185.351	0.151	0.002
-525.004	50.847	-0.174	0.167
-523.989	-200.000	0.053	-0.346
-522.975	116.590	-0.197	0.245
-521.960	-200.000	0.013	-0.530
-520.945	-200.000	0.001	0.114
-519.931	-200.000	-0.046	-0.234
-518.916	-118.416	0.309	0.056
-517.902	-1.279	-0.173	0.124
-516.887	-19.690	0.155	-0.097
-515.872	-20.782	-0.280	-0.174
-514.858	20.287	0.147	-0.121
-513.843	-67.733	-0.200	0.079
-512.829	-120.662	-0.224	0.038
-511.814	85.456	0.330	-0.368
-510.799	-46.473	0.021	0.011
-509.785	108.234	0.081	0.098
-508.770	49.039	-0.121	-0.115
-507.756	15.097	0.173	0.138
-506.741	-33.155	0.228	-0.128
-505.726	55.088	-0.170	0.166
-504.712	299.087	0.115	0.214
-503.697	-83.675	0.235	0.076
-502.683	72.050	0.134	0.141
-501.668	-74.069	-0.267	-0.098
-500.653	800.000	0.055	0.228
-499.639	-32.766	0.200	0.113
-498.624	-2.343	0.108	-0.077
-497.610	16.886	0.200	0.161
-496.595	260.990	0.067	-0.118
-495.581	-65.569	-0.263	-0.107
-494.566	-200.000	0.038	-0.211
-493.551	590.988	0.095	0.238
-492.537	-141.532	0.305	0.031
-491.522	-157.362	0.280	-0.017
-490.508	-139.877	-0.169	-0.018
-489.493	-200.000	-0.001	-0.168
-488.478	-200.000	-0.006	0.091
-487.464	800.000	-0.030	-0.126
-486.449	-200.000	-0.038	0.191
-485.435	295.345	0.213	-0.395
-484.420	-200.000	-0.018	-0.376
-483.405	34.863	-0.189	-0.168
-482.391	-141.861	-0.118	-0.012
-481.376	130.735	-0.089	0.116
-480.362	800.000	-0.023	-0.074
-479.347	-78.291	-0.276	-0.096
-478.332	800.000	0.061	-0.221
-477.318	-200.000	0.026	0.165
-476.303	-200.000	-0.058	-0.268
-475.289	156.757	-0.152	-0.213
-474.274	153.500	0.257	-0.356
-473.259	12.669	-0.200	-0.156
-472.245	800.000	0.077	-0.248
-471.230	-200.000	-0.038	0.314
-470.216	-200.000	-0.023	-0.107
-469.201	44.923	-0.042	0.039
-468.186	2.625	0.190	0.140
-467.172	-107.893	-0.410	-0.090
-466.157	-51.292	-0.338	-0.160
-465.143	363.190	0.202	0.410
-464.128	-200.000	0.003	-0.188
-463.113	-21.751	0.320	0.197
-462.099	101.782	0.079	0.093
-461.084	179.772	-0.075	0.112
-460.070	-41.472	0.073	0.038
-459.055	64.412	-0.218	0.222
-458.040	161.161	0.186	0.264
-457.026	-50.660	-0.276	-0.131
-456.011	800.000	-0.084	-0.363
-454.997	-91.924	0.207	0.059
-453.982	271.606	0.221	0.394
-452.968	-200.000	0.003	-0.116
-451.953	58.204	0.045	-0.044
-450.938	800.000	-0.044	-0.186
-449.924	800.000	0.030	0.116
-448.909	-12.058	-0.119	-0.079
-447.895	-106.777	-0.150	0.034
-446.880	-51.379	-0.028	0.013
-445.865	-10.564	-0.094	-0.063
-444.851	-49.165	0.234	-0.113
-443.836	-93.512	0.193	0.054
-442.822	85.807	0.098	0.109
-441.807	800.000	-0.030	-0.128
-440.792	-129.705	-0.287	0.040
-439.778	-27.731	0.173	0.102
-438.763	139.638	0.045	-0.060
-437.749	466.082	0.076	-0.171
-436.734	697.407	0.033	-0.087
-435.719	117.350	0.044	-0.055
-434.705	199.975	-0.159	-0.247
-433.690	10.845	0.268	0.207
-432.676	-61.247	-0.167	0.071
-431.661	-111.785	-0.265	0.054
-430.646	-92.181	0.082	0.023
-429.632	-82.632	-0.296	-0.097
-428.617	-200.000	0.020	0.227
-427.603	-27.561	-0.226	0.133
-426.588	-19.179	0.422	0.265
-425.573	-200.000	0.073	-0.422
-424.559	-200.000	-0.003	0.253
-423.544	-87.867	0.402	0.122
-422.530	-177.772	0.182	0.004
-421.515	800.000	-0.033	-0.120
-420.500	-102.564	-0.164	0.040
-419.486	34.222	0.065	0.058
-418.471	495.371	-0.020	0.046
-417.457	-31.547	0.245	0.139
-416.442	800.000	-0.035	0.144
-415.428	56.911	-0.282	0.277
-414.413	179.621	-0.208	0.308
-413.398	800.000	-0.021	-0.086
-412.384	25.117	0.100	0.084
-411.369	-200.000	-0.041	-0.230
-410.355	-143.871	0.042	-0.004
-409.340	-161.464	-0.554	-0.029
-408.325	362.716	0.089	0.181
-407.311	-10.065	-0.040	0.027
-406.296	343.077	0.048	0.095
-405.282	800.000	-0.033	-0.131
-404.267	-147.340	0.166	-0.014
-403.252	204.930	-0.191	-0.300
-402.238	-66.912	0.432	0.172
-401.223	-200.000	0.005	0.066
-400.209	-200.000	-0.002	0.056
-399.194	-38.734	0.130	0.069
-398.179	-50.211	-0.191	0.091
-397.165	-172.147	-0.277	0.009
-396.150	-200.000	-0.005	0.139
-395.136	-200.000	0.032	0.153
-394.121	-37.832	0.067	-0.036
-393.106	34.109	0.097	-0.085
-392.092	-126.597	-0.229	0.034
-391.077	410.211	-0.100	-0.214
-390.063	800.000	-0.088	-0.264
-389.048	800.000	-0.050	-0.180
-388.033	120.353	0.125	0.157
-387.019	800.000	0.063	0.187
-386.004	-112.329	-0.312	0.063
-384.990	74.259	-0.105	-0.111
-383.975	53.336	-0.176	-0.170
-382.960	510.514	-0.099	0.233
-381.946	-200.000	0.004	-0.127
-380.931	-46.889	0.243	-0.120
-379.917	-111.310	0.196	-0.040
-378.902	228.833	0.189	-0.310
-377.888	-74.647	0.195	-0.071
-376.873	-149.550	0.116	-0.009
-375.858	-21.439	-0.096	-0.059
-374.844	-100.753	-0.116	-0.029
-373.829	22.128	0.254	-0.209
-372.815	-159.098	-0.147	-0.008
-371.800	249.768	-0.088	0.151
-370.785	-200.000	-0.021	0.167
-369.771	-200.000	0.009	0.379
-368.756	-91.620	0.315	-0.090
-367.742	-200.000	-0.001	-0.029
-366.727	9.597	-0.090	-0.069
-365.712	113.512	0.083	0.102
-364.698	-114.711	-0.347	-0.067
-363.683	-151.277	0.329	-0.025
-362.669	-129.173	-0.158	0.022
-361.654	-200.000	-0.035	-0.167
-360.639	-200.000	-0.012	0.157
-359.625	-108.750	-0.316	-0.068
-358.610	-200.000	0.033	0.278
-357.596	-21.792	-0.102	0.062
-356.581	-29.006	-0.056	-0.033
-355.566	-103.361	0.044	0.010
-354.552	-200.000	0.043	0.365
-353.537	-49.213	0.082	0.039
-352.523	169.576	-0.168	0.241
-351.508	800.000	-0.050	-0.158
-350.493	800.000	0.057	0.172
-349.479	303.956	0.180	0.336
-348.464	118.599	0.183	0.228
-347.450	52.738	-0.221	-0.213
-346.435	74.380	-0.097	0.103
-345.420	264.364	-0.077	0.136
-344.406	-200.000	0.040	0.239
-343.391	-89.906	0.064	0.019
-342.377	20.043	0.098	-0.079
-341.362	-78.197	-0.407	0.141
-340.348	69.752	0.204	0.212
-339.333	121.018	-0.176	0.221
-338.318	-32.499	-0.149	0.083
-337.304	494.892	-0.058	0.135
-336.289	224.478	-0.020	0.033
-335.275	-90.060	0.130	-0.038
-334.260	-41.624	-0.077	0.040
-333.245	71.092	-0.273	0.285
-332.231	-97.789	0.229	-0.060
-331.216	-200.000	0.000	-0.091
-330.202	-42.694	0.108	-0.055
-329.187	-200.000	0.002	-0.099
-328.172	650.407	0.059	0.151
-327.158	181.177	0.060	0.089
-326.143	-128.976	0.170	-0.024
-325.129	-50.278	0.221	0.105
-324.114	800.000	-0.045	0.167
-323.099	217.719	0.029	-0.047
-322.085	-200.000	0.010	0.189
-321.070	30.895	0.306	-0.264
-320.056	-2.375	0.197	-0.139
-319.041	-15.875	-0.070	0.045
-318.026	-9.218	0.162	-0.109
-317.012	55.123	-0.103	-0.100
-315.997	-19.885	0.189	0.117
-314.983	184.831	0.025	-0.037
-313.968	151.663	-0.284	-0.390
-312.953	-200.000	0.062	-0.286
-311.939	165.025	-0.127	-0.180
-310.924	-12.203	0.272	-0.179
-309.910	227.022	-0.088	0.144
-308.895	800.000	0.002	-0.006
-307.880	800.000	-0.065	0.199
-306.866	-97.506	-0.181	-0.047
-305.851	-167.389	-0.105	0.004
-304.837	-15.064	-0.095	-0.061
-303.822	183.229	-0.204	-0.304
-302.807	42.404	0.021	0.019
-301.793	-183.748	0.465	0.008
-300.778	-17.667	-0.322	-0.204
-299.764	-200.000	0.019	-0.112
-298.749	-40.948	0.168	-0.087
-297.735	79.354	-0.161	-0.174
-296.720	170.691	-0.191	0.274
-295.705	9.454	0.211	0.160
-294.691	800.000	0.137	0.530
-293.676	509.521	0.059	0.138
-292.662	10.331	-0.013	0.010
-291.647	-200.000	0.063	-0.334
-290.632	800.000	-0.057	-0.239
-289.618	-75.931	0.376	-0.134
-288.603	-128.763	0.186	0.026
-287.589	65.932	0.135	0.137
-286.574	-165.644	0.157	-0.007
-285.559	-200.000	-0.038	0.338
-284.545	25.132	-0.147	-0.123
-283.530	-200.000	-0.002	0.319
-282.516	800.000	-0.022	-0.088
-281.501	-39.668	-0.189	-0.099
-280.486	237.618	-0.080	0.133
-279.472	800.000	-0.127	-0.382
-278.457	-18.010	-0.235	0.148
-277.443	-42.495	0.279	-0.143
-276.428	302.100	-0.077	0.143
-275.413	-52.065	0.291	0.136
-274.399	137.096	0.091	-0.119
-273.384	-127.878	-0.078	-0.011
-272.370	-12.031	0.108	0.071
-271.355	157.967	-0.087	-0.121
-270.340	181.819	-0.286	-0.423
-269.326	-54.921	0.055	-0.025
-268.311	176.089	-0.067	0.098
-267.297	-200.000	-0.008	-0.037
-266.282	33.395	-0.116	-0.101
-265.267	800.000	0.053	0.231
-264.253	257.787	0.128	0.221
-263.238	42.232	-0.064	-0.058
-262.224	-153.811	-0.089	-0.006
-261.209	-50.171	-0.137	-0.065
-260.195	-200.000	-0.021	0.199
-259.180	-200.000	-0.038	-0.295
-258.165	-128.810	0.171	-0.024
-257.151	-114.815	0.162	-0.031
-256.136	-70.855	-0.218	0.083
-255.122	-200.000	0.012	-0.193
-254.107	-200.000	-0.006	-0.032
-253.092	-87.439	0.123	0.037
-252.078	-56.123	0.296	0.132
-251.063	241.072	-0.088	0.147
-250.049	441.233	0.066	-0.145
-249.034	800.000	0.118	0.413
-248.019	-58.543	-0.189	0.082
-247.005	-146.522	0.302	0.026
-245.990	-90.674	-0.051	-0.015
-244.976	111.484	-0.206	0.250
-243.961	-83.983	0.273	-0.087
-242.946	362.416	0.079	-0.160
-241.932	-36.406	-0.110	-0.060
-240.917	155.573	0.060	-0.082
-239.903	45.980	0.108	-0.100
-238.888	-89.610	-0.084	-0.025
-237.873	756.124	0.041	-0.111
-236.859	-52.560	-0.330	0.153
-235.844	-54.714	0.136	0.062
-234.830	-58.618	-0.149	-0.065
-233.815	38.232	-0.254	0.227
-232.800	-152.705	0.120	0.009
-231.786	53.742	-0.169	-0.163
-230.771	302.739	0.075	0.139
-229.757	-200.000	0.025	-0.179
-228.742	95.269	0.220	0.251
-227.727	280.279	-0.141	0.252
-226.713	8.337	-0.277	-0.209
-225.698	-127.875	-0.225	-0.033
-224.684	-3.006	0.146	-0.102
-223.669	375.426	-0.144	-0.294
-222.655	-200.000	0.002	0.045
-221.640	664.117	0.190	0.491
-220.625	46.685	-0.113	0.105
-219.611	173.917	-0.274	0.397
-218.596	-114.798	0.260	0.050
-217.582	-200.000	-0.060	-0.336
-216.567	800.000	0.090	0.357
-215.552	-200.000	-0.009	0.146
-214.538	269.050	0.089	0.156
-213.523	98.733	-0.170	0.197
-212.509	1.566	0.142	0.102
-211.494	-71.642	0.207	0.078
-210.479	-200.000	-0.061	0.280
-209.465	-45.837	-0.446	0.221
-208.450	-62.365	0.247	0.103
-207.436	800.000	0.006	0.017
-206.421	12.412	-0.164	-0.126
-205.406	173.017	-0.154	-0.223
-204.392	800.000	0.067	0.248
-203.377	-37.176	0.057	0.031
-202.363	-90.307	-0.187	-0.054
-201.348	23.682	-0.110	0.091
-200.333	-106.965	-0.404	-0.090
-199.319	-120.836	0.359	0.061
-198.304	-92.755	0.334	0.094
-197.290	-89.503	-0.036	0.011
-196.275	-75.785	-0.103	0.037
-195.260	64.362	0.247	0.249
-194.246	327.501	0.049	0.095
-193.231	-180.714	0.311	0.006
-192.217	338.137	0.111	-0.217
-191.202	800.000	0.109	-0.309
-190.187	347.078	-0.083	-0.164
-189.173	800.000	0.073	-0.244
-188.158	315.988	0.038	0.072
-187.144	-38.502	0.248	-0.131
-186.129	800.000	0.051	0.217
-185.114	161.323	0.076	0.106
-184.100	174.613	0.165	-0.239
-183.085	-200.000	-0.007	-0.077
-182.071	-117.717	0.416	0.075
-181.056	800.000	0.050	-0.166
-180.042	-200.000	-0.009	0.068
-179.027	-200.000	0.012	0.085
-178.012	-7.048	0.100	0.068
-176.998	-200.000	0.003	0.193
-175.983	-66.431	-0.339	-0.135
-174.969	150.468	-0.125	0.169
-173.954	50.436	-0.023	0.022
-172.939	99.588	0.343	-0.398
-171.925	104.347	-0.095	0.112
-170.910	465.929	0.028	-0.062
-169.896	402.115	-0.133	-0.280
-168.881	-34.549	-0.177	-0.097
-167.866	206.666	0.005	-0.008
-166.852	-200.000	-0.007	0.189
-165.837	-140.429	-0.199	0.021
-164.823	163.690	0.231	0.325
-163.808	-200.000	-0.014	-0.236
-162.793	718.151	-0.078	-0.207
-161.779	299.729	-0.159	-0.293
-160.764	2.670	0.111	-0.081
-159.750	-12.566	-0.267	-0.175
-158.735	-82.764	0.198	-0.064
-157.720	182.733	0.076	-0.113
-156.706	-13.430	0.206	0.134
-155.691	-63.715	-0.116	0.048
-154.677	-200.000	0.034	0.184
-153.662	375.327	-0.032	0.066
-152.647	245.266	0.158	-0.266
-151.633	-113.375	0.078	0.015
-150.618	-34.195	-0.207	0.114
-149.604	-200.000	-0.081	0.409
-148.589	-200.000	0.006	0.398
-147.574	166.916	0.061	0.086
-146.560	522.950	-0.113	0.265
-145.545	163.409	-0.059	0.083
-144.531	133.183	0.037	-0.048
-143.516	98.358	-0.256	0.295
-142.502	-94.764	-0.263	-0.071
-141.487	25.436	-0.161	0.134
-140.472	71.487	-0.142	-0.147
-139.458	195.501	-0.052	-0.079
-138.443	-54.268	0.026	0.012
-137.429	-112.306	-0.463	-0.093
-136.414	-64.667	-0.174	-0.071
-135.399	43.113	0.364	0.332
-134.385	201.519	-0.148	-0.227
-133.370	-98.694	-0.011	0.003
-132.356	343.285	-0.074	0.145
-131.341	-100.561	-0.398	-0.098
-130.326	-37.203	0.167	0.089
-129.312	225.811	0.147	0.238
-128.297	-86.415	0.405	-0.124
-127.283	-200.000	-0.060	-0.331
-126.268	800.000	0.112	0.421
-125.253	-140.295	-0.395	-0.041
-124.239	-106.294	0.370	-0.083
-123.224	234.838	0.041	0.067
-122.210	16.854	0.003	-0.003
-121.195	-99.858	-0.250	0.063
-120.180	-32.022	-0.075	0.042
-119.166	61.996	-0.258	-0.257
-118.151	28.665	-0.148	0.125
-117.137	-200.000	0.000	0.008
-116.122	-64.329	-0.359	0.146
-115.107	377.341	-0.052	-0.106
-114.093	800.000	-0.037	0.158
-113.078	782.984	0.040	0.109
-112.064	-112.662	-0.131	0.026
-111.049	301.450	-0.099	-0.183
-110.034	207.175	-0.147	0.228
-109.020	-48.272	0.281	-0.135
-108.005	304.011	-0.221	0.409
-106.991	-72.326	0.410	0.152
-105.976	-179.068	0.074	-0.002
-104.962	-200.000	-0.077	0.385
-103.947	-200.000	0.014	0.169
-102.932	-5.103	0.205	-0.141
-101.918	13.347	0.225	-0.174
-100.903	-200.000	-0.003	0.168
-99.889	-200.000	0.066	0.296
-98.874	36.496	0.103	-0.090
-97.859	-65.662	-0.233	0.093
-96.845	-116.761	0.141	-0.026
-95.830	145.844	0.236	0.316
-94.816	95.498	-0.049	0.056
-93.801	-145.474	0.273	0.024
-92.786	-101.126	0.320	0.078
-91.772	573.620	-0.130	0.316
-90.757	-95.779	0.186	0.050
-89.743	87.304	-0.040	0.044
-88.728	609.316	-0.105	-0.261
-87.713	540.076	-0.016	-0.038
-86.699	-200.000	0.110	0.734
-85.684	800.000	-0.146	-0.463
-84.670	-200.000	0.036	0.645
-83.655	-191.000	0.131	-0.001
-82.640	-144.091	-0.331	0.031
-81.626	-143.080	-0.382	-0.037
-80.611	42.574	0.203	-0.184
-79.597	800.000	0.050	0.170
-78.582	287.526	0.191	0.344
-77.567	584.876	-0.143	-0.351
-76.553	-76.734	0.214	0.075
-75.538	-40.257	0.112	-0.058
-74.524	596.609	-0.044	0.109
-73.509	207.880	0.091	0.141
-72.494	218.519	-0.091	-0.144
-71.480	-127.444	0.163	-0.024
-70.465	46.967	-0.109	0.101
-69.451	-200.000	0.003	-0.120
-68.436	800.000	0.031	-0.099
-67.422	714.512	-0.122	0.323
-66.407	168.286	0.158	-0.225
-65.392	-200.000	0.223	0.001
-64.378	800.000	0.028	-0.109
-63.363	800.000	0.141	0.458
-62.349	-38.395	0.084	-0.044
-61.334	-9.700	-0.952	-0.632
-60.319	125.162	0.550	0.691
-59.305	-200.000	-0.028	-0.213
-58.290	319.830	0.479	0.906
-57.276	-200.000	0.382	1.728
-56.261	-200.000	77.462	514.288
-55.246	493.425	1353.915	3093.582
-54.232	143.266	2589.516	3433.012
-53.217	114.554	2241.958	2721.077
-52.203	51.457	1686.868	1596.358
-51.188	43.530	1412.026	1286.049
-50.173	40.063	1366.145	1222.814
-49.159	58.387	1402.408	1370.089
-48.144	64.405	1421.294	1426.034
-47.130	44.009	1383.375	1262.736
-46.115	40.084	1366.705	1223.255
-45.100	39.858	1362.068	1217.664
-44.086	39.712	1359.689	1214.590
-43.071	39.726	1357.521	1212.687
-42.057	39.694	1355.315	1210.475
-41.042	39.688	1353.823	1209.053
-40.027	39.855	1352.002	1208.405
-39.013	39.735	1350.223	1206.030
-37.998	39.693	1348.214	1203.931
-36.984	39.899	1346.061	1203.217
-35.969	39.819	1344.668	1201.440
-34.954	39.902	1342.730	1200.162
-33.940	40.036	1340.881	1199.278
-32.925	40.027	1339.829	1198.231
-31.911	40.007	1338.746	1197.094
-30.896	39.990	1337.184	1195.549
-29.881	39.993	1335.327	1193.861
-28.867	40.020	1334.264	1193.027
-27.852	40.025	1332.909	1191.799
-26.838	39.988	1331.437	1190.212
-25.823	39.940	1330.023	1188.610
-24.809	40.008	1328.607	1187.705
-23.794	39.944	1327.354	1186.155
-22.779	39.990	1325.254	1184.504
-21.765	40.055	1324.296	1183.991
-20.750	40.006	1322.778	1182.296
-19.736	39.936	1321.404	1180.604
-18.721	39.830	1320.418	1179.040
-17.706	39.993	1318.906	1178.614
-16.692	39.912	1317.800	1177.098
-15.677	39.915	1316.696	1176.081
-14.663	39.917	1315.445	1174.933
-13.648	39.822	1314.879	1173.817
-12.633	39.845	1313.441	1172.619
-11.619	39.811	1312.573	1171.596
-10.604	39.793	1311.621	1170.596
-9.590	39.785	1310.858	1169.820
-8.575	39.842	1309.588	1168.975
-7.560	39.917	1308.688	1168.572
-6.546	39.842	1307.786	1167.278
-5.531	39.823	1307.122	1166.524
-4.517	39.828	1306.371	1165.839
-3.502	39.845	1305.716	1165.310
-2.487	40.017	1303.954	1164.703
-1.473	39.823	1300.850	1160.742
-0.458	39.146	1285.796	1143.329
0.556	33.851	1266.972	1103.517
1.571	29.599	1270.676	1081.802
2.586	27.998	1284.929	1084.350
3.600	26.284	1272.712	1063.864
4.615	19.841	1197.197	964.845
5.629	10.049	1116.044	848.207
6.644	5.337	1092.342	805.868
7.659	4.779	1089.979	801.186
8.673	4.692	1088.421	799.520
9.688	4.585	1086.770	797.687
10.702	5.088	1086.096	799.702
11.717	10.906	1094.966	836.152
12.731	18.631	1105.339	883.953
13.746	19.653	1105.412	889.193
14.761	17.552	1102.517	875.990
15.775	16.429	1100.037	868.177
16.790	15.401	1097.718	860.999
17.804	14.679	1096.265	856.081
18.819	14.302	1094.807	852.935
19.834	13.932	1094.039	850.370
20.848	13.655	1093.594	848.530
21.863	13.504	1092.236	846.633
22.877	13.346	1091.208	844.949
23.892	13.302	1090.897	844.412
24.907	13.338	1090.089	843.893
25.921	13.489	1088.785	843.578
26.936	13.383	1087.784	842.189
27.950	13.488	1086.317	841.515
28.965	13.497	1084.525	840.095
29.980	13.646	1083.079	839.659
30.994	13.693	1081.543	838.628
32.009	13.712	1080.650	837.961
33.023	13.748	1079.722	837.348
34.038	13.613	1078.560	835.690
35.053	13.569	1077.306	834.424
36.067	13.587	1076.518	833.828
37.082	13.598	1075.811	833.263
38.096	13.553	1075.378	832.629
39.111	13.630	1074.139	831.981
40.126	13.540	1073.437	830.912
41.140	13.405	1071.837	828.926
42.155	13.219	1070.610	826.974
43.169	13.193	1069.730	826.092
44.184	13.310	1068.490	825.641
45.199	13.285	1067.576	824.741
46.213	13.365	1066.548	824.273
47.228	13.486	1065.430	823.935
48.242	13.448	1064.384	822.867
49.257	13.536	1063.058	822.202
50.271	13.505	1062.591	821.615
51.286	13.455	1061.810	820.693
52.301	13.653	1060.338	820.461
53.315	13.425	1059.822	818.863
54.330	13.412	1058.684	817.847
55.344	13.347	1057.657	816.657
56.359	13.288	1056.926	815.731
57.374	13.378	1055.981	815.372
58.388	13.347	1054.998	814.389
59.403	13.325	1054.277	813.652
60.417	13.280	1053.623	812.856
61.432	13.094	1052.920	811.327
62.447	13.207	1051.878	811.007
63.461	13.247	1050.848	810.337
64.476	13.239	1049.997	809.570
65.490	13.225	1049.043	808.696
66.505	13.224	1048.671	808.333
67.520	13.196	1048.333	807.861
68.534	13.190	1047.275	806.945
69.549	13.261	1046.437	806.575
70.563	13.148	1045.876	805.520
71.578	13.141	1044.817	804.599
72.593	12.977	1044.365	803.381
73.607	13.127	1043.198	803.145
74.622	13.097	1042.810	802.627
75.636	13.234	1042.078	802.660
76.651	13.147	1041.171	801.467
77.666	13.079	1040.860	800.827
78.680	13.140	1040.084	800.455
79.695	13.219	1039.268	800.140
80.709	13.249	1038.657	799.743
81.724	13.243	1038.190	799.281
82.739	13.362	1037.107	798.954
83.753	13.461	1036.671	799.023
84.768	13.629	1035.513	798.872
85.782	13.648	1034.735	798.292
86.797	13.504	1033.800	796.808
87.812	13.388	1033.140	795.669
88.826	13.424	1032.052	794.935
89.841	13.502	1030.980	794.414
90.855	13.713	1029.841	794.477
91.870	13.596	1029.537	793.609
92.884	13.591	1028.497	792.713
93.899	13.668	1027.425	792.185
94.914	13.616	1026.734	791.333
95.928	13.641	1025.596	790.505
96.943	13.593	1024.937	789.702
97.957	13.505	1024.081	788.552
98.972	13.562	1022.895	787.839
99.987	13.510	1022.043	786.865
101.001	13.477	1021.183	785.979
102.016	13.501	1020.439	785.451
103.030	13.556	1019.729	785.095
104.045	13.614	1018.829	784.607
105.060	13.517	1018.143	783.549
106.074	13.431	1016.877	782.100
107.089	13.401	1015.576	780.889
108.103	13.402	1015.026	780.404
109.118	13.383	1014.065	779.505
110.133	13.366	1013.262	778.738
111.147	13.348	1012.214	777.780
112.162	13.366	1011.421	777.185
113.176	13.383	1010.811	776.728
114.191	13.400	1010.279	776.329
115.206	13.398	1009.419	775.592
116.220	13.441	1008.724	775.192
117.235	13.448	1007.656	774.333
118.249	13.410	1006.222	772.986
119.264	13.349	1005.720	772.248
120.279	13.349	1004.850	771.508
121.293	13.410	1003.971	771.052
122.308	13.312	1003.051	769.819
123.322	13.202	1002.386	768.730
124.337	13.178	1001.715	768.033
125.352	13.395	999.814	767.517
126.366	13.262	999.174	766.342
127.381	13.299	997.997	765.542
128.395	13.382	996.822	764.956
129.410	13.390	996.369	764.578
130.424	13.475	995.200	764.006
131.439	13.337	994.760	762.964
132.454	13.503	993.920	763.018
133.468	13.642	992.909	762.814
134.483	13.458	992.545	761.617
135.497	13.629	991.202	761.308
136.512	13.496	990.273	759.917
137.527	13.537	989.665	759.570
138.541	13.494	988.972	758.775
139.556	13.614	988.486	758.886
140.570	13.647	987.502	758.212
141.585	13.823	986.399	758.103
142.600	13.723	985.767	757.091
143.614	13.688	985.280	756.492
144.629	13.772	984.253	756.020
145.643	13.799	983.329	755.366
146.658	13.709	982.287	754.087
147.673	13.568	981.439	752.732
148.687	13.672	980.127	752.131
149.702	13.539	979.293	750.822
150.716	13.521	978.748	750.254
151.731	13.633	977.451	749.703
152.746	13.616	976.933	749.159
153.760	13.542	976.486	748.417
154.775	13.598	976.325	748.479
155.789	13.801	975.416	748.632
156.804	13.696	974.605	747.470
157.819	13.739	973.961	747.105
158.833	13.820	973.269	746.872
159.848	13.720	972.880	746.056
160.862	13.821	971.295	745.230
161.877	13.619	970.619	743.739
162.892	13.513	969.644	742.451
163.906	13.525	968.505	741.569
164.921	13.610	967.790	741.335
165.935	13.697	966.876	740.957
166.950	13.763	965.868	740.415
167.964	13.732	964.762	739.364
168.979	13.672	964.362	738.724
169.994	13.577	963.562	737.621
171.008	13.773	962.911	737.932
172.023	13.933	961.687	737.639
173.037	13.926	961.077	737.075
174.052	13.782	960.468	735.902
175.067	13.676	959.753	734.820
176.081	13.730	958.965	734.390
177.096	13.751	958.501	734.065
178.110	13.786	958.035	733.797
179.125	13.786	957.304	733.173
180.140	13.931	956.411	733.061
181.154	13.906	955.985	732.560
182.169	13.942	955.818	732.529
183.183	14.007	954.797	731.966
184.198	13.958	954.493	731.451
185.213	14.119	953.403	731.259
186.227	14.015	952.894	730.347
187.242	13.910	952.558	729.563
188.256	14.103	951.864	729.815
189.271	14.078	951.035	729.007
190.286	13.909	950.048	727.443
191.300	13.775	949.144	726.102
192.315	13.788	948.470	725.578
193.329	13.620	948.701	724.955
194.344	13.720	947.667	724.539
195.359	13.985	946.661	724.862
196.373	13.909	946.591	724.415
197.388	14.056	945.738	724.335
198.402	14.168	945.332	724.450
199.417	14.305	944.567	724.395
200.432	14.287	943.967	723.794
201.446	14.302	943.475	723.418
202.461	14.204	943.771	723.154
203.475	14.086	942.545	721.636
204.490	14.098	941.929	721.154
205.504	14.177	940.822	720.586
206.519	14.254	939.846	720.106
207.534	14.146	939.541	719.344
208.548	14.169	938.379	718.490
209.563	14.227	937.941	718.338
210.577	14.240	937.066	717.662
211.592	14.379	936.486	717.756
212.607	14.433	935.652	717.282
213.621	14.417	934.915	716.586
214.636	14.364	934.417	715.914
215.650	14.410	933.292	715.186
216.665	14.385	932.808	714.642
217.680	14.399	932.406	714.331
218.694	14.519	931.780	714.304
219.709	14.557	930.876	713.709
220.723	14.495	930.432	713.043
221.738	14.539	929.518	712.468
222.753	14.455	928.938	711.599
223.767	14.464	928.668	711.370
224.782	14.623	927.780	711.302
225.796	14.536	927.636	710.757
226.811	14.632	926.552	710.273
227.826	14.572	925.893	709.449
228.840	14.475	925.100	708.367
229.855	14.490	924.216	707.694
230.869	14.573	923.213	707.214
231.884	14.521	922.949	706.729
232.899	14.454	922.352	705.926
233.913	14.434	921.427	705.072
234.928	14.520	920.461	704.632
235.942	14.513	920.003	704.189
236.957	14.534	919.327	703.697
237.972	14.505	919.086	703.330
238.986	14.551	918.285	702.848
240.001	14.560	917.778	702.438
241.015	14.618	916.897	701.942
242.030	14.663	916.120	701.477
243.045	14.709	915.555	701.176
244.059	14.581	915.333	700.405
245.074	14.724	914.769	700.509
246.088	14.604	914.409	699.672
247.103	14.866	913.037	699.654
248.117	14.959	912.531	699.596
249.132	14.980	911.734	699.010
250.147	15.080	911.334	699.057
251.161	14.961	911.103	698.321
252.176	15.078	910.307	698.140
253.190	15.139	909.421	697.653
254.205	15.185	908.762	697.275
255.220	15.187	907.938	696.590
256.234	15.058	907.830	695.907
257.249	15.114	906.786	695.279
258.263	15.008	906.142	694.286
259.278	15.244	905.303	694.559
260.293	15.256	904.693	694.080
261.307	15.206	904.028	693.301
262.322	15.271	903.562	693.148
263.336	15.241	902.994	692.529
264.351	15.309	901.934	691.934
265.366	15.360	901.279	691.583
266.380	15.387	900.437	690.985
267.395	15.352	900.407	690.757
268.409	15.281	899.196	689.476
269.424	15.219	898.636	688.731
270.439	15.267	897.564	688.043
271.453	15.204	896.999	687.293
272.468	15.194	896.568	686.861
273.482	15.251	895.880	686.507
274.497	15.284	895.515	686.300
275.512	15.251	894.979	685.696
276.526	15.266	894.726	685.502
277.541	15.296	893.914	684.942
278.555	15.406	893.320	684.873
279.570	15.473	892.742	684.643
280.585	15.477	891.825	683.895
281.599	15.482	890.861	683.117
282.614	15.477	890.413	682.694
283.628	15.491	889.878	682.280
284.643	15.363	889.340	681.287
285.657	15.526	888.347	681.126
286.672	15.506	887.500	680.335
287.687	15.563	887.146	680.233
288.701	15.686	886.177	679.928
289.716	15.537	886.108	679.213
290.730	15.635	885.256	678.897
291.745	15.534	884.643	677.959
292.760	15.666	883.909	677.870
293.774	15.772	883.446	677.879
294.789	15.650	882.815	676.844
295.803	15.710	882.073	676.459
296.818	15.616	881.556	675.625
297.833	15.679	880.732	675.187
298.847	15.617	879.952	674.279
299.862	15.631	879.436	673.881
300.876	15.779	878.970	674.057
301.891	15.705	878.819	673.583
302.906	15.748	878.067	673.121
303.920	15.871	877.737	673.301
304.935	15.847	876.919	672.516
305.949	15.761	876.260	671.608
306.964	15.963	875.285	671.606
307.979	15.822	875.282	670.985
308.993	15.959	874.236	670.670
310.008	16.037	873.444	670.309
311.022	16.050	873.023	669.981
312.037	15.947	872.254	668.923
313.052	15.861	871.531	667.967
314.066	15.779	871.066	667.228
315.081	15.702	870.842	666.691
316.095	15.909	869.981	666.792
317.110	15.835	869.761	666.272
318.125	15.840	869.237	665.830
319.139	15.837	868.582	665.257
320.154	15.929	867.959	665.086
321.168	15.864	867.635	664.523
322.183	16.047	867.062	664.745
323.197	15.967	866.691	664.089
324.212	15.979	865.932	663.496
325.227	15.942	865.149	662.690
326.241	15.921	864.762	662.252
327.256	15.952	864.110	661.816
328.270	16.001	863.432	661.430
329.285	15.922	863.273	660.939
330.300	15.860	862.771	660.255
331.314	15.988	862.002	660.111
332.329	16.161	861.326	660.212
333.343	16.084	861.051	659.640
334.358	16.023	860.821	659.166
335.373	16.308	860.216	659.760
336.387	16.196	859.899	659.021
337.402	16.197	859.813	658.899
338.416	16.282	859.165	658.677
339.431	16.384	858.569	658.557
340.446	16.251	858.563	657.977
341.460	16.206	858.039	657.341
342.475	16.385	857.749	657.757
343.489	16.332	857.162	657.046
344.504	16.525	856.416	657.163
345.519	16.519	856.133	656.867
346.533	16.511	855.764	656.492
347.548	16.385	855.419	655.680
348.562	16.328	854.199	654.467
349.577	16.114	854.012	653.437
350.592	16.475	852.761	653.818
351.606	16.368	852.232	652.944
352.621	16.457	851.294	652.508
353.635	16.271	851.303	651.740
354.650	16.298	850.499	651.170
355.665	16.358	850.205	651.118
356.679	16.519	849.177	650.894
357.694	16.523	848.552	650.373
358.708	16.529	848.207	650.074
359.723	16.587	847.160	649.437
360.738	16.576	846.461	648.802
361.752	16.601	846.092	648.558
362.767	16.630	845.973	648.521
363.781	16.587	845.485	647.924
364.796	16.775	844.475	647.813
365.810	16.755	844.376	647.600
366.825	16.854	844.061	647.680
367.840	16.810	843.617	647.116
368.854	16.906	842.863	646.847
369.869	16.722	842.559	645.854
370.883	16.576	842.640	645.299
371.898	16.719	842.173	645.430
372.913	16.922	841.275	645.459
373.927	16.908	840.818	645.000
374.942	16.919	840.305	644.590
375.956	16.983	839.757	644.357
376.971	17.070	839.083	644.110
377.986	17.014	838.858	643.668
379.000	17.043	838.551	643.487
380.015	17.070	838.156	643.229
381.029	17.079	837.214	642.484
382.044	16.983	836.821	641.761
383.059	16.858	836.585	641.049
384.073	17.031	835.608	640.901
385.088	17.035	834.675	640.143
386.102	17.035	834.422	639.889
387.117	16.990	833.843	639.222
388.132	16.938	833.556	638.748
389.146	17.066	832.849	638.632
390.161	17.179	832.125	638.444
391.175	17.134	831.711	637.902
392.190	17.133	831.154	637.414
393.205	17.170	830.279	636.827
394.219	17.158	830.197	636.659
395.234	17.066	829.700	635.879
396.248	16.992	829.563	635.441
397.263	16.950	829.027	634.815
398.278	16.904	828.893	634.486
399.292	17.014	828.351	634.426
400.307	16.996	827.677	633.785
401.321	16.963	827.518	633.484
402.336	17.030	826.911	633.215
403.350	17.209	826.409	633.442
404.365	17.245	825.588	632.889
405.380	17.405	825.260	633.178
406.394	17.539	824.650	633.151
407.409	17.375	824.291	632.213
408.423	17.532	824.091	632.585
409.438	17.360	823.867	631.720
410.453	17.468	823.333	631.653
411.467	17.651	822.610	631.724
412.482	17.485	822.570	631.022
413.496	17.533	822.236	630.887
414.511	17.561	821.701	630.525
415.526	17.519	821.377	630.065
416.540	17.558	820.546	629.514
417.555	17.519	820.213	629.059
418.569	17.484	819.981	628.698
419.584	17.537	819.713	628.631
420.599	17.581	818.806	628.042
421.613	93.156	1269.781	1384.939
422.628	80.039	1335.528	1385.055
