DTS Sentinel unit serial number:	SN413079Multiplexer serial number:	ORYXHardware model number:	OX4-SRSoftware version number:	ORYX F/W v4.00 Oryx Data Collector v3.7.2.0data status	okinstallation	princeton_trtdifferential loss correction	single-endedforward channel	channel 1reverse channel	N/Adate	2019/09/19time	12:34:35forward acquisition time	60.00reverse acquisition time	0.00gamma	496.2192k internal	0.2331k external	0.2331temperature offset calibration	1.0014default loss term (dB/km)	0.3790temperature slope calibration	1.0000multiplexer offset coefficient	1.0000multiplexer slope coefficient	1.0000fibre end	0.00T internal ref (°C)	27.25T ext. ref 1 (°C)	0.88T ext. ref 2 (°C)	24.95length (m)	temperature (°C)	Stokes	anti-Stokes-747.200	-66.446	-0.036	0.015
-746.185	231.289	-0.181	0.298
-745.171	52.251	-0.036	0.034
-744.156	-143.102	-0.150	-0.015
-743.142	-175.294	0.229	0.006
-742.127	-157.775	-0.162	-0.010
-741.112	-142.114	0.110	-0.011
-740.098	-56.933	-0.256	0.114
-739.083	-9.885	-0.170	0.114
-738.069	800.000	-0.023	0.098
-737.054	25.943	-0.138	-0.116
-736.039	-10.787	0.090	0.060
-735.025	120.421	-0.026	-0.033
-734.010	366.173	0.016	-0.032
-732.996	-200.000	0.011	0.105
-731.981	28.289	-0.215	0.182
-730.966	-158.791	-0.314	0.018
-729.952	800.000	0.082	-0.274
-728.937	501.707	0.039	0.090
-727.923	436.449	-0.225	-0.493
-726.908	261.416	-0.021	0.036
-725.894	-200.000	0.018	-0.319
-724.879	-200.000	0.029	-0.158
-723.864	800.000	0.022	0.071
-722.850	-78.539	-0.170	0.058
-721.835	126.899	-0.065	-0.083
-720.821	590.718	-0.136	-0.337
-719.806	-43.349	0.057	0.029
-718.791	-51.565	0.350	0.164
-717.777	-57.112	0.304	-0.135
-716.762	-118.179	0.444	-0.080
-715.748	390.829	0.088	-0.184
-714.733	184.709	0.145	0.216
-713.718	80.900	-0.250	0.271
-712.704	800.000	-0.055	-0.237
-711.689	-126.119	-0.349	-0.053
-710.675	800.000	-0.037	-0.117
-709.660	-21.692	0.235	-0.144
-708.645	8.280	0.206	-0.156
-707.631	-200.000	0.021	0.436
-706.616	-200.000	0.019	0.175
-705.602	800.000	0.050	0.180
-704.587	-136.790	-0.343	0.040
-703.572	161.117	-0.133	0.187
-702.558	46.950	0.192	0.179
-701.543	-136.194	-0.139	0.016
-700.529	800.000	0.011	-0.043
-699.514	-71.789	-0.304	-0.114
-698.499	-1.702	0.198	-0.140
-697.485	-84.704	0.436	0.138
-696.470	270.960	-0.020	-0.036
-695.456	545.817	-0.072	0.173
-694.441	-52.961	0.320	-0.148
-693.426	174.112	-0.083	-0.121
-692.412	-200.000	-0.023	-0.119
-691.397	-73.932	-0.136	0.049
-690.383	-41.463	0.102	-0.053
-689.368	800.000	-0.032	-0.096
-688.354	308.085	0.131	0.245
-687.339	210.101	-0.244	0.384
-686.324	-164.807	-0.081	0.004
-685.310	-104.086	-0.373	-0.087
-684.295	49.799	0.242	-0.229
-683.281	-200.000	0.032	-0.155
-682.266	-200.000	0.019	0.210
-681.251	60.028	-0.103	-0.102
-680.237	153.176	-0.116	0.159
-679.222	238.230	-0.083	0.138
-678.208	-115.675	0.200	0.038
-677.193	-78.130	-0.178	-0.061
-676.178	-43.814	0.226	-0.114
-675.164	404.549	-0.107	0.225
-674.149	-60.214	-0.488	-0.208
-673.135	800.000	0.072	-0.227
-672.120	301.436	-0.330	-0.611
-671.105	172.268	-0.144	-0.207
-670.091	29.161	0.321	-0.273
-669.076	49.246	-0.015	-0.014
-668.062	-200.000	-0.043	-0.315
-667.047	431.386	0.209	-0.454
-666.032	-127.162	-0.226	0.033
-665.018	294.934	0.185	-0.339
-664.003	126.858	-0.174	-0.221
-662.989	-200.000	-0.047	-0.217
-661.974	-116.261	-0.160	-0.030
-660.959	69.603	0.153	-0.158
-659.945	202.378	-0.372	-0.575
-658.930	43.973	-0.173	0.159
-657.916	-13.509	0.075	0.049
-656.901	800.000	-0.086	-0.248
-655.886	-51.441	-0.303	-0.142
-654.872	800.000	0.048	0.146
-653.857	46.415	0.062	-0.058
-652.843	-102.172	-0.248	-0.060
-651.828	511.187	-0.108	0.251
-650.814	800.000	0.101	-0.437
-649.799	-30.897	0.249	-0.141
-648.784	-148.450	-0.414	0.034
-647.770	-36.978	0.293	-0.157
-646.755	-200.000	-0.013	-0.290
-645.741	270.818	0.253	-0.447
-644.726	-200.000	-0.018	-0.185
-643.711	-70.152	-0.367	-0.140
-642.697	26.490	-0.313	-0.262
-641.682	-200.000	-0.003	-0.048
-640.668	131.490	-0.070	0.090
-639.653	30.782	-0.389	-0.334
-638.638	32.732	0.118	-0.103
-637.624	137.178	-0.185	-0.243
-636.609	-200.000	-0.009	-0.156
-635.595	2.664	-0.083	-0.060
-634.580	612.146	0.124	-0.311
-633.565	492.843	0.131	-0.301
-632.551	636.968	0.063	0.159
-631.536	195.919	0.024	-0.036
-630.522	-200.000	-0.014	0.124
-629.507	-67.304	0.138	0.054
-628.492	-109.944	0.158	0.033
-627.478	237.289	0.071	0.117
-626.463	-92.340	-0.193	0.054
-625.449	-200.000	0.061	-0.325
-624.434	-122.398	0.357	0.058
-623.419	-15.583	0.067	-0.043
-622.405	-77.900	-0.319	-0.110
-621.390	800.000	-0.055	-0.211
-620.376	-45.313	-0.309	-0.153
-619.361	-127.775	0.254	-0.037
-618.346	800.000	0.073	0.307
-617.332	122.531	-0.029	-0.036
-616.317	-161.899	0.281	0.014
-615.303	-23.384	-0.188	0.113
-614.288	-82.394	0.124	0.040
-613.273	-48.098	-0.213	-0.103
-612.259	371.929	0.146	-0.297
-611.244	-76.267	0.284	0.100
-610.230	522.277	0.111	0.261
-609.215	-100.197	-0.020	0.005
-608.201	341.212	-0.112	-0.219
-607.186	-43.274	-0.291	-0.147
-606.171	-147.837	-0.401	0.034
-605.157	217.263	-0.089	-0.143
-604.142	39.315	0.153	-0.137
-603.128	-3.267	-0.238	0.166
-602.113	-200.000	-0.007	-0.129
-601.098	-200.000	0.008	-0.242
-600.084	44.101	0.052	-0.048
-599.069	-28.882	-0.191	-0.110
-598.055	-93.398	-0.189	-0.052
-597.040	396.773	-0.129	0.269
-596.025	368.664	-0.102	0.206
-595.011	-200.000	0.017	-0.357
-593.996	-164.176	-0.191	-0.009
-592.982	-200.000	0.055	-0.302
-591.967	190.325	-0.089	0.133
-590.952	728.553	0.022	-0.060
-589.938	-200.000	-0.033	0.245
-588.923	49.691	-0.175	-0.165
-587.909	-3.529	0.153	-0.106
-586.894	-64.106	-0.226	0.092
-585.879	-68.200	-0.091	0.035
-584.865	390.539	0.076	0.159
-583.850	-24.208	-0.179	-0.107
-582.836	-74.996	-0.287	0.103
-581.821	157.328	-0.115	-0.159
-580.806	32.952	0.212	0.183
-579.792	285.974	0.026	-0.046
-578.777	800.000	0.035	-0.108
-577.763	275.611	0.078	0.138
-576.748	363.327	0.058	0.117
-575.733	800.000	-0.085	-0.236
-574.719	58.975	-0.053	-0.052
-573.704	-163.514	0.378	0.018
-572.690	-19.058	0.154	-0.096
-571.675	-200.000	-0.076	0.363
-570.661	800.000	0.061	0.238
-569.646	-198.167	-0.070	0.000
-568.631	280.183	0.129	0.230
-567.617	-57.378	-0.210	0.092
-566.602	-72.016	0.216	-0.080
-565.588	-87.001	-0.404	-0.123
-564.573	-50.776	0.311	0.146
-563.558	192.060	0.133	-0.201
-562.544	800.000	0.106	0.337
-561.529	-41.849	0.165	-0.085
-560.515	-200.000	0.033	-0.316
-559.500	-51.171	-0.106	-0.050
-558.485	-200.000	0.008	-0.404
-557.471	-64.823	-0.169	-0.068
-556.456	-200.000	0.032	-0.366
-555.442	34.169	0.092	-0.080
-554.427	-200.000	-0.005	0.118
-553.412	-11.419	-0.242	-0.159
-552.398	-200.000	0.034	-0.186
-551.383	138.274	-0.131	-0.172
-550.369	800.000	-0.074	0.279
-549.354	277.064	-0.068	-0.121
-548.339	380.624	0.050	0.103
-547.325	-120.779	0.152	-0.026
-546.310	-151.554	-0.244	-0.018
-545.296	-133.105	-0.491	0.062
-544.281	302.339	0.081	0.150
-543.266	4.238	-0.124	-0.090
-542.252	25.445	-0.357	-0.296
-541.237	-200.000	-0.025	0.127
-540.223	-88.261	-0.144	0.043
-539.208	-200.000	-0.036	0.186
-538.193	800.000	0.068	-0.292
-537.179	4.512	-0.094	-0.069
-536.164	-200.000	-0.013	-0.184
-535.150	176.066	0.006	-0.008
-534.135	-200.000	-0.002	-0.085
-533.121	-86.319	0.192	0.059
-532.106	45.803	-0.189	-0.174
-531.091	437.555	-0.116	0.253
-530.077	48.106	0.053	0.050
-529.062	593.754	-0.122	-0.301
-528.048	-70.829	0.298	0.112
-527.033	-145.717	0.232	-0.021
-526.018	143.285	-0.122	-0.162
-525.004	65.387	0.279	0.282
-523.989	800.000	0.050	0.206
-522.975	58.253	0.171	0.167
-521.960	-117.818	-0.259	-0.046
-520.945	247.741	0.104	0.176
-519.931	615.794	-0.117	0.292
-518.916	-70.394	-0.210	-0.079
-517.902	-102.543	0.049	-0.012
-516.887	28.850	0.137	0.115
-515.872	-200.000	-0.010	-0.077
-514.858	-123.923	-0.142	0.022
-513.843	20.294	0.114	0.092
-512.829	72.294	0.167	0.173
-511.814	800.000	0.072	0.287
-510.799	-18.299	-0.086	0.054
-509.785	110.108	-0.055	0.066
-508.770	-93.455	0.474	-0.131
-507.756	800.000	0.072	-0.283
-506.741	-141.740	-0.288	-0.029
-505.726	-200.000	0.013	0.066
-504.712	-14.800	-0.019	0.012
-503.697	-200.000	-0.010	-0.085
-502.683	800.000	0.042	-0.178
-501.668	800.000	0.065	-0.181
-500.653	171.571	0.225	-0.322
-499.639	-129.502	-0.297	0.041
-498.624	111.092	0.261	-0.313
-497.610	800.000	-0.133	0.436
-496.595	-106.412	0.162	0.036
-495.581	-144.013	0.060	0.006
-494.566	15.275	-0.280	-0.219
-493.551	-200.000	-0.005	-0.100
-492.537	83.822	0.139	0.151
-491.522	128.641	-0.149	0.189
-490.508	26.849	-0.239	0.199
-489.493	-200.000	0.021	-0.199
-488.478	-200.000	0.003	0.212
-487.464	-200.000	0.028	0.260
-486.449	800.000	-0.059	-0.195
-485.435	-116.993	0.285	0.052
-484.420	-100.658	0.461	-0.113
-483.405	592.871	0.071	-0.175
-482.391	800.000	-0.021	0.084
-481.376	-13.182	0.079	0.051
-480.362	223.115	0.157	-0.252
-479.347	12.033	0.201	-0.154
-478.332	-111.992	-0.117	0.023
-477.318	-91.237	0.255	-0.073
-476.303	9.501	0.379	0.286
-475.289	45.085	-0.158	0.145
-474.274	800.000	0.066	-0.203
-473.259	-54.019	0.089	-0.040
-472.245	192.976	-0.146	-0.220
-471.230	800.000	0.102	0.328
-470.216	-200.000	0.004	-0.223
-469.201	-200.000	0.012	-0.055
-468.186	35.373	0.022	0.019
-467.172	99.938	-0.148	-0.171
-466.157	-63.532	-0.141	0.058
-465.143	303.361	0.078	0.143
-464.128	-91.724	-0.105	0.030
-463.113	136.863	0.096	0.125
-462.099	800.000	0.048	0.186
-461.084	-200.000	-0.032	-0.252
-460.070	13.652	0.291	0.225
-459.055	800.000	0.082	0.292
-458.040	800.000	0.083	0.347
-457.026	28.207	-0.200	-0.168
-456.011	306.112	0.089	0.165
-454.997	13.289	-0.154	-0.119
-453.982	-200.000	0.073	0.374
-452.968	-86.050	0.230	-0.071
-451.953	-64.918	-0.094	0.038
-450.938	800.000	-0.042	0.144
-449.924	-125.848	0.126	0.019
-448.909	-200.000	-0.029	-0.226
-447.895	347.030	-0.096	0.187
-446.880	800.000	0.069	0.279
-445.865	-94.734	0.096	0.026
-444.851	-31.592	-0.185	0.103
-443.836	-200.000	-0.082	-0.497
-442.822	281.418	-0.080	-0.143
-441.807	-130.140	-0.145	0.020
-440.792	-200.000	0.015	-0.244
-439.778	-123.779	0.328	-0.052
-438.763	21.457	-0.151	-0.122
-437.749	334.002	-0.134	-0.258
-436.734	-31.279	-0.211	-0.118
-435.719	29.901	-0.095	-0.080
-434.705	-121.548	-0.129	-0.021
-433.690	30.798	0.130	-0.110
-432.676	-200.000	-0.012	0.286
-431.661	-93.180	0.291	0.080
-430.646	-200.000	-0.047	-0.475
-429.632	738.696	0.096	-0.256
-428.617	-37.345	0.134	0.071
-427.603	-122.904	-0.284	-0.046
-426.588	681.205	-0.156	0.403
-425.573	701.695	0.122	-0.319
-424.559	-71.579	0.161	-0.060
-423.544	527.811	-0.077	-0.181
-422.530	-99.079	0.135	0.034
-421.515	11.970	0.047	-0.036
-420.500	-200.000	0.068	0.411
-419.486	-158.300	0.227	-0.013
-418.471	161.522	-0.209	0.291
-417.457	226.217	-0.083	-0.134
-416.442	211.579	-0.179	-0.279
-415.428	24.334	-0.198	0.163
-414.413	-2.650	0.160	-0.111
-413.398	105.974	-0.253	0.297
-412.384	800.000	-0.019	0.065
-411.369	-110.386	-0.432	0.089
-410.355	623.592	0.158	0.396
-409.340	264.108	0.197	0.341
-408.325	-121.423	0.173	0.029
-407.311	114.038	-0.150	-0.182
-406.296	800.000	-0.012	0.038
-405.282	-156.400	-0.246	0.015
-404.267	200.551	-0.091	0.139
-403.252	-78.359	0.264	-0.090
-402.238	644.877	0.086	-0.219
-401.223	-177.218	0.255	-0.006
-400.209	113.983	0.039	0.047
-399.194	-94.656	-0.157	0.042
-398.179	-128.154	0.178	-0.025
-397.165	7.747	-0.338	0.252
-396.150	86.519	0.232	-0.254
-395.136	-155.981	0.333	-0.021
-394.121	-28.216	-0.388	0.223
-393.106	83.521	-0.071	0.076
-392.092	-102.306	0.204	0.049
-391.077	-200.000	0.006	-0.111
-390.063	55.458	0.227	-0.218
-389.048	46.232	-0.054	0.049
-388.033	-18.782	-0.242	-0.149
-387.019	800.000	0.102	-0.304
-386.004	800.000	-0.111	-0.381
-384.990	521.772	-0.176	0.410
-383.975	-200.000	0.010	-0.307
-382.960	-200.000	0.066	-0.467
-381.946	104.773	-0.094	-0.110
-380.931	774.004	0.082	-0.222
-379.917	45.767	0.201	0.184
-378.902	476.988	-0.064	-0.143
-377.888	-200.000	0.015	0.304
-376.873	5.468	-0.252	-0.184
-375.858	130.673	-0.009	-0.012
-374.844	39.676	0.161	0.143
-373.829	-43.428	0.181	0.091
-372.815	-28.294	0.045	0.026
-371.800	-31.045	-0.240	-0.134
-370.785	-108.658	-0.222	-0.047
-369.771	-200.000	-0.004	-0.194
-368.756	-200.000	-0.009	0.084
-367.742	616.168	0.115	-0.287
-366.727	-121.950	0.083	0.013
-365.712	-94.489	-0.131	0.035
-364.698	-108.961	-0.465	-0.098
-363.683	141.482	0.195	-0.256
-362.669	402.899	-0.109	-0.228
-361.654	800.000	0.066	-0.263
-360.639	-200.000	-0.027	-0.334
-359.625	262.468	0.190	0.327
-358.610	800.000	-0.029	-0.122
-357.596	38.541	-0.420	-0.371
-356.581	-200.000	0.011	0.475
-355.566	-200.000	-0.023	0.439
-354.552	201.478	0.250	0.382
-353.537	-50.356	-0.381	0.178
-352.523	-115.244	0.374	-0.070
-351.508	574.636	-0.049	0.119
-350.493	260.683	-0.151	0.259
-349.479	-33.035	0.266	0.146
-348.464	21.335	0.042	0.034
-347.450	-124.291	0.249	-0.039
-346.435	6.494	-0.288	-0.212
-345.420	800.000	-0.100	0.282
-344.406	19.078	0.142	-0.113
-343.391	15.234	0.258	-0.200
-342.377	800.000	0.033	0.140
-341.362	-122.960	-0.131	0.021
-340.348	-112.725	0.339	-0.067
-339.333	800.000	-0.080	0.273
-338.318	800.000	-0.084	-0.296
-337.304	34.574	0.046	-0.039
-336.289	-72.651	0.280	-0.102
-335.275	-33.541	-0.324	0.177
-334.260	63.806	0.041	0.041
-333.245	-141.367	-0.273	-0.027
-332.231	-100.285	-0.600	-0.147
-331.216	-200.000	-0.011	0.053
-330.202	-200.000	0.085	-0.384
-329.187	152.198	-0.109	0.147
-328.172	-61.374	0.293	-0.122
-327.158	800.000	-0.070	0.203
-326.143	-200.000	-0.006	0.094
-325.129	522.059	-0.135	-0.314
-324.114	800.000	-0.011	-0.045
-323.099	-87.250	-0.230	0.069
-322.085	-136.817	-0.205	-0.023
-321.070	-1.179	0.156	-0.109
-320.056	11.188	-0.197	-0.150
-319.041	-99.656	0.260	0.065
-318.026	361.973	-0.065	-0.129
-317.012	-172.311	0.091	-0.003
-315.997	30.018	0.194	-0.164
-314.983	177.869	0.060	-0.087
-313.968	195.419	0.106	0.160
-312.953	38.277	-0.188	0.166
-311.939	345.783	0.052	0.102
-310.924	172.365	-0.074	0.106
-309.910	-200.000	0.008	-0.059
-308.895	800.000	0.063	0.183
-307.880	145.329	0.051	0.067
-306.866	55.746	-0.107	0.102
-305.851	-50.618	-0.121	0.057
-304.837	-127.640	0.148	0.021
-303.822	-200.000	0.005	0.154
-302.807	93.765	0.137	0.153
-301.793	-65.180	-0.156	0.062
-300.778	73.875	0.179	-0.186
-299.764	619.304	0.045	0.113
-298.749	-177.905	0.165	-0.004
-297.735	-200.000	0.007	-0.073
-296.720	123.408	-0.157	-0.194
-295.705	-6.035	0.201	0.136
-294.691	10.894	0.140	-0.106
-293.676	376.015	-0.070	0.141
-292.662	68.586	0.176	-0.179
-291.647	140.766	-0.142	-0.185
-290.632	628.896	0.038	-0.095
-289.618	-200.000	-0.272	0.001
-288.603	800.000	0.079	0.339
-287.589	21.050	0.126	-0.101
-286.574	-64.985	-0.267	-0.107
-285.559	128.310	0.087	0.110
-284.545	682.300	-0.025	-0.065
-283.530	4.202	-0.107	0.077
-282.516	-200.000	0.003	0.534
-281.501	-90.172	-0.086	0.025
-280.486	-75.267	0.080	0.028
-279.472	-166.815	0.176	-0.007
-278.457	69.832	-0.121	0.123
-277.443	-117.111	-0.307	-0.055
-276.428	-86.092	-0.293	0.089
-275.413	61.147	-0.364	0.357
-274.399	-200.000	-0.050	-0.239
-273.384	-20.647	0.115	0.069
-272.370	-65.754	-0.143	0.057
-271.355	518.898	-0.091	0.211
-270.340	-82.945	0.110	-0.035
-269.326	-62.348	-0.224	0.092
-268.311	-196.198	0.245	-0.002
-267.297	12.898	0.215	-0.164
-266.282	286.702	-0.047	0.083
-265.267	800.000	-0.102	0.357
-264.253	-200.000	0.054	-0.233
-263.238	-34.676	-0.114	0.062
-262.224	34.094	-0.163	0.140
-261.209	-128.145	0.458	0.065
-260.195	-66.429	-0.159	-0.062
-259.180	-174.380	-0.335	-0.010
-258.165	105.081	0.050	0.058
-257.151	-95.178	-0.232	0.062
-256.136	421.688	-0.062	0.131
-255.122	-141.949	-0.202	-0.020
-254.107	207.192	0.058	-0.089
-253.092	-84.189	0.347	-0.108
-252.078	-31.007	0.071	0.040
-251.063	-103.555	-0.233	-0.054
-250.049	-81.387	0.101	0.033
-249.034	484.337	-0.046	0.104
-248.019	-25.727	-0.159	0.093
-247.005	-200.000	-0.012	0.235
-245.990	-174.455	-0.280	-0.008
-244.976	-200.000	-0.037	0.190
-243.961	-72.404	-0.135	-0.049
-242.946	-10.232	0.238	-0.156
-241.932	-165.745	0.172	-0.007
-240.917	51.668	-0.189	-0.178
-239.903	150.112	0.099	-0.132
-238.888	-68.144	0.136	0.052
-237.873	53.803	0.157	-0.149
-236.859	-200.000	0.013	0.293
-235.844	-50.231	0.243	-0.113
-234.830	232.921	-0.076	-0.123
-233.815	-119.250	-0.421	0.072
-232.800	-162.953	0.122	-0.006
-231.786	-200.000	-0.020	0.340
-230.771	-200.000	-0.048	0.355
-229.757	230.521	0.118	0.191
-228.742	296.099	0.088	0.160
-227.727	-200.000	-0.011	0.066
-226.713	800.000	0.082	0.266
-225.698	-200.000	0.044	-0.229
-224.684	141.677	0.226	-0.295
-223.669	73.817	0.225	0.233
-222.655	-89.414	0.101	0.029
-221.640	-56.493	0.318	0.139
-220.625	44.602	-0.068	0.062
-219.611	-23.352	-0.118	0.070
-218.596	-200.000	0.017	0.168
-217.582	40.963	0.085	0.076
-216.567	33.169	-0.072	0.061
-215.552	267.371	-0.119	0.206
-214.538	45.523	0.343	0.312
-213.523	-41.920	-0.294	0.149
-212.509	-0.897	0.188	-0.131
-211.494	-28.418	0.191	-0.109
-210.479	-200.000	-0.039	0.211
-209.465	-58.136	0.207	-0.089
-208.450	171.984	0.104	-0.147
-207.436	88.403	-0.082	0.090
-206.421	208.582	0.175	0.270
-205.406	-145.324	-0.327	0.029
-204.392	18.077	-0.086	0.068
-203.377	219.039	0.102	0.161
-202.363	-101.622	0.083	0.020
-201.348	100.218	-0.243	-0.277
-200.333	699.792	-0.058	-0.151
-199.319	257.492	0.059	-0.100
-198.304	190.811	0.181	0.267
-197.290	-94.172	0.124	0.034
-196.275	-75.124	0.397	0.140
-195.260	166.194	0.199	-0.278
-194.246	-135.735	0.310	-0.036
-193.231	-57.239	0.310	-0.134
-192.217	-200.000	0.048	-0.217
-191.202	-200.000	0.040	0.252
-190.187	382.017	-0.107	-0.215
-189.173	800.000	-0.007	0.021
-188.158	-0.082	-0.084	-0.059
-187.144	65.737	0.146	-0.146
-186.129	102.049	0.113	0.130
-185.114	132.430	-0.088	-0.112
-184.100	-159.120	0.474	-0.026
-183.085	-200.000	-0.032	-0.168
-182.071	-189.284	0.208	-0.002
-181.056	-200.000	0.020	0.332
-180.042	-200.000	0.020	-0.296
-179.027	800.000	-0.034	-0.117
-178.012	-200.000	0.015	0.084
-176.998	-51.051	0.449	0.207
-175.983	13.152	-0.183	-0.140
-174.969	-4.651	0.093	-0.063
-173.954	800.000	0.076	0.217
-172.939	800.000	0.053	0.163
-171.925	-200.000	-0.007	0.094
-170.910	-85.044	0.221	-0.068
-169.896	20.914	-0.045	0.036
-168.881	-65.603	0.021	0.008
-167.866	471.612	0.092	-0.204
-166.852	-7.914	-0.236	0.157
-165.837	-200.000	-0.019	0.173
-164.823	800.000	0.040	0.158
-163.808	-200.000	0.044	0.204
-162.793	120.227	-0.169	0.206
-161.779	-101.038	-0.420	-0.101
-160.764	357.115	-0.092	0.180
-159.750	800.000	-0.037	0.143
-158.735	-200.000	-0.108	0.547
-157.720	235.293	0.074	0.121
-156.706	-200.000	0.030	-0.243
-155.691	-200.000	0.049	-0.261
-154.677	-200.000	0.022	0.130
-153.662	-200.000	-0.025	0.258
-152.647	-24.188	-0.125	0.074
-151.633	-200.000	0.005	-0.206
-150.618	-200.000	-0.011	0.146
-149.604	-101.985	-0.189	0.045
-148.589	-200.000	0.010	-0.262
-147.574	152.542	0.118	-0.158
-146.560	-17.577	-0.371	0.229
-145.545	-146.951	-0.205	-0.017
-144.531	-60.135	0.170	-0.071
-143.516	-5.696	0.068	-0.046
-142.502	-134.447	-0.091	0.011
-141.487	599.874	0.030	0.072
-140.472	130.696	0.273	0.345
-139.458	-19.771	-0.163	0.099
-138.443	124.289	-0.184	0.227
-137.429	-52.386	-0.404	0.184
-136.414	-103.529	0.198	-0.046
-135.399	80.028	0.061	-0.064
-134.385	350.195	0.195	-0.378
-133.370	-137.159	-0.337	-0.038
-132.356	-200.000	0.039	-0.412
-131.341	-21.506	0.203	0.122
-130.326	-107.094	0.365	0.079
-129.312	155.143	0.147	-0.199
-128.297	-200.000	-0.010	0.549
-127.283	-141.856	0.136	0.013
-126.268	-100.975	0.279	0.067
-125.253	36.744	0.123	-0.107
-124.239	-165.078	-0.156	0.007
-123.224	800.000	0.063	-0.196
-122.210	800.000	0.048	-0.150
-121.195	-20.490	0.063	-0.038
-120.180	-161.220	0.191	0.010
-119.166	109.511	-0.220	0.258
-118.151	-100.770	0.334	-0.081
-117.137	800.000	-0.085	-0.324
-116.122	160.427	0.115	0.157
-115.107	800.000	0.057	0.210
-114.093	50.336	0.090	0.084
-113.078	800.000	0.040	-0.159
-112.064	-66.936	0.087	-0.034
-111.049	270.107	-0.079	-0.136
-110.034	32.307	0.105	-0.089
-109.020	104.764	0.080	0.093
-108.005	167.858	-0.140	0.196
-106.991	42.049	0.094	-0.084
-105.976	-122.590	-0.272	0.043
-104.962	800.000	-0.054	-0.184
-103.947	-54.428	-0.213	0.095
-102.932	376.503	-0.046	0.093
-101.918	-103.751	0.236	-0.054
-100.903	233.443	-0.118	-0.191
-99.889	-25.586	-0.021	-0.012
-98.874	-113.481	-0.279	-0.054
-97.859	-36.867	-0.169	0.089
-96.845	167.186	0.045	-0.063
-95.830	-175.037	-0.156	0.004
-94.816	800.000	-0.114	0.376
-93.801	-51.056	0.415	-0.191
-92.786	-200.000	0.058	-0.275
-91.772	-19.046	0.072	0.044
-90.757	-200.000	-0.001	0.258
-89.743	-91.999	0.308	-0.085
-88.728	-126.274	0.450	0.066
-87.713	-200.000	-0.038	0.344
-86.699	-200.000	-0.013	0.240
-85.684	113.624	0.095	-0.114
-84.670	44.305	-0.095	0.086
-83.655	-2.234	-0.093	0.064
-82.640	-8.231	-0.254	0.168
-81.626	800.000	-0.116	0.451
-80.611	-200.000	0.029	0.185
-79.597	-81.835	0.083	0.027
-78.582	-70.486	-0.057	-0.021
-77.567	103.032	-0.031	-0.036
-76.553	-200.000	0.044	0.446
-75.538	800.000	0.092	0.249
-74.524	-93.765	0.103	-0.028
-73.509	688.880	0.060	-0.153
-72.494	-59.791	0.155	0.065
-71.480	-125.857	-0.203	-0.030
-70.465	-2.820	-0.142	0.097
-69.451	525.673	-0.053	-0.121
-68.436	-76.655	0.157	-0.054
-67.422	800.000	-0.048	0.131
-66.407	-138.285	0.137	-0.015
-65.392	10.428	0.341	-0.254
-64.378	-187.730	-0.551	0.007
-63.363	-52.655	0.225	0.102
-62.349	-55.920	-0.032	-0.014
-61.334	62.604	-0.888	-0.870
-60.319	176.244	0.464	0.660
-59.305	800.000	-0.326	-1.099
-58.290	550.087	0.501	1.176
-57.276	205.918	0.881	1.342
-56.261	-200.000	111.605	622.534
-55.246	435.044	1527.463	3253.214
-54.232	141.441	2718.161	3524.527
-53.217	102.790	2194.656	2516.133
-52.203	39.011	1631.539	1428.318
-51.188	30.407	1373.430	1149.342
-50.173	27.675	1334.793	1100.506
-49.159	54.516	1391.112	1312.823
-48.144	53.410	1405.315	1319.385
-47.130	30.909	1360.183	1141.147
-46.115	27.416	1342.823	1105.377
-45.100	27.121	1337.930	1099.522
-44.086	27.065	1335.730	1097.328
-43.071	27.058	1332.969	1094.977
-42.057	27.099	1330.895	1093.475
-41.042	27.133	1329.438	1092.442
-40.027	27.211	1327.723	1091.453
-39.013	27.143	1326.022	1089.607
-37.998	27.146	1323.919	1087.852
-36.984	27.133	1322.401	1086.485
-35.969	27.342	1320.165	1085.850
-34.954	27.315	1318.525	1084.298
-33.940	27.260	1317.911	1083.424
-32.925	27.410	1315.978	1082.683
-31.911	27.347	1314.663	1081.187
-30.896	27.456	1312.774	1080.235
-29.881	27.282	1312.346	1078.805
-28.867	27.433	1309.864	1077.616
-27.852	27.301	1309.387	1076.401
-26.838	27.358	1307.706	1075.313
-25.823	27.291	1306.284	1073.707
-24.809	27.330	1305.232	1073.027
-23.794	27.325	1303.652	1071.656
-22.779	27.252	1302.156	1069.957
-21.765	27.403	1300.948	1069.808
-20.750	27.309	1299.800	1068.269
-19.736	27.281	1298.373	1066.890
-18.721	27.283	1297.040	1065.766
-17.706	27.295	1296.126	1065.041
-16.692	27.227	1294.953	1063.639
-15.677	27.193	1293.652	1062.331
-14.663	27.200	1292.663	1061.518
-13.648	27.184	1291.401	1060.341
-12.633	27.197	1290.517	1059.651
-11.619	27.166	1289.424	1058.532
-10.604	27.049	1289.088	1057.534
-9.590	27.289	1287.137	1057.285
-8.575	27.180	1286.373	1055.983
-7.560	27.140	1285.554	1055.034
-6.546	27.072	1285.057	1054.190
-5.531	27.140	1283.888	1053.586
-4.517	27.172	1283.202	1053.164
-3.502	27.240	1282.309	1052.786
-2.487	27.234	1281.157	1051.762
-1.473	27.340	1277.163	1049.055
-0.458	26.354	1263.406	1032.083
0.556	22.826	1247.131	998.974
1.571	19.176	1253.884	983.493
2.586	17.950	1268.938	988.123
3.600	17.346	1256.642	974.997
4.615	12.830	1181.800	892.449
5.629	4.780	1105.644	793.941
6.644	1.080	1085.992	761.204
7.659	0.788	1084.102	758.346
8.673	0.753	1083.042	757.363
9.688	0.899	1081.492	756.941
10.702	1.005	1079.648	756.113
11.717	5.549	1085.209	782.701
12.731	12.904	1094.938	826.641
13.746	16.648	1099.461	848.793
14.761	17.245	1100.164	852.254
15.775	16.603	1097.944	847.244
16.790	15.538	1096.243	840.529
17.804	14.999	1094.247	836.233
18.819	14.544	1093.481	833.298
19.834	14.347	1092.755	831.690
20.848	14.047	1091.753	829.358
21.863	13.809	1090.543	827.177
22.877	13.756	1089.864	826.328
23.892	13.866	1088.479	825.751
24.907	13.661	1088.358	824.567
25.921	13.687	1087.402	823.895
26.936	13.753	1086.781	823.682
27.950	13.703	1085.618	822.477
28.965	13.728	1084.563	821.732
29.980	13.723	1083.310	820.683
30.994	13.944	1081.979	820.696
32.009	13.883	1081.138	819.681
33.023	13.902	1079.717	818.627
34.038	13.954	1078.892	818.187
35.053	13.828	1078.184	816.954
36.067	13.806	1077.109	815.962
37.082	13.801	1076.320	815.266
38.096	13.810	1075.601	814.696
39.111	13.798	1074.819	813.971
40.126	13.771	1073.148	812.502
41.140	13.694	1072.483	811.548
42.155	13.675	1071.050	810.300
43.169	13.585	1070.233	809.172
44.184	13.613	1069.016	808.313
45.199	13.690	1068.277	808.063
46.213	13.613	1067.415	806.964
47.228	13.729	1065.863	806.280
48.242	13.637	1065.019	805.126
49.257	13.805	1063.307	804.572
50.271	13.843	1062.601	804.154
51.286	13.842	1061.832	803.494
52.301	13.750	1061.039	802.380
53.315	13.719	1060.039	801.399
54.330	13.719	1058.699	800.318
55.344	13.697	1057.843	799.495
56.359	13.676	1057.237	798.865
57.374	13.794	1056.057	798.469
58.388	13.662	1055.308	797.199
59.403	13.654	1054.753	796.671
60.417	13.709	1053.581	795.978
61.432	13.567	1053.024	794.807
62.447	13.501	1051.988	793.639
63.461	13.505	1051.508	793.224
64.476	13.583	1049.854	792.276
65.490	13.500	1049.558	791.590
66.505	13.592	1048.693	791.304
67.520	13.717	1047.898	791.231
68.534	13.682	1047.327	790.564
69.549	13.601	1046.337	789.359
70.563	13.621	1045.667	788.880
71.578	13.681	1044.997	788.589
72.593	13.587	1044.224	787.492
73.607	13.545	1043.899	786.976
74.622	13.577	1042.703	786.159
75.636	13.591	1042.193	785.770
76.651	13.544	1041.213	784.738
77.666	13.509	1040.984	784.330
78.680	13.590	1040.144	784.010
79.695	13.641	1038.829	783.191
80.709	13.652	1038.855	783.195
81.724	13.589	1038.194	782.330
82.739	13.641	1037.060	781.650
83.753	13.686	1036.420	781.310
84.768	13.733	1035.712	780.929
85.782	13.665	1034.551	779.663
86.797	13.743	1033.856	779.439
87.812	13.763	1032.891	778.737
88.826	13.695	1031.970	777.656
89.841	13.710	1030.757	776.741
90.855	13.824	1029.953	776.602
91.870	13.804	1029.051	775.757
92.884	13.901	1027.964	775.324
93.899	13.734	1027.829	774.372
94.914	13.780	1026.745	773.701
95.928	13.955	1025.346	773.396
96.943	13.735	1024.872	771.946
97.957	13.822	1023.963	771.596
98.972	13.788	1023.423	770.965
99.987	13.813	1022.421	770.254
101.001	13.746	1021.423	769.124
102.016	13.974	1019.771	768.872
103.030	13.775	1019.560	767.721
104.045	13.877	1018.681	767.464
105.060	13.784	1017.730	766.251
106.074	13.703	1017.087	765.321
107.089	13.744	1015.632	764.352
108.103	13.728	1014.727	763.530
109.118	13.662	1014.216	762.771
110.133	13.668	1013.202	761.971
111.147	13.696	1012.148	761.239
112.162	13.770	1011.032	760.671
113.176	13.734	1010.815	760.276
114.191	13.752	1010.484	760.040
115.206	13.667	1009.698	758.992
116.220	13.904	1007.966	758.707
117.235	13.789	1006.964	757.360
118.249	13.656	1006.694	756.486
119.264	13.747	1006.034	756.337
120.279	13.774	1004.929	755.561
121.293	13.670	1004.149	754.435
122.308	13.698	1003.324	753.875
123.322	13.780	1002.027	753.208
124.337	13.674	1001.210	752.043
125.352	13.726	1000.098	751.378
126.366	13.771	998.792	750.536
127.381	13.756	997.990	749.798
128.395	13.754	997.054	749.017
129.410	13.768	996.254	748.417
130.424	13.830	994.927	747.632
131.439	13.874	994.157	747.186
132.454	13.813	993.587	746.417
133.468	13.825	992.670	745.714
134.483	13.787	991.981	744.960
135.497	13.747	991.022	743.996
136.512	13.759	989.955	743.182
137.527	13.903	989.264	743.244
138.541	13.782	988.325	741.932
139.556	13.880	987.788	741.898
140.570	13.864	987.127	741.266
141.585	13.928	986.094	740.709
142.600	14.063	985.229	740.597
143.614	13.857	984.678	739.201
144.629	13.974	983.866	739.045
145.643	13.882	983.011	737.928
146.658	14.092	981.160	737.403
147.673	13.893	980.548	736.000
148.687	13.895	980.166	735.655
149.702	13.904	979.271	734.959
150.716	14.027	977.979	734.468
151.731	13.886	977.838	733.674
152.746	13.914	977.280	733.313
153.760	13.999	976.248	732.848
154.775	14.123	975.388	732.685
155.789	14.012	975.443	732.174
156.804	14.115	974.434	731.801
157.819	14.086	973.452	730.874
158.833	14.149	972.784	730.583
159.848	14.063	972.390	729.846
160.862	14.264	971.060	729.666
161.877	14.089	970.320	728.277
162.892	14.146	969.326	727.717
163.906	14.101	968.332	726.710
164.921	14.078	967.729	726.090
165.935	14.196	966.510	725.626
166.950	14.090	965.674	724.472
167.964	14.171	964.697	724.028
168.979	14.366	963.426	723.856
169.994	14.160	962.724	722.371
171.008	14.050	962.617	721.750
172.023	14.261	961.280	721.598
173.037	14.082	960.977	720.532
174.052	14.142	960.045	720.028
175.067	14.188	959.833	720.007
176.081	14.109	959.250	719.162
177.096	14.111	958.769	718.749
178.110	14.226	957.677	718.360
179.125	14.229	957.584	718.239
180.140	14.229	956.720	717.531
181.154	14.275	956.528	717.521
182.169	14.146	955.892	716.423
183.183	14.456	954.926	716.968
184.198	14.248	954.542	715.724
185.213	14.328	953.568	715.274
186.227	14.474	952.637	715.141
187.242	14.419	952.091	714.431
188.256	14.437	951.366	713.902
189.271	14.426	950.478	713.124
190.286	14.389	949.669	712.295
191.300	14.382	949.054	711.741
192.315	14.342	948.922	711.406
193.329	14.415	947.628	710.687
194.344	14.318	947.238	709.918
195.359	14.387	946.756	709.789
196.373	14.390	946.409	709.476
197.388	14.341	946.174	709.031
198.402	14.400	945.169	708.466
199.417	14.635	944.386	708.814
200.432	14.555	944.034	708.148
201.446	14.609	943.110	707.618
202.461	14.631	942.820	707.434
203.475	14.668	942.200	707.060
204.490	14.590	941.567	706.192
205.504	14.598	940.609	705.445
206.519	14.665	939.589	704.901
207.534	14.684	939.068	704.528
208.548	14.617	938.441	703.713
209.563	14.587	938.094	703.265
210.577	14.726	936.916	702.904
211.592	14.680	936.697	702.486
212.607	14.805	935.655	702.168
213.621	14.791	934.434	701.132
214.636	14.875	934.166	701.218
215.650	14.930	933.162	700.634
216.665	14.941	932.605	700.198
217.680	14.842	932.018	699.281
218.694	14.765	931.442	698.466
219.709	14.890	930.555	698.262
220.723	14.823	930.167	697.630
221.738	14.724	929.823	696.895
222.753	14.860	928.704	696.561
223.767	14.896	928.178	696.256
224.782	15.056	927.179	696.112
225.796	15.009	927.037	695.748
226.811	14.889	926.371	694.689
227.826	14.944	925.382	694.113
228.840	15.047	924.604	693.892
229.855	14.965	924.238	693.219
230.869	14.958	922.907	692.129
231.884	15.042	922.557	692.155
232.899	14.884	921.685	690.783
233.913	15.121	920.880	691.097
234.928	14.941	920.609	690.092
235.942	14.942	919.890	689.494
236.957	15.002	919.377	689.298
237.972	15.049	918.692	688.916
238.986	14.994	917.946	688.071
240.001	15.011	917.354	687.635
241.015	14.995	916.989	687.236
242.030	15.085	916.318	687.040
243.045	14.960	915.667	685.978
244.059	15.132	914.651	685.861
245.074	15.096	914.332	685.414
246.088	15.251	913.212	685.148
247.103	15.037	912.801	683.904
248.117	15.164	912.640	684.244
249.132	15.195	911.986	683.819
250.147	15.429	910.617	683.686
251.161	15.374	910.124	683.029
252.176	15.477	909.311	682.778
253.190	15.526	908.811	682.540
254.205	15.374	908.514	681.638
255.220	15.371	907.675	680.937
256.234	15.528	906.908	680.940
257.249	15.479	906.290	680.218
258.263	15.441	905.245	679.221
259.278	15.500	904.845	679.096
260.293	15.591	904.106	678.851
261.307	15.549	903.577	678.224
262.322	15.536	902.881	677.587
263.336	15.602	902.489	677.501
264.351	15.720	901.214	676.958
265.366	15.761	900.787	676.743
266.380	15.701	900.331	676.098
267.395	15.571	900.007	675.271
268.409	15.647	898.829	674.634
269.424	15.759	897.796	674.247
270.439	15.716	897.508	673.800
271.453	15.751	896.346	673.010
272.468	15.644	896.110	672.343
273.482	15.809	895.733	672.662
274.497	15.627	895.209	671.483
275.512	15.775	894.626	671.574
276.526	15.732	894.266	671.073
277.541	15.679	893.567	670.280
278.555	15.705	893.269	670.098
279.570	15.897	892.250	670.040
280.585	15.863	891.414	669.217
281.599	15.944	890.856	669.061
282.614	15.877	890.211	668.251
283.628	15.805	889.566	667.424
284.643	15.985	888.677	667.408
285.657	16.009	888.023	666.957
286.672	15.978	887.360	666.274
287.687	15.934	887.152	665.888
288.701	15.907	886.657	665.346
289.716	16.014	885.677	664.978
290.730	15.745	885.439	663.678
291.745	15.976	884.497	663.824
292.760	16.094	883.841	663.735
293.774	16.192	883.142	663.540
294.789	16.129	882.649	662.862
295.803	16.007	881.924	661.779
296.818	15.962	881.359	661.121
297.833	16.049	880.489	660.751
298.847	16.034	880.006	660.270
299.862	16.244	879.267	660.482
300.876	16.105	878.852	659.568
301.891	16.325	878.212	659.886
302.906	16.277	877.597	659.177
303.920	16.291	877.019	658.740
304.935	16.490	876.443	659.025
305.949	16.218	876.239	657.756
306.964	16.256	875.539	657.318
307.979	16.184	874.745	656.386
308.993	16.436	874.194	656.891
310.008	16.284	873.553	655.761
311.022	16.283	873.047	655.321
312.037	16.327	872.340	654.901
313.052	16.226	871.772	654.026
314.066	16.446	870.733	654.039
315.081	16.401	870.361	653.528
316.095	16.255	870.205	652.789
317.110	16.314	869.334	652.308
318.125	16.428	868.999	652.436
319.139	16.399	868.275	651.723
320.154	16.390	867.868	651.325
321.168	16.327	867.648	650.860
322.183	16.485	866.707	650.704
323.197	16.420	866.477	650.224
324.212	16.443	865.596	649.595
325.227	16.563	864.735	649.352
326.241	16.512	864.202	648.700
327.256	16.494	863.855	648.310
328.270	16.404	863.482	647.631
329.285	16.445	862.986	647.357
330.300	16.398	862.072	646.435
331.314	16.424	861.952	646.386
332.329	16.536	861.411	646.353
333.343	16.546	861.138	646.130
334.358	16.553	860.365	645.518
335.373	16.527	860.259	645.282
336.387	16.625	859.641	645.136
337.402	16.711	859.354	645.189
338.416	16.750	859.053	645.054
339.431	16.727	858.389	644.411
340.446	16.935	857.300	644.327
341.460	16.729	857.712	643.799
342.475	16.847	857.478	644.015
343.489	16.862	856.540	643.309
344.504	16.867	856.081	642.928
345.519	17.041	855.275	642.924
346.533	17.030	854.951	642.579
347.548	16.726	855.010	641.420
348.562	16.821	854.578	641.398
349.577	16.910	853.451	640.829
350.592	16.865	852.739	640.069
351.606	16.885	852.158	639.653
352.621	16.927	851.497	639.258
353.635	16.996	850.971	639.064
354.650	16.867	850.411	638.103
355.665	17.067	849.482	638.101
356.679	16.953	848.851	637.144
357.694	16.926	848.379	636.630
358.708	16.999	847.808	636.419
359.723	16.981	847.184	635.827
360.738	17.034	846.468	635.432
361.752	17.063	846.174	635.263
362.767	17.163	845.178	634.834
363.781	17.101	844.711	634.197
364.796	17.215	844.437	634.360
365.810	17.230	844.114	634.115
366.825	17.255	843.180	633.451
367.840	17.338	842.910	633.500
368.854	17.354	842.428	633.145
369.869	17.124	842.437	632.239
370.883	17.214	842.025	632.209
371.898	17.251	841.333	631.768
372.913	17.330	840.983	631.745
373.927	17.336	840.554	631.390
374.942	17.248	840.202	630.743
375.956	17.379	839.560	630.691
376.971	17.465	838.988	630.522
377.986	17.520	838.467	630.279
379.000	17.505	837.812	629.675
380.015	17.414	837.885	629.339
381.029	17.425	836.792	628.501
382.044	17.493	836.455	628.443
383.059	17.379	836.263	627.825
384.073	17.491	835.304	627.461
385.088	17.531	834.810	627.182
386.102	17.548	833.940	626.537
387.117	17.573	833.328	626.113
388.132	17.476	833.056	625.494
389.146	17.435	832.773	625.078
390.161	17.537	832.254	625.008
391.175	17.504	831.605	624.343
392.190	17.666	830.824	624.297
393.205	17.503	830.942	623.731
394.219	17.464	830.619	623.292
395.234	17.658	829.685	623.245
396.248	17.630	829.147	622.682
397.263	17.595	828.805	622.244
398.278	17.598	828.520	621.984
399.292	17.519	828.349	621.512
400.307	17.568	827.389	620.915
401.321	17.603	827.392	620.990
402.336	17.695	826.567	620.652
403.350	17.712	826.001	620.235
404.365	17.926	825.387	620.496
405.380	17.843	825.280	620.058
406.394	17.841	824.822	619.653
407.409	17.714	824.542	618.925
408.423	17.939	823.846	619.163
409.438	17.890	823.598	618.747
410.453	17.982	823.083	618.638
411.467	18.041	822.532	618.382
412.482	17.784	822.537	617.401
413.496	17.974	822.150	617.742
414.511	18.016	821.245	617.160
415.526	18.034	821.064	617.036
416.540	18.170	820.484	617.034
417.555	18.108	820.038	616.423
418.569	18.003	819.920	615.900
419.584	18.232	818.933	615.927
420.599	18.125	818.475	615.144
421.613	112.115	1296.746	1476.688
422.628	97.121	1366.378	1476.776
