DTS Sentinel unit serial number:	SN413079Multiplexer serial number:	ORYXHardware model number:	OX4-SRSoftware version number:	ORYX F/W v4.00 Oryx Data Collector v3.7.2.0data status	okinstallation	princeton_trtdifferential loss correction	single-endedforward channel	channel 1reverse channel	N/Adate	2019/09/13time	09:34:35forward acquisition time	60.00reverse acquisition time	0.00gamma	496.2192k internal	0.2325k external	0.2325temperature offset calibration	1.0158default loss term (dB/km)	0.3790temperature slope calibration	1.0000multiplexer offset coefficient	1.0000multiplexer slope coefficient	1.0000fibre end	0.00T internal ref (°C)	29.56T ext. ref 1 (°C)	4.41T ext. ref 2 (°C)	25.77length (m)	temperature (°C)	Stokes	anti-Stokes-747.200	-9.730	0.218	-0.147
-746.185	36.136	0.300	0.266
-745.171	-62.898	-0.150	0.063
-744.156	231.962	-0.203	0.337
-743.142	-145.921	0.174	-0.016
-742.127	699.347	0.147	0.391
-741.112	-200.000	0.003	-0.133
-740.098	-10.888	-0.211	0.140
-739.083	2.222	0.326	0.238
-738.069	-82.369	0.082	0.027
-737.054	-55.681	-0.386	0.174
-736.039	-98.852	-0.203	-0.052
-735.025	-99.253	0.165	-0.042
-734.010	-86.545	-0.252	0.078
-732.996	-200.000	-0.028	-0.221
-731.981	200.429	0.080	0.124
-730.966	800.000	-0.090	-0.350
-729.952	-100.826	-0.175	-0.043
-728.937	-200.000	-0.026	-0.116
-727.923	281.121	-0.061	-0.110
-726.908	167.606	-0.176	-0.252
-725.894	800.000	-0.138	-0.517
-724.879	4.336	-0.115	0.085
-723.864	-184.642	-0.254	-0.004
-722.850	-200.000	-0.214	0.001
-721.835	-61.927	-0.241	-0.101
-720.821	800.000	-0.089	-0.310
-719.806	-175.505	-0.250	0.007
-718.791	519.581	0.163	-0.385
-717.777	1.929	-0.168	0.122
-716.762	-200.000	0.005	-0.039
-715.748	220.285	-0.084	0.135
-714.733	95.093	-0.023	-0.026
-713.718	-200.000	0.000	-0.082
-712.704	-36.688	-0.201	-0.109
-711.689	73.534	0.098	0.104
-710.675	-101.565	-0.177	-0.043
-709.660	-30.415	-0.134	-0.077
-708.645	447.325	0.144	0.319
-707.631	59.198	-0.101	0.100
-706.616	29.648	0.336	0.288
-705.602	-114.869	-0.386	0.074
-704.587	-33.410	-0.174	-0.097
-703.572	5.755	0.234	0.175
-702.558	-150.933	0.315	0.024
-701.543	303.704	-0.047	0.088
-700.529	-200.000	0.000	-0.082
-699.514	250.152	-0.017	-0.028
-698.499	406.900	-0.194	-0.414
-697.485	33.113	-0.219	-0.191
-696.470	-200.000	-0.027	-0.412
-695.456	-51.940	0.077	-0.036
-694.441	-200.000	0.105	-0.513
-693.426	-133.582	0.279	0.035
-692.412	-151.391	-0.279	0.021
-691.397	-200.000	-0.015	-0.104
-690.383	-200.000	-0.035	-0.242
-689.368	207.304	-0.198	-0.310
-688.354	487.634	0.085	-0.196
-687.339	-200.000	0.003	-0.130
-686.324	-200.000	-0.014	0.182
-685.310	717.590	0.021	0.057
-684.295	185.693	0.065	-0.097
-683.281	-41.144	0.268	0.139
-682.266	41.577	-0.035	0.032
-681.251	373.430	-0.140	0.288
-680.237	213.584	-0.058	0.092
-679.222	-200.000	-0.016	0.134
-678.208	-12.202	0.327	-0.216
-677.193	-200.000	-0.036	-0.230
-676.178	800.000	-0.101	-0.376
-675.164	18.851	-0.096	0.077
-674.149	-77.287	-0.236	0.082
-673.135	90.775	-0.077	0.087
-672.120	-200.000	0.030	-0.307
-671.105	-179.251	0.101	0.002
-670.091	-74.178	-0.109	0.040
-669.076	-13.093	0.176	-0.115
-668.062	-46.455	-0.247	0.122
-667.047	723.318	0.087	-0.234
-666.032	122.304	-0.127	-0.159
-665.018	-200.000	0.021	-0.185
-664.003	-95.604	-0.194	0.052
-662.989	262.688	0.287	-0.501
-661.974	1.110	0.178	-0.129
-660.959	-195.618	0.106	0.001
-659.945	25.288	-0.094	0.078
-658.930	496.535	0.053	-0.124
-657.916	-200.000	-0.013	-0.313
-656.901	61.448	-0.183	-0.183
-655.886	-100.933	0.062	0.015
-654.872	93.738	-0.204	-0.233
-653.857	116.643	0.258	0.318
-652.843	-40.353	-0.087	0.046
-651.828	300.764	-0.058	-0.108
-650.814	-200.000	-0.016	-0.084
-649.799	-75.940	-0.116	-0.041
-648.784	-126.891	0.069	0.010
-647.770	68.281	0.029	-0.030
-646.755	43.237	-0.180	-0.166
-645.741	-200.000	-0.119	-0.538
-644.726	97.151	0.068	0.079
-643.711	310.037	-0.155	-0.292
-642.697	144.191	0.166	0.223
-641.682	-32.267	0.111	-0.062
-640.668	49.538	0.263	0.249
-639.653	-80.141	0.307	0.104
-638.638	455.925	-0.097	0.216
-637.624	-127.794	-0.339	-0.049
-636.609	-56.514	0.481	-0.214
-635.595	76.242	0.231	-0.246
-634.580	-130.931	-0.321	0.043
-633.565	-18.825	-0.301	0.188
-632.551	171.359	0.089	-0.128
-631.536	-188.454	0.156	-0.002
-630.522	210.793	-0.097	0.152
-629.507	186.977	0.088	0.132
-628.492	258.896	-0.176	0.304
-627.478	28.891	0.113	-0.096
-626.463	-29.445	0.327	-0.188
-625.449	170.877	-0.080	-0.115
-624.434	33.160	-0.060	-0.052
-623.419	800.000	0.044	0.156
-622.405	-114.810	0.091	-0.017
-621.390	-57.053	-0.056	-0.025
-620.376	-23.155	0.311	-0.188
-619.361	800.000	0.037	-0.104
-618.346	-56.017	-0.146	0.065
-617.332	13.445	0.201	-0.156
-616.317	528.135	-0.052	0.122
-615.303	-100.834	-0.240	-0.059
-614.288	177.403	0.160	0.234
-613.273	216.346	-0.064	0.102
-612.259	-192.487	-0.155	-0.001
-611.244	192.655	-0.107	-0.162
-610.230	-200.000	-0.045	-0.261
-609.215	-200.000	0.004	-0.053
-608.201	800.000	0.018	-0.060
-607.186	-79.369	-0.528	-0.179
-606.171	477.529	0.090	0.204
-605.157	193.215	-0.082	0.124
-604.142	346.032	-0.080	-0.157
-603.128	60.182	-0.326	-0.324
-602.113	-109.108	-0.171	-0.037
-601.098	-59.730	-0.153	-0.066
-600.084	-106.661	0.084	0.019
-599.069	365.906	-0.022	0.044
-598.055	6.995	0.081	0.061
-597.040	45.366	-0.261	-0.242
-596.025	800.000	0.077	-0.253
-595.011	-200.000	0.019	-0.138
-593.996	13.037	-0.124	0.096
-592.982	116.254	-0.090	0.111
-591.967	-23.284	-0.108	-0.065
-590.952	146.987	0.085	0.115
-589.938	800.000	-0.088	-0.297
-588.923	-83.250	-0.188	-0.061
-587.909	-200.000	-0.005	0.364
-586.894	5.275	0.041	0.030
-585.879	-36.123	0.283	0.153
-584.865	-174.214	-0.350	0.010
-583.850	-46.042	0.169	0.084
-582.836	-46.738	-0.247	0.121
-581.821	38.424	-0.053	0.048
-580.806	800.000	-0.046	-0.193
-579.792	680.872	-0.125	-0.325
-578.777	-19.264	0.109	-0.068
-577.763	-200.000	0.003	0.110
-576.748	136.398	-0.229	-0.299
-575.733	-26.564	-0.504	-0.296
-574.719	-142.917	-0.185	-0.018
-573.704	800.000	0.041	0.167
-572.690	122.553	-0.125	0.157
-571.675	292.443	0.081	0.148
-570.661	492.758	0.053	0.123
-569.646	-45.847	-0.191	-0.095
-568.631	131.314	-0.194	-0.249
-567.617	-200.000	0.039	-0.218
-566.602	90.873	0.194	0.218
-565.588	-149.262	0.295	0.024
-564.573	58.605	-0.107	-0.105
-563.558	106.918	-0.067	-0.079
-562.544	24.923	-0.068	0.057
-561.529	800.000	-0.094	-0.309
-560.515	-200.000	0.024	-0.222
-559.500	-64.773	-0.252	0.102
-558.485	-123.417	0.114	0.018
-557.471	-200.000	-0.040	0.221
-556.456	39.643	0.085	0.077
-555.442	800.000	0.033	-0.115
-554.427	14.701	-0.144	0.113
-553.412	-10.280	0.136	-0.090
-552.398	7.613	-0.075	0.056
-551.383	-6.407	0.057	0.039
-550.369	451.337	0.076	-0.168
-549.354	-200.000	0.038	0.166
-548.339	11.988	-0.127	-0.098
-547.325	-60.987	-0.099	-0.042
-546.310	-2.386	-0.355	-0.249
-545.296	800.000	0.038	-0.137
-544.281	-99.781	0.073	-0.018
-543.266	201.639	-0.180	-0.278
-542.252	18.369	-0.124	-0.099
-541.237	84.880	0.210	-0.230
-540.223	71.710	0.302	0.314
-539.208	-200.000	0.000	0.037
-538.193	66.693	-0.043	-0.044
-537.179	307.817	0.103	-0.192
-536.164	203.204	0.169	-0.261
-535.150	-55.935	-0.261	-0.117
-534.135	5.502	0.225	0.167
-533.121	-132.273	-0.076	-0.010
-532.106	-28.675	-0.163	-0.094
-531.091	24.625	0.147	-0.122
-530.077	131.487	-0.291	-0.374
-529.062	-180.667	0.291	0.006
-528.048	9.579	-0.426	0.323
-527.033	150.165	0.106	-0.144
-526.018	199.773	0.221	-0.339
-525.004	-113.448	0.246	0.048
-523.989	-75.655	-0.242	0.086
-522.975	88.780	-0.307	0.342
-521.960	429.161	-0.117	0.253
-520.945	99.100	-0.161	0.187
-519.931	5.268	-0.128	0.094
-518.916	-157.388	-0.242	0.015
-517.902	-122.051	0.506	-0.083
-516.887	41.446	0.146	0.132
-515.872	-200.000	0.012	0.210
-514.858	-200.000	0.002	0.011
-513.843	50.159	0.083	-0.078
-512.829	365.407	-0.138	-0.278
-511.814	-49.207	-0.136	-0.065
-510.799	-183.825	-0.199	-0.003
-509.785	54.907	-0.140	-0.135
-508.770	232.681	0.070	0.114
-507.756	800.000	-0.062	0.215
-506.741	-200.000	0.023	0.434
-505.726	21.648	-0.287	-0.233
-504.712	-119.450	0.112	-0.019
-503.697	-58.823	0.287	0.124
-502.683	274.679	0.127	-0.225
-501.668	-79.441	0.139	-0.047
-500.653	800.000	-0.044	-0.137
-499.639	-49.804	-0.210	0.100
-498.624	-21.779	-0.130	0.079
-497.610	332.853	0.030	0.057
-496.595	-200.000	-0.341	-0.001
-495.581	127.245	0.280	-0.356
-494.566	-49.204	-0.325	-0.155
-493.551	60.188	0.165	-0.163
-492.537	-37.425	-0.128	0.068
-491.522	-80.545	0.266	0.089
-490.508	800.000	0.127	0.366
-489.493	-200.000	0.019	-0.218
-488.478	-109.303	-0.257	0.054
-487.464	-139.250	-0.020	-0.002
-486.449	249.495	-0.047	0.080
-485.435	-89.971	-0.240	0.070
-484.420	-147.663	0.079	-0.007
-483.405	590.319	-0.048	-0.118
-482.391	-72.956	0.380	-0.139
-481.376	57.534	-0.065	-0.064
-480.362	-77.310	-0.308	0.107
-479.347	-91.712	0.067	-0.019
-478.332	224.897	-0.012	-0.020
-477.318	-105.805	0.372	0.084
-476.303	460.432	-0.099	-0.220
-475.289	-27.350	0.344	-0.200
-474.274	189.338	0.272	-0.407
-473.259	-31.741	0.339	-0.190
-472.245	-62.346	-0.095	0.039
-471.230	-106.494	-0.235	0.052
-470.216	800.000	0.073	-0.239
-469.201	-50.167	0.411	-0.194
-468.186	171.480	-0.057	-0.081
-467.172	-84.831	-0.109	0.034
-466.157	-200.000	0.003	-0.238
-465.143	162.177	0.157	0.219
-464.128	-81.795	-0.030	0.010
-463.113	-200.000	0.011	0.114
-462.099	219.332	0.143	0.229
-461.084	-51.288	0.391	-0.183
-460.070	108.725	-0.256	-0.305
-459.055	50.189	-0.165	0.155
-458.040	-134.339	0.366	0.045
-457.026	520.362	-0.057	-0.134
-456.011	432.930	-0.013	0.027
-454.997	-6.796	-0.145	0.098
-453.982	-200.000	0.049	-0.506
-452.968	-29.973	0.220	-0.125
-451.953	-165.851	-0.302	0.013
-450.938	48.727	-0.082	-0.077
-449.924	11.922	-0.313	-0.240
-448.909	-29.190	-0.382	0.219
-447.895	539.387	-0.087	0.208
-446.880	-82.545	-0.406	0.131
-445.865	-11.099	-0.152	-0.100
-444.851	-53.880	0.161	0.073
-443.836	576.865	-0.077	0.187
-442.822	231.005	-0.162	-0.264
-441.807	-72.487	0.119	-0.044
-440.792	18.998	0.057	0.045
-439.778	-122.144	0.367	0.060
-438.763	43.016	-0.233	0.212
-437.749	16.799	0.137	-0.108
-436.734	-100.080	0.260	0.065
-435.719	21.037	0.207	0.167
-434.705	12.038	-0.221	-0.170
-433.690	-51.429	0.264	0.123
-432.676	253.258	0.122	-0.208
-431.661	-200.000	-0.044	0.326
-430.646	-200.000	-0.275	0.001
-429.632	-200.000	-0.050	-0.356
-428.617	215.416	-0.034	0.054
-427.603	-84.264	0.163	-0.052
-426.588	-23.986	0.142	0.085
-425.573	366.505	0.111	-0.223
-424.559	-200.000	-0.002	0.088
-423.544	-200.000	-0.026	-0.347
-422.530	800.000	0.015	0.043
-421.515	-16.263	0.126	-0.080
-420.500	-79.080	-0.214	0.072
-419.486	-128.443	-0.303	0.043
-418.471	-148.329	0.406	-0.033
-417.457	-200.000	-0.011	0.136
-416.442	-116.491	0.283	-0.052
-415.428	264.056	-0.191	-0.331
-414.413	-32.190	-0.218	-0.121
-413.398	187.833	-0.200	0.298
-412.384	-143.153	-0.407	-0.039
-411.369	-151.098	-0.236	0.018
-410.355	392.264	0.091	0.188
-409.340	114.030	0.077	-0.094
-408.325	-13.866	-0.184	-0.118
-407.311	190.665	0.129	0.192
-406.296	-84.555	0.191	0.060
-405.282	194.368	0.069	0.104
-404.267	10.096	0.392	0.297
-403.252	49.144	0.149	-0.140
-402.238	76.287	0.118	0.125
-401.223	-110.248	0.033	-0.007
-400.209	-200.000	-0.000	0.182
-399.194	800.000	-0.103	0.334
-398.179	-200.000	0.001	0.176
-397.165	-133.126	0.399	0.050
-396.150	-200.000	0.015	0.162
-395.136	-46.305	0.210	0.103
-394.121	715.663	-0.081	0.214
-393.106	-136.156	0.385	-0.045
-392.092	-120.989	-0.228	-0.038
-391.077	98.161	-0.193	-0.221
-390.063	96.591	-0.066	0.075
-389.048	-200.000	0.029	0.239
-388.033	-200.000	-0.017	0.105
-387.019	165.752	0.038	0.053
-386.004	390.984	0.209	-0.432
-384.990	11.240	0.276	0.210
-383.975	372.813	-0.062	0.125
-382.960	-82.091	-0.229	0.075
-381.946	-89.249	-0.311	0.091
-380.931	-52.108	0.404	0.187
-379.917	-158.174	0.323	0.019
-378.902	-136.245	-0.050	0.006
-377.888	-200.000	-0.010	-0.301
-376.873	108.519	-0.039	0.047
-375.858	644.319	0.069	0.175
-374.844	800.000	-0.051	0.167
-373.829	800.000	0.104	0.336
-372.815	34.182	-0.104	0.090
-371.800	-200.000	-0.004	0.087
-370.785	-200.000	-0.019	0.271
-369.771	800.000	-0.068	0.250
-368.756	65.926	0.110	-0.111
-367.742	-63.364	-0.152	-0.062
-366.727	74.641	-0.117	-0.122
-365.712	-136.599	0.212	0.024
-364.698	-159.288	-0.228	-0.013
-363.683	675.405	-0.026	-0.067
-362.669	90.266	0.058	0.064
-361.654	-57.397	-0.117	0.051
-360.639	-200.000	-0.057	-0.344
-359.625	-200.000	-0.014	-0.090
-358.610	-200.000	0.028	-0.168
-357.596	70.473	0.080	-0.082
-356.581	800.000	0.049	0.191
-355.566	-44.720	0.243	0.120
-354.552	652.510	0.010	0.024
-353.537	800.000	0.042	0.148
-352.523	800.000	-0.096	0.398
-351.508	-72.599	-0.371	0.136
-350.493	726.118	-0.018	-0.048
-349.479	-63.197	-0.353	0.145
-348.464	-200.000	-0.018	-0.134
-347.450	-14.627	-0.173	-0.111
-346.435	-81.872	0.274	0.089
-345.420	-49.669	-0.334	0.158
-344.406	800.000	0.030	-0.108
-343.391	800.000	-0.012	0.046
-342.377	-200.000	-0.014	-0.233
-341.362	84.808	-0.139	-0.151
-340.348	597.190	-0.018	0.044
-339.333	77.623	0.185	-0.195
-338.318	-200.000	-0.026	0.204
-337.304	-170.621	0.182	-0.006
-336.289	-200.000	0.021	-0.119
-335.275	311.453	-0.126	-0.235
-334.260	-12.624	-0.033	0.021
-333.245	-200.000	0.032	-0.194
-332.231	-31.024	0.123	0.069
-331.216	-110.569	-0.071	0.015
-330.202	-200.000	-0.028	-0.120
-329.187	-13.808	0.056	-0.036
-328.172	800.000	-0.059	-0.219
-327.158	-200.000	-0.064	-0.299
-326.143	800.000	-0.081	0.238
-325.129	162.570	0.128	0.179
-324.114	10.374	0.157	0.119
-323.099	-20.141	-0.141	-0.086
-322.085	276.042	0.096	0.170
-321.070	800.000	-0.029	-0.098
-320.056	-200.000	-0.039	0.346
-319.041	-33.727	0.127	-0.069
-318.026	-200.000	-0.026	0.242
-317.012	-97.282	0.263	-0.068
-315.997	201.284	-0.167	0.254
-314.983	6.180	0.071	-0.053
-313.968	147.643	-0.201	0.269
-312.953	-10.205	0.263	0.173
-311.939	-200.000	-0.001	-0.065
-310.924	-200.000	-0.015	0.195
-309.910	387.831	-0.079	-0.162
-308.895	453.781	0.171	0.375
-307.880	79.755	-0.310	0.330
-306.866	800.000	0.052	-0.190
-305.851	55.921	-0.082	-0.079
-304.837	-132.387	0.343	0.044
-303.822	253.156	-0.087	-0.148
-302.807	488.040	0.100	0.228
-301.793	174.396	-0.023	-0.032
-300.778	16.874	0.192	-0.151
-299.764	121.301	-0.127	-0.157
-298.749	800.000	-0.043	0.147
-297.735	-38.148	0.086	0.045
-296.720	666.968	-0.057	-0.146
-295.705	139.519	-0.181	-0.237
-294.691	-200.000	-0.002	-0.211
-293.676	235.732	-0.116	-0.189
-292.662	-200.000	0.050	-0.220
-291.647	-74.268	-0.174	0.062
-290.632	800.000	-0.075	0.285
-289.618	-24.784	0.304	0.179
-288.603	-155.281	0.237	0.015
-287.589	361.702	-0.078	-0.155
-286.574	-145.592	-0.037	-0.003
-285.559	404.116	-0.076	0.160
-284.545	113.477	-0.134	-0.161
-283.530	368.694	0.027	-0.055
-282.516	0.500	0.230	-0.163
-281.501	-200.000	0.069	0.403
-280.486	110.072	-0.121	0.143
-279.472	14.059	0.094	0.072
-278.457	126.015	-0.163	0.205
-277.443	-76.253	-0.233	0.081
-276.428	186.356	0.243	0.359
-275.413	-200.000	0.013	0.191
-274.399	-56.212	0.144	0.063
-273.384	73.135	0.130	-0.134
-272.370	-105.583	-0.270	0.061
-271.355	317.235	-0.110	-0.207
-270.340	106.843	0.131	0.154
-269.326	800.000	0.040	-0.138
-268.311	-149.073	0.069	-0.006
-267.297	-154.886	0.053	0.003
-266.282	-128.780	-0.357	-0.050
-265.267	165.105	0.051	0.071
-264.253	800.000	0.161	0.447
-263.238	167.681	-0.187	0.264
-262.224	156.623	0.208	0.284
-261.209	-200.000	0.050	0.249
-260.195	-139.303	-0.158	-0.017
-259.180	-34.507	0.157	-0.085
-258.165	800.000	0.061	-0.249
-257.151	-26.278	0.147	-0.085
-256.136	-78.702	-0.143	0.048
-255.122	176.845	-0.143	0.206
-254.107	-146.992	-0.327	-0.028
-253.092	249.650	0.239	-0.401
-252.078	492.178	0.035	-0.080
-251.063	-200.000	0.004	0.176
-250.049	198.471	-0.199	-0.302
-249.034	-71.271	0.123	0.046
-248.019	52.184	-0.084	0.079
-247.005	-34.514	-0.255	0.138
-245.990	-154.374	0.152	-0.010
-244.976	548.444	0.037	0.087
-243.961	-104.189	0.149	-0.034
-242.946	241.792	0.084	-0.139
-241.932	471.796	0.158	0.352
-240.917	800.000	0.094	-0.353
-239.903	14.068	0.226	0.174
-238.888	28.662	-0.127	0.107
-237.873	40.421	0.151	0.135
-236.859	-97.636	-0.161	0.041
-235.844	-200.000	0.018	-0.156
-234.830	-200.000	0.042	0.278
-233.815	-116.636	-0.205	0.037
-232.800	-91.518	-0.245	0.069
-231.786	119.830	-0.200	-0.246
-230.771	-200.000	-0.025	0.122
-229.757	-100.010	0.305	0.075
-228.742	250.633	0.125	-0.211
-227.727	253.319	-0.115	-0.194
-226.713	-69.243	0.077	0.029
-225.698	-41.181	0.198	0.101
-224.684	74.031	0.033	-0.034
-223.669	316.436	0.163	-0.304
-222.655	249.002	0.190	0.318
-221.640	42.723	-0.103	0.093
-220.625	-200.000	-0.004	0.158
-219.611	261.254	0.183	0.313
-218.596	-73.408	-0.441	-0.159
-217.582	790.487	0.054	0.148
-216.567	-200.000	0.056	0.311
-215.552	-200.000	-0.050	0.229
-214.538	-200.000	0.001	-0.098
-213.523	-200.000	0.015	0.096
-212.509	-1.943	0.212	-0.147
-211.494	794.834	-0.117	-0.319
-210.479	258.730	0.111	0.190
-209.465	-63.694	0.316	-0.128
-208.450	800.000	0.106	-0.357
-207.436	402.095	-0.019	-0.039
-206.421	68.966	0.295	-0.299
-205.406	-200.000	-0.034	-0.148
-204.392	-89.616	-0.240	0.070
-203.377	425.692	0.102	0.217
-202.363	-144.506	-0.342	-0.031
-201.348	28.945	-0.309	-0.259
-200.333	106.330	-0.241	0.282
-199.319	456.701	0.052	0.115
-198.304	-15.088	-0.179	0.113
-197.290	359.485	-0.107	0.212
-196.275	13.883	-0.137	-0.105
-195.260	68.355	-0.123	0.124
-194.246	40.489	0.056	-0.050
-193.231	-128.255	-0.261	0.037
-192.217	-82.458	0.177	-0.057
-191.202	-200.000	0.124	0.554
-190.187	102.977	-0.088	-0.102
-189.173	-13.126	0.416	0.267
-188.158	634.644	-0.073	-0.183
-187.144	-8.091	0.164	-0.109
-186.129	24.275	0.212	-0.173
-185.114	-98.347	0.568	-0.144
-184.100	41.106	-0.180	-0.160
-183.085	-150.049	-0.159	-0.012
-182.071	-147.257	0.099	0.008
-181.056	-111.948	0.084	-0.017
-180.042	-200.000	0.002	0.364
-179.027	82.602	-0.156	0.168
-178.012	-200.000	0.056	-0.331
-176.998	800.000	0.030	0.122
-175.983	-200.000	0.077	-0.610
-174.969	800.000	-0.034	0.107
-173.954	-75.527	0.061	-0.021
-172.939	131.493	0.201	0.255
-171.925	-200.000	0.000	-0.063
-170.910	114.239	0.113	-0.135
-169.896	-102.310	0.263	0.062
-168.881	-32.859	-0.093	-0.051
-167.866	396.323	-0.105	-0.216
-166.852	-136.641	0.130	-0.015
-165.837	692.642	0.082	-0.212
-164.823	161.578	0.078	-0.108
-163.808	-20.631	0.162	0.098
-162.793	-12.367	-0.176	0.113
-161.779	288.170	0.089	0.159
-160.764	-91.958	0.274	0.077
-159.750	-191.993	-0.136	-0.001
-158.735	66.720	0.103	0.103
-157.720	-56.482	-0.151	0.066
-156.706	-200.000	-0.036	-0.331
-155.691	-200.000	-0.008	0.131
-154.677	-101.904	-0.127	-0.030
-153.662	61.435	0.208	0.204
-152.647	-47.546	0.321	-0.154
-151.633	-80.616	0.286	-0.094
-150.618	-200.000	0.035	0.156
-149.604	101.323	-0.178	0.204
-148.589	-121.128	0.302	0.050
-147.574	-112.290	0.251	0.050
-146.560	195.166	0.223	0.333
-145.545	-200.000	-0.004	0.154
-144.531	800.000	-0.100	0.313
-143.516	6.723	-0.132	0.097
-142.502	352.253	0.084	-0.164
-141.487	34.598	-0.057	-0.050
-140.472	800.000	-0.023	-0.066
-139.458	-200.000	-0.082	-0.451
-138.443	-23.485	0.119	-0.070
-137.429	644.262	-0.103	-0.259
-136.414	235.608	-0.115	-0.187
-135.399	-200.000	-0.007	0.165
-134.385	58.797	0.129	0.125
-133.370	-173.060	0.118	0.004
-132.356	648.509	0.148	-0.373
-131.341	760.943	-0.075	-0.202
-130.326	5.690	0.100	0.073
-129.312	26.634	0.468	0.386
-128.297	243.917	0.197	-0.326
-127.283	112.599	0.110	0.131
-126.268	-102.487	0.104	0.024
-125.253	464.310	0.099	-0.218
-124.239	-21.524	-0.040	0.024
-123.224	282.682	0.215	0.381
-122.210	-200.000	0.018	-0.355
-121.195	-200.000	-0.048	-0.345
-120.180	-141.280	-0.445	0.045
-119.166	-200.000	0.015	0.479
-118.151	572.831	0.119	0.285
-117.137	300.350	-0.069	0.126
-116.122	224.347	0.066	0.104
-115.107	431.729	0.122	-0.259
-114.093	168.492	0.102	0.143
-113.078	45.036	0.027	-0.024
-112.064	-189.984	0.351	-0.004
-111.049	275.237	0.115	0.200
-110.034	-122.377	-0.316	-0.051
-109.020	118.139	-0.071	-0.086
-108.005	-42.429	0.193	0.097
-106.991	-200.000	0.061	0.272
-105.976	330.345	0.102	0.193
-104.962	-200.000	-0.034	0.425
-103.947	-200.000	0.042	0.389
-102.932	-122.316	0.190	0.031
-101.918	-70.189	0.253	0.095
-100.903	-16.477	0.414	0.258
-99.889	259.679	-0.183	-0.310
-98.874	40.185	0.076	0.068
-97.859	-190.315	0.149	0.002
-96.845	-162.210	-0.179	0.009
-95.830	458.490	0.062	0.135
-94.816	-37.305	-0.347	0.183
-93.801	-170.888	-0.030	0.001
-92.786	72.384	0.122	0.125
-91.772	-32.587	-0.410	-0.224
-90.757	-42.706	0.182	-0.091
-89.743	-121.315	-0.192	0.032
-88.728	-115.812	-0.388	0.071
-87.713	800.000	-0.009	0.034
-86.699	140.121	0.192	0.249
-85.684	7.351	-0.078	0.057
-84.670	-200.000	0.084	0.394
-83.655	131.450	0.180	-0.228
-82.640	-116.365	0.076	-0.014
-81.626	2.422	-0.083	0.059
-80.611	259.222	0.112	0.190
-79.597	-59.352	0.214	0.090
-78.582	-95.218	-0.612	-0.162
-77.567	656.517	-0.047	-0.119
-76.553	472.449	-0.050	0.111
-75.538	206.416	0.141	-0.216
-74.524	-5.886	0.118	0.080
-73.509	-151.288	0.241	-0.018
-72.494	306.590	0.083	0.151
-71.480	24.161	0.171	0.139
-70.465	-47.492	-0.230	-0.110
-69.451	-63.980	0.484	-0.195
-68.436	14.636	-0.193	0.148
-67.422	12.567	-0.116	0.088
-66.407	-111.096	0.304	-0.061
-65.392	281.982	-0.033	0.058
-64.378	-133.954	-0.170	0.021
-63.363	-17.772	-0.283	0.175
-62.349	800.000	-0.065	0.190
-61.334	59.668	-0.939	-0.910
-60.319	-42.728	0.865	0.432
-59.305	-200.000	-0.119	-0.947
-58.290	800.000	0.262	1.054
-57.276	210.561	1.098	1.694
-56.261	-200.000	104.263	576.603
-55.246	506.796	1475.666	3362.041
-54.232	178.180	2680.107	3842.101
-53.217	111.780	2172.423	2576.190
-52.203	41.418	1609.109	1430.123
-51.188	33.044	1343.278	1143.405
-50.173	29.971	1301.286	1089.568
-49.159	53.886	1354.373	1278.185
-48.144	54.250	1370.185	1295.238
-47.130	33.088	1326.179	1128.934
-46.115	29.735	1307.974	1093.597
-45.100	29.478	1303.346	1088.172
-44.086	29.482	1301.043	1086.228
-43.071	29.428	1298.585	1083.819
-42.057	29.400	1296.168	1081.590
-41.042	29.433	1294.750	1080.561
-40.027	29.579	1292.961	1079.878
-39.013	29.443	1291.467	1077.790
-37.998	29.499	1289.677	1076.583
-36.984	29.590	1287.723	1075.440
-35.969	29.556	1285.643	1073.462
-34.954	29.556	1284.229	1072.240
-33.940	29.479	1283.031	1070.749
-32.925	29.650	1281.309	1070.261
-31.911	29.647	1279.963	1069.073
-30.896	29.594	1279.095	1068.000
-29.881	29.723	1277.336	1067.238
-28.867	29.734	1275.420	1065.657
-27.852	29.651	1274.341	1064.235
-26.838	29.674	1273.129	1063.312
-25.823	29.647	1272.046	1062.210
-24.809	29.590	1270.715	1060.729
-23.794	29.612	1269.527	1059.820
-22.779	29.773	1267.884	1059.330
-21.765	29.704	1266.569	1057.793
-20.750	29.738	1264.943	1056.590
-19.736	29.611	1263.630	1054.725
-18.721	29.505	1262.559	1053.183
-17.706	29.550	1261.797	1052.762
-16.692	29.608	1260.482	1051.953
-15.677	29.509	1259.656	1050.661
-14.663	29.423	1258.643	1049.285
-13.648	29.433	1257.483	1048.334
-12.633	29.544	1256.070	1047.743
-11.619	29.603	1255.090	1047.218
-10.604	29.536	1254.350	1046.181
-9.590	29.387	1254.129	1045.108
-8.575	29.491	1252.730	1044.493
-7.560	29.433	1251.725	1043.283
-6.546	29.423	1251.010	1042.588
-5.531	29.426	1249.923	1041.662
-4.517	29.606	1248.693	1041.610
-3.502	29.573	1248.430	1041.161
-2.487	29.527	1246.978	1039.653
-1.473	29.500	1243.400	1036.474
-0.458	28.107	1229.152	1016.820
0.556	26.511	1210.552	978.704
1.571	22.778	1215.340	962.178
2.586	21.691	1229.363	967.192
3.600	20.711	1216.816	951.879
4.615	15.726	1146.206	870.815
5.629	8.264	1073.044	778.866
6.644	4.801	1054.424	748.649
7.659	4.469	1051.951	745.238
8.673	4.161	1050.852	742.914
9.688	4.222	1049.736	742.351
10.702	4.684	1047.755	743.092
11.717	9.525	1054.982	771.391
12.731	17.627	1065.260	817.878
13.746	21.530	1069.994	840.218
14.761	21.959	1070.103	842.290
15.775	21.165	1068.673	837.283
16.790	20.152	1066.635	830.762
17.804	19.618	1064.550	826.509
18.819	19.245	1064.263	824.429
19.834	19.192	1063.570	823.567
20.848	19.243	1062.806	823.142
21.863	18.916	1062.215	821.051
22.877	18.821	1061.448	819.935
23.892	18.711	1060.748	818.794
24.907	18.707	1060.110	818.212
25.921	18.851	1058.408	817.509
26.936	18.874	1057.376	816.748
27.950	18.677	1056.311	814.920
28.965	18.854	1054.859	814.568
29.980	19.026	1053.170	814.003
30.994	19.160	1052.176	813.798
32.009	19.147	1051.451	813.104
33.023	19.152	1050.006	811.939
34.038	18.981	1049.267	810.488
35.053	18.860	1048.494	809.252
36.067	18.766	1047.648	808.082
37.082	18.999	1046.664	808.348
38.096	18.970	1046.044	807.659
39.111	18.966	1045.776	807.364
40.126	18.888	1043.960	805.525
41.140	18.512	1042.672	802.702
42.155	18.383	1041.099	800.815
43.169	18.391	1040.167	800.063
44.184	18.422	1039.393	799.543
45.199	18.408	1038.373	798.624
46.213	18.540	1037.745	798.685
47.228	18.668	1037.422	798.962
48.242	18.933	1035.756	798.841
49.257	18.700	1035.187	797.246
50.271	19.001	1033.939	797.609
51.286	18.941	1034.045	797.344
52.301	18.949	1032.472	796.099
53.315	18.649	1031.750	794.083
54.330	18.631	1030.071	792.634
55.344	18.525	1029.661	791.762
56.359	18.711	1028.726	791.830
57.374	18.424	1028.110	789.961
58.388	18.413	1026.870	788.891
59.403	18.341	1026.207	787.977
60.417	18.390	1025.148	787.321
61.432	18.163	1024.570	785.765
62.447	18.199	1023.762	785.243
63.461	18.158	1023.216	784.567
64.476	18.183	1021.926	783.620
65.490	18.191	1021.076	782.934
66.505	18.192	1020.058	782.093
67.520	18.279	1019.491	781.986
68.534	18.126	1019.408	781.154
69.549	18.218	1018.314	780.664
70.563	18.030	1017.666	779.242
71.578	18.055	1016.672	778.525
72.593	17.976	1015.899	777.506
73.607	17.961	1015.377	776.968
74.622	18.101	1014.623	776.959
75.636	18.200	1013.699	776.632
76.651	17.982	1013.433	775.369
77.666	18.028	1013.018	775.192
78.680	18.073	1012.308	774.786
79.695	18.013	1011.951	774.171
80.709	18.381	1011.065	775.093
81.724	18.354	1010.551	774.508
82.739	18.555	1009.692	774.686
83.753	18.762	1009.668	775.536
84.768	19.145	1008.437	776.251
85.782	19.165	1007.869	775.832
86.797	19.203	1006.507	774.888
87.812	18.958	1005.214	772.723
88.826	19.053	1004.429	772.475
89.841	19.061	1004.017	772.129
90.855	19.140	1003.074	771.690
91.870	19.153	1002.643	771.345
92.884	19.044	1001.750	770.104
93.899	19.088	1000.989	769.648
94.914	19.182	1000.260	769.439
95.928	19.105	999.359	768.336
96.943	18.917	998.308	766.617
97.957	18.950	997.197	765.846
98.972	19.097	996.217	765.680
99.987	19.094	995.419	764.986
101.001	19.044	994.363	763.885
102.016	18.986	993.767	763.098
103.030	19.095	992.886	762.841
104.045	19.009	992.110	761.793
105.060	18.991	991.169	760.927
106.074	18.536	989.996	757.945
107.089	18.190	989.080	755.651
108.103	18.259	987.835	754.938
109.118	18.327	986.688	754.293
110.133	18.242	985.889	753.241
111.147	18.210	985.233	752.534
112.162	18.390	984.566	752.748
113.176	18.443	984.059	752.527
114.191	18.541	983.397	752.385
115.206	18.409	982.229	750.844
116.220	18.454	981.292	750.261
117.235	18.451	980.228	749.368
118.249	18.431	979.460	748.626
119.264	18.281	978.900	747.477
120.279	18.245	978.015	746.575
121.293	18.176	977.084	745.498
122.308	18.039	976.117	744.100
123.322	18.137	974.874	743.513
124.337	18.033	974.020	742.342
125.352	18.026	973.151	741.584
126.366	18.064	972.200	740.961
127.381	17.966	971.369	739.835
128.395	18.099	970.367	739.585
129.410	18.213	969.076	739.024
130.424	18.259	968.923	739.042
131.439	18.501	967.970	739.295
132.454	18.394	967.612	738.493
133.468	18.468	966.929	738.225
134.483	18.491	965.745	737.355
135.497	18.340	965.247	736.259
136.512	18.504	964.239	736.130
137.527	18.495	963.529	735.486
138.541	18.402	962.946	734.575
139.556	18.476	962.494	734.485
140.570	18.778	962.220	735.504
141.585	18.844	961.139	734.894
142.600	19.077	960.108	735.036
143.614	19.153	959.541	734.860
144.629	19.075	959.165	734.175
145.643	19.080	957.712	733.022
146.658	18.874	956.414	731.084
147.673	18.681	955.842	729.764
148.687	18.671	954.342	728.512
149.702	18.544	953.469	727.242
150.716	18.437	953.048	726.402
151.731	18.443	952.183	725.705
152.746	18.604	951.472	725.782
153.760	18.593	951.146	725.421
154.775	18.743	950.768	725.703
155.789	18.833	950.003	725.434
156.804	18.606	949.279	723.859
157.819	18.948	948.206	724.416
158.833	19.027	947.940	724.481
159.848	19.143	947.142	724.295
160.862	19.023	945.643	722.583
161.877	18.647	944.888	720.365
162.892	18.656	943.499	719.279
163.906	18.471	942.755	717.875
164.921	18.482	942.249	717.470
165.935	18.783	940.931	717.662
166.950	18.799	940.224	717.126
167.964	18.744	939.571	716.334
168.979	18.698	938.437	715.216
169.994	18.673	937.334	714.207
171.008	18.810	937.403	714.765
172.023	18.968	936.832	714.926
173.037	19.120	936.003	714.860
174.052	18.922	935.089	713.276
175.067	18.645	934.076	711.295
176.081	18.487	933.670	710.267
177.096	18.353	933.391	709.437
178.110	18.623	932.520	709.829
179.125	18.677	932.169	709.721
180.140	18.638	931.431	708.936
181.154	18.867	931.653	709.988
182.169	19.090	930.901	710.272
183.183	19.105	930.412	709.899
184.198	19.062	929.439	708.916
185.213	18.928	929.076	708.025
186.227	19.101	928.255	708.050
187.242	19.300	927.795	708.453
188.256	19.278	927.415	708.012
189.271	19.464	926.506	708.018
190.286	19.076	924.932	705.163
191.300	18.459	924.132	701.963
192.315	18.242	923.673	700.665
193.329	18.405	923.175	700.892
194.344	18.648	922.366	701.209
195.359	18.975	921.543	701.856
196.373	18.787	921.839	701.252
197.388	19.145	921.089	702.076
198.402	19.311	920.583	702.307
199.417	19.259	920.458	701.939
200.432	19.451	919.614	702.013
201.446	19.639	919.218	702.412
202.461	19.532	918.823	701.614
203.475	19.618	917.653	701.010
204.490	19.222	917.247	699.030
205.504	19.151	916.245	697.916
206.519	19.189	915.488	697.432
207.534	19.203	914.606	696.754
208.548	19.199	914.370	696.496
209.563	19.128	913.386	695.397
210.577	19.112	913.031	695.004
211.592	19.488	912.229	695.848
212.607	19.614	911.462	695.708
213.621	19.470	911.111	694.798
214.636	19.441	909.969	693.748
215.650	19.342	909.690	693.078
216.665	19.623	909.089	693.686
217.680	19.728	908.340	693.477
218.694	19.611	907.623	692.399
219.709	19.662	906.830	691.934
220.723	19.577	906.330	691.153
221.738	19.426	905.907	690.166
222.753	19.560	904.624	689.663
223.767	19.621	904.784	689.965
224.782	19.712	904.348	689.937
225.796	19.839	903.706	689.893
226.811	19.819	902.627	688.929
227.826	19.519	901.972	687.172
228.840	19.507	901.030	686.345
229.855	19.432	900.733	685.763
230.869	19.428	899.253	684.556
231.884	19.355	899.099	684.092
232.899	19.183	898.497	682.890
233.913	19.280	897.616	682.542
234.928	19.273	897.107	682.069
235.942	19.101	896.522	680.884
236.957	19.074	895.912	680.253
237.972	19.196	895.539	680.390
238.986	19.141	894.942	679.660
240.001	19.232	894.096	679.319
241.015	19.379	893.354	679.271
242.030	19.493	892.960	679.360
243.045	19.514	892.387	678.947
244.059	19.397	891.507	677.758
245.074	19.588	890.993	678.055
246.088	19.764	890.668	678.440
247.103	19.863	890.149	678.372
248.117	19.985	890.072	678.731
249.132	20.265	889.952	679.677
250.147	20.421	889.026	679.521
251.161	20.258	888.942	678.761
252.176	20.516	888.275	679.199
253.190	20.534	887.284	678.451
254.205	20.538	886.598	677.881
255.220	20.540	886.073	677.427
256.234	20.476	885.513	676.691
257.249	20.481	884.980	676.243
258.263	20.304	884.217	674.912
259.278	20.433	883.169	674.555
260.293	20.405	883.262	674.458
261.307	20.651	882.212	674.548
262.322	20.698	881.711	674.288
263.336	20.719	880.756	673.580
264.351	20.781	879.949	673.144
265.366	20.668	879.465	672.275
266.380	20.595	879.012	671.588
267.395	20.500	878.373	670.673
268.409	20.410	877.602	669.680
269.424	20.422	876.111	668.528
270.439	20.435	875.801	668.284
271.453	20.227	875.496	667.190
272.468	20.198	874.643	666.370
273.482	20.259	874.312	666.293
274.497	20.173	873.633	665.386
275.512	20.302	872.971	665.317
276.526	20.282	872.659	664.946
277.541	20.442	872.182	665.134
278.555	20.572	871.929	665.383
279.570	20.694	871.541	665.494
280.585	20.566	870.904	664.458
281.599	20.489	869.601	663.112
282.614	20.483	868.462	662.162
283.628	20.352	868.264	661.452
284.643	20.313	867.808	660.900
285.657	20.381	866.979	660.467
286.672	20.429	866.231	660.020
287.687	20.483	865.709	659.770
288.701	20.519	865.097	659.384
289.716	20.549	864.731	659.161
290.730	20.515	864.247	658.603
291.745	20.647	863.544	658.507
292.760	20.606	863.216	658.045
293.774	20.833	862.328	658.169
294.789	20.655	862.042	657.220
295.803	20.565	861.104	656.106
296.818	20.342	860.710	654.905
297.833	20.443	859.766	654.510
298.847	20.587	859.356	654.685
299.862	20.634	858.474	654.129
300.876	20.799	857.980	654.315
301.891	20.856	857.488	654.099
302.906	20.954	857.075	654.092
303.920	21.104	856.866	654.435
304.935	21.276	856.130	654.461
305.949	21.058	855.335	652.979
306.964	20.918	854.677	651.895
307.979	20.851	854.099	651.148
308.993	20.887	853.856	651.039
310.008	21.028	853.507	651.241
311.022	20.992	852.658	650.403
312.037	20.741	851.724	648.697
313.052	20.548	851.480	647.734
314.066	20.597	850.567	647.165
315.081	20.636	849.545	646.475
316.095	20.647	849.380	646.331
317.110	20.598	849.036	645.831
318.125	20.501	848.464	644.979
319.139	20.539	847.800	644.559
320.154	20.627	847.443	644.558
321.168	20.652	847.039	644.284
322.183	20.689	846.352	643.841
323.197	20.675	846.224	643.635
324.212	20.638	845.650	643.006
325.227	20.755	845.014	642.896
326.241	20.626	844.273	641.802
327.256	20.638	843.879	641.490
328.270	20.792	842.831	641.203
329.285	20.661	842.599	640.487
330.300	20.587	841.950	639.663
331.314	20.781	841.006	639.602
332.329	20.930	841.069	640.142
333.343	21.006	840.383	639.843
334.358	20.972	840.470	639.728
335.373	21.100	839.886	639.697
336.387	21.041	839.857	639.400
337.402	21.225	839.505	639.748
338.416	21.308	839.194	639.759
339.431	21.273	839.313	639.666
340.446	21.368	838.561	639.382
341.460	21.482	838.409	639.627
342.475	21.393	838.182	639.074
343.489	21.588	837.483	639.194
344.504	21.655	836.871	638.915
345.519	21.805	836.341	639.002
346.533	21.713	835.600	638.045
347.548	21.405	835.145	636.518
348.562	21.191	834.350	635.079
349.577	21.167	833.729	634.464
350.592	20.925	833.357	633.244
351.606	21.034	832.278	632.763
352.621	21.123	831.712	632.599
353.635	21.077	831.148	631.948
354.650	21.107	830.617	631.599
355.665	21.271	829.815	631.524
356.679	21.509	829.176	631.843
357.694	21.422	828.903	631.263
358.708	21.343	828.350	630.502
359.723	21.259	827.764	629.696
360.738	21.359	827.126	629.515
361.752	21.374	826.569	629.092
362.767	21.680	826.367	629.982
363.781	21.677	825.743	629.441
364.796	21.931	825.241	629.912
365.810	21.903	825.234	629.752
366.825	22.065	824.520	629.733
367.840	21.828	824.173	628.562
368.854	21.786	823.644	627.952
369.869	21.719	823.136	627.268
370.883	21.772	822.506	626.926
371.898	21.868	822.354	627.096
372.913	21.830	822.013	626.645
373.927	21.850	821.347	626.153
374.942	21.993	820.408	625.890
375.956	21.873	820.724	625.650
376.971	22.045	820.094	625.727
377.986	22.257	819.201	625.744
379.000	22.364	818.963	625.886
380.015	22.297	818.552	625.279
381.029	22.247	817.819	624.485
382.044	22.184	817.221	623.750
383.059	22.263	816.702	623.581
384.073	22.030	816.471	622.524
385.088	21.779	815.727	621.011
386.102	21.721	814.804	620.049
387.117	21.897	814.231	620.179
388.132	21.743	813.810	619.259
389.146	21.806	813.567	619.244
390.161	22.015	813.092	619.566
391.175	22.127	812.597	619.529
392.190	21.861	812.108	618.163
393.205	21.824	811.449	617.474
394.219	21.895	811.055	617.369
395.234	21.660	810.588	616.135
396.248	21.473	809.985	614.963
397.263	21.574	809.468	614.873
398.278	21.740	808.911	614.977
399.292	21.573	808.457	613.990
400.307	21.597	808.352	613.943
401.321	21.408	807.876	612.865
402.336	21.676	807.514	613.473
403.350	21.780	807.247	613.580
404.365	21.989	806.337	613.567
405.380	22.281	806.175	614.407
406.394	22.315	805.676	614.093
407.409	22.359	805.669	614.187
408.423	22.362	805.183	613.770
409.438	22.395	805.143	613.802
410.453	22.469	804.372	613.416
411.467	22.614	803.715	613.366
412.482	22.496	803.739	612.918
413.496	22.703	803.264	613.221
414.511	22.632	802.614	612.427
415.526	22.541	802.346	611.850
416.540	22.418	801.988	611.097
417.555	22.426	801.626	610.796
418.569	22.598	801.121	610.952
419.584	22.694	800.362	610.651
420.599	22.635	800.083	610.181
421.613	163.751	1369.590	1795.579
422.628	142.292	1452.556	1795.685
