DTS Sentinel unit serial number:	SN413079Multiplexer serial number:	ORYXHardware model number:	OX4-SRSoftware version number:	ORYX F/W v4.00 Oryx Data Collector v3.7.2.0data status	okinstallation	princeton_trtdifferential loss correction	single-endedforward channel	channel 1reverse channel	N/Adate	2019/09/14time	00:30:35forward acquisition time	60.00reverse acquisition time	0.00gamma	496.2192k internal	0.2337k external	0.2337temperature offset calibration	1.0077default loss term (dB/km)	0.3790temperature slope calibration	1.0000multiplexer offset coefficient	1.0000multiplexer slope coefficient	1.0000fibre end	0.00T internal ref (°C)	26.45T ext. ref 1 (°C)	3.16T ext. ref 2 (°C)	21.18length (m)	temperature (°C)	Stokes	anti-Stokes-747.200	-200.000	-0.024	0.401
-746.185	424.247	-0.172	0.372
-745.171	-122.460	0.250	-0.041
-744.156	-113.583	-0.272	-0.053
-743.142	215.043	0.063	0.100
-742.127	47.799	-0.372	-0.349
-741.112	150.590	0.086	0.117
-740.098	800.000	-0.019	0.063
-739.083	-78.201	-0.048	-0.017
-738.069	559.323	0.124	0.301
-737.054	800.000	-0.039	-0.124
-736.039	4.804	0.223	-0.165
-735.025	-121.349	-0.112	0.019
-734.010	198.848	0.087	-0.134
-732.996	88.117	0.135	-0.150
-731.981	468.023	0.098	-0.220
-730.966	800.000	0.079	-0.337
-729.952	-41.971	-0.068	-0.035
-728.937	-200.000	0.051	-0.274
-727.923	-38.910	0.165	0.087
-726.908	-21.868	-0.177	-0.108
-725.894	160.481	-0.076	0.106
-724.879	800.000	-0.034	0.108
-723.864	-200.000	0.008	-0.297
-722.850	-108.008	0.290	0.063
-721.835	-52.598	-0.069	-0.032
-720.821	139.505	-0.066	0.087
-719.806	-200.000	-0.001	0.150
-718.791	-75.259	-0.139	-0.050
-717.777	51.346	0.122	0.116
-716.762	28.561	0.110	-0.093
-715.748	-200.000	0.071	-0.415
-714.733	54.206	-0.069	-0.067
-713.718	800.000	-0.166	-0.594
-712.704	146.837	-0.112	-0.151
-711.689	800.000	-0.015	0.061
-710.675	258.975	0.104	0.179
-709.660	225.129	0.105	-0.171
-708.645	139.378	-0.145	-0.191
-707.631	-155.935	0.291	-0.019
-706.616	65.035	-0.019	-0.020
-705.602	-200.000	0.017	-0.134
-704.587	-15.224	-0.266	-0.170
-703.572	232.763	0.118	0.195
-702.558	-2.268	-0.178	-0.125
-701.543	-94.959	-0.370	-0.100
-700.529	-122.265	-0.295	0.048
-699.514	-200.000	-0.006	-0.282
-698.499	-200.000	-0.043	0.309
-697.485	-200.000	-0.102	0.487
-696.470	-200.000	0.094	-0.441
-695.456	418.679	-0.142	0.305
-694.441	-6.008	0.105	0.072
-693.426	-33.138	0.089	0.049
-692.412	-144.970	-0.199	0.018
-691.397	-184.064	-0.290	-0.005
-690.383	82.369	-0.127	-0.138
-689.368	-125.589	0.086	-0.013
-688.354	-81.199	0.309	-0.102
-687.339	-29.047	-0.112	0.065
-686.324	-200.000	-0.006	0.235
-685.310	800.000	-0.029	-0.096
-684.295	183.692	0.075	-0.112
-683.281	53.017	-0.083	0.080
-682.266	148.185	-0.185	-0.251
-681.251	179.177	-0.130	0.190
-680.237	-180.937	0.165	-0.003
-679.222	-200.000	-0.030	0.378
-678.208	-122.426	-0.475	-0.077
-677.193	-25.370	-0.237	0.140
-676.178	572.099	-0.170	-0.414
-675.164	-89.978	-0.096	-0.028
-674.149	-200.000	-0.022	-0.265
-673.135	70.092	0.054	-0.056
-672.120	44.242	-0.295	-0.271
-671.105	-200.000	-0.039	0.235
-670.091	-98.287	-0.281	-0.072
-669.076	72.048	-0.212	0.221
-668.062	-200.000	-0.011	0.065
-667.047	-200.000	-0.060	-0.362
-666.032	800.000	0.144	-0.407
-665.018	-64.050	0.374	-0.153
-664.003	-20.950	-0.334	-0.205
-662.989	-200.000	-0.223	0.001
-661.974	-176.255	-0.310	0.008
-660.959	-86.310	-0.398	0.122
-659.945	736.853	0.053	-0.141
-658.930	-87.688	-0.204	0.062
-657.916	800.000	0.078	0.314
-656.901	419.976	-0.078	-0.166
-655.886	-109.426	0.145	0.031
-654.872	-32.566	-0.219	0.122
-653.857	800.000	0.016	0.049
-652.843	-18.617	0.197	0.123
-651.828	63.351	0.158	0.158
-650.814	800.000	0.050	0.156
-649.799	1.425	0.133	-0.096
-648.784	-153.193	0.237	-0.017
-647.770	93.896	-0.125	0.142
-646.755	-45.123	0.058	-0.029
-645.741	24.406	-0.100	0.082
-644.726	-132.676	-0.069	-0.009
-643.711	5.401	0.041	-0.030
-642.697	111.275	-0.067	-0.080
-641.682	-68.343	0.170	-0.066
-640.668	-42.859	-0.222	-0.113
-639.653	-72.539	0.178	-0.066
-638.638	800.000	-0.047	0.154
-637.624	800.000	0.059	-0.196
-636.609	-96.432	0.331	-0.087
-635.595	402.564	0.117	-0.245
-634.580	759.416	-0.039	0.106
-633.565	580.494	-0.214	-0.523
-632.551	-78.252	-0.210	0.072
-631.536	-93.194	0.167	0.046
-630.522	-22.686	0.162	0.098
-629.507	1.467	0.061	-0.044
-628.492	800.000	0.089	-0.247
-627.478	66.172	-0.101	0.102
-626.463	-33.226	-0.043	-0.024
-625.449	-147.779	-0.189	0.016
-624.434	85.186	-0.326	-0.357
-623.419	-200.000	-0.002	-0.028
-622.405	-151.848	0.068	-0.005
-621.390	80.315	0.207	-0.223
-620.376	-200.000	-0.021	-0.170
-619.361	-114.410	0.084	0.016
-618.346	800.000	0.057	-0.222
-617.332	-200.000	-0.040	-0.195
-616.317	800.000	-0.094	-0.342
-615.303	-130.344	0.102	0.014
-614.288	-21.702	0.075	-0.046
-613.273	800.000	-0.093	-0.275
-612.259	-189.852	0.123	0.001
-611.244	-5.166	-0.016	-0.011
-610.230	-35.207	0.067	0.036
-609.215	-63.258	0.271	-0.111
-608.201	87.846	-0.026	0.029
-607.186	-200.000	0.029	0.239
-606.171	-200.000	-0.039	0.261
-605.157	-71.027	-0.192	-0.072
-604.142	-5.043	0.211	-0.145
-603.128	-20.931	0.254	-0.156
-602.113	3.650	0.263	0.192
-601.098	-54.482	-0.225	0.102
-600.084	742.264	-0.084	0.225
-599.069	-145.805	-0.114	-0.010
-598.055	-112.371	0.197	0.039
-597.040	-200.000	-0.001	0.096
-596.025	4.483	0.079	0.058
-595.011	-159.701	0.320	0.018
-593.996	66.895	0.117	0.119
-592.982	10.919	-0.190	0.145
-591.967	4.091	-0.202	0.147
-590.952	-132.725	-0.148	-0.019
-589.938	-50.108	0.237	-0.112
-588.923	-128.913	0.304	-0.043
-587.909	-48.056	0.198	-0.095
-586.894	800.000	0.072	-0.210
-585.879	161.268	0.046	-0.064
-584.865	46.798	0.124	0.115
-583.850	-200.000	0.005	-0.406
-582.836	12.381	-0.119	-0.091
-581.821	-92.965	0.240	-0.067
-580.806	-119.679	0.293	-0.050
-579.792	-57.485	-0.302	-0.132
-578.777	133.606	-0.106	0.137
-577.763	-6.575	-0.050	-0.034
-576.748	-41.121	0.383	0.197
-575.733	25.857	-0.207	0.172
-574.719	-72.236	-0.131	0.048
-573.704	-200.000	0.021	0.215
-572.690	-200.000	0.022	-0.192
-571.675	800.000	0.031	-0.117
-570.661	2.644	0.095	0.068
-569.646	-79.782	-0.052	0.018
-568.631	258.352	-0.042	0.072
-567.617	800.000	-0.037	0.126
-566.602	175.479	-0.051	-0.074
-565.588	-200.000	0.047	-0.345
-564.573	-82.218	-0.096	-0.031
-563.558	-200.000	-0.068	-0.307
-562.544	76.068	0.231	0.244
-561.529	-200.000	0.007	0.403
-560.515	-165.748	0.044	0.002
-559.500	800.000	0.058	-0.209
-558.485	-160.333	-0.110	0.006
-557.471	-200.000	-0.006	0.172
-556.456	50.472	0.213	0.201
-555.442	0.155	-0.311	-0.221
-554.427	27.715	-0.159	-0.134
-553.412	800.000	-0.052	0.157
-552.398	-200.000	-0.021	-0.233
-551.383	-53.550	-0.077	0.035
-550.369	150.081	-0.152	-0.205
-549.354	800.000	0.045	0.140
-548.339	-200.000	0.067	0.304
-547.325	74.125	-0.272	0.284
-546.310	21.830	-0.147	0.119
-545.296	158.865	0.132	0.183
-544.281	-0.685	-0.198	-0.140
-543.266	-46.119	-0.050	-0.024
-542.252	-59.117	0.060	-0.026
-541.237	-37.639	0.117	0.062
-540.223	76.179	-0.021	-0.022
-539.208	-200.000	-0.038	0.173
-538.193	526.780	-0.054	0.128
-537.179	-200.000	-0.053	0.291
-536.164	-103.483	-0.078	0.018
-535.150	-144.985	0.333	-0.030
-534.135	-200.000	-0.013	0.069
-533.121	571.223	0.040	-0.097
-532.106	302.537	0.068	-0.125
-531.091	139.862	0.176	-0.231
-530.077	354.485	-0.168	-0.332
-529.062	25.931	-0.079	-0.065
-528.048	48.744	-0.097	-0.091
-527.033	-200.000	-0.005	0.087
-526.018	743.422	0.071	-0.190
-525.004	-200.000	0.039	-0.192
-523.989	98.685	0.037	-0.043
-522.975	-101.034	-0.320	0.078
-521.960	-21.106	-0.072	-0.044
-520.945	83.689	0.238	-0.259
-519.931	562.551	-0.117	-0.282
-518.916	-155.140	-0.250	0.016
-517.902	-83.309	-0.190	-0.061
-516.887	-159.574	-0.536	0.030
-515.872	800.000	-0.054	-0.153
-514.858	5.735	-0.066	-0.048
-513.843	-26.855	0.116	-0.068
-512.829	-200.000	-0.040	-0.422
-511.814	-200.000	-0.018	0.321
-510.799	-58.684	-0.167	0.072
-509.785	120.740	0.111	-0.137
-508.770	794.323	-0.165	-0.453
-507.756	69.096	0.212	-0.217
-506.741	-200.000	0.006	-0.160
-505.726	48.821	-0.219	-0.204
-504.712	-112.200	0.111	-0.022
-503.697	9.354	0.197	0.148
-502.683	457.786	-0.030	0.066
-501.668	5.378	-0.127	-0.093
-500.653	-175.999	0.257	-0.007
-499.639	208.878	0.090	0.140
-498.624	86.614	-0.154	0.169
-497.610	513.166	-0.029	-0.067
-496.595	-200.000	-0.019	-0.402
-495.581	169.816	0.044	0.062
-494.566	238.959	0.084	-0.140
-493.551	164.726	0.148	0.208
-492.537	-172.283	0.134	-0.004
-491.522	-101.780	-0.245	-0.059
-490.508	186.959	-0.134	-0.198
-489.493	-134.873	0.122	0.015
-488.478	16.015	-0.275	-0.215
-487.464	0.788	-0.185	0.132
-486.449	-103.740	-0.101	-0.024
-485.435	-200.000	0.024	0.217
-484.420	-49.801	-0.170	0.080
-483.405	38.886	-0.397	0.353
-482.391	-96.221	0.247	0.065
-481.376	331.262	0.152	0.290
-480.362	755.604	-0.029	0.077
-479.347	21.124	-0.075	0.061
-478.332	181.077	-0.143	-0.208
-477.318	-200.000	0.008	0.085
-476.303	800.000	0.057	-0.204
-475.289	800.000	-0.030	-0.085
-474.274	-200.000	-0.029	-0.184
-473.259	-200.000	-0.017	-0.104
-472.245	800.000	-0.087	0.250
-471.230	-100.942	0.281	-0.069
-470.216	-1.246	0.077	-0.054
-469.201	193.216	-0.109	-0.163
-468.186	-135.592	0.203	-0.024
-467.172	-2.495	0.241	0.168
-466.157	60.055	-0.106	0.104
-465.143	-29.823	0.084	0.048
-464.128	-59.106	0.153	-0.065
-463.113	-130.882	-0.461	0.061
-462.099	196.224	0.170	0.256
-461.084	364.997	-0.153	0.306
-460.070	193.676	-0.104	0.157
-459.055	428.883	0.044	-0.094
-458.040	10.980	-0.097	0.074
-457.026	800.000	0.026	0.070
-456.011	253.165	0.202	-0.342
-454.997	60.202	-0.133	-0.130
-453.982	38.227	0.113	0.099
-452.968	-200.000	-0.031	0.215
-451.953	800.000	0.088	0.256
-450.938	220.789	-0.059	0.093
-449.924	248.258	0.208	-0.350
-448.909	-32.456	-0.099	-0.055
-447.895	-4.785	0.087	-0.060
-446.880	-175.277	-0.116	-0.003
-445.865	126.923	-0.267	0.335
-444.851	-200.000	0.011	-0.266
-443.836	55.678	0.192	0.185
-442.822	409.004	-0.127	-0.267
-441.807	-174.085	-0.222	0.006
-440.792	-200.000	0.052	-0.327
-439.778	412.577	-0.018	0.038
-438.763	-66.868	0.146	-0.057
-437.749	-164.200	0.119	-0.005
-436.734	-61.327	-0.129	0.054
-435.719	800.000	-0.048	-0.138
-434.705	-107.977	0.205	0.044
-433.690	-17.960	-0.245	0.152
-432.676	-200.000	0.010	-0.277
-431.661	-58.231	-0.173	0.075
-430.646	76.199	-0.189	-0.199
-429.632	-200.000	0.013	-0.122
-428.617	142.024	0.035	-0.046
-427.603	800.000	-0.080	-0.266
-426.588	-200.000	-0.010	0.319
-425.573	-23.807	-0.250	0.149
-424.559	649.717	-0.155	0.394
-423.544	-11.892	0.024	-0.015
-422.530	65.756	-0.276	-0.278
-421.515	-71.223	-0.284	-0.106
-420.500	157.140	0.162	0.221
-419.486	-67.333	-0.129	0.050
-418.471	133.722	0.155	0.199
-417.457	800.000	-0.128	-0.398
-416.442	-61.408	0.275	0.115
-415.428	-200.000	-0.050	0.258
-414.413	-200.000	0.024	0.188
-413.398	429.591	-0.124	0.265
-412.384	94.298	-0.127	-0.142
-411.369	-200.000	-0.039	0.235
-410.355	28.282	-0.133	0.112
-409.340	-122.757	-0.148	0.024
-408.325	-88.212	-0.567	-0.168
-407.311	241.602	0.144	0.239
-406.296	175.107	-0.093	-0.134
-405.282	-80.744	-0.433	0.143
-404.267	203.175	0.167	-0.255
-403.252	105.232	0.239	-0.279
-402.238	35.560	-0.391	0.340
-401.223	35.616	0.152	0.132
-400.209	352.451	0.142	0.280
-399.194	-200.000	0.015	0.173
-398.179	270.665	0.269	-0.468
-397.165	800.000	-0.042	-0.177
-396.150	-137.728	-0.161	0.018
-395.136	-155.581	-0.057	-0.004
-394.121	-41.372	0.273	0.139
-393.106	-182.942	0.123	-0.002
-392.092	-200.000	-0.037	-0.170
-391.077	800.000	0.066	-0.218
-390.063	-200.000	-0.079	0.350
-389.048	288.083	0.190	0.340
-388.033	526.660	0.088	0.204
-387.019	521.005	-0.046	0.106
-386.004	-200.000	-0.049	-0.216
-384.990	-129.006	-0.186	-0.026
-383.975	386.741	-0.112	-0.230
-382.960	-114.973	0.216	-0.041
-381.946	-16.475	0.214	-0.134
-380.931	-27.264	0.067	0.039
-379.917	-99.758	-0.164	-0.041
-378.902	74.090	0.073	0.075
-377.888	602.876	0.046	0.113
-376.873	-120.319	-0.411	-0.069
-375.858	-200.000	0.021	-0.214
-374.844	206.641	0.066	-0.102
-373.829	-47.734	0.230	-0.110
-372.815	-115.731	0.160	0.030
-371.800	110.433	0.116	-0.138
-370.785	-11.015	0.141	-0.092
-369.771	-56.055	0.258	-0.114
-368.756	-6.496	0.094	0.063
-367.742	614.446	-0.022	0.055
-366.727	-200.000	-0.058	0.369
-365.712	-43.073	-0.150	-0.075
-364.698	-186.419	0.150	0.002
-363.683	-130.950	-0.157	0.021
-362.669	800.000	-0.111	-0.353
-361.654	-200.000	0.019	-0.145
-360.639	800.000	-0.076	0.295
-359.625	-84.162	0.112	0.035
-358.610	-108.108	-0.070	-0.015
-357.596	69.624	-0.211	-0.215
-356.581	-200.000	0.008	-0.165
-355.566	-200.000	0.010	-0.137
-354.552	293.988	-0.142	0.256
-353.537	-200.000	-0.041	-0.247
-352.523	679.513	0.047	0.122
-351.508	63.414	0.209	0.207
-350.493	161.419	0.074	0.103
-349.479	-200.000	-0.037	0.443
-348.464	42.709	-0.197	0.177
-347.450	800.000	-0.033	-0.133
-346.435	248.338	-0.146	0.244
-345.420	500.600	-0.057	0.129
-344.406	-200.000	0.028	0.177
-343.391	-138.918	-0.117	0.013
-342.377	-93.121	0.290	-0.080
-341.362	-200.000	0.009	0.096
-340.348	-140.385	0.331	0.034
-339.333	-29.970	0.461	-0.260
-338.318	-200.000	-0.001	0.012
-337.304	-63.084	0.125	-0.051
-336.289	-200.000	0.006	0.138
-335.275	-200.000	0.044	0.226
-334.260	-200.000	0.027	0.384
-333.245	22.323	0.150	-0.121
-332.231	800.000	0.020	-0.084
-331.216	-200.000	-0.030	-0.363
-330.202	-18.951	0.039	-0.024
-329.187	-75.651	0.392	-0.138
-328.172	-177.437	0.157	-0.004
-327.158	-31.566	0.046	0.025
-326.143	7.075	-0.283	0.209
-325.129	800.000	0.054	0.223
-324.114	800.000	0.035	0.146
-323.099	85.224	-0.183	0.198
-322.085	-178.967	-0.424	-0.009
-321.070	-200.000	-0.069	-0.476
-320.056	-83.842	0.234	-0.074
-319.041	-105.766	-0.207	-0.046
-318.026	-83.894	0.238	0.075
-317.012	800.000	-0.141	0.449
-315.997	112.551	0.231	-0.276
-314.983	-30.412	0.106	0.060
-313.968	167.733	-0.144	0.202
-312.953	-23.727	0.226	-0.134
-311.939	-28.718	0.069	0.039
-310.924	3.029	-0.205	-0.147
-309.910	-200.000	-0.030	0.265
-308.895	-83.402	0.255	-0.081
-307.880	22.863	0.117	0.094
-306.866	-3.183	-0.086	0.059
-305.851	-138.823	0.063	-0.007
-304.837	800.000	0.135	-0.442
-303.822	-122.747	-0.346	-0.055
-302.807	23.750	0.324	0.263
-301.793	-50.771	-0.484	0.225
-300.778	687.291	0.111	0.286
-299.764	-132.111	0.720	0.092
-298.749	679.237	-0.057	-0.147
-297.735	118.883	0.161	-0.196
-296.720	-38.834	0.135	-0.070
-295.705	-200.000	0.006	-0.241
-294.691	16.195	-0.179	-0.139
-293.676	-143.626	-0.060	-0.006
-292.662	-3.166	-0.080	0.055
-291.647	-200.000	-0.020	-0.184
-290.632	-115.865	0.231	0.043
-289.618	218.338	0.054	0.085
-288.603	-145.940	0.220	-0.019
-287.589	-2.896	0.076	-0.052
-286.574	73.424	0.062	0.064
-285.559	25.273	-0.306	0.251
-284.545	-200.000	0.004	-0.123
-283.530	-200.000	0.018	-0.187
-282.516	-44.757	-0.157	-0.077
-281.501	205.873	-0.058	0.089
-280.486	-118.920	-0.227	-0.039
-279.472	153.144	0.187	-0.252
-278.457	240.806	0.090	0.148
-277.443	548.001	0.154	0.363
-276.428	110.930	-0.219	0.260
-275.413	263.435	0.023	-0.040
-274.399	223.863	-0.159	-0.253
-273.384	421.103	0.055	-0.116
-272.370	-96.993	-0.139	0.036
-271.355	291.527	0.192	-0.345
-270.340	32.591	0.232	-0.198
-269.326	346.493	0.088	0.171
-268.311	282.551	0.109	0.192
-267.297	-200.000	-0.016	0.074
-266.282	176.124	-0.077	0.110
-265.267	-34.637	-0.054	-0.029
-264.253	800.000	0.040	0.119
-263.238	39.629	0.165	0.145
-262.224	-120.526	0.098	-0.016
-261.209	-177.083	0.136	-0.003
-260.195	800.000	-0.035	0.121
-259.180	-200.000	-0.076	0.370
-258.165	-30.800	-0.279	0.156
-257.151	4.910	0.119	-0.086
-256.136	37.558	-0.038	0.033
-255.122	-16.939	-0.266	0.166
-254.107	-75.171	0.344	0.121
-253.092	-38.949	0.259	-0.134
-252.078	800.000	0.021	0.083
-251.063	279.142	0.267	-0.470
-250.049	-169.672	-0.526	-0.019
-249.034	92.690	-0.065	0.072
-248.019	-17.877	-0.344	0.212
-247.005	-18.449	-0.193	0.119
-245.990	263.710	0.076	-0.131
-244.976	59.308	-0.078	-0.076
-243.961	-6.094	0.059	0.040
-242.946	-200.000	-0.016	0.082
-241.932	16.320	0.078	0.061
-240.917	-45.269	0.058	0.028
-239.903	800.000	-0.025	0.075
-238.888	-59.650	0.012	0.005
-237.873	-183.511	0.012	-0.000
-236.859	800.000	-0.030	-0.119
-235.844	427.475	-0.092	-0.196
-234.830	25.131	-0.085	0.069
-233.815	26.390	0.296	-0.243
-232.800	-6.361	0.377	-0.253
-231.786	123.832	0.094	0.116
-230.771	-200.000	0.060	0.264
-229.757	16.663	0.038	0.030
-228.742	38.037	-0.124	-0.108
-227.727	-58.444	-0.065	-0.028
-226.713	26.463	0.258	0.213
-225.698	-42.805	-0.239	-0.120
-224.684	95.315	-0.069	-0.077
-223.669	-200.000	-0.023	0.153
-222.655	-97.168	0.500	-0.129
-221.640	800.000	-0.070	0.236
-220.625	-200.000	-0.024	0.503
-219.611	-200.000	-0.010	0.192
-218.596	123.893	-0.263	-0.325
-217.582	14.874	0.244	-0.187
-216.567	800.000	-0.080	0.280
-215.552	173.836	-0.027	0.038
-214.538	93.228	-0.221	-0.246
-213.523	-68.142	0.311	0.119
-212.509	800.000	-0.048	-0.188
-211.494	-44.868	0.300	0.147
-210.479	27.922	-0.118	-0.098
-209.465	800.000	-0.025	-0.094
-208.450	370.456	0.124	-0.247
-207.436	735.546	-0.033	-0.086
-206.421	138.061	-0.150	0.194
-205.406	-52.973	0.175	-0.079
-204.392	-200.000	0.023	0.478
-203.377	146.631	0.204	0.270
-202.363	-60.375	-0.279	0.117
-201.348	16.288	-0.076	0.059
-200.333	-110.925	-0.072	0.014
-199.319	-200.000	0.244	-0.001
-198.304	-144.833	0.235	0.021
-197.290	62.517	-0.158	-0.156
-196.275	332.160	-0.027	0.051
-195.260	81.546	-0.077	-0.082
-194.246	-200.000	-0.033	-0.402
-193.231	78.233	-0.106	0.111
-192.217	-136.800	0.161	-0.018
-191.202	232.734	0.067	0.108
-190.187	-200.000	-0.024	0.194
-189.173	35.799	-0.200	-0.173
-188.158	-27.005	-0.069	-0.039
-187.144	-138.814	0.081	-0.009
-186.129	309.998	0.067	-0.123
-185.114	-200.000	-0.057	0.461
-184.100	731.931	0.048	-0.125
-183.085	60.398	0.085	-0.082
-182.071	-38.304	0.298	-0.155
-181.056	-136.656	-0.241	-0.027
-180.042	68.966	-0.367	-0.370
-179.027	-200.000	-0.000	0.066
-178.012	-156.168	0.062	-0.004
-176.998	-44.129	-0.287	0.141
-175.983	-115.007	0.326	0.061
-174.969	655.763	0.078	0.198
-173.954	-63.304	-0.117	-0.047
-172.939	-200.000	0.040	0.231
-171.925	-70.547	0.198	0.074
-170.910	-200.000	-0.020	-0.238
-169.896	-18.319	-0.188	-0.115
-168.881	503.794	-0.055	-0.124
-167.866	284.480	-0.294	0.519
-166.852	-200.000	-0.033	0.233
-165.837	33.843	0.085	-0.073
-164.823	-82.387	-0.245	0.078
-163.808	40.351	0.221	-0.195
-162.793	54.788	0.185	-0.175
-161.779	800.000	-0.058	-0.232
-160.764	40.771	-0.394	0.349
-159.750	-33.297	0.104	0.056
-158.735	-161.672	-0.482	0.024
-157.720	-200.000	-0.012	-0.193
-156.706	-52.203	0.401	0.183
-155.691	-77.402	-0.384	0.131
-154.677	132.428	-0.176	0.223
-153.662	-200.000	0.100	0.526
-152.647	12.121	0.219	0.165
-151.633	602.612	-0.193	-0.472
-150.618	-5.322	0.124	0.084
-149.604	-187.414	-0.207	0.003
-148.589	-35.582	0.309	0.164
-147.574	-51.364	-0.159	-0.073
-146.560	-72.976	0.208	-0.075
-145.545	800.000	0.148	0.558
-144.531	800.000	-0.127	-0.348
-143.516	240.329	0.106	0.173
-142.502	-200.000	0.023	0.113
-141.487	-200.000	-0.044	0.238
-140.472	-200.000	0.010	0.207
-139.458	-150.780	-0.071	-0.005
-138.443	-24.967	0.153	0.089
-137.429	-92.997	0.214	-0.059
-136.414	800.000	0.127	-0.452
-135.399	-200.000	0.029	-0.377
-134.385	-61.133	0.216	0.089
-133.370	71.136	0.075	-0.076
-132.356	-200.000	-0.024	-0.450
-131.341	-75.686	-0.109	-0.038
-130.326	27.458	-0.158	-0.131
-129.312	336.289	0.086	0.163
-128.297	-31.416	0.015	-0.008
-127.283	-50.264	0.259	0.120
-126.268	173.862	0.263	-0.372
-125.253	91.934	-0.080	0.089
-124.239	162.127	-0.278	0.382
-123.224	-11.073	-0.023	-0.015
-122.210	-162.097	-0.120	0.006
-121.195	-182.770	0.137	0.002
-120.180	800.000	-0.026	-0.104
-119.166	-60.928	0.477	0.198
-118.151	154.709	-0.169	-0.228
-117.137	-23.025	0.311	-0.184
-116.122	-95.255	-0.220	0.058
-115.107	44.755	-0.042	0.038
-114.093	-29.360	0.195	-0.110
-113.078	231.410	0.057	-0.092
-112.064	-98.905	0.086	0.021
-111.049	-200.000	-0.066	-0.289
-110.034	399.740	0.048	0.099
-109.020	-200.000	-0.020	0.362
-108.005	-147.908	-0.183	-0.015
-106.991	-200.000	0.046	0.367
-105.976	800.000	-0.029	0.095
-104.962	160.974	-0.108	0.148
-103.947	800.000	0.078	0.218
-102.932	-200.000	0.038	0.227
-101.918	187.749	-0.165	0.241
-100.903	312.268	0.095	-0.175
-99.889	75.673	0.074	-0.077
-98.874	22.370	0.042	0.034
-97.859	-200.000	0.043	0.281
-96.845	800.000	-0.092	0.308
-95.830	800.000	-0.053	-0.156
-94.816	-59.591	-0.127	-0.053
-93.801	800.000	-0.026	0.109
-92.786	10.884	-0.048	0.036
-91.772	166.989	-0.157	0.218
-90.757	-158.952	-0.129	0.007
-89.743	-131.397	-0.153	-0.020
-88.728	118.717	0.183	-0.221
-87.713	67.171	-0.320	0.319
-86.699	110.609	-0.077	0.091
-85.684	800.000	0.106	0.442
-84.670	216.583	0.217	0.337
-83.655	-165.345	-0.120	0.005
-82.640	-200.000	-0.048	-0.207
-81.626	763.954	0.128	0.340
-80.611	-150.734	-0.083	-0.006
-79.597	800.000	-0.065	0.266
-78.582	-184.903	0.140	-0.002
-77.567	-200.000	0.015	-0.204
-76.553	272.102	-0.054	-0.094
-75.538	136.255	-0.167	-0.213
-74.524	223.578	-0.127	-0.200
-73.509	-92.413	-0.227	-0.062
-72.494	153.517	-0.123	0.165
-71.480	-80.547	-0.132	0.043
-70.465	-56.002	-0.071	0.031
-69.451	-200.000	0.043	0.460
-68.436	295.573	0.068	0.121
-67.422	-10.999	0.161	-0.104
-66.407	800.000	-0.120	0.494
-65.392	-126.957	-0.128	0.018
-64.378	0.822	-0.019	-0.013
-63.363	-115.843	-0.026	-0.005
-62.349	-96.942	-0.182	-0.047
-61.334	71.035	-0.987	-1.000
-60.319	65.511	0.593	0.587
-59.305	800.000	-0.310	-0.864
-58.290	219.334	0.771	1.205
-57.276	242.384	0.897	1.468
-56.261	-200.000	115.923	645.181
-55.246	501.691	1537.585	3470.306
-54.232	176.255	2706.831	3842.078
-53.217	105.368	2148.215	2479.481
-52.203	37.988	1583.624	1376.012
-51.188	29.773	1327.069	1104.236
-50.173	26.969	1288.425	1055.757
-49.159	52.816	1347.137	1258.456
-48.144	51.341	1359.976	1261.634
-47.130	29.959	1314.599	1094.787
-46.115	26.496	1296.643	1059.554
-45.100	26.335	1291.857	1054.661
-44.086	26.402	1288.745	1052.468
-43.071	26.322	1286.238	1049.917
-42.057	26.263	1284.671	1048.254
-41.042	26.365	1282.647	1047.150
-40.027	26.421	1281.373	1046.390
-39.013	26.328	1279.631	1044.389
-37.998	26.354	1277.881	1043.068
-36.984	26.411	1275.762	1041.628
-35.969	26.354	1274.407	1040.154
-34.954	26.553	1272.110	1039.377
-33.940	26.466	1270.835	1037.795
-32.925	26.516	1269.875	1037.256
-31.911	26.573	1268.454	1036.380
-30.896	26.540	1266.639	1034.669
-29.881	26.613	1264.945	1033.661
-28.867	26.596	1264.026	1032.771
-27.852	26.602	1262.645	1031.636
-26.838	26.505	1261.375	1030.010
-25.823	26.433	1260.128	1028.542
-24.809	26.515	1258.603	1027.719
-23.794	26.544	1257.327	1026.800
-22.779	26.516	1255.807	1025.362
-21.765	26.510	1254.601	1024.303
-20.750	26.396	1253.740	1022.914
-19.736	26.491	1252.563	1022.448
-18.721	26.425	1251.203	1020.924
-17.706	26.530	1250.188	1020.649
-16.692	26.499	1248.729	1019.241
-15.677	26.374	1247.847	1017.776
-14.663	26.450	1246.306	1016.909
-13.648	26.499	1245.042	1016.112
-12.633	26.373	1244.734	1015.116
-11.619	26.331	1243.863	1014.126
-10.604	26.437	1242.538	1013.602
-9.590	26.395	1241.626	1012.582
-8.575	26.330	1240.942	1011.617
-7.560	26.364	1240.415	1011.337
-6.546	26.369	1239.230	1010.363
-5.531	26.436	1238.478	1010.083
-4.517	26.431	1237.474	1009.194
-3.502	26.501	1236.503	1008.755
-2.487	26.439	1235.587	1007.622
-1.473	26.383	1231.541	1003.968
-0.458	24.931	1216.709	983.868
0.556	21.673	1200.778	947.453
1.571	18.034	1206.756	932.269
2.586	17.200	1221.589	939.035
3.600	16.903	1209.164	927.776
4.615	12.697	1138.618	851.853
5.629	6.037	1068.068	766.588
6.644	3.304	1050.935	741.091
7.659	3.030	1048.732	738.155
8.673	3.180	1047.457	737.912
9.688	3.126	1046.331	736.794
10.702	3.419	1044.032	736.509
11.717	6.954	1049.427	757.205
12.731	14.399	1059.432	800.231
13.746	19.029	1065.026	826.684
14.761	19.712	1065.390	830.178
15.775	18.861	1064.066	824.986
16.790	17.869	1062.163	818.681
17.804	17.153	1060.544	813.933
18.819	16.834	1059.484	811.520
19.834	16.817	1058.280	810.442
20.848	16.626	1057.902	809.172
21.863	16.294	1057.286	807.041
22.877	16.188	1056.480	805.848
23.892	16.220	1055.897	805.484
24.907	16.247	1054.886	804.771
25.921	16.291	1054.121	804.323
26.936	16.279	1052.076	802.637
27.950	16.271	1051.137	801.812
28.965	16.387	1049.798	801.268
29.980	16.523	1048.378	800.758
30.994	16.625	1047.165	800.243
32.009	16.566	1046.605	799.464
33.023	16.586	1045.437	798.597
34.038	16.364	1044.214	796.547
35.053	16.308	1043.201	795.438
36.067	16.290	1042.127	794.466
37.082	16.402	1041.830	794.696
38.096	16.388	1041.221	794.097
39.111	16.586	1039.964	793.996
40.126	16.398	1038.737	792.109
41.140	16.110	1037.612	789.828
42.155	15.954	1036.745	788.370
43.169	15.968	1035.200	787.190
44.184	15.909	1034.400	786.237
45.199	16.048	1033.370	786.034
46.213	16.117	1032.276	785.453
47.228	16.337	1031.355	785.706
48.242	16.338	1030.269	784.815
49.257	16.264	1029.720	783.982
50.271	16.435	1028.951	784.120
51.286	16.471	1027.627	783.210
52.301	16.418	1026.514	782.050
53.315	16.287	1025.804	780.833
54.330	16.189	1024.468	779.292
55.344	16.162	1023.697	778.515
56.359	16.161	1022.876	777.813
57.374	15.998	1022.106	776.409
58.388	15.875	1021.079	774.996
59.403	15.937	1020.684	774.912
60.417	16.012	1019.895	774.590
61.432	15.958	1018.840	773.470
62.447	15.950	1017.642	772.459
63.461	15.900	1016.887	771.587
64.476	15.885	1015.909	770.707
65.490	15.737	1015.439	769.604
66.505	15.947	1014.964	770.137
67.520	16.007	1013.939	769.564
68.534	16.068	1013.327	769.311
69.549	15.863	1012.682	767.818
70.563	15.979	1011.439	767.335
71.578	15.775	1010.765	765.826
72.593	15.763	1009.798	764.973
73.607	15.724	1009.281	764.336
74.622	15.712	1008.754	763.817
75.636	15.712	1008.427	763.499
76.651	15.735	1007.588	762.902
77.666	15.734	1006.837	762.260
78.680	15.790	1006.566	762.243
79.695	15.979	1005.356	762.112
80.709	16.040	1005.155	762.170
81.724	16.084	1004.494	761.799
82.739	16.110	1003.873	761.381
83.753	16.193	1003.475	761.385
84.768	16.527	1001.920	761.642
85.782	16.662	1001.383	761.774
86.797	16.523	1000.526	760.430
87.812	16.379	999.505	758.940
88.826	16.413	998.583	758.325
89.841	16.437	997.722	757.713
90.855	16.478	997.033	757.304
91.870	16.621	995.655	756.830
92.884	16.576	994.812	755.921
93.899	16.555	993.967	755.118
94.914	16.705	993.759	755.564
95.928	16.607	992.666	754.227
96.943	16.492	991.547	752.801
97.957	16.493	990.914	752.257
98.972	16.557	989.876	751.687
99.987	16.518	989.177	750.918
101.001	16.446	988.043	749.670
102.016	16.467	987.685	749.424
103.030	16.564	986.799	749.118
104.045	16.578	985.987	748.496
105.060	16.333	985.061	746.645
106.074	16.195	983.841	745.043
107.089	16.145	982.852	744.008
108.103	15.938	982.332	742.636
109.118	16.042	980.585	741.706
110.133	15.967	980.252	741.061
111.147	16.109	979.134	740.772
112.162	16.117	978.167	740.011
113.176	16.179	977.841	739.972
114.191	16.219	976.822	739.309
115.206	16.221	976.299	738.856
116.220	16.206	975.023	737.758
117.235	16.099	974.859	737.101
118.249	16.094	973.631	736.089
119.264	16.139	972.890	735.658
120.279	15.996	971.928	734.244
121.293	16.075	971.044	733.854
122.308	15.860	970.239	732.245
123.322	15.841	969.060	731.210
124.337	16.015	967.892	731.018
125.352	15.907	966.995	729.808
126.366	15.836	966.127	728.780
127.381	15.933	964.788	728.125
128.395	15.842	964.461	727.419
129.410	15.973	963.048	726.857
130.424	16.020	962.823	726.823
131.439	16.135	961.943	726.589
132.454	16.220	961.012	726.189
133.468	16.229	960.425	725.722
134.483	16.180	959.437	724.700
135.497	16.181	958.345	723.815
136.512	16.166	957.447	723.006
137.527	16.149	957.492	722.903
138.541	16.316	955.986	722.416
139.556	16.333	955.442	722.015
140.570	16.336	955.193	721.779
141.585	16.610	954.136	722.083
142.600	16.531	953.343	721.084
143.614	16.650	952.334	720.761
144.629	16.688	951.446	720.190
145.643	16.499	951.122	719.074
146.658	16.417	950.081	717.876
147.673	16.229	949.236	716.377
148.687	16.305	947.965	715.677
149.702	16.158	947.768	714.844
150.716	16.169	946.949	714.208
151.731	16.263	945.882	713.738
152.746	16.201	945.561	713.168
153.760	16.378	944.847	713.316
154.775	16.480	944.060	713.089
155.789	16.542	943.427	712.806
156.804	16.476	942.839	712.024
157.819	16.501	942.029	711.452
158.833	16.725	941.134	711.657
159.848	16.668	940.656	710.992
160.862	16.757	939.155	710.170
161.877	16.494	938.287	708.347
162.892	16.380	937.107	706.918
163.906	16.218	936.542	705.749
164.921	16.348	935.786	705.662
165.935	16.475	935.010	705.543
166.950	16.396	933.865	704.286
167.964	16.441	933.035	703.786
168.979	16.285	932.088	702.362
169.994	16.406	931.090	702.049
171.008	16.430	930.927	701.964
172.023	16.649	930.331	702.362
173.037	16.635	929.694	701.763
174.052	16.618	928.598	700.803
175.067	16.461	928.077	699.697
176.081	16.321	927.557	698.662
177.096	16.348	926.832	698.166
178.110	16.425	926.024	697.814
179.125	16.453	925.658	697.592
180.140	16.443	925.334	697.247
181.154	16.522	924.919	697.196
182.169	16.607	924.393	697.088
183.183	16.748	923.638	697.040
184.198	16.781	922.763	696.452
185.213	16.732	922.086	695.679
186.227	16.887	921.719	695.974
187.242	16.816	921.306	695.311
188.256	16.935	920.747	695.314
189.271	16.961	919.445	694.377
190.286	16.579	918.389	691.958
191.300	16.227	917.823	690.030
192.315	16.235	917.461	689.730
193.329	16.410	916.650	689.774
194.344	16.509	916.088	689.695
195.359	16.747	915.370	690.060
196.373	16.684	915.182	689.602
197.388	16.881	915.000	690.204
198.402	17.040	914.486	690.405
199.417	17.096	913.686	689.966
200.432	17.130	912.984	689.514
201.446	17.172	912.466	689.230
202.461	17.245	912.299	689.342
203.475	17.160	911.315	688.191
204.490	16.964	910.634	686.823
205.504	16.905	910.096	686.116
206.519	16.889	909.239	685.347
207.534	16.928	908.381	684.797
208.548	16.942	907.799	684.355
209.563	16.908	907.462	683.903
210.577	16.932	906.549	683.251
211.592	17.173	905.987	683.736
212.607	17.235	905.270	683.382
213.621	17.258	904.626	682.930
214.636	17.099	903.810	681.615
215.650	17.125	903.127	681.145
216.665	17.076	902.683	680.551
217.680	17.187	902.205	680.577
218.694	17.403	901.175	680.602
219.709	17.301	900.400	679.550
220.723	17.148	900.204	678.732
221.738	17.204	899.093	678.058
222.753	17.114	899.146	677.677
223.767	17.370	898.014	677.785
224.782	17.406	897.359	677.373
225.796	17.429	897.000	677.134
226.811	17.406	896.360	676.501
227.826	17.235	895.746	675.295
228.840	17.349	894.689	674.894
229.855	17.218	894.317	674.033
230.869	17.364	893.157	673.678
231.884	17.168	892.347	672.231
232.899	17.090	892.141	671.709
233.913	17.099	891.178	670.959
234.928	17.096	890.581	670.437
235.942	16.914	890.281	669.433
236.957	17.037	889.682	669.411
237.972	17.147	889.047	669.307
238.986	16.892	888.996	668.202
240.001	17.199	887.657	668.348
241.015	17.181	887.486	668.089
242.030	17.358	886.537	668.008
243.045	17.230	886.193	667.189
244.059	17.303	885.414	666.828
245.074	17.372	885.003	666.731
246.088	17.427	884.335	666.384
247.103	17.504	883.708	666.155
248.117	17.651	883.616	666.600
249.132	17.900	882.753	666.865
250.147	17.992	882.135	666.697
251.161	17.897	881.803	666.016
252.176	17.937	881.111	665.589
253.190	18.178	880.248	665.816
254.205	18.031	880.053	665.041
255.220	17.981	879.246	664.177
256.234	17.919	878.919	663.631
257.249	18.069	877.928	663.404
258.263	17.970	877.194	662.407
259.278	17.964	876.566	661.851
260.293	18.260	875.568	662.184
261.307	18.128	875.478	661.547
262.322	18.158	874.530	660.889
263.336	18.202	873.937	660.552
264.351	18.096	873.638	659.858
265.366	18.161	872.911	659.501
266.380	18.174	872.105	658.883
267.395	18.188	871.325	658.290
268.409	18.044	870.888	657.349
269.424	18.093	869.910	656.741
270.439	18.088	869.032	655.999
271.453	18.054	868.379	655.318
272.468	18.021	867.790	654.689
273.482	17.948	867.349	654.018
274.497	18.052	866.961	654.067
275.512	18.016	866.280	653.360
276.526	17.992	865.921	652.939
277.541	18.174	865.329	653.127
278.555	18.249	864.816	652.971
279.570	18.244	864.484	652.644
280.585	18.370	863.256	652.138
281.599	18.289	862.651	651.315
282.614	18.022	862.169	649.876
283.628	18.177	861.186	649.667
284.643	17.986	860.749	648.556
285.657	18.160	860.066	648.643
286.672	18.126	859.962	648.380
287.687	18.053	859.447	647.655
288.701	18.303	858.151	647.569
289.716	18.162	858.194	647.010
290.730	18.304	857.282	646.800
291.745	18.224	856.722	646.022
292.760	18.273	856.196	645.750
293.774	18.444	855.548	645.851
294.789	18.407	854.611	644.946
295.803	18.272	854.423	644.239
296.818	18.364	853.328	643.704
297.833	18.301	852.606	642.863
298.847	18.306	852.300	642.594
299.862	18.426	851.621	642.476
300.876	18.521	851.446	642.645
301.891	18.593	850.750	642.332
302.906	18.652	850.116	642.016
303.920	18.806	849.861	642.342
304.935	18.822	848.738	641.497
305.949	18.741	848.410	640.889
306.964	18.679	847.833	640.167
307.979	18.755	847.063	639.812
308.993	18.693	846.795	639.321
310.008	18.644	846.150	638.597
311.022	18.676	845.389	638.085
312.037	18.556	844.775	637.118
313.052	18.485	844.154	636.329
314.066	18.292	843.928	635.386
315.081	18.565	843.209	635.801
316.095	18.573	842.815	635.478
317.110	18.527	841.801	634.485
318.125	18.494	841.213	633.867
319.139	18.437	840.975	633.421
320.154	18.608	840.308	633.491
321.168	18.574	839.741	632.883
322.183	18.534	839.420	632.440
323.197	18.653	839.005	632.507
324.212	18.686	838.508	632.197
325.227	18.588	838.019	631.414
326.241	18.511	837.472	630.663
327.256	18.488	837.119	630.254
328.270	18.609	836.126	629.895
329.285	18.526	835.523	629.085
330.300	18.579	834.901	628.754
331.314	18.485	834.720	628.216
332.329	18.794	834.201	628.903
333.343	18.883	833.574	628.701
334.358	18.885	833.181	628.353
335.373	18.911	833.057	628.300
336.387	18.675	832.725	627.133
337.402	18.903	832.292	627.582
338.416	19.024	832.255	627.940
339.431	19.209	831.393	627.911
340.446	19.098	831.421	627.472
341.460	19.138	831.182	627.379
342.475	19.175	830.748	627.132
343.489	19.187	830.414	626.869
344.504	19.336	829.758	626.859
345.519	19.311	829.502	626.521
346.533	19.196	828.902	625.592
347.548	19.059	828.243	624.542
348.562	18.910	827.875	623.669
349.577	19.051	826.615	623.176
350.592	18.864	826.081	622.040
351.606	18.934	825.427	621.746
352.621	18.904	824.816	621.125
353.635	18.976	824.272	620.918
354.650	18.975	823.753	620.469
355.665	19.171	822.832	620.425
356.679	19.089	822.171	619.577
357.694	19.118	821.771	619.325
358.708	19.233	820.757	618.920
359.723	19.144	820.507	618.359
360.738	19.240	820.018	618.279
361.752	19.332	819.344	618.045
362.767	19.228	819.242	617.541
363.781	19.414	818.661	617.714
364.796	19.624	818.324	618.157
365.810	19.560	818.128	617.726
366.825	19.671	817.285	617.432
367.840	19.774	816.672	617.281
368.854	19.459	816.098	615.671
369.869	19.544	815.883	615.755
370.883	19.494	815.689	615.378
371.898	19.625	815.201	615.419
372.913	19.800	814.911	615.771
373.927	19.464	814.427	614.156
374.942	19.575	813.818	614.036
375.956	19.552	813.735	613.839
376.971	19.725	813.312	614.077
377.986	19.849	812.596	613.925
379.000	19.858	812.208	613.607
380.015	19.774	811.459	612.689
381.029	19.811	810.805	612.274
382.044	19.803	810.305	611.813
383.059	19.782	809.827	611.323
384.073	19.802	808.961	610.686
385.088	19.630	808.618	609.766
386.102	19.721	807.820	609.431
387.117	19.702	807.115	608.779
388.132	19.542	806.654	607.815
389.146	19.718	806.195	608.034
390.161	19.784	805.909	607.997
391.175	19.752	805.392	607.441
392.190	19.683	805.071	606.900
393.205	19.598	804.620	606.210
394.219	19.656	804.179	606.027
395.234	19.712	803.770	605.862
396.248	19.601	803.116	604.926
397.263	19.588	802.514	604.375
398.278	19.492	802.288	603.816
399.292	19.542	802.011	603.726
400.307	19.577	801.085	603.099
401.321	19.613	800.766	602.931
402.336	19.784	800.150	603.011
403.350	19.886	799.543	602.856
404.365	19.933	799.183	602.693
405.380	20.019	798.621	602.517
406.394	20.252	798.525	603.201
407.409	20.215	798.353	602.890
408.423	20.076	798.398	602.386
409.438	20.091	797.836	601.959
410.453	20.173	797.312	601.796
411.467	20.292	796.762	601.742
412.482	20.336	796.392	601.561
413.496	20.317	796.057	601.189
414.511	20.162	796.123	600.648
415.526	20.198	795.444	600.206
416.540	20.274	794.905	600.010
417.555	20.226	794.601	599.562
418.569	20.203	793.876	598.881
419.584	20.476	793.412	599.422
420.599	20.300	793.114	598.536
421.613	162.622	1371.054	1797.293
422.628	141.004	1455.231	1797.399
