DTS Sentinel unit serial number:	SN413079Multiplexer serial number:	ORYXHardware model number:	OX4-SRSoftware version number:	ORYX F/W v4.00 Oryx Data Collector v3.7.2.0data status	okinstallation	princeton_trtdifferential loss correction	single-endedforward channel	channel 1reverse channel	N/Adate	2019/09/12time	08:28:11forward acquisition time	60.00reverse acquisition time	0.00gamma	496.2192k internal	0.2312k external	0.2312temperature offset calibration	1.0043default loss term (dB/km)	0.3790temperature slope calibration	1.0000multiplexer offset coefficient	1.0000multiplexer slope coefficient	1.0000fibre end	0.00T internal ref (°C)	33.62T ext. ref 1 (°C)	1.70T ext. ref 2 (°C)	29.62length (m)	temperature (°C)	Stokes	anti-Stokes-747.200	-200.000	0.022	0.243
-746.185	64.299	-0.067	0.069
-745.171	128.131	-0.213	0.275
-744.156	87.219	-0.055	0.061
-743.142	-200.000	0.053	-0.322
-742.127	-200.000	-0.008	0.127
-741.112	455.074	0.071	-0.161
-740.098	-200.000	-0.015	0.272
-739.083	24.793	0.227	-0.191
-738.069	-200.000	-0.002	0.382
-737.054	286.539	0.143	0.262
-736.039	108.138	0.143	-0.172
-735.025	-130.846	-0.259	0.035
-734.010	254.612	-0.072	-0.126
-732.996	-200.000	0.013	0.100
-731.981	-106.877	-0.314	-0.071
-730.966	752.520	-0.027	-0.073
-729.952	-200.000	0.001	0.029
-728.937	-62.700	-0.221	0.093
-727.923	-118.432	-0.140	-0.025
-726.908	32.578	-0.251	-0.220
-725.894	3.513	-0.183	0.135
-724.879	-200.000	-0.024	-0.443
-723.864	-27.165	-0.270	-0.159
-722.850	-200.000	-0.014	0.149
-721.835	117.237	0.184	-0.229
-720.821	800.000	-0.131	0.368
-719.806	-200.000	0.043	-0.212
-718.791	-85.958	0.121	-0.038
-717.777	-188.824	0.117	-0.001
-716.762	-96.000	-0.236	-0.064
-715.748	162.925	0.313	-0.445
-714.733	220.946	-0.139	-0.227
-713.718	800.000	-0.070	-0.207
-712.704	-18.756	-0.284	0.179
-711.689	305.140	-0.081	0.153
-710.675	-128.404	-0.133	0.019
-709.660	800.000	0.059	0.187
-708.645	-200.000	-0.038	0.457
-707.631	-95.558	-0.142	0.039
-706.616	-89.814	0.236	0.070
-705.602	-122.241	-0.197	0.033
-704.587	-49.451	0.388	-0.187
-703.572	800.000	-0.040	-0.112
-702.558	-47.600	-0.265	-0.130
-701.543	800.000	-0.065	-0.212
-700.529	221.195	-0.280	-0.456
-699.514	382.545	-0.083	-0.173
-698.499	-133.662	-0.293	-0.037
-697.485	-96.508	-0.215	-0.058
-696.470	-87.236	0.205	-0.063
-695.456	139.594	0.152	0.202
-694.441	-3.894	-0.059	0.042
-693.426	133.386	0.156	0.205
-692.412	34.169	-0.091	-0.080
-691.397	77.053	-0.155	0.167
-690.383	419.504	0.058	-0.127
-689.368	65.698	0.096	0.099
-688.354	-72.257	-0.092	-0.035
-687.339	-36.297	0.225	0.123
-686.324	99.734	-0.255	0.299
-685.310	-200.000	-0.024	-0.152
-684.295	55.980	0.116	0.113
-683.281	800.000	0.020	-0.084
-682.266	88.602	0.099	-0.111
-681.251	-138.095	-0.198	-0.022
-680.237	-115.017	-0.314	0.060
-679.222	800.000	0.100	-0.420
-678.208	-42.183	-0.453	-0.234
-677.193	-17.440	-0.156	-0.100
-676.178	-200.000	-0.024	-0.109
-675.164	-200.000	0.038	0.207
-674.149	-37.593	-0.178	-0.096
-673.135	-28.678	0.140	-0.081
-672.120	176.934	0.038	0.056
-671.105	-200.000	-0.020	-0.358
-670.091	1.324	-0.153	0.111
-669.076	-64.200	0.290	0.120
-668.062	182.185	0.159	0.237
-667.047	246.833	-0.164	0.280
-666.032	60.200	0.093	-0.093
-665.018	800.000	0.110	-0.398
-664.003	355.336	-0.151	0.303
-662.989	13.677	0.065	0.051
-661.974	-27.455	0.219	-0.129
-660.959	-16.758	-0.102	-0.065
-659.945	-32.955	0.025	0.014
-658.930	72.559	0.155	-0.164
-657.916	39.707	0.266	-0.242
-656.901	-200.000	-0.042	-0.254
-655.886	281.167	0.166	-0.301
-654.872	222.507	-0.049	-0.080
-653.857	-200.000	-0.012	0.086
-652.843	-154.045	0.209	-0.014
-651.828	304.730	-0.154	0.289
-650.814	-135.774	0.114	-0.014
-649.799	-14.455	0.274	0.178
-648.784	-200.000	0.029	-0.159
-647.770	-87.084	0.309	-0.095
-646.755	-60.012	-0.339	0.146
-645.741	20.834	0.158	-0.129
-644.726	800.000	0.096	-0.338
-643.711	224.915	-0.119	-0.194
-642.697	-200.000	-0.009	0.182
-641.682	-200.000	0.021	0.251
-640.668	13.567	-0.331	0.260
-639.653	217.557	-0.146	0.235
-638.638	-74.372	-0.175	-0.064
-637.624	100.825	0.122	-0.143
-636.609	-200.000	-0.013	0.218
-635.595	447.370	0.118	-0.263
-634.580	75.347	-0.245	-0.261
-633.565	-200.000	-0.006	0.074
-632.551	800.000	-0.048	0.158
-631.536	164.473	-0.047	-0.066
-630.522	89.943	0.089	0.100
-629.507	236.548	-0.133	0.222
-628.492	36.798	0.299	0.267
-627.478	-19.953	0.233	0.145
-626.463	-174.641	0.159	-0.005
-625.449	-111.580	-0.105	-0.022
-624.434	101.640	0.124	0.145
-623.419	-143.162	0.359	0.035
-622.405	-124.215	0.142	0.022
-621.390	-1.911	-0.361	0.257
-620.376	-54.127	-0.130	0.060
-619.361	-156.001	-0.372	0.024
-618.346	-10.649	-0.202	-0.135
-617.332	800.000	0.074	-0.295
-616.317	528.931	0.025	-0.060
-615.303	453.916	-0.095	-0.212
-614.288	154.794	0.088	0.123
-613.273	0.267	0.035	-0.025
-612.259	-200.000	0.066	-0.296
-611.244	510.524	-0.112	-0.263
-610.230	171.314	0.199	-0.288
-609.215	148.128	-0.142	0.193
-608.201	186.798	-0.141	0.212
-607.186	-107.491	0.199	0.044
-606.171	-141.392	0.187	-0.019
-605.157	-200.000	0.002	-0.369
-604.142	395.190	-0.128	-0.270
-603.128	800.000	0.070	-0.271
-602.113	-54.916	0.162	0.074
-601.098	594.810	0.056	0.140
-600.084	-200.000	-0.001	0.125
-599.069	14.849	0.174	0.137
-598.055	-39.794	-0.263	0.138
-597.040	17.532	-0.095	-0.076
-596.025	-19.648	-0.249	-0.156
-595.011	-9.773	0.108	-0.073
-593.996	61.892	-0.072	-0.073
-592.982	67.171	-0.257	0.264
-591.967	11.186	-0.063	0.049
-590.952	-34.504	-0.288	-0.159
-589.938	106.367	-0.070	-0.084
-588.923	207.914	0.066	-0.104
-587.909	-11.610	-0.270	0.179
-586.894	-200.000	0.001	0.052
-585.879	-200.000	0.060	-0.271
-584.865	-82.979	-0.241	0.078
-583.850	27.301	0.320	-0.271
-582.836	-71.270	0.165	0.063
-581.821	-200.000	-0.029	0.240
-580.806	46.952	-0.315	0.296
-579.792	800.000	-0.023	-0.068
-578.777	-118.167	-0.330	0.059
-577.763	-24.194	-0.116	0.070
-576.748	-124.852	0.418	-0.065
-575.733	-139.063	-0.151	-0.016
-574.719	-200.000	0.012	-0.309
-573.704	39.248	0.178	-0.161
-572.690	229.438	-0.240	0.395
-571.675	32.152	-0.374	0.325
-570.661	800.000	0.020	0.068
-569.646	-200.000	0.000	0.295
-568.631	-200.000	0.017	0.093
-567.617	8.495	-0.151	-0.114
-566.602	179.849	-0.140	0.207
-565.588	-1.766	0.316	-0.224
-564.573	-166.423	-0.121	-0.005
-563.558	417.618	-0.027	-0.059
-562.544	326.260	-0.062	-0.119
-561.529	-200.000	-0.042	0.263
-560.515	-200.000	0.022	-0.151
-559.500	-24.922	-0.294	-0.176
-558.485	-200.000	0.069	0.433
-557.471	-200.000	-0.017	-0.198
-556.456	-200.000	0.018	-0.082
-555.442	-46.284	0.188	0.093
-554.427	-200.000	-0.004	-0.237
-553.412	262.531	-0.390	-0.681
-552.398	84.183	0.251	-0.277
-551.383	-70.369	-0.122	-0.047
-550.369	317.092	0.110	0.209
-549.354	-200.000	-0.088	0.479
-548.339	142.918	0.158	0.212
-547.325	-200.000	0.041	-0.418
-546.310	-36.782	-0.074	-0.040
-545.296	219.865	-0.041	-0.067
-544.281	-200.000	0.008	-0.063
-543.266	770.762	0.096	-0.262
-542.252	-200.000	0.032	-0.211
-541.237	99.965	0.094	-0.109
-540.223	157.055	-0.279	-0.388
-539.208	263.418	0.121	-0.212
-538.193	247.363	-0.083	0.141
-537.179	-200.000	-0.007	0.106
-536.164	-200.000	-0.024	0.153
-535.150	800.000	0.096	0.301
-534.135	135.902	-0.056	-0.073
-533.121	721.407	-0.093	-0.250
-532.106	-155.140	-0.102	0.007
-531.091	56.624	0.091	-0.089
-530.077	-106.736	-0.190	0.043
-529.062	83.170	-0.227	-0.249
-528.048	-148.318	0.299	-0.025
-527.033	-139.849	0.204	-0.022
-526.018	355.959	0.090	-0.180
-525.004	458.493	0.140	0.314
-523.989	415.163	-0.181	0.387
-522.975	432.438	-0.008	-0.018
-521.960	260.026	-0.139	-0.242
-520.945	-38.649	0.184	0.098
-519.931	-200.000	0.012	0.264
-518.916	-58.126	0.118	-0.052
-517.902	-27.687	0.088	-0.051
-516.887	800.000	-0.029	-0.099
-515.872	-123.846	-0.327	0.052
-514.858	-191.924	-0.209	-0.002
-513.843	-140.796	-0.184	0.019
-512.829	-44.472	-0.398	-0.200
-511.814	-22.865	0.197	0.119
-510.799	-159.010	-0.249	-0.014
-509.785	-43.286	0.408	0.208
-508.770	-41.723	0.262	0.135
-507.756	-6.194	-0.299	-0.205
-506.741	143.057	0.156	0.208
-505.726	-124.911	-0.366	-0.057
-504.712	113.033	0.195	-0.238
-503.697	-200.000	0.014	0.155
-502.683	279.271	-0.047	-0.085
-501.668	206.831	0.132	-0.207
-500.653	800.000	-0.061	-0.170
-499.639	-13.591	-0.168	0.110
-498.624	62.151	-0.244	0.245
-497.610	-152.621	-0.291	-0.021
-496.595	-57.319	-0.071	0.031
-495.581	237.136	-0.095	0.158
-494.566	4.150	-0.112	0.083
-493.551	-43.291	0.410	-0.208
-492.537	-118.265	-0.098	0.018
-491.522	334.477	-0.099	-0.192
-490.508	274.006	0.087	0.154
-489.493	800.000	-0.112	0.333
-488.478	-74.695	-0.102	0.037
-487.464	800.000	0.032	-0.105
-486.449	189.976	-0.269	-0.405
-485.435	-57.419	0.307	0.135
-484.420	-112.250	-0.161	0.032
-483.405	-40.499	-0.154	0.080
-482.391	65.897	0.160	0.163
-481.376	166.912	0.045	-0.065
-480.362	-44.033	0.329	0.166
-479.347	-33.619	-0.114	0.063
-478.332	-34.517	0.036	-0.020
-477.318	-7.816	-0.095	-0.064
-476.303	509.450	-0.075	0.174
-475.289	-190.135	0.393	-0.004
-474.274	-200.000	0.036	-0.187
-473.259	369.242	-0.073	-0.147
-472.245	161.969	-0.124	-0.174
-471.230	-137.780	0.239	-0.027
-470.216	782.488	0.047	-0.128
-469.201	-31.110	-0.179	0.101
-468.186	-117.483	-0.046	-0.008
-467.172	-132.345	-0.084	-0.011
-466.157	-83.867	-0.136	0.044
-465.143	-200.000	0.043	0.256
-464.128	-112.697	0.179	-0.036
-463.113	140.395	-0.182	0.242
-462.099	-103.597	-0.160	-0.038
-461.084	389.695	-0.107	-0.223
-460.070	-66.162	0.090	-0.036
-459.055	-103.460	-0.056	0.013
-458.040	158.682	0.171	-0.238
-457.026	14.433	-0.115	-0.090
-456.011	-65.869	0.167	-0.067
-454.997	374.823	0.138	-0.283
-453.982	20.574	-0.312	0.253
-452.968	346.703	-0.054	-0.107
-451.953	-200.000	-0.003	-0.031
-450.938	-200.000	-0.042	0.223
-449.924	800.000	0.100	0.375
-448.909	267.964	0.033	0.058
-447.895	-200.000	0.015	0.156
-446.880	151.366	-0.115	-0.158
-445.865	-63.023	0.373	0.155
-444.851	-27.566	-0.072	0.042
-443.836	-111.479	0.185	0.038
-442.822	-18.524	-0.320	0.201
-441.807	-73.971	0.365	-0.133
-440.792	-26.769	0.260	-0.152
-439.778	800.000	0.056	-0.217
-438.763	33.657	-0.377	0.328
-437.749	492.979	-0.112	-0.257
-436.734	800.000	-0.022	-0.092
-435.719	147.465	-0.057	0.077
-434.705	-200.000	-0.035	0.226
-433.690	234.538	-0.072	-0.119
-432.676	-143.134	0.348	0.034
-431.661	-42.718	0.212	-0.108
-430.646	-60.619	0.240	-0.102
-429.632	255.242	0.154	0.264
-428.617	-58.453	0.188	-0.082
-427.603	559.137	-0.080	-0.193
-426.588	-200.000	-0.009	0.046
-425.573	-138.384	-0.282	-0.031
-424.559	95.978	-0.115	0.131
-423.544	-129.489	-0.333	0.046
-422.530	14.348	-0.261	0.204
-421.515	-90.802	-0.205	0.059
-420.500	-200.000	0.007	0.175
-419.486	4.768	-0.258	0.190
-418.471	-27.343	0.096	0.056
-417.457	-200.000	-0.044	0.241
-416.442	-22.651	0.086	-0.052
-415.428	-106.988	-0.085	0.019
-414.413	119.660	0.134	0.166
-413.398	-36.287	0.154	-0.083
-412.384	35.254	-0.022	-0.019
-411.369	-200.000	-0.030	0.206
-410.355	70.245	-0.095	-0.098
-409.340	75.372	0.154	0.163
-408.325	584.445	0.041	0.101
-407.311	-77.134	-0.226	0.079
-406.296	52.844	0.108	-0.103
-405.282	-138.666	-0.207	-0.023
-404.267	-46.829	0.062	0.030
-403.252	-61.623	0.150	-0.063
-402.238	282.991	-0.127	0.228
-401.223	-70.556	-0.097	0.037
-400.209	97.188	-0.203	-0.233
-399.194	98.056	-0.205	-0.237
-398.179	-200.000	-0.004	-0.103
-397.165	87.635	0.165	-0.182
-396.150	752.322	0.094	0.254
-395.136	-200.000	0.015	0.253
-394.121	-200.000	-0.045	-0.223
-393.106	358.712	-0.110	0.221
-392.092	-175.372	0.122	-0.003
-391.077	-121.722	0.069	0.011
-390.063	-200.000	-0.043	0.268
-389.048	-85.797	0.063	-0.019
-388.033	-200.000	-0.034	-0.246
-387.019	53.609	0.327	-0.314
-386.004	-200.000	0.022	-0.204
-384.990	800.000	0.074	-0.221
-383.975	94.632	-0.159	0.181
-382.960	800.000	0.026	0.082
-381.946	210.442	0.122	-0.192
-380.931	-34.418	0.216	-0.119
-379.917	-171.032	0.155	-0.005
-378.902	264.926	0.157	0.274
-377.888	353.821	0.110	0.218
-376.873	13.728	-0.267	-0.208
-375.858	-89.572	0.318	-0.093
-374.844	-145.067	0.105	0.010
-373.829	-32.108	-0.269	-0.150
-372.815	-200.000	0.021	0.125
-371.800	-95.690	-0.081	0.022
-370.785	518.776	-0.095	0.222
-369.771	-62.023	-0.265	-0.111
-368.756	-200.000	-0.036	0.521
-367.742	-200.000	0.015	0.251
-366.727	-68.659	0.221	0.085
-365.712	-28.502	0.120	-0.069
-364.698	578.944	0.081	-0.199
-363.683	319.264	-0.079	-0.149
-362.669	254.446	-0.072	-0.122
-361.654	-200.000	0.016	-0.163
-360.639	800.000	0.017	-0.064
-359.625	17.134	-0.213	0.169
-358.610	126.746	-0.280	-0.355
-357.596	143.602	0.365	-0.486
-356.581	50.419	0.043	-0.040
-355.566	800.000	-0.127	-0.358
-354.552	62.385	-0.141	0.140
-353.537	-117.374	-0.196	-0.035
-352.523	54.489	0.260	0.251
-351.508	-162.249	0.189	0.009
-350.493	23.637	0.169	-0.139
-349.479	290.913	-0.219	0.398
-348.464	-74.381	-0.453	0.163
-347.450	564.649	0.038	-0.093
-346.435	74.360	-0.070	-0.074
-345.420	-131.498	-0.286	-0.038
-344.406	106.379	-0.138	0.163
-343.391	156.848	0.234	0.323
-342.377	0.688	-0.152	0.109
-341.362	30.481	-0.390	0.333
-340.348	-71.878	0.572	0.213
-339.333	-57.215	-0.332	0.146
-338.318	266.129	0.042	0.074
-337.304	-109.117	-0.345	0.073
-336.289	61.227	-0.158	-0.157
-335.275	-118.073	0.178	-0.032
-334.260	432.689	-0.132	0.286
-333.245	274.479	-0.108	-0.190
-332.231	-67.123	-0.394	-0.155
-331.216	20.812	0.267	-0.216
-330.202	19.364	-0.436	-0.350
-329.187	-21.476	0.189	0.115
-328.172	-41.946	0.181	0.093
-327.158	-102.276	-0.335	-0.080
-326.143	800.000	-0.052	-0.157
-325.129	-118.543	0.327	-0.058
-324.114	381.611	0.045	0.092
-323.099	-200.000	0.022	-0.181
-322.085	-200.000	-0.007	0.082
-321.070	-78.643	0.341	0.116
-320.056	-50.263	0.330	-0.156
-319.041	-127.751	0.241	-0.035
-318.026	232.287	0.018	0.030
-317.012	260.565	0.208	0.358
-315.997	-8.236	0.292	0.196
-314.983	206.717	-0.074	-0.116
-313.968	-25.117	0.128	0.075
-312.953	-94.055	0.083	-0.023
-311.939	63.830	-0.087	-0.087
-310.924	126.673	0.081	-0.102
-309.910	167.604	0.120	0.171
-308.895	-2.478	-0.135	-0.094
-307.880	321.055	-0.138	-0.262
-306.866	16.628	0.028	-0.022
-305.851	-89.094	-0.174	-0.051
-304.837	-142.522	-0.211	0.021
-303.822	-200.000	0.004	-0.093
-302.807	800.000	-0.078	-0.284
-301.793	-200.000	-0.009	0.086
-300.778	44.575	-0.109	0.099
-299.764	-8.721	-0.130	0.087
-298.749	488.645	0.030	-0.069
-297.735	-2.005	0.299	0.209
-296.720	-200.000	0.032	-0.293
-295.705	-82.675	-0.513	0.166
-294.691	-129.049	0.292	-0.041
-293.676	197.850	-0.101	-0.154
-292.662	-200.000	-0.000	-0.152
-291.647	25.135	-0.191	0.158
-290.632	-90.746	0.174	-0.050
-289.618	-112.812	-0.138	-0.027
-288.603	-12.644	0.265	-0.172
-287.589	-200.000	-0.015	-0.085
-286.574	-134.101	0.283	-0.035
-285.559	17.836	-0.111	-0.088
-284.545	29.190	0.246	0.208
-283.530	-100.737	-0.113	0.028
-282.516	96.198	-0.118	-0.135
-281.501	-41.221	0.079	0.041
-280.486	-105.100	-0.266	0.061
-279.472	87.809	0.119	0.132
-278.457	800.000	0.077	0.285
-277.443	800.000	-0.026	-0.082
-276.428	-35.255	-0.061	-0.033
-275.413	-78.493	-0.192	-0.065
-274.399	-200.000	-0.008	0.077
-273.384	800.000	0.152	0.504
-272.370	800.000	-0.083	0.309
-271.355	224.675	0.185	-0.298
-270.340	800.000	-0.047	-0.151
-269.326	-109.146	0.216	0.046
-268.311	-200.000	0.005	0.038
-267.297	-60.380	0.249	-0.105
-266.282	-75.125	-0.202	0.072
-265.267	800.000	0.068	0.208
-264.253	328.395	-0.111	-0.212
-263.238	-200.000	0.012	-0.191
-262.224	-16.254	-0.170	-0.107
-261.209	-64.895	0.348	-0.140
-260.195	731.250	-0.037	-0.098
-259.180	-200.000	0.013	0.164
-258.165	650.595	-0.085	0.217
-257.151	-200.000	-0.019	0.086
-256.136	-76.351	0.310	0.109
-255.122	-5.513	-0.178	-0.122
-254.107	-200.000	0.024	0.192
-253.092	-107.808	0.231	-0.050
-252.078	34.216	0.168	0.146
-251.063	37.741	0.293	-0.259
-250.049	77.171	0.085	0.090
-249.034	-131.074	-0.029	-0.004
-248.019	-43.797	0.197	-0.099
-247.005	-185.463	0.139	0.002
-245.990	-162.521	0.216	-0.011
-244.976	-142.861	0.093	-0.009
-243.961	-136.251	0.255	-0.030
-242.946	53.384	-0.135	0.129
-241.932	58.615	-0.116	0.113
-240.917	-24.972	-0.073	-0.043
-239.903	-137.153	0.274	0.031
-238.888	141.111	0.144	0.190
-237.873	-200.000	0.025	-0.419
-236.859	-68.540	0.416	0.160
-235.844	-200.000	0.015	-0.086
-234.830	-73.856	-0.117	-0.042
-233.815	-87.307	-0.385	-0.116
-232.800	295.062	-0.044	-0.079
-231.786	-116.656	-0.060	0.011
-230.771	800.000	0.074	0.274
-229.757	-113.184	0.088	0.017
-228.742	-29.887	-0.349	0.198
-227.727	-131.834	0.312	-0.041
-226.713	478.548	0.043	-0.098
-225.698	152.521	-0.070	-0.095
-224.684	-178.009	0.033	0.001
-223.669	-168.768	0.199	0.007
-222.655	-162.315	-0.195	0.010
-221.640	-117.718	0.142	0.025
-220.625	29.639	0.094	-0.080
-219.611	-121.899	0.204	-0.033
-218.596	418.976	-0.159	0.339
-217.582	36.540	-0.244	-0.214
-216.567	800.000	-0.082	0.337
-215.552	-200.000	-0.075	-0.327
-214.538	-131.077	0.330	-0.044
-213.523	256.653	0.080	-0.137
-212.509	75.566	0.211	-0.222
-211.494	152.583	0.101	0.136
-210.479	178.722	0.162	-0.236
-209.465	-97.942	-0.314	-0.081
-208.450	-38.135	-0.209	0.110
-207.436	-107.723	0.319	0.069
-206.421	212.431	0.155	0.244
-205.406	-131.025	-0.022	0.003
-204.392	123.508	0.317	0.395
-203.377	44.317	0.158	0.144
-202.363	125.107	-0.044	-0.055
-201.348	-177.496	0.161	0.004
-200.333	-142.432	-0.224	0.022
-199.319	800.000	-0.027	-0.078
-198.304	-41.137	0.087	0.045
-197.290	319.770	0.048	0.090
-196.275	-200.000	-0.020	-0.248
-195.260	660.060	-0.153	-0.390
-194.246	-88.431	-0.384	0.114
-193.231	-83.241	-0.156	0.050
-192.217	19.742	-0.165	-0.132
-191.202	800.000	-0.108	-0.341
-190.187	167.886	0.060	-0.085
-189.173	800.000	0.095	0.286
-188.158	-94.269	0.442	-0.120
-187.144	13.268	0.134	0.103
-186.129	-200.000	0.029	-0.128
-185.114	56.153	-0.234	0.226
-184.100	-101.043	0.434	0.106
-183.085	-86.346	0.231	-0.070
-182.071	-82.947	0.248	-0.080
-181.056	-26.967	-0.424	-0.246
-180.042	800.000	-0.060	-0.199
-179.027	-154.426	-0.086	-0.006
-178.012	800.000	0.117	-0.414
-176.998	44.957	0.224	0.204
-175.983	97.014	-0.165	-0.188
-174.969	4.111	-0.092	-0.067
-173.954	-200.000	-0.192	-0.000
-172.939	130.012	0.018	0.023
-171.925	-22.901	0.243	0.145
-170.910	-24.039	0.141	0.083
-169.896	203.937	0.116	-0.179
-168.881	-120.488	-0.289	-0.049
-167.866	-38.108	0.059	0.031
-166.852	-21.803	0.274	-0.166
-165.837	-200.000	0.005	0.051
-164.823	-123.820	-0.247	0.039
-163.808	7.900	0.401	-0.298
-162.793	800.000	0.056	0.229
-161.779	612.656	0.063	0.157
-160.764	32.799	0.125	0.107
-159.750	-68.817	-0.224	0.086
-158.735	-200.000	-0.042	0.398
-157.720	271.849	-0.101	0.176
-156.706	714.850	0.067	-0.175
-155.691	155.062	-0.139	-0.190
-154.677	-107.539	0.371	-0.081
-153.662	-78.349	0.152	-0.052
-152.647	64.258	-0.237	0.237
-151.633	-200.000	-0.052	0.235
-150.618	-84.257	0.085	0.027
-149.604	800.000	-0.063	0.226
-148.589	-101.719	0.241	-0.058
-147.574	-48.915	0.155	-0.073
-146.560	-3.113	0.322	0.222
-145.545	-200.000	0.006	0.292
-144.531	95.119	-0.215	-0.242
-143.516	-70.597	-0.144	-0.054
-142.502	183.527	0.096	0.140
-141.487	-200.000	-0.035	-0.174
-140.472	74.024	0.075	-0.078
-139.458	133.924	-0.218	-0.280
-138.443	209.413	-0.085	-0.133
-137.429	-13.211	-0.197	-0.127
-136.414	-12.712	0.266	-0.172
-135.399	-116.374	-0.211	-0.039
-134.385	135.216	-0.307	0.395
-133.370	800.000	0.109	0.327
-132.356	-120.286	0.394	0.067
-131.341	-102.001	-0.250	-0.060
-130.326	-81.692	-0.126	0.041
-129.312	-101.470	-0.148	0.036
-128.297	-123.434	0.311	0.049
-127.283	-200.000	-0.049	-0.278
-126.268	-55.937	0.118	-0.052
-125.253	-200.000	-0.029	0.336
-124.239	3.054	0.141	0.102
-123.224	-200.000	-0.015	0.098
-122.210	241.871	0.126	0.209
-121.195	800.000	0.062	-0.256
-120.180	576.754	-0.143	0.346
-119.166	800.000	0.039	0.118
-118.151	-175.358	0.096	-0.003
-117.137	420.395	0.034	-0.072
-116.122	494.757	0.116	0.264
-115.107	126.682	-0.059	0.074
-114.093	0.722	0.117	-0.083
-113.078	800.000	0.065	-0.255
-112.064	-200.000	-0.030	-0.348
-111.049	169.049	0.122	0.172
-110.034	-200.000	0.010	0.345
-109.020	284.421	0.093	0.166
-108.005	163.608	0.019	-0.027
-106.991	-200.000	-0.034	-0.283
-105.976	313.820	-0.049	-0.091
-104.962	-0.940	0.122	-0.085
-103.947	-55.539	0.269	-0.119
-102.932	135.583	-0.212	-0.273
-101.918	-67.151	-0.138	-0.054
-100.903	-200.000	0.016	-0.097
-99.889	800.000	-0.166	0.503
-98.874	-200.000	0.013	0.137
-97.859	-173.931	-0.196	0.006
-96.845	317.973	-0.109	0.203
-95.830	-18.841	-0.025	0.015
-94.816	58.331	0.162	-0.157
-93.801	150.616	0.065	0.087
-92.786	-200.000	0.033	0.430
-91.772	800.000	-0.063	0.178
-90.757	-200.000	-0.041	0.233
-89.743	800.000	-0.063	0.215
-88.728	-37.981	0.076	0.040
-87.713	-200.000	-0.026	-0.194
-86.699	800.000	-0.047	0.155
-85.684	-154.188	0.108	-0.007
-84.670	-54.487	0.133	0.059
-83.655	-200.000	-0.035	0.563
-82.640	-55.681	-0.483	-0.214
-81.626	-12.926	0.228	-0.147
-80.611	800.000	-0.020	-0.073
-79.597	-88.830	-0.135	0.040
-78.582	-114.275	0.365	0.070
-77.567	-128.805	-0.107	0.015
-76.553	-135.681	0.278	0.033
-75.538	492.685	-0.077	-0.175
-74.524	33.296	-0.015	0.013
-73.509	-59.895	0.215	-0.091
-72.494	-133.290	0.321	-0.040
-71.480	-129.271	0.099	-0.014
-70.465	227.141	-0.148	-0.237
-69.451	361.043	-0.115	-0.227
-68.436	360.846	-0.093	-0.184
-67.422	-93.878	0.105	-0.029
-66.407	800.000	0.044	-0.132
-65.392	294.962	0.203	-0.366
-64.378	-200.000	-0.012	-0.176
-63.363	-200.000	0.023	0.239
-62.349	-200.000	-0.018	-0.153
-61.334	103.130	-0.808	-0.935
-60.319	-8.102	0.440	0.293
-59.305	800.000	-0.302	-0.988
-58.290	148.035	0.680	0.905
-57.276	800.000	0.561	1.770
-56.261	-200.000	98.549	590.760
-55.246	531.248	1415.809	3305.932
-54.232	149.184	2617.665	3498.025
-53.217	112.787	2175.648	2602.297
-52.203	45.247	1624.512	1479.190
-51.188	37.103	1359.254	1188.006
-50.173	33.713	1316.568	1130.501
-49.159	56.521	1366.204	1311.934
-48.144	59.687	1383.898	1348.036
-47.130	37.478	1338.410	1171.865
-46.115	33.807	1320.524	1134.281
-45.100	33.574	1315.808	1128.795
-44.086	33.453	1313.896	1126.391
-43.071	33.546	1310.758	1124.209
-42.057	33.391	1309.212	1121.918
-41.042	33.487	1307.772	1121.208
-40.027	33.659	1305.943	1120.613
-39.013	33.589	1303.809	1118.321
-37.998	33.665	1301.691	1116.908
-36.984	33.718	1300.088	1115.800
-35.969	33.584	1298.840	1113.901
-34.954	33.633	1296.847	1112.431
-33.940	33.670	1295.650	1111.579
-32.925	33.681	1294.354	1110.487
-31.911	33.628	1292.697	1108.708
-30.896	33.697	1291.502	1108.046
-29.881	33.672	1290.415	1106.925
-28.867	33.833	1288.638	1106.294
-27.852	33.813	1286.899	1104.637
-26.838	33.853	1285.451	1103.585
-25.823	33.719	1284.584	1102.018
-24.809	33.637	1282.965	1100.108
-23.794	33.665	1281.795	1099.227
-22.779	33.747	1280.475	1098.525
-21.765	33.796	1279.094	1097.581
-20.750	33.740	1277.747	1096.061
-19.736	33.634	1276.065	1093.958
-18.721	33.434	1275.852	1092.580
-17.706	33.588	1274.082	1091.910
-16.692	33.509	1273.231	1090.679
-15.677	33.588	1272.385	1090.364
-14.663	33.592	1271.264	1089.389
-13.648	33.543	1270.190	1088.141
-12.633	33.585	1269.095	1087.398
-11.619	33.407	1268.711	1086.010
-10.604	33.488	1267.583	1085.467
-9.590	33.599	1266.075	1084.767
-8.575	33.594	1265.146	1083.894
-7.560	33.551	1264.759	1083.276
-6.546	33.560	1263.762	1082.430
-5.531	33.478	1262.840	1081.130
-4.517	33.475	1261.993	1080.345
-3.502	33.536	1261.117	1079.900
-2.487	33.582	1260.074	1079.228
-1.473	33.668	1255.878	1076.078
-0.458	32.353	1241.762	1056.561
0.556	29.002	1224.065	1020.009
1.571	25.310	1230.038	1004.284
2.586	24.478	1245.079	1011.762
3.600	23.706	1233.984	998.319
4.615	16.914	1159.464	901.946
5.629	6.602	1080.937	789.400
6.644	2.017	1060.265	751.689
7.659	1.745	1057.654	748.434
8.673	1.477	1056.615	746.314
9.688	1.572	1054.824	745.450
10.702	1.881	1053.373	745.872
11.717	8.130	1062.664	783.155
12.731	18.572	1077.994	846.162
13.746	24.053	1084.427	878.256
14.761	25.056	1085.601	884.084
15.775	25.073	1084.957	883.565
16.790	24.828	1084.260	881.709
17.804	24.780	1083.701	880.940
18.819	24.898	1083.055	880.920
19.834	25.118	1082.642	881.586
20.848	25.017	1082.420	880.832
21.863	24.972	1082.051	880.234
22.877	25.148	1080.731	879.943
23.892	24.968	1080.399	878.712
24.907	25.087	1079.417	878.418
25.921	24.998	1078.695	877.320
26.936	25.019	1076.832	875.826
27.950	24.973	1075.464	874.416
28.965	24.709	1074.246	872.057
29.980	24.988	1072.234	871.708
30.994	25.179	1071.469	871.939
32.009	25.100	1070.579	870.753
33.023	24.866	1068.909	868.179
34.038	25.107	1068.304	868.781
35.053	25.070	1067.722	868.054
36.067	25.027	1066.864	867.071
37.082	25.174	1066.197	867.160
38.096	25.286	1065.679	867.203
39.111	25.359	1064.763	866.734
40.126	25.115	1063.551	864.495
41.140	24.672	1061.984	861.010
42.155	24.602	1060.274	859.211
43.169	24.578	1060.009	858.804
44.184	24.695	1058.932	858.421
45.199	24.542	1057.590	856.521
46.213	24.579	1057.131	856.250
47.228	24.860	1056.028	856.629
48.242	24.828	1055.432	855.913
49.257	25.076	1054.128	855.967
50.271	25.000	1054.121	855.524
51.286	25.142	1052.606	854.894
52.301	25.066	1052.257	854.174
53.315	25.061	1051.076	853.113
54.330	24.982	1050.246	851.992
55.344	25.014	1049.393	851.376
56.359	25.023	1048.508	850.623
57.374	24.887	1047.884	849.397
58.388	24.832	1046.820	848.198
59.403	24.772	1045.711	846.939
60.417	24.486	1045.508	845.349
61.432	24.697	1044.524	845.473
62.447	24.807	1043.892	845.409
63.461	24.818	1043.105	844.751
64.476	24.762	1041.866	843.407
65.490	24.616	1041.106	842.029
66.505	24.697	1040.537	841.874
67.520	24.806	1039.726	841.656
68.534	24.536	1038.530	839.345
69.549	24.286	1037.454	837.229
70.563	24.288	1036.938	836.745
71.578	24.231	1036.262	835.862
72.593	24.074	1035.124	834.136
73.607	24.269	1034.380	834.374
74.622	24.641	1034.229	835.917
75.636	24.495	1033.423	834.507
76.651	24.529	1032.389	833.760
77.666	24.319	1031.794	832.224
78.680	24.394	1031.294	832.099
79.695	24.537	1030.609	832.138
80.709	24.546	1030.169	831.754
81.724	24.517	1029.101	830.680
82.739	24.769	1028.382	831.196
83.753	24.978	1027.906	831.708
84.768	25.397	1026.932	832.791
85.782	25.320	1026.339	831.879
86.797	25.264	1025.442	830.819
87.812	25.215	1024.051	829.393
88.826	25.297	1022.836	828.716
89.841	25.314	1022.312	828.296
90.855	25.326	1021.529	827.645
91.870	25.292	1020.419	826.516
92.884	25.016	1019.549	824.466
93.899	25.040	1018.615	823.749
94.914	25.292	1017.498	823.928
95.928	25.061	1016.403	821.912
96.943	24.876	1015.350	820.136
97.957	24.638	1014.567	818.344
98.972	24.609	1012.796	816.711
99.987	24.695	1012.546	816.830
101.001	24.941	1012.239	817.634
102.016	24.994	1010.969	816.778
103.030	24.805	1010.450	815.424
104.045	24.751	1009.069	813.990
105.060	24.574	1008.147	812.371
106.074	24.989	1007.050	813.298
107.089	25.067	1006.834	813.408
108.103	24.976	1005.972	812.225
109.118	24.674	1004.808	809.845
110.133	24.778	1003.643	809.308
111.147	24.451	1002.848	807.116
112.162	24.331	1001.231	805.199
113.176	24.692	1000.969	806.548
114.191	24.725	1000.233	806.032
115.206	24.120	999.479	802.625
116.220	24.284	998.344	802.382
117.235	24.416	997.663	802.358
118.249	24.476	996.377	801.523
119.264	24.234	996.666	800.598
120.279	24.346	995.393	800.008
121.293	24.487	994.669	799.985
122.308	24.430	994.100	799.203
123.322	24.392	992.394	797.590
124.337	24.253	991.363	796.068
125.352	23.814	989.460	792.512
126.366	23.683	988.698	791.248
127.381	24.556	989.107	795.398
128.395	24.744	988.753	795.877
129.410	24.999	987.865	796.226
130.424	24.981	986.733	795.164
131.439	25.034	985.899	794.658
132.454	24.903	985.218	793.458
133.468	24.976	984.024	792.746
134.483	25.026	983.669	792.614
135.497	25.343	982.767	793.216
136.512	25.270	981.834	792.070
137.527	25.311	980.412	791.034
138.541	25.281	980.091	790.575
139.556	25.154	979.449	789.426
140.570	25.358	978.647	789.606
141.585	25.244	977.529	788.137
142.600	25.312	976.366	787.427
143.614	25.311	976.384	787.366
144.629	25.598	975.544	787.876
145.643	25.339	974.307	785.677
146.658	25.252	972.405	783.691
147.673	25.126	971.141	782.054
148.687	25.025	970.573	781.088
149.702	25.070	969.348	780.228
150.716	24.822	968.763	778.609
151.731	25.074	967.997	779.019
152.746	25.412	967.616	780.113
153.760	25.409	966.849	779.411
154.775	25.404	966.364	778.931
155.789	25.360	965.545	778.010
156.804	25.287	964.902	777.110
157.819	25.339	963.877	776.437
158.833	25.498	963.424	776.691
159.848	25.548	962.301	775.935
160.862	25.422	960.505	773.874
161.877	25.437	959.933	773.409
162.892	25.474	958.525	772.365
163.906	25.272	957.936	770.958
164.921	25.268	957.045	770.154
165.935	25.489	955.986	770.182
166.950	25.247	955.167	768.414
167.964	25.304	954.151	767.774
168.979	25.212	953.414	766.721
169.994	25.297	952.279	766.101
171.008	25.424	952.005	766.357
172.023	25.438	951.205	765.703
173.037	25.158	950.280	763.701
174.052	25.157	949.098	762.676
175.067	24.980	948.909	761.707
176.081	25.102	948.169	761.561
177.096	25.120	947.453	760.995
178.110	24.866	946.533	759.113
179.125	24.676	945.934	757.761
180.140	24.773	945.182	757.500
181.154	24.891	945.075	757.847
182.169	25.246	944.917	759.158
183.183	25.384	944.691	759.491
184.198	25.248	943.631	757.998
185.213	25.274	942.563	757.181
186.227	25.257	942.392	756.906
187.242	25.459	941.169	756.710
188.256	25.390	941.044	756.252
189.271	25.624	939.727	756.108
190.286	25.069	938.967	753.099
191.300	24.583	937.008	749.422
192.315	23.800	935.925	745.207
193.329	23.782	935.414	744.660
194.344	24.596	935.857	748.357
195.359	25.161	935.774	750.591
196.373	25.280	935.247	750.599
197.388	25.167	934.772	749.680
198.402	25.254	934.362	749.647
199.417	25.218	933.566	748.793
200.432	25.064	932.237	747.019
201.446	24.861	931.963	745.888
202.461	24.901	931.539	745.650
203.475	24.136	929.468	740.746
204.490	23.350	928.049	736.283
205.504	24.154	928.582	739.982
206.519	24.822	928.460	742.594
207.534	24.849	928.322	742.528
208.548	25.385	927.605	744.109
209.563	25.202	926.738	742.593
210.577	25.055	926.056	741.370
211.592	25.525	925.892	743.117
212.607	25.512	924.664	742.013
213.621	25.326	924.568	741.103
214.636	25.468	923.966	741.140
215.650	25.440	923.000	740.186
216.665	25.572	922.415	740.191
217.680	25.417	921.676	738.897
218.694	25.087	920.730	736.715
219.709	24.807	919.980	734.903
220.723	25.228	919.528	736.204
221.738	25.194	919.247	735.773
222.753	25.129	918.706	735.011
223.767	25.248	918.264	735.077
224.782	25.494	917.500	735.407
225.796	25.514	917.109	735.110
226.811	24.891	915.512	731.221
227.826	24.193	913.941	727.056
228.840	24.404	913.651	727.622
229.855	24.558	912.969	727.643
230.869	24.082	912.253	725.069
231.884	24.615	911.930	726.917
232.899	25.471	911.837	730.259
233.913	25.113	911.547	728.507
234.928	25.205	910.688	728.129
235.942	25.180	909.874	727.312
236.957	24.779	909.632	725.429
237.972	24.685	908.986	724.467
238.986	25.012	908.271	725.159
240.001	24.886	907.881	724.274
241.015	24.927	907.283	723.899
242.030	25.175	906.851	724.490
243.045	25.315	906.515	724.722
244.059	25.293	906.173	724.298
245.074	25.131	904.989	722.633
246.088	24.989	903.825	721.070
247.103	25.172	903.480	721.465
248.117	25.666	903.806	723.651
249.132	25.831	903.394	723.921
250.147	26.046	903.027	724.425
251.161	26.153	902.623	724.465
252.176	26.114	901.854	723.628
253.190	26.139	901.551	723.420
254.205	26.384	900.767	723.711
255.220	26.172	900.297	722.420
256.234	26.096	899.741	721.607
257.249	26.139	898.499	720.718
258.263	26.108	897.777	719.949
259.278	26.114	897.368	719.584
260.293	26.194	896.995	719.538
261.307	26.004	896.491	718.313
262.322	25.933	895.594	717.250
263.336	25.069	893.531	712.102
264.351	24.193	891.440	706.897
265.366	24.183	891.395	706.760
266.380	25.357	891.902	711.758
267.395	25.817	891.689	713.346
268.409	25.733	891.058	712.446
269.424	25.875	890.731	712.685
270.439	26.096	889.560	712.557
271.453	26.108	889.427	712.432
272.468	26.194	888.909	712.295
273.482	26.284	888.411	712.189
274.497	25.877	886.901	709.313
275.512	25.442	886.316	707.072
276.526	25.865	886.541	708.851
277.541	26.018	886.295	709.193
278.555	25.620	885.462	706.900
279.570	25.727	884.086	706.159
280.585	25.947	883.455	706.458
281.599	25.747	882.706	705.010
282.614	25.056	881.727	701.465
283.628	25.241	881.182	701.689
284.643	25.667	880.621	702.847
285.657	25.302	879.672	700.602
286.672	24.993	878.786	698.632
287.687	25.492	879.444	701.037
288.701	25.508	878.525	700.305
289.716	25.256	877.609	698.533
290.730	25.346	876.445	697.896
291.745	24.968	875.988	696.000
292.760	25.292	876.113	697.297
293.774	26.180	876.564	701.044
294.789	26.474	876.387	701.980
295.803	26.522	875.799	701.636
296.818	26.626	874.668	701.070
297.833	26.151	873.327	698.097
298.847	25.843	873.182	696.727
299.862	26.324	873.030	698.403
300.876	26.520	872.502	698.677
301.891	26.494	871.795	697.949
302.906	25.984	871.007	695.290
303.920	26.154	870.714	695.649
304.935	26.540	870.292	696.736
305.949	26.565	869.515	696.150
306.964	26.237	868.762	694.222
307.979	26.319	868.510	694.276
308.993	26.744	868.052	695.480
310.008	26.593	867.713	694.568
311.022	26.404	866.898	693.131
312.037	26.266	866.152	691.943
313.052	26.008	864.966	689.948
314.066	25.159	863.641	685.584
315.081	24.804	863.088	683.727
316.095	25.497	863.758	686.848
317.110	26.148	863.065	688.722
318.125	25.221	862.004	684.281
319.139	24.171	860.126	678.732
320.154	24.173	860.193	678.732
321.168	25.264	860.319	682.923
322.183	25.967	860.031	685.308
323.197	25.962	859.973	685.182
324.212	26.297	859.453	685.981
325.227	26.244	859.030	685.382
326.241	26.104	858.428	684.308
327.256	25.998	858.115	683.598
328.270	25.903	857.317	682.542
329.285	25.696	856.206	680.815
330.300	25.481	855.379	679.283
331.314	25.817	855.424	680.528
332.329	26.159	855.293	681.654
333.343	26.329	854.833	681.870
334.358	26.370	854.411	681.629
335.373	26.371	854.263	681.452
336.387	26.688	853.850	682.259
337.402	26.769	853.824	682.480
338.416	26.695	853.554	681.926
339.431	26.921	852.989	682.265
340.446	27.078	852.780	682.628
341.460	26.836	852.045	681.071
342.475	26.595	851.823	679.928
343.489	26.574	851.502	679.530
344.504	27.012	851.179	680.855
345.519	27.129	850.823	680.951
346.533	27.250	849.820	680.541
347.548	27.275	849.647	680.434
348.562	27.188	849.257	679.735
349.577	27.200	848.362	679.006
350.592	27.011	847.803	677.792
351.606	27.113	846.808	677.316
352.621	27.128	845.800	676.508
353.635	26.911	845.086	675.067
354.650	26.315	843.522	671.546
355.665	25.365	842.110	666.836
356.679	25.890	842.121	668.736
357.694	26.280	841.361	669.517
358.708	26.005	841.240	668.344
359.723	26.441	841.240	669.898
360.738	26.811	841.002	671.022
361.752	26.897	840.367	670.771
362.767	27.213	840.401	671.908
363.781	27.301	839.893	671.765
364.796	27.582	839.404	672.354
365.810	27.530	838.816	671.632
366.825	27.611	838.640	671.730
367.840	27.155	838.074	669.536
368.854	26.668	836.941	666.781
369.869	26.881	836.296	666.991
370.883	26.999	835.788	666.961
371.898	26.929	835.234	666.201
372.913	26.961	835.097	666.150
373.927	27.075	834.852	666.314
374.942	27.187	834.595	666.460
375.956	27.281	833.577	665.935
376.971	27.345	833.609	666.135
377.986	27.513	833.540	666.634
379.000	27.359	832.722	665.359
380.015	27.336	832.134	664.748
381.029	27.386	831.324	664.224
382.044	27.489	831.006	664.286
383.059	27.626	830.269	664.138
384.073	27.572	829.873	663.565
385.088	27.495	829.169	662.662
386.102	27.328	828.186	661.213
387.117	27.094	827.940	660.108
388.132	26.845	826.710	658.164
389.146	26.473	825.481	655.781
390.161	26.706	826.138	657.091
391.175	27.191	825.762	658.488
392.190	26.936	824.548	656.540
393.205	25.410	822.161	649.072
394.219	24.085	820.302	642.766
395.234	23.880	820.573	642.182
396.248	25.392	822.320	648.961
397.263	26.912	822.950	654.892
398.278	27.001	822.081	654.461
399.292	26.741	821.705	653.168
400.307	26.771	820.949	652.618
401.321	26.940	820.590	652.882
402.336	27.264	820.468	653.893
403.350	27.683	820.667	655.500
404.365	27.856	820.731	656.114
405.380	28.155	820.205	656.710
406.394	28.166	819.872	656.425
407.409	28.111	819.248	655.669
408.423	28.198	818.998	655.724
409.438	28.226	818.369	655.260
410.453	28.303	817.892	655.099
411.467	28.065	817.408	653.799
412.482	28.115	816.966	653.567
413.496	28.126	816.686	653.325
414.511	28.186	816.563	653.383
415.526	28.302	815.390	652.802
416.540	28.197	814.707	651.823
417.555	27.852	814.157	650.095
418.569	27.887	814.065	650.089
419.584	27.858	813.326	649.340
420.599	27.754	812.676	648.393
421.613	107.908	1284.837	1450.035
422.628	93.278	1353.620	1450.138
