DTS Sentinel unit serial number:	SN413079Multiplexer serial number:	ORYXHardware model number:	OX4-SRSoftware version number:	ORYX F/W v4.00 Oryx Data Collector v3.7.2.0data status	okinstallation	princeton_trtdifferential loss correction	single-endedforward channel	channel 1reverse channel	N/Adate	2019/09/12time	18:16:34forward acquisition time	15.00reverse acquisition time	0.00gamma	496.2192k internal	0.2317k external	0.2317temperature offset calibration	1.0101default loss term (dB/km)	0.3790temperature slope calibration	1.0000multiplexer offset coefficient	1.0000multiplexer slope coefficient	1.0000fibre end	0.00T internal ref (°C)	33.50T ext. ref 1 (°C)	2.92T ext. ref 2 (°C)	28.05length (m)	temperature (°C)	Stokes	anti-Stokes-747.200	-200.000	0.072	0.357
-746.185	-101.687	0.650	0.160
-745.171	-200.000	-0.008	0.160
-744.156	264.153	0.239	0.421
-743.142	3.668	-0.378	0.279
-742.127	-118.421	-0.631	-0.113
-741.112	800.000	-0.185	0.532
-740.098	800.000	-0.191	0.544
-739.083	-40.046	0.870	0.459
-738.069	-200.000	-0.005	0.412
-737.054	-200.000	-0.074	-0.407
-736.039	-14.803	-0.557	-0.362
-735.025	800.000	0.225	0.676
-734.010	699.806	0.269	0.715
-732.996	272.572	0.392	-0.700
-731.981	572.505	0.189	0.465
-730.966	533.355	0.272	0.652
-729.952	84.236	0.296	-0.328
-728.937	432.460	0.323	-0.710
-727.923	800.000	0.180	0.599
-726.908	-10.528	-0.678	0.454
-725.894	800.000	-0.079	0.230
-724.879	128.242	0.299	-0.385
-723.864	-200.000	-0.033	0.660
-722.850	12.534	-0.370	-0.288
-721.835	250.154	0.198	0.340
-720.821	-151.338	0.172	0.013
-719.806	-49.923	-0.215	-0.103
-718.791	258.884	0.487	-0.850
-717.777	-60.467	0.342	-0.147
-716.762	52.142	-0.607	0.585
-715.748	647.752	-0.191	-0.494
-714.733	147.460	-0.400	0.544
-713.718	-60.171	-0.957	-0.413
-712.704	614.135	-0.204	0.517
-711.689	294.359	-0.469	-0.867
-710.675	-180.575	0.339	-0.007
-709.660	-29.655	-0.151	-0.087
-708.645	-4.074	0.270	-0.189
-707.631	331.095	-0.207	-0.403
-706.616	-13.824	1.014	-0.663
-705.602	-200.000	-0.021	-0.176
-704.587	-175.473	-0.238	0.007
-703.572	-90.957	0.171	-0.050
-702.558	-200.000	0.042	-0.852
-701.543	364.954	-0.317	0.645
-700.529	-48.021	-0.458	0.224
-699.514	-104.245	-0.680	0.160
-698.499	800.000	0.090	-0.298
-697.485	-66.955	-0.920	-0.367
-696.470	-76.595	-0.443	-0.157
-695.456	-1.171	-1.083	-0.774
-694.441	-103.284	-0.419	0.100
-693.426	-86.033	0.544	0.170
-692.412	-48.454	-1.122	0.546
-691.397	-185.937	-0.262	-0.004
-690.383	510.449	-0.325	-0.763
-689.368	20.711	0.671	-0.549
-688.354	541.964	0.184	-0.444
-687.339	74.693	-0.240	0.255
-686.324	34.085	-0.214	-0.188
-685.310	800.000	0.165	-0.612
-684.295	27.896	-0.233	-0.198
-683.281	-45.912	-0.449	-0.224
-682.266	-78.319	0.259	0.090
-681.251	800.000	-0.186	0.560
-680.237	-140.782	-0.522	-0.054
-679.222	-155.859	-0.152	-0.010
-678.208	-200.000	0.029	-0.138
-677.193	-200.000	-0.010	-0.706
-676.178	-137.829	-0.861	-0.097
-675.164	22.979	-0.738	-0.611
-674.149	-107.954	0.382	0.084
-673.135	800.000	-0.196	0.809
-672.120	38.785	0.538	0.485
-671.105	-8.353	0.383	-0.260
-670.091	-150.509	-0.140	-0.011
-669.076	-35.719	0.135	-0.074
-668.062	444.530	-0.232	0.514
-667.047	323.129	0.238	-0.458
-666.032	800.000	-0.093	-0.384
-665.018	73.116	-0.199	0.210
-664.003	-34.893	0.691	-0.381
-662.989	-55.857	0.642	0.289
-661.974	-46.671	0.638	0.315
-660.959	58.273	-0.378	0.374
-659.945	-127.129	-0.126	-0.019
-658.930	-137.408	-0.293	-0.034
-657.916	-90.662	0.394	-0.115
-656.901	-14.184	-0.725	0.472
-655.886	26.645	-0.282	-0.238
-654.872	192.144	0.383	-0.583
-653.857	-120.946	0.457	0.078
-652.843	189.499	0.073	-0.111
-651.828	224.036	-0.274	0.446
-650.814	-15.997	-0.152	0.098
-649.799	-175.102	-0.781	0.022
-648.784	-78.930	0.882	-0.303
-647.770	800.000	0.298	0.988
-646.755	-96.187	0.732	-0.196
-645.741	348.351	0.167	0.332
-644.726	152.925	-0.290	-0.399
-643.711	-200.000	-0.036	-0.193
-642.697	14.218	0.236	-0.185
-641.682	800.000	-0.136	-0.501
-640.668	-46.802	0.595	0.294
-639.653	800.000	-0.142	-0.454
-638.638	338.181	0.296	-0.581
-637.624	34.219	-0.168	-0.148
-636.609	159.853	-0.134	0.188
-635.595	-73.574	-0.457	0.168
-634.580	568.264	-0.191	0.467
-633.565	-58.521	0.576	-0.252
-632.551	-151.344	0.300	0.023
-631.536	33.671	0.322	0.282
-630.522	38.466	0.640	-0.575
-629.507	800.000	-0.106	-0.446
-628.492	718.595	-0.107	-0.287
-627.478	215.859	0.291	-0.466
-626.463	-154.991	-0.154	0.010
-625.449	-73.324	-0.207	-0.076
-624.434	-200.000	-0.059	0.420
-623.419	-90.202	0.147	-0.043
-622.405	-200.000	-0.024	0.255
-621.390	240.684	0.428	0.719
-620.376	291.675	-0.326	-0.598
-619.361	-84.571	0.653	-0.208
-618.346	800.000	-0.151	0.508
-617.332	388.162	-0.451	0.941
-616.317	34.325	-0.159	-0.140
-615.303	-27.306	0.253	-0.148
-614.288	-45.733	-0.139	0.069
-613.273	800.000	-0.378	1.265
-612.259	-200.000	-0.063	0.488
-611.244	-143.104	-0.338	0.033
-610.230	-4.459	-1.150	0.800
-609.215	-200.000	-0.192	-0.866
-608.201	-72.672	0.498	-0.185
-607.186	800.000	0.162	-0.475
-606.171	125.755	-0.606	-0.770
-605.157	-24.426	0.645	-0.387
-604.142	800.000	0.176	-0.527
-603.128	800.000	-0.119	-0.498
-602.113	-200.000	-0.044	-0.347
-601.098	-200.000	-0.051	0.496
-600.084	105.548	-0.257	-0.306
-599.069	-31.666	0.678	0.383
-598.055	692.922	-0.380	1.003
-597.040	28.674	-0.735	0.626
-596.025	38.023	0.330	0.296
-595.011	52.733	-0.211	0.203
-593.996	72.120	-0.077	0.080
-592.982	-200.000	-0.016	-0.380
-591.967	104.722	0.093	0.110
-590.952	-200.000	-0.121	0.686
-589.938	-125.108	0.317	-0.049
-588.923	89.470	0.598	0.672
-587.909	-120.461	0.850	-0.145
-586.894	-170.481	-0.431	-0.015
-585.879	-44.896	-0.805	-0.404
-584.865	8.115	-0.327	0.247
-583.850	-200.000	-0.017	1.017
-582.836	-200.000	-0.061	-0.785
-581.821	-158.028	-0.250	-0.015
-580.806	-200.000	-0.593	-0.001
-579.792	-55.175	0.458	-0.207
-578.777	-178.585	0.414	0.010
-577.763	80.433	0.311	-0.337
-576.748	2.189	0.327	0.238
-575.733	67.990	-0.141	-0.145
-574.719	462.907	-0.356	-0.799
-573.704	174.032	0.213	-0.309
-572.690	150.267	-0.371	-0.507
-571.675	-60.573	0.696	0.297
-570.661	341.996	0.193	0.380
-569.646	-103.737	0.600	-0.141
-568.631	-200.000	0.041	0.197
-567.617	232.380	-0.327	0.539
-566.602	165.228	-0.287	0.408
-565.588	-41.417	0.563	-0.291
-564.573	24.792	0.146	0.122
-563.558	-200.000	-0.034	0.989
-562.544	-69.200	-0.575	0.222
-561.529	-140.075	0.498	0.053
-560.515	800.000	-0.145	-0.547
-559.500	484.069	-0.021	-0.047
-558.485	51.293	-0.076	0.072
-557.471	548.582	0.194	-0.467
-556.456	-134.375	0.997	0.123
-555.442	-53.147	0.153	-0.071
-554.427	1.374	0.358	0.259
-553.412	-200.000	0.007	-0.381
-552.398	18.090	0.365	-0.292
-551.383	213.070	-0.163	0.258
-550.369	250.369	-0.338	0.577
-549.354	-200.000	0.001	-0.053
-548.339	171.312	-0.260	0.374
-547.325	149.813	-0.290	0.395
-546.310	-3.164	-0.476	-0.333
-545.296	248.007	0.328	-0.557
-544.281	-200.000	0.003	-0.533
-543.266	-200.000	-0.216	-0.959
-542.252	697.631	0.312	0.824
-541.237	140.280	-0.289	0.383
-540.223	-45.425	-0.295	-0.147
-539.208	-125.848	-0.141	-0.021
-538.193	-0.418	-0.804	-0.574
-537.179	-10.872	0.245	-0.162
-536.164	-144.198	0.906	-0.085
-535.150	-200.000	0.034	0.420
-534.135	-4.545	-0.768	0.533
-533.121	-26.273	0.755	0.445
-532.106	-22.299	-0.242	0.147
-531.091	615.297	-0.449	-1.130
-530.077	-48.747	-0.681	-0.328
-529.062	-200.000	0.015	0.517
-528.048	-15.413	0.464	-0.298
-527.033	4.003	-0.762	-0.560
-526.018	-141.243	-0.634	-0.065
-525.004	-4.686	0.233	0.162
-523.989	-200.000	0.133	1.347
-522.975	52.381	0.581	-0.557
-521.960	-127.282	-0.411	0.060
-520.945	-29.978	0.355	0.203
-519.931	-200.000	0.049	-0.846
-518.916	-16.105	-0.198	0.126
-517.902	117.367	-0.525	0.648
-516.887	-34.717	-0.184	0.101
-515.872	244.549	0.135	0.227
-514.858	-200.000	0.024	0.883
-513.843	-157.155	0.182	0.011
-512.829	443.424	0.317	-0.697
-511.814	61.357	-0.314	-0.313
-510.799	-64.858	0.537	0.218
-509.785	-77.681	-0.533	0.185
-508.770	-67.255	0.256	-0.101
-507.756	800.000	0.051	-0.200
-506.741	-200.000	-0.097	-0.973
-505.726	-9.247	0.365	-0.245
-504.712	-132.261	-0.625	0.081
-503.697	563.452	-0.142	0.344
-502.683	94.975	0.613	0.700
-501.668	-200.000	0.406	-0.000
-500.653	-200.000	0.055	0.353
-499.639	-200.000	0.008	0.228
-498.624	125.368	0.216	0.274
-497.610	-29.896	0.332	0.190
-496.595	20.631	-0.530	0.430
-495.581	20.184	0.742	0.600
-494.566	428.223	0.294	-0.637
-493.551	-32.024	0.066	0.037
-492.537	800.000	0.094	-0.278
-491.522	629.416	-0.226	-0.573
-490.508	211.422	-0.293	0.462
-489.493	800.000	-0.089	-0.295
-488.478	5.169	0.478	-0.353
-487.464	624.883	0.226	-0.571
-486.449	-65.768	0.103	-0.041
-485.435	800.000	-0.098	-0.332
-484.420	-185.851	-0.364	-0.005
-483.405	368.691	-0.265	-0.537
-482.391	-200.000	-0.075	0.799
-481.376	800.000	0.140	0.561
-480.362	310.583	0.437	-0.820
-479.347	421.138	0.330	-0.709
-478.332	20.625	-0.462	-0.374
-477.318	800.000	-0.133	0.376
-476.303	800.000	0.137	-0.410
-475.289	-47.513	0.369	-0.180
-474.274	273.492	-0.182	0.322
-473.259	-200.000	0.115	0.615
-472.245	-162.390	0.589	0.029
-471.230	-200.000	-0.072	1.077
-470.216	800.000	-0.348	0.964
-469.201	77.524	0.309	0.329
-468.186	29.370	-0.115	-0.098
-467.172	69.405	0.338	0.348
-466.157	-200.000	-0.123	1.203
-465.143	-200.000	-0.033	-0.567
-464.128	-200.000	-0.023	0.415
-463.113	-182.394	0.757	-0.014
-462.099	7.102	-0.526	-0.393
-461.084	144.958	0.419	0.561
-460.070	113.677	-0.426	-0.518
-459.055	-62.322	-0.205	-0.085
-458.040	59.216	0.200	0.197
-457.026	-6.892	0.221	-0.150
-456.011	350.181	-0.237	0.468
-454.997	327.900	-0.200	-0.384
-453.982	-78.728	-0.892	0.305
-452.968	800.000	0.018	-0.051
-451.953	75.486	0.344	0.364
-450.938	650.868	0.502	-1.286
-449.924	145.801	-0.261	-0.350
-448.909	240.213	0.138	-0.230
-447.895	800.000	-0.157	-0.530
-446.880	-33.532	0.281	0.155
-445.865	-102.983	-1.016	0.241
-444.851	-56.668	-0.208	0.092
-443.836	7.262	-0.068	-0.051
-442.822	27.522	0.286	-0.241
-441.807	263.562	0.088	0.152
-440.792	-200.000	-0.067	-0.425
-439.778	491.083	-0.410	-0.938
-438.763	800.000	0.084	-0.328
-437.749	48.262	0.171	-0.160
-436.734	94.515	-0.277	-0.315
-435.719	136.393	0.131	-0.170
-434.705	-101.882	-0.580	0.140
-433.690	-71.189	0.280	-0.105
-432.676	800.000	-0.079	-0.248
-431.661	-200.000	0.000	-0.073
-430.646	121.460	-0.491	-0.611
-429.632	159.368	-0.422	0.587
-428.617	-200.000	-0.068	0.451
-427.603	-40.768	0.206	0.107
-426.588	-200.000	-0.065	-0.999
-425.573	-98.283	0.931	0.239
-424.559	-143.421	-0.360	-0.034
-423.544	-136.500	-0.138	0.016
-422.530	117.976	-0.244	-0.300
-421.515	-200.000	-0.032	0.680
-420.500	70.490	0.286	0.296
-419.486	-141.568	-0.568	0.057
-418.471	-55.905	0.407	-0.181
-417.457	158.682	0.815	1.132
-416.442	465.026	-0.235	0.526
-415.428	-200.000	-0.006	0.058
-414.413	42.162	-0.225	-0.204
-413.398	65.044	-0.224	-0.226
-412.384	800.000	-0.109	-0.430
-411.369	-22.211	-0.142	-0.086
-410.355	-49.382	-0.674	-0.321
-409.340	116.495	0.121	-0.148
-408.325	-160.148	-0.702	-0.038
-407.311	323.848	0.321	-0.613
-406.296	-50.829	-0.718	-0.337
-405.282	-75.455	-0.761	0.271
-404.267	-63.584	-0.399	-0.164
-403.252	-139.551	0.419	-0.045
-402.238	-1.348	0.769	-0.542
-401.223	299.713	-0.504	-0.928
-400.209	-150.102	-0.495	0.038
-399.194	-200.000	-0.067	-0.295
-398.179	-133.674	0.742	0.093
-397.165	686.290	0.107	0.280
-396.150	28.945	0.392	-0.331
-395.136	-93.219	0.895	-0.248
-394.121	468.107	0.367	-0.822
-393.106	800.000	-0.121	-0.379
-392.092	-200.000	0.074	0.702
-391.077	-102.341	-0.423	-0.101
-390.063	226.755	0.328	-0.531
-389.048	-0.824	0.345	0.244
-388.033	-200.000	0.062	0.376
-387.019	-19.891	0.309	0.190
-386.004	324.300	0.187	0.357
-384.990	14.667	-0.202	0.158
-383.975	-200.000	0.055	0.639
-382.960	-200.000	-0.120	-0.571
-381.946	-129.395	-0.374	-0.052
-380.931	-145.931	-0.638	0.056
-379.917	196.794	0.355	-0.540
-378.902	677.208	0.175	0.454
-377.888	76.469	0.278	-0.294
-376.873	-29.827	-0.478	-0.272
-375.858	-200.000	0.049	0.287
-374.844	54.370	-0.101	0.098
-373.829	-133.213	0.317	-0.040
-372.815	-50.698	-0.497	-0.234
-371.800	-56.854	0.410	0.181
-370.785	258.050	0.094	0.162
-369.771	305.458	0.363	-0.673
-368.756	-200.000	0.073	-1.067
-367.742	800.000	-0.205	-0.696
-366.727	-41.312	-0.914	0.470
-365.712	-149.395	-0.620	-0.049
-364.698	-200.000	0.112	-0.522
-363.683	800.000	-0.190	0.724
-362.669	-157.847	-0.853	0.050
-361.654	422.560	-0.233	-0.499
-360.639	265.368	0.208	-0.362
-359.625	-200.000	0.001	-0.662
-358.610	-129.002	0.237	0.033
-357.596	-160.436	-0.945	-0.051
-356.581	-200.000	0.040	0.188
-355.566	-200.000	0.063	-0.481
-354.552	509.364	0.262	-0.606
-353.537	88.733	0.256	-0.284
-352.523	-143.549	0.410	-0.039
-351.508	241.100	0.281	0.467
-350.493	-200.000	-0.122	0.565
-349.479	800.000	-0.064	-0.200
-348.464	800.000	0.123	-0.422
-347.450	10.355	-0.323	-0.245
-346.435	9.328	0.371	-0.279
-345.420	71.915	-0.638	0.662
-344.406	-94.727	0.315	-0.085
-343.391	-200.000	0.034	0.403
-342.377	-126.493	-0.640	-0.095
-341.362	-70.513	0.920	0.347
-340.348	97.425	0.256	0.293
-339.333	800.000	-0.205	0.563
-338.318	800.000	-0.151	0.623
-337.304	-200.000	0.008	0.070
-336.289	690.332	0.289	0.755
-335.275	-46.320	0.650	-0.318
-334.260	-18.065	0.165	-0.103
-333.245	-200.000	-0.034	0.299
-332.231	-3.108	0.188	0.130
-331.216	-200.000	-0.061	-0.533
-330.202	-19.864	0.412	0.254
-329.187	-143.788	0.612	-0.058
-328.172	12.973	-0.523	-0.403
-327.158	-200.000	-0.231	-1.376
-326.143	-200.000	-0.049	-0.388
-325.129	178.952	-0.383	0.558
-324.114	800.000	-0.086	0.242
-323.099	509.546	-0.213	0.492
-322.085	58.662	-0.377	-0.368
-321.070	-61.724	0.534	0.223
-320.056	134.585	-0.476	-0.615
-319.041	194.418	-0.282	0.425
-318.026	41.831	0.400	0.361
-317.012	3.199	0.311	0.225
-315.997	203.835	0.286	-0.440
-314.983	358.697	0.231	-0.460
-313.968	-200.000	-0.062	-0.290
-312.953	153.901	-0.303	0.414
-311.939	-58.387	-0.261	0.113
-310.924	-172.478	0.407	-0.013
-309.910	-200.000	0.028	-0.374
-308.895	-38.354	-0.744	-0.392
-307.880	-91.025	-0.508	-0.145
-306.866	-30.048	0.158	-0.090
-305.851	-200.000	0.131	1.052
-304.837	-200.000	-0.077	1.004
-303.822	800.000	-0.198	-0.763
-302.807	243.690	-0.254	-0.424
-301.793	208.658	0.437	0.680
-300.778	-6.623	0.050	-0.034
-299.764	375.375	-0.283	-0.573
-298.749	-73.281	-0.175	-0.064
-297.735	536.531	-0.362	-0.854
-296.720	-22.831	0.564	-0.339
-295.705	45.182	0.483	-0.443
-294.691	706.361	-0.059	0.154
-293.676	-122.244	-0.619	-0.101
-292.662	375.962	0.098	-0.199
-291.647	-200.000	0.107	1.261
-290.632	-200.000	0.122	-0.582
-289.618	151.921	0.050	0.067
-288.603	202.212	0.196	-0.301
-287.589	32.596	-0.345	0.296
-286.574	-114.070	-0.228	0.044
-285.559	-95.924	0.764	0.202
-284.545	458.501	-0.155	0.342
-283.530	162.707	0.573	0.799
-282.516	26.170	0.371	0.308
-281.501	-137.134	0.685	0.078
-280.486	-200.000	-0.015	-0.178
-279.472	-67.359	-0.140	0.055
-278.457	411.075	-0.098	0.206
-277.443	-3.561	-0.781	0.540
-276.428	-200.000	0.069	0.349
-275.413	61.610	0.343	0.339
-274.399	277.477	0.120	-0.213
-273.384	87.401	0.515	0.566
-272.370	112.044	0.351	0.422
-271.355	413.693	-0.135	-0.286
-270.340	-124.782	0.252	-0.039
-269.326	0.752	-0.431	-0.307
-268.311	-33.274	-0.663	-0.365
-267.297	44.904	0.368	0.337
-266.282	392.290	0.210	-0.434
-265.267	74.960	0.624	0.653
-264.253	239.266	-0.360	0.594
-263.238	-184.303	-0.246	-0.004
-262.224	49.632	-0.328	-0.307
-261.209	-93.145	-0.714	-0.197
-260.195	-85.520	1.022	0.316
-259.180	800.000	-0.247	0.683
-258.165	268.755	0.439	-0.764
-257.151	-169.943	-0.168	-0.006
-256.136	800.000	0.092	-0.297
-255.122	-41.527	-0.589	0.301
-254.107	-13.451	-0.341	-0.220
-253.092	171.136	0.296	0.422
-252.078	-75.750	-0.771	-0.272
-251.063	132.277	0.180	0.230
-250.049	19.313	-0.632	0.504
-249.034	27.111	0.421	0.351
-248.019	-200.000	-0.064	0.939
-247.005	800.000	0.107	0.329
-245.990	800.000	-0.103	0.380
-244.976	97.639	-0.136	-0.155
-243.961	98.518	-0.264	0.303
-242.946	800.000	-0.208	-0.610
-241.932	-109.549	0.423	-0.089
-240.917	-200.000	0.001	-0.573
-239.903	272.217	-0.462	-0.808
-238.888	353.160	-0.240	-0.472
-237.873	-200.000	0.133	-0.946
-236.859	-147.921	0.655	-0.054
-235.844	-68.766	-0.228	-0.088
-234.830	-200.000	0.111	0.573
-233.815	-39.198	-0.531	0.277
-232.800	-31.005	0.444	-0.249
-231.786	-200.000	0.053	0.403
-230.771	263.924	-0.391	-0.675
-229.757	-98.523	0.673	0.171
-228.742	-61.735	0.428	-0.178
-227.727	-18.222	0.716	0.444
-226.713	800.000	0.163	0.594
-225.698	-200.000	-0.156	0.808
-224.684	-99.386	0.589	0.147
-223.669	-200.000	-0.002	-0.068
-222.655	-111.415	-0.199	-0.040
-221.640	-108.137	0.907	-0.195
-220.625	34.572	-0.362	-0.314
-219.611	51.926	-0.445	0.420
-218.596	-91.175	-0.586	0.167
-217.582	-161.764	-0.798	0.040
-216.567	231.015	-0.079	0.128
-215.552	353.083	-0.401	0.789
-214.538	-82.916	-0.775	-0.248
-213.523	249.145	-0.071	-0.118
-212.509	-25.573	-0.175	0.102
-211.494	133.101	0.375	-0.480
-210.479	-20.951	0.648	-0.394
-209.465	-77.464	-0.262	0.090
-208.450	269.428	0.406	-0.706
-207.436	-67.578	-0.141	0.055
-206.421	800.000	0.167	-0.466
-205.406	135.530	0.245	0.316
-204.392	-80.890	-0.597	0.196
-203.377	121.645	0.426	0.526
-202.363	-165.222	0.328	0.014
-201.348	-200.000	0.178	-0.986
-200.333	110.232	0.460	0.548
-199.319	-200.000	0.031	-0.626
-198.304	-200.000	-0.019	-0.454
-197.290	604.243	-0.113	0.280
-196.275	-77.361	0.637	0.219
-195.260	52.118	-0.793	-0.748
-194.246	800.000	-0.208	0.765
-193.231	-0.478	-0.396	-0.278
-192.217	35.178	-0.159	-0.138
-191.202	-200.000	-0.102	0.680
-190.187	32.560	0.227	0.194
-189.173	-200.000	-0.011	0.178
-188.158	-138.291	0.523	-0.057
-187.144	99.859	0.551	0.633
-186.129	-200.000	-0.114	-0.564
-185.114	83.721	-0.227	-0.245
-184.100	80.975	-0.290	-0.310
-183.085	800.000	-0.296	0.918
-182.071	68.356	0.114	0.116
-181.056	-12.130	0.269	0.174
-180.042	37.989	-0.484	-0.426
-179.027	427.073	0.316	-0.676
-178.012	-114.723	-0.294	0.056
-176.998	-154.754	0.357	0.023
-175.983	36.132	-0.329	-0.287
-174.969	-200.000	-0.071	0.334
-173.954	-89.529	0.268	-0.078
-172.939	161.513	0.247	-0.343
-171.925	721.429	-0.263	0.692
-170.910	-44.999	0.275	0.136
-169.896	40.719	-0.318	0.284
-168.881	636.765	-0.373	0.938
-167.866	800.000	-0.184	0.540
-166.852	-200.000	0.048	-0.388
-165.837	438.935	0.166	-0.360
-164.823	-134.812	0.695	0.083
-163.808	24.737	-0.166	0.136
-162.793	196.944	0.664	1.002
-161.779	800.000	0.121	-0.345
-160.764	-200.000	-0.086	-0.600
-159.750	-183.062	-0.570	0.010
-158.735	96.868	-0.645	0.732
-157.720	-109.972	-0.339	0.070
-156.706	-176.555	0.364	0.009
-155.691	-181.266	0.551	0.011
-154.677	800.000	0.032	-0.100
-153.662	-56.706	-0.752	-0.329
-152.647	-1.823	0.262	-0.182
-151.633	25.632	0.242	-0.199
-150.618	-200.000	-0.099	-0.653
-149.604	-83.275	0.241	-0.076
-148.589	89.951	-0.309	-0.341
-147.574	-174.694	0.648	-0.018
-146.560	-200.000	-0.007	0.363
-145.545	-136.032	-0.496	0.058
-144.531	4.121	0.194	-0.140
-143.516	-88.742	0.091	-0.027
-142.502	290.771	0.464	0.834
-141.487	-200.000	-0.028	0.179
-140.472	-53.690	0.923	0.417
-139.458	260.477	0.329	0.562
-138.443	-85.385	-0.179	0.055
-137.429	-67.012	0.205	0.080
-136.414	-143.359	0.485	0.046
-135.399	49.789	-0.476	-0.443
-134.385	800.000	-0.161	-0.466
-133.370	-54.244	0.973	-0.437
-132.356	-70.600	-0.267	-0.100
-131.341	-87.548	0.651	0.195
-130.326	-128.510	-0.356	0.050
-129.312	-70.353	-0.205	-0.077
-128.297	-5.503	0.234	-0.159
-127.283	-99.095	-0.578	0.145
-126.268	-41.741	0.067	-0.034
-125.253	26.775	0.412	-0.341
-124.239	-132.012	-0.373	0.048
-123.224	-175.656	0.649	0.017
-122.210	-200.000	-0.011	-0.101
-121.195	-126.178	0.271	-0.040
-120.180	-106.650	0.149	-0.033
-119.166	-200.000	-0.033	0.162
-118.151	73.577	0.330	-0.342
-117.137	7.192	0.190	0.140
-116.122	-200.000	-0.198	0.001
-115.107	-200.000	-0.168	-1.127
-114.093	33.498	-0.424	0.364
-113.078	286.775	0.255	-0.454
-112.064	-165.015	-1.467	-0.065
-111.049	-200.000	0.009	0.639
-110.034	800.000	0.096	-0.345
-109.020	9.943	-0.636	-0.477
-108.005	-65.031	0.592	-0.236
-106.991	233.925	-0.198	-0.323
-105.976	49.381	-0.454	-0.422
-104.962	265.703	-0.364	0.627
-103.947	350.224	-0.207	-0.404
-102.932	70.104	-0.498	-0.508
-101.918	354.714	-0.311	-0.611
-100.903	800.000	0.132	-0.468
-99.889	177.427	0.457	-0.657
-98.874	-61.408	0.737	-0.306
-97.859	-183.640	0.027	0.000
-96.845	205.767	0.386	0.592
-95.830	54.235	0.536	-0.509
-94.816	76.699	-0.646	-0.676
-93.801	460.849	0.138	-0.304
-92.786	188.296	0.388	-0.572
-91.772	-113.909	-0.615	-0.118
-90.757	-141.665	-0.663	0.066
-89.743	-81.727	0.356	0.115
-88.728	128.229	0.140	0.176
-87.713	5.956	0.445	-0.325
-86.699	317.333	-0.049	-0.092
-85.684	-144.080	-0.486	-0.045
-84.670	492.570	0.122	-0.275
-83.655	144.146	-0.118	-0.155
-82.640	-54.241	-0.185	-0.083
-81.626	-200.000	0.007	0.393
-80.611	-86.033	0.957	-0.292
-79.597	380.461	0.279	0.565
-78.582	576.840	-0.130	-0.313
-77.567	707.213	0.129	0.336
-76.553	-2.858	0.410	-0.283
-75.538	-200.000	0.083	-0.502
-74.524	-115.486	0.626	-0.116
-73.509	-65.439	-0.322	0.127
-72.494	197.449	-0.216	0.325
-71.480	-89.593	-0.428	-0.124
-70.465	-200.000	-0.054	0.321
-69.451	-69.927	0.626	0.235
-68.436	800.000	-0.198	-0.650
-67.422	23.299	0.550	0.446
-66.407	563.277	0.322	-0.769
-65.392	-59.642	0.597	0.253
-64.378	-28.808	-0.784	0.445
-63.363	-151.019	0.359	-0.027
-62.349	-200.000	-0.084	0.511
-61.334	40.336	-1.025	-0.909
-60.319	-65.082	-0.583	-0.232
-59.305	30.890	-0.637	-0.538
-58.290	-52.719	1.550	0.705
-57.276	800.000	0.488	2.071
-56.261	-200.000	94.878	565.758
-55.246	634.375	1374.897	3435.934
-54.232	197.966	2549.303	3838.907
-53.217	118.226	2134.824	2593.773
-52.203	45.003	1600.127	1452.042
-51.188	36.903	1340.925	1168.197
-50.173	34.074	1296.625	1113.035
-49.159	56.816	1348.643	1293.955
-48.144	58.418	1363.697	1317.888
-47.130	37.015	1322.359	1152.501
-46.115	33.579	1305.012	1117.141
-45.100	33.496	1300.151	1112.447
-44.086	33.361	1297.521	1109.360
-43.071	33.248	1295.664	1107.066
-42.057	33.423	1292.733	1105.543
-41.042	33.333	1292.214	1104.525
-40.027	33.508	1289.856	1103.485
-39.013	33.365	1287.874	1100.920
-37.998	33.522	1285.965	1100.152
-36.984	33.319	1284.759	1097.898
-35.969	33.592	1283.125	1098.043
-34.954	33.608	1280.997	1096.268
-33.940	33.569	1279.475	1094.698
-32.925	33.725	1278.409	1094.640
-31.911	33.593	1277.091	1092.713
-30.896	33.628	1275.309	1091.343
-29.881	33.759	1274.108	1091.026
-28.867	33.444	1273.420	1088.581
-27.852	33.678	1270.793	1087.634
-26.838	33.703	1269.979	1087.038
-25.823	33.753	1268.886	1086.346
-24.809	33.643	1267.210	1084.243
-23.794	33.857	1265.532	1083.984
-22.779	33.593	1264.470	1081.527
-21.765	33.485	1263.877	1080.358
-20.750	33.400	1263.194	1079.248
-19.736	33.563	1261.263	1078.479
-18.721	33.392	1260.925	1077.180
-17.706	33.404	1259.723	1076.175
-16.692	33.407	1256.876	1073.717
-15.677	33.315	1256.596	1072.913
-14.663	33.549	1254.822	1072.685
-13.648	33.599	1254.265	1072.444
-12.633	33.207	1254.098	1070.046
-11.619	33.426	1252.744	1070.085
-10.604	33.213	1253.557	1069.533
-9.590	33.259	1251.187	1067.729
-8.575	33.354	1250.128	1067.318
-7.560	33.384	1248.884	1066.383
-6.546	33.341	1248.512	1065.779
-5.531	33.585	1247.968	1066.647
-4.517	33.558	1246.333	1065.053
-3.502	33.680	1244.888	1064.462
-2.487	33.205	1245.342	1062.138
-1.473	33.240	1240.962	1058.561
-0.458	31.891	1225.945	1038.246
0.556	29.003	1208.364	999.035
1.571	25.040	1213.830	981.801
2.586	23.786	1228.702	986.783
3.600	23.309	1217.207	974.840
4.615	17.002	1145.724	884.727
5.629	7.611	1068.614	779.235
6.644	3.190	1048.330	743.066
7.659	2.915	1045.147	739.422
8.673	2.883	1043.798	738.248
9.688	2.693	1044.189	737.545
10.702	2.999	1042.538	737.785
11.717	8.871	1050.734	771.863
12.731	19.119	1063.814	831.128
13.746	24.574	1070.803	862.947
14.761	25.886	1072.301	870.416
15.775	25.740	1071.245	868.781
16.790	25.608	1071.231	868.054
17.804	25.641	1069.297	866.570
18.819	25.542	1070.374	866.889
19.834	25.912	1069.825	868.147
20.848	26.007	1068.456	867.416
21.863	25.492	1069.875	866.015
22.877	25.849	1068.813	866.793
23.892	25.681	1068.679	865.803
24.907	25.773	1065.910	863.920
25.921	25.912	1064.672	863.508
26.936	25.960	1063.580	862.775
27.950	25.894	1061.952	861.063
28.965	25.829	1060.567	859.557
29.980	25.598	1060.218	858.092
30.994	25.747	1059.153	857.867
32.009	25.742	1058.257	857.041
33.023	25.508	1056.800	854.671
34.038	25.586	1056.400	854.643
35.053	25.636	1054.815	853.524
36.067	25.761	1054.253	853.584
37.082	26.014	1053.488	854.089
38.096	25.720	1053.542	852.665
39.111	25.715	1053.374	852.430
40.126	25.658	1051.435	850.516
41.140	25.333	1049.364	847.231
42.155	25.369	1048.073	846.283
43.169	25.490	1047.421	846.251
44.184	25.154	1047.924	845.000
45.199	25.522	1044.584	843.963
46.213	25.252	1045.081	843.022
47.228	25.851	1044.192	845.040
48.242	25.789	1043.463	844.085
49.257	25.650	1042.933	842.926
50.271	25.842	1041.160	842.320
51.286	25.978	1041.031	842.777
52.301	25.952	1040.723	842.331
53.315	25.935	1039.209	840.951
54.330	25.682	1039.538	839.964
55.344	25.898	1037.001	838.844
56.359	25.704	1037.584	838.336
57.374	25.737	1035.283	836.557
58.388	25.442	1035.158	835.011
59.403	25.684	1033.785	834.954
60.417	25.332	1033.664	833.148
61.432	25.293	1032.709	832.124
62.447	25.621	1031.897	832.913
63.461	25.391	1032.189	832.011
64.476	25.466	1030.832	831.192
65.490	25.424	1029.565	829.901
66.505	25.566	1028.897	829.948
67.520	25.723	1027.917	829.805
68.534	25.261	1027.865	827.560
69.549	24.958	1026.893	825.308
70.563	24.761	1025.920	823.547
71.578	25.030	1024.362	823.460
72.593	25.230	1022.417	822.740
73.607	25.239	1022.838	823.050
74.622	25.319	1023.257	823.680
75.636	25.467	1021.326	822.728
76.651	25.411	1020.459	821.702
77.666	25.237	1020.627	820.970
78.680	25.063	1020.700	820.160
79.695	25.224	1019.701	820.017
80.709	25.493	1018.858	820.498
81.724	25.550	1017.998	819.993
82.739	25.408	1016.890	818.379
83.753	25.857	1016.991	820.432
84.768	25.883	1016.665	820.215
85.782	26.336	1015.191	821.012
86.797	26.201	1013.610	819.049
87.812	26.132	1013.088	818.240
88.826	25.973	1012.153	816.693
89.841	25.986	1011.913	816.488
90.855	26.276	1010.010	816.190
91.870	26.142	1009.673	815.241
92.884	25.933	1008.175	813.017
93.899	25.966	1007.851	812.831
94.914	26.156	1007.151	813.050
95.928	26.101	1005.959	811.769
96.943	25.764	1004.524	809.026
97.957	25.438	1003.841	806.939
98.972	25.629	1001.880	806.151
99.987	25.747	1002.122	806.801
101.001	25.954	1000.965	806.726
102.016	25.868	1000.456	805.859
103.030	25.792	999.199	804.435
104.045	25.833	997.936	803.530
105.060	25.681	997.221	802.204
106.074	25.739	996.253	801.616
107.089	26.092	995.849	802.787
108.103	25.921	994.568	800.927
109.118	25.847	993.926	800.008
110.133	25.730	992.553	798.313
111.147	25.293	991.351	795.343
112.162	25.395	990.812	795.291
113.176	25.625	990.872	796.288
114.191	25.497	989.865	794.839
115.206	25.378	988.835	793.416
116.220	25.063	989.065	792.139
117.235	25.368	986.729	791.545
118.249	25.242	986.426	790.674
119.264	24.848	986.283	788.752
120.279	25.155	985.256	789.214
121.293	25.203	984.635	788.858
122.308	25.398	983.731	788.920
123.322	25.095	982.992	786.928
124.337	24.856	981.836	784.885
125.352	24.654	979.673	782.205
126.366	24.888	978.063	781.869
127.381	25.236	978.982	784.058
128.395	25.850	977.259	785.283
129.410	25.935	977.550	785.819
130.424	25.659	976.466	783.679
131.439	26.111	974.115	783.683
132.454	25.870	974.604	782.961
133.468	25.863	973.376	781.873
134.483	25.856	972.901	781.393
135.497	26.156	971.578	781.562
136.512	26.076	971.250	780.880
137.527	26.226	969.481	780.036
138.541	26.125	969.874	779.851
139.556	25.853	969.132	778.010
140.570	26.110	968.795	778.779
141.585	26.041	967.929	777.716
142.600	25.958	966.716	776.314
143.614	26.393	965.062	776.790
144.629	26.350	964.890	776.396
145.643	26.178	963.171	774.204
146.658	26.375	961.633	773.747
147.673	25.941	960.879	771.213
148.687	26.238	959.581	771.372
149.702	25.602	960.523	769.343
150.716	25.910	957.959	768.535
151.731	25.935	957.718	768.379
152.746	26.201	957.763	769.479
153.760	25.957	958.171	768.699
154.775	26.511	956.295	769.483
155.789	26.391	955.438	768.217
156.804	26.077	954.891	766.375
157.819	26.385	953.488	766.488
158.833	26.140	954.214	765.963
159.848	26.603	951.786	765.904
160.862	26.286	951.299	764.105
161.877	26.484	949.807	763.675
162.892	26.341	948.963	762.328
163.906	26.168	948.313	761.007
164.921	26.081	946.883	759.428
165.935	26.596	945.520	760.432
166.950	26.491	945.065	759.555
167.964	25.919	945.599	757.516
168.979	26.302	944.738	758.365
169.994	26.008	943.734	756.259
171.008	26.247	942.771	756.424
172.023	26.548	941.118	756.287
173.037	26.164	941.532	754.948
174.052	26.205	939.672	753.560
175.067	26.174	938.331	752.289
176.081	26.174	938.574	752.419
177.096	26.279	937.263	751.735
178.110	25.625	937.109	748.827
179.125	26.052	934.700	748.605
180.140	25.692	936.163	748.214
181.154	26.056	935.257	748.939
182.169	26.403	933.966	749.276
183.183	26.564	934.488	750.295
184.198	26.505	932.826	748.650
185.213	26.382	932.908	748.139
186.227	26.304	931.979	747.006
187.242	26.228	931.619	746.338
188.256	26.517	931.682	747.517
189.271	26.251	930.464	745.378
190.286	25.816	930.022	743.160
191.300	25.488	927.666	739.861
192.315	24.562	926.827	735.320
193.329	24.489	926.697	734.849
194.344	25.525	926.546	738.925
195.359	26.222	926.244	741.482
196.373	26.454	925.590	741.843
197.388	26.077	925.602	740.241
198.402	26.393	924.929	740.932
199.417	26.559	922.501	739.604
200.432	26.043	922.739	737.616
201.446	25.982	922.810	737.360
202.461	26.127	921.839	737.112
203.475	25.641	919.986	733.583
204.490	24.410	919.095	727.789
205.504	25.397	919.547	732.109
206.519	25.912	918.898	733.625
207.534	25.834	919.049	733.363
208.548	26.299	918.687	734.901
209.563	26.120	917.580	733.224
210.577	26.097	917.290	732.832
211.592	26.539	916.579	733.993
212.607	26.687	915.855	733.948
213.621	26.367	915.400	732.221
214.636	26.700	913.886	732.290
215.650	26.377	913.972	730.991
216.665	26.571	913.280	731.157
217.680	26.489	912.406	730.061
218.694	26.490	910.091	728.150
219.709	25.904	910.185	725.800
220.723	26.322	910.353	727.552
221.738	26.253	910.525	727.349
222.753	26.323	909.151	726.468
223.767	26.316	908.725	726.033
224.782	26.807	908.962	728.130
225.796	26.076	909.286	725.388
226.811	25.758	907.211	722.396
227.826	25.009	906.947	719.115
228.840	25.412	905.008	719.126
229.855	25.654	904.410	719.555
230.869	25.461	903.427	717.940
231.884	25.843	903.357	719.346
232.899	26.189	903.555	720.823
233.913	26.215	902.536	720.047
234.928	25.884	902.876	718.935
235.942	25.969	901.797	718.353
236.957	25.854	900.785	717.025
237.972	25.784	899.923	715.998
238.986	26.105	899.216	716.645
240.001	26.373	898.069	716.730
241.015	26.068	898.052	715.443
242.030	26.273	898.017	716.165
243.045	25.983	898.074	714.998
244.059	26.024	897.814	714.890
245.074	26.217	897.207	715.108
246.088	26.158	895.246	713.250
247.103	26.524	895.201	714.596
248.117	26.687	894.890	714.926
249.132	27.158	894.563	716.458
250.147	27.544	893.639	717.176
251.161	27.006	894.285	715.511
252.176	27.170	893.850	715.747
253.190	26.955	892.934	714.102
254.205	27.491	892.529	715.822
255.220	27.334	890.861	713.807
256.234	26.864	890.731	711.794
257.249	27.057	889.853	711.786
258.263	26.780	889.795	710.594
259.278	27.236	888.931	711.626
260.293	27.344	887.542	710.873
261.307	27.044	887.993	709.995
262.322	27.018	886.538	708.670
263.336	26.065	885.407	703.985
264.351	25.127	883.027	698.381
265.366	25.540	882.846	699.784
266.380	26.260	885.025	704.255
267.395	26.918	883.360	705.428
268.409	26.638	882.165	703.325
269.424	26.728	882.013	703.489
270.439	27.236	881.649	705.107
271.453	26.954	880.753	703.238
272.468	27.392	880.079	704.331
273.482	27.575	879.511	704.522
274.497	27.016	878.952	701.853
275.512	26.458	878.227	699.055
276.526	26.750	878.792	700.572
277.541	27.168	877.974	701.472
278.555	27.138	877.217	700.688
279.570	26.598	876.456	697.939
280.585	26.849	875.682	698.227
281.599	26.816	874.367	696.988
282.614	26.418	873.442	694.661
283.628	26.585	872.481	694.475
284.643	26.849	873.398	696.157
285.657	26.162	872.429	692.689
286.672	26.137	871.241	691.590
287.687	26.517	871.332	693.055
288.701	26.736	870.979	693.554
289.716	26.556	869.045	691.262
290.730	26.262	868.778	689.868
291.745	26.272	867.757	689.035
292.760	26.550	866.918	689.366
293.774	27.393	867.687	693.126
294.789	27.571	868.215	694.166
295.803	27.488	867.320	693.074
296.818	27.749	866.512	693.357
297.833	27.107	865.761	690.256
298.847	27.143	864.668	689.462
299.862	27.355	864.728	690.252
300.876	27.522	864.593	690.718
301.891	27.475	863.514	689.616
302.906	27.577	862.213	688.903
303.920	27.448	862.083	688.250
304.935	27.831	861.957	689.534
305.949	27.274	862.295	687.639
306.964	27.077	861.246	685.999
307.979	27.231	860.080	685.588
308.993	27.502	860.681	687.031
310.008	27.489	860.002	686.379
311.022	27.124	858.641	683.859
312.037	27.550	857.863	684.778
313.052	27.077	857.279	682.474
314.066	26.384	856.029	678.820
315.081	25.962	855.661	676.881
316.095	26.478	856.387	679.336
317.110	27.217	855.744	681.536
318.125	26.230	854.478	676.772
319.139	25.340	852.234	671.609
320.154	25.252	852.835	671.693
321.168	26.279	851.990	674.805
322.183	27.065	851.843	677.561
323.197	26.903	852.323	677.279
324.212	27.254	852.203	678.434
325.227	27.345	851.225	677.935
326.241	27.371	849.702	676.757
327.256	26.954	850.428	675.723
328.270	27.041	849.022	674.871
329.285	26.995	848.048	673.865
330.300	26.689	846.861	671.728
331.314	26.852	846.832	672.249
332.329	27.131	848.104	674.236
333.343	27.484	847.298	674.845
334.358	26.949	847.754	673.163
335.373	27.331	846.349	673.403
336.387	27.411	847.108	674.243
337.402	28.235	845.773	676.166
338.416	27.765	845.814	674.403
339.431	28.004	846.449	675.732
340.446	27.999	845.088	674.569
341.460	27.910	844.414	673.642
342.475	27.970	844.844	674.147
343.489	27.675	844.808	672.969
344.504	27.998	844.026	673.478
345.519	28.352	843.183	674.049
346.533	28.406	842.525	673.661
347.548	28.313	842.008	672.846
348.562	28.168	840.775	671.271
349.577	27.852	841.158	670.356
350.592	27.949	840.659	670.258
351.606	27.978	839.267	669.192
352.621	28.192	837.894	668.823
353.635	28.032	837.793	668.096
354.650	27.035	837.312	664.010
355.665	26.487	835.649	660.634
356.679	26.956	834.497	661.374
357.694	27.402	835.124	663.436
358.708	27.284	834.874	662.750
359.723	27.432	833.835	662.406
360.738	28.049	832.805	663.769
361.752	27.750	832.707	662.547
362.767	28.585	831.992	664.947
363.781	28.391	832.059	664.237
364.796	28.502	831.775	664.354
365.810	28.800	831.460	665.122
366.825	28.479	830.934	663.484
367.840	28.255	830.686	662.415
368.854	28.067	829.718	660.906
369.869	27.964	829.017	659.918
370.883	28.124	827.590	659.300
371.898	27.932	828.219	659.050
372.913	27.985	828.800	659.644
373.927	27.839	828.432	658.765
374.942	28.292	827.243	659.393
375.956	28.323	826.341	658.730
376.971	28.722	825.788	659.662
377.986	28.898	825.042	659.639
379.000	28.862	824.693	659.174
380.015	28.475	824.778	657.796
381.029	28.213	824.757	656.779
382.044	28.625	823.369	657.093
383.059	28.417	823.381	656.300
384.073	28.111	823.553	655.282
385.088	28.238	822.224	654.621
386.102	28.408	821.186	654.343
387.117	28.336	820.181	653.227
388.132	27.928	819.318	651.028
389.146	27.551	818.291	648.814
390.161	27.815	818.835	650.127
391.175	28.567	817.764	651.894
392.190	27.964	817.731	649.666
393.205	26.527	815.472	642.717
394.219	25.017	813.313	635.603
395.234	25.158	813.041	635.837
396.248	26.493	814.739	641.848
397.263	27.779	816.158	647.474
398.278	28.119	814.569	647.359
399.292	27.763	814.451	645.949
400.307	27.704	814.018	645.338
401.321	28.345	812.787	646.568
402.336	27.912	814.456	646.308
403.350	28.402	813.749	647.420
404.365	29.083	813.241	649.362
405.380	29.562	813.420	651.139
406.394	29.447	812.261	649.746
407.409	28.857	812.633	647.908
408.423	28.980	811.978	647.762
409.438	29.145	811.290	647.736
410.453	29.438	810.247	647.876
411.467	29.042	810.916	646.960
412.482	29.107	810.254	646.604
413.496	29.115	810.266	646.585
414.511	29.371	808.469	645.991
415.526	29.344	807.712	645.235
416.540	28.900	808.294	644.085
417.555	28.533	808.284	642.736
418.569	28.981	806.055	642.470
419.584	29.095	805.928	642.710
420.599	28.954	806.098	642.298
421.613	159.395	1371.407	1793.072
422.628	138.515	1453.735	1793.112
