DTS Sentinel unit serial number:	SN413079Multiplexer serial number:	ORYXHardware model number:	OX4-SRSoftware version number:	ORYX F/W v4.00 Oryx Data Collector v3.7.2.0data status	okinstallation	princeton_trtdifferential loss correction	single-endedforward channel	channel 1reverse channel	N/Adate	2019/09/15time	23:26:35forward acquisition time	60.00reverse acquisition time	0.00gamma	496.2192k internal	0.2331k external	0.2331temperature offset calibration	0.9971default loss term (dB/km)	0.3790temperature slope calibration	1.0000multiplexer offset coefficient	1.0000multiplexer slope coefficient	1.0000fibre end	0.00T internal ref (°C)	28.20T ext. ref 1 (°C)	9.15T ext. ref 2 (°C)	22.11length (m)	temperature (°C)	Stokes	anti-Stokes-747.200	-153.261	-0.371	0.026
-746.185	-86.261	0.185	0.057
-745.171	-116.280	0.011	-0.002
-744.156	182.492	0.079	0.117
-743.142	-200.000	0.036	0.231
-742.127	-50.782	0.229	-0.108
-741.112	-200.000	-0.016	0.125
-740.098	-200.000	-0.002	0.184
-739.083	446.927	0.037	0.082
-738.069	-200.000	-0.003	0.185
-737.054	-140.645	-0.132	0.014
-736.039	346.977	0.041	-0.082
-735.025	-76.761	0.457	0.161
-734.010	293.794	-0.065	-0.119
-732.996	202.491	-0.051	0.078
-731.981	14.780	-0.112	0.088
-730.966	-200.000	-0.003	0.125
-729.952	240.281	0.209	-0.351
-728.937	182.852	-0.155	-0.230
-727.923	80.737	0.413	-0.447
-726.908	-110.490	-0.259	-0.054
-725.894	224.871	-0.072	-0.116
-724.879	-200.000	-0.019	0.113
-723.864	-200.000	-0.186	0.000
-722.850	533.640	0.090	-0.215
-721.835	-18.627	-0.348	0.218
-720.821	-159.886	0.109	-0.006
-719.806	800.000	-0.135	-0.468
-718.791	-200.000	0.004	-0.395
-717.777	-130.575	-0.192	0.026
-716.762	18.574	-0.061	0.049
-715.748	800.000	-0.031	-0.125
-714.733	363.933	0.135	0.273
-713.718	121.847	-0.234	0.294
-712.704	-150.961	0.279	-0.021
-711.689	644.758	-0.136	-0.349
-710.675	645.997	-0.014	0.035
-709.660	-59.451	-0.221	0.095
-708.645	-175.420	0.154	-0.004
-707.631	-26.354	-0.028	0.016
-706.616	800.000	0.089	0.261
-705.602	-13.807	0.178	-0.116
-704.587	-114.461	0.240	0.046
-703.572	105.786	-0.272	-0.323
-702.558	-90.437	-0.311	-0.090
-701.543	158.723	0.195	0.272
-700.529	59.068	-0.189	-0.187
-699.514	-140.791	-0.010	0.001
-698.499	60.941	0.095	0.095
-697.485	119.441	-0.243	-0.303
-696.470	523.576	0.054	-0.128
-695.456	88.255	-0.227	-0.253
-694.441	-76.869	0.387	0.136
-693.426	-200.000	-0.002	0.023
-692.412	76.282	-0.239	-0.254
-691.397	84.456	-0.124	-0.136
-690.383	-200.000	0.004	0.286
-689.368	-99.551	0.318	-0.080
-688.354	-70.298	0.123	-0.047
-687.339	-144.266	0.166	-0.016
-686.324	-5.837	-0.131	-0.090
-685.310	-26.822	-0.107	-0.063
-684.295	-102.115	-0.373	-0.090
-683.281	-61.152	0.197	-0.083
-682.266	-200.000	-0.007	-0.251
-681.251	-83.343	0.095	0.031
-680.237	-130.296	-0.220	-0.030
-679.222	-82.358	-0.123	-0.040
-678.208	-200.000	0.029	-0.329
-677.193	-200.000	0.009	0.168
-676.178	206.755	0.055	-0.086
-675.164	-200.000	0.030	-0.218
-674.149	-200.000	-0.005	0.082
-673.135	-68.917	0.489	-0.189
-672.120	167.866	0.098	-0.139
-671.105	-7.293	0.043	0.029
-670.091	-26.352	0.122	0.072
-669.076	-0.276	-0.089	0.064
-668.062	-200.000	0.004	0.070
-667.047	258.281	0.099	0.171
-666.032	800.000	-0.041	-0.151
-665.018	-200.000	-0.035	-0.359
-664.003	662.892	-0.038	-0.098
-662.989	-82.957	0.118	-0.038
-661.974	243.592	0.017	-0.029
-660.959	66.536	-0.182	-0.186
-659.945	44.423	0.115	0.106
-658.930	196.242	-0.070	0.108
-657.916	558.855	-0.070	-0.168
-656.901	800.000	-0.070	-0.266
-655.886	88.094	-0.129	0.144
-654.872	-176.828	0.057	-0.001
-653.857	-200.000	-0.006	0.277
-652.843	-35.671	-0.286	0.155
-651.828	-24.249	-0.104	0.062
-650.814	-200.000	-0.020	-0.174
-649.799	546.052	0.070	-0.168
-648.784	-19.767	0.133	0.083
-647.770	-134.857	-0.204	-0.025
-646.755	800.000	-0.056	-0.240
-645.741	-200.000	0.068	-0.301
-644.726	-15.104	0.199	-0.127
-643.711	-200.000	0.012	0.235
-642.697	565.552	0.089	-0.217
-641.682	38.744	0.100	0.090
-640.668	-141.900	-0.155	0.015
-639.653	-54.088	-0.181	0.082
-638.638	342.773	-0.056	0.110
-637.624	233.399	0.046	0.076
-636.609	102.376	-0.185	0.216
-635.595	-59.324	0.370	0.159
-634.580	264.701	0.083	0.145
-633.565	183.929	-0.242	0.359
-632.551	-158.061	0.397	0.023
-631.536	-87.037	-0.316	0.096
-630.522	-30.689	-0.218	0.124
-629.507	-141.079	0.322	0.033
-628.492	-129.416	0.119	0.017
-627.478	-200.000	0.029	0.146
-626.463	-115.654	-0.108	-0.020
-625.449	-37.709	0.070	-0.037
-624.434	-113.249	-0.250	-0.049
-623.419	800.000	0.060	0.220
-622.405	511.464	-0.248	0.579
-621.390	-175.819	0.413	-0.011
-620.376	-62.003	-0.167	-0.070
-619.361	132.414	-0.176	0.227
-618.346	-16.207	0.102	-0.065
-617.332	-200.000	0.034	-0.366
-616.317	800.000	0.066	-0.277
-615.303	270.157	0.081	-0.142
-614.288	41.185	0.051	-0.046
-613.273	165.362	-0.093	-0.132
-612.259	66.999	0.125	0.127
-611.244	-75.191	0.172	0.062
-610.230	205.776	-0.160	0.249
-609.215	-61.340	-0.194	-0.082
-608.201	-53.359	0.087	-0.040
-607.186	330.645	0.070	0.134
-606.171	26.422	-0.123	-0.103
-605.157	244.116	0.074	0.124
-604.142	-20.524	-0.332	-0.204
-603.128	44.606	0.136	0.125
-602.113	-59.294	-0.243	0.105
-601.098	-200.000	-0.013	0.226
-600.084	32.665	-0.210	-0.182
-599.069	-127.370	0.082	-0.012
-598.055	-47.400	-0.251	-0.122
-597.040	-31.764	-0.098	-0.055
-596.025	-200.000	-0.025	-0.111
-595.011	-109.740	-0.203	0.043
-593.996	800.000	-0.064	-0.269
-592.982	36.241	0.108	-0.095
-591.967	-70.101	-0.335	0.127
-590.952	-0.065	-0.292	-0.208
-589.938	-74.491	-0.365	0.132
-588.923	800.000	0.083	-0.311
-587.909	34.775	-0.207	-0.181
-586.894	414.347	0.162	-0.346
-585.879	279.463	-0.050	0.089
-584.865	-56.182	-0.071	-0.031
-583.850	126.118	-0.209	-0.264
-582.836	672.809	0.065	-0.170
-581.821	-62.548	0.396	0.164
-580.806	-200.000	0.004	-0.075
-579.792	65.912	0.168	0.171
-578.777	-8.059	-0.018	0.012
-577.763	49.731	-0.128	0.121
-576.748	-102.352	0.126	0.030
-575.733	-200.000	-0.046	-0.251
-574.719	54.564	0.078	-0.075
-573.704	393.105	-0.064	0.134
-572.690	-200.000	-0.006	-0.033
-571.675	1.579	-0.120	0.086
-570.661	-156.858	-0.342	0.021
-569.646	-26.695	0.108	0.063
-568.631	-6.376	0.156	0.106
-567.617	-200.000	-0.026	0.227
-566.602	317.792	-0.110	-0.209
-565.588	331.822	0.072	0.139
-564.573	122.405	-0.059	0.073
-563.558	800.000	-0.076	0.230
-562.544	-54.765	-0.045	-0.020
-561.529	-145.599	-0.053	-0.005
-560.515	109.597	0.092	0.110
-559.500	-200.000	0.029	-0.261
-558.485	-97.083	0.260	-0.068
-557.471	-200.000	-0.079	0.467
-556.456	179.550	-0.091	0.134
-555.442	-20.128	-0.185	-0.114
-554.427	209.475	0.039	-0.061
-553.412	-200.000	0.012	0.288
-552.398	611.982	-0.028	-0.069
-551.383	800.000	-0.070	0.217
-550.369	-1.466	0.295	-0.208
-549.354	-21.788	-0.368	-0.224
-548.339	770.598	0.120	-0.328
-547.325	719.955	-0.038	0.100
-546.310	-200.000	-0.066	-0.304
-545.296	46.404	-0.268	-0.248
-544.281	-153.283	-0.174	-0.012
-543.266	74.322	-0.177	-0.186
-542.252	-20.408	0.190	0.117
-541.237	333.096	-0.060	0.116
-540.223	585.694	-0.094	0.231
-539.208	-63.686	0.138	0.057
-538.193	224.267	0.128	-0.207
-537.179	800.000	-0.059	-0.185
-536.164	74.083	-0.141	-0.148
-535.150	-58.038	-0.092	0.040
-534.135	-147.886	-0.117	-0.010
-533.121	-48.238	0.189	-0.091
-532.106	652.785	-0.081	0.208
-531.091	60.376	0.131	-0.129
-530.077	-91.454	-0.221	-0.063
-529.062	91.923	-0.327	0.367
-528.048	-200.000	-0.016	0.094
-527.033	-21.455	0.382	0.233
-526.018	-61.370	0.187	-0.078
-525.004	-85.436	0.167	0.052
-523.989	120.290	-0.171	-0.212
-522.975	-53.396	0.213	-0.097
-521.960	-31.350	-0.079	0.044
-520.945	-37.408	-0.073	-0.039
-519.931	113.975	-0.119	0.145
-518.916	-200.000	-0.074	-0.379
-517.902	-135.948	0.283	-0.033
-516.887	800.000	0.033	-0.140
-515.872	339.410	0.139	-0.271
-514.858	115.505	-0.126	0.154
-513.843	-116.336	0.156	-0.029
-512.829	500.373	-0.141	-0.324
-511.814	480.307	0.101	0.229
-510.799	-170.444	0.497	-0.017
-509.785	-34.361	0.281	-0.154
-508.770	111.413	-0.113	0.136
-507.756	-76.023	0.171	-0.060
-506.741	130.386	-0.158	0.202
-505.726	-59.152	0.145	0.062
-504.712	800.000	-0.028	0.085
-503.697	-146.003	-0.105	-0.009
-502.683	161.234	0.151	-0.210
-501.668	23.097	-0.116	-0.095
-500.653	-200.000	-0.063	0.448
-499.639	16.013	0.214	0.168
-498.624	-90.883	-0.056	0.016
-497.610	-51.764	-0.217	0.101
-496.595	124.792	0.197	-0.248
-495.581	-44.239	-0.284	-0.142
-494.566	153.972	0.232	0.316
-493.551	238.018	0.237	-0.393
-492.537	90.219	-0.169	-0.189
-491.522	-200.000	-0.003	0.154
-490.508	-58.946	0.178	-0.077
-489.493	-15.011	0.216	-0.138
-488.478	-58.259	-0.220	-0.096
-487.464	239.613	-0.115	-0.191
-486.449	-117.825	-0.383	-0.069
-485.435	-200.000	-0.054	-0.238
-484.420	-31.059	0.321	0.180
-483.405	21.744	-0.294	0.238
-482.391	64.284	-0.173	-0.173
-481.376	-65.427	-0.141	0.056
-480.362	-21.013	0.087	0.053
-479.347	-200.000	-0.037	0.169
-478.332	-158.186	-0.052	0.003
-477.318	5.224	0.063	0.046
-476.303	51.364	-0.015	-0.015
-475.289	190.718	-0.287	-0.429
-474.274	157.822	0.186	-0.257
-473.259	-111.630	0.310	0.063
-472.245	236.512	-0.068	0.112
-471.230	307.434	-0.129	0.239
-470.216	-73.635	-0.097	-0.035
-469.201	68.173	0.307	-0.313
-468.186	579.781	0.050	-0.121
-467.172	46.865	-0.234	0.216
-466.157	417.207	-0.188	0.399
-465.143	-127.208	-0.495	-0.072
-464.128	-56.438	-0.279	0.123
-463.113	175.837	0.098	0.142
-462.099	-75.077	-0.108	0.038
-461.084	-11.278	0.309	-0.203
-460.070	-43.023	0.109	0.055
-459.055	-200.000	0.003	-0.030
-458.040	48.766	-0.096	0.090
-457.026	-200.000	-0.029	0.165
-456.011	-41.869	0.213	0.109
-454.997	153.241	-0.140	0.191
-453.982	-24.480	0.348	0.206
-452.968	-7.450	-0.150	0.101
-451.953	-24.152	0.174	0.103
-450.938	-200.000	0.032	0.231
-449.924	48.455	-0.034	-0.032
-448.909	-12.144	-0.108	-0.071
-447.895	509.463	-0.096	0.222
-446.880	28.893	-0.064	0.054
-445.865	292.225	-0.177	-0.320
-444.851	800.000	-0.064	-0.196
-443.836	-98.219	0.124	-0.032
-442.822	271.209	-0.041	0.071
-441.807	173.295	0.133	-0.190
-440.792	-200.000	0.021	-0.258
-439.778	-85.176	0.099	0.031
-438.763	-200.000	-0.003	0.233
-437.749	-41.680	0.398	0.203
-436.734	242.636	-0.081	0.134
-435.719	-62.834	-0.195	-0.080
-434.705	800.000	0.043	-0.154
-433.690	399.041	0.061	-0.126
-432.676	800.000	-0.027	0.102
-431.661	1.055	-0.202	-0.144
-430.646	800.000	-0.091	0.255
-429.632	-200.000	-0.003	0.376
-428.617	-200.000	-0.091	-0.485
-427.603	-161.252	0.231	0.012
-426.588	-200.000	0.012	-0.141
-425.573	-25.176	0.161	0.095
-424.559	250.484	-0.044	-0.074
-423.544	173.961	-0.248	-0.356
-422.530	-27.598	0.154	-0.089
-421.515	-44.212	0.324	-0.161
-420.500	-114.156	0.246	-0.047
-419.486	43.823	-0.152	-0.139
-418.471	-108.947	-0.068	-0.014
-417.457	224.818	0.129	-0.208
-416.442	-56.262	0.350	-0.154
-415.428	-52.484	-0.290	0.133
-414.413	171.396	-0.044	0.063
-413.398	282.922	-0.172	0.307
-412.384	227.885	0.192	0.311
-411.369	295.008	-0.133	0.243
-410.355	139.559	-0.095	0.124
-409.340	-104.705	-0.229	0.052
-408.325	172.434	0.201	0.288
-407.311	766.031	0.090	0.242
-406.296	204.935	0.053	-0.081
-405.282	-200.000	0.017	-0.207
-404.267	-115.778	-0.095	0.018
-403.252	-44.834	-0.147	0.073
-402.238	-200.000	-0.021	0.368
-401.223	-145.459	0.290	-0.026
-400.209	-200.000	0.024	0.124
-399.194	94.422	-0.098	-0.111
-398.179	-173.690	0.078	-0.002
-397.165	-130.905	0.460	-0.061
-396.150	42.862	-0.141	-0.128
-395.136	24.573	-0.097	-0.080
-394.121	57.848	0.305	-0.296
-393.106	100.556	0.141	0.162
-392.092	-87.778	0.120	0.036
-391.077	-68.795	-0.008	-0.003
-390.063	-103.178	0.191	0.045
-389.048	52.879	-0.234	0.222
-388.033	-78.836	0.242	-0.082
-387.019	177.274	-0.145	0.209
-386.004	-113.206	0.234	0.046
-384.990	408.559	0.236	0.495
-383.975	676.010	0.063	0.162
-382.960	369.954	0.162	-0.326
-381.946	227.343	0.052	-0.084
-380.931	-140.694	-0.248	0.025
-379.917	-46.972	0.080	0.039
-378.902	1.952	-0.201	-0.144
-377.888	680.581	-0.055	-0.141
-376.873	80.322	0.037	0.039
-375.858	297.543	-0.097	-0.176
-374.844	-194.461	0.350	-0.003
-373.829	-147.814	0.035	0.003
-372.815	-179.935	-0.187	-0.004
-371.800	-159.312	-0.279	0.016
-370.785	800.000	-0.127	-0.415
-369.771	-200.000	0.010	-0.055
-368.756	-200.000	0.017	0.445
-367.742	-39.833	0.191	0.099
-366.727	-74.455	0.553	-0.198
-365.712	16.824	-0.079	-0.062
-364.698	-137.060	-0.483	-0.055
-363.683	-120.989	0.090	-0.015
-362.669	-200.000	0.008	-0.355
-361.654	394.485	-0.099	0.204
-360.639	-139.371	0.043	-0.005
-359.625	-45.640	0.192	0.094
-358.610	87.463	-0.166	-0.182
-357.596	542.604	0.052	0.123
-356.581	800.000	-0.011	-0.045
-355.566	-47.760	-0.065	-0.031
-354.552	-45.469	0.303	-0.149
-353.537	-40.928	-0.205	0.105
-352.523	148.824	0.051	0.068
-351.508	-114.960	-0.133	-0.025
-350.493	800.000	0.144	-0.426
-349.479	18.928	-0.261	0.208
-348.464	27.589	0.130	-0.109
-347.450	800.000	0.199	-0.580
-346.435	-9.785	0.332	-0.219
-345.420	-140.276	-0.025	0.003
-344.406	-200.000	-0.023	-0.103
-343.391	62.311	-0.144	-0.142
-342.377	-116.813	-0.219	-0.040
-341.362	-200.000	0.091	0.396
-340.348	-48.947	0.137	0.065
-339.333	-200.000	0.072	0.372
-338.318	309.115	0.190	-0.352
-337.304	800.000	-0.069	0.227
-336.289	-164.952	0.170	-0.008
-335.275	-200.000	0.002	-0.080
-334.260	-71.445	0.158	-0.059
-333.245	411.188	0.146	-0.306
-332.231	141.547	-0.128	-0.168
-331.216	110.234	0.120	-0.143
-330.202	294.627	-0.234	0.423
-329.187	198.113	-0.104	-0.158
-328.172	57.075	-0.089	-0.085
-327.158	1.904	0.225	0.161
-326.143	-111.972	0.087	0.017
-325.129	-8.614	-0.074	-0.049
-324.114	-110.361	-0.099	-0.020
-323.099	800.000	-0.039	-0.129
-322.085	-200.000	-0.038	0.382
-321.070	381.589	0.024	0.048
-320.056	-62.079	0.278	-0.115
-319.041	-82.067	-0.072	0.023
-318.026	148.519	0.099	-0.132
-317.012	-56.406	-0.140	0.062
-315.997	-39.178	-0.171	-0.089
-314.983	-58.572	-0.114	-0.049
-313.968	-11.154	-0.217	0.142
-312.953	-200.000	-0.052	0.261
-311.939	-22.435	-0.081	0.049
-310.924	-200.000	-0.089	0.567
-309.910	-200.000	0.011	0.167
-308.895	347.218	-0.032	-0.062
-307.880	446.351	0.054	0.118
-306.866	800.000	0.112	0.397
-305.851	-93.927	0.254	-0.069
-304.837	147.661	-0.161	-0.214
-303.822	-74.503	-0.241	0.086
-302.807	-159.815	0.121	0.007
-301.793	-65.421	-0.088	-0.035
-300.778	-124.839	0.089	-0.014
-299.764	27.921	0.267	0.223
-298.749	506.057	-0.031	-0.071
-297.735	-120.370	0.061	0.010
-296.720	130.693	-0.003	-0.004
-295.705	181.662	-0.190	-0.276
-294.691	-200.000	0.026	-0.280
-293.676	141.002	0.317	-0.414
-292.662	365.980	-0.047	0.094
-291.647	171.113	0.076	-0.108
-290.632	-109.005	-0.291	-0.061
-289.618	-107.926	-0.143	-0.031
-288.603	-192.599	-0.382	-0.003
-287.589	-185.953	0.155	0.002
-286.574	202.009	-0.153	0.234
-285.559	553.472	-0.113	0.268
-284.545	-44.099	-0.221	-0.110
-283.530	-35.344	0.069	0.037
-282.516	267.862	-0.115	0.199
-281.501	800.000	0.115	0.352
-280.486	78.057	-0.149	0.157
-279.472	78.956	-0.169	0.179
-278.457	-64.022	-0.340	-0.137
-277.443	-88.530	-0.066	0.019
-276.428	192.345	0.081	0.121
-275.413	234.947	-0.031	-0.050
-274.399	-200.000	-0.055	0.359
-273.384	-117.466	-0.102	0.018
-272.370	-113.332	-0.294	0.057
-271.355	220.441	-0.188	0.298
-270.340	-200.000	-0.029	0.536
-269.326	-68.055	0.083	-0.032
-268.311	29.755	-0.221	-0.186
-267.297	-84.624	-0.400	0.125
-266.282	-6.064	-0.282	-0.191
-265.267	-4.147	-0.203	-0.139
-264.253	-59.580	0.332	-0.140
-263.238	-148.700	0.101	-0.008
-262.224	177.235	0.079	0.113
-261.209	800.000	0.137	0.400
-260.195	305.034	0.183	0.336
-259.180	-200.000	0.000	0.145
-258.165	-200.000	-0.038	-0.411
-257.151	-140.008	-0.089	0.009
-256.136	-67.220	-0.227	-0.088
-255.122	343.667	0.038	-0.073
-254.107	144.299	-0.245	0.323
-253.092	40.077	0.142	0.126
-252.078	-200.000	0.019	-0.100
-251.063	800.000	0.151	-0.454
-250.049	710.685	-0.018	-0.047
-249.034	381.237	0.132	0.268
-248.019	-9.011	-0.295	0.195
-247.005	-0.280	0.149	0.105
-245.990	363.465	0.042	-0.083
-244.976	800.000	-0.130	-0.449
-243.961	800.000	0.064	-0.272
-242.946	42.494	0.052	-0.047
-241.932	35.417	0.211	-0.183
-240.917	99.693	-0.162	-0.185
-239.903	-104.582	0.163	0.037
-238.888	800.000	0.088	-0.268
-237.873	-54.978	-0.297	0.132
-236.859	-200.000	0.004	-0.026
-235.844	639.074	-0.180	-0.451
-234.830	-8.250	0.333	-0.221
-233.815	800.000	0.041	0.116
-232.800	-66.404	-0.309	0.121
-231.786	-20.223	-0.071	0.043
-230.771	-2.683	0.233	0.161
-229.757	-151.604	0.027	0.002
-228.742	204.536	0.323	0.494
-227.727	616.738	-0.068	-0.167
-226.713	606.435	0.168	-0.413
-225.698	-129.733	-0.238	0.032
-224.684	-200.000	-0.011	0.129
-223.669	-200.000	-0.023	0.261
-222.655	131.498	0.194	-0.246
-221.640	-54.294	-0.183	0.082
-220.625	-200.000	0.035	0.326
-219.611	251.852	0.187	0.315
-218.596	-47.143	0.239	-0.115
-217.582	-70.981	0.227	0.084
-216.567	398.206	-0.123	0.253
-215.552	55.314	-0.146	0.139
-214.538	36.765	0.053	-0.046
-213.523	-178.918	0.077	-0.002
-212.509	800.000	-0.064	0.195
-211.494	-200.000	0.072	-0.321
-210.479	-200.000	-0.008	0.092
-209.465	-200.000	0.040	0.261
-208.450	66.859	0.004	-0.004
-207.436	42.763	-0.258	0.231
-206.421	89.785	-0.177	-0.195
-205.406	25.904	0.247	-0.203
-204.392	-53.302	-0.252	0.114
-203.377	31.804	-0.080	0.068
-202.363	-121.172	-0.256	0.042
-201.348	-34.028	0.322	-0.174
-200.333	767.560	-0.023	0.061
-199.319	159.160	0.146	-0.200
-198.304	-22.720	0.073	-0.044
-197.290	-200.000	0.099	0.467
-196.275	-100.495	0.264	-0.064
-195.260	-61.345	0.177	-0.073
-194.246	-45.537	-0.289	0.141
-193.231	-178.920	-0.117	-0.003
-192.217	800.000	-0.075	-0.204
-191.202	795.936	0.087	-0.236
-190.187	-200.000	-0.045	0.218
-189.173	159.570	0.177	-0.243
-188.158	-77.268	0.286	0.098
-187.144	525.121	-0.114	-0.265
-186.129	-81.686	0.292	-0.094
-185.114	-200.000	0.011	0.056
-184.100	800.000	0.074	-0.246
-183.085	717.664	-0.083	-0.217
-182.071	231.576	0.218	-0.352
-181.056	-85.530	0.373	-0.114
-180.042	76.125	0.082	-0.086
-179.027	201.647	-0.040	0.060
-178.012	-81.894	0.192	0.062
-176.998	-200.000	0.057	-0.337
-175.983	800.000	-0.139	-0.536
-174.969	445.983	-0.108	-0.234
-173.954	-15.853	-0.123	0.077
-172.939	-91.462	0.361	-0.101
-171.925	90.459	-0.061	0.068
-170.910	800.000	0.046	0.174
-169.896	244.974	-0.056	-0.092
-168.881	-200.000	-0.040	0.277
-167.866	107.923	0.260	-0.305
-166.852	-200.000	-0.011	-0.052
-165.837	-10.090	0.281	0.183
-164.823	162.079	-0.021	0.029
-163.808	530.163	0.100	-0.233
-162.793	-97.847	-0.137	0.035
-161.779	-46.976	-0.072	-0.035
-160.764	800.000	0.025	-0.073
-159.750	-80.479	0.305	0.100
-158.735	236.673	0.025	0.041
-157.720	583.089	-0.205	0.495
-156.706	-200.000	0.020	0.242
-155.691	800.000	0.087	-0.249
-154.677	-127.498	0.173	0.025
-153.662	-85.725	-0.260	-0.079
-152.647	800.000	-0.007	-0.024
-151.633	-161.611	0.245	0.012
-150.618	430.126	-0.027	-0.057
-149.604	-48.467	-0.213	-0.101
-148.589	254.048	-0.096	-0.161
-147.574	11.751	0.262	0.198
-146.560	800.000	-0.042	0.176
-145.545	200.836	0.180	0.273
-144.531	-54.859	-0.259	-0.115
-143.516	-116.212	-0.256	0.047
-142.502	-102.140	0.195	0.046
-141.487	320.393	-0.057	-0.106
-140.472	-123.882	0.018	-0.003
-139.458	-53.621	-0.189	0.085
-138.443	142.922	0.214	0.280
-137.429	99.679	-0.110	0.125
-136.414	-200.000	-0.045	0.325
-135.399	119.388	-0.177	-0.215
-134.385	317.623	0.139	0.259
-133.370	-9.014	0.258	0.170
-132.356	-93.097	0.229	-0.063
-131.341	-200.000	-0.033	0.158
-130.326	-127.165	-0.019	0.003
-129.312	800.000	-0.104	-0.371
-128.297	532.061	0.052	-0.122
-127.283	408.779	-0.073	-0.152
-126.268	-200.000	0.021	-0.119
-125.253	143.161	0.105	-0.137
-124.239	250.903	-0.085	-0.143
-123.224	-139.783	0.354	0.037
-122.210	61.242	-0.195	0.190
-121.195	-200.000	-0.034	-0.351
-120.180	-47.513	-0.157	0.075
-119.166	-109.658	0.331	-0.068
-118.151	-36.444	-0.102	0.054
-117.137	-15.105	0.296	0.186
-116.122	578.974	0.083	0.199
-115.107	-32.539	0.057	0.031
-114.093	-117.071	0.204	-0.036
-113.078	128.502	-0.232	-0.290
-112.064	-200.000	-0.008	-0.062
-111.049	9.276	0.115	-0.085
-110.034	122.726	0.054	-0.066
-109.020	69.008	-0.085	0.086
-108.005	539.538	-0.142	0.333
-106.991	-74.207	-0.196	-0.069
-105.976	-66.568	-0.110	0.043
-104.962	207.193	0.170	0.260
-103.947	-200.000	-0.065	-0.402
-102.932	77.749	-0.108	0.112
-101.918	34.527	-0.274	-0.235
-100.903	29.028	0.063	-0.052
-99.889	32.107	-0.143	-0.121
-98.874	-200.000	0.031	-0.196
-97.859	215.411	0.076	0.118
-96.845	303.002	0.062	-0.113
-95.830	-42.621	0.372	0.186
-94.816	280.234	0.127	-0.222
-93.801	800.000	-0.018	0.054
-92.786	-72.814	-0.204	0.074
-91.772	62.773	0.174	-0.170
-90.757	-17.578	0.375	-0.231
-89.743	222.312	0.054	0.085
-88.728	-103.000	0.204	0.047
-87.713	24.561	-0.208	0.169
-86.699	247.645	-0.176	-0.292
-85.684	-0.514	0.343	-0.239
-84.670	-51.988	-0.196	0.089
-83.655	-66.540	0.241	-0.094
-82.640	371.747	0.116	-0.230
-81.626	436.851	0.128	-0.274
-80.611	-105.365	-0.235	-0.052
-79.597	-18.244	-0.226	-0.139
-78.582	-200.000	-0.024	-0.337
-77.567	478.721	-0.081	0.181
-76.553	17.032	0.155	0.121
-75.538	-200.000	0.050	-0.417
-74.524	-200.000	-0.030	-0.270
-73.509	55.368	0.141	0.134
-72.494	-45.278	0.250	0.122
-71.480	-200.000	0.084	0.583
-70.465	-200.000	-0.007	0.073
-69.451	-71.361	-0.146	0.054
-68.436	-200.000	0.013	0.352
-67.422	-200.000	0.050	0.302
-66.407	23.987	0.007	0.006
-65.392	437.587	0.238	0.509
-64.378	-141.489	0.252	0.025
-63.363	-200.000	0.026	-0.240
-62.349	-111.324	-0.371	0.074
-61.334	77.982	-0.867	-0.906
-60.319	240.131	0.486	0.793
-59.305	-200.000	0.068	-0.925
-58.290	112.205	0.951	1.126
-57.276	323.032	0.705	1.317
-56.261	-200.000	110.694	646.122
-55.246	491.858	1484.368	3330.222
-54.232	151.362	2643.103	3524.340
-53.217	106.776	2136.203	2483.207
-52.203	39.446	1594.918	1399.318
-51.188	31.535	1344.047	1131.556
-50.173	28.552	1306.369	1082.218
-49.159	56.319	1361.418	1295.461
-48.144	55.806	1376.188	1306.390
-47.130	31.720	1333.118	1123.286
-46.115	28.319	1315.171	1087.956
-45.100	28.157	1310.218	1082.856
-44.086	28.012	1307.977	1080.106
-43.071	28.102	1305.362	1078.431
-42.057	28.015	1303.742	1076.542
-41.042	28.009	1302.367	1075.327
-40.027	28.104	1300.249	1074.091
-39.013	28.034	1299.034	1072.636
-37.998	28.229	1296.506	1071.647
-36.984	28.165	1294.753	1069.782
-35.969	28.217	1293.255	1068.807
-34.954	28.137	1291.374	1066.744
-33.940	28.207	1290.034	1066.000
-32.925	28.237	1288.931	1065.221
-31.911	28.277	1287.367	1064.118
-30.896	28.359	1285.882	1063.324
-29.881	28.266	1284.538	1061.635
-28.867	28.309	1283.593	1061.057
-27.852	28.317	1281.864	1059.633
-26.838	28.360	1280.596	1058.795
-25.823	28.247	1279.561	1057.240
-24.809	28.362	1278.077	1056.639
-23.794	28.178	1277.095	1054.724
-22.779	28.244	1275.045	1053.367
-21.765	28.241	1274.207	1052.616
-20.750	28.201	1272.740	1051.132
-19.736	28.258	1271.302	1050.233
-18.721	28.258	1270.010	1049.123
-17.706	28.217	1268.862	1047.894
-16.692	28.196	1267.962	1046.994
-15.677	28.197	1267.042	1046.198
-14.663	28.193	1265.512	1044.870
-13.648	28.183	1264.953	1044.310
-12.633	28.207	1263.652	1043.327
-11.619	28.131	1262.756	1042.117
-10.604	28.139	1261.798	1041.328
-9.590	27.975	1261.287	1039.934
-8.575	28.116	1260.016	1039.644
-7.560	28.092	1259.536	1039.074
-6.546	28.122	1258.658	1038.478
-5.531	28.256	1257.187	1037.980
-4.517	28.155	1256.857	1037.097
-3.502	28.233	1256.001	1036.792
-2.487	28.105	1254.985	1035.184
-1.473	28.112	1250.872	1031.793
-0.458	26.546	1235.424	1010.275
0.556	21.321	1219.037	972.252
1.571	17.628	1224.903	956.159
2.586	16.736	1239.703	962.557
3.600	16.660	1228.390	953.258
4.615	14.883	1161.162	891.541
5.629	11.130	1094.481	821.374
6.644	9.302	1076.906	799.037
7.659	9.131	1074.905	796.631
8.673	9.010	1073.843	795.173
9.688	9.168	1071.837	794.398
10.702	9.232	1070.255	793.474
11.717	11.474	1072.705	806.302
12.731	15.358	1077.395	828.988
13.746	17.488	1079.966	841.433
14.761	17.429	1079.602	840.783
15.775	16.384	1077.806	834.152
16.790	15.359	1075.346	827.124
17.804	14.656	1073.701	822.324
18.819	14.219	1072.882	819.471
19.834	13.982	1071.686	817.319
20.848	13.769	1071.003	815.678
21.863	13.528	1070.006	813.662
22.877	13.341	1069.077	811.968
23.892	13.314	1068.606	811.404
24.907	13.420	1067.735	811.194
25.921	13.411	1066.509	810.145
26.936	13.467	1065.539	809.608
27.950	13.522	1064.161	808.761
28.965	13.501	1062.509	807.329
29.980	13.679	1061.127	807.074
30.994	13.687	1059.734	805.986
32.009	13.716	1058.870	805.398
33.023	13.527	1058.109	803.830
34.038	13.512	1056.775	802.671
35.053	13.528	1055.934	802.040
36.067	13.553	1054.879	801.289
37.082	13.463	1054.489	800.486
38.096	13.631	1053.535	800.502
39.111	13.592	1052.741	799.640
40.126	13.488	1051.457	798.091
41.140	13.397	1050.006	796.481
42.155	13.308	1049.325	795.470
43.169	13.357	1048.078	794.687
44.184	13.301	1047.301	793.757
45.199	13.350	1045.985	792.926
46.213	13.407	1044.972	792.360
47.228	13.425	1044.170	791.770
48.242	13.434	1042.826	790.722
49.257	13.532	1041.925	790.439
50.271	13.451	1041.181	789.416
51.286	13.663	1040.244	789.648
52.301	13.575	1038.954	788.179
53.315	13.462	1038.122	786.939
54.330	13.440	1036.903	785.844
55.344	13.409	1036.086	785.009
56.359	13.458	1035.307	784.581
57.374	13.395	1034.745	783.785
58.388	13.388	1033.594	782.810
59.403	13.228	1032.588	781.226
60.417	13.255	1032.195	780.984
61.432	13.277	1031.009	780.125
62.447	13.250	1030.122	779.256
63.461	13.207	1029.664	778.637
64.476	13.231	1028.172	777.552
65.490	13.136	1027.654	776.645
66.505	13.291	1027.023	776.827
67.520	13.171	1026.191	775.567
68.534	13.175	1025.914	775.307
69.549	13.221	1024.851	774.651
70.563	13.327	1023.560	774.105
71.578	13.269	1022.837	773.216
72.593	13.136	1022.059	771.937
73.607	13.146	1021.817	771.734
74.622	13.248	1020.872	771.427
75.636	13.153	1020.469	770.615
76.651	13.132	1019.142	769.446
77.666	13.229	1018.748	769.532
78.680	13.197	1018.541	769.156
79.695	13.197	1017.500	768.304
80.709	13.222	1016.919	767.914
81.724	13.317	1016.603	768.046
82.739	13.361	1015.497	767.347
83.753	13.623	1014.649	767.852
84.768	13.547	1013.728	766.735
85.782	13.519	1012.641	765.715
86.797	13.583	1011.478	765.066
87.812	13.417	1011.547	764.283
88.826	13.440	1010.276	763.364
89.841	13.528	1008.856	762.625
90.855	13.531	1008.382	762.216
91.870	13.650	1007.280	761.861
92.884	13.575	1006.728	761.031
93.899	13.728	1005.405	760.664
94.914	13.838	1004.283	760.251
95.928	13.666	1003.939	759.138
96.943	13.679	1002.898	758.343
97.957	13.611	1002.357	757.554
98.972	13.610	1001.638	756.941
99.987	13.650	1000.455	756.162
101.001	13.519	999.883	755.067
102.016	13.663	998.495	754.609
103.030	13.544	998.108	753.708
104.045	13.721	997.118	753.698
105.060	13.563	996.359	752.339
106.074	13.437	995.431	751.000
107.089	13.437	994.274	750.062
108.103	13.360	993.292	748.906
109.118	13.316	992.971	748.396
110.133	13.314	991.748	747.400
111.147	13.308	991.033	746.769
112.162	13.367	990.415	746.503
113.176	13.508	989.476	746.365
114.191	13.578	988.737	746.055
115.206	13.437	987.740	744.605
116.220	13.499	986.517	743.893
117.235	13.488	985.906	743.320
118.249	13.443	985.380	742.655
119.264	13.449	984.305	741.806
120.279	13.312	983.908	740.825
121.293	13.357	982.900	740.203
122.308	13.403	981.453	739.255
123.322	13.316	980.948	738.420
124.337	13.314	980.138	737.735
125.352	13.305	978.697	736.546
126.366	13.387	977.832	736.196
127.381	13.391	976.811	735.377
128.395	13.371	975.700	734.389
129.410	13.587	974.786	734.595
130.424	13.433	973.977	733.234
131.439	13.490	973.484	733.050
132.454	13.484	972.599	732.296
133.468	13.474	971.874	731.639
134.483	13.575	970.864	731.263
135.497	13.562	969.767	730.310
136.512	13.457	969.666	729.708
137.527	13.475	968.329	728.716
138.541	13.573	967.776	728.667
139.556	13.603	966.939	728.105
140.570	13.584	966.574	727.682
141.585	13.571	965.757	726.947
142.600	13.684	964.468	726.405
143.614	13.765	963.658	726.088
144.629	13.807	963.224	725.879
145.643	13.789	962.181	724.952
146.658	13.663	961.211	723.604
147.673	13.723	960.093	722.963
148.687	13.703	959.190	722.130
149.702	13.578	958.757	721.194
150.716	13.501	957.998	720.227
151.731	13.483	957.188	719.475
152.746	13.610	956.604	719.523
153.760	13.496	956.084	718.575
154.775	13.794	955.320	719.231
155.789	13.727	954.799	718.481
156.804	13.838	953.776	718.129
157.819	13.818	952.907	717.328
158.833	13.729	952.714	716.733
159.848	13.956	951.292	716.578
160.862	13.871	950.836	715.806
161.877	13.675	950.238	714.446
162.892	13.824	948.734	713.895
163.906	13.658	948.061	712.613
164.921	13.740	947.238	712.284
165.935	13.788	945.995	711.488
166.950	13.773	945.344	710.873
167.964	13.858	944.589	710.608
168.979	13.751	943.366	709.164
169.994	13.743	943.065	708.841
171.008	13.657	942.330	707.859
172.023	13.849	941.572	708.045
173.037	13.968	940.752	707.873
174.052	13.843	940.382	707.001
175.067	13.765	939.714	706.105
176.081	13.654	939.101	705.111
177.096	13.815	938.129	705.001
178.110	13.891	937.604	704.869
179.125	13.848	937.213	704.330
180.140	13.874	936.446	703.798
181.154	13.876	936.101	703.484
182.169	13.926	935.662	703.306
183.183	13.949	934.929	702.792
184.198	14.029	933.781	702.203
185.213	13.935	933.380	701.444
186.227	13.981	932.694	701.061
187.242	14.046	932.103	700.829
188.256	14.152	931.155	700.501
189.271	14.151	930.602	700.018
190.286	13.955	929.482	698.288
191.300	13.840	928.919	697.318
192.315	13.736	928.379	696.419
193.329	13.818	928.268	696.614
194.344	13.907	927.560	696.394
195.359	14.029	926.715	696.212
196.373	14.034	926.036	695.661
197.388	14.166	925.836	696.001
198.402	14.230	925.310	695.811
199.417	14.395	923.926	695.399
200.432	14.425	923.819	695.382
201.446	14.455	923.124	694.923
202.461	14.453	922.942	694.714
203.475	14.390	922.829	694.307
204.490	14.344	921.689	693.195
205.504	14.258	920.815	692.121
206.519	14.217	920.326	691.520
207.534	14.384	919.179	691.289
208.548	14.350	918.757	690.770
209.563	14.235	918.732	690.215
210.577	14.439	917.034	689.721
211.592	14.415	916.853	689.424
212.607	14.345	916.286	688.649
213.621	14.368	915.624	688.183
214.636	14.430	914.812	687.769
215.650	14.546	913.976	687.558
216.665	14.520	913.238	686.836
217.680	14.663	912.329	686.680
218.694	14.489	912.051	685.692
219.709	14.578	910.871	685.110
220.723	14.619	910.500	684.938
221.738	14.583	909.977	684.339
222.753	14.494	909.528	683.574
223.767	14.647	908.552	683.405
224.782	14.627	908.519	683.238
225.796	14.702	907.271	682.547
226.811	14.591	907.142	681.938
227.826	14.699	906.305	681.688
228.840	14.572	905.579	680.564
229.855	14.648	904.531	680.026
230.869	14.690	903.635	679.462
231.884	14.624	903.243	678.838
232.899	14.554	902.653	678.050
233.913	14.460	901.850	677.006
234.928	14.552	901.182	676.818
235.942	14.623	900.410	676.467
236.957	14.595	899.801	675.836
237.972	14.706	899.154	675.739
238.986	14.571	898.937	674.970
240.001	14.673	898.025	674.637
241.015	14.779	897.560	674.658
242.030	14.694	896.797	673.680
243.045	14.782	895.967	673.351
244.059	14.716	895.819	672.913
245.074	14.733	895.175	672.443
246.088	14.650	894.503	671.543
247.103	14.852	893.729	671.713
248.117	14.715	893.923	671.249
249.132	14.925	892.949	671.300
250.147	15.088	892.340	671.440
251.161	15.127	891.478	670.885
252.176	15.131	890.794	670.328
253.190	15.092	890.194	669.663
254.205	15.225	889.497	669.610
255.220	15.165	889.070	668.988
256.234	15.124	888.269	668.164
257.249	15.231	887.486	667.940
258.263	15.171	886.962	667.250
259.278	15.348	886.082	667.232
260.293	15.266	885.903	666.712
261.307	15.181	885.208	665.793
262.322	15.357	884.475	665.880
263.336	15.253	883.846	664.935
264.351	15.340	882.913	664.519
265.366	15.381	882.455	664.278
266.380	15.212	882.116	663.298
267.395	15.381	881.169	663.195
268.409	15.377	880.593	662.685
269.424	15.479	879.439	662.159
270.439	15.369	878.757	661.156
271.453	15.405	878.305	660.896
272.468	15.395	877.538	660.225
273.482	15.389	876.784	659.576
274.497	15.360	876.552	659.229
275.512	15.436	875.938	659.004
276.526	15.426	875.624	658.673
277.541	15.420	874.923	658.061
278.555	15.477	874.548	657.946
279.570	15.555	873.812	657.641
280.585	15.458	873.023	656.610
281.599	15.562	871.994	656.183
282.614	15.440	871.691	655.419
283.628	15.487	871.106	655.104
284.643	15.547	870.763	655.022
285.657	15.482	869.964	654.110
286.672	15.556	869.282	653.827
287.687	15.497	868.728	653.124
288.701	15.678	868.095	653.295
289.716	15.766	867.460	653.102
290.730	15.698	866.747	652.243
291.745	15.772	866.008	651.914
292.760	15.686	865.759	651.339
293.774	15.699	865.185	650.898
294.789	15.784	864.419	650.594
295.803	15.601	863.807	649.366
296.818	15.766	862.991	649.333
297.833	15.726	862.642	648.859
298.847	15.686	861.965	648.137
299.862	15.875	861.209	648.241
300.876	15.871	860.913	647.946
301.891	15.813	860.520	647.368
302.906	15.936	859.300	646.867
303.920	15.900	859.341	646.701
304.935	15.891	858.468	645.954
305.949	15.927	857.863	645.577
306.964	15.950	856.868	644.859
307.979	15.859	857.042	644.586
308.993	15.893	856.414	644.187
310.008	15.951	855.692	643.809
311.022	16.048	854.724	643.391
312.037	16.129	854.419	643.416
313.052	15.927	854.162	642.392
314.066	15.883	853.209	641.453
315.081	15.955	852.355	641.028
316.095	16.014	851.649	640.666
317.110	15.858	851.566	639.952
318.125	15.928	851.052	639.777
319.139	15.981	850.388	639.421
320.154	16.026	849.719	639.031
321.168	16.020	849.206	638.567
322.183	16.107	848.683	638.446
323.197	16.030	848.617	638.050
324.212	15.987	847.992	637.359
325.227	16.177	847.127	637.370
326.241	16.000	846.819	636.414
327.256	15.994	846.113	635.805
328.270	16.021	845.566	635.440
329.285	16.130	844.833	635.241
330.300	16.043	844.387	634.526
331.314	16.027	844.369	634.393
332.329	16.124	843.336	633.926
333.343	16.135	843.065	633.707
334.358	16.131	842.843	633.471
335.373	16.242	842.286	633.414
336.387	16.184	842.308	633.156
337.402	16.237	841.941	633.020
338.416	16.230	841.719	632.774
339.431	16.417	840.841	632.756
340.446	16.552	840.248	632.761
341.460	16.372	840.312	632.078
342.475	16.571	839.561	632.204
343.489	16.465	839.262	631.526
344.504	16.486	838.740	631.153
345.519	16.551	838.293	631.006
346.533	16.578	837.687	630.593
347.548	16.489	837.443	630.021
348.562	16.486	836.383	629.157
349.577	16.492	835.669	628.586
350.592	16.402	835.615	628.155
351.606	16.486	834.662	627.698
352.621	16.411	833.987	626.855
353.635	16.407	833.622	626.510
354.650	16.477	833.136	626.351
355.665	16.521	832.461	625.948
356.679	16.579	831.693	625.529
357.694	16.600	830.705	624.810
358.708	16.580	830.198	624.301
359.723	16.441	830.209	623.738
360.738	16.620	829.310	623.667
361.752	16.690	828.382	623.172
362.767	16.746	828.030	623.058
363.781	16.576	828.095	622.428
364.796	16.837	827.295	622.730
365.810	16.830	826.820	622.291
366.825	16.915	826.521	622.322
367.840	16.861	826.067	621.728
368.854	16.896	825.354	621.267
369.869	16.889	824.862	620.815
370.883	16.932	824.523	620.663
371.898	16.908	824.198	620.274
372.913	16.901	824.143	620.155
373.927	16.962	823.639	619.940
374.942	16.831	823.143	619.036
375.956	17.126	822.474	619.552
376.971	17.099	821.695	618.812
377.986	17.121	821.425	618.635
379.000	17.044	821.073	618.036
380.015	17.084	820.809	617.927
381.029	17.147	819.896	617.415
382.044	17.076	819.491	616.798
383.059	17.143	818.943	616.572
384.073	17.294	817.778	616.190
385.088	17.148	817.338	615.274
386.102	16.995	817.257	614.605
387.117	17.185	816.492	614.663
388.132	17.185	815.486	613.851
389.146	16.979	815.524	613.081
390.161	17.235	814.892	613.473
391.175	17.225	814.540	613.119
392.190	17.144	814.153	612.483
393.205	17.129	813.506	611.889
394.219	17.003	813.405	611.304
395.234	17.136	812.890	611.342
396.248	17.049	812.254	610.496
397.263	17.129	811.839	610.418
398.278	17.147	811.621	610.265
399.292	17.034	811.015	609.347
400.307	17.144	810.578	609.361
401.321	17.116	810.069	608.825
402.336	17.179	809.478	608.553
403.350	17.344	808.917	608.668
404.365	17.330	808.890	608.543
405.380	17.360	808.014	607.937
406.394	17.428	807.441	607.696
407.409	17.448	807.207	607.534
408.423	17.440	807.034	607.324
409.438	17.522	806.564	607.207
410.453	17.489	806.179	606.747
411.467	17.418	805.925	606.248
412.482	17.688	805.196	606.608
413.496	17.771	804.841	606.584
414.511	17.679	804.425	605.887
415.526	17.708	804.116	605.706
416.540	17.675	803.650	605.183
417.555	17.666	802.943	604.567
418.569	17.608	802.823	604.215
419.584	17.651	802.459	604.040
420.599	17.801	801.650	603.909
421.613	111.127	1295.396	1476.514
422.628	95.734	1367.317	1476.602
