DTS Sentinel unit serial number:	SN413079Multiplexer serial number:	ORYXHardware model number:	OX4-SRSoftware version number:	ORYX F/W v4.00 Oryx Data Collector v3.7.2.0data status	okinstallation	princeton_trtdifferential loss correction	single-endedforward channel	channel 1reverse channel	N/Adate	2019/09/19time	05:42:35forward acquisition time	60.00reverse acquisition time	0.00gamma	496.2192k internal	0.2343k external	0.2343temperature offset calibration	1.0022default loss term (dB/km)	0.3790temperature slope calibration	1.0000multiplexer offset coefficient	1.0000multiplexer slope coefficient	1.0000fibre end	0.00T internal ref (°C)	19.30T ext. ref 1 (°C)	0.58T ext. ref 2 (°C)	12.78length (m)	temperature (°C)	Stokes	anti-Stokes-747.200	666.297	0.028	0.074
-746.185	-44.023	-0.233	0.117
-745.171	-84.341	-0.172	0.054
-744.156	-137.238	0.136	-0.015
-743.142	800.000	-0.117	0.490
-742.127	24.624	0.077	0.064
-741.112	800.000	0.082	-0.245
-740.098	52.648	0.145	0.138
-739.083	94.050	-0.105	0.119
-738.069	172.481	-0.125	-0.180
-737.054	-51.842	0.219	0.102
-736.039	-13.280	-0.240	-0.156
-735.025	-57.820	0.372	-0.163
-734.010	36.355	-0.051	0.045
-732.996	26.053	-0.195	0.163
-731.981	-97.214	0.388	0.101
-730.966	12.351	-0.231	0.178
-729.952	386.526	0.146	0.301
-728.937	800.000	0.040	-0.133
-727.923	5.551	0.233	-0.172
-726.908	-76.990	0.172	-0.060
-725.894	-116.206	-0.182	-0.034
-724.879	-15.457	-0.300	-0.192
-723.864	300.196	0.134	-0.247
-722.850	-132.991	-0.156	-0.020
-721.835	-22.619	-0.269	-0.162
-720.821	800.000	-0.070	-0.198
-719.806	231.983	-0.045	0.074
-718.791	87.688	0.134	-0.149
-717.777	-166.016	0.088	-0.004
-716.762	-200.000	0.001	0.134
-715.748	800.000	0.068	0.219
-714.733	-22.620	0.154	-0.093
-713.718	-83.113	0.078	-0.025
-712.704	500.917	0.012	-0.027
-711.689	390.964	0.077	0.160
-710.675	-60.014	-0.351	-0.150
-709.660	226.604	0.097	0.157
-708.645	-75.837	-0.216	0.077
-707.631	40.487	-0.101	0.091
-706.616	83.180	-0.024	0.027
-705.602	-129.184	0.421	0.059
-704.587	70.557	-0.256	-0.265
-703.572	-169.180	0.127	0.005
-702.558	742.646	-0.068	-0.183
-701.543	342.319	0.213	0.417
-700.529	-30.363	-0.159	0.090
-699.514	-200.000	-0.037	0.429
-698.499	-171.911	-0.258	0.008
-697.485	-59.018	-0.403	-0.174
-696.470	107.857	-0.219	-0.261
-695.456	433.289	-0.088	-0.191
-694.441	-181.787	0.244	0.005
-693.426	61.819	-0.165	-0.164
-692.412	-23.065	-0.318	-0.192
-691.397	-200.000	0.014	-0.083
-690.383	-200.000	-0.036	-0.221
-689.368	-74.630	-0.080	-0.029
-688.354	141.494	0.025	-0.033
-687.339	-8.223	0.054	0.036
-686.324	-81.510	-0.131	-0.043
-685.310	-137.561	0.048	0.005
-684.295	206.662	-0.216	-0.337
-683.281	-200.000	-0.020	0.297
-682.266	18.628	-0.332	0.265
-681.251	177.186	0.211	0.307
-680.237	3.628	-0.278	-0.203
-679.222	108.295	0.161	-0.192
-678.208	800.000	-0.089	-0.284
-677.193	435.579	0.010	0.021
-676.178	-42.485	-0.272	-0.139
-675.164	87.198	-0.010	0.011
-674.149	76.192	-0.202	-0.213
-673.135	286.058	0.125	0.226
-672.120	-31.047	-0.122	0.069
-671.105	98.479	-0.211	-0.243
-670.091	182.926	-0.137	0.203
-669.076	216.449	-0.065	0.103
-668.062	327.423	0.106	-0.203
-667.047	-200.000	0.022	-0.132
-666.032	138.921	-0.095	0.125
-665.018	66.147	-0.190	-0.192
-664.003	800.000	0.045	-0.169
-662.989	800.000	-0.051	-0.161
-661.974	-7.449	-0.164	0.111
-660.959	-49.795	0.309	0.147
-659.945	-56.019	0.043	0.019
-658.930	-200.000	-0.047	-0.246
-657.916	-154.042	0.294	-0.020
-656.901	342.323	-0.149	-0.291
-655.886	-49.709	0.084	-0.040
-654.872	753.393	-0.065	0.176
-653.857	-200.000	0.025	-0.304
-652.843	-83.016	-0.090	-0.029
-651.828	-200.000	0.032	-0.187
-650.814	113.488	-0.241	-0.292
-649.799	-95.904	0.082	-0.022
-648.784	-200.000	-0.008	-0.204
-647.770	75.491	-0.159	-0.167
-646.755	-200.000	-0.024	-0.120
-645.741	-121.627	-0.092	-0.015
-644.726	162.988	0.164	0.230
-643.711	-9.584	0.097	-0.065
-642.697	19.247	-0.078	0.063
-641.682	-95.118	0.311	0.084
-640.668	-16.003	-0.216	0.137
-639.653	-86.465	0.486	-0.149
-638.638	-200.000	-0.010	0.336
-637.624	-200.000	-0.051	-0.264
-636.609	-200.000	-0.012	-0.136
-635.595	-173.778	0.123	0.004
-634.580	-16.217	0.293	-0.185
-633.565	-127.879	-0.502	0.072
-632.551	800.000	0.090	-0.261
-631.536	-200.000	-0.003	-0.213
-630.522	-103.120	0.071	-0.017
-629.507	800.000	-0.064	0.194
-628.492	-200.000	-0.018	0.097
-627.478	-5.650	0.170	0.116
-626.463	-134.458	-0.402	0.049
-625.449	-29.621	0.200	0.114
-624.434	-81.585	-0.132	0.043
-623.419	-153.413	-0.201	0.014
-622.405	-153.763	0.266	-0.018
-621.390	450.108	0.095	0.209
-620.376	-200.000	-0.105	0.475
-619.361	-146.341	0.130	-0.011
-618.346	69.085	0.137	-0.140
-617.332	42.914	-0.038	0.035
-616.317	-200.000	0.002	-0.023
-615.303	-174.827	-0.273	0.008
-614.288	135.880	0.166	-0.216
-613.273	540.012	-0.056	0.132
-612.259	34.092	-0.060	0.052
-611.244	800.000	-0.028	0.093
-610.230	-99.546	0.508	0.127
-609.215	83.730	-0.195	0.212
-608.201	222.470	-0.078	0.126
-607.186	-45.091	0.313	-0.155
-606.171	277.296	-0.193	-0.343
-605.157	6.670	-0.120	-0.089
-604.142	-149.979	0.112	0.009
-603.128	443.887	0.123	0.268
-602.113	538.656	-0.042	-0.100
-601.098	-51.439	0.269	0.125
-600.084	501.703	-0.061	-0.139
-599.069	-12.889	-0.236	0.153
-598.055	568.954	0.019	0.047
-597.040	-99.040	-0.246	0.062
-596.025	195.320	0.171	-0.258
-595.011	-40.705	0.221	-0.114
-593.996	625.546	0.157	-0.393
-592.982	-186.252	0.046	-0.001
-591.967	-10.953	-0.059	0.039
-590.952	323.439	-0.021	0.040
-589.938	3.860	0.304	-0.221
-588.923	-30.026	-0.212	-0.120
-587.909	312.577	-0.026	-0.049
-586.894	-40.415	-0.175	0.090
-585.879	202.512	0.153	-0.234
-584.865	468.434	0.028	0.064
-583.850	-200.000	0.005	0.084
-582.836	-31.668	-0.555	-0.310
-581.821	-200.000	0.012	0.311
-580.806	-32.802	-0.087	0.048
-579.792	42.828	-0.238	-0.216
-578.777	-4.336	0.203	0.140
-577.763	-51.832	-0.345	-0.160
-576.748	-132.731	0.116	-0.015
-575.733	-60.215	0.149	0.063
-574.719	13.747	-0.302	0.234
-573.704	48.535	0.178	-0.166
-572.690	-200.000	0.058	-0.334
-571.675	32.303	0.261	-0.224
-570.661	93.984	-0.127	-0.143
-569.646	12.778	0.130	-0.100
-568.631	800.000	-0.073	-0.212
-567.617	-33.943	-0.272	-0.149
-566.602	-200.000	-0.032	-0.218
-565.588	-57.190	0.099	0.043
-564.573	800.000	-0.042	0.159
-563.558	210.374	0.157	-0.245
-562.544	-166.529	0.077	0.003
-561.529	-1.775	-0.026	0.018
-560.515	91.967	0.289	0.324
-559.500	-15.391	0.323	0.205
-558.485	-121.011	-0.220	0.037
-557.471	-92.833	-0.108	-0.030
-556.456	152.222	0.110	0.150
-555.442	-32.340	0.170	0.094
-554.427	307.689	-0.033	-0.061
-553.412	-200.000	-0.028	0.134
-552.398	-109.719	-0.238	0.050
-551.383	800.000	0.069	-0.263
-550.369	-178.271	0.105	-0.002
-549.354	-87.789	0.194	0.058
-548.339	800.000	-0.125	0.449
-547.325	119.887	-0.123	0.152
-546.310	800.000	-0.121	-0.430
-545.296	230.422	0.063	-0.102
-544.281	-51.156	0.163	0.076
-543.266	-137.195	0.135	0.015
-542.252	-110.524	-0.064	0.013
-541.237	123.128	-0.220	0.273
-540.223	405.988	0.040	0.083
-539.208	-200.000	0.007	0.062
-538.193	-60.239	-0.274	-0.116
-537.179	463.328	0.072	0.160
-536.164	-129.748	-0.223	-0.031
-535.150	-77.155	0.171	0.059
-534.135	-200.000	0.001	0.533
-533.121	-186.851	-0.168	0.002
-532.106	249.130	-0.080	-0.134
-531.091	-200.000	-0.006	-0.231
-530.077	-152.370	-0.246	0.018
-529.062	-105.187	-0.373	-0.085
-528.048	-47.675	-0.182	-0.088
-527.033	38.239	0.313	0.276
-526.018	455.049	-0.087	-0.191
-525.004	780.859	0.111	-0.302
-523.989	-200.000	-0.007	-0.262
-522.975	265.349	0.049	-0.084
-521.960	33.076	0.118	0.102
-520.945	800.000	0.047	-0.184
-519.931	-200.000	0.016	0.087
-518.916	-165.889	-0.128	0.005
-517.902	-129.741	0.397	-0.054
-516.887	-200.000	0.024	0.000
-515.872	-47.419	-0.089	0.043
-514.858	-200.000	-0.009	0.303
-513.843	-200.000	-0.033	0.157
-512.829	-200.000	0.004	0.076
-511.814	189.288	-0.100	-0.149
-510.799	409.867	0.078	-0.165
-509.785	127.799	-0.294	-0.371
-508.770	40.783	-0.288	-0.258
-507.756	37.905	0.276	0.244
-506.741	88.350	0.037	-0.040
-505.726	-97.268	-0.197	0.051
-504.712	2.488	0.182	0.131
-503.697	-34.690	0.196	0.107
-502.683	652.934	0.051	-0.129
-501.668	-199.436	-0.273	0.001
-500.653	548.816	-0.139	0.330
-499.639	-200.000	-0.044	0.289
-498.624	321.671	0.108	0.205
-497.610	235.075	-0.160	0.262
-496.595	-107.962	0.307	-0.066
-495.581	-132.039	0.068	-0.009
-494.566	433.888	0.056	-0.121
-493.551	-36.105	-0.174	0.093
-492.537	-96.883	0.198	0.052
-491.522	35.762	-0.279	-0.243
-490.508	386.664	0.075	-0.153
-489.493	-56.856	-0.200	0.088
-488.478	-193.984	-0.331	-0.003
-487.464	-200.000	0.097	-0.467
-486.449	64.340	0.074	-0.073
-485.435	502.228	0.103	0.237
-484.420	-160.811	0.243	0.013
-483.405	5.934	-0.367	-0.269
-482.391	-111.110	-0.359	0.073
-481.376	792.062	0.130	0.355
-480.362	79.389	-0.323	0.343
-479.347	-119.914	0.374	0.064
-478.332	-25.685	-0.118	0.069
-477.318	-200.000	0.005	-0.023
-476.303	-129.939	-0.269	-0.037
-475.289	369.430	0.101	-0.203
-474.274	-200.000	-0.076	-0.384
-473.259	228.068	0.121	-0.196
-472.245	800.000	0.064	-0.217
-471.230	-36.235	0.063	-0.033
-470.216	4.663	0.313	0.228
-469.201	35.702	-0.041	0.035
-468.186	-122.382	0.020	-0.003
-467.172	452.535	-0.057	0.124
-466.157	-83.144	-0.127	0.040
-465.143	528.458	0.145	-0.340
-464.128	800.000	-0.042	0.140
-463.113	800.000	0.057	-0.177
-462.099	1.673	0.182	-0.130
-461.084	-182.726	-0.161	-0.003
-460.070	-200.000	0.003	0.050
-459.055	-43.540	-0.270	-0.135
-458.040	800.000	-0.036	-0.121
-457.026	-200.000	0.026	0.155
-456.011	-126.655	0.256	0.038
-454.997	178.819	0.104	0.151
-453.982	800.000	0.109	-0.305
-452.968	-67.694	-0.123	-0.048
-451.953	264.577	-0.151	0.261
-450.938	-30.491	0.389	-0.218
-449.924	-59.111	0.434	0.185
-448.909	-55.755	0.184	0.081
-447.895	-200.000	0.046	0.345
-446.880	-160.424	0.317	-0.017
-445.865	-164.154	0.411	-0.019
-444.851	38.761	-0.082	0.073
-443.836	800.000	0.059	-0.217
-442.822	-98.959	-0.132	-0.033
-441.807	-135.459	0.115	-0.014
-440.792	170.050	0.077	-0.110
-439.778	-200.000	-0.042	-0.206
-438.763	-200.000	0.132	-0.001
-437.749	23.909	-0.172	-0.140
-436.734	333.004	-0.244	-0.467
-435.719	46.635	0.040	-0.037
-434.705	800.000	-0.102	-0.290
-433.690	37.053	-0.152	-0.133
-432.676	210.210	-0.211	-0.328
-431.661	-121.554	0.217	-0.036
-430.646	55.133	0.062	-0.059
-429.632	144.105	-0.059	0.078
-428.617	-1.686	0.161	0.112
-427.603	181.831	0.051	0.075
-426.588	-149.399	0.617	-0.048
-425.573	-200.000	-0.018	-0.141
-424.559	-130.055	0.130	-0.018
-423.544	338.036	0.055	-0.105
-422.530	488.585	0.250	-0.565
-421.515	800.000	-0.086	0.284
-420.500	-200.000	0.033	0.211
-419.486	-32.333	0.052	-0.029
-418.471	-200.000	-0.006	0.029
-417.457	-42.449	-0.148	-0.075
-416.442	-29.774	0.174	0.098
-415.428	8.559	0.082	-0.061
-414.413	41.246	-0.279	-0.250
-413.398	80.535	-0.018	0.019
-412.384	337.663	0.137	0.263
-411.369	687.979	-0.084	0.217
-410.355	-70.916	0.363	-0.135
-409.340	-99.739	-0.155	0.038
-408.325	-114.710	0.309	-0.058
-407.311	-200.000	-0.019	0.241
-406.296	2.010	-0.241	-0.172
-405.282	759.768	-0.080	-0.213
-404.267	-12.917	0.083	-0.053
-403.252	800.000	-0.074	-0.224
-402.238	-150.193	-0.218	0.017
-401.223	128.861	0.070	-0.088
-400.209	-200.000	0.022	-0.300
-399.194	-95.185	0.185	0.049
-398.179	273.317	-0.084	-0.146
-397.165	-200.000	0.275	-0.001
-396.150	-97.577	-0.117	-0.030
-395.136	-200.000	-0.005	0.062
-394.121	800.000	-0.039	-0.107
-393.106	-102.626	0.165	0.039
-392.092	-68.335	0.106	0.041
-391.077	800.000	-0.020	0.056
-390.063	187.302	-0.317	0.467
-389.048	152.116	-0.154	0.207
-388.033	-39.059	0.104	-0.054
-387.019	-130.623	-0.063	0.008
-386.004	-200.000	-0.075	-0.335
-384.990	580.973	0.146	-0.354
-383.975	187.275	-0.237	0.349
-382.960	71.871	-0.267	-0.274
-381.946	-85.339	0.100	-0.031
-380.931	-137.894	0.229	-0.025
-379.917	-157.666	0.226	0.013
-378.902	415.351	-0.122	0.258
-377.888	-54.281	0.166	-0.074
-376.873	23.061	-0.224	0.181
-375.858	800.000	0.138	0.397
-374.844	-150.601	-0.135	-0.010
-373.829	256.955	0.134	0.227
-372.815	440.344	0.027	0.057
-371.800	327.516	0.060	0.113
-370.785	281.051	-0.190	-0.336
-369.771	-200.000	0.027	-0.565
-368.756	-177.146	-0.112	0.003
-367.742	-200.000	0.017	0.199
-366.727	800.000	-0.020	0.075
-365.712	-148.156	-0.083	0.007
-364.698	-25.515	0.123	-0.072
-363.683	126.213	0.068	0.084
-362.669	701.710	-0.051	0.132
-361.654	-2.280	0.066	0.046
-360.639	25.037	-0.107	-0.088
-359.625	115.377	0.143	0.172
-358.610	-170.212	-0.155	-0.005
-357.596	800.000	0.042	0.175
-356.581	-72.512	0.188	0.069
-355.566	18.341	-0.237	0.187
-354.552	-86.572	0.075	-0.023
-353.537	171.215	-0.139	0.196
-352.523	41.394	0.177	0.158
-351.508	-155.824	0.039	-0.002
-350.493	-21.479	-0.058	-0.035
-349.479	137.093	0.174	0.224
-348.464	-125.251	-0.163	0.025
-347.450	-51.993	0.111	0.051
-346.435	-26.907	-0.118	-0.068
-345.420	-91.970	0.375	-0.105
-344.406	-115.724	-0.268	0.050
-343.391	-200.000	0.042	-0.236
-342.377	434.595	-0.070	0.151
-341.362	-101.623	0.231	0.055
-340.348	6.383	-0.139	-0.102
-339.333	-85.949	-0.105	0.032
-338.318	-91.679	0.197	0.055
-337.304	800.000	0.092	-0.253
-336.289	800.000	0.114	-0.334
-335.275	-200.000	-0.007	-0.112
-334.260	91.070	-0.256	-0.283
-333.245	-200.000	0.021	0.109
-332.231	-137.584	-0.519	-0.058
-331.216	-113.300	0.235	-0.045
-330.202	-200.000	0.001	-0.356
-329.187	-200.000	-0.021	0.115
-328.172	-45.089	0.228	0.112
-327.158	-65.555	-0.174	0.069
-326.143	308.648	0.112	-0.206
-325.129	168.235	-0.059	-0.082
-324.114	19.653	0.212	0.168
-323.099	-146.804	-0.261	-0.022
-322.085	-200.000	0.002	-0.077
-321.070	67.960	0.031	-0.032
-320.056	59.409	-0.105	0.102
-319.041	-76.974	-0.346	0.119
-318.026	-167.034	-0.076	0.003
-317.012	-89.920	0.167	-0.048
-315.997	-61.413	0.368	-0.153
-314.983	124.144	0.051	-0.063
-313.968	-141.627	-0.054	-0.005
-312.953	41.177	0.126	0.112
-311.939	-107.725	0.208	0.045
-310.924	55.862	-0.181	-0.173
-309.910	-54.575	-0.315	0.140
-308.895	-122.533	-0.181	-0.029
-307.880	-9.045	0.184	-0.121
-306.866	800.000	0.032	-0.135
-305.851	-168.306	-0.271	-0.010
-304.837	8.437	-0.080	-0.059
-303.822	-200.000	-0.034	0.174
-302.807	-159.143	0.555	-0.031
-301.793	278.978	0.159	0.280
-300.778	28.761	-0.051	0.043
-299.764	-128.936	-0.193	0.027
-298.749	-50.268	-0.158	-0.074
-297.735	485.523	-0.080	-0.179
-296.720	786.482	0.096	0.260
-295.705	-105.484	0.487	0.109
-294.691	220.754	-0.167	0.264
-293.676	-99.753	-0.248	0.061
-292.662	88.615	0.042	0.046
-291.647	-50.128	-0.120	0.056
-290.632	389.010	-0.082	0.168
-289.618	37.027	-0.088	0.077
-288.603	61.776	-0.105	-0.103
-287.589	-103.868	0.117	-0.027
-286.574	213.585	-0.079	0.123
-285.559	-200.000	-0.024	0.134
-284.545	168.360	0.105	-0.147
-283.530	-53.052	0.152	0.069
-282.516	-85.454	0.169	0.052
-281.501	800.000	-0.071	-0.207
-280.486	-200.000	0.040	-0.298
-279.472	-113.693	-0.254	0.049
-278.457	230.746	0.077	0.124
-277.443	-59.726	-0.245	-0.103
-276.428	61.200	-0.324	-0.317
-275.413	400.814	-0.199	-0.411
-274.399	595.052	0.092	0.224
-273.384	-76.953	-0.363	0.125
-272.370	800.000	0.069	0.218
-271.355	-200.000	0.017	0.270
-270.340	-200.000	-0.031	0.171
-269.326	220.741	0.076	0.120
-268.311	-97.986	-0.233	0.059
-267.297	16.465	0.211	-0.164
-266.282	800.000	-0.101	0.313
-265.267	-118.896	-0.031	-0.005
-264.253	-96.117	-0.128	0.033
-263.238	-49.454	-0.092	0.043
-262.224	-39.610	0.241	0.124
-261.209	343.267	0.112	0.215
-260.195	523.870	0.197	-0.455
-259.180	-73.924	-0.411	-0.147
-258.165	3.537	-0.139	-0.100
-257.151	-200.000	-0.013	0.140
-256.136	-200.000	0.012	-0.260
-255.122	7.208	0.119	0.087
-254.107	800.000	-0.071	0.214
-253.092	-9.139	-0.312	0.205
-252.078	81.828	0.051	0.054
-251.063	66.198	0.178	0.178
-250.049	-200.000	-0.049	-0.222
-249.034	82.094	-0.171	0.182
-248.019	-200.000	-0.011	0.148
-247.005	541.353	-0.100	-0.234
-245.990	140.862	-0.264	0.342
-244.976	-169.494	-0.084	-0.003
-243.961	-158.007	0.060	0.003
-242.946	235.424	-0.251	-0.407
-241.932	800.000	0.046	-0.146
-240.917	-118.786	0.255	-0.044
-239.903	-161.935	-0.217	0.011
-238.888	-200.000	0.019	0.258
-237.873	-123.037	0.080	-0.013
-236.859	205.792	-0.175	0.267
-235.844	53.679	-0.237	-0.224
-234.830	800.000	-0.030	-0.125
-233.815	186.781	-0.181	-0.265
-232.800	791.287	0.152	-0.410
-231.786	-125.222	0.115	0.017
-230.771	-93.733	-0.094	0.025
-229.757	-108.820	0.285	0.060
-228.742	253.198	-0.225	0.377
-227.727	-165.710	-0.292	-0.012
-226.713	-42.023	-0.085	0.043
-225.698	210.906	-0.084	0.130
-224.684	71.050	0.030	0.030
-223.669	-200.000	0.008	0.229
-222.655	-54.094	0.299	0.133
-221.640	403.036	-0.048	0.099
-220.625	-200.000	0.006	-0.033
-219.611	137.712	0.095	-0.122
-218.596	235.941	0.145	0.235
-217.582	-200.000	0.001	-0.225
-216.567	-200.000	-0.004	-0.246
-215.552	198.394	0.121	-0.182
-214.538	-58.389	-0.051	-0.022
-213.523	-200.000	-0.038	-0.217
-212.509	607.107	0.054	0.132
-211.494	-42.228	0.226	-0.113
-210.479	-200.000	-0.053	0.508
-209.465	-34.609	-0.138	-0.074
-208.450	800.000	0.059	0.178
-207.436	93.621	0.071	0.079
-206.421	-125.272	0.234	-0.035
-205.406	240.331	-0.234	-0.382
-204.392	800.000	-0.027	0.090
-203.377	-200.000	-0.040	0.292
-202.363	92.993	-0.262	-0.290
-201.348	28.612	-0.107	0.088
-200.333	16.800	-0.193	-0.150
-199.319	14.403	-0.053	0.041
-198.304	-133.012	-0.202	-0.025
-197.290	143.135	-0.394	-0.513
-196.275	351.217	-0.215	0.417
-195.260	-200.000	0.016	-0.227
-194.246	-97.654	0.440	-0.112
-193.231	-34.421	-0.104	0.056
-192.217	-175.236	0.189	-0.005
-191.202	168.938	0.125	0.175
-190.187	99.357	-0.011	0.013
-189.173	-120.284	0.312	0.052
-188.158	48.075	-0.076	-0.070
-187.144	-200.000	-0.037	0.191
-186.129	40.338	0.259	-0.228
-185.114	-69.898	-0.068	-0.025
-184.100	-24.627	-0.234	-0.136
-183.085	-154.598	0.329	0.021
-182.071	21.402	0.264	-0.210
-181.056	-186.986	0.312	-0.004
-180.042	-200.000	-0.084	0.542
-179.027	-200.000	0.045	0.324
-178.012	444.771	-0.061	0.131
-176.998	800.000	0.087	0.238
-175.983	-200.000	0.050	-0.330
-174.969	-118.933	0.121	0.021
-173.954	-200.000	0.041	0.220
-172.939	-8.718	-0.088	0.058
-171.925	800.000	-0.066	0.225
-170.910	232.050	-0.245	0.393
-169.896	16.574	0.090	-0.070
-168.881	-144.521	0.239	0.022
-167.866	-43.544	-0.191	0.095
-166.852	-96.653	0.257	-0.066
-165.837	-2.774	-0.103	0.070
-164.823	-94.413	0.174	-0.047
-163.808	-195.147	-0.148	-0.001
-162.793	162.686	0.112	0.154
-161.779	88.749	0.160	0.175
-160.764	314.115	0.096	0.177
-159.750	-109.207	-0.202	-0.042
-158.735	442.060	-0.139	-0.298
-157.720	-77.441	-0.214	0.073
-156.706	437.675	-0.102	0.218
-155.691	-118.394	0.134	0.023
-154.677	-12.139	-0.139	0.089
-153.662	728.019	0.063	0.164
-152.647	462.545	-0.015	-0.032
-151.633	-53.837	0.229	0.102
-150.618	-78.495	0.304	0.102
-149.604	800.000	0.130	-0.390
-148.589	189.017	0.004	0.005
-147.574	-47.196	-0.194	-0.093
-146.560	17.961	-0.133	-0.104
-145.545	-200.000	-0.026	-0.321
-144.531	-143.967	-0.165	-0.015
-143.516	-154.811	0.210	-0.014
-142.502	800.000	0.091	0.280
-141.487	-200.000	-0.008	0.177
-140.472	503.334	0.232	-0.525
-139.458	-200.000	0.032	-0.167
-138.443	67.371	0.211	0.211
-137.429	124.185	-0.087	0.107
-136.414	800.000	0.047	0.139
-135.399	-112.188	0.105	0.021
-134.385	-200.000	0.014	0.087
-133.370	241.962	0.326	-0.533
-132.356	281.826	-0.267	0.467
-131.341	-200.000	0.042	0.273
-130.326	800.000	-0.063	0.228
-129.312	-69.869	-0.218	-0.081
-128.297	-31.438	-0.024	0.013
-127.283	434.153	0.083	-0.176
-126.268	165.347	-0.070	-0.097
-125.253	800.000	-0.024	-0.079
-124.239	-200.000	0.260	-0.001
-123.224	-99.248	0.055	0.013
-122.210	-128.161	-0.365	0.051
-121.195	-105.781	0.179	0.039
-120.180	317.644	0.208	-0.384
-119.166	-110.525	0.321	-0.065
-118.151	-200.000	0.003	-0.018
-117.137	-87.350	0.224	0.066
-116.122	-200.000	0.013	0.180
-115.107	66.119	0.234	0.232
-114.093	253.015	0.101	0.169
-113.078	277.023	-0.175	0.304
-112.064	-62.095	-0.160	-0.065
-111.049	-70.013	-0.159	-0.059
-110.034	-35.782	-0.241	0.127
-109.020	-200.000	-0.009	-0.200
-108.005	-99.969	0.295	0.072
-106.991	87.120	0.136	0.146
-105.976	123.108	-0.121	-0.149
-104.962	788.736	0.061	0.163
-103.947	62.448	0.110	0.107
-102.932	87.553	0.136	-0.147
-101.918	-108.488	0.198	-0.042
-100.903	800.000	-0.038	0.106
-99.889	443.797	0.057	0.121
-98.874	800.000	-0.065	-0.196
-97.859	-200.000	0.012	0.185
-96.845	-102.361	0.288	0.067
-95.830	-156.403	-0.267	0.016
-94.816	271.601	0.158	0.271
-93.801	-29.178	0.094	0.052
-92.786	-26.315	0.292	-0.167
-91.772	-200.000	-0.018	0.299
-90.757	41.582	0.137	0.121
-89.743	254.275	-0.191	-0.318
-88.728	163.268	-0.291	-0.399
-87.713	-111.917	-0.162	-0.032
-86.699	517.271	0.145	-0.331
-85.684	26.304	0.021	0.017
-84.670	70.387	-0.106	0.107
-83.655	163.824	-0.269	-0.369
-82.640	-110.166	0.122	-0.025
-81.626	-141.729	-0.374	-0.037
-80.611	341.156	0.112	0.213
-79.597	-120.400	0.246	-0.041
-78.582	-200.000	0.001	-0.252
-77.567	122.622	-0.053	0.065
-76.553	-200.000	0.077	-0.375
-75.538	800.000	-0.101	-0.346
-74.524	-200.000	-0.074	-0.335
-73.509	-43.476	-0.129	0.063
-72.494	-91.678	0.192	-0.053
-71.480	-61.849	0.035	-0.014
-70.465	-134.674	0.221	0.026
-69.451	-47.980	-0.212	-0.100
-68.436	-61.161	-0.047	0.019
-67.422	-14.257	0.100	-0.063
-66.407	-84.012	-0.265	-0.082
-65.392	-200.000	-0.010	-0.095
-64.378	119.756	-0.185	0.223
-63.363	-181.969	0.269	-0.005
-62.349	-62.915	-0.079	-0.032
-61.334	95.996	-0.969	-1.079
-60.319	136.255	0.677	0.860
-59.305	720.939	-0.579	-1.502
-58.290	401.025	0.737	1.508
-57.276	222.087	0.931	1.460
-56.261	-200.000	135.816	623.236
-55.246	340.905	1637.925	3117.091
-54.232	137.664	2771.049	3535.541
-53.217	81.797	2153.748	2272.079
-52.203	29.781	1590.165	1319.473
-51.188	22.344	1342.661	1069.060
-50.173	20.321	1309.057	1030.267
-49.159	46.845	1383.560	1252.679
-48.144	42.262	1392.176	1232.350
-47.130	22.230	1340.135	1066.187
-46.115	19.352	1321.648	1034.205
-45.100	19.413	1315.845	1029.985
-44.086	19.186	1314.193	1027.299
-43.071	19.194	1311.354	1025.086
-42.057	19.261	1309.077	1023.661
-41.042	19.191	1308.063	1022.411
-40.027	19.158	1306.592	1021.026
-39.013	19.201	1304.369	1019.503
-37.998	19.272	1303.046	1018.847
-36.984	19.300	1301.203	1017.536
-35.969	19.287	1299.448	1016.045
-34.954	19.282	1297.452	1014.415
-33.940	19.315	1296.229	1013.608
-32.925	19.372	1294.976	1012.926
-31.911	19.372	1293.252	1011.535
-30.896	19.352	1292.118	1010.490
-29.881	19.377	1290.693	1009.484
-28.867	19.322	1289.434	1008.139
-27.852	19.403	1287.675	1007.195
-26.838	19.437	1286.243	1006.234
-25.823	19.452	1284.612	1005.008
-24.809	19.411	1283.620	1003.953
-23.794	19.347	1282.463	1002.637
-22.779	19.430	1281.407	1002.252
-21.765	19.400	1280.347	1001.206
-20.750	19.406	1278.547	999.798
-19.736	19.300	1277.582	998.384
-18.721	19.205	1276.392	996.866
-17.706	19.260	1275.040	996.087
-16.692	19.264	1273.656	994.992
-15.677	19.226	1272.911	994.150
-14.663	19.130	1271.663	992.583
-13.648	19.376	1269.954	992.627
-12.633	19.231	1269.596	991.475
-11.619	19.191	1268.999	990.736
-10.604	19.191	1268.321	990.171
-9.590	19.250	1267.040	989.466
-8.575	19.240	1266.005	988.566
-7.560	19.164	1265.101	987.381
-6.546	19.313	1263.931	987.281
-5.531	19.224	1263.478	986.379
-4.517	19.183	1262.694	985.495
-3.502	19.184	1262.106	985.003
-2.487	19.147	1261.067	983.940
-1.473	19.255	1256.329	980.823
-0.458	17.580	1241.268	959.594
0.556	13.202	1225.898	922.615
1.571	9.517	1234.688	908.396
2.586	9.062	1249.981	916.967
3.600	9.226	1236.870	908.193
4.615	6.935	1165.980	843.852
5.629	2.622	1098.309	773.086
6.644	0.639	1082.969	752.352
7.659	0.559	1081.421	750.808
8.673	0.493	1080.485	749.765
9.688	0.649	1078.782	749.293
10.702	0.762	1076.275	748.040
11.717	3.325	1078.780	762.417
12.731	9.239	1086.337	797.095
13.746	14.900	1094.127	830.944
14.761	17.163	1096.880	844.220
15.775	16.554	1095.353	839.949
16.790	15.559	1093.184	833.276
17.804	14.910	1091.306	828.557
18.819	14.520	1090.430	825.888
19.834	14.416	1089.665	824.722
20.848	14.072	1088.764	822.266
21.863	13.725	1088.287	820.118
22.877	13.758	1087.041	819.269
23.892	13.626	1086.255	817.952
24.907	13.704	1085.721	817.862
25.921	13.572	1085.146	816.706
26.936	13.607	1084.522	816.337
27.950	13.816	1082.705	815.921
28.965	13.867	1081.902	815.496
29.980	14.019	1080.020	814.753
30.994	13.848	1079.612	813.535
32.009	13.819	1078.743	812.665
33.023	13.882	1077.476	811.946
34.038	13.734	1076.940	810.747
35.053	13.867	1075.604	810.317
36.067	13.791	1074.693	809.191
37.082	13.751	1073.722	808.192
38.096	13.928	1073.055	808.482
39.111	13.916	1071.928	807.501
40.126	13.816	1070.677	806.000
41.140	13.705	1069.814	804.743
42.155	13.629	1069.159	803.811
43.169	13.615	1068.138	802.903
44.184	13.705	1066.700	802.186
45.199	13.695	1065.881	801.451
46.213	13.651	1064.799	800.356
47.228	13.815	1063.486	800.088
48.242	13.816	1062.208	799.062
49.257	13.916	1060.965	798.537
50.271	13.716	1060.435	797.104
51.286	13.737	1059.946	796.769
52.301	13.757	1058.864	795.980
53.315	13.820	1057.683	795.326
54.330	13.738	1056.610	794.057
55.344	13.823	1055.552	793.597
56.359	13.796	1054.893	792.901
57.374	13.748	1054.019	791.943
58.388	13.522	1053.109	790.113
59.403	13.538	1052.385	789.575
60.417	13.622	1051.455	789.207
61.432	13.713	1050.392	788.772
62.447	13.634	1050.095	788.107
63.461	13.550	1049.433	787.141
64.476	13.535	1048.308	786.154
65.490	13.593	1047.289	785.596
66.505	13.774	1046.089	785.483
67.520	13.636	1045.922	784.636
68.534	13.648	1045.233	784.105
69.549	13.667	1044.504	783.577
70.563	13.537	1043.840	782.399
71.578	13.555	1043.013	781.792
72.593	13.645	1041.795	781.237
73.607	13.632	1041.456	780.850
74.622	13.549	1040.878	779.958
75.636	13.633	1040.035	779.652
76.651	13.621	1038.920	778.692
77.666	13.604	1038.406	778.158
78.680	13.457	1038.365	777.369
79.695	13.583	1037.628	777.337
80.709	13.632	1036.420	776.592
81.724	13.501	1036.292	775.817
82.739	13.611	1035.214	775.454
83.753	13.745	1034.206	775.257
84.768	13.845	1033.192	774.895
85.782	13.914	1032.264	774.451
86.797	13.820	1031.379	773.281
87.812	13.674	1030.718	772.039
88.826	13.731	1029.713	771.481
89.841	13.741	1028.675	770.683
90.855	13.803	1027.866	770.294
91.870	13.918	1026.919	770.050
92.884	13.823	1026.043	768.889
93.899	13.985	1025.248	768.975
94.914	13.901	1024.170	767.710
95.928	13.841	1023.504	766.864
96.943	13.850	1022.785	766.297
97.957	13.829	1022.027	765.566
98.972	13.987	1021.019	765.472
99.987	13.970	1019.625	764.279
101.001	13.818	1018.888	762.960
102.016	13.807	1018.239	762.358
103.030	13.811	1017.640	761.860
104.045	14.017	1016.417	761.819
105.060	13.847	1016.210	760.818
106.074	13.793	1015.182	759.735
107.089	13.688	1014.208	758.458
108.103	13.862	1012.790	758.124
109.118	13.785	1012.412	757.423
110.133	13.703	1011.600	756.377
111.147	13.825	1010.547	756.076
112.162	13.878	1009.604	755.548
113.176	13.920	1008.720	755.010
114.191	13.825	1008.252	754.162
115.206	13.697	1007.790	753.164
116.220	13.777	1006.710	752.656
117.235	13.894	1005.065	751.890
118.249	13.899	1004.364	751.318
119.264	13.835	1004.129	750.788
120.279	13.876	1003.335	750.313
121.293	13.793	1002.620	749.339
122.308	13.907	1001.246	748.757
123.322	13.825	1000.343	747.651
124.337	13.876	999.040	746.836
125.352	13.859	998.197	746.064
126.366	13.760	997.090	744.728
127.381	13.648	995.895	743.267
128.395	13.784	995.471	743.494
129.410	13.713	994.266	742.209
130.424	13.822	993.109	741.768
131.439	13.834	992.305	741.155
132.454	13.869	991.210	740.429
133.468	13.863	990.788	740.021
134.483	13.708	990.092	738.743
135.497	13.898	988.466	738.310
136.512	13.804	988.284	737.694
137.527	13.871	987.202	737.116
138.541	13.811	986.689	736.402
139.556	13.955	985.794	736.308
140.570	13.844	985.238	735.334
141.585	13.944	984.251	734.975
142.600	13.955	983.345	734.282
143.614	14.071	982.361	733.994
144.629	14.024	981.737	733.258
145.643	14.113	980.376	732.566
146.658	13.952	980.015	731.525
147.673	13.948	978.865	730.584
148.687	13.967	977.856	729.850
149.702	14.031	977.174	729.556
150.716	13.940	976.369	728.494
151.731	13.974	975.563	727.975
152.746	14.001	974.966	727.581
153.760	14.000	974.317	727.030
154.775	14.014	974.245	726.974
155.789	14.061	973.210	726.345
156.804	14.200	972.480	726.342
157.819	14.167	971.802	725.627
158.833	14.167	971.285	725.176
159.848	14.212	970.285	724.563
160.862	14.203	968.848	723.384
161.877	14.223	967.742	722.581
162.892	14.208	967.135	722.000
163.906	14.082	966.869	721.192
164.921	14.088	966.000	720.506
165.935	14.120	964.894	719.752
166.950	14.156	963.923	719.121
167.964	14.151	963.034	718.375
168.979	14.253	962.047	718.014
169.994	14.254	961.388	717.462
171.008	14.139	960.986	716.602
172.023	14.175	959.691	715.729
173.037	14.323	959.478	716.144
174.052	14.315	958.305	715.169
175.067	14.162	957.934	714.175
176.081	14.162	957.567	713.838
177.096	14.168	956.888	713.293
178.110	14.245	956.240	713.075
179.125	14.211	955.660	712.433
180.140	14.350	954.740	712.282
181.154	14.348	954.310	711.890
182.169	14.331	953.929	711.469
183.183	14.416	953.324	711.317
184.198	14.438	952.369	710.637
185.213	14.447	951.862	710.235
186.227	14.585	950.628	709.838
187.242	14.450	950.467	709.079
188.256	14.625	949.568	709.091
189.271	14.475	949.048	708.000
190.286	14.431	948.151	707.082
191.300	14.375	947.187	706.062
192.315	14.382	946.651	705.631
193.329	14.315	946.539	705.203
194.344	14.427	945.415	704.777
195.359	14.495	944.798	704.540
196.373	14.512	944.499	704.327
197.388	14.448	944.005	703.628
198.402	14.605	942.848	703.366
199.417	14.648	942.369	703.125
200.432	14.657	941.661	702.575
201.446	14.710	941.772	702.817
202.461	14.718	941.324	702.454
203.475	14.751	940.351	701.802
204.490	14.676	939.624	700.886
205.504	14.680	938.860	700.269
206.519	14.747	937.937	699.798
207.534	14.812	937.332	699.557
208.548	14.701	936.884	698.697
209.563	14.690	936.201	698.081
210.577	14.731	935.224	697.461
211.592	14.787	934.500	697.096
212.607	14.799	933.541	696.366
213.621	14.765	933.170	695.886
214.636	14.912	932.049	695.601
215.650	14.869	932.060	695.368
216.665	14.841	931.085	694.462
217.680	14.956	930.045	694.104
218.694	14.886	929.789	693.559
219.709	14.875	928.991	692.858
220.723	14.987	928.363	692.791
221.738	14.837	927.681	691.602
222.753	14.968	926.586	691.266
223.767	15.130	926.150	691.549
224.782	15.060	925.883	690.997
225.796	15.061	925.500	690.655
226.811	15.103	924.516	690.033
227.826	15.001	923.994	689.163
228.840	14.992	923.156	688.439
229.855	14.970	922.212	687.585
230.869	14.977	921.492	687.016
231.884	14.946	921.292	686.679
232.899	15.049	919.825	685.946
233.913	15.020	919.370	685.426
234.928	14.987	918.617	684.669
235.942	15.063	917.978	684.446
236.957	15.044	917.933	684.270
237.972	15.007	917.036	683.393
238.986	14.967	916.445	682.728
240.001	15.067	915.819	682.608
241.015	15.081	915.049	682.030
242.030	15.128	914.740	681.934
243.045	15.187	913.852	681.449
244.059	15.135	913.380	680.825
245.074	15.207	912.535	680.430
246.088	15.296	911.857	680.223
247.103	15.163	911.154	679.099
248.117	15.213	910.820	678.996
249.132	15.348	910.052	678.908
250.147	15.320	909.689	678.463
251.161	15.487	908.688	678.333
252.176	15.298	908.531	677.392
253.190	15.442	907.464	677.117
254.205	15.462	907.047	676.826
255.220	15.569	905.977	676.398
256.234	15.353	905.458	675.081
257.249	15.611	904.589	675.412
258.263	15.616	903.934	674.885
259.278	15.604	902.849	673.967
260.293	15.529	902.713	673.503
261.307	15.778	901.637	673.636
262.322	15.774	901.313	673.322
263.336	15.665	900.142	671.949
264.351	15.736	899.841	671.948
265.366	15.698	899.035	671.135
266.380	15.723	898.802	671.004
267.395	15.555	898.355	669.940
268.409	15.682	897.103	669.455
269.424	15.709	896.711	669.210
270.439	15.831	895.993	669.098
271.453	15.764	895.206	668.184
272.468	15.677	894.907	667.557
273.482	15.740	894.093	667.139
274.497	15.809	893.220	666.705
275.512	15.806	892.905	666.401
276.526	15.832	892.609	666.223
277.541	15.848	891.566	665.445
278.555	15.773	891.319	664.906
279.570	16.000	890.380	665.045
280.585	15.993	889.733	664.473
281.599	15.977	888.747	663.617
282.614	15.889	888.449	662.989
283.628	15.884	887.786	662.415
284.643	15.900	887.302	662.058
285.657	15.966	886.500	661.659
286.672	15.988	885.818	661.182
287.687	15.961	885.039	660.435
288.701	16.122	884.387	660.520
289.716	15.955	883.951	659.483
290.730	15.999	883.486	659.250
291.745	15.958	883.133	658.769
292.760	16.204	881.967	658.799
293.774	16.022	881.671	657.810
294.789	16.142	880.841	657.600
295.803	15.995	880.032	656.364
296.818	16.164	879.550	656.605
297.833	16.028	878.976	655.590
298.847	16.167	877.811	655.205
299.862	16.220	877.545	655.154
300.876	16.163	876.986	654.456
301.891	16.237	876.588	654.387
302.906	16.246	875.898	653.850
303.920	16.358	875.060	653.599
304.935	16.446	874.432	653.413
305.949	16.316	874.013	652.541
306.964	16.262	873.710	652.046
307.979	16.486	872.824	652.191
308.993	16.423	872.102	651.354
310.008	16.439	871.460	650.878
311.022	16.418	871.200	650.546
312.037	16.382	870.931	650.149
313.052	16.388	870.189	649.558
314.066	16.399	869.695	649.173
315.081	16.471	868.856	648.769
316.095	16.373	868.305	647.924
317.110	16.483	867.583	647.747
318.125	16.256	867.247	646.569
319.139	16.458	866.351	646.618
320.154	16.487	866.062	646.456
321.168	16.504	865.378	645.953
322.183	16.459	865.153	645.559
323.197	16.631	863.917	645.233
324.212	16.571	864.042	645.041
325.227	16.393	863.547	643.937
326.241	16.544	862.627	643.769
327.256	16.648	862.167	643.762
328.270	16.612	861.595	643.140
329.285	16.500	861.502	642.592
330.300	16.652	860.318	642.226
331.314	16.561	860.215	641.746
332.329	16.615	859.539	641.393
333.343	16.454	859.386	640.609
334.358	16.606	858.415	640.405
335.373	16.642	858.537	640.576
336.387	16.767	857.912	640.526
337.402	16.856	857.651	640.610
338.416	16.821	857.209	640.091
339.431	16.842	856.929	639.904
340.446	16.799	856.117	639.079
341.460	16.834	855.792	638.913
342.475	16.852	855.704	638.859
343.489	16.771	855.244	638.154
344.504	16.948	854.448	638.169
345.519	16.954	854.148	637.910
346.533	16.990	853.423	637.446
347.548	16.901	852.577	636.427
348.562	16.984	852.617	636.710
349.577	16.948	851.849	635.946
350.592	16.872	851.478	635.326
351.606	16.888	850.586	634.667
352.621	16.901	850.077	634.278
353.635	17.061	849.168	634.142
354.650	17.023	848.410	633.377
355.665	16.958	848.289	632.990
356.679	16.935	847.650	632.371
357.694	17.087	846.654	632.139
358.708	17.174	845.905	631.846
359.723	17.187	845.503	631.540
360.738	17.083	845.109	630.800
361.752	17.103	844.232	630.164
362.767	17.103	843.687	629.703
363.781	17.279	843.057	629.830
364.796	17.223	842.710	629.309
365.810	17.177	842.568	628.974
366.825	17.477	841.911	629.538
367.840	17.308	841.504	628.554
368.854	17.172	840.997	627.617
369.869	17.319	840.668	627.861
370.883	17.175	840.292	626.991
371.898	17.451	839.907	627.667
372.913	17.381	839.598	627.122
373.927	17.368	839.248	626.757
374.942	17.321	838.540	626.001
375.956	17.498	838.051	626.229
376.971	17.525	837.490	625.854
377.986	17.447	837.244	625.329
379.000	17.533	836.452	624.997
380.015	17.580	836.253	624.966
381.029	17.517	835.342	624.000
382.044	17.536	835.027	623.780
383.059	17.621	834.536	623.667
384.073	17.621	833.783	623.050
385.088	17.647	832.913	622.440
386.102	17.658	832.386	622.032
387.117	17.506	832.321	621.372
388.132	17.502	831.751	620.878
389.146	17.599	830.842	620.497
390.161	17.676	830.731	620.639
391.175	17.807	829.717	620.305
392.190	17.661	829.384	619.471
393.205	17.734	829.114	619.480
394.219	17.771	828.896	619.394
395.234	17.712	828.435	618.781
396.248	17.620	827.920	618.006
397.263	17.665	827.207	617.584
398.278	17.596	827.084	617.189
399.292	17.622	826.551	616.830
400.307	17.728	826.431	617.070
401.321	17.704	825.737	616.409
402.336	17.731	824.952	615.865
403.350	17.842	824.794	616.096
404.365	17.887	824.290	615.827
405.380	17.824	823.664	615.075
406.394	17.990	823.198	615.272
407.409	17.937	822.814	614.741
408.423	17.993	822.439	614.607
409.438	17.994	821.727	614.024
410.453	17.983	821.671	613.890
411.467	18.111	820.534	613.444
412.482	18.015	820.938	613.348
413.496	18.071	820.319	613.031
414.511	17.999	819.914	612.416
415.526	18.118	819.393	612.397
416.540	18.277	818.728	612.417
417.555	18.131	818.628	611.767
418.569	18.207	817.952	611.480
419.584	18.158	817.459	610.880
420.599	18.234	817.260	610.948
421.613	116.137	1301.296	1492.741
422.628	100.705	1371.786	1492.811
