DTS Sentinel unit serial number:	SN413079Multiplexer serial number:	ORYXHardware model number:	OX4-SRSoftware version number:	ORYX F/W v4.00 Oryx Data Collector v3.7.2.0data status	okinstallation	princeton_trtdifferential loss correction	single-endedforward channel	channel 1reverse channel	N/Adate	2019/09/16time	03:22:35forward acquisition time	60.00reverse acquisition time	0.00gamma	496.2192k internal	0.2330k external	0.2330temperature offset calibration	0.9984default loss term (dB/km)	0.3790temperature slope calibration	1.0000multiplexer offset coefficient	1.0000multiplexer slope coefficient	1.0000fibre end	0.00T internal ref (°C)	27.70T ext. ref 1 (°C)	10.53T ext. ref 2 (°C)	21.80length (m)	temperature (°C)	Stokes	anti-Stokes-747.200	-99.495	-0.026	-0.007
-746.185	277.055	0.225	0.402
-745.171	-200.000	0.059	0.271
-744.156	-200.000	-0.040	0.512
-743.142	-200.000	0.011	-0.055
-742.127	-200.000	-0.110	0.651
-741.112	-36.433	0.246	-0.133
-740.098	-200.000	0.018	0.217
-739.083	131.182	0.288	0.372
-738.069	330.803	0.141	0.274
-737.054	105.773	-0.060	-0.071
-736.039	-81.286	-0.369	0.122
-735.025	117.473	0.090	0.112
-734.010	246.455	-0.182	0.308
-732.996	-50.653	-0.067	0.032
-731.981	0.657	-0.054	-0.039
-730.966	55.214	0.068	0.066
-729.952	-200.000	-0.005	-0.064
-728.937	-60.324	0.249	0.107
-727.923	-200.000	0.016	-0.257
-726.908	-20.169	-0.227	0.141
-725.894	56.560	0.178	-0.174
-724.879	-3.368	-0.147	0.103
-723.864	-76.273	-0.247	0.087
-722.850	148.991	-0.201	-0.273
-721.835	-166.191	-0.185	-0.008
-720.821	-200.000	-0.011	0.069
-719.806	-129.534	0.039	-0.005
-718.791	-118.738	-0.101	0.018
-717.777	-36.231	-0.242	-0.132
-716.762	148.381	-0.022	-0.030
-715.748	800.000	0.045	-0.139
-714.733	-21.221	-0.195	-0.120
-713.718	-200.000	-0.027	-0.159
-712.704	-56.026	-0.232	-0.104
-711.689	89.817	-0.296	0.332
-710.675	-121.503	0.192	-0.032
-709.660	-47.268	-0.341	0.167
-708.645	-57.962	-0.260	0.114
-707.631	476.701	-0.181	-0.410
-706.616	404.194	0.075	-0.159
-705.602	537.711	-0.024	-0.056
-704.587	117.156	0.156	-0.192
-703.572	536.434	0.129	-0.309
-702.558	-80.001	0.139	0.047
-701.543	232.594	0.165	-0.272
-700.529	-76.606	-0.182	0.064
-699.514	-200.000	0.005	-0.108
-698.499	-21.684	-0.169	-0.103
-697.485	800.000	-0.030	-0.088
-696.470	-154.817	-0.278	0.018
-695.456	-18.775	-0.198	0.124
-694.441	247.772	-0.114	0.194
-693.426	-92.327	-0.329	-0.093
-692.412	-91.102	-0.511	-0.147
-691.397	-32.753	-0.191	-0.107
-690.383	-102.710	-0.298	0.071
-689.368	409.728	0.142	-0.302
-688.354	0.545	-0.271	-0.195
-687.339	-108.466	0.382	0.083
-686.324	-200.000	-0.021	-0.093
-685.310	-138.208	-0.285	0.032
-684.295	-70.377	0.225	-0.086
-683.281	-200.000	-0.041	0.217
-682.266	-15.561	-0.053	-0.034
-681.251	-25.577	0.146	-0.086
-680.237	240.352	0.155	0.259
-679.222	112.231	-0.053	0.065
-678.208	-15.316	-0.114	-0.073
-677.193	616.319	-0.072	0.181
-676.178	128.211	-0.162	-0.207
-675.164	-64.687	-0.110	0.045
-674.149	-37.934	0.183	-0.097
-673.135	-200.000	-0.026	-0.205
-672.120	113.359	-0.163	-0.199
-671.105	-50.633	0.113	0.053
-670.091	17.530	0.085	0.068
-669.076	-14.050	0.122	0.079
-668.062	-14.440	-0.160	-0.103
-667.047	348.219	0.048	0.095
-666.032	800.000	0.031	0.133
-665.018	800.000	-0.016	0.048
-664.003	165.882	0.120	0.171
-662.989	26.969	-0.102	0.086
-661.974	-131.221	-0.157	-0.021
-660.959	-87.991	0.100	0.030
-659.945	-127.604	-0.222	-0.032
-658.930	-176.935	0.597	0.015
-657.916	-200.000	0.053	0.430
-656.901	-105.300	0.293	0.067
-655.886	800.000	0.155	-0.497
-654.872	-74.978	-0.295	-0.106
-653.857	-155.378	0.481	-0.031
-652.843	237.986	0.072	0.120
-651.828	-79.260	-0.495	0.168
-650.814	800.000	0.084	-0.278
-649.799	122.137	0.149	-0.186
-648.784	-145.669	0.116	-0.010
-647.770	-200.000	-0.071	0.350
-646.755	-127.731	0.457	0.066
-645.741	-44.436	-0.252	0.126
-644.726	287.912	0.091	-0.165
-643.711	-166.999	0.013	-0.001
-642.697	54.598	-0.214	-0.207
-641.682	-200.000	-0.035	-0.175
-640.668	212.790	0.112	0.177
-639.653	-86.070	-0.138	-0.043
-638.638	507.515	-0.055	0.128
-637.624	-76.828	0.134	0.047
-636.609	302.546	0.085	0.157
-635.595	800.000	-0.095	0.275
-634.580	-124.586	-0.222	-0.035
-633.565	-200.000	-0.004	-0.248
-632.551	-104.889	0.138	-0.032
-631.536	-125.209	0.174	-0.027
-630.522	55.578	0.008	-0.008
-629.507	638.393	-0.102	0.259
-628.492	-115.684	0.127	0.024
-627.478	-118.407	-0.366	-0.065
-626.463	-183.412	-0.263	0.005
-625.449	40.439	-0.089	-0.080
-624.434	341.468	-0.119	0.233
-623.419	141.817	-0.155	-0.206
-622.405	435.701	-0.039	-0.084
-621.390	800.000	0.050	-0.191
-620.376	-2.966	0.180	0.126
-619.361	12.424	0.313	0.242
-618.346	-144.543	0.287	0.027
-617.332	423.852	-0.072	-0.154
-616.317	800.000	0.091	-0.279
-615.303	24.998	0.162	-0.134
-614.288	-110.643	-0.111	-0.023
-613.273	92.854	0.115	0.130
-612.259	-131.758	0.420	0.055
-611.244	-200.000	-0.011	-0.224
-610.230	-64.192	0.203	0.083
-609.215	800.000	-0.037	-0.107
-608.201	363.043	0.124	-0.249
-607.186	-200.000	-0.002	-0.225
-606.171	-83.055	0.198	0.064
-605.157	-200.000	-0.014	-0.165
-604.142	800.000	-0.056	0.206
-603.128	-200.000	0.010	-0.225
-602.113	-200.000	-0.021	-0.289
-601.098	152.311	-0.261	-0.357
-600.084	-200.000	0.004	0.337
-599.069	148.052	0.099	-0.133
-598.055	371.523	-0.103	-0.210
-597.040	311.373	-0.138	-0.259
-596.025	-150.228	-0.178	0.014
-595.011	458.309	0.151	0.335
-593.996	-50.515	-0.119	-0.056
-592.982	416.180	0.141	0.301
-591.967	-25.322	-0.162	0.096
-590.952	418.890	-0.105	-0.224
-589.938	-90.534	-0.200	-0.058
-588.923	-200.000	-0.037	0.209
-587.909	-200.000	-0.005	0.193
-586.894	-127.244	0.427	-0.062
-585.879	-12.140	-0.084	0.055
-584.865	-75.431	0.158	0.056
-583.850	-200.000	-0.011	-0.113
-582.836	-135.501	-0.358	0.043
-581.821	800.000	-0.084	-0.233
-580.806	-70.628	0.211	-0.080
-579.792	343.557	-0.075	-0.148
-578.777	54.120	0.165	-0.159
-577.763	-159.422	0.096	-0.005
-576.748	-34.904	0.039	0.021
-575.733	40.362	-0.163	-0.147
-574.719	700.708	0.050	-0.130
-573.704	-68.046	-0.124	0.048
-572.690	206.893	-0.154	-0.240
-571.675	-171.008	0.117	0.004
-570.661	-200.000	-0.036	0.189
-569.646	40.027	-0.065	0.058
-568.631	-200.000	0.002	-0.223
-567.617	800.000	-0.022	0.081
-566.602	-200.000	-0.067	0.343
-565.588	396.340	0.043	0.089
-564.573	142.789	-0.124	-0.165
-563.558	800.000	-0.058	-0.191
-562.544	-87.632	0.199	-0.060
-561.529	-114.814	-0.326	0.062
-560.515	342.550	-0.102	0.199
-559.500	800.000	-0.025	0.097
-558.485	-200.000	0.023	0.178
-557.471	-200.000	0.055	0.321
-556.456	355.335	0.137	-0.272
-555.442	-139.717	-0.303	0.032
-554.427	679.779	-0.052	-0.136
-553.412	-58.466	0.025	0.011
-552.398	-130.596	-0.292	0.039
-551.383	-46.308	0.257	-0.126
-550.369	-58.160	-0.180	-0.078
-549.354	113.112	0.225	-0.272
-548.339	-79.917	-0.289	0.097
-547.325	-8.065	0.036	-0.024
-546.310	-33.894	0.158	-0.087
-545.296	-165.488	0.154	-0.007
-544.281	-90.495	0.077	-0.022
-543.266	93.224	-0.218	-0.246
-542.252	-103.333	0.145	0.034
-541.237	19.316	-0.282	-0.226
-540.223	-150.775	0.390	0.030
-539.208	-182.034	0.219	0.004
-538.193	-5.635	-0.254	-0.174
-537.179	45.922	-0.058	-0.054
-536.164	-200.000	0.043	-0.209
-535.150	-82.588	-0.213	-0.069
-534.135	-63.540	0.119	0.049
-533.121	149.765	0.234	0.316
-532.106	-189.072	-0.315	0.004
-531.091	216.726	0.163	-0.259
-530.077	180.479	-0.076	0.112
-529.062	-200.000	-0.025	-0.118
-528.048	22.406	-0.071	-0.058
-527.033	49.846	-0.320	-0.301
-526.018	-130.707	-0.140	0.019
-525.004	-42.045	-0.378	0.193
-523.989	714.338	-0.092	0.244
-522.975	-123.742	-0.387	0.061
-521.960	-81.210	0.144	-0.047
-520.945	-200.000	0.037	-0.264
-519.931	-200.000	0.034	-0.249
-518.916	79.613	-0.106	0.113
-517.902	-200.000	0.038	0.188
-516.887	26.086	-0.075	-0.062
-515.872	-72.212	0.185	-0.069
-514.858	1.647	-0.335	-0.241
-513.843	-73.202	0.082	-0.030
-512.829	381.937	-0.134	-0.276
-511.814	-14.078	0.012	-0.008
-510.799	510.633	0.111	0.258
-509.785	-73.455	-0.224	0.082
-508.770	-84.330	-0.243	0.077
-507.756	-117.292	-0.525	-0.095
-506.741	343.820	0.112	0.220
-505.726	800.000	-0.042	-0.152
-504.712	-104.908	0.228	-0.052
-503.697	741.166	-0.083	-0.223
-502.683	-6.983	-0.252	-0.171
-501.668	-200.000	-0.070	-0.312
-500.653	63.177	-0.182	-0.182
-499.639	-68.573	0.165	0.064
-498.624	-200.000	0.027	0.153
-497.610	-1.118	0.202	0.143
-496.595	86.510	0.132	-0.145
-495.581	-99.861	0.069	0.017
-494.566	-133.891	0.433	-0.054
-493.551	305.941	-0.075	-0.139
-492.537	800.000	-0.053	0.172
-491.522	800.000	-0.008	-0.027
-490.508	-200.000	0.032	0.227
-489.493	-48.226	0.062	0.030
-488.478	79.520	0.092	0.098
-487.464	362.524	-0.038	-0.076
-486.449	172.315	0.154	0.220
-485.435	35.158	-0.125	-0.109
-484.420	-109.391	-0.162	-0.034
-483.405	-118.591	-0.330	0.058
-482.391	-200.000	-0.021	0.200
-481.376	-200.000	0.002	0.066
-480.362	-144.108	0.030	0.003
-479.347	800.000	-0.095	-0.279
-478.332	50.363	-0.282	-0.266
-477.318	-200.000	-0.029	0.129
-476.303	-62.262	-0.236	-0.098
-475.289	-200.000	-0.007	0.221
-474.274	121.659	-0.213	-0.265
-473.259	800.000	0.074	-0.216
-472.245	-58.820	-0.360	-0.155
-471.230	80.036	-0.084	0.090
-470.216	451.659	0.069	-0.152
-469.201	-162.420	-0.085	0.004
-468.186	-68.533	0.151	-0.058
-467.172	800.000	-0.035	-0.125
-466.157	-21.921	-0.269	0.163
-465.143	-200.000	0.017	0.279
-464.128	-33.932	0.200	0.110
-463.113	-200.000	-0.006	0.225
-462.099	59.799	-0.216	-0.213
-461.084	46.279	-0.105	0.097
-460.070	57.766	-0.019	0.018
-459.055	133.532	0.174	0.224
-458.040	-77.992	-0.321	0.110
-457.026	281.609	0.160	-0.285
-456.011	16.228	-0.037	0.029
-454.997	-200.000	-0.025	0.181
-453.982	-65.742	0.184	0.073
-452.968	99.044	-0.116	-0.134
-451.953	164.508	0.056	0.078
-450.938	-200.000	-0.051	-0.234
-449.924	24.148	-0.137	0.112
-448.909	-25.551	-0.295	-0.174
-447.895	237.205	-0.071	0.118
-446.880	-146.322	0.186	0.016
-445.865	-67.384	0.151	-0.059
-444.851	117.864	0.120	0.147
-443.836	-11.585	-0.124	0.081
-442.822	-200.000	-0.030	-0.176
-441.807	-78.595	-0.067	-0.023
-440.792	340.140	-0.166	0.322
-439.778	651.278	-0.060	0.152
-438.763	-177.514	-0.211	-0.005
-437.749	-21.295	-0.057	0.035
-436.734	-74.824	-0.286	0.102
-435.719	-41.433	0.250	-0.128
-434.705	15.066	-0.157	-0.122
-433.690	250.583	-0.131	0.221
-432.676	232.553	0.081	0.133
-431.661	-200.000	0.054	-0.336
-430.646	64.684	0.226	0.226
-429.632	-200.000	-0.008	-0.485
-428.617	342.266	0.043	-0.084
-427.603	800.000	-0.076	-0.213
-426.588	-70.041	-0.074	0.028
-425.573	-124.584	0.141	-0.022
-424.559	-60.397	0.143	0.061
-423.544	41.320	-0.131	0.118
-422.530	73.735	0.162	0.168
-421.515	132.257	0.157	-0.201
-420.500	178.036	-0.118	-0.171
-419.486	102.200	-0.032	0.037
-418.471	95.630	0.170	0.193
-417.457	161.228	-0.153	0.213
-416.442	800.000	-0.051	0.167
-415.428	-117.248	0.070	0.013
-414.413	109.899	0.283	0.338
-413.398	180.119	0.137	-0.199
-412.384	-55.776	0.244	0.109
-411.369	1.464	0.098	-0.070
-410.355	211.327	0.154	0.241
-409.340	198.673	0.054	0.082
-408.325	-200.000	-0.033	0.159
-407.311	-87.903	-0.054	0.016
-406.296	800.000	-0.078	-0.331
-405.282	-200.000	0.006	-0.166
-404.267	800.000	-0.015	0.052
-403.252	267.483	-0.174	0.303
-402.238	142.432	0.170	-0.225
-401.223	-42.437	-0.432	-0.219
-400.209	-186.226	0.181	-0.003
-399.194	-200.000	-0.025	0.111
-398.179	66.810	-0.137	0.138
-397.165	-200.000	0.053	0.576
-396.150	-200.000	-0.011	0.409
-395.136	134.075	-0.200	0.257
-394.121	-101.648	-0.057	0.014
-393.106	446.605	0.131	-0.285
-392.092	-88.454	0.208	0.062
-391.077	609.753	-0.154	-0.382
-390.063	25.095	-0.179	-0.148
-389.048	-96.395	-0.134	-0.035
-388.033	136.791	-0.202	-0.262
-387.019	-200.000	0.000	0.251
-386.004	-200.000	0.021	0.127
-384.990	309.062	0.176	-0.327
-383.975	204.335	0.120	-0.184
-382.960	-97.049	0.086	-0.022
-381.946	31.811	-0.282	0.241
-380.931	-171.398	-0.371	0.012
-379.917	-7.734	0.033	0.022
-378.902	206.280	-0.266	0.411
-377.888	-177.897	-0.254	-0.006
-376.873	-64.869	-0.204	0.082
-375.858	-25.041	-0.155	-0.091
-374.844	99.085	0.062	0.071
-373.829	47.069	-0.228	0.210
-372.815	-14.151	-0.194	0.124
-371.800	-96.587	0.201	-0.052
-370.785	131.878	-0.235	0.300
-369.771	800.000	0.063	0.199
-368.756	26.487	0.125	-0.104
-367.742	-45.494	-0.104	-0.051
-366.727	75.994	-0.183	0.192
-365.712	800.000	0.186	0.530
-364.698	89.170	-0.045	-0.050
-363.683	-187.620	0.275	0.004
-362.669	-49.150	-0.338	0.160
-361.654	204.014	0.163	0.251
-360.639	171.779	0.154	0.220
-359.625	-13.902	0.244	0.156
-358.610	-183.056	0.153	-0.003
-357.596	-200.000	0.055	-0.311
-356.581	15.238	-0.086	0.067
-355.566	-168.250	-0.072	-0.003
-354.552	-156.493	-0.459	-0.028
-353.537	203.879	-0.039	-0.060
-352.523	332.349	0.167	0.320
-351.508	-200.000	0.024	-0.152
-350.493	33.183	0.018	-0.015
-349.479	-34.102	-0.281	-0.153
-348.464	-200.000	0.013	0.225
-347.450	-93.876	0.219	-0.060
-346.435	130.867	-0.040	0.051
-345.420	16.478	-0.025	0.019
-344.406	800.000	-0.066	-0.264
-343.391	-109.668	-0.214	0.045
-342.377	-54.892	0.161	0.072
-341.362	391.595	-0.156	-0.320
-340.348	227.392	0.136	-0.219
-339.333	-62.126	0.268	0.111
-338.318	20.447	-0.213	-0.171
-337.304	-200.000	-0.060	0.521
-336.289	800.000	-0.041	-0.138
-335.275	-19.740	-0.244	-0.149
-334.260	-57.198	0.079	0.035
-333.245	-94.660	-0.124	0.033
-332.231	29.499	0.305	0.257
-331.216	-120.914	0.056	-0.009
-330.202	353.515	0.099	-0.194
-329.187	209.355	0.084	-0.131
-328.172	-200.000	-0.027	0.163
-327.158	-200.000	0.012	-0.097
-326.143	-84.931	0.128	-0.040
-325.129	-12.232	-0.182	0.118
-324.114	-128.003	0.338	-0.048
-323.099	-20.919	0.128	-0.077
-322.085	800.000	-0.065	0.252
-321.070	220.324	0.284	0.451
-320.056	-183.428	0.352	0.006
-319.041	-156.471	-0.117	-0.007
-318.026	800.000	-0.080	-0.246
-317.012	96.622	-0.137	0.155
-315.997	800.000	-0.047	-0.168
-314.983	248.700	0.038	-0.063
-313.968	34.457	0.158	-0.137
-312.953	123.134	0.156	-0.193
-311.939	-14.536	0.119	0.076
-310.924	43.168	0.137	-0.124
-309.910	-200.000	-0.054	-0.267
-308.895	800.000	-0.072	0.219
-307.880	662.776	0.085	0.217
-306.866	800.000	-0.069	-0.189
-305.851	78.555	0.047	-0.050
-304.837	524.186	-0.106	0.247
-303.822	366.202	0.140	-0.279
-302.807	156.784	-0.151	-0.206
-301.793	21.172	0.231	0.186
-300.778	-132.200	-0.078	0.010
-299.764	800.000	-0.023	-0.089
-298.749	-149.830	0.246	0.019
-297.735	262.393	0.070	-0.121
-296.720	-48.579	0.287	0.136
-295.705	800.000	0.018	0.051
-294.691	-54.598	0.258	-0.116
-293.676	-3.508	0.200	0.138
-292.662	-200.000	0.049	0.411
-291.647	-71.318	-0.135	0.050
-290.632	-108.441	-0.175	-0.037
-289.618	104.205	0.233	-0.271
-288.603	800.000	0.147	0.474
-287.589	-120.476	0.419	-0.070
-286.574	499.059	0.020	-0.046
-285.559	165.394	0.113	0.158
-284.545	-200.000	0.014	-0.288
-283.530	-141.336	0.198	0.020
-282.516	-200.000	-0.013	0.153
-281.501	221.019	0.121	-0.192
-280.486	-162.182	0.112	0.006
-279.472	-200.000	-0.057	0.289
-278.457	800.000	0.024	-0.083
-277.443	566.243	-0.124	0.297
-276.428	190.626	0.070	0.104
-275.413	-163.811	-0.218	-0.010
-274.399	-70.554	-0.065	-0.024
-273.384	-119.721	0.411	-0.070
-272.370	88.898	0.041	0.045
-271.355	-135.924	-0.277	-0.032
-270.340	-149.702	-0.028	-0.002
-269.326	-200.000	-0.012	-0.109
-268.311	60.023	0.127	-0.124
-267.297	-116.016	0.184	0.034
-266.282	-52.336	-0.280	-0.128
-265.267	-103.469	0.282	-0.065
-264.253	207.178	-0.080	0.124
-263.238	-200.000	0.007	-0.057
-262.224	-108.034	0.209	0.045
-261.209	-104.663	0.078	-0.018
-260.195	-55.251	0.230	-0.102
-259.180	-96.018	0.352	-0.093
-258.165	247.518	0.031	0.052
-257.151	-200.000	0.035	0.177
-256.136	121.817	-0.125	0.155
-255.122	-69.033	-0.277	0.105
-254.107	-34.741	-0.252	0.136
-253.092	-200.000	0.010	0.267
-252.078	-200.000	0.001	-0.075
-251.063	706.857	-0.022	-0.057
-250.049	-18.769	0.201	0.124
-249.034	-200.000	-0.033	-0.227
-248.019	-47.409	-0.052	-0.025
-247.005	-200.000	-0.017	-0.147
-245.990	-105.390	-0.118	-0.027
-244.976	-80.177	0.097	-0.032
-243.961	590.982	-0.114	-0.279
-242.946	800.000	-0.122	-0.343
-241.932	-92.036	-0.140	-0.039
-240.917	167.454	0.274	0.385
-239.903	800.000	-0.098	0.395
-238.888	159.216	0.139	0.191
-237.873	164.379	-0.059	-0.082
-236.859	-3.514	-0.122	0.084
-235.844	-155.762	0.237	-0.015
-234.830	-200.000	-0.049	-0.280
-233.815	140.054	-0.215	0.280
-232.800	-53.612	0.243	0.109
-231.786	-177.745	0.121	0.003
-230.771	800.000	0.085	0.308
-229.757	192.630	0.182	-0.271
-228.742	-124.611	0.448	-0.069
-227.727	150.707	-0.201	-0.270
-226.713	229.742	0.114	-0.184
-225.698	-200.000	-0.026	-0.373
-224.684	607.219	0.034	0.084
-223.669	-200.000	-0.028	0.151
-222.655	200.250	0.107	-0.162
-221.640	-12.074	0.372	0.240
-220.625	-200.000	-0.007	0.085
-219.611	-200.000	0.002	-0.257
-218.596	800.000	0.028	0.098
-217.582	372.004	0.068	-0.137
-216.567	-200.000	-0.002	0.180
-215.552	-82.644	0.397	-0.127
-214.538	619.505	-0.080	-0.198
-213.523	-7.793	-0.222	-0.148
-212.509	98.292	-0.100	-0.114
-211.494	-148.444	-0.326	0.026
-210.479	-200.000	0.027	0.328
-209.465	-200.000	-0.002	-0.081
-208.450	47.058	0.163	0.149
-207.436	-200.000	0.004	-0.189
-206.421	800.000	-0.048	-0.165
-205.406	800.000	0.109	-0.310
-204.392	-142.036	-0.195	0.019
-203.377	-200.000	0.004	0.048
-202.363	-39.325	-0.101	0.052
-201.348	-87.281	-0.398	0.119
-200.333	-144.393	-0.122	-0.011
-199.319	-200.000	0.014	-0.094
-198.304	800.000	0.048	0.147
-197.290	-166.824	0.184	0.007
-196.275	-200.000	0.004	-0.368
-195.260	459.131	0.126	-0.276
-194.246	74.906	-0.137	0.142
-193.231	-172.745	0.090	-0.003
-192.217	-111.532	0.306	0.061
-191.202	800.000	0.044	-0.175
-190.187	-134.257	-0.454	-0.055
-189.173	-136.674	-0.291	0.033
-188.158	-200.000	0.000	-0.054
-187.144	-200.000	0.013	0.151
-186.129	130.974	-0.175	0.221
-185.114	275.535	0.070	-0.122
-184.100	-200.000	-0.001	-0.137
-183.085	56.677	-0.185	-0.177
-182.071	800.000	-0.065	-0.263
-181.056	-77.826	0.272	0.092
-180.042	-28.500	0.254	-0.144
-179.027	-200.000	0.012	0.128
-178.012	239.546	0.092	0.151
-176.998	68.706	-0.304	-0.308
-175.983	88.323	0.113	0.124
-174.969	800.000	0.027	0.117
-173.954	800.000	0.030	0.115
-172.939	-42.207	0.094	0.047
-171.925	-57.778	0.299	0.129
-170.910	139.561	-0.142	0.184
-169.896	-108.975	0.252	0.053
-168.881	30.948	0.324	0.273
-167.866	202.430	-0.032	0.048
-166.852	-103.199	0.161	0.037
-165.837	800.000	-0.083	-0.349
-164.823	-74.520	0.182	0.065
-163.808	457.390	0.095	-0.208
-162.793	-200.000	0.048	-0.222
-161.779	105.109	-0.287	-0.333
-160.764	-74.343	0.221	0.079
-159.750	-200.000	0.014	0.246
-158.735	800.000	-0.067	0.268
-157.720	504.987	0.149	0.339
-156.706	415.747	0.059	0.124
-155.691	-200.000	0.002	-0.100
-154.677	-200.000	0.002	0.095
-153.662	405.434	0.134	0.277
-152.647	78.507	0.086	0.090
-151.633	800.000	-0.017	0.071
-150.618	-54.884	-0.366	-0.163
-149.604	191.047	0.043	0.064
-148.589	800.000	-0.132	0.373
-147.574	-110.497	-0.144	0.029
-146.560	-94.823	-0.094	-0.025
-145.545	800.000	0.049	0.146
-144.531	-128.448	-0.290	-0.040
-143.516	176.054	-0.113	-0.161
-142.502	-200.000	0.039	0.230
-141.487	-57.967	-0.266	-0.114
-140.472	-200.000	0.066	0.406
-139.458	-200.000	-0.052	0.239
-138.443	-189.408	-0.430	0.005
-137.429	-96.582	0.094	0.024
-136.414	-161.655	0.149	0.007
-135.399	82.856	-0.170	0.182
-134.385	-200.000	-0.299	-0.001
-133.370	397.397	-0.069	0.142
-132.356	-200.000	-0.018	-0.178
-131.341	155.074	-0.105	-0.141
-130.326	800.000	0.026	0.091
-129.312	162.074	0.159	-0.219
-128.297	-139.143	-0.164	-0.017
-127.283	-37.760	0.485	-0.253
-126.268	388.619	-0.170	-0.346
-125.253	163.166	-0.073	-0.101
-124.239	-200.000	0.050	-0.312
-123.224	800.000	-0.072	-0.206
-122.210	800.000	0.086	-0.320
-121.195	-22.218	-0.324	0.193
-120.180	-112.905	-0.260	0.051
-119.166	407.044	0.097	-0.202
-118.151	800.000	0.028	0.108
-117.137	165.843	0.109	-0.151
-116.122	151.540	0.195	0.261
-115.107	14.189	0.314	0.241
-114.093	800.000	-0.067	-0.280
-113.078	175.782	-0.062	0.088
-112.064	-200.000	-0.003	0.132
-111.049	309.039	0.091	0.166
-110.034	800.000	-0.039	0.145
-109.020	-200.000	0.004	-0.194
-108.005	-200.000	0.010	0.161
-106.991	-200.000	-0.004	-0.372
-105.976	438.444	-0.093	-0.199
-104.962	-200.000	0.016	-0.131
-103.947	-105.967	-0.235	-0.052
-102.932	-200.000	0.019	0.109
-101.918	113.429	-0.108	-0.129
-100.903	-8.575	0.196	0.129
-99.889	-199.075	-0.094	0.000
-98.874	-94.457	-0.350	-0.094
-97.859	-200.000	-0.021	-0.239
-96.845	-18.689	-0.264	-0.162
-95.830	800.000	-0.016	0.046
-94.816	151.649	-0.203	0.271
-93.801	2.554	-0.214	-0.152
-92.786	-43.406	0.046	-0.023
-91.772	-110.103	0.209	0.043
-90.757	800.000	0.077	0.248
-89.743	-51.101	0.309	0.142
-88.728	-200.000	0.038	0.201
-87.713	-200.000	0.017	-0.218
-86.699	-91.413	-0.313	0.088
-85.684	34.222	-0.143	0.122
-84.670	385.715	0.032	0.064
-83.655	-200.000	0.044	-0.334
-82.640	-71.040	0.180	-0.066
-81.626	-200.000	-0.023	0.181
-80.611	-15.060	0.416	-0.261
-79.597	-63.479	0.155	0.063
-78.582	-200.000	-0.001	-0.107
-77.567	800.000	0.098	0.297
-76.553	800.000	-0.075	0.315
-75.538	147.521	0.196	-0.259
-74.524	-89.419	-0.131	0.038
-73.509	-200.000	-0.010	-0.076
-72.494	-39.257	0.350	-0.180
-71.480	800.000	-0.087	0.272
-70.465	5.774	-0.259	-0.188
-69.451	-167.263	0.411	-0.016
-68.436	800.000	-0.049	-0.196
-67.422	-200.000	0.008	0.126
-66.407	53.071	-0.157	-0.147
-65.392	-110.873	-0.074	0.015
-64.378	-130.675	0.159	-0.021
-63.363	741.856	0.076	0.201
-62.349	-195.964	-0.146	0.001
-61.334	172.184	-0.960	-1.353
-60.319	221.151	0.341	0.537
-59.305	282.768	-0.577	-1.015
-58.290	400.300	0.499	1.026
-57.276	800.000	0.636	1.855
-56.261	-200.000	113.462	643.709
-55.246	469.757	1504.909	3313.305
-54.232	147.922	2667.070	3524.118
-53.217	103.543	2152.242	2475.104
-52.203	38.937	1602.822	1403.263
-51.188	30.885	1350.686	1133.709
-50.173	28.155	1312.911	1085.783
-49.159	55.719	1368.536	1299.256
-48.144	54.384	1383.164	1305.044
-47.130	31.299	1338.725	1125.987
-46.115	27.788	1321.716	1090.704
-45.100	27.528	1316.728	1084.991
-44.086	27.641	1313.889	1083.284
-43.071	27.505	1312.032	1080.900
-42.057	27.601	1309.520	1079.356
-41.042	27.614	1308.180	1078.290
-40.027	27.674	1306.292	1077.040
-39.013	27.694	1304.435	1075.589
-37.998	27.564	1302.742	1073.382
-36.984	27.732	1300.812	1072.740
-35.969	27.687	1299.150	1071.061
-34.954	27.740	1297.397	1069.886
-33.940	27.751	1296.123	1068.857
-32.925	27.690	1295.435	1067.888
-31.911	27.824	1293.175	1066.763
-30.896	27.674	1292.055	1064.926
-29.881	27.766	1291.110	1064.641
-28.867	27.908	1288.861	1063.572
-27.852	27.750	1288.628	1062.418
-26.838	27.880	1286.304	1061.215
-25.823	27.817	1285.267	1059.950
-24.809	27.790	1283.790	1058.532
-23.794	27.668	1282.766	1056.940
-22.779	27.692	1281.461	1055.963
-21.765	27.854	1279.498	1055.239
-20.750	27.804	1278.452	1054.042
-19.736	27.666	1277.393	1052.335
-18.721	27.711	1276.085	1051.474
-17.706	27.555	1275.064	1049.690
-16.692	27.589	1274.063	1049.025
-15.677	27.711	1272.814	1048.656
-14.663	27.702	1271.527	1047.501
-13.648	27.697	1270.284	1046.408
-12.633	27.650	1269.412	1045.378
-11.619	27.659	1268.940	1044.995
-10.604	27.645	1267.904	1044.024
-9.590	27.665	1267.066	1043.405
-8.575	27.748	1265.442	1042.500
-7.560	27.677	1265.191	1041.848
-6.546	27.618	1264.377	1040.798
-5.531	27.545	1263.408	1039.545
-4.517	27.672	1262.401	1039.399
-3.502	27.634	1261.776	1038.626
-2.487	27.609	1260.672	1037.533
-1.473	27.560	1256.766	1034.000
-0.458	26.131	1240.712	1012.739
0.556	21.306	1224.039	975.381
1.571	17.617	1230.616	959.796
2.586	16.757	1245.760	966.613
3.600	16.809	1234.234	957.878
4.615	15.387	1167.975	898.763
5.629	12.386	1100.891	831.891
6.644	10.561	1084.924	810.644
7.659	10.565	1081.979	808.391
8.673	10.470	1081.230	807.286
9.688	10.524	1079.543	806.223
10.702	10.672	1077.147	805.098
11.717	12.491	1079.405	815.746
12.731	15.593	1083.279	834.021
13.746	17.646	1085.611	845.947
14.761	17.729	1084.732	845.596
15.775	16.671	1083.256	839.131
16.790	15.506	1081.056	831.583
17.804	14.806	1079.591	826.919
18.819	14.461	1078.321	824.168
19.834	14.203	1077.202	821.967
20.848	13.942	1076.325	819.938
21.863	13.807	1075.272	818.400
22.877	13.755	1074.288	817.317
23.892	13.660	1073.575	816.238
24.907	13.581	1073.285	815.557
25.921	13.664	1072.146	815.028
26.936	13.667	1070.441	813.673
27.950	13.740	1069.241	813.046
28.965	13.848	1067.493	812.175
29.980	13.718	1066.437	810.663
30.994	13.879	1065.225	810.453
32.009	13.843	1064.280	809.488
33.023	13.920	1063.020	808.833
34.038	13.905	1061.907	807.843
35.053	13.652	1061.435	806.184
36.067	13.876	1059.781	805.943
37.082	13.819	1059.472	805.360
38.096	13.696	1058.938	804.288
39.111	13.717	1058.296	803.829
40.126	13.607	1056.889	802.158
41.140	13.669	1055.304	801.184
42.155	13.575	1054.205	799.826
43.169	13.442	1052.998	798.194
44.184	13.497	1051.938	797.586
45.199	13.547	1050.987	797.037
46.213	13.605	1049.535	796.144
47.228	13.683	1048.466	795.634
48.242	13.705	1047.646	795.047
49.257	13.658	1046.756	794.077
50.271	13.667	1045.960	793.447
51.286	13.655	1045.047	792.628
52.301	13.931	1043.600	792.774
53.315	13.746	1042.905	791.294
54.330	13.550	1042.006	789.607
55.344	13.619	1040.969	789.084
56.359	13.703	1040.434	789.006
57.374	13.573	1039.218	787.399
58.388	13.455	1038.812	786.459
59.403	13.456	1037.607	785.483
60.417	13.443	1036.822	784.755
61.432	13.512	1036.016	784.403
62.447	13.506	1035.292	783.756
63.461	13.526	1034.600	783.262
64.476	13.533	1033.399	782.313
65.490	13.543	1032.427	781.556
66.505	13.450	1032.043	780.756
67.520	13.499	1031.135	780.234
68.534	13.553	1030.354	779.828
69.549	13.479	1029.420	778.704
70.563	13.483	1028.881	778.243
71.578	13.399	1028.351	777.379
72.593	13.334	1027.422	776.306
73.607	13.308	1026.646	775.525
74.622	13.405	1025.779	775.257
75.636	13.403	1025.071	774.647
76.651	13.430	1024.689	774.414
77.666	13.381	1024.182	773.732
78.680	13.368	1023.372	772.994
79.695	13.476	1022.485	772.759
80.709	13.460	1021.819	772.111
81.724	13.526	1021.329	771.980
82.739	13.629	1020.455	771.733
83.753	13.631	1019.644	771.061
84.768	13.749	1018.728	770.845
85.782	13.748	1017.958	770.191
86.797	13.673	1017.114	769.138
87.812	13.681	1015.880	768.172
88.826	13.834	1014.807	768.000
89.841	13.756	1013.935	766.915
90.855	13.788	1012.967	766.259
91.870	13.771	1012.363	765.659
92.884	13.757	1011.943	765.209
93.899	13.906	1010.499	764.734
94.914	13.839	1010.205	764.135
95.928	13.937	1008.893	763.526
96.943	13.901	1008.075	762.676
97.957	13.799	1007.633	761.804
98.972	13.850	1006.290	760.955
99.987	13.818	1005.528	760.164
101.001	13.798	1004.730	759.403
102.016	13.869	1003.487	758.722
103.030	13.800	1003.238	758.149
104.045	13.840	1002.407	757.639
105.060	13.739	1001.549	756.460
106.074	13.739	1000.433	755.551
107.089	13.531	999.395	753.755
108.103	13.572	998.679	753.334
109.118	13.543	997.716	752.409
110.133	13.547	996.605	751.524
111.147	13.519	995.869	750.773
112.162	13.563	994.971	750.232
113.176	13.630	994.479	750.096
114.191	13.688	993.444	749.511
115.206	13.631	992.994	748.847
116.220	13.751	991.651	748.312
117.235	13.725	990.916	747.574
118.249	13.572	990.636	746.605
119.264	13.646	989.365	745.916
120.279	13.583	988.594	744.983
121.293	13.633	987.816	744.558
122.308	13.576	986.702	743.394
123.322	13.645	985.736	742.913
124.337	13.612	985.058	742.185
125.352	13.568	983.766	740.952
126.366	13.572	982.954	740.293
127.381	13.578	981.777	739.368
128.395	13.647	980.970	739.000
129.410	13.674	979.675	738.079
130.424	13.795	979.133	738.144
131.439	13.748	978.047	737.051
132.454	13.706	977.474	736.367
133.468	13.837	976.490	736.141
134.483	13.741	975.734	735.082
135.497	13.681	974.823	734.064
136.512	13.780	973.931	733.768
137.527	13.658	973.507	732.842
138.541	13.767	972.676	732.635
139.556	13.803	971.894	732.137
140.570	13.812	971.019	731.454
141.585	14.010	970.152	731.608
142.600	13.964	969.281	730.684
143.614	13.950	968.511	729.977
144.629	13.865	968.193	729.300
145.643	13.989	966.907	728.811
146.658	13.728	966.319	727.158
147.673	13.825	964.983	726.515
148.687	13.782	964.086	725.586
149.702	13.810	963.247	725.012
150.716	13.768	962.602	724.281
151.731	13.791	961.847	723.750
152.746	13.724	961.305	722.986
153.760	13.793	960.743	722.800
154.775	13.869	960.024	722.524
155.789	13.998	959.004	722.255
156.804	14.034	957.950	721.554
157.819	14.014	957.924	721.385
158.833	14.118	957.284	721.286
159.848	14.052	956.497	720.344
160.862	14.061	955.134	719.292
161.877	13.923	954.380	718.064
162.892	13.864	953.168	716.837
163.906	13.897	952.334	716.286
164.921	13.844	951.673	715.498
165.935	14.001	950.949	715.568
166.950	13.944	950.496	714.919
167.964	13.995	949.098	714.020
168.979	13.899	948.509	713.101
169.994	13.977	947.584	712.678
171.008	14.004	946.596	711.988
172.023	14.117	945.986	711.951
173.037	14.088	945.463	711.368
174.052	14.288	944.199	711.211
175.067	14.054	944.110	710.082
176.081	13.946	943.154	708.836
177.096	13.987	943.213	708.996
178.110	14.169	941.910	708.727
179.125	13.950	941.853	707.691
180.140	14.182	941.055	708.013
181.154	14.154	940.128	707.134
182.169	14.115	940.419	707.127
183.183	14.183	939.715	706.823
184.198	14.226	938.556	706.072
185.213	14.332	937.556	705.707
186.227	14.272	937.095	705.043
187.242	14.303	936.700	704.812
188.256	14.415	935.918	704.636
189.271	14.358	935.077	703.700
190.286	14.165	934.450	702.352
191.300	14.066	934.474	701.889
192.315	13.931	933.287	700.367
193.329	14.108	932.526	700.479
194.344	14.075	932.075	699.938
195.359	14.008	931.588	699.230
196.373	14.303	930.662	699.713
197.388	14.444	930.122	699.836
198.402	14.443	929.754	699.492
199.417	14.390	929.410	698.951
200.432	14.462	928.419	698.446
201.446	14.561	928.392	698.777
202.461	14.469	927.714	697.820
203.475	14.602	926.810	697.633
204.490	14.476	926.044	696.468
205.504	14.510	925.031	695.787
206.519	14.523	924.312	695.239
207.534	14.461	924.223	694.854
208.548	14.440	923.419	694.098
209.563	14.497	922.213	693.370
210.577	14.541	921.978	693.314
211.592	14.526	921.416	692.769
212.607	14.657	920.283	692.398
213.621	14.591	919.723	691.644
214.636	14.650	919.111	691.365
215.650	14.657	918.547	690.908
216.665	14.713	917.562	690.338
217.680	14.868	916.764	690.316
218.694	14.853	916.460	689.967
219.709	14.703	915.865	688.836
220.723	14.758	915.160	688.471
221.738	14.637	914.456	687.384
222.753	14.795	913.550	687.290
223.767	14.815	913.416	687.212
224.782	14.750	913.154	686.688
225.796	14.885	912.209	686.471
226.811	14.885	911.418	685.816
227.826	14.882	910.834	685.302
228.840	14.684	910.004	683.804
229.855	14.919	908.466	683.552
230.869	14.887	907.962	682.979
231.884	14.783	907.515	682.160
232.899	14.876	906.550	681.751
233.913	14.663	906.220	680.574
234.928	14.830	905.263	680.478
235.942	14.625	905.148	679.496
236.957	14.747	904.534	679.470
237.972	14.772	904.069	679.161
238.986	14.796	903.034	678.421
240.001	14.807	902.319	677.870
241.015	14.865	901.614	677.517
242.030	14.949	900.805	677.188
243.045	14.864	901.085	676.996
244.059	14.867	900.231	676.303
245.074	15.062	899.318	676.347
246.088	15.007	898.652	675.563
247.103	15.045	898.026	675.188
248.117	15.004	897.608	674.647
249.132	15.181	897.067	674.893
250.147	15.341	896.155	674.795
251.161	15.201	896.055	674.095
252.176	15.265	895.042	673.529
253.190	15.407	894.170	673.382
254.205	15.262	893.897	672.535
255.220	15.391	893.242	672.502
256.234	15.364	892.312	671.634
257.249	15.370	891.640	671.093
258.263	15.421	891.049	670.794
259.278	15.334	889.899	669.518
260.293	15.360	889.544	669.299
261.307	15.423	889.212	669.240
262.322	15.590	888.350	669.196
263.336	15.556	887.547	668.396
264.351	15.491	886.883	667.581
265.366	15.752	885.786	667.732
266.380	15.645	885.654	667.150
267.395	15.579	885.208	666.492
268.409	15.538	884.087	665.427
269.424	15.555	883.552	665.032
270.439	15.610	882.592	664.468
271.453	15.511	882.175	663.705
272.468	15.434	881.971	663.187
273.482	15.533	880.786	662.627
274.497	15.686	880.299	662.805
275.512	15.574	879.994	662.077
276.526	15.694	879.226	661.914
277.541	15.683	878.868	661.542
278.555	15.757	877.828	660.991
279.570	15.760	877.495	660.693
280.585	15.730	876.997	660.144
281.599	15.753	876.048	659.459
282.614	15.672	875.579	658.730
283.628	15.725	874.913	658.378
284.643	15.676	874.761	658.014
285.657	15.836	873.802	657.859
286.672	15.656	873.262	656.692
287.687	15.711	872.305	656.128
288.701	15.944	871.868	656.653
289.716	15.776	871.536	655.687
290.730	15.832	870.489	655.060
291.745	15.856	869.862	654.623
292.760	15.924	868.987	654.172
293.774	15.889	868.946	653.945
294.789	15.929	868.245	653.519
295.803	15.971	867.675	653.195
296.818	15.940	866.776	652.340
297.833	15.749	866.080	651.018
298.847	15.961	865.429	651.291
299.862	16.014	864.694	650.885
300.876	15.983	864.450	650.522
301.891	16.116	863.863	650.536
302.906	16.070	863.649	650.142
303.920	16.223	863.156	650.301
304.935	16.159	862.251	649.318
305.949	16.108	861.510	648.505
306.964	16.099	861.293	648.251
307.979	16.121	860.543	647.713
308.993	16.205	859.886	647.483
310.008	16.239	859.220	647.053
311.022	16.170	859.063	646.613
312.037	16.126	858.489	645.955
313.052	16.308	857.489	645.845
314.066	16.130	857.357	645.006
315.081	16.128	856.714	644.459
316.095	16.198	855.750	643.944
317.110	16.152	855.370	643.426
318.125	16.221	854.993	643.346
319.139	16.184	854.473	642.758
320.154	16.335	853.578	642.602
321.168	16.308	853.148	642.118
322.183	16.403	852.563	641.983
323.197	16.287	852.435	641.389
324.212	16.267	851.719	640.718
325.227	16.204	851.132	639.979
326.241	16.253	850.701	639.784
327.256	16.334	850.072	639.563
328.270	16.211	849.529	638.633
329.285	16.215	848.953	638.155
330.300	16.437	847.976	638.203
331.314	16.394	847.582	637.690
332.329	16.367	847.492	637.464
333.343	16.398	846.869	637.057
334.358	16.463	846.178	636.723
335.373	16.481	846.103	636.678
336.387	16.473	845.609	636.222
337.402	16.463	845.569	636.096
338.416	16.549	845.324	636.181
339.431	16.567	844.955	635.912
340.446	16.590	844.656	635.717
341.460	16.775	843.656	635.603
342.475	16.678	843.446	635.025
343.489	16.693	843.202	634.842
344.504	16.879	842.555	634.995
345.519	16.879	842.113	634.607
346.533	16.834	841.538	633.950
347.548	16.592	841.406	632.889
348.562	16.751	840.514	632.754
349.577	16.626	840.109	631.928
350.592	16.609	839.426	631.293
351.606	16.641	838.362	630.556
352.621	16.717	837.785	630.349
353.635	16.753	837.326	630.082
354.650	16.839	836.468	629.700
355.665	16.872	835.493	629.033
356.679	16.804	835.195	628.502
357.694	16.859	834.836	628.379
358.708	16.810	834.205	627.669
359.723	16.777	833.542	626.991
360.738	16.757	832.868	626.356
361.752	16.972	832.153	626.557
362.767	16.853	831.859	625.841
363.781	16.898	831.772	625.884
364.796	16.861	831.234	625.289
365.810	17.083	830.846	625.759
366.825	17.198	830.173	625.621
367.840	17.063	829.804	624.792
368.854	17.092	829.131	624.337
369.869	17.072	828.881	624.020
370.883	17.143	828.235	623.736
371.898	17.226	828.003	623.815
372.913	17.279	827.377	623.478
373.927	17.311	826.905	623.186
374.942	17.242	826.625	622.668
375.956	17.243	826.069	622.197
376.971	17.266	825.873	622.078
377.986	17.361	825.152	621.827
379.000	17.357	824.803	621.497
380.015	17.319	824.153	620.813
381.029	17.364	823.776	620.638
382.044	17.306	823.288	620.003
383.059	17.400	822.567	619.746
384.073	17.277	822.166	618.942
385.088	17.315	821.388	618.439
386.102	17.322	820.681	617.879
387.117	17.385	819.985	617.529
388.132	17.353	819.524	617.011
389.146	17.227	819.064	616.154
390.161	17.369	819.067	616.616
391.175	17.399	818.224	616.036
392.190	17.431	817.535	615.578
393.205	17.525	816.910	615.394
394.219	17.516	816.893	615.294
395.234	17.455	816.139	614.449
396.248	17.318	816.024	613.816
397.263	17.301	815.316	613.167
398.278	17.353	815.108	613.142
399.292	17.403	814.545	612.847
400.307	17.373	814.136	612.377
401.321	17.311	813.737	611.799
402.336	17.406	813.146	611.642
403.350	17.549	812.601	611.690
404.365	17.529	812.261	611.307
405.380	17.493	811.970	610.905
406.394	17.534	811.655	610.761
407.409	17.622	810.985	610.519
408.423	17.788	810.635	610.795
409.438	17.655	810.437	610.116
410.453	17.782	809.812	610.047
411.467	17.771	809.648	609.830
412.482	17.921	809.077	609.882
413.496	17.816	808.370	608.922
414.511	17.762	808.468	608.747
415.526	18.003	807.660	608.944
416.540	17.744	807.412	607.781
417.555	17.790	807.027	607.602
418.569	17.801	806.787	607.404
419.584	17.917	805.965	607.146
420.599	17.887	805.626	606.729
421.613	111.522	1294.642	1476.441
422.628	96.227	1365.864	1476.516
