DTS Sentinel unit serial number:	SN413079Multiplexer serial number:	ORYXHardware model number:	OX4-SRSoftware version number:	ORYX F/W v4.00 Oryx Data Collector v3.7.2.0data status	okinstallation	princeton_trtdifferential loss correction	single-endedforward channel	channel 1reverse channel	N/Adate	2019/09/12time	03:20:11forward acquisition time	60.00reverse acquisition time	0.00gamma	496.2192k internal	0.2322k external	0.2322temperature offset calibration	1.0079default loss term (dB/km)	0.3790temperature slope calibration	1.0000multiplexer offset coefficient	1.0000multiplexer slope coefficient	1.0000fibre end	0.00T internal ref (°C)	32.25T ext. ref 1 (°C)	2.14T ext. ref 2 (°C)	26.50length (m)	temperature (°C)	Stokes	anti-Stokes-747.200	-38.978	0.398	-0.212
-746.185	115.613	-0.345	0.426
-745.171	-200.000	-0.004	0.374
-744.156	651.450	-0.078	0.202
-743.142	-67.598	0.189	-0.075
-742.127	-200.000	-0.034	0.170
-741.112	210.858	-0.107	0.170
-740.098	128.064	0.328	0.422
-739.083	58.523	-0.221	0.219
-738.069	-108.151	-0.484	0.106
-737.054	-82.870	-0.178	-0.058
-736.039	-82.307	-0.099	0.033
-735.025	-200.000	0.044	-0.244
-734.010	-79.103	-0.429	-0.147
-732.996	800.000	0.019	0.066
-731.981	661.742	-0.122	0.317
-730.966	800.000	-0.058	-0.163
-729.952	-108.509	0.472	0.103
-728.937	-60.772	-0.065	0.028
-727.923	-36.911	-0.325	0.176
-726.908	-200.000	-0.011	0.089
-725.894	389.255	0.089	0.185
-724.879	800.000	0.068	0.291
-723.864	-200.000	0.022	-0.537
-722.850	800.000	-0.084	0.360
-721.835	-34.165	-0.187	-0.104
-720.821	-95.221	-0.049	-0.013
-719.806	-123.719	0.293	-0.047
-718.791	-200.000	0.023	0.261
-717.777	-21.065	-0.217	0.134
-716.762	-179.197	0.165	-0.004
-715.748	-15.430	0.087	0.056
-714.733	466.995	0.074	0.168
-713.718	-200.000	0.006	-0.212
-712.704	199.521	-0.292	-0.452
-711.689	24.731	0.329	-0.275
-710.675	-10.711	-0.498	-0.332
-709.660	-101.809	-0.298	-0.073
-708.645	276.080	-0.087	-0.155
-707.631	-200.000	-0.036	0.200
-706.616	27.507	0.064	-0.054
-705.602	526.655	-0.104	0.248
-704.587	-180.958	-0.095	0.002
-703.572	75.385	-0.293	0.311
-702.558	-107.794	-0.211	-0.046
-701.543	-22.501	-0.074	0.045
-700.529	-64.045	0.201	-0.083
-699.514	800.000	0.032	-0.108
-698.499	-200.000	0.020	-0.206
-697.485	117.308	0.081	0.100
-696.470	-146.920	0.391	0.034
-695.456	19.137	-0.042	0.034
-694.441	-76.737	-0.120	0.042
-693.426	-93.128	0.126	-0.035
-692.412	-108.189	-0.137	0.030
-691.397	423.707	0.063	-0.137
-690.383	17.525	-0.105	-0.084
-689.368	212.817	-0.137	-0.217
-688.354	-44.658	-0.109	-0.055
-687.339	-65.450	-0.109	0.044
-686.324	-0.115	0.224	-0.161
-685.310	-36.918	0.297	-0.161
-684.295	122.143	-0.137	-0.172
-683.281	-200.000	0.001	-0.300
-682.266	-8.487	-0.456	-0.309
-681.251	-22.843	0.093	-0.056
-680.237	-200.000	0.007	-0.211
-679.222	-137.732	-0.245	-0.028
-678.208	800.000	0.084	0.306
-677.193	56.334	-0.294	-0.288
-676.178	-200.000	0.003	-0.026
-675.164	235.298	-0.063	-0.104
-674.149	-200.000	0.011	-0.066
-673.135	209.998	-0.090	0.142
-672.120	800.000	0.050	0.187
-671.105	-200.000	-0.007	-0.335
-670.091	-87.216	0.225	0.069
-669.076	220.849	0.225	-0.363
-668.062	-200.000	0.004	0.185
-667.047	57.605	-0.280	-0.275
-666.032	-200.000	0.013	-0.109
-665.018	351.274	0.169	0.336
-664.003	139.424	-0.092	-0.122
-662.989	800.000	-0.127	0.359
-661.974	800.000	-0.044	-0.133
-660.959	184.796	-0.300	-0.448
-659.945	132.628	0.073	0.095
-658.930	367.449	0.114	-0.231
-657.916	-57.831	0.063	-0.028
-656.901	-94.290	0.076	0.021
-655.886	-135.225	0.336	0.041
-654.872	-143.756	-0.337	0.032
-653.857	315.898	0.142	-0.270
-652.843	-200.000	0.046	0.268
-651.828	-8.356	-0.320	0.217
-650.814	160.759	0.005	0.007
-649.799	-38.364	-0.229	0.122
-648.784	800.000	0.102	-0.298
-647.770	-200.000	0.017	-0.310
-646.755	90.429	-0.157	-0.177
-645.741	-200.000	-0.012	0.153
-644.726	208.945	-0.154	0.243
-643.711	384.711	0.147	0.305
-642.697	800.000	-0.020	-0.084
-641.682	800.000	0.121	-0.496
-640.668	-25.050	-0.278	-0.166
-639.653	796.519	-0.171	-0.475
-638.638	-65.368	-0.171	-0.069
-637.624	-60.907	0.436	-0.186
-636.609	800.000	-0.050	-0.211
-635.595	-196.902	-0.181	0.001
-634.580	84.990	0.073	0.080
-633.565	69.912	-0.075	0.078
-632.551	134.747	0.203	-0.265
-631.536	148.803	0.149	-0.203
-630.522	130.333	-0.085	0.109
-629.507	-35.879	-0.295	-0.161
-628.492	545.064	-0.142	-0.342
-627.478	39.074	-0.132	-0.119
-626.463	-200.000	0.026	0.149
-625.449	-200.000	-0.029	0.237
-624.434	369.682	0.097	0.197
-623.419	-50.566	-0.103	0.049
-622.405	237.411	0.046	0.076
-621.390	800.000	-0.049	-0.200
-620.376	-200.000	0.036	-0.217
-619.361	-200.000	-0.009	-0.059
-618.346	73.480	-0.022	-0.023
-617.332	69.232	0.132	-0.136
-616.317	725.026	-0.089	-0.239
-615.303	-200.000	0.008	0.486
-614.288	167.168	-0.190	0.271
-613.273	-56.705	-0.102	0.045
-612.259	-43.491	0.287	-0.146
-611.244	-6.962	-0.131	0.089
-610.230	97.887	-0.154	0.178
-609.215	198.435	-0.014	-0.022
-608.201	424.252	0.014	0.031
-607.186	156.268	0.154	0.214
-606.171	-25.022	0.120	-0.071
-605.157	-81.852	0.362	0.119
-604.142	-137.891	0.259	-0.029
-603.128	17.040	-0.138	0.110
-602.113	-35.937	0.190	-0.103
-601.098	85.014	-0.117	-0.129
-600.084	800.000	-0.052	-0.154
-599.069	194.824	-0.107	-0.164
-598.055	-29.189	-0.128	0.073
-597.040	-149.942	0.023	0.002
-596.025	-79.318	0.322	-0.110
-595.011	-200.000	-0.014	0.098
-593.996	800.000	-0.041	0.171
-592.982	-105.401	0.329	-0.075
-591.967	-200.000	0.003	-0.326
-590.952	281.149	-0.042	-0.076
-589.938	1.948	-0.067	-0.048
-588.923	341.663	-0.171	0.336
-587.909	6.641	-0.176	-0.131
-586.894	33.236	-0.259	-0.225
-585.879	800.000	0.044	0.146
-584.865	73.844	-0.325	0.342
-583.850	-120.910	0.240	-0.040
-582.836	-105.079	0.286	-0.066
-581.821	-115.589	-0.175	-0.033
-580.806	-82.614	0.239	-0.078
-579.792	-52.628	0.047	0.022
-578.777	-200.000	0.030	0.177
-577.763	-89.067	-0.047	0.014
-576.748	-121.318	-0.197	-0.033
-575.733	-171.239	-0.266	0.009
-574.719	-69.316	-0.091	-0.035
-573.704	22.677	-0.144	-0.119
-572.690	-200.000	0.004	-0.068
-571.675	-38.895	0.280	0.148
-570.661	-26.889	-0.273	0.160
-569.646	464.437	0.114	-0.257
-568.631	153.900	0.144	-0.197
-567.617	-9.841	-0.314	0.210
-566.602	27.011	-0.058	0.049
-565.588	3.924	0.226	0.165
-564.573	47.644	-0.125	0.117
-563.558	-164.995	0.078	-0.003
-562.544	13.605	-0.102	0.079
-561.529	466.757	-0.048	0.107
-560.515	119.696	0.066	0.082
-559.500	-10.294	0.137	0.091
-558.485	-140.393	-0.190	-0.020
-557.471	800.000	0.085	-0.251
-556.456	-200.000	-0.007	-0.245
-555.442	-108.938	0.225	0.048
-554.427	118.086	0.095	0.117
-553.412	-127.115	-0.138	0.020
-552.398	191.079	-0.027	0.041
-551.383	-200.000	-0.043	-0.304
-550.369	800.000	0.068	-0.213
-549.354	-71.892	0.350	-0.130
-548.339	176.152	-0.248	-0.361
-547.325	-77.004	-0.237	-0.083
-546.310	-64.953	-0.128	-0.052
-545.296	-34.291	0.356	0.196
-544.281	-122.220	-0.533	-0.087
-543.266	-126.378	0.265	-0.040
-542.252	-200.000	0.008	-0.178
-541.237	-44.571	-0.241	0.121
-540.223	96.796	0.342	0.392
-539.208	-147.284	-0.109	-0.009
-538.193	122.797	0.181	0.227
-537.179	800.000	-0.063	0.239
-536.164	-200.000	-0.039	0.293
-535.150	-94.755	0.059	-0.016
-534.135	-184.496	0.128	0.002
-533.121	34.020	0.156	-0.136
-532.106	96.794	-0.124	0.142
-531.091	-141.400	-0.499	-0.051
-530.077	93.873	0.068	-0.077
-529.062	-112.524	0.097	-0.019
-528.048	-200.000	0.068	-0.306
-527.033	313.587	-0.165	0.312
-526.018	-15.502	-0.190	-0.121
-525.004	50.754	0.131	-0.124
-523.989	-200.000	0.043	-0.266
-522.975	-122.784	-0.144	0.023
-521.960	42.739	-0.145	0.132
-520.945	-200.000	-0.052	0.257
-519.931	-168.775	-0.216	-0.008
-518.916	800.000	-0.062	0.187
-517.902	31.787	-0.281	-0.242
-516.887	-144.713	0.025	0.002
-515.872	73.833	-0.215	0.226
-514.858	-200.000	-0.018	-0.084
-513.843	-149.202	0.534	-0.043
-512.829	-200.000	-0.022	-0.236
-511.814	253.172	0.079	0.135
-510.799	-55.155	-0.158	-0.071
-509.785	800.000	-0.045	0.160
-508.770	619.870	0.068	0.170
-507.756	-84.890	-0.143	-0.045
-506.741	127.429	0.219	-0.278
-505.726	14.937	-0.042	0.033
-504.712	7.530	-0.113	-0.085
-503.697	191.431	-0.012	0.018
-502.683	-68.296	0.096	0.037
-501.668	134.240	0.221	-0.286
-500.653	23.645	0.078	-0.064
-499.639	61.960	0.215	0.214
-498.624	-200.000	-0.005	-0.273
-497.610	-131.383	-0.169	0.022
-496.595	589.090	-0.111	0.273
-495.581	-28.182	0.213	-0.123
-494.566	800.000	0.090	-0.372
-493.551	-194.522	0.242	-0.002
-492.537	255.770	-0.106	-0.182
-491.522	-200.000	-0.017	-0.245
-490.508	-69.560	0.417	0.160
-489.493	-120.325	-0.315	-0.054
-488.478	187.336	0.145	-0.217
-487.464	800.000	-0.047	-0.167
-486.449	-29.650	-0.286	-0.163
-485.435	201.036	-0.196	-0.301
-484.420	-200.000	-0.033	0.263
-483.405	-200.000	-0.016	0.359
-482.391	31.226	-0.065	-0.056
-481.376	-200.000	-0.012	-0.073
-480.362	-174.378	0.343	-0.010
-479.347	-21.831	-0.058	0.035
-478.332	-37.019	0.277	-0.148
-477.318	-160.487	0.172	-0.009
-476.303	800.000	0.060	-0.256
-475.289	-109.645	-0.412	-0.087
-474.274	-16.082	-0.179	0.114
-473.259	29.321	-0.044	-0.038
-472.245	480.588	-0.058	-0.131
-471.230	-152.133	0.180	-0.013
-470.216	-200.000	0.003	0.161
-469.201	97.541	0.236	-0.270
-468.186	-46.143	-0.102	0.050
-467.172	800.000	-0.062	0.203
-466.157	800.000	0.057	-0.191
-465.143	-144.895	-0.270	-0.025
-464.128	277.319	0.102	-0.182
-463.113	-200.000	-0.027	0.164
-462.099	20.029	-0.052	-0.042
-461.084	-42.975	0.203	0.103
-460.070	-112.927	-0.354	0.070
-459.055	197.452	0.163	0.249
-458.040	-62.791	-0.287	-0.119
-457.026	265.840	0.023	0.039
-456.011	-44.749	0.237	-0.118
-454.997	570.710	-0.034	0.083
-453.982	123.768	-0.148	0.185
-452.968	-38.868	-0.280	0.147
-451.953	311.147	-0.130	0.243
-450.938	-65.972	0.109	0.043
-449.924	-200.000	-0.009	0.052
-448.909	85.454	0.257	-0.281
-447.895	800.000	-0.070	-0.207
-446.880	-200.000	0.011	-0.074
-445.865	-200.000	-0.020	-0.103
-444.851	-59.291	0.104	-0.045
-443.836	-75.103	0.209	-0.075
-442.822	-118.662	0.268	-0.047
-441.807	345.897	-0.053	0.103
-440.792	118.690	-0.121	-0.149
-439.778	45.498	-0.194	0.179
-438.763	-59.297	-0.217	0.093
-437.749	559.061	0.041	-0.099
-436.734	-200.000	0.012	-0.128
-435.719	800.000	-0.074	0.280
-434.705	-200.000	0.025	-0.129
-433.690	320.593	-0.049	0.093
-432.676	-60.826	-0.279	-0.118
-431.661	236.666	0.101	0.167
-430.646	-69.940	0.231	0.088
-429.632	-14.901	-0.214	-0.137
-428.617	800.000	0.151	-0.476
-427.603	-200.000	-0.045	-0.396
-426.588	-200.000	-0.044	-0.274
-425.573	181.301	-0.146	0.213
-424.559	-5.628	-0.286	-0.196
-423.544	139.021	-0.023	0.030
-422.530	61.289	-0.050	-0.050
-421.515	-109.476	-0.152	0.032
-420.500	-44.558	-0.107	-0.053
-419.486	-200.000	0.033	0.151
-418.471	321.497	-0.043	0.082
-417.457	34.639	0.322	-0.281
-416.442	-74.114	-0.356	-0.128
-415.428	-174.014	0.094	0.003
-414.413	19.665	-0.226	-0.182
-413.398	-103.667	-0.339	0.079
-412.384	-200.000	0.014	0.081
-411.369	-200.000	0.067	-0.326
-410.355	-125.230	-0.142	-0.022
-409.340	-63.186	-0.114	-0.047
-408.325	140.969	0.091	0.120
-407.311	-3.446	0.204	0.142
-406.296	526.305	0.009	-0.022
-405.282	800.000	-0.061	-0.177
-404.267	176.374	0.089	0.129
-403.252	-99.450	0.073	0.018
-402.238	-200.000	0.021	-0.148
-401.223	75.414	0.070	0.074
-400.209	40.529	0.128	0.115
-399.194	800.000	0.050	-0.159
-398.179	-51.050	-0.277	0.129
-397.165	21.206	0.249	-0.201
-396.150	588.518	0.120	-0.295
-395.136	-49.825	0.203	0.096
-394.121	-65.194	-0.263	-0.105
-393.106	142.411	0.261	-0.345
-392.092	134.289	-0.156	0.202
-391.077	-29.784	-0.293	0.166
-390.063	-80.233	-0.040	-0.013
-389.048	800.000	0.055	0.153
-388.033	-153.402	0.227	0.016
-387.019	82.787	-0.159	0.172
-386.004	-88.439	-0.049	-0.015
-384.990	-52.035	-0.219	-0.101
-383.975	-89.334	0.437	-0.128
-382.960	115.810	-0.147	0.179
-381.946	-42.188	0.139	0.071
-380.931	456.693	0.032	-0.071
-379.917	-200.000	-0.030	-0.326
-378.902	392.442	0.142	0.294
-377.888	53.538	0.093	0.089
-376.873	-200.000	-0.055	0.285
-375.858	-200.000	0.087	0.405
-374.844	-200.000	0.039	-0.220
-373.829	24.677	0.095	0.078
-372.815	667.058	-0.138	-0.355
-371.800	-69.656	-0.202	0.077
-370.785	-200.000	0.017	-0.079
-369.771	800.000	-0.045	-0.125
-368.756	449.115	-0.086	0.189
-367.742	-177.967	0.106	-0.003
-366.727	184.930	-0.131	0.193
-365.712	71.839	0.233	-0.242
-364.698	715.872	0.074	-0.195
-363.683	63.795	0.087	0.087
-362.669	-24.136	0.218	0.130
-361.654	-2.440	-0.100	0.070
-360.639	-43.159	-0.166	-0.084
-359.625	154.117	-0.118	0.161
-358.610	-200.000	-0.032	0.290
-357.596	139.276	-0.093	0.122
-356.581	-22.831	0.185	0.111
-355.566	-73.432	-0.217	-0.079
-354.552	235.356	0.164	-0.270
-353.537	-137.327	-0.064	0.007
-352.523	-52.273	0.183	-0.084
-351.508	-117.847	0.288	-0.051
-350.493	-170.535	0.315	0.011
-349.479	311.248	-0.065	0.120
-348.464	-99.404	0.190	-0.048
-347.450	-1.520	0.066	-0.046
-346.435	35.104	-0.311	-0.271
-345.420	800.000	0.048	0.157
-344.406	-200.000	0.051	0.340
-343.391	-34.953	0.162	0.088
-342.377	-200.000	0.023	-0.141
-341.362	-200.000	-0.034	-0.290
-340.348	3.532	0.084	-0.061
-339.333	-80.022	0.315	0.105
-338.318	-200.000	0.031	0.436
-337.304	-142.593	0.198	0.019
-336.289	-200.000	0.012	0.142
-335.275	-200.000	0.367	0.001
-334.260	-175.070	0.131	0.004
-333.245	511.545	0.058	0.133
-332.231	-102.709	0.313	0.074
-331.216	-173.287	0.275	0.008
-330.202	12.124	-0.078	0.060
-329.187	73.746	-0.167	0.174
-328.172	113.235	-0.205	0.247
-327.158	-200.000	-0.002	0.087
-326.143	716.647	0.070	0.184
-325.129	800.000	-0.012	0.036
-324.114	39.992	0.095	0.085
-323.099	-123.826	0.249	-0.039
-322.085	-115.206	-0.271	0.051
-321.070	-200.000	-0.016	0.272
-320.056	-120.295	0.349	0.059
-319.041	-200.000	0.006	0.496
-318.026	-4.261	0.060	-0.041
-317.012	-193.707	0.317	-0.003
-315.997	-200.000	0.012	0.314
-314.983	30.483	0.152	0.129
-313.968	87.218	-0.046	0.051
-312.953	800.000	0.106	-0.407
-311.939	125.251	-0.249	-0.312
-310.924	-200.000	0.006	-0.157
-309.910	800.000	-0.048	0.157
-308.895	-47.725	-0.358	-0.172
-307.880	536.165	-0.073	0.173
-306.866	800.000	0.057	0.178
-305.851	-200.000	0.051	0.293
-304.837	-50.586	0.395	0.185
-303.822	88.233	-0.111	0.123
-302.807	311.233	-0.067	0.125
-301.793	48.356	-0.152	-0.142
-300.778	-47.597	-0.185	0.089
-299.764	-142.757	0.479	0.046
-298.749	92.603	0.080	-0.090
-297.735	-200.000	0.049	0.215
-296.720	15.799	-0.059	0.046
-295.705	-200.000	-0.071	0.417
-294.691	-142.827	-0.301	0.029
-293.676	-200.000	0.027	0.278
-292.662	24.096	0.096	0.079
-291.647	42.521	-0.144	0.130
-290.632	68.814	-0.079	-0.080
-289.618	800.000	-0.091	-0.249
-288.603	127.382	0.030	0.038
-287.589	-200.000	0.034	0.604
-286.574	438.072	0.031	-0.067
-285.559	110.277	-0.127	0.151
-284.545	29.333	0.308	0.260
-283.530	-4.670	-0.271	-0.185
-282.516	-50.641	0.096	-0.045
-281.501	91.868	0.290	-0.324
-280.486	800.000	0.061	0.242
-279.472	85.239	0.103	0.112
-278.457	-200.000	-0.017	-0.153
-277.443	-140.331	-0.319	-0.033
-276.428	593.331	0.043	-0.105
-275.413	-55.178	-0.195	-0.087
-274.399	700.124	-0.121	0.316
-273.384	-167.186	-0.294	0.012
-272.370	45.296	0.127	0.116
-271.355	-169.456	0.154	-0.006
-270.340	82.151	-0.121	-0.130
-269.326	800.000	-0.085	-0.279
-268.311	112.114	-0.157	0.188
-267.297	800.000	0.065	-0.231
-266.282	-64.201	-0.151	0.061
-265.267	-178.761	-0.108	-0.002
-264.253	52.831	-0.145	0.138
-263.238	-172.553	0.287	0.009
-262.224	-135.820	0.066	-0.008
-261.209	-76.609	-0.364	0.127
-260.195	30.132	0.116	0.098
-259.180	-103.438	0.076	0.018
-258.165	454.423	0.064	0.142
-257.151	-72.098	0.123	0.045
-256.136	-54.524	0.049	0.022
-255.122	800.000	-0.018	0.052
-254.107	654.402	-0.059	0.150
-253.092	-130.605	-0.261	0.035
-252.078	-124.790	0.049	0.008
-251.063	800.000	-0.097	0.273
-250.049	-86.419	0.099	0.030
-249.034	-200.000	-0.079	0.431
-248.019	295.044	0.065	0.118
-247.005	-116.501	-0.295	0.054
-245.990	305.646	0.267	0.491
-244.976	251.519	0.052	-0.088
-243.961	796.670	0.019	0.051
-242.946	715.042	-0.075	0.196
-241.932	-85.929	0.087	-0.027
-240.917	800.000	-0.044	0.172
-239.903	7.232	-0.435	0.322
-238.888	226.391	-0.193	0.310
-237.873	-41.594	0.214	0.109
-236.859	359.405	0.057	-0.114
-235.844	800.000	0.122	-0.361
-234.830	-130.905	0.429	-0.057
-233.815	-200.000	0.030	-0.363
-232.800	57.662	0.281	-0.272
-231.786	-110.592	-0.265	0.054
-230.771	329.755	-0.077	0.147
-229.757	800.000	0.038	-0.121
-228.742	167.396	0.093	0.131
-227.727	-129.512	-0.165	-0.023
-226.713	65.478	-0.124	-0.124
-225.698	164.122	0.049	0.068
-224.684	-200.000	-0.038	-0.422
-223.669	800.000	-0.045	0.159
-222.655	62.737	-0.064	-0.064
-221.640	800.000	0.057	0.192
-220.625	119.502	0.152	0.186
-219.611	-200.000	0.024	-0.221
-218.596	78.319	0.161	-0.170
-217.582	3.675	-0.166	-0.120
-216.567	0.485	0.107	0.076
-215.552	800.000	-0.009	0.035
-214.538	800.000	-0.135	-0.428
-213.523	-119.632	0.369	-0.063
-212.509	-14.161	0.207	0.132
-211.494	293.344	0.171	0.309
-210.479	-136.831	-0.058	0.007
-209.465	-155.306	-0.176	-0.011
-208.450	16.456	-0.118	0.092
-207.436	-24.712	0.178	0.105
-206.421	-51.424	-0.213	0.098
-205.406	-200.000	0.033	-0.180
-204.392	-161.739	-0.099	-0.005
-203.377	347.041	0.157	-0.306
-202.363	109.464	0.129	-0.153
-201.348	71.097	0.218	-0.224
-200.333	800.000	0.008	0.028
-199.319	800.000	0.050	-0.204
-198.304	-130.390	0.181	-0.024
-197.290	800.000	0.074	0.297
-196.275	-200.000	0.101	0.439
-195.260	-89.863	-0.167	-0.048
-194.246	14.695	-0.194	-0.150
-193.231	10.140	0.120	-0.090
-192.217	-200.000	0.008	-0.182
-191.202	45.728	-0.237	-0.217
-190.187	-112.074	-0.065	-0.013
-189.173	-41.825	-0.383	0.194
-188.158	-87.583	0.304	0.091
-187.144	139.688	0.102	0.133
-186.129	-139.890	0.381	-0.040
-185.114	-200.000	-0.030	-0.324
-184.100	-200.000	0.032	-0.142
-183.085	-200.000	-0.010	-0.143
-182.071	122.693	0.178	0.220
-181.056	-136.016	-0.069	-0.008
-180.042	254.750	0.191	0.323
-179.027	-28.807	0.117	-0.066
-178.012	200.216	-0.225	-0.342
-176.998	-75.247	0.135	0.048
-175.983	-119.634	0.040	0.007
-174.969	-60.142	-0.252	0.106
-173.954	-200.000	0.044	-0.304
-172.939	74.459	-0.240	-0.249
-171.925	38.361	-0.113	-0.100
-170.910	-81.919	-0.165	-0.053
-169.896	70.559	-0.073	-0.074
-168.881	800.000	-0.040	-0.135
-167.866	-54.542	-0.219	0.098
-166.852	399.868	-0.036	-0.075
-165.837	151.306	-0.234	0.315
-164.823	-200.000	-0.025	0.482
-163.808	5.022	0.125	-0.091
-162.793	-200.000	0.015	0.260
-161.779	800.000	0.066	0.271
-160.764	46.521	-0.041	0.037
-159.750	-108.197	-0.182	-0.039
-158.735	-152.581	0.250	-0.018
-157.720	800.000	-0.045	-0.187
-156.706	-49.720	-0.235	-0.110
-155.691	800.000	0.152	-0.477
-154.677	-200.000	-0.056	-0.281
-153.662	800.000	0.024	0.071
-152.647	-166.101	0.379	0.016
-151.633	494.700	-0.059	-0.134
-150.618	-63.452	0.113	0.046
-149.604	800.000	0.054	0.168
-148.589	-200.000	-0.019	0.196
-147.574	38.163	0.114	0.100
-146.560	-44.384	-0.341	0.169
-145.545	-102.395	0.189	-0.045
-144.531	256.015	-0.017	0.029
-143.516	-39.929	0.178	-0.092
-142.502	62.254	-0.193	0.190
-141.487	-52.105	-0.401	-0.184
-140.472	-79.387	-0.097	-0.032
-139.458	-176.281	-0.176	0.005
-138.443	-91.677	-0.240	-0.067
-137.429	8.035	0.234	0.173
-136.414	-167.620	0.269	0.011
-135.399	-48.093	-0.256	-0.122
-134.385	272.106	-0.166	-0.289
-133.370	-97.950	0.483	0.123
-132.356	-168.326	0.160	0.006
-131.341	-146.437	0.147	0.013
-130.326	104.831	-0.116	-0.135
-129.312	108.644	0.221	-0.260
-128.297	-136.473	0.214	-0.025
-127.283	84.057	-0.184	0.198
-126.268	3.526	-0.174	0.125
-125.253	572.036	0.062	-0.149
-124.239	152.315	0.047	0.064
-123.224	-200.000	-0.016	0.256
-122.210	-200.000	-0.010	0.057
-121.195	800.000	0.099	-0.358
-120.180	486.546	-0.096	-0.216
-119.166	-200.000	0.002	-0.111
-118.151	-94.641	-0.171	0.046
-117.137	-200.000	0.022	0.150
-116.122	-16.730	-0.401	0.250
-115.107	-200.000	-0.016	0.201
-114.093	-54.600	-0.080	-0.035
-113.078	553.692	0.135	0.320
-112.064	54.513	0.304	-0.289
-111.049	-160.901	-0.253	0.013
-110.034	800.000	0.016	-0.066
-109.020	800.000	0.032	-0.129
-108.005	-144.683	0.362	0.033
-106.991	800.000	0.023	0.073
-105.976	800.000	0.041	-0.121
-104.962	-84.159	0.505	-0.158
-103.947	-34.400	-0.117	-0.063
-102.932	201.869	-0.128	0.195
-101.918	39.671	0.126	0.112
-100.903	800.000	-0.012	0.044
-99.889	117.283	-0.112	-0.136
-98.874	-173.242	0.042	0.001
-97.859	-117.373	0.285	-0.051
-96.845	-140.179	-0.258	-0.027
-95.830	-111.091	0.122	0.025
-94.816	800.000	-0.046	0.178
-93.801	-72.405	0.203	0.074
-92.786	-200.000	0.023	-0.120
-91.772	-75.381	-0.202	0.071
-90.757	4.084	0.404	0.291
-89.743	641.289	-0.061	0.153
-88.728	271.887	-0.166	0.288
-87.713	-195.317	0.162	0.001
-86.699	-114.971	0.060	0.011
-85.684	-183.486	0.261	-0.004
-84.670	-149.094	-0.369	0.029
-83.655	-154.890	-0.080	0.005
-82.640	-200.000	-0.012	-0.094
-81.626	586.785	-0.046	-0.113
-80.611	-5.515	-0.186	-0.126
-79.597	-9.636	-0.218	-0.143
-78.582	71.991	-0.077	0.079
-77.567	-200.000	0.056	-0.374
-76.553	-200.000	0.055	0.333
-75.538	25.455	0.242	-0.198
-74.524	735.182	0.095	-0.250
-73.509	63.407	0.206	0.203
-72.494	597.487	-0.048	-0.116
-71.480	-18.677	0.275	-0.169
-70.465	-92.041	0.187	-0.052
-69.451	113.145	-0.237	-0.283
-68.436	-70.227	-0.125	-0.047
-67.422	-138.915	-0.047	-0.005
-66.407	-183.431	0.222	-0.004
-65.392	509.321	-0.103	-0.236
-64.378	-83.334	0.097	0.031
-63.363	-96.720	0.198	0.051
-62.349	71.623	0.234	0.239
-61.334	39.056	-1.120	-0.985
-60.319	18.334	0.513	0.403
-59.305	-200.000	-0.079	-1.108
-58.290	218.991	0.585	0.919
-57.276	424.404	0.829	1.754
-56.261	-200.000	95.489	592.973
-55.246	572.604	1362.276	3264.218
-54.232	163.374	2536.250	3506.007
-53.217	113.453	2134.866	2548.157
-52.203	44.086	1600.071	1442.407
-51.188	35.814	1338.666	1157.220
-50.173	32.601	1297.126	1102.499
-49.159	53.997	1344.742	1270.917
-48.144	56.436	1360.741	1300.503
-47.130	36.041	1319.553	1141.863
-46.115	32.435	1302.066	1105.551
-45.100	32.221	1297.373	1100.268
-44.086	32.156	1295.276	1098.064
-43.071	32.181	1292.759	1096.036
-42.057	32.135	1290.326	1093.660
-41.042	32.128	1288.871	1092.343
-40.027	32.126	1287.529	1091.152
-39.013	32.123	1285.190	1089.107
-37.998	32.251	1283.533	1088.402
-36.984	32.233	1281.975	1086.936
-35.969	32.250	1280.377	1085.633
-34.954	32.269	1278.565	1084.167
-33.940	32.387	1276.806	1083.311
-32.925	32.340	1275.891	1082.218
-31.911	32.275	1274.171	1080.347
-30.896	32.288	1272.731	1079.153
-29.881	32.407	1271.395	1078.662
-28.867	32.307	1270.252	1077.078
-27.852	32.459	1268.413	1076.345
-26.838	32.350	1267.503	1074.903
-25.823	32.333	1265.941	1073.441
-24.809	32.319	1264.803	1072.356
-23.794	32.263	1263.635	1071.002
-22.779	32.239	1262.104	1069.526
-21.765	32.441	1260.812	1069.538
-20.750	32.339	1259.464	1067.770
-19.736	32.388	1257.573	1066.401
-18.721	32.210	1256.941	1064.817
-17.706	32.122	1256.169	1063.623
-16.692	32.211	1254.615	1062.770
-15.677	32.288	1253.255	1062.009
-14.663	32.142	1252.816	1060.767
-13.648	32.204	1251.542	1059.997
-12.633	32.124	1250.570	1058.681
-11.619	32.178	1249.721	1058.226
-10.604	32.135	1248.816	1057.174
-9.590	32.190	1247.712	1056.509
-8.575	32.234	1246.606	1055.778
-7.560	32.135	1245.939	1054.617
-6.546	32.130	1245.473	1054.150
-5.531	32.171	1243.876	1052.984
-4.517	32.259	1243.160	1052.833
-3.502	32.199	1242.768	1052.119
-2.487	32.157	1241.618	1050.872
-1.473	32.100	1237.514	1047.040
-0.458	30.647	1222.602	1026.372
0.556	27.819	1205.532	990.261
1.571	24.471	1211.883	977.099
2.586	23.648	1227.424	984.976
3.600	23.240	1215.999	973.477
4.615	17.065	1143.794	883.549
5.629	6.992	1067.179	775.146
6.644	2.473	1046.718	738.452
7.659	2.080	1043.871	734.491
8.673	2.025	1042.749	733.369
9.688	1.984	1041.118	731.962
10.702	2.329	1040.597	733.186
11.717	9.185	1049.488	772.444
12.731	19.230	1063.640	831.516
13.746	24.226	1070.094	860.679
14.761	25.310	1071.077	866.632
15.775	25.444	1070.454	866.695
16.790	25.088	1069.991	864.528
17.804	25.055	1069.531	863.922
18.819	25.196	1068.948	864.052
19.834	25.238	1068.425	863.755
20.848	25.317	1068.029	863.737
21.863	25.352	1067.562	863.452
22.877	25.399	1066.876	863.046
23.892	25.238	1066.182	861.639
24.907	25.355	1065.311	861.416
25.921	25.140	1064.560	859.703
26.936	25.252	1063.077	858.965
27.950	25.213	1061.580	857.494
28.965	25.061	1059.886	855.324
29.980	25.232	1058.237	854.733
30.994	25.336	1057.798	854.799
32.009	25.432	1056.489	854.120
33.023	25.152	1055.215	851.685
34.038	25.259	1054.547	851.578
35.053	25.394	1054.019	851.719
36.067	25.368	1053.175	850.837
37.082	25.466	1052.138	850.386
38.096	25.588	1051.636	850.484
39.111	25.517	1051.311	849.812
40.126	25.532	1049.295	848.176
41.140	25.106	1047.906	844.970
42.155	24.952	1046.472	843.017
43.169	24.847	1045.866	841.958
44.184	25.094	1044.714	842.116
45.199	24.969	1043.777	840.700
46.213	24.930	1042.798	839.655
47.228	25.095	1042.545	840.149
48.242	25.231	1041.382	839.777
49.257	25.346	1040.620	839.623
50.271	25.337	1039.950	838.967
51.286	25.280	1039.470	838.242
52.301	25.370	1038.315	837.654
53.315	25.294	1037.325	836.427
54.330	25.171	1036.814	835.368
55.344	25.351	1035.467	835.047
56.359	25.337	1034.692	834.283
57.374	25.109	1034.222	832.771
58.388	25.064	1033.302	831.746
59.403	25.014	1032.337	830.665
60.417	24.961	1031.277	829.493
61.432	24.889	1031.126	828.965
62.447	25.171	1030.092	829.364
63.461	25.075	1029.935	828.723
64.476	24.940	1028.725	827.048
65.490	24.918	1027.541	825.924
66.505	25.039	1026.909	825.902
67.520	25.130	1026.281	825.742
68.534	24.780	1025.211	823.199
69.549	24.581	1024.409	821.563
70.563	24.522	1023.732	820.676
71.578	24.448	1022.943	819.632
72.593	24.354	1021.753	818.175
73.607	24.549	1020.867	818.288
74.622	24.804	1020.908	819.417
75.636	24.939	1019.945	819.189
76.651	24.709	1019.449	817.666
77.666	24.789	1018.090	816.870
78.680	24.837	1017.967	816.918
79.695	24.914	1017.197	816.578
80.709	24.809	1017.098	815.947
81.724	24.932	1016.023	815.574
82.739	24.975	1015.269	815.089
83.753	25.320	1014.894	816.286
84.768	25.561	1014.060	816.638
85.782	25.769	1012.860	816.544
86.797	25.491	1012.225	814.699
87.812	25.375	1011.361	813.406
88.826	25.406	1010.749	812.985
89.841	25.569	1009.490	812.638
90.855	25.607	1008.504	811.943
91.870	25.460	1007.954	810.764
92.884	25.319	1006.709	809.053
93.899	25.525	1005.284	808.766
94.914	25.672	1004.731	808.909
95.928	25.364	1004.187	807.017
96.943	25.064	1002.508	804.248
97.957	24.874	1001.582	802.582
98.972	24.697	1000.948	801.211
99.987	25.063	999.598	801.695
101.001	25.262	999.067	802.092
102.016	25.260	997.956	801.118
103.030	25.251	996.993	800.233
104.045	25.111	996.120	798.836
105.060	24.954	995.081	797.238
106.074	25.045	994.900	797.425
107.089	25.437	994.309	798.624
108.103	25.236	993.180	796.753
109.118	25.032	992.156	794.957
110.133	25.003	991.030	793.854
111.147	24.898	989.483	792.084
112.162	24.787	988.907	791.061
113.176	25.142	988.266	792.045
114.191	24.979	987.467	790.617
115.206	24.717	986.133	788.321
116.220	24.513	985.896	787.167
117.235	24.868	984.853	787.825
118.249	24.719	984.225	786.599
119.264	24.644	983.395	785.536
120.279	24.692	982.576	785.022
121.293	24.786	981.760	784.713
122.308	24.741	980.911	783.766
123.322	24.747	979.521	782.616
124.337	24.533	978.271	780.612
125.352	23.938	977.217	777.101
126.366	23.984	976.249	776.462
127.381	24.901	975.902	780.117
128.395	25.271	975.907	781.664
129.410	25.357	974.332	780.708
130.424	25.308	973.736	779.949
131.439	25.271	972.774	778.948
132.454	25.232	972.179	778.233
133.468	25.135	971.214	776.973
134.483	25.229	970.469	776.715
135.497	25.487	969.521	777.002
136.512	25.473	969.006	776.460
137.527	25.595	967.799	775.951
138.541	25.508	967.241	775.060
139.556	25.355	966.760	773.946
140.570	25.562	965.793	773.993
141.585	25.572	964.932	773.278
142.600	25.431	963.692	771.614
143.614	25.592	963.150	771.801
144.629	25.865	962.034	772.008
145.643	25.615	961.110	770.127
146.658	25.527	959.465	768.364
147.673	25.402	958.880	767.293
148.687	25.167	957.957	765.487
149.702	25.161	956.968	764.603
150.716	25.195	955.932	763.851
151.731	25.398	955.286	764.132
152.746	25.588	955.103	764.724
153.760	25.647	954.071	764.081
154.775	25.811	953.211	764.021
155.789	25.709	952.441	762.905
156.804	25.657	951.919	762.200
157.819	25.753	951.144	761.918
158.833	25.820	950.643	761.731
159.848	25.805	949.195	760.441
160.862	25.582	948.278	758.697
161.877	25.732	946.972	758.218
162.892	25.699	946.536	757.661
163.906	25.535	945.302	755.919
164.921	25.703	944.264	755.728
165.935	25.691	943.651	755.122
166.950	25.623	942.581	753.912
167.964	25.620	941.600	753.050
168.979	25.486	940.848	751.820
169.994	25.509	939.397	750.688
171.008	25.711	939.039	751.181
172.023	25.695	938.357	750.500
173.037	25.561	937.074	748.852
174.052	25.308	936.648	747.391
175.067	25.422	935.778	747.102
176.081	25.488	935.382	746.997
177.096	25.368	934.638	745.838
178.110	25.121	933.627	743.940
179.125	25.110	933.058	743.376
180.140	25.244	932.483	743.408
181.154	25.225	932.573	743.334
182.169	25.452	932.473	744.130
183.183	25.674	931.694	744.359
184.198	25.448	931.182	742.950
185.213	25.591	930.241	742.725
186.227	25.843	929.188	742.855
187.242	25.750	928.809	742.103
188.256	25.807	928.015	741.640
189.271	25.925	927.248	741.448
190.286	25.436	926.322	738.629
191.300	24.710	925.133	734.635
192.315	23.886	923.708	730.057
193.329	23.995	922.859	729.770
194.344	24.912	923.552	734.014
195.359	25.546	923.420	736.440
196.373	25.601	923.126	736.367
197.388	25.573	922.265	735.499
198.402	25.521	921.546	734.649
199.417	25.396	921.303	733.879
200.432	25.311	919.999	732.429
201.446	25.055	919.574	730.982
202.461	25.248	918.337	730.720
203.475	24.218	916.960	725.369
204.490	23.578	915.457	721.516
205.504	24.426	915.848	725.207
206.519	25.088	915.784	727.782
207.534	25.208	915.370	727.875
208.548	25.676	914.997	729.410
209.563	25.365	914.359	727.580
210.577	25.323	914.088	727.128
211.592	25.658	913.532	727.978
212.607	25.722	912.480	727.333
213.621	25.754	911.835	726.885
214.636	25.769	911.111	726.303
215.650	25.682	910.243	725.195
216.665	25.707	910.103	725.120
217.680	25.608	909.538	724.210
218.694	25.234	908.246	721.612
219.709	25.239	906.931	720.523
220.723	25.470	906.789	721.272
221.738	25.526	906.566	721.256
222.753	25.519	905.690	720.469
223.767	25.653	905.265	720.602
224.782	25.906	905.223	721.520
225.796	25.784	904.731	720.575
226.811	25.165	903.147	716.778
227.826	24.427	901.851	712.738
228.840	24.722	901.275	713.396
229.855	24.753	900.635	712.950
230.869	24.463	899.634	710.939
231.884	24.854	899.542	712.362
232.899	25.707	899.274	715.480
233.913	25.447	898.881	714.072
234.928	25.422	898.262	713.417
235.942	25.430	897.374	712.679
236.957	25.161	896.350	710.738
237.972	25.129	896.214	710.440
238.986	25.218	895.677	710.303
240.001	25.190	895.019	709.607
241.015	25.431	894.283	709.915
242.030	25.529	893.950	709.975
243.045	25.573	893.659	709.855
244.059	25.694	893.737	710.329
245.074	25.404	892.281	707.968
246.088	25.116	891.256	705.956
247.103	25.487	890.850	707.035
248.117	25.977	891.620	709.509
249.132	26.264	890.775	709.904
250.147	26.237	890.613	709.607
251.161	26.416	890.050	709.796
252.176	26.366	889.361	708.988
253.190	26.563	888.828	709.274
254.205	26.625	888.611	709.278
255.220	26.662	887.744	708.668
256.234	26.531	886.582	707.169
257.249	26.218	886.156	705.541
258.263	26.387	885.433	705.563
259.278	26.594	884.900	705.883
260.293	26.547	884.559	705.365
261.307	26.407	883.868	704.208
262.322	26.068	883.120	702.229
263.336	25.442	880.608	697.741
264.351	24.364	879.182	692.366
265.366	24.554	878.820	692.759
266.380	25.678	879.737	697.780
267.395	26.079	879.480	699.068
268.409	25.935	878.735	697.858
269.424	26.196	878.121	698.319
270.439	26.268	877.772	698.255
271.453	26.302	877.112	697.802
272.468	26.604	876.657	698.544
273.482	26.674	876.048	698.264
274.497	26.187	874.707	695.259
275.512	25.779	874.206	693.230
276.526	26.141	874.359	694.685
277.541	26.274	873.943	694.804
278.555	25.972	873.047	692.867
279.570	26.010	872.062	692.172
280.585	26.218	871.505	692.467
281.599	26.091	870.459	691.088
282.614	25.566	869.456	688.221
283.628	25.528	868.992	687.647
284.643	25.953	868.568	688.874
285.657	25.445	867.466	686.001
286.672	25.194	866.722	684.397
287.687	25.833	867.063	687.042
288.701	25.860	866.088	686.309
289.716	25.529	865.370	684.420
290.730	25.575	864.802	684.086
291.745	25.067	863.769	681.279
292.760	25.549	863.581	682.903
293.774	26.542	864.054	686.986
294.789	26.858	863.819	687.938
295.803	26.728	863.206	686.895
296.818	26.904	862.457	686.904
297.833	26.402	861.381	684.087
298.847	26.421	860.560	683.450
299.862	26.630	860.559	684.176
300.876	26.902	860.276	684.916
301.891	26.698	859.561	683.519
302.906	26.190	858.888	681.007
303.920	26.432	858.411	681.479
304.935	26.678	858.237	682.208
305.949	26.660	857.261	681.305
306.964	26.535	856.353	680.053
307.979	26.593	856.140	680.041
308.993	26.779	856.112	680.658
310.008	26.893	855.380	680.442
311.022	26.620	854.703	678.823
312.037	26.539	853.980	677.884
313.052	26.219	852.967	675.822
314.066	25.219	851.776	671.081
315.081	25.137	850.678	669.851
316.095	26.033	850.747	673.192
317.110	26.567	850.710	675.094
318.125	25.617	849.390	670.446
319.139	24.469	848.290	665.243
320.154	24.607	847.454	665.045
321.168	25.480	848.433	669.006
322.183	26.146	848.124	671.179
323.197	26.248	848.233	671.586
324.212	26.415	847.662	671.694
325.227	26.464	847.249	671.489
326.241	26.298	846.255	670.025
327.256	26.317	845.704	669.601
328.270	26.274	844.877	668.729
329.285	26.108	843.803	667.204
330.300	25.866	843.264	665.825
331.314	26.084	843.136	666.472
332.329	26.538	842.712	667.753
333.343	26.675	842.908	668.355
334.358	26.609	842.227	667.509
335.373	26.710	841.961	667.615
336.387	27.074	841.867	668.820
337.402	27.163	841.527	668.817
338.416	26.994	841.430	668.060
339.431	27.198	840.979	668.393
340.446	27.275	840.733	668.420
341.460	27.244	840.066	667.717
342.475	26.931	839.403	665.982
343.489	27.072	839.398	666.439
344.504	27.375	838.864	667.067
345.519	27.445	838.692	667.128
346.533	27.510	838.202	666.916
347.548	27.280	838.012	665.864
348.562	27.456	836.939	665.595
349.577	27.465	836.297	665.060
350.592	27.409	835.673	664.299
351.606	27.314	834.881	663.264
352.621	27.192	834.144	662.177
353.635	27.377	833.350	662.162
354.650	26.447	832.292	657.879
355.665	25.411	830.732	652.829
356.679	26.013	830.340	654.646
357.694	26.333	830.523	655.893
358.708	26.394	829.409	655.179
359.723	26.826	829.252	656.561
360.738	27.154	828.662	657.223
361.752	27.180	828.717	657.302
362.767	27.400	828.261	657.675
363.781	27.646	828.403	658.619
364.796	27.979	827.376	658.945
365.810	27.820	826.985	658.002
366.825	27.771	826.786	657.608
367.840	27.531	825.906	655.987
368.854	27.011	825.293	653.570
369.869	27.259	824.794	654.012
370.883	27.298	823.870	653.361
371.898	27.087	823.784	652.476
372.913	27.264	823.570	652.886
373.927	27.216	823.044	652.238
374.942	27.354	822.466	652.216
375.956	27.556	822.155	652.636
376.971	27.603	822.057	652.667
377.986	27.898	821.493	653.219
379.000	27.796	821.295	652.638
380.015	27.600	820.371	651.148
381.029	27.701	819.790	650.987
382.044	27.819	819.007	650.727
383.059	27.803	818.554	650.255
384.073	27.828	818.181	649.989
385.088	27.664	817.461	648.779
386.102	27.527	816.808	647.714
387.117	27.529	816.267	647.233
388.132	27.058	815.015	644.513
389.146	26.572	814.312	642.177
390.161	27.087	814.166	643.831
391.175	27.466	813.893	644.902
392.190	27.158	812.720	642.826
393.205	25.844	810.515	636.386
394.219	24.332	809.069	629.861
395.234	24.127	809.069	629.079
396.248	25.873	810.317	636.164
397.263	27.314	811.161	641.859
398.278	27.166	810.851	641.034
399.292	27.092	809.890	639.959
400.307	27.054	809.395	639.375
401.321	27.024	809.504	639.300
402.336	27.621	808.996	640.941
403.350	27.969	809.364	642.401
404.365	28.189	809.069	642.881
405.380	28.509	808.465	643.468
406.394	28.388	808.143	642.730
407.409	28.524	807.478	642.623
408.423	28.368	807.467	642.010
409.438	28.455	807.039	641.918
410.453	28.617	806.489	641.990
411.467	28.487	805.562	640.739
412.482	28.451	805.220	640.287
413.496	28.490	805.129	640.293
414.511	28.655	804.680	640.457
415.526	28.527	803.969	639.385
416.540	28.248	803.702	638.143
417.555	28.174	802.692	637.029
418.569	28.218	802.533	636.999
419.584	28.237	801.788	636.417
420.599	28.050	801.744	635.678
421.613	111.718	1285.478	1458.039
422.628	96.462	1355.961	1458.148
