DTS Sentinel unit serial number:	SN413079Multiplexer serial number:	ORYXHardware model number:	OX4-SRSoftware version number:	ORYX F/W v4.00 Oryx Data Collector v3.7.2.0data status	okinstallation	princeton_trtdifferential loss correction	single-endedforward channel	channel 1reverse channel	N/Adate	2019/09/14time	18:06:35forward acquisition time	60.00reverse acquisition time	0.00gamma	496.2192k internal	0.2300k external	0.2300temperature offset calibration	1.0044default loss term (dB/km)	0.3790temperature slope calibration	1.0000multiplexer offset coefficient	1.0000multiplexer slope coefficient	1.0000fibre end	0.00T internal ref (°C)	37.23T ext. ref 1 (°C)	4.95T ext. ref 2 (°C)	31.62length (m)	temperature (°C)	Stokes	anti-Stokes-747.200	541.625	-0.024	-0.059
-746.185	471.173	-0.113	-0.260
-745.171	354.939	0.105	-0.213
-744.156	78.730	0.139	0.152
-743.142	-200.000	-0.002	0.108
-742.127	-58.769	-0.174	0.077
-741.112	-58.246	0.306	0.136
-740.098	62.242	-0.171	0.174
-739.083	627.719	0.054	-0.140
-738.069	24.449	0.191	0.161
-737.054	91.466	-0.201	-0.231
-736.039	-85.788	-0.191	-0.060
-735.025	800.000	0.031	0.124
-734.010	-37.982	0.106	-0.057
-732.996	84.920	-0.181	-0.203
-731.981	-200.000	0.034	0.205
-730.966	51.394	0.256	0.248
-729.952	800.000	0.081	-0.316
-728.937	198.007	0.131	-0.204
-727.923	210.421	-0.102	-0.162
-726.908	-200.000	-0.082	-0.374
-725.894	144.154	-0.060	0.081
-724.879	37.269	-0.173	0.156
-723.864	782.374	0.084	0.236
-722.850	186.884	0.206	-0.313
-721.835	-154.136	-0.406	0.028
-720.821	69.133	-0.297	-0.311
-719.806	-156.749	-0.236	-0.015
-718.791	800.000	0.061	0.183
-717.777	40.361	-0.028	-0.025
-716.762	-200.000	-0.018	0.093
-715.748	-140.594	-0.243	-0.026
-714.733	-104.830	-0.286	-0.067
-713.718	56.496	0.141	0.139
-712.704	200.357	0.072	-0.113
-711.689	-91.861	0.306	-0.088
-710.675	28.642	-0.121	-0.105
-709.660	531.050	-0.036	-0.088
-708.645	800.000	-0.057	-0.250
-707.631	33.978	-0.223	0.198
-706.616	-96.523	-0.206	-0.055
-705.602	-200.000	0.023	-0.346
-704.587	43.142	0.155	-0.144
-703.572	-119.124	-0.146	-0.026
-702.558	-36.444	-0.245	-0.134
-701.543	-56.892	-0.233	-0.105
-700.529	800.000	0.044	-0.131
-699.514	170.272	-0.127	-0.185
-698.499	738.885	-0.006	-0.016
-697.485	784.790	-0.068	0.189
-696.470	-107.144	0.196	0.044
-695.456	800.000	0.077	-0.230
-694.441	-200.000	-0.004	-0.040
-693.426	-77.743	0.195	-0.069
-692.412	320.993	0.226	-0.437
-691.397	93.698	0.110	0.127
-690.383	-74.459	-0.190	0.070
-689.368	47.667	0.096	0.092
-688.354	215.580	-0.080	0.129
-687.339	800.000	-0.045	-0.174
-686.324	-200.000	0.005	-0.273
-685.310	342.795	0.144	0.286
-684.295	-200.000	0.017	-0.226
-683.281	-111.563	-0.165	-0.034
-682.266	26.916	0.333	-0.284
-681.251	-119.960	0.309	0.054
-680.237	-142.028	-0.498	0.050
-679.222	1.203	0.244	-0.178
-678.208	106.503	0.231	-0.279
-677.193	361.898	-0.088	0.179
-676.178	800.000	0.014	0.051
-675.164	303.168	0.083	0.155
-674.149	800.000	-0.052	-0.186
-673.135	13.091	-0.215	-0.170
-672.120	-39.052	-0.062	-0.033
-671.105	-154.549	-0.330	0.022
-670.091	-96.977	-0.158	0.042
-669.076	178.942	0.175	-0.261
-668.062	-93.141	0.168	-0.048
-667.047	800.000	-0.051	0.198
-666.032	-86.007	-0.223	-0.070
-665.018	4.207	-0.429	-0.319
-664.003	-182.525	0.183	0.003
-662.989	601.522	0.051	-0.129
-661.974	270.221	-0.095	-0.170
-660.959	-59.684	0.117	0.051
-659.945	800.000	-0.057	-0.224
-658.930	-200.000	0.009	-0.368
-657.916	800.000	0.024	0.076
-656.901	584.885	-0.127	-0.318
-655.886	31.909	0.171	-0.150
-654.872	-122.074	0.110	-0.018
-653.857	-98.305	-0.309	0.080
-652.843	-200.000	-0.254	-0.001
-651.828	-200.000	-0.013	0.336
-650.814	19.181	0.329	0.269
-649.799	731.373	-0.153	-0.416
-648.784	-143.391	-0.252	-0.025
-647.770	344.520	0.072	-0.143
-646.755	-200.000	-0.067	-0.344
-645.741	800.000	0.105	-0.425
-644.726	36.811	-0.135	-0.121
-643.711	500.024	0.098	-0.230
-642.697	521.052	0.117	0.280
-641.682	251.282	-0.123	0.213
-640.668	-200.000	-0.151	-0.001
-639.653	-151.647	-0.226	-0.017
-638.638	283.788	-0.129	-0.235
-637.624	-86.070	-0.362	-0.113
-636.609	-200.000	-0.024	0.200
-635.595	7.296	-0.312	0.237
-634.580	75.575	0.031	0.034
-633.565	195.433	0.264	-0.408
-632.551	476.755	0.086	0.197
-631.536	178.589	-0.120	-0.178
-630.522	-78.849	0.237	0.082
-629.507	-101.217	-0.230	0.057
-628.492	69.981	-0.235	0.246
-627.478	274.807	-0.142	0.255
-626.463	-200.000	0.030	-0.146
-625.449	-5.184	0.049	-0.034
-624.434	-112.419	-0.152	0.031
-623.419	-195.697	0.323	0.002
-622.405	83.351	0.061	-0.067
-621.390	800.000	0.100	-0.368
-620.376	-200.000	0.013	-0.452
-619.361	-200.000	-0.012	0.335
-618.346	187.985	0.124	-0.188
-617.332	344.651	-0.077	0.154
-616.317	310.217	0.027	-0.051
-615.303	800.000	0.039	0.152
-614.288	-200.000	0.023	-0.204
-613.273	-143.024	-0.009	0.001
-612.259	157.582	-0.054	-0.076
-611.244	67.201	0.088	0.091
-610.230	380.289	-0.041	-0.085
-609.215	448.935	0.031	0.069
-608.201	-93.117	-0.222	0.063
-607.186	34.356	-0.330	0.292
-606.171	-200.000	0.001	-0.066
-605.157	800.000	0.107	-0.343
-604.142	4.457	-0.131	-0.098
-603.128	-79.069	0.237	-0.082
-602.113	-139.327	-0.157	-0.017
-601.098	124.206	-0.184	0.235
-600.084	89.791	-0.181	-0.205
-599.069	800.000	-0.053	-0.191
-598.055	-141.817	0.129	0.013
-597.040	-155.123	0.266	0.018
-596.025	-52.615	0.006	0.003
-595.011	-66.528	0.267	-0.107
-593.996	-35.293	-0.071	0.039
-592.982	-200.000	0.061	0.352
-591.967	-200.000	0.013	-0.078
-590.952	117.688	-0.320	-0.400
-589.938	22.738	0.063	0.052
-588.923	47.046	-0.213	0.201
-587.909	37.525	0.194	-0.175
-586.894	800.000	-0.023	-0.092
-585.879	-200.000	0.071	-0.473
-584.865	-106.927	-0.271	0.061
-583.850	800.000	0.036	-0.111
-582.836	-13.306	-0.356	-0.234
-581.821	-106.250	-0.177	0.040
-580.806	-15.036	-0.079	0.051
-579.792	800.000	0.079	0.225
-578.777	-58.193	-0.082	0.036
-577.763	-99.714	-0.247	-0.063
-576.748	-200.000	0.005	0.101
-575.733	-96.387	-0.100	-0.027
-574.719	-200.000	-0.068	-0.333
-573.704	-116.474	0.133	-0.025
-572.690	41.335	-0.253	0.232
-571.675	-200.000	0.006	0.069
-570.661	-200.000	0.022	0.198
-569.646	149.600	-0.039	0.054
-568.631	532.562	0.010	0.025
-567.617	-37.757	0.317	0.171
-566.602	-125.123	0.207	-0.032
-565.588	-200.000	0.016	-0.282
-564.573	-35.996	-0.325	0.178
-563.558	89.697	0.145	-0.164
-562.544	69.541	-0.157	-0.164
-561.529	-30.348	-0.249	0.143
-560.515	800.000	-0.144	-0.434
-559.500	78.448	-0.124	-0.135
-558.485	-131.046	-0.204	0.028
-557.471	4.042	-0.374	0.277
-556.456	-200.000	-0.005	0.141
-555.442	196.330	-0.037	0.056
-554.427	359.302	-0.108	0.219
-553.412	5.592	-0.139	0.104
-552.398	-76.845	0.293	0.104
-551.383	275.818	-0.142	-0.255
-550.369	800.000	-0.053	-0.162
-549.354	-115.557	0.162	0.031
-548.339	800.000	-0.054	-0.173
-547.325	-58.700	-0.311	-0.136
-546.310	-82.198	0.232	-0.077
-545.296	-200.000	-0.008	-0.124
-544.281	-200.000	-0.373	0.000
-543.266	40.511	-0.260	0.237
-542.252	287.609	0.087	0.159
-541.237	800.000	-0.056	0.214
-540.223	-120.819	-0.430	0.073
-539.208	249.515	-0.062	0.107
-538.193	-7.085	-0.064	-0.044
-537.179	15.432	0.162	-0.129
-536.164	-120.470	-0.152	0.026
-535.150	54.977	-0.139	-0.136
-534.135	-200.000	-0.057	-0.533
-533.121	800.000	-0.024	-0.072
-532.106	93.460	0.281	-0.322
-531.091	-200.000	0.036	0.207
-530.077	117.114	-0.107	-0.133
-529.062	284.786	-0.092	0.168
-528.048	-115.846	-0.251	-0.047
-527.033	800.000	0.026	-0.077
-526.018	291.261	-0.056	-0.102
-525.004	-101.117	-0.130	-0.032
-523.989	-29.734	0.032	-0.019
-522.975	-36.587	-0.275	0.149
-521.960	800.000	-0.027	0.090
-520.945	20.351	-0.106	-0.086
-519.931	-92.253	-0.145	0.041
-518.916	-112.451	0.436	-0.088
-517.902	-47.946	-0.335	0.164
-516.887	-200.000	0.004	-0.029
-515.872	207.829	-0.027	-0.042
-514.858	269.698	-0.102	0.181
-513.843	-40.997	0.071	0.037
-512.829	-122.761	0.145	0.024
-511.814	-200.000	-0.022	0.145
-510.799	800.000	0.008	0.034
-509.785	-200.000	0.015	-0.097
-508.770	-200.000	0.004	0.057
-507.756	-65.873	-0.215	-0.087
-506.741	-86.956	0.204	0.063
-505.726	-200.000	0.007	-0.187
-504.712	-61.090	0.150	-0.064
-503.697	800.000	0.074	0.217
-502.683	89.078	-0.060	-0.068
-501.668	103.786	-0.175	-0.208
-500.653	-200.000	-0.032	0.168
-499.639	800.000	-0.053	0.179
-498.624	-200.000	0.010	0.083
-497.610	13.153	-0.305	-0.239
-496.595	-7.995	0.124	0.085
-495.581	-72.947	0.117	-0.044
-494.566	-53.115	-0.127	0.059
-493.551	-49.109	0.227	-0.110
-492.537	-26.313	0.137	0.081
-491.522	-112.811	-0.227	0.046
-490.508	240.709	0.068	0.114
-489.493	17.590	0.182	-0.146
-488.478	-42.238	0.220	-0.114
-487.464	800.000	-0.036	0.161
-486.449	3.791	-0.152	0.112
-485.435	-162.896	-0.208	0.010
-484.420	-142.238	-0.172	-0.017
-483.405	422.073	0.091	-0.197
-482.391	-200.000	-0.089	-0.431
-481.376	800.000	-0.069	-0.301
-480.362	-200.000	0.000	-0.112
-479.347	-86.358	-0.320	-0.099
-478.332	408.417	0.095	-0.203
-477.318	372.272	-0.159	0.325
-476.303	74.321	0.065	0.069
-475.289	69.015	-0.110	-0.114
-474.274	285.071	0.028	-0.051
-473.259	800.000	0.040	0.151
-472.245	406.008	-0.166	-0.354
-471.230	-200.000	-0.013	0.076
-470.216	-200.000	0.027	0.135
-469.201	-77.261	0.110	0.038
-468.186	25.861	0.090	-0.076
-467.172	-89.290	0.153	0.045
-466.157	-200.000	-0.022	0.178
-465.143	-49.217	0.155	-0.075
-464.128	-200.000	-0.249	0.001
-463.113	42.163	0.058	0.053
-462.099	-109.652	-0.228	0.049
-461.084	-200.000	-0.031	0.227
-460.070	62.924	0.128	0.129
-459.055	42.881	-0.233	0.215
-458.040	35.138	-0.389	0.344
-457.026	800.000	-0.003	0.009
-456.011	-86.960	-0.537	-0.165
-454.997	-200.000	-0.005	0.194
-453.982	658.438	-0.121	-0.313
-452.968	94.053	0.137	-0.156
-451.953	-179.210	0.258	-0.006
-450.938	300.828	0.022	-0.042
-449.924	580.231	-0.140	-0.346
-448.909	800.000	0.048	-0.162
-447.895	-200.000	0.030	0.220
-446.880	-161.695	0.214	-0.011
-445.865	30.873	0.159	0.137
-444.851	-137.059	-0.139	-0.016
-443.836	152.627	-0.088	0.121
-442.822	137.120	-0.231	-0.304
-441.807	-103.238	-0.165	0.039
-440.792	-28.612	-0.150	0.087
-439.778	51.138	-0.141	0.135
-438.763	341.036	-0.091	0.180
-437.749	348.615	0.065	-0.128
-436.734	-99.447	-0.121	0.031
-435.719	-147.176	0.207	-0.018
-434.705	800.000	0.039	0.128
-433.690	33.105	0.157	-0.137
-432.676	-105.055	-0.352	-0.081
-431.661	286.319	0.112	0.203
-430.646	6.357	0.183	0.137
-429.632	800.000	-0.033	-0.126
-428.617	538.350	0.152	-0.364
-427.603	800.000	-0.079	-0.348
-426.588	-105.458	0.234	0.054
-425.573	-200.000	-0.009	0.056
-424.559	800.000	-0.029	0.110
-423.544	662.529	0.117	0.303
-422.530	1.025	-0.186	-0.135
-421.515	78.134	0.130	-0.140
-420.500	800.000	0.085	-0.240
-419.486	212.223	0.027	-0.044
-418.471	266.943	-0.051	0.090
-417.457	-97.982	0.185	0.048
-416.442	470.029	-0.039	0.088
-415.428	7.312	-0.225	-0.169
-414.413	107.638	0.096	0.115
-413.398	800.000	0.168	0.542
-412.384	800.000	-0.140	0.397
-411.369	60.568	0.092	0.092
-410.355	-69.965	0.190	-0.073
-409.340	481.218	0.034	-0.077
-408.325	-88.135	0.252	-0.076
-407.311	800.000	0.106	0.416
-406.296	800.000	0.056	-0.180
-405.282	-2.037	-0.161	-0.114
-404.267	-143.701	-0.182	-0.017
-403.252	-24.732	-0.028	0.017
-402.238	-101.919	0.227	0.055
-401.223	251.582	0.141	-0.242
-400.209	124.832	0.210	-0.266
-399.194	132.136	-0.177	0.230
-398.179	-26.451	-0.142	0.084
-397.165	-137.014	0.146	-0.017
-396.150	189.079	0.121	0.182
-395.136	180.755	-0.131	0.193
-394.121	-54.200	-0.096	0.044
-393.106	-55.298	-0.184	-0.083
-392.092	-98.418	0.165	-0.042
-391.077	-37.425	-0.115	0.062
-390.063	800.000	-0.098	-0.284
-389.048	131.435	-0.116	-0.150
-388.033	174.832	0.073	0.107
-387.019	-200.000	0.002	-0.293
-386.004	800.000	0.048	-0.173
-384.990	-111.768	0.166	0.034
-383.975	55.832	-0.195	0.190
-382.960	427.281	0.101	-0.220
-381.946	-4.502	-0.063	0.044
-380.931	-2.997	0.223	0.157
-379.917	-129.106	-0.046	0.007
-378.902	592.220	0.072	0.178
-377.888	256.837	-0.155	-0.267
-376.873	800.000	0.055	-0.187
-375.858	553.532	-0.092	-0.223
-374.844	766.939	-0.042	0.113
-373.829	205.284	-0.083	-0.129
-372.815	-146.310	-0.287	-0.025
-371.800	359.205	-0.164	0.330
-370.785	-74.432	-0.214	-0.078
-369.771	71.429	-0.032	-0.034
-368.756	-118.278	-0.145	-0.026
-367.742	-121.826	0.241	0.040
-366.727	800.000	-0.029	0.098
-365.712	-200.000	0.037	0.278
-364.698	435.343	0.092	-0.201
-363.683	195.590	0.047	-0.072
-362.669	45.092	-0.332	-0.307
-361.654	-200.000	0.030	0.313
-360.639	81.328	-0.108	0.117
-359.625	-200.000	0.053	0.284
-358.610	32.753	-0.055	-0.048
-357.596	10.660	0.084	-0.064
-356.581	128.393	-0.249	0.318
-355.566	-65.567	0.199	-0.080
-354.552	259.552	-0.098	-0.170
-353.537	312.623	0.117	-0.220
-352.523	-120.265	0.319	0.055
-351.508	-74.908	0.267	-0.096
-350.493	339.199	-0.152	-0.298
-349.479	-173.040	-0.268	0.008
-348.464	-112.614	0.076	0.015
-347.450	-88.529	0.246	0.074
-346.435	-82.457	0.113	-0.037
-345.420	-9.310	0.080	0.053
-344.406	-46.841	-0.080	0.039
-343.391	-23.735	0.124	0.074
-342.377	-8.804	0.119	-0.080
-341.362	427.891	0.079	0.171
-340.348	84.202	-0.131	-0.143
-339.333	-28.947	-0.014	0.008
-338.318	138.462	-0.148	0.196
-337.304	-200.000	-0.003	0.132
-336.289	552.013	0.070	0.169
-335.275	-40.508	0.258	-0.135
-334.260	-109.731	-0.056	-0.012
-333.245	306.557	0.182	-0.340
-332.231	800.000	0.062	0.233
-331.216	788.228	0.144	0.396
-330.202	-16.440	0.274	-0.174
-329.187	388.673	-0.078	-0.162
-328.172	-200.000	0.023	0.225
-327.158	51.629	-0.077	0.073
-326.143	-200.000	-0.012	-0.135
-325.129	460.552	0.078	-0.175
-324.114	346.365	-0.124	0.244
-323.099	27.231	0.046	0.039
-322.085	-55.128	-0.065	0.029
-321.070	-78.354	0.166	0.057
-320.056	-200.000	-0.007	0.211
-319.041	-24.325	0.266	0.159
-318.026	-52.729	-0.144	-0.067
-317.012	-73.759	-0.243	0.089
-315.997	800.000	-0.020	0.076
-314.983	559.586	-0.153	0.371
-313.968	246.483	0.044	0.074
-312.953	-78.461	0.248	0.085
-311.939	-26.507	-0.143	-0.084
-310.924	-102.450	-0.439	0.105
-309.910	77.708	0.223	0.238
-308.895	-47.925	0.108	-0.052
-307.880	-170.387	-0.182	-0.006
-306.866	388.313	0.103	0.213
-305.851	-47.547	0.182	0.089
-304.837	101.714	-0.130	0.152
-303.822	-26.968	-0.091	-0.053
-302.807	-169.961	0.128	0.005
-301.793	71.106	-0.066	0.069
-300.778	190.093	0.067	0.101
-299.764	-200.000	-0.032	0.269
-298.749	-127.074	0.223	-0.033
-297.735	800.000	-0.103	-0.334
-296.720	-103.359	-0.113	0.027
-295.705	-86.360	0.217	0.067
-294.691	-84.736	0.073	-0.023
-293.676	75.306	-0.129	-0.136
-292.662	-183.065	-0.151	-0.003
-291.647	-172.801	0.214	0.007
-290.632	-112.502	0.252	0.050
-289.618	-161.473	0.213	-0.011
-288.603	120.256	0.140	0.175
-287.589	-111.869	-0.319	0.065
-286.574	30.099	-0.149	0.127
-285.559	-86.465	0.104	0.032
-284.545	-76.435	-0.090	-0.032
-283.530	-200.000	-0.038	-0.225
-282.516	315.372	0.059	0.111
-281.501	103.576	0.101	0.119
-280.486	13.618	0.062	-0.049
-279.472	610.340	-0.050	-0.126
-278.457	800.000	-0.088	-0.263
-277.443	-200.000	0.023	-0.237
-276.428	71.024	0.202	-0.210
-275.413	-200.000	-0.026	0.201
-274.399	217.167	0.036	0.057
-273.384	-87.398	0.381	0.116
-272.370	-152.533	-0.085	-0.006
-271.355	36.341	-0.119	0.105
-270.340	-101.797	-0.202	-0.049
-269.326	180.384	0.129	0.190
-268.311	800.000	-0.001	0.003
-267.297	-42.341	0.064	-0.033
-266.282	800.000	-0.020	-0.061
-265.267	128.161	-0.215	-0.273
-264.253	167.522	-0.131	0.187
-263.238	242.241	0.127	0.213
-262.224	800.000	0.077	-0.265
-261.209	-95.357	0.253	0.068
-260.195	-9.493	-0.169	-0.113
-259.180	17.485	-0.148	-0.118
-258.165	250.291	-0.075	-0.127
-257.151	219.524	0.036	0.057
-256.136	-200.000	0.043	0.317
-255.122	6.141	-0.305	0.226
-254.107	-102.560	0.175	-0.042
-253.092	-89.890	0.055	0.016
-252.078	-200.000	-0.003	0.122
-251.063	-200.000	-0.007	-0.221
-250.049	-13.125	0.272	0.177
-249.034	-23.779	-0.133	-0.080
-248.019	-137.042	0.100	0.011
-247.005	-135.786	0.321	0.038
-245.990	467.244	-0.151	0.338
-244.976	-107.497	0.184	0.040
-243.961	-59.525	0.230	0.099
-242.946	573.430	-0.056	0.137
-241.932	392.690	0.041	-0.085
-240.917	-69.954	-0.130	0.049
-239.903	16.142	-0.213	-0.168
-238.888	-195.367	0.079	0.001
-237.873	800.000	0.061	-0.187
-236.859	-69.605	-0.042	0.016
-235.844	40.259	0.319	0.287
-234.830	-26.475	0.238	-0.140
-233.815	-14.933	-0.279	0.179
-232.800	-200.000	0.075	-0.382
-231.786	245.860	0.191	-0.321
-230.771	65.679	-0.216	-0.219
-229.757	-133.582	0.482	-0.060
-228.742	-200.000	0.027	-0.141
-227.727	-100.173	-0.037	-0.009
-226.713	162.982	-0.055	-0.077
-225.698	231.030	0.198	-0.325
-224.684	-200.000	-0.022	0.137
-223.669	764.261	0.072	0.194
-222.655	336.647	0.116	0.226
-221.640	-198.928	0.216	0.001
-220.625	800.000	0.092	-0.359
-219.611	-6.170	0.072	-0.049
-218.596	-90.231	0.354	0.103
-217.582	442.900	0.031	-0.067
-216.567	503.708	0.064	0.149
-215.552	2.005	-0.161	0.116
-214.538	61.058	0.286	0.283
-213.523	-194.880	0.309	-0.002
-212.509	-65.779	-0.095	0.038
-211.494	-42.434	-0.081	0.041
-210.479	215.873	-0.026	0.042
-209.465	-111.324	0.312	0.064
-208.450	-130.206	-0.198	0.027
-207.436	73.082	0.140	0.146
-206.421	482.065	0.126	0.286
-205.406	800.000	0.059	0.187
-204.392	424.804	0.169	0.363
-203.377	222.400	0.185	0.298
-202.363	667.060	0.068	-0.175
-201.348	-96.101	-0.199	0.053
-200.333	49.563	-0.319	0.300
-199.319	-34.849	0.451	0.246
-198.304	-117.526	0.261	-0.047
-197.290	-200.000	-0.002	-0.261
-196.275	-47.789	0.541	0.262
-195.260	-66.107	0.101	0.040
-194.246	104.499	0.180	0.212
-193.231	71.342	-0.167	-0.173
-192.217	46.629	0.127	0.118
-191.202	-140.193	0.098	-0.010
-190.187	115.647	0.081	0.099
-189.173	-63.521	0.213	0.087
-188.158	-6.782	0.080	0.054
-187.144	-80.804	0.147	0.049
-186.129	-141.291	0.189	-0.019
-185.114	-13.372	-0.134	-0.087
-184.100	-71.273	0.147	-0.055
-183.085	-200.000	0.049	0.366
-182.071	-161.361	0.184	-0.010
-181.056	328.168	0.047	-0.091
-180.042	94.416	-0.088	-0.099
-179.027	-74.641	-0.233	-0.084
-178.012	90.020	0.097	0.109
-176.998	800.000	0.077	-0.326
-175.983	-47.492	0.248	-0.120
-174.969	-13.548	0.099	-0.064
-173.954	101.353	-0.176	0.204
-172.939	-5.243	-0.208	-0.142
-171.925	326.323	0.187	-0.357
-170.910	-31.593	-0.112	-0.063
-169.896	156.741	-0.069	-0.096
-168.881	65.180	0.100	0.101
-167.866	-56.954	0.082	0.036
-166.852	-200.000	-0.001	0.152
-165.837	-195.086	-0.491	-0.004
-164.823	-137.525	0.226	0.025
-163.808	346.587	-0.108	-0.213
-162.793	158.184	-0.311	-0.430
-161.779	-200.000	0.048	-0.416
-160.764	199.600	-0.034	-0.052
-159.750	506.806	0.073	-0.168
-158.735	800.000	0.074	0.317
-157.720	-52.043	0.550	0.255
-156.706	-200.000	0.022	-0.129
-155.691	186.476	0.059	0.088
-154.677	-44.495	0.138	0.069
-153.662	-156.884	-0.286	0.018
-152.647	86.171	0.144	0.158
-151.633	-145.808	0.427	0.038
-150.618	-144.298	-0.118	0.011
-149.604	131.910	0.099	-0.127
-148.589	-200.000	-0.002	0.011
-147.574	-0.135	0.237	-0.168
-146.560	800.000	0.029	0.089
-145.545	-78.554	-0.492	0.168
-144.531	62.593	-0.054	-0.054
-143.516	202.883	0.066	0.102
-142.502	142.440	-0.028	-0.037
-141.487	800.000	-0.059	-0.168
-140.472	-200.000	-0.018	-0.259
-139.458	-75.533	-0.250	0.089
-138.443	-200.000	0.004	-0.394
-137.429	58.958	0.055	-0.054
-136.414	800.000	0.074	-0.242
-135.399	485.239	-0.074	0.167
-134.385	800.000	0.014	-0.051
-133.370	252.747	-0.143	0.244
-132.356	-198.004	-0.199	0.001
-131.341	800.000	-0.028	-0.094
-130.326	-200.000	-0.001	0.060
-129.312	-200.000	0.052	0.254
-128.297	-200.000	-0.021	0.145
-127.283	-147.964	0.084	0.007
-126.268	103.708	0.154	0.180
-125.253	-200.000	-0.001	0.012
-124.239	53.076	0.065	0.062
-123.224	-94.800	0.415	-0.112
-122.210	-154.643	-0.033	0.002
-121.195	-200.000	-0.059	0.483
-120.180	-56.003	0.398	0.176
-119.166	-61.165	-0.135	0.057
-118.151	-96.033	0.204	0.054
-117.137	-200.000	-0.005	-0.236
-116.122	611.351	-0.058	0.144
-115.107	282.174	-0.152	0.270
-114.093	-200.000	-0.002	-0.222
-113.078	24.138	-0.098	0.080
-112.064	-193.814	0.285	-0.002
-111.049	133.846	-0.196	0.252
-110.034	-34.053	0.248	0.135
-109.020	-0.830	-0.114	-0.081
-108.005	-57.848	-0.331	-0.144
-106.991	-91.177	0.248	-0.071
-105.976	45.088	0.046	0.042
-104.962	105.716	-0.115	0.135
-103.947	-200.000	0.016	-0.150
-102.932	-71.753	-0.058	0.022
-101.918	-107.105	0.137	0.030
-100.903	-200.000	0.012	0.121
-99.889	-200.000	-0.006	-0.155
-98.874	205.956	0.190	0.293
-97.859	2.636	-0.237	0.171
-96.845	-108.340	-0.092	0.020
-95.830	34.887	-0.041	-0.035
-94.816	-136.343	0.252	0.029
-93.801	-161.833	0.115	-0.006
-92.786	112.005	0.134	0.161
-91.772	299.493	0.097	0.178
-90.757	-200.000	0.402	0.001
-89.743	-200.000	0.027	-0.223
-88.728	-200.000	-0.014	-0.071
-87.713	118.682	0.164	-0.201
-86.699	-25.141	0.159	-0.094
-85.684	-171.065	-0.158	0.005
-84.670	729.795	0.068	0.180
-83.655	323.413	0.066	0.124
-82.640	-157.615	-0.100	-0.006
-81.626	-200.000	-0.012	-0.197
-80.611	545.255	0.091	-0.217
-79.597	-108.255	-0.153	0.033
-78.582	-70.698	0.409	0.153
-77.567	800.000	-0.074	0.223
-76.553	-183.135	0.060	-0.001
-75.538	72.084	0.175	-0.181
-74.524	-150.594	0.248	0.019
-73.509	8.698	-0.159	0.119
-72.494	372.680	0.068	0.137
-71.480	59.334	-0.339	-0.332
-70.465	-75.752	-0.295	-0.104
-69.451	62.950	0.150	0.149
-68.436	666.560	-0.066	-0.170
-67.422	-59.355	0.082	0.035
-66.407	-200.000	0.025	0.201
-65.392	-200.000	0.137	0.000
-64.378	-81.645	0.287	0.094
-63.363	800.000	-0.070	-0.267
-62.349	376.894	0.093	0.188
-61.334	132.950	-0.708	-0.908
-60.319	-29.707	0.433	0.245
-59.305	-200.000	0.137	-0.894
-58.290	633.213	0.547	1.377
-57.276	216.843	0.961	1.519
-56.261	-200.000	89.239	506.449
-55.246	540.934	1392.711	3293.907
-54.232	185.188	2599.625	3830.684
-53.217	121.733	2200.652	2724.857
-52.203	48.481	1650.484	1534.944
-51.188	40.608	1383.310	1237.571
-50.173	37.379	1339.598	1178.872
-49.159	56.646	1384.483	1337.535
-48.144	61.257	1403.372	1384.148
-47.130	41.113	1359.881	1219.509
-46.115	37.386	1342.408	1181.200
-45.100	37.001	1338.108	1175.035
-44.086	37.098	1334.888	1172.743
-43.071	37.079	1332.596	1170.573
-42.057	37.021	1330.742	1168.544
-41.042	37.132	1328.580	1167.268
-40.027	37.149	1327.514	1166.389
-39.013	37.101	1325.584	1164.361
-37.998	37.091	1323.529	1162.445
-36.984	37.215	1321.699	1161.538
-35.969	37.332	1319.572	1160.322
-34.954	37.241	1318.255	1158.572
-33.940	37.317	1316.233	1157.203
-32.925	37.262	1315.219	1155.938
-31.911	37.317	1313.930	1155.084
-30.896	37.302	1312.356	1153.570
-29.881	37.268	1311.665	1152.712
-28.867	37.352	1309.102	1150.911
-27.852	37.358	1308.063	1149.991
-26.838	37.285	1306.694	1148.307
-25.823	37.351	1305.577	1147.672
-24.809	37.328	1303.863	1145.981
-23.794	37.331	1302.492	1144.746
-22.779	37.338	1300.816	1143.274
-21.765	37.370	1299.551	1142.304
-20.750	37.402	1298.278	1141.328
-19.736	37.207	1297.460	1139.418
-18.721	37.247	1295.651	1138.019
-17.706	37.195	1294.536	1136.687
-16.692	37.166	1293.596	1135.647
-15.677	37.240	1291.955	1134.597
-14.663	37.192	1291.047	1133.476
-13.648	37.092	1290.248	1132.142
-12.633	37.259	1288.734	1131.744
-11.619	37.086	1288.178	1130.203
-10.604	37.227	1286.969	1129.917
-9.590	37.133	1286.278	1128.717
-8.575	37.125	1285.141	1127.632
-7.560	37.131	1284.461	1127.020
-6.546	37.179	1283.568	1126.474
-5.531	37.172	1282.955	1125.850
-4.517	37.176	1281.629	1124.664
-3.502	37.194	1280.719	1123.923
-2.487	37.194	1279.734	1123.015
-1.473	37.151	1275.782	1119.257
-0.458	35.614	1259.824	1096.449
0.556	31.484	1240.441	1053.236
1.571	27.121	1244.181	1031.613
2.586	25.808	1258.478	1035.827
3.600	24.693	1247.040	1019.968
4.615	18.624	1172.945	926.605
5.629	9.408	1094.958	818.249
6.644	5.072	1073.484	780.477
7.659	4.809	1070.880	777.200
8.673	4.909	1069.750	776.811
9.688	4.989	1068.224	776.033
10.702	5.169	1066.557	775.645
11.717	10.073	1073.959	805.447
12.731	18.003	1085.330	853.681
13.746	20.552	1086.862	867.547
14.761	19.192	1084.521	858.825
15.775	18.083	1082.417	851.560
16.790	17.029	1080.557	844.779
17.804	16.397	1078.586	840.020
18.819	15.867	1078.080	836.921
19.834	15.665	1077.104	835.087
20.848	15.405	1076.449	833.210
21.863	15.382	1075.438	832.239
22.877	15.099	1074.666	830.166
23.892	14.978	1074.356	829.256
24.907	15.151	1072.991	828.982
25.921	15.176	1071.918	828.206
26.936	15.181	1070.839	827.324
27.950	15.163	1069.411	826.057
28.965	15.137	1068.287	824.988
29.980	15.302	1066.569	824.399
30.994	15.459	1065.016	823.899
32.009	15.510	1064.149	823.402
33.023	15.598	1062.824	822.736
34.038	15.408	1061.931	821.043
35.053	15.377	1061.090	820.168
36.067	15.362	1060.308	819.418
37.082	15.319	1059.355	818.400
38.096	15.376	1058.973	818.310
39.111	15.384	1058.126	817.622
40.126	15.206	1057.030	815.836
41.140	15.132	1055.428	814.168
42.155	15.048	1054.297	812.816
43.169	14.986	1053.229	811.618
44.184	15.032	1052.079	810.883
45.199	15.198	1050.656	810.519
46.213	15.202	1049.905	809.888
47.228	15.171	1049.364	809.249
48.242	15.213	1048.364	808.607
49.257	15.263	1047.122	807.822
50.271	15.330	1046.263	807.410
51.286	15.274	1045.342	806.358
52.301	15.270	1044.521	805.632
53.315	15.149	1043.727	804.368
54.330	15.222	1042.092	803.387
55.344	15.118	1041.481	802.349
56.359	15.208	1040.297	801.795
57.374	15.152	1039.338	800.715
58.388	15.044	1038.411	799.418
59.403	14.870	1038.152	798.314
60.417	15.115	1036.725	798.313
61.432	14.884	1036.288	796.805
62.447	14.974	1035.126	796.271
63.461	14.896	1034.759	795.546
64.476	14.921	1033.697	794.780
65.490	14.930	1032.604	793.914
66.505	15.011	1031.592	793.447
67.520	14.962	1031.473	793.056
68.534	14.981	1030.662	792.448
69.549	14.969	1029.846	791.694
70.563	15.042	1028.773	791.146
71.578	14.750	1028.489	789.479
72.593	14.841	1027.450	789.042
73.607	14.843	1026.716	788.414
74.622	14.884	1026.123	788.084
75.636	14.889	1025.704	787.716
76.651	14.883	1024.929	787.025
77.666	14.860	1024.297	786.360
78.680	14.989	1023.695	786.433
79.695	14.931	1022.958	785.527
80.709	15.057	1022.164	785.440
81.724	15.090	1021.917	785.335
82.739	15.083	1021.339	784.789
83.753	15.253	1020.575	784.927
84.768	15.458	1019.649	785.102
85.782	15.551	1018.669	784.713
86.797	15.407	1017.857	783.349
87.812	15.240	1016.965	781.813
88.826	15.229	1015.489	780.560
89.841	15.187	1014.947	779.875
90.855	15.411	1014.177	780.258
91.870	15.494	1012.976	779.652
92.884	15.545	1012.209	779.225
93.899	15.445	1011.418	778.088
94.914	15.534	1010.630	777.823
95.928	15.595	1009.288	777.001
96.943	15.562	1008.837	776.434
97.957	15.459	1007.905	775.175
98.972	15.485	1007.274	774.742
99.987	15.463	1006.178	773.729
101.001	15.434	1005.600	773.079
102.016	15.476	1004.537	772.386
103.030	15.379	1003.849	771.343
104.045	15.331	1003.226	770.575
105.060	15.243	1002.333	769.421
106.074	15.203	1000.800	767.992
107.089	15.026	1000.172	766.630
108.103	15.094	998.660	765.714
109.118	15.004	997.926	764.674
110.133	14.981	996.892	763.708
111.147	14.970	996.577	763.350
112.162	15.136	995.709	763.371
113.176	15.183	994.978	762.959
114.191	15.246	994.395	762.732
115.206	15.089	993.808	761.498
116.220	15.149	992.852	760.970
117.235	15.203	991.577	760.174
118.249	15.195	990.907	759.554
119.264	15.135	989.949	758.480
120.279	14.999	989.374	757.358
121.293	15.082	988.251	756.808
122.308	14.969	987.456	755.620
123.322	15.017	986.192	754.806
124.337	14.995	985.223	753.895
125.352	14.916	984.505	752.923
126.366	15.000	982.973	752.061
127.381	15.000	981.905	751.179
128.395	14.980	981.627	750.814
129.410	15.063	980.200	750.024
130.424	15.075	979.649	749.592
131.439	15.257	979.039	749.873
132.454	15.228	978.225	749.052
133.468	15.247	977.463	748.489
134.483	15.292	975.866	747.399
135.497	15.322	975.086	746.867
136.512	15.379	974.525	746.628
137.527	15.231	973.765	745.322
138.541	15.224	973.146	744.750
139.556	15.377	972.606	744.951
140.570	15.414	971.819	744.447
141.585	15.593	970.624	744.256
142.600	15.543	969.836	743.368
143.614	15.424	969.215	742.298
144.629	15.549	968.327	742.106
145.643	15.476	967.363	740.979
146.658	15.354	966.621	739.808
147.673	15.319	965.361	738.622
148.687	15.198	964.575	737.422
149.702	15.316	963.667	737.182
150.716	15.312	962.928	736.533
151.731	15.190	962.057	735.268
152.746	15.392	961.181	735.418
153.760	15.356	960.715	734.838
154.775	15.378	960.290	734.547
155.789	15.562	959.450	734.644
156.804	15.523	958.796	733.906
157.819	15.524	958.424	733.560
158.833	15.521	957.871	733.060
159.848	15.594	956.857	732.536
160.862	15.465	955.714	731.036
161.877	15.450	954.207	729.754
162.892	15.279	953.528	728.426
163.906	15.298	952.705	727.815
164.921	15.318	951.865	727.198
165.935	15.514	950.729	727.112
166.950	15.550	949.895	726.565
167.964	15.495	949.263	725.782
168.979	15.190	948.877	724.104
169.994	15.345	948.006	724.042
171.008	15.428	947.128	723.668
172.023	15.529	946.323	723.425
173.037	15.708	945.383	723.411
174.052	15.700	944.637	722.741
175.067	15.482	944.101	721.330
176.081	15.363	943.624	720.393
177.096	15.322	943.076	719.732
178.110	15.432	942.412	719.636
179.125	15.518	941.809	719.479
180.140	15.450	941.349	718.773
181.154	15.519	941.029	718.763
182.169	15.731	940.400	719.122
183.183	15.728	939.939	718.693
184.198	15.697	939.051	717.817
185.213	15.674	938.315	717.096
186.227	15.764	937.478	716.775
187.242	15.769	937.211	716.529
188.256	15.917	936.452	716.515
189.271	15.907	935.144	715.409
190.286	15.657	934.396	713.713
191.300	15.353	933.912	711.988
192.315	15.311	933.405	711.361
193.329	15.428	932.496	711.101
194.344	15.502	932.187	711.116
195.359	15.544	931.473	710.688
196.373	15.770	930.422	710.775
197.388	15.880	930.252	711.046
198.402	15.919	929.874	710.862
199.417	15.846	929.354	710.091
200.432	16.045	928.700	710.371
201.446	16.151	928.197	710.365
202.461	16.188	927.969	710.285
203.475	16.126	927.223	709.391
204.490	15.884	926.655	707.878
205.504	15.856	925.400	706.738
206.519	15.873	924.998	706.441
207.534	15.870	924.126	705.697
208.548	15.909	923.541	705.354
209.563	15.890	922.800	704.645
210.577	16.005	922.128	704.550
211.592	15.967	921.655	703.968
212.607	16.087	921.066	703.956
213.621	16.003	920.252	702.922
214.636	15.990	919.726	702.403
215.650	16.154	918.610	702.173
216.665	16.116	918.028	701.509
217.680	16.169	917.314	701.120
218.694	16.213	916.947	700.959
219.709	16.236	916.048	700.304
220.723	16.219	915.442	699.711
221.738	16.154	914.680	698.796
222.753	16.182	913.696	698.101
223.767	16.274	913.225	698.057
224.782	16.418	912.924	698.363
225.796	16.472	912.297	698.042
226.811	16.295	911.846	696.904
227.826	16.356	910.784	696.285
228.840	16.235	910.315	695.366
229.855	16.199	909.256	694.347
230.869	16.212	908.408	693.692
231.884	16.237	908.032	693.444
232.899	16.223	907.168	692.665
233.913	16.034	906.740	691.503
234.928	16.148	905.756	691.158
235.942	16.100	905.392	690.624
236.957	16.129	904.578	690.060
237.972	16.207	903.948	689.838
238.986	16.173	903.571	689.350
240.001	16.190	902.659	688.663
241.015	16.405	901.774	688.804
242.030	16.322	901.706	688.353
243.045	16.338	900.910	687.748
244.059	16.395	900.086	687.288
245.074	16.444	899.878	687.270
246.088	16.497	899.138	686.859
247.103	16.548	898.403	686.442
248.117	16.482	898.114	685.894
249.132	16.688	897.782	686.413
250.147	16.824	897.040	686.338
251.161	16.972	896.044	686.115
252.176	16.819	895.804	685.250
253.190	16.721	895.328	684.430
254.205	16.834	894.425	684.134
255.220	16.906	893.866	683.938
256.234	16.851	893.410	683.305
257.249	16.969	892.010	682.651
258.263	16.862	891.833	682.022
259.278	16.909	891.051	681.555
260.293	16.962	890.491	681.278
261.307	17.012	889.726	680.832
262.322	16.958	888.999	680.001
263.336	17.061	888.593	680.042
264.351	17.077	887.876	679.498
265.366	17.051	887.461	679.015
266.380	17.153	886.766	678.832
267.395	16.927	886.067	677.332
268.409	16.987	885.383	676.991
269.424	17.079	884.481	676.608
270.439	17.128	883.793	676.219
271.453	16.912	883.300	674.919
272.468	17.077	882.479	674.889
273.482	17.018	882.216	674.393
274.497	16.942	881.803	673.715
275.512	17.065	880.636	673.252
276.526	16.939	880.423	672.530
277.541	17.051	880.005	672.595
278.555	17.192	879.083	672.392
279.570	17.248	878.508	672.111
280.585	17.345	877.779	671.878
281.599	17.187	876.907	670.528
282.614	17.223	876.072	669.971
283.628	17.197	875.821	669.617
284.643	17.241	875.064	669.152
285.657	17.259	874.565	668.784
286.672	17.149	874.020	667.877
287.687	17.188	873.386	667.486
288.701	17.298	872.769	667.386
289.716	17.112	872.093	666.082
290.730	17.310	871.486	666.336
291.745	17.199	871.063	665.519
292.760	17.398	870.250	665.614
293.774	17.443	869.721	665.327
294.789	17.383	869.128	664.583
295.803	17.428	868.163	663.961
296.818	17.207	867.845	662.797
297.833	17.205	866.994	662.079
298.847	17.245	866.476	661.782
299.862	17.480	865.691	662.037
300.876	17.364	865.463	661.352
301.891	17.497	864.900	661.382
302.906	17.574	864.308	661.170
303.920	17.643	863.997	661.142
304.935	17.617	863.603	660.679
305.949	17.637	862.502	659.858
306.964	17.704	861.921	659.612
307.979	17.688	861.422	659.111
308.993	17.603	861.051	658.439
310.008	17.631	860.428	658.015
311.022	17.721	859.428	657.536
312.037	17.624	858.941	656.732
313.052	17.523	858.525	655.969
314.066	17.427	857.810	654.994
315.081	17.657	856.957	655.168
316.095	17.558	856.635	654.485
317.110	17.585	856.160	654.166
318.125	17.481	855.811	653.443
319.139	17.500	855.080	652.899
320.154	17.634	854.578	652.973
321.168	17.580	854.086	652.334
322.183	17.604	853.717	652.082
323.197	17.504	853.415	651.413
324.212	17.704	852.919	651.742
325.227	17.770	851.811	651.089
326.241	17.642	851.363	650.202
327.256	17.620	850.679	649.536
328.270	17.638	850.148	649.142
329.285	17.510	849.831	648.356
330.300	17.483	849.042	647.594
331.314	17.562	848.921	647.746
332.329	17.699	848.284	647.721
333.343	17.732	847.918	647.509
334.358	17.841	847.401	647.474
335.373	17.839	846.861	646.993
336.387	17.910	846.343	646.810
337.402	17.857	846.233	646.469
338.416	17.882	845.863	646.222
339.431	18.050	845.508	646.531
340.446	18.258	844.823	646.736
341.460	18.176	844.901	646.426
342.475	18.178	843.991	645.681
343.489	18.276	843.681	645.756
344.504	18.097	843.315	644.744
345.519	18.377	842.739	645.303
346.533	18.266	842.297	644.490
347.548	18.095	841.897	643.481
348.562	18.055	841.244	642.778
349.577	17.974	840.735	642.028
350.592	17.987	839.716	641.241
351.606	17.956	838.714	640.302
352.621	18.004	838.358	640.152
353.635	18.199	837.783	640.387
354.650	18.305	836.815	639.987
355.665	18.229	836.397	639.326
356.679	18.118	836.159	638.673
357.694	18.211	835.597	638.536
358.708	18.207	834.565	637.677
359.723	18.243	834.115	637.409
360.738	18.130	833.730	636.639
361.752	18.301	833.064	636.710
362.767	18.442	832.549	636.785
363.781	18.294	831.839	635.636
364.796	18.449	831.561	635.939
365.810	18.503	831.537	636.068
366.825	18.529	831.150	635.809
367.840	18.606	830.516	635.555
368.854	18.426	830.011	634.446
369.869	18.451	829.586	634.157
370.883	18.552	829.036	634.053
371.898	18.576	829.024	634.076
372.913	18.619	828.469	633.756
373.927	18.668	827.799	633.366
374.942	18.624	827.242	632.724
375.956	18.755	826.910	632.896
376.971	18.744	826.439	632.439
377.986	18.777	825.945	632.125
379.000	18.945	825.318	632.208
380.015	18.768	825.080	631.320
381.029	18.725	824.381	630.572
382.044	18.890	823.979	630.815
383.059	18.730	823.487	629.796
384.073	18.799	822.508	629.242
385.088	18.672	821.980	628.319
386.102	18.633	821.570	627.807
387.117	18.699	820.576	627.232
388.132	18.532	820.305	626.360
389.146	18.736	819.796	626.659
390.161	18.795	819.462	626.564
391.175	18.822	818.980	626.239
392.190	18.828	818.102	625.534
393.205	18.769	817.657	624.926
394.219	18.763	817.271	624.553
395.234	18.706	816.830	623.951
396.248	18.551	816.403	623.010
397.263	18.673	816.193	623.236
398.278	18.652	815.831	622.828
399.292	18.745	815.213	622.637
400.307	18.657	814.932	622.048
401.321	18.679	814.638	621.850
402.336	18.850	813.476	621.525
403.350	18.881	813.370	621.503
404.365	18.901	812.895	621.157
405.380	19.090	812.741	621.665
406.394	18.972	812.127	620.715
407.409	19.064	811.826	620.765
408.423	19.121	811.538	620.693
409.438	19.087	810.932	620.053
410.453	19.200	810.595	620.146
411.467	19.184	810.220	619.748
412.482	19.329	809.866	619.943
413.496	19.362	809.457	619.694
414.511	19.164	809.003	618.578
415.526	19.212	808.918	618.632
416.540	19.176	808.312	617.987
417.555	19.246	807.573	617.616
418.569	19.301	807.014	617.330
419.584	19.323	806.553	617.005
420.599	19.324	806.099	616.604
421.613	153.082	1368.901	1783.127
422.628	132.848	1450.919	1783.266
