DTS Sentinel unit serial number:	SN413079Multiplexer serial number:	ORYXHardware model number:	OX4-SRSoftware version number:	ORYX F/W v4.00 Oryx Data Collector v3.7.2.0data status	okinstallation	princeton_trtdifferential loss correction	single-endedforward channel	channel 1reverse channel	N/Adate	2019/09/15time	01:42:35forward acquisition time	60.00reverse acquisition time	0.00gamma	496.2192k internal	0.2321k external	0.2321temperature offset calibration	0.9987default loss term (dB/km)	0.3790temperature slope calibration	1.0000multiplexer offset coefficient	1.0000multiplexer slope coefficient	1.0000fibre end	0.00T internal ref (°C)	31.81T ext. ref 1 (°C)	4.51T ext. ref 2 (°C)	26.72length (m)	temperature (°C)	Stokes	anti-Stokes-747.200	316.388	-0.075	0.144
-746.185	-152.462	-0.275	0.020
-745.171	-46.893	-0.187	0.092
-744.156	-200.000	-0.068	0.304
-743.142	-31.714	0.244	0.138
-742.127	196.642	0.152	0.234
-741.112	104.565	0.304	0.361
-740.098	-24.352	-0.329	-0.198
-739.083	-78.235	-0.183	-0.063
-738.069	-46.582	-0.058	-0.029
-737.054	339.840	0.115	-0.226
-736.039	-93.203	-0.283	-0.079
-735.025	-10.205	-0.208	0.140
-734.010	2.605	-0.251	-0.184
-732.996	-200.000	0.068	-0.332
-731.981	-72.335	0.222	0.083
-730.966	76.433	-0.337	0.360
-729.952	-117.088	-0.220	-0.041
-728.937	-105.011	0.308	-0.071
-727.923	-36.917	-0.221	-0.120
-726.908	-122.983	-0.280	0.046
-725.894	91.156	0.150	-0.170
-724.879	-200.000	-0.003	0.169
-723.864	97.167	0.170	0.197
-722.850	800.000	-0.021	0.061
-721.835	55.430	0.109	-0.107
-720.821	112.456	0.151	0.185
-719.806	18.038	-0.104	0.083
-718.791	-200.000	0.085	-0.426
-717.777	-200.000	-0.037	-0.378
-716.762	-200.000	-0.030	0.261
-715.748	-1.203	0.111	0.079
-714.733	52.722	0.176	0.169
-713.718	178.916	-0.083	-0.122
-712.704	13.716	0.023	-0.018
-711.689	-55.278	0.160	-0.072
-710.675	1.762	-0.082	0.060
-709.660	-106.337	-0.140	-0.032
-708.645	-68.546	-0.210	-0.082
-707.631	-115.897	0.369	-0.070
-706.616	591.531	-0.073	-0.181
-705.602	-200.000	0.030	0.484
-704.587	167.688	-0.147	-0.210
-703.572	-200.000	-0.009	-0.134
-702.558	800.000	-0.050	0.161
-701.543	-200.000	0.065	0.309
-700.529	-200.000	-0.030	0.287
-699.514	100.915	-0.115	0.134
-698.499	-200.000	0.040	0.269
-697.485	-139.232	0.387	0.042
-696.470	800.000	0.010	-0.030
-695.456	800.000	-0.069	-0.226
-694.441	102.592	0.096	0.113
-693.426	-200.000	-0.003	-0.202
-692.412	126.590	-0.037	0.048
-691.397	20.063	0.122	-0.099
-690.383	-81.415	-0.334	0.111
-689.368	-200.000	-0.047	-0.320
-688.354	-183.253	-0.152	0.003
-687.339	105.926	-0.202	-0.241
-686.324	67.961	-0.294	-0.303
-685.310	302.018	0.048	-0.090
-684.295	204.918	-0.046	0.073
-683.281	-200.000	-0.051	-0.388
-682.266	800.000	0.035	-0.157
-681.251	-26.091	0.108	-0.064
-680.237	-13.327	-0.224	-0.146
-679.222	277.548	-0.032	-0.058
-678.208	-200.000	0.021	0.393
-677.193	-2.549	-0.287	0.203
-676.178	800.000	-0.066	-0.224
-675.164	60.636	-0.276	0.276
-674.149	-200.000	0.024	-0.430
-673.135	-200.000	-0.003	-0.445
-672.120	-200.000	-0.005	0.131
-671.105	-85.104	0.110	-0.035
-670.091	-200.000	0.033	0.184
-669.076	458.647	-0.151	-0.338
-668.062	-78.384	-0.050	0.017
-667.047	-39.714	0.134	0.070
-666.032	5.604	-0.181	0.135
-665.018	800.000	0.071	-0.197
-664.003	-26.207	-0.182	0.108
-662.989	-200.000	-0.021	-0.274
-661.974	15.425	-0.152	-0.120
-660.959	44.097	0.194	0.180
-659.945	147.850	-0.079	-0.107
-658.930	-14.132	-0.139	0.090
-657.916	-97.747	0.325	0.085
-656.901	339.579	0.053	-0.105
-655.886	396.126	0.110	-0.232
-654.872	-25.048	0.194	-0.116
-653.857	-42.578	-0.241	0.124
-652.843	-48.382	-0.178	-0.087
-651.828	-200.000	0.017	-0.137
-650.814	-61.130	-0.310	0.132
-649.799	-51.772	-0.201	0.094
-648.784	-200.000	0.071	-0.376
-647.770	275.953	-0.030	-0.054
-646.755	800.000	0.043	0.183
-645.741	-70.575	0.083	-0.032
-644.726	800.000	0.059	-0.167
-643.711	44.129	-0.176	0.163
-642.697	800.000	0.028	-0.123
-641.682	636.923	0.077	-0.196
-640.668	109.531	0.026	0.031
-639.653	-91.493	-0.118	-0.034
-638.638	-99.720	-0.179	0.045
-637.624	-58.587	-0.253	0.110
-636.609	160.431	-0.207	-0.290
-635.595	171.410	0.028	0.040
-634.580	-66.194	-0.145	0.058
-633.565	-25.172	0.410	0.245
-632.551	379.410	-0.129	-0.265
-631.536	-114.856	0.501	0.096
-630.522	-49.387	-0.129	0.062
-629.507	287.424	0.074	0.135
-628.492	245.941	-0.022	0.038
-627.478	59.658	-0.128	-0.127
-626.463	-165.122	-0.215	-0.010
-625.449	5.328	-0.150	-0.112
-624.434	-200.000	0.084	-0.376
-623.419	195.443	0.177	-0.270
-622.405	43.383	-0.092	0.085
-621.390	-200.000	-0.001	-0.085
-620.376	37.489	0.172	-0.153
-619.361	-145.734	0.087	-0.008
-618.346	5.225	0.116	0.086
-617.332	360.347	0.081	-0.162
-616.317	345.713	-0.169	-0.334
-615.303	251.667	-0.123	-0.210
-614.288	-61.619	0.183	-0.077
-613.273	800.000	-0.159	0.464
-612.259	-200.000	-0.077	-0.420
-611.244	800.000	-0.124	-0.375
-610.230	44.074	0.149	-0.138
-609.215	-62.039	-0.211	-0.089
-608.201	228.924	0.055	0.091
-607.186	-108.996	-0.101	-0.022
-606.171	338.546	-0.228	-0.446
-605.157	615.461	-0.020	-0.051
-604.142	-200.000	-0.003	0.281
-603.128	70.338	-0.305	-0.317
-602.113	-89.656	-0.314	0.093
-601.098	800.000	0.087	0.310
-600.084	29.744	-0.109	0.094
-599.069	-58.316	-0.086	-0.038
-598.055	-113.876	-0.107	-0.021
-597.040	202.711	-0.198	-0.307
-596.025	-46.589	-0.117	-0.058
-595.011	56.935	-0.336	0.329
-593.996	-117.823	0.416	0.075
-592.982	800.000	0.060	-0.191
-591.967	-200.000	-0.024	0.445
-590.952	-99.306	-0.284	-0.072
-589.938	30.455	-0.175	-0.151
-588.923	137.280	0.073	0.095
-587.909	2.703	-0.186	0.136
-586.894	-187.477	-0.274	-0.004
-585.879	-200.000	0.027	-0.278
-584.865	-200.000	-0.021	-0.211
-583.850	-200.000	-0.033	0.246
-582.836	-200.000	-0.394	0.002
-581.821	800.000	0.033	0.105
-580.806	-142.560	-0.071	0.007
-579.792	-191.897	-0.052	0.001
-578.777	-25.739	0.296	0.175
-577.763	800.000	0.052	-0.200
-576.748	-129.961	0.414	-0.057
-575.733	-85.022	0.264	-0.083
-574.719	335.085	0.094	0.183
-573.704	-55.880	-0.087	0.039
-572.690	-90.379	-0.269	-0.078
-571.675	-91.019	0.295	-0.085
-570.661	-200.000	0.081	-0.389
-569.646	-32.666	-0.213	-0.119
-568.631	800.000	-0.115	-0.483
-567.617	-7.543	0.240	-0.163
-566.602	-57.698	0.089	0.039
-565.588	45.732	-0.181	-0.168
-564.573	658.311	0.061	0.157
-563.558	40.561	-0.259	0.234
-562.544	-134.838	0.106	0.013
-561.529	800.000	-0.021	0.067
-560.515	561.376	0.240	-0.583
-559.500	-139.847	-0.082	0.009
-558.485	800.000	-0.038	0.158
-557.471	229.802	-0.116	0.189
-556.456	-123.901	0.250	-0.040
-555.442	800.000	0.038	-0.117
-554.427	-11.422	-0.121	0.080
-553.412	412.442	0.142	-0.303
-552.398	-87.943	0.212	-0.064
-551.383	-13.133	-0.141	0.092
-550.369	-74.365	0.046	-0.017
-549.354	-26.159	-0.160	0.094
-548.339	800.000	-0.101	-0.301
-547.325	552.254	0.074	0.178
-546.310	-190.762	-0.039	-0.000
-545.296	-117.542	0.259	-0.047
-544.281	76.949	-0.257	-0.274
-543.266	73.515	0.157	0.165
-542.252	-200.000	0.070	0.405
-541.237	-19.383	0.205	0.128
-540.223	25.402	-0.312	0.260
-539.208	47.115	-0.107	-0.100
-538.193	800.000	-0.032	0.090
-537.179	-200.000	-0.032	0.209
-536.164	-200.000	0.016	-0.213
-535.150	-145.940	-0.046	0.004
-534.135	800.000	-0.092	-0.326
-533.121	-55.391	-0.245	0.110
-532.106	331.373	0.200	-0.387
-531.091	415.164	0.149	0.319
-530.077	-135.422	-0.121	0.014
-529.062	93.395	-0.075	0.085
-528.048	-15.894	-0.234	0.149
-527.033	92.546	0.290	0.328
-526.018	79.383	0.096	0.103
-525.004	10.746	0.210	0.160
-523.989	231.043	-0.098	0.160
-522.975	-25.784	0.057	-0.034
-521.960	129.512	-0.099	-0.127
-520.945	270.176	-0.112	-0.198
-519.931	-200.000	-0.039	0.279
-518.916	-70.982	-0.311	-0.117
-517.902	565.264	-0.046	-0.113
-516.887	648.618	-0.068	0.175
-515.872	-147.810	0.145	-0.012
-514.858	115.636	-0.173	-0.212
-513.843	-120.982	-0.342	0.058
-512.829	-116.049	0.224	0.042
-511.814	-137.179	0.229	0.026
-510.799	-200.000	0.081	-0.397
-509.785	-119.027	0.123	0.022
-508.770	-129.803	-0.257	-0.035
-507.756	-138.535	0.228	-0.025
-506.741	-35.139	-0.124	0.068
-505.726	748.259	-0.124	-0.334
-504.712	-200.000	-0.015	-0.384
-503.697	114.349	-0.055	-0.067
-502.683	-200.000	0.040	0.377
-501.668	800.000	-0.044	0.180
-500.653	-39.600	0.270	0.141
-499.639	310.446	-0.091	0.171
-498.624	351.968	0.187	0.371
-497.610	41.880	-0.134	0.121
-496.595	749.030	0.087	-0.235
-495.581	244.408	0.137	0.230
-494.566	296.678	0.061	0.111
-493.551	75.419	-0.177	0.187
-492.537	800.000	0.013	-0.045
-491.522	-200.000	-0.032	-0.278
-490.508	181.758	-0.077	-0.114
-489.493	175.199	-0.050	-0.073
-488.478	16.576	-0.448	0.354
-487.464	-3.898	0.184	-0.128
-486.449	-119.076	-0.250	-0.044
-485.435	-27.130	0.287	0.168
-484.420	328.110	-0.102	-0.197
-483.405	80.144	0.073	0.079
-482.391	-200.000	-0.032	-0.162
-481.376	-76.413	-0.448	-0.158
-480.362	-126.980	-0.315	0.046
-479.347	-119.147	0.356	0.062
-478.332	-144.209	-0.052	-0.005
-477.318	-200.000	-0.022	0.120
-476.303	-200.000	-0.028	0.223
-475.289	39.160	-0.291	-0.260
-474.274	502.456	0.086	-0.198
-473.259	-144.972	0.224	-0.020
-472.245	51.272	0.082	0.077
-471.230	-60.212	-0.239	-0.102
-470.216	-82.928	-0.157	-0.051
-469.201	122.679	-0.227	0.284
-468.186	166.004	0.077	-0.109
-467.172	-1.139	-0.177	-0.125
-466.157	800.000	0.047	-0.174
-465.143	191.599	-0.171	-0.257
-464.128	-200.000	-0.005	-0.190
-463.113	85.137	-0.262	-0.288
-462.099	-120.445	0.131	0.022
-461.084	-200.000	-0.044	-0.356
-460.070	800.000	-0.018	-0.064
-459.055	474.568	0.141	-0.319
-458.040	36.963	-0.171	0.151
-457.026	-200.000	0.035	0.207
-456.011	-127.691	-0.212	0.031
-454.997	-32.079	-0.072	-0.040
-453.982	-101.365	-0.026	-0.006
-452.968	-187.734	0.115	0.002
-451.953	-101.317	0.385	0.094
-450.938	348.118	0.119	0.235
-449.924	796.874	0.129	-0.355
-448.909	297.353	-0.132	-0.243
-447.895	-175.280	-0.137	0.004
-446.880	-200.000	0.030	0.404
-445.865	-200.000	0.002	0.112
-444.851	506.758	0.130	0.301
-443.836	731.850	0.034	-0.092
-442.822	800.000	-0.068	-0.275
-441.807	196.384	-0.090	0.138
-440.792	101.703	0.106	-0.124
-439.778	800.000	-0.089	0.308
-438.763	-155.496	0.325	0.021
-437.749	-64.535	0.147	0.060
-436.734	-12.424	-0.194	-0.127
-435.719	-29.217	-0.293	-0.168
-434.705	93.740	0.172	-0.194
-433.690	-98.176	0.278	-0.071
-432.676	1.837	-0.150	0.108
-431.661	-200.000	0.007	0.397
-430.646	-4.772	0.262	0.180
-429.632	-200.000	0.019	0.240
-428.617	155.501	0.119	-0.164
-427.603	-35.000	0.272	-0.148
-426.588	-56.179	0.119	0.053
-425.573	-133.287	-0.121	-0.015
-424.559	50.737	0.124	-0.117
-423.544	-35.776	0.078	-0.042
-422.530	-200.000	0.040	0.220
-421.515	-89.636	0.285	0.083
-420.500	77.885	-0.190	-0.202
-419.486	800.000	0.015	0.066
-418.471	203.007	-0.060	-0.092
-417.457	161.045	0.096	0.133
-416.442	-26.309	0.061	-0.035
-415.428	-166.852	-0.150	-0.006
-414.413	-86.510	0.135	0.041
-413.398	8.652	-0.256	-0.192
-412.384	-200.000	0.011	0.245
-411.369	-200.000	-0.036	-0.175
-410.355	-26.021	-0.199	0.117
-409.340	85.173	-0.089	-0.098
-408.325	137.489	-0.342	-0.446
-407.311	-200.000	0.040	-0.652
-406.296	800.000	-0.015	0.056
-405.282	59.464	0.104	0.103
-404.267	120.869	-0.299	0.371
-403.252	101.569	-0.066	0.077
-402.238	1.614	0.252	0.181
-401.223	35.803	-0.139	-0.122
-400.209	-47.753	0.279	0.135
-399.194	-200.000	-0.093	-0.421
-398.179	-42.355	0.138	0.070
-397.165	-100.935	0.267	0.065
-396.150	-116.606	-0.067	0.012
-395.136	-79.460	0.323	-0.109
-394.121	800.000	-0.062	0.196
-393.106	-200.000	0.024	-0.197
-392.092	-110.302	-0.027	0.006
-391.077	199.319	-0.126	0.193
-390.063	-200.000	0.059	-0.288
-389.048	-48.999	-0.300	-0.143
-388.033	38.635	-0.212	0.188
-387.019	-200.000	0.039	0.308
-386.004	774.680	-0.104	0.283
-384.990	-200.000	0.014	0.064
-383.975	-200.000	-0.025	0.138
-382.960	53.980	-0.163	0.157
-381.946	437.887	0.041	0.089
-380.931	-97.280	-0.207	0.054
-379.917	-53.450	0.049	-0.023
-378.902	-126.229	-0.248	-0.037
-377.888	-66.290	-0.183	-0.072
-376.873	232.439	0.085	-0.139
-375.858	-37.218	-0.043	0.023
-374.844	-200.000	-0.027	0.343
-373.829	800.000	-0.030	0.113
-372.815	-33.378	0.311	-0.171
-371.800	-114.111	-0.221	0.043
-370.785	-151.466	-0.250	0.018
-369.771	-58.003	0.262	-0.114
-368.756	-200.000	0.030	-0.270
-367.742	189.066	-0.056	0.083
-366.727	759.430	-0.135	0.365
-365.712	109.287	-0.120	0.143
-364.698	-200.000	0.003	0.113
-363.683	101.423	-0.073	0.085
-362.669	-114.305	0.152	-0.029
-361.654	-33.307	0.108	0.060
-360.639	800.000	0.027	0.079
-359.625	-200.000	0.017	0.392
-358.610	71.570	0.270	0.279
-357.596	-9.550	-0.257	0.171
-356.581	426.559	0.045	0.098
-355.566	273.671	-0.076	0.134
-354.552	-150.202	-0.151	0.012
-353.537	279.277	-0.136	-0.241
-352.523	-200.000	-0.016	0.294
-351.508	-200.000	-0.007	-0.030
-350.493	387.249	-0.138	-0.284
-349.479	-198.759	-0.371	-0.002
-348.464	-200.000	0.028	-0.335
-347.450	102.873	0.007	-0.008
-346.435	281.195	-0.171	0.305
-345.420	-79.919	0.277	0.092
-344.406	-18.792	-0.145	-0.090
-343.391	800.000	-0.052	0.173
-342.377	-59.745	0.409	-0.174
-341.362	263.538	-0.028	-0.048
-340.348	-200.000	0.022	0.124
-339.333	-200.000	0.039	0.199
-338.318	255.590	0.199	0.340
-337.304	-96.500	0.198	-0.052
-336.289	-90.850	-0.319	0.091
-335.275	-95.769	0.091	-0.024
-334.260	35.783	-0.284	0.248
-333.245	-5.701	0.318	-0.217
-332.231	-200.000	-0.010	-0.060
-331.216	-200.000	-0.047	-0.265
-330.202	-100.381	-0.128	0.032
-329.187	-161.611	-0.184	0.009
-328.172	-58.477	0.169	-0.073
-327.158	-55.718	0.249	0.111
-326.143	-70.051	0.141	-0.053
-325.129	-50.359	-0.184	0.086
-324.114	-200.000	-0.039	0.218
-323.099	49.136	0.074	-0.069
-322.085	-200.000	-0.010	-0.159
-321.070	679.292	-0.104	-0.270
-320.056	-40.730	-0.380	0.196
-319.041	110.372	-0.177	0.211
-318.026	86.109	0.092	-0.100
-317.012	-184.816	0.026	-0.000
-315.997	8.735	-0.165	0.123
-314.983	-13.170	-0.270	-0.174
-313.968	96.336	-0.055	-0.063
-312.953	441.958	-0.195	-0.423
-311.939	101.892	0.132	-0.153
-310.924	-200.000	-0.017	-0.088
-309.910	64.710	0.263	-0.264
-308.895	-150.827	0.243	0.018
-307.880	-173.368	0.362	-0.011
-306.866	-200.000	-0.043	-0.315
-305.851	-106.126	-0.279	0.062
-304.837	35.089	0.121	-0.105
-303.822	-200.000	0.050	-0.282
-302.807	-121.437	0.139	0.023
-301.793	-46.045	0.217	0.106
-300.778	-41.608	-0.165	-0.084
-299.764	-137.465	-0.239	-0.027
-298.749	152.028	0.200	0.271
-297.735	88.538	-0.136	-0.150
-296.720	-200.000	0.044	0.218
-295.705	-119.609	0.312	-0.054
-294.691	292.475	0.055	-0.100
-293.676	-200.000	0.008	0.045
-292.662	359.782	0.108	-0.214
-291.647	246.254	0.118	0.197
-290.632	1.646	0.025	-0.018
-289.618	5.215	0.288	-0.211
-288.603	372.090	0.058	-0.116
-287.589	385.025	0.056	0.116
-286.574	35.487	0.241	0.210
-285.559	-83.215	-0.114	-0.036
-284.545	-144.962	0.035	0.003
-283.530	173.634	-0.032	0.046
-282.516	-200.000	-0.044	-0.203
-281.501	91.895	-0.218	-0.243
-280.486	68.195	0.073	-0.074
-279.472	-41.504	-0.134	0.069
-278.457	800.000	-0.085	0.263
-277.443	51.260	0.133	0.125
-276.428	265.902	-0.052	-0.091
-275.413	-197.250	0.320	-0.002
-274.399	64.096	0.141	0.140
-273.384	510.900	-0.148	-0.343
-272.370	425.915	-0.074	0.158
-271.355	-130.785	0.233	0.031
-270.340	800.000	-0.110	-0.424
-269.326	232.638	0.150	-0.244
-268.311	169.499	0.103	-0.146
-267.297	-92.212	-0.205	-0.057
-266.282	235.723	0.167	0.273
-265.267	-75.042	0.110	-0.039
-264.253	-200.000	0.335	0.000
-263.238	562.684	0.110	-0.263
-262.224	-140.072	0.334	0.035
-261.209	129.461	0.090	0.113
-260.195	31.339	0.208	0.177
-259.180	-200.000	-0.081	0.538
-258.165	230.708	0.149	-0.241
-257.151	-99.192	0.157	-0.039
-256.136	-200.000	0.001	-0.194
-255.122	-45.700	0.040	-0.019
-254.107	-200.000	0.048	0.366
-253.092	-27.393	-0.068	0.039
-252.078	-200.000	0.016	0.283
-251.063	-53.454	-0.175	-0.079
-250.049	800.000	-0.037	-0.153
-249.034	-124.198	-0.228	0.035
-248.019	23.307	-0.145	0.118
-247.005	-124.071	0.297	-0.046
-245.990	-200.000	0.035	-0.342
-244.976	166.871	-0.281	0.395
-243.961	553.495	0.165	0.394
-242.946	33.154	-0.102	0.087
-241.932	-1.729	-0.122	0.085
-240.917	162.892	0.144	0.200
-239.903	-200.000	0.021	0.148
-238.888	210.316	0.161	-0.251
-237.873	-200.000	0.003	0.038
-236.859	-200.000	-0.016	-0.143
-235.844	-53.618	-0.188	-0.085
-234.830	50.439	-0.068	-0.064
-233.815	264.782	0.157	0.271
-232.800	477.455	0.168	0.378
-231.786	-23.292	-0.089	0.053
-230.771	151.691	0.154	-0.208
-229.757	139.586	-0.173	-0.226
-228.742	-200.000	-0.008	-0.131
-227.727	-21.416	0.017	0.011
-226.713	-100.373	0.240	0.059
-225.698	800.000	-0.035	-0.111
-224.684	-167.147	0.145	0.006
-223.669	-96.756	0.302	0.079
-222.655	-60.031	-0.395	0.167
-221.640	70.860	0.221	-0.227
-220.625	656.932	-0.032	-0.083
-219.611	-168.538	0.252	0.010
-218.596	-200.000	-0.009	-0.064
-217.582	-98.039	0.048	-0.012
-216.567	-151.692	-0.233	-0.017
-215.552	636.160	0.123	0.310
-214.538	129.062	0.121	0.153
-213.523	-80.664	-0.197	-0.065
-212.509	-57.723	-0.061	0.026
-211.494	-98.423	0.309	-0.078
-210.479	-144.371	-0.182	-0.017
-209.465	327.632	-0.072	0.137
-208.450	9.755	-0.158	0.118
-207.436	-177.884	0.370	0.009
-206.421	800.000	-0.055	-0.212
-205.406	-182.146	0.230	-0.004
-204.392	-169.406	0.117	-0.004
-203.377	-200.000	-0.015	0.318
-202.363	-146.370	0.465	0.040
-201.348	33.886	0.105	0.091
-200.333	-200.000	-0.045	0.260
-199.319	15.402	0.209	0.162
-198.304	630.826	-0.065	0.163
-197.290	278.007	0.026	0.046
-196.275	27.058	0.037	0.031
-195.260	140.885	-0.116	0.151
-194.246	-18.366	0.071	0.044
-193.231	-200.000	0.041	-0.227
-192.217	158.898	0.169	0.232
-191.202	631.305	-0.041	0.104
-190.187	800.000	-0.052	-0.168
-189.173	-128.266	-0.094	0.013
-188.158	172.638	-0.112	0.159
-187.144	188.046	0.092	0.136
-186.129	217.607	-0.082	0.130
-185.114	-200.000	-0.034	0.296
-184.100	800.000	0.068	-0.207
-183.085	800.000	-0.098	-0.278
-182.071	-47.312	-0.030	-0.014
-181.056	-81.304	0.174	-0.057
-180.042	-81.972	-0.151	-0.049
-179.027	-59.784	0.252	-0.107
-178.012	800.000	-0.043	0.178
-176.998	-104.998	0.082	0.019
-175.983	-200.000	-0.008	0.277
-174.969	45.018	-0.229	0.208
-173.954	154.515	0.154	-0.209
-172.939	-162.057	0.457	0.023
-171.925	-200.000	0.000	0.123
-170.910	-1.831	0.303	0.211
-169.896	-142.826	0.333	-0.032
-168.881	-200.000	0.034	0.152
-167.866	180.812	-0.158	-0.230
-166.852	230.359	-0.041	-0.066
-165.837	-200.000	0.059	0.261
-164.823	-97.409	-0.439	0.113
-163.808	510.675	0.107	0.245
-162.793	-21.959	-0.228	-0.137
-161.779	132.253	0.109	0.139
-160.764	-59.148	-0.276	0.118
-159.750	-200.000	-0.020	0.374
-158.735	102.752	0.069	-0.080
-157.720	-4.225	0.163	0.112
-156.706	-46.782	-0.142	0.069
-155.691	-101.259	0.145	-0.035
-154.677	-130.874	-0.338	-0.045
-153.662	800.000	0.063	-0.239
-152.647	-200.000	0.014	-0.066
-151.633	137.551	0.422	-0.546
-150.618	800.000	-0.047	0.164
-149.604	93.058	0.206	-0.230
-148.589	381.619	-0.098	-0.198
-147.574	286.345	-0.074	-0.132
-146.560	-95.165	0.070	-0.019
-145.545	384.642	0.128	0.260
-144.531	-167.388	-0.141	-0.006
-143.516	-45.153	0.292	0.143
-142.502	698.509	0.054	-0.140
-141.487	-49.888	-0.465	0.218
-140.472	379.063	0.107	-0.217
-139.458	800.000	-0.038	-0.112
-138.443	800.000	-0.033	0.138
-137.429	-96.743	-0.195	-0.051
-136.414	-200.000	-0.000	0.043
-135.399	-99.925	-0.053	0.013
-134.385	-38.185	-0.077	0.040
-133.370	386.098	-0.009	-0.018
-132.356	-35.151	0.179	0.096
-131.341	-200.000	0.003	-0.105
-130.326	-79.090	-0.266	-0.089
-129.312	-80.486	0.227	-0.075
-128.297	308.190	0.080	-0.147
-127.283	374.491	0.061	0.123
-126.268	-106.881	0.165	-0.036
-125.253	800.000	0.206	-0.597
-124.239	-146.427	0.248	-0.021
-123.224	800.000	-0.023	-0.063
-122.210	-150.978	-0.145	-0.011
-121.195	-31.729	-0.120	0.066
-120.180	275.970	0.075	0.131
-119.166	37.041	0.098	0.085
-118.151	-31.041	-0.283	0.158
-117.137	144.901	-0.153	0.202
-116.122	455.647	-0.106	-0.233
-115.107	162.031	0.192	0.265
-114.093	-183.346	-0.571	0.010
-113.078	228.301	0.273	0.439
-112.064	353.346	0.102	-0.200
-111.049	-200.000	-0.010	-0.097
-110.034	25.889	0.158	-0.130
-109.020	-200.000	-0.021	0.133
-108.005	97.893	-0.165	-0.188
-106.991	-104.034	0.090	-0.021
-105.976	200.801	0.108	-0.163
-104.962	-160.360	0.309	0.016
-103.947	132.277	0.148	-0.188
-102.932	689.586	0.136	0.350
-101.918	-89.650	0.267	0.077
-100.903	-158.286	-0.197	0.011
-99.889	-152.859	-0.496	0.035
-98.874	-77.988	-0.374	-0.127
-97.859	-167.977	0.234	-0.009
-96.845	2.768	-0.090	0.064
-95.830	800.000	0.060	0.175
-94.816	791.945	0.080	0.218
-93.801	108.705	-0.068	-0.080
-92.786	-200.000	-0.024	-0.247
-91.772	346.051	0.034	0.065
-90.757	-96.551	0.117	0.030
-89.743	-167.172	-0.261	0.010
-88.728	186.027	0.169	-0.247
-87.713	-115.190	-0.027	-0.005
-86.699	-200.000	0.026	0.265
-85.684	465.501	-0.112	-0.247
-84.670	-200.000	0.017	0.141
-83.655	-200.000	-0.020	0.133
-82.640	650.833	0.071	0.179
-81.626	-123.143	0.439	0.069
-80.611	-137.558	0.234	0.026
-79.597	-73.653	-0.367	-0.132
-78.582	-105.859	0.587	-0.131
-77.567	800.000	-0.050	-0.213
-76.553	93.483	-0.057	-0.063
-75.538	192.470	0.036	-0.053
-74.524	800.000	0.045	-0.144
-73.509	-119.955	0.113	-0.019
-72.494	-85.961	-0.165	0.050
-71.480	374.600	0.066	-0.133
-70.465	-33.632	0.106	-0.058
-69.451	-128.813	0.174	-0.024
-68.436	193.742	-0.105	-0.156
-67.422	-67.430	-0.284	0.110
-66.407	800.000	0.045	-0.143
-65.392	451.629	-0.100	-0.219
-64.378	-200.000	-0.086	-0.378
-63.363	-200.000	0.003	-0.146
-62.349	-70.427	-0.157	-0.059
-61.334	42.314	-1.128	-1.009
-60.319	-34.149	0.708	0.383
-59.305	800.000	-0.274	-1.057
-58.290	430.852	0.552	1.176
-57.276	367.929	0.854	1.697
-56.261	-200.000	96.240	597.399
-55.246	649.239	1373.242	3456.832
-54.232	199.127	2548.637	3841.925
-53.217	121.074	2137.982	2617.473
-52.203	43.917	1600.763	1442.652
-51.188	35.398	1337.833	1154.657
-50.173	32.100	1296.448	1099.620
-49.159	54.731	1343.281	1274.577
-48.144	56.874	1360.406	1303.523
-47.130	35.547	1318.994	1139.097
-46.115	31.962	1301.873	1103.232
-45.100	31.802	1296.681	1097.856
-44.086	31.747	1294.121	1095.321
-43.071	31.622	1291.988	1092.741
-42.057	31.640	1289.791	1090.944
-41.042	31.664	1288.181	1089.677
-40.027	31.781	1286.480	1088.875
-39.013	31.716	1284.852	1087.078
-37.998	31.731	1283.143	1085.675
-36.984	31.843	1281.118	1084.567
-35.969	31.925	1279.111	1083.303
-34.954	31.857	1277.593	1081.578
-33.940	31.893	1276.430	1080.756
-32.925	31.851	1275.308	1079.527
-31.911	31.853	1273.693	1078.123
-30.896	31.862	1271.937	1076.649
-29.881	31.915	1271.088	1076.189
-28.867	32.030	1269.096	1075.121
-27.852	32.053	1267.852	1074.154
-26.838	31.975	1266.313	1072.362
-25.823	31.939	1265.092	1071.081
-24.809	31.895	1263.963	1069.830
-23.794	31.811	1263.255	1068.710
-22.779	31.886	1261.969	1068.008
-21.765	31.868	1260.363	1066.504
-20.750	31.894	1258.797	1065.285
-19.736	31.855	1257.626	1064.033
-18.721	31.744	1256.529	1062.431
-17.706	31.707	1255.199	1061.055
-16.692	31.775	1253.998	1060.379
-15.677	31.671	1253.370	1059.218
-14.663	31.785	1251.969	1058.637
-13.648	31.862	1250.249	1057.579
-12.633	31.747	1249.643	1056.372
-11.619	31.735	1249.068	1055.775
-10.604	31.690	1248.614	1055.099
-9.590	31.641	1247.341	1053.705
-8.575	31.717	1246.351	1053.253
-7.560	31.745	1245.308	1052.488
-6.546	31.744	1244.467	1051.728
-5.531	31.633	1244.217	1050.856
-4.517	31.724	1242.622	1049.978
-3.502	31.679	1241.964	1049.125
-2.487	31.668	1241.039	1048.240
-1.473	31.687	1236.991	1044.888
-0.458	30.291	1222.211	1024.661
0.556	25.525	1205.061	987.039
1.571	21.954	1210.233	971.458
2.586	20.911	1225.313	977.630
3.600	20.374	1214.629	966.030
4.615	15.593	1144.121	884.760
5.629	7.974	1071.030	790.474
6.644	4.608	1051.847	759.819
7.659	4.483	1049.300	757.302
8.673	4.450	1048.288	756.345
9.688	4.480	1046.661	755.248
10.702	4.596	1044.986	754.541
11.717	8.870	1050.944	779.599
12.731	15.803	1060.838	820.800
13.746	18.804	1063.339	837.311
14.761	18.074	1062.061	832.675
15.775	16.918	1060.278	825.577
16.790	15.818	1057.823	818.247
17.804	15.217	1056.077	813.906
18.819	14.755	1055.107	810.847
19.834	14.519	1054.241	808.965
20.848	14.407	1053.204	807.552
21.863	14.196	1052.528	805.943
22.877	14.011	1052.028	804.593
23.892	13.947	1051.540	803.836
24.907	13.985	1050.739	803.337
25.921	14.031	1049.260	802.360
26.936	14.093	1048.141	801.731
27.950	14.011	1046.882	800.304
28.965	14.189	1045.348	799.916
29.980	14.256	1043.545	798.784
30.994	14.399	1042.582	798.661
32.009	14.385	1041.608	797.779
33.023	14.396	1040.740	797.095
34.038	14.265	1039.319	795.314
35.053	14.010	1039.119	793.871
36.067	14.212	1037.627	793.622
37.082	14.122	1037.167	792.775
38.096	14.220	1036.638	792.766
39.111	14.177	1035.446	791.577
40.126	14.229	1034.272	790.858
41.140	13.867	1033.320	788.341
42.155	13.829	1032.255	787.282
43.169	13.898	1031.197	786.728
44.184	13.955	1029.724	785.805
45.199	13.903	1029.053	784.976
46.213	13.927	1028.031	784.243
47.228	14.029	1027.262	784.068
48.242	14.185	1025.777	783.603
49.257	14.048	1025.036	782.320
50.271	14.095	1024.212	781.844
51.286	14.079	1023.181	780.910
52.301	14.099	1022.169	780.166
53.315	14.013	1021.293	779.025
54.330	14.054	1020.077	778.220
55.344	14.022	1019.319	777.425
56.359	14.059	1018.656	777.019
57.374	13.930	1017.282	775.300
58.388	13.906	1016.903	774.832
59.403	13.973	1015.442	773.963
60.417	13.917	1014.631	773.014
61.432	13.764	1014.553	772.176
62.447	13.862	1013.530	771.784
63.461	13.640	1013.018	770.296
64.476	13.846	1011.466	770.001
65.490	13.728	1011.073	769.088
66.505	13.763	1010.580	768.807
67.520	13.833	1009.768	768.445
68.534	13.778	1009.154	767.655
69.549	13.850	1008.079	767.102
70.563	13.807	1007.564	766.446
71.578	13.899	1006.609	766.074
72.593	13.806	1005.308	764.588
73.607	13.858	1005.123	764.617
74.622	13.731	1004.547	763.529
75.636	13.736	1003.985	763.055
76.651	13.698	1003.084	762.130
77.666	13.701	1003.013	762.020
78.680	13.797	1002.104	761.704
79.695	13.791	1001.311	761.009
80.709	13.936	1000.744	761.172
81.724	13.902	1000.086	760.450
82.739	13.976	999.554	760.316
83.753	14.110	998.584	760.123
84.768	14.303	997.817	760.355
85.782	14.433	996.706	760.035
86.797	14.051	996.500	758.067
87.812	14.065	995.297	757.149
88.826	14.188	994.008	756.661
89.841	14.212	993.251	756.127
90.855	14.328	991.708	755.410
91.870	14.265	991.448	754.861
92.884	14.254	990.634	754.123
93.899	14.176	989.890	753.139
94.914	14.369	988.979	753.252
95.928	14.327	988.190	752.393
96.943	14.203	987.516	751.253
97.957	14.104	986.573	750.025
98.972	14.229	985.585	749.770
99.987	14.286	984.816	749.374
101.001	14.264	983.742	748.395
102.016	14.202	983.209	747.644
103.030	14.315	982.204	747.319
104.045	14.174	981.963	746.436
105.060	14.195	980.712	745.513
106.074	14.111	979.753	744.342
107.089	13.966	978.902	742.984
108.103	13.865	978.089	741.849
109.118	13.920	977.033	741.227
110.133	13.924	976.692	740.922
111.147	13.969	975.375	740.056
112.162	13.975	974.673	739.485
113.176	14.023	974.070	739.176
114.191	13.889	973.897	738.381
115.206	14.120	972.372	738.187
116.220	14.010	971.432	736.920
117.235	14.107	970.545	736.613
118.249	13.905	969.532	734.886
119.264	13.892	969.306	734.591
120.279	13.922	968.258	733.863
121.293	13.854	967.459	732.895
122.308	13.967	966.298	732.447
123.322	14.021	965.092	731.707
124.337	13.912	964.584	730.776
125.352	13.810	963.821	729.687
126.366	13.940	962.696	729.341
127.381	13.884	961.350	728.011
128.395	13.974	960.783	727.912
129.410	13.961	959.800	727.045
130.424	13.937	959.246	726.455
131.439	13.905	958.656	725.806
132.454	13.977	957.983	725.547
133.468	14.051	956.895	724.981
134.483	13.894	956.303	723.781
135.497	14.071	954.852	723.390
136.512	14.080	954.380	723.009
137.527	14.069	953.596	722.305
138.541	14.144	952.696	721.882
139.556	14.174	951.853	721.310
140.570	14.266	951.668	721.503
141.585	14.371	950.711	721.172
142.600	14.374	949.366	720.099
143.614	14.387	948.847	719.698
144.629	14.321	948.273	718.914
145.643	14.457	946.866	718.371
146.658	14.236	945.827	716.568
147.673	14.340	944.784	716.159
148.687	14.154	944.308	714.938
149.702	14.129	943.570	714.207
150.716	14.092	942.393	713.095
151.731	14.123	942.023	712.886
152.746	14.152	941.444	712.508
153.760	14.165	940.754	711.978
154.775	14.326	940.215	712.196
155.789	14.256	939.315	711.150
156.804	14.278	938.675	710.700
157.819	14.417	938.023	710.734
158.833	14.269	937.787	709.860
159.848	14.547	936.267	709.832
160.862	14.438	935.589	708.790
161.877	14.334	934.744	707.645
162.892	14.148	933.848	706.117
163.906	14.248	932.763	705.659
164.921	14.321	931.899	705.252
165.935	14.310	931.007	704.467
166.950	14.350	930.412	704.122
167.964	14.421	929.324	703.537
168.979	14.344	928.698	702.674
169.994	14.304	927.885	701.830
171.008	14.259	927.496	701.282
172.023	14.422	926.616	701.242
173.037	14.524	925.561	700.809
174.052	14.534	924.851	700.255
175.067	14.256	924.891	699.055
176.081	14.192	923.834	697.926
177.096	14.210	923.291	697.526
178.110	14.281	922.700	697.317
179.125	14.287	922.142	696.860
180.140	14.427	921.238	696.701
181.154	14.393	921.190	696.458
182.169	14.548	920.164	696.271
183.183	14.524	920.283	696.197
184.198	14.703	919.197	696.063
185.213	14.568	918.295	694.754
186.227	14.601	917.825	694.475
187.242	14.682	917.185	694.268
188.256	14.771	916.401	693.979
189.271	14.618	915.981	692.965
190.286	14.496	914.915	691.590
191.300	14.414	914.014	690.508
192.315	14.356	913.358	689.715
193.329	14.317	913.227	689.391
194.344	14.382	912.491	689.043
195.359	14.472	911.808	688.839
196.373	14.600	910.961	688.666
197.388	14.559	911.319	688.707
198.402	14.909	909.978	689.077
199.417	14.790	909.937	688.491
200.432	14.914	909.355	688.503
201.446	14.921	908.719	687.988
202.461	14.960	908.428	687.868
203.475	14.962	907.894	687.410
204.490	14.713	907.184	685.792
205.504	14.802	906.048	685.235
206.519	14.950	905.157	685.105
207.534	14.702	904.672	683.663
208.548	14.804	904.089	683.579
209.563	14.861	903.733	683.485
210.577	14.824	902.920	682.657
211.592	14.966	902.455	682.825
212.607	15.099	901.615	682.673
213.621	15.017	900.886	681.725
214.636	14.934	900.030	680.681
215.650	15.002	899.601	680.573
216.665	15.050	898.690	680.017
217.680	15.070	898.126	679.610
218.694	15.072	897.862	679.358
219.709	15.189	896.705	678.897
220.723	15.017	896.389	677.901
221.738	14.958	895.794	677.153
222.753	15.051	894.789	676.710
223.767	15.123	894.020	676.359
224.782	15.147	893.977	676.364
225.796	15.098	893.788	675.963
226.811	15.094	892.653	675.026
227.826	15.111	891.706	674.320
228.840	15.196	890.972	674.049
229.855	15.103	890.451	673.221
230.869	15.146	889.402	672.540
231.884	15.160	888.597	671.927
232.899	15.193	887.969	671.528
233.913	15.035	887.220	670.269
234.928	15.140	886.416	670.019
235.942	15.068	886.139	669.466
236.957	15.120	885.832	669.382
237.972	15.125	885.162	668.835
238.986	15.069	884.667	668.178
240.001	15.126	884.381	668.130
241.015	15.105	883.671	667.453
242.030	15.038	883.555	667.037
243.045	15.156	882.430	666.599
244.059	15.177	881.532	665.946
245.074	15.247	881.258	665.956
246.088	15.337	880.535	665.710
247.103	15.487	879.778	665.674
248.117	15.361	879.631	665.002
249.132	15.662	878.843	665.541
250.147	15.833	877.780	665.353
251.161	15.770	877.542	664.866
252.176	15.723	876.763	664.029
253.190	15.756	876.123	663.619
254.205	15.838	875.662	663.531
255.220	15.794	874.741	662.602
256.234	15.873	874.288	662.513
257.249	15.810	873.636	661.710
258.263	15.887	873.049	661.510
259.278	15.963	872.059	660.999
260.293	15.854	871.783	660.304
261.307	15.896	871.173	659.950
262.322	15.988	870.776	659.952
263.336	15.977	869.707	659.040
264.351	15.977	869.378	658.731
265.366	15.926	868.729	657.981
266.380	15.956	867.896	657.410
267.395	15.891	867.270	656.626
268.409	15.971	866.253	656.106
269.424	15.832	865.727	655.111
270.439	15.803	864.908	654.319
271.453	15.774	864.800	654.070
272.468	15.788	864.015	653.469
273.482	15.855	863.810	653.517
274.497	15.764	862.927	652.440
275.512	15.877	862.245	652.303
276.526	15.822	861.871	651.749
277.541	15.949	861.185	651.664
278.555	16.024	860.504	651.382
279.570	16.166	859.581	651.174
280.585	16.110	859.139	650.566
281.599	16.108	858.330	649.887
282.614	16.034	857.509	648.921
283.628	16.047	857.108	648.613
284.643	16.022	856.739	648.180
285.657	16.105	855.689	647.647
286.672	16.116	855.334	647.361
287.687	16.108	855.006	647.028
288.701	16.020	854.511	646.258
289.716	16.060	853.721	645.757
290.730	16.154	853.107	645.594
291.745	16.108	852.691	645.048
292.760	16.179	851.999	644.737
293.774	16.426	851.217	645.032
294.789	16.306	850.816	644.213
295.803	16.205	850.039	643.182
296.818	16.091	849.256	642.100
297.833	16.325	848.094	642.054
298.847	16.219	848.239	641.704
299.862	16.314	847.846	641.709
300.876	16.354	847.211	641.324
301.891	16.383	846.640	640.947
302.906	16.475	846.282	640.964
303.920	16.509	845.601	640.521
304.935	16.470	845.178	639.997
305.949	16.545	844.296	639.557
306.964	16.507	843.627	638.849
307.979	16.516	843.502	638.734
308.993	16.471	842.909	638.058
310.008	16.570	842.005	637.690
311.022	16.499	841.268	636.807
312.037	16.590	840.764	636.712
313.052	16.438	840.186	635.647
314.066	16.553	839.381	635.415
315.081	16.472	839.324	635.010
316.095	16.364	838.922	634.244
317.110	16.484	838.185	634.082
318.125	16.528	837.489	633.664
319.139	16.520	836.965	633.180
320.154	16.366	836.694	632.344
321.168	16.477	835.879	632.085
322.183	16.551	835.228	631.813
323.197	16.553	834.863	631.490
324.212	16.515	834.521	631.035
325.227	16.629	833.694	630.777
326.241	16.650	833.001	630.278
327.256	16.524	832.770	629.576
328.270	16.513	832.447	629.234
329.285	16.642	831.388	628.858
330.300	16.541	830.963	628.106
331.314	16.620	830.223	627.783
332.329	16.790	829.665	627.937
333.343	16.685	829.668	627.496
334.358	16.792	829.486	627.696
335.373	16.613	829.527	627.011
336.387	16.796	828.697	627.003
337.402	16.768	828.668	626.823
338.416	16.939	827.769	626.721
339.431	16.924	827.895	626.704
340.446	17.000	827.347	626.516
341.460	17.030	826.768	626.131
342.475	17.105	826.912	626.463
343.489	17.018	826.116	625.484
344.504	17.192	825.547	625.639
345.519	17.169	825.173	625.214
346.533	17.110	824.691	624.576
347.548	17.079	823.760	623.702
348.562	16.960	823.514	623.025
349.577	16.897	823.073	622.403
350.592	16.963	822.022	621.795
351.606	16.866	821.599	621.065
352.621	16.937	820.742	620.623
353.635	16.870	820.195	619.909
354.650	17.039	819.551	619.984
355.665	16.991	819.427	619.662
356.679	17.072	818.368	619.101
357.694	17.045	817.777	618.500
358.708	17.102	816.853	617.954
359.723	17.112	816.423	617.613
360.738	17.018	816.109	616.977
361.752	17.073	815.732	616.838
362.767	17.251	815.047	616.912
363.781	17.395	814.593	617.037
364.796	17.334	814.248	616.497
365.810	17.502	813.355	616.374
366.825	17.456	813.575	616.321
367.840	17.475	812.900	615.825
368.854	17.395	812.392	615.097
369.869	17.261	812.251	614.451
370.883	17.511	811.631	614.828
371.898	17.545	811.160	614.542
372.913	17.626	810.680	614.415
373.927	17.550	810.092	613.642
374.942	17.329	810.157	612.841
375.956	17.587	809.396	613.138
376.971	17.617	808.724	612.684
377.986	17.592	808.751	612.559
379.000	17.695	807.916	612.243
380.015	17.803	807.654	612.378
381.029	17.706	807.058	611.525
382.044	17.780	806.054	610.975
383.059	17.792	805.589	610.610
384.073	17.696	805.074	609.824
385.088	17.759	804.405	609.487
386.102	17.595	804.219	608.707
387.117	17.541	803.779	608.125
388.132	17.786	802.877	608.265
389.146	17.719	802.573	607.742
390.161	17.760	802.389	607.696
391.175	17.717	801.834	607.066
392.190	17.726	801.189	606.556
393.205	17.549	800.644	605.461
394.219	17.566	800.771	605.564
395.234	17.559	800.114	604.988
396.248	17.654	799.365	604.705
397.263	17.669	798.743	604.237
398.278	17.597	798.544	603.776
399.292	17.617	798.339	603.638
400.307	17.578	797.496	602.808
401.321	17.707	796.837	602.714
402.336	17.596	796.707	602.169
403.350	17.667	796.456	602.178
404.365	17.827	795.989	602.335
405.380	17.816	795.484	601.862
406.394	17.941	795.022	601.901
407.409	17.963	795.046	601.944
408.423	18.017	794.749	601.855
409.438	17.974	794.009	601.089
410.453	17.995	793.758	600.922
411.467	18.069	793.185	600.695
412.482	18.187	793.029	600.936
413.496	18.125	792.761	600.463
414.511	18.184	792.023	600.057
415.526	18.071	791.617	599.300
416.540	18.179	790.704	598.934
417.555	18.191	790.674	598.902
418.569	18.290	790.085	598.749
419.584	18.230	789.846	598.304
420.599	18.088	789.546	597.528
421.613	156.234	1370.824	1794.701
422.628	135.100	1455.520	1794.768
