DTS Sentinel unit serial number:	SN413079Multiplexer serial number:	ORYXHardware model number:	OX4-SRSoftware version number:	ORYX F/W v4.00 Oryx Data Collector v3.7.2.0data status	okinstallation	princeton_trtdifferential loss correction	single-endedforward channel	channel 1reverse channel	N/Adate	2019/09/18time	18:02:35forward acquisition time	60.00reverse acquisition time	0.00gamma	496.2192k internal	0.2295k external	0.2295temperature offset calibration	1.0015default loss term (dB/km)	0.3790temperature slope calibration	1.0000multiplexer offset coefficient	1.0000multiplexer slope coefficient	1.0000fibre end	0.00T internal ref (°C)	39.52T ext. ref 1 (°C)	0.92T ext. ref 2 (°C)	31.55length (m)	temperature (°C)	Stokes	anti-Stokes-747.200	-49.437	-0.182	-0.089
-746.185	-8.119	-0.211	0.145
-745.171	-200.000	0.057	-0.288
-744.156	800.000	0.137	0.434
-743.142	-200.000	0.003	0.257
-742.127	-106.737	-0.187	-0.042
-741.112	392.931	0.048	0.103
-740.098	52.983	-0.238	-0.233
-739.083	-200.000	0.073	0.350
-738.069	-37.084	-0.184	0.101
-737.054	-85.509	-0.252	-0.080
-736.039	-200.000	-0.010	-0.205
-735.025	105.441	-0.153	-0.185
-734.010	-42.852	-0.283	-0.147
-732.996	800.000	-0.042	-0.178
-731.981	54.759	0.130	-0.128
-730.966	-136.145	0.216	0.026
-729.952	-200.000	0.049	-0.248
-728.937	45.923	-0.121	0.114
-727.923	-73.789	-0.178	-0.066
-726.908	0.951	-0.094	-0.069
-725.894	-142.314	-0.099	-0.010
-724.879	10.721	0.139	0.108
-723.864	-34.782	-0.068	0.038
-722.850	-115.711	-0.222	-0.042
-721.835	-200.000	-0.093	-0.478
-720.821	321.374	0.083	-0.162
-719.806	-49.646	-0.132	-0.064
-718.791	-114.427	-0.232	0.046
-717.777	-85.287	-0.346	0.110
-716.762	800.000	0.049	0.161
-715.748	-200.000	-0.054	0.368
-714.733	-200.000	0.042	-0.267
-713.718	21.764	0.297	-0.247
-712.704	-200.000	0.027	0.344
-711.689	800.000	-0.078	0.257
-710.675	-30.898	-0.133	-0.076
-709.660	78.950	0.194	0.212
-708.645	180.554	-0.145	-0.217
-707.631	405.601	-0.120	-0.259
-706.616	-146.944	-0.189	0.017
-705.602	-200.000	0.020	-0.095
-704.587	-54.111	-0.186	-0.086
-703.572	-116.823	0.109	-0.020
-702.558	800.000	0.057	-0.160
-701.543	-200.000	-0.014	0.249
-700.529	-86.968	-0.021	-0.007
-699.514	383.817	-0.084	0.176
-698.499	-200.000	0.008	-0.076
-697.485	-83.814	-0.127	-0.041
-696.470	183.617	0.214	-0.322
-695.456	-92.085	0.041	-0.012
-694.441	-147.094	0.133	-0.012
-693.426	-12.610	-0.240	-0.160
-692.412	-200.000	-0.002	-0.157
-691.397	-88.180	-0.088	0.027
-690.383	-85.297	-0.148	-0.047
-689.368	-200.000	0.008	-0.114
-688.354	78.554	-0.077	-0.084
-687.339	77.791	0.125	0.136
-686.324	339.155	0.157	-0.312
-685.310	-35.452	-0.172	-0.095
-684.295	138.748	-0.139	-0.187
-683.281	-200.000	-0.051	0.423
-682.266	34.760	0.188	0.168
-681.251	-1.177	0.209	0.150
-680.237	29.178	0.214	0.186
-679.222	-107.302	-0.320	0.072
-678.208	-200.000	-0.030	0.229
-677.193	-58.789	0.123	-0.054
-676.178	-29.313	0.064	-0.038
-675.164	-5.210	-0.159	-0.112
-674.149	-41.305	-0.223	-0.117
-673.135	279.701	-0.146	-0.266
-672.120	-200.000	0.010	-0.199
-671.105	-61.893	0.153	0.065
-670.091	176.821	0.128	-0.189
-669.076	800.000	-0.093	-0.300
-668.062	80.492	-0.198	0.217
-667.047	-200.000	-0.015	-0.216
-666.032	-38.541	0.333	0.180
-665.018	252.835	0.144	0.251
-664.003	-22.049	-0.088	0.055
-662.989	-84.119	0.320	-0.103
-661.974	-1.016	-0.370	-0.267
-660.959	-122.597	-0.463	0.077
-659.945	254.923	0.141	-0.247
-658.930	-84.195	0.288	-0.093
-657.916	-85.641	0.142	-0.045
-656.901	-60.191	0.114	-0.050
-655.886	-0.607	-0.088	0.064
-654.872	4.005	0.182	0.136
-653.857	-180.597	0.267	0.006
-652.843	360.292	0.067	0.136
-651.828	-65.248	-0.326	-0.134
-650.814	-200.000	0.016	-0.185
-649.799	531.563	-0.041	0.099
-648.784	221.586	0.061	0.099
-647.770	-116.372	0.114	-0.021
-646.755	126.591	-0.112	0.145
-645.741	-88.646	-0.291	0.088
-644.726	-143.773	-0.325	-0.031
-643.711	164.224	-0.202	0.289
-642.697	-41.599	0.032	0.017
-641.682	170.055	-0.150	0.218
-640.668	-200.000	0.043	0.316
-639.653	554.549	-0.092	0.225
-638.638	-103.402	0.378	-0.091
-637.624	-200.000	0.036	0.190
-636.609	-200.000	-0.079	-0.462
-635.595	-107.718	-0.063	-0.014
-634.580	-21.210	0.392	0.244
-633.565	48.599	-0.261	-0.249
-632.551	304.322	0.104	0.197
-631.536	-146.782	-0.141	-0.012
-630.522	-115.243	-0.089	-0.017
-629.507	-142.688	0.082	0.008
-628.492	800.000	-0.080	0.329
-627.478	-111.997	-0.189	0.039
-626.463	-68.353	-0.342	0.135
-625.449	113.331	-0.249	-0.308
-624.434	-200.000	-0.017	-0.192
-623.419	-169.225	0.098	0.004
-622.405	25.122	0.096	0.081
-621.390	4.278	-0.187	-0.139
-620.376	-151.821	0.078	-0.006
-619.361	-200.000	0.067	-0.347
-618.346	-55.349	0.142	0.065
-617.332	-59.009	-0.292	0.128
-616.317	140.412	-0.254	0.341
-615.303	41.010	0.064	0.059
-614.288	537.731	-0.070	0.169
-613.273	330.521	0.097	0.190
-612.259	-200.000	0.004	0.256
-611.244	-67.692	0.143	0.057
-610.230	43.163	-0.184	-0.171
-609.215	21.736	-0.252	0.209
-608.201	-30.207	0.266	0.154
-607.186	-82.065	0.274	0.091
-606.171	-114.043	0.142	-0.028
-605.157	-99.297	0.444	-0.114
-604.142	-200.000	0.020	-0.263
-603.128	800.000	-0.092	-0.378
-602.113	287.177	0.055	-0.101
-601.098	-74.624	0.118	0.043
-600.084	-200.000	-0.020	-0.446
-599.069	-84.198	0.242	-0.078
-598.055	731.970	-0.102	0.277
-597.040	3.898	0.172	-0.128
-596.025	13.608	0.152	-0.120
-595.011	-186.025	0.042	-0.001
-593.996	-200.000	-0.048	-0.338
-592.982	4.449	0.043	0.032
-591.967	-36.147	-0.174	-0.095
-590.952	-85.337	0.277	-0.088
-589.938	-200.000	0.009	0.096
-588.923	-200.000	-0.008	0.112
-587.909	-120.750	0.071	0.012
-586.894	-82.484	-0.211	0.069
-585.879	45.720	-0.114	0.107
-584.865	-58.502	0.410	0.181
-583.850	-200.000	0.009	-0.168
-582.836	126.722	-0.115	0.148
-581.821	87.195	-0.194	-0.218
-580.806	-135.152	0.153	-0.019
-579.792	800.000	-0.064	-0.206
-578.777	-44.657	-0.217	-0.110
-577.763	-33.127	0.328	-0.185
-576.748	800.000	0.071	-0.215
-575.733	23.980	-0.230	-0.192
-574.719	-38.381	-0.088	-0.047
-573.704	-124.035	-0.083	0.013
-572.690	-57.689	-0.223	0.099
-571.675	800.000	-0.036	-0.118
-570.661	-200.000	0.041	-0.207
-569.646	-13.914	0.254	-0.167
-568.631	-181.803	-0.151	0.003
-567.617	-129.896	-0.183	-0.025
-566.602	800.000	0.061	0.250
-565.588	-134.806	0.329	-0.041
-564.573	-65.880	0.257	0.104
-563.558	-18.384	-0.175	0.111
-562.544	102.704	-0.029	-0.035
-561.529	-29.240	-0.266	0.155
-560.515	-104.705	-0.518	-0.121
-559.500	-76.191	0.110	-0.040
-558.485	102.994	0.316	-0.376
-557.471	390.150	-0.133	-0.279
-556.456	1.693	0.122	0.089
-555.442	466.567	-0.115	0.260
-554.427	99.069	0.044	0.051
-553.412	-116.991	0.043	-0.008
-552.398	40.840	-0.141	0.129
-551.383	175.048	0.148	0.218
-550.369	-46.860	0.102	-0.050
-549.354	200.586	0.086	0.134
-548.339	53.344	0.210	0.204
-547.325	-36.216	0.282	-0.154
-546.310	-31.181	0.186	0.106
-545.296	358.494	0.112	0.226
-544.281	-24.245	-0.328	0.198
-543.266	0.401	-0.533	0.386
-542.252	-200.000	0.002	-0.297
-541.237	-121.007	-0.053	-0.009
-540.223	65.006	-0.213	-0.219
-539.208	90.542	-0.282	-0.321
-538.193	-59.569	0.092	0.040
-537.179	199.623	0.028	-0.043
-536.164	-138.210	0.189	-0.021
-535.150	727.394	-0.036	-0.097
-534.135	132.736	0.024	0.031
-533.121	258.772	-0.069	-0.120
-532.106	-147.012	-0.137	-0.012
-531.091	-200.000	-0.013	0.157
-530.077	-200.000	-0.257	0.000
-529.062	497.505	-0.056	-0.130
-528.048	800.000	-0.048	0.188
-527.033	75.183	-0.246	-0.263
-526.018	800.000	-0.055	-0.218
-525.004	-168.334	0.155	0.006
-523.989	800.000	0.107	-0.393
-522.975	800.000	0.057	0.219
-521.960	9.225	-0.098	0.075
-520.945	-112.073	0.252	-0.051
-519.931	406.319	0.111	-0.237
-518.916	115.650	0.044	0.054
-517.902	43.917	0.036	-0.034
-516.887	-59.267	-0.281	0.122
-515.872	252.997	-0.099	0.171
-514.858	-134.746	0.423	0.052
-513.843	67.843	0.202	0.210
-512.829	-177.922	-0.231	0.006
-511.814	-111.929	0.260	0.053
-510.799	-135.047	-0.256	-0.031
-509.785	800.000	-0.148	-0.432
-508.770	800.000	-0.077	-0.292
-507.756	-200.000	0.009	0.379
-506.741	-200.000	-0.008	-0.052
-505.726	-64.318	-0.306	-0.126
-504.712	88.864	-0.126	0.142
-503.697	54.458	0.275	0.269
-502.683	758.034	-0.032	0.088
-501.668	-165.137	0.267	0.012
-500.653	-113.360	0.110	-0.022
-499.639	-126.277	-0.054	-0.008
-498.624	-70.181	0.259	0.100
-497.610	-179.175	-0.054	-0.001
-496.595	-200.000	-0.001	-0.108
-495.581	40.292	0.078	0.071
-494.566	97.755	-0.077	0.090
-493.551	-107.127	-0.081	0.018
-492.537	170.126	-0.163	-0.235
-491.522	100.909	0.128	0.151
-490.508	800.000	0.063	0.177
-489.493	-140.972	-0.174	0.018
-488.478	-77.551	0.057	-0.020
-487.464	-70.559	-0.326	0.125
-486.449	32.561	0.080	0.070
-485.435	-200.000	-0.034	-0.155
-484.420	-93.490	0.176	-0.049
-483.405	-200.000	0.026	-0.140
-482.391	-200.000	0.033	-0.279
-481.376	-132.411	-0.186	-0.024
-480.362	800.000	0.015	0.047
-479.347	-162.553	0.227	-0.011
-478.332	800.000	0.035	0.152
-477.318	21.954	-0.155	0.128
-476.303	-92.017	0.179	-0.051
-475.289	561.127	0.013	-0.032
-474.274	-200.000	-0.019	0.246
-473.259	123.349	0.074	-0.094
-472.245	-24.951	0.142	0.085
-471.230	210.378	-0.072	0.115
-470.216	89.594	0.041	-0.046
-469.201	-96.759	0.159	-0.042
-468.186	-200.000	-0.005	-0.047
-467.172	105.021	-0.049	0.058
-466.157	-5.675	-0.045	-0.031
-465.143	414.346	-0.128	0.275
-464.128	-200.000	-0.037	-0.441
-463.113	-200.000	-0.065	-0.411
-462.099	313.902	-0.159	-0.303
-461.084	800.000	-0.026	-0.104
-460.070	67.236	-0.214	-0.221
-459.055	270.074	-0.009	0.016
-458.040	-146.229	-0.210	0.019
-457.026	800.000	-0.041	0.127
-456.011	168.586	-0.159	0.229
-454.997	-200.000	-0.018	-0.329
-453.982	-118.565	-0.185	0.033
-452.968	137.329	-0.130	0.172
-451.953	-58.407	0.274	-0.120
-450.938	46.317	-0.154	0.144
-449.924	-35.110	0.101	-0.056
-448.909	-200.000	0.046	0.259
-447.895	-200.000	-0.021	-0.185
-446.880	-41.386	0.247	-0.128
-445.865	-123.042	0.116	-0.019
-444.851	-200.000	0.080	0.403
-443.836	-75.812	0.162	-0.058
-442.822	800.000	0.034	-0.116
-441.807	800.000	-0.017	0.073
-440.792	-28.597	-0.029	0.017
-439.778	-45.737	0.351	0.175
-438.763	171.958	0.066	-0.096
-437.749	291.291	-0.151	0.277
-436.734	800.000	-0.055	-0.221
-435.719	-21.341	0.170	-0.105
-434.705	-105.502	-0.248	0.057
-433.690	6.916	-0.257	0.193
-432.676	800.000	-0.088	0.346
-431.661	-25.997	0.180	0.107
-430.646	-126.819	-0.337	-0.050
-429.632	-200.000	0.042	0.330
-428.617	211.326	0.071	-0.113
-427.603	-90.405	-0.095	-0.028
-426.588	30.671	0.139	-0.120
-425.573	-200.000	0.006	0.072
-424.559	-167.443	-0.166	-0.007
-423.544	-200.000	0.005	-0.127
-422.530	800.000	0.081	0.237
-421.515	151.372	0.118	0.163
-420.500	-1.768	0.423	0.301
-419.486	2.264	0.183	0.134
-418.471	-200.000	-0.013	-0.456
-417.457	32.547	-0.012	0.011
-416.442	277.002	0.278	-0.499
-415.428	-86.797	0.024	-0.007
-414.413	-136.555	-0.173	-0.020
-413.398	26.625	-0.109	-0.092
-412.384	104.086	-0.145	0.172
-411.369	-200.000	-0.003	0.196
-410.355	-200.000	-0.002	0.138
-409.340	800.000	-0.057	0.180
-408.325	-200.000	0.025	-0.383
-407.311	-65.456	-0.139	-0.056
-406.296	-200.000	-0.011	0.272
-405.282	-69.955	0.260	-0.100
-404.267	-200.000	-0.016	-0.172
-403.252	800.000	0.046	-0.173
-402.238	800.000	-0.106	-0.344
-401.223	-200.000	0.043	-0.337
-400.209	71.247	0.181	-0.190
-399.194	800.000	-0.034	-0.130
-398.179	-200.000	0.010	0.574
-397.165	-200.000	0.004	0.144
-396.150	231.357	-0.200	-0.331
-395.136	-114.640	-0.207	-0.040
-394.121	-96.343	0.393	-0.105
-393.106	800.000	0.086	-0.277
-392.092	-76.713	0.148	-0.052
-391.077	95.020	0.195	0.224
-390.063	29.042	0.136	0.117
-389.048	33.482	0.180	0.158
-388.033	-14.732	-0.196	0.127
-387.019	-71.696	-0.274	-0.103
-386.004	-113.093	0.378	-0.075
-384.990	-0.926	0.306	0.218
-383.975	181.747	0.082	0.121
-382.960	800.000	-0.045	0.154
-381.946	-57.814	0.276	0.122
-380.931	-51.929	-0.121	0.057
-379.917	-200.000	-0.036	-0.268
-378.902	78.426	0.132	0.142
-377.888	-94.496	-0.187	-0.051
-376.873	124.692	-0.328	-0.416
-375.858	44.328	-0.153	0.142
-374.844	158.792	-0.096	0.134
-373.829	-52.051	-0.145	-0.068
-372.815	-28.675	-0.369	-0.214
-371.800	-96.494	-0.034	-0.009
-370.785	216.029	-0.179	-0.287
-369.771	-200.000	-0.003	-0.176
-368.756	624.394	-0.084	0.212
-367.742	-127.969	0.115	-0.017
-366.727	47.655	0.016	-0.015
-365.712	-12.994	0.212	-0.139
-364.698	-85.094	0.242	-0.076
-363.683	10.951	-0.163	0.125
-362.669	800.000	-0.078	0.314
-361.654	-96.867	-0.299	-0.079
-360.639	-15.190	-0.198	-0.127
-359.625	149.544	-0.232	0.317
-358.610	-110.097	-0.145	0.030
-357.596	-153.660	0.145	0.010
-356.581	-66.963	0.127	0.050
-355.566	-34.483	0.244	-0.135
-354.552	360.620	-0.112	-0.227
-353.537	-4.493	0.177	0.123
-352.523	-200.000	-0.025	-0.241
-351.508	-73.628	-0.076	-0.028
-350.493	-104.288	0.035	0.008
-349.479	271.332	-0.102	0.182
-348.464	-127.466	-0.056	0.008
-347.450	-101.009	-0.147	-0.036
-346.435	-78.822	0.257	-0.088
-345.420	122.380	-0.177	0.223
-344.406	800.000	-0.045	-0.189
-343.391	259.218	-0.025	-0.044
-342.377	-200.000	0.006	0.079
-341.362	-139.596	0.313	-0.034
-340.348	153.922	0.137	0.189
-339.333	130.268	0.115	0.148
-338.318	110.394	0.136	0.164
-337.304	28.871	0.010	-0.008
-336.289	-6.289	-0.121	-0.083
-335.275	-33.225	0.099	-0.055
-334.260	508.964	-0.129	0.302
-333.245	5.973	0.092	0.069
-332.231	72.339	-0.106	0.111
-331.216	-141.450	0.241	-0.025
-330.202	451.762	-0.044	-0.097
-329.187	800.000	-0.105	0.322
-328.172	-18.235	0.375	-0.236
-327.158	-11.126	0.265	0.176
-326.143	-194.401	-0.225	-0.002
-325.129	-179.537	-0.312	-0.007
-324.114	614.091	-0.089	0.223
-323.099	-118.058	-0.316	-0.057
-322.085	-101.383	-0.277	0.068
-321.070	-200.000	-0.002	-0.156
-320.056	751.256	0.119	-0.322
-319.041	-200.000	0.248	0.000
-318.026	-112.482	0.168	0.034
-317.012	-69.976	0.087	-0.033
-315.997	800.000	0.048	0.150
-314.983	70.989	-0.006	0.006
-313.968	-120.252	0.312	-0.053
-312.953	800.000	0.102	0.288
-311.939	-200.000	-0.017	-0.282
-310.924	800.000	0.032	-0.121
-309.910	233.339	0.272	0.450
-308.895	-200.000	-0.040	0.197
-307.880	800.000	0.010	0.030
-306.866	-55.966	-0.305	-0.137
-305.851	-200.000	-0.009	-0.081
-304.837	-119.853	-0.398	0.069
-303.822	185.778	0.169	0.252
-302.807	101.101	0.126	-0.147
-301.793	-131.166	0.118	0.016
-300.778	626.077	0.125	0.317
-299.764	-65.469	0.039	0.016
-298.749	98.214	-0.110	0.127
-297.735	149.535	-0.084	0.114
-296.720	186.588	-0.177	-0.265
-295.705	39.291	-0.214	-0.192
-294.691	-112.294	-0.172	0.035
-293.676	627.053	0.088	0.222
-292.662	632.700	-0.095	-0.243
-291.647	-200.000	-0.007	-0.393
-290.632	87.125	0.019	0.021
-289.618	-96.911	-0.327	-0.086
-288.603	-5.367	-0.138	-0.095
-287.589	-200.000	-0.011	-0.213
-286.574	-83.383	-0.374	0.121
-285.559	-68.921	0.109	-0.042
-284.545	13.788	-0.192	0.150
-283.530	306.989	0.027	-0.051
-282.516	-200.000	-0.024	0.511
-281.501	-102.371	0.086	-0.021
-280.486	-89.396	-0.109	-0.032
-279.472	186.482	-0.049	0.073
-278.457	-113.080	0.273	0.054
-277.443	60.695	0.068	-0.068
-276.428	-5.814	0.083	0.057
-275.413	-165.446	-0.106	-0.005
-274.399	800.000	0.104	-0.300
-273.384	-148.745	0.389	-0.032
-272.370	22.417	0.277	-0.227
-271.355	-73.515	-0.095	0.035
-270.340	202.241	-0.147	0.228
-269.326	46.343	0.107	-0.100
-268.311	800.000	0.065	-0.189
-267.297	-80.720	0.150	0.050
-266.282	800.000	0.106	-0.330
-265.267	-15.414	0.098	-0.063
-264.253	-181.553	0.257	0.005
-263.238	279.264	0.215	-0.385
-262.224	374.958	0.207	-0.424
-261.209	-25.807	-0.433	0.256
-260.195	-15.404	0.266	-0.171
-259.180	-8.819	-0.191	0.128
-258.165	-135.723	-0.294	-0.035
-257.151	637.517	0.152	0.388
-256.136	292.405	0.186	-0.340
-255.122	-200.000	0.005	-0.133
-254.107	-166.427	-0.114	-0.005
-253.092	18.310	-0.142	-0.114
-252.078	421.759	0.138	0.298
-251.063	800.000	0.021	-0.071
-250.049	21.929	0.179	0.146
-249.034	391.623	0.102	0.212
-248.019	-125.342	-0.177	0.027
-247.005	386.601	0.138	0.285
-245.990	-136.375	0.262	0.031
-244.976	-51.507	0.164	-0.077
-243.961	484.713	-0.024	0.056
-242.946	-200.000	-0.006	0.080
-241.932	252.852	0.143	0.245
-240.917	-115.182	0.353	-0.067
-239.903	800.000	-0.044	-0.157
-238.888	-40.924	0.222	-0.115
-237.873	272.530	-0.143	0.253
-236.859	-112.617	0.201	0.040
-235.844	239.763	-0.106	-0.177
-234.830	-8.099	-0.291	-0.197
-233.815	178.058	0.144	-0.211
-232.800	30.971	-0.187	-0.161
-231.786	-13.639	0.141	-0.091
-230.771	98.606	-0.117	0.135
-229.757	-54.584	0.126	0.057
-228.742	47.796	-0.114	0.107
-227.727	-10.455	0.165	0.110
-226.713	172.862	0.115	0.165
-225.698	406.620	0.082	-0.173
-224.684	800.000	-0.004	0.015
-223.669	800.000	-0.077	-0.261
-222.655	-19.930	0.073	0.045
-221.640	18.286	0.150	-0.120
-220.625	63.611	-0.129	-0.130
-219.611	800.000	0.040	-0.139
-218.596	-144.779	-0.144	-0.013
-217.582	279.935	0.216	0.386
-216.567	191.080	-0.367	0.553
-215.552	49.572	-0.160	0.151
-214.538	80.502	0.075	-0.081
-213.523	112.424	-0.055	-0.066
-212.509	-74.824	0.250	0.090
-211.494	-195.082	-0.288	0.002
-210.479	-200.000	-0.011	-0.227
-209.465	-42.231	0.159	-0.081
-208.450	641.416	0.062	0.159
-207.436	-70.704	-0.321	0.121
-206.421	616.322	-0.023	-0.058
-205.406	-83.331	-0.462	-0.148
-204.392	566.897	-0.105	-0.255
-203.377	200.142	0.014	-0.022
-202.363	39.374	-0.108	0.097
-201.348	-133.288	-0.178	0.023
-200.333	274.459	0.195	-0.345
-199.319	-200.000	0.050	0.534
-198.304	78.478	0.133	0.143
-197.290	-200.000	0.017	-0.224
-196.275	-200.000	0.001	0.005
-195.260	-200.000	-0.017	-0.124
-194.246	-57.177	0.199	0.088
-193.231	101.027	-0.294	0.342
-192.217	-0.077	0.470	-0.335
-191.202	46.081	0.111	0.103
-190.187	-134.085	-0.193	0.024
-189.173	-12.433	0.140	0.091
-188.158	-105.512	0.158	0.036
-187.144	120.388	-0.103	-0.128
-186.129	-15.707	-0.035	-0.022
-185.114	-200.000	-0.058	-0.384
-184.100	-188.517	-0.146	-0.002
-183.085	-200.000	-0.022	0.131
-182.071	225.851	0.034	0.055
-181.056	544.658	0.119	0.284
-180.042	-92.753	-0.224	-0.063
-179.027	-200.000	-0.062	0.298
-178.012	16.978	0.262	-0.207
-176.998	263.170	-0.012	-0.022
-175.983	537.663	0.097	0.232
-174.969	125.902	-0.078	0.099
-173.954	-95.258	-0.206	0.055
-172.939	405.858	0.142	-0.300
-171.925	-134.263	-0.373	-0.046
-170.910	800.000	-0.096	-0.420
-169.896	-200.000	0.056	-0.329
-168.881	311.549	-0.198	0.372
-167.866	23.585	0.309	0.254
-166.852	-29.381	0.269	-0.154
-165.837	-200.000	-0.013	0.160
-164.823	25.139	0.037	-0.031
-163.808	15.625	-0.382	0.300
-162.793	800.000	0.086	-0.283
-161.779	21.631	0.149	0.121
-160.764	-159.186	0.158	0.009
-159.750	431.088	-0.037	0.080
-158.735	-111.571	0.088	0.018
-157.720	-124.200	-0.380	0.059
-156.706	55.839	-0.104	-0.101
-155.691	-43.961	-0.202	0.101
-154.677	200.840	0.090	0.138
-153.662	-200.000	-0.005	0.072
-152.647	-155.359	0.210	0.014
-151.633	-200.000	-0.001	-0.348
-150.618	-90.882	-0.280	0.081
-149.604	82.588	-0.108	-0.117
-148.589	-63.188	-0.066	0.027
-147.574	-200.000	-0.036	0.364
-146.560	-200.000	-0.028	0.299
-145.545	-6.709	0.216	0.147
-144.531	-200.000	0.006	-0.064
-143.516	800.000	-0.123	-0.423
-142.502	800.000	0.039	0.163
-141.487	163.350	0.162	-0.227
-140.472	-200.000	0.003	-0.049
-139.458	43.196	0.173	-0.158
-138.443	-200.000	-0.002	-0.200
-137.429	-200.000	0.050	0.335
-136.414	142.027	-0.302	-0.399
-135.399	559.335	0.018	-0.045
-134.385	-101.418	-0.159	-0.039
-133.370	-97.726	0.442	0.114
-132.356	-19.840	0.235	-0.145
-131.341	800.000	-0.020	-0.077
-130.326	-200.000	0.469	0.002
-129.312	-44.575	0.071	-0.036
-128.297	-33.720	0.116	0.064
-127.283	-200.000	0.008	0.198
-126.268	-200.000	0.009	0.096
-125.253	-130.049	0.105	-0.014
-124.239	425.641	-0.148	-0.318
-123.224	-61.010	0.199	-0.084
-122.210	-29.342	0.391	-0.223
-121.195	-200.000	-0.081	0.511
-120.180	232.610	-0.034	-0.056
-119.166	-43.735	-0.313	-0.158
-118.151	-141.274	0.276	0.028
-117.137	-200.000	0.013	0.245
-116.122	-1.747	0.117	-0.082
-115.107	131.656	0.129	-0.165
-114.093	-58.837	-0.056	0.024
-113.078	800.000	0.100	-0.379
-112.064	-70.405	-0.252	0.095
-111.049	-137.146	0.128	-0.015
-110.034	-194.813	0.273	-0.002
-109.020	47.628	0.154	-0.143
-108.005	-27.244	-0.159	0.092
-106.991	444.691	-0.219	0.480
-105.976	336.147	-0.097	0.188
-104.962	28.339	0.181	0.152
-103.947	-200.000	-0.006	-0.050
-102.932	662.002	-0.108	-0.277
-101.918	23.588	-0.212	-0.174
-100.903	-93.040	-0.170	-0.047
-99.889	-200.000	0.046	-0.211
-98.874	-85.337	0.092	0.028
-97.859	95.672	-0.178	0.202
-96.845	-99.117	0.360	-0.091
-95.830	13.209	-0.211	0.163
-94.816	-99.607	0.191	-0.048
-93.801	111.092	-0.129	0.154
-92.786	-200.000	-0.055	0.433
-91.772	537.711	-0.086	0.203
-90.757	-136.776	0.119	0.014
-89.743	-43.366	0.092	-0.047
-88.728	800.000	-0.037	-0.148
-87.713	439.548	-0.138	-0.300
-86.699	90.141	0.102	0.114
-85.684	-61.101	-0.052	-0.022
-84.670	-45.984	0.206	-0.101
-83.655	16.551	0.394	0.310
-82.640	-200.000	-0.024	0.267
-81.626	-200.000	0.006	0.422
-80.611	12.469	0.101	-0.077
-79.597	-200.000	-0.011	0.127
-78.582	-69.671	-0.132	0.050
-77.567	-45.855	-0.151	-0.074
-76.553	-91.220	0.137	-0.039
-75.538	537.719	-0.108	0.254
-74.524	414.497	-0.133	0.282
-73.509	14.545	-0.231	0.179
-72.494	-38.267	0.212	0.112
-71.480	-163.591	-0.168	-0.008
-70.465	-98.904	-0.047	0.012
-69.451	73.849	-0.270	-0.282
-68.436	-133.717	-0.156	-0.019
-67.422	-68.234	-0.078	-0.030
-66.407	438.498	-0.049	-0.108
-65.392	52.426	-0.177	0.168
-64.378	223.709	0.085	0.137
-63.363	116.134	-0.231	-0.282
-62.349	-64.325	-0.019	-0.008
-61.334	175.616	-0.517	-0.747
-60.319	84.472	0.354	0.386
-59.305	-200.000	-0.008	-0.731
-58.290	779.115	0.332	0.903
-57.276	633.481	0.442	1.114
-56.261	-200.000	82.095	511.942
-55.246	500.465	1352.225	3104.510
-54.232	147.025	2577.724	3450.150
-53.217	112.703	2243.283	2703.003
-52.203	50.587	1695.935	1596.578
-51.188	42.918	1426.633	1293.974
-50.173	39.712	1381.965	1233.401
-49.159	57.673	1422.501	1383.695
-48.144	62.779	1440.994	1433.950
-47.130	43.367	1400.434	1272.835
-46.115	39.634	1383.335	1233.943
-45.100	39.431	1378.824	1228.600
-44.086	39.286	1376.264	1225.370
-43.071	39.324	1374.139	1223.663
-42.057	39.210	1372.298	1221.271
-41.042	39.311	1370.258	1220.032
-40.027	39.354	1368.710	1218.873
-39.013	39.372	1367.049	1217.452
-37.998	39.421	1364.886	1215.781
-36.984	39.555	1362.965	1214.851
-35.969	39.494	1361.397	1213.025
-34.954	39.623	1359.617	1212.191
-33.940	39.636	1357.918	1210.705
-32.925	39.608	1356.797	1209.485
-31.911	39.586	1355.284	1207.953
-30.896	39.619	1353.693	1206.690
-29.881	39.679	1352.005	1205.501
-28.867	39.638	1350.656	1204.001
-27.852	39.668	1349.489	1203.100
-26.838	39.515	1347.716	1200.539
-25.823	39.523	1346.306	1199.283
-24.809	39.599	1344.522	1198.108
-23.794	39.613	1343.274	1197.034
-22.779	39.632	1341.775	1195.765
-21.765	39.609	1340.538	1194.474
-20.750	39.589	1339.396	1193.291
-19.736	39.636	1337.310	1191.667
-18.721	39.496	1337.140	1190.626
-17.706	39.331	1336.028	1188.587
-16.692	39.495	1334.271	1187.966
-15.677	39.461	1333.427	1186.967
-14.663	39.397	1332.296	1185.524
-13.648	39.382	1331.078	1184.305
-12.633	39.362	1330.330	1183.474
-11.619	39.472	1329.210	1183.086
-10.604	39.550	1328.163	1182.578
-9.590	39.424	1327.397	1181.093
-8.575	39.457	1326.411	1180.368
-7.560	39.425	1325.703	1179.497
-6.546	39.451	1325.031	1179.011
-5.531	39.461	1323.822	1177.949
-4.517	39.482	1323.170	1177.448
-3.502	39.556	1321.685	1176.518
-2.487	39.447	1321.063	1175.271
-1.473	39.445	1316.768	1171.386
-0.458	37.610	1300.772	1146.319
0.556	31.667	1279.256	1092.748
1.571	25.503	1280.108	1057.249
2.586	22.872	1293.206	1052.320
3.600	21.339	1281.068	1033.291
4.615	15.486	1205.458	939.562
5.629	6.139	1123.444	826.607
6.644	1.281	1100.175	784.350
7.659	0.933	1097.521	780.595
8.673	0.697	1096.814	778.811
9.688	0.761	1095.568	778.185
10.702	0.985	1094.057	778.192
11.717	5.764	1100.456	807.329
12.731	13.988	1110.784	857.432
13.746	17.668	1114.947	879.595
14.761	17.634	1114.751	879.190
15.775	16.774	1112.902	873.222
16.790	15.775	1110.958	866.474
17.804	14.950	1108.962	860.599
18.819	14.684	1108.204	858.566
19.834	14.179	1107.060	855.009
20.848	14.150	1105.873	853.868
21.863	13.888	1104.891	851.693
22.877	13.651	1104.512	850.111
23.892	13.649	1103.668	849.373
24.907	13.775	1102.777	849.257
25.921	13.690	1101.582	847.829
26.936	13.688	1101.103	847.375
27.950	13.761	1100.033	846.846
28.965	13.830	1098.564	845.996
29.980	13.893	1097.441	845.373
30.994	13.938	1096.216	844.584
32.009	14.022	1095.176	844.138
33.023	14.006	1094.308	843.313
34.038	13.845	1093.095	841.488
35.053	13.721	1092.254	840.137
36.067	13.806	1091.432	839.860
37.082	13.806	1090.828	839.322
38.096	13.868	1089.775	838.750
39.111	13.831	1089.185	838.037
40.126	13.735	1087.952	836.530
41.140	13.788	1086.848	835.872
42.155	13.672	1085.528	834.200
43.169	13.726	1083.952	833.186
44.184	13.576	1083.507	832.014
45.199	13.685	1082.504	831.719
46.213	13.654	1081.292	830.560
47.228	13.772	1080.028	830.107
48.242	13.847	1079.067	829.668
49.257	13.695	1078.122	828.107
50.271	13.766	1077.226	827.704
51.286	13.763	1076.537	827.082
52.301	13.754	1075.088	825.853
53.315	13.814	1074.209	825.404
54.330	13.696	1073.282	824.033
55.344	13.695	1072.732	823.530
56.359	13.711	1071.555	822.635
57.374	13.792	1070.239	821.952
58.388	13.724	1069.223	820.763
59.403	13.667	1068.712	820.018
60.417	13.621	1067.987	819.161
61.432	13.627	1066.998	818.358
62.447	13.635	1066.084	817.626
63.461	13.503	1065.829	816.706
64.476	13.623	1063.968	815.796
65.490	13.492	1064.053	815.145
66.505	13.682	1062.903	815.129
67.520	13.518	1062.366	813.836
68.534	13.732	1061.398	814.076
69.549	13.549	1061.164	812.928
70.563	13.649	1059.846	812.333
71.578	13.684	1059.000	811.783
72.593	13.575	1058.242	810.598
73.607	13.518	1058.054	810.106
74.622	13.594	1056.784	809.431
75.636	13.605	1056.121	808.905
76.651	13.529	1055.093	807.673
77.666	13.558	1054.859	807.566
78.680	13.555	1053.827	806.691
79.695	13.491	1053.673	806.189
80.709	13.593	1052.961	806.067
81.724	13.629	1052.269	805.643
82.739	13.790	1051.148	805.495
83.753	13.659	1051.046	804.711
84.768	13.813	1049.507	804.206
85.782	13.866	1048.271	803.444
86.797	13.813	1047.963	802.883
87.812	13.811	1046.445	801.640
88.826	13.701	1045.655	800.431
89.841	13.829	1044.716	800.258
90.855	13.841	1043.684	799.454
91.870	13.982	1042.747	799.345
92.884	13.866	1041.926	798.089
93.899	13.983	1040.846	797.754
94.914	13.849	1040.551	796.812
95.928	13.842	1039.632	796.006
96.943	13.812	1038.081	794.604
97.957	13.843	1037.792	794.460
98.972	13.772	1037.136	793.548
99.987	13.908	1035.440	792.827
101.001	13.804	1034.784	791.762
102.016	13.733	1034.395	791.052
103.030	13.924	1033.051	790.865
104.045	13.838	1032.822	790.213
105.060	13.726	1031.767	788.799
106.074	13.783	1030.725	788.206
107.089	13.690	1029.942	787.098
108.103	13.714	1028.659	786.158
109.118	13.798	1027.376	785.507
110.133	13.758	1026.829	784.831
111.147	13.727	1025.718	783.765
112.162	13.663	1025.215	783.010
113.176	13.805	1024.552	783.104
114.191	13.753	1023.343	781.866
115.206	13.786	1022.771	781.513
116.220	13.700	1022.113	780.540
117.235	13.828	1020.893	780.138
118.249	13.855	1019.597	779.208
119.264	13.741	1019.132	778.247
120.279	13.706	1018.751	777.721
121.293	13.846	1017.565	777.403
122.308	13.780	1016.765	776.414
123.322	13.886	1015.855	776.148
124.337	13.665	1015.170	774.523
125.352	13.753	1013.570	773.642
126.366	13.791	1012.445	772.894
127.381	13.757	1011.554	771.989
128.395	13.720	1010.811	771.182
129.410	13.820	1009.810	770.813
130.424	13.783	1008.780	769.788
131.439	13.934	1007.511	769.451
132.454	13.858	1006.958	768.608
133.468	13.906	1006.150	768.144
134.483	13.922	1005.543	767.689
135.497	13.847	1004.356	766.368
136.512	13.820	1003.804	765.753
137.527	13.826	1002.660	764.840
138.541	13.980	1001.779	764.810
139.556	14.080	1000.934	764.557
140.570	13.950	1000.462	763.532
141.585	13.998	999.633	763.053
142.600	14.060	998.319	762.266
143.614	14.023	997.713	761.566
144.629	14.170	996.533	761.271
145.643	14.094	995.815	760.309
146.658	13.984	994.905	759.044
147.673	14.017	993.752	758.246
148.687	13.942	993.296	757.488
149.702	13.836	992.337	756.209
150.716	13.828	991.471	755.447
151.731	13.829	990.902	754.948
152.746	13.886	990.116	754.541
153.760	13.969	989.454	754.348
154.775	13.813	988.785	753.065
155.789	14.178	987.439	753.625
156.804	14.013	987.533	752.882
157.819	14.078	986.515	752.335
158.833	13.963	986.179	751.491
159.848	14.011	985.212	750.905
160.862	14.045	984.208	750.228
161.877	14.073	982.910	749.297
162.892	13.983	982.176	748.268
163.906	13.982	981.116	747.388
164.921	13.961	980.629	746.857
165.935	14.149	979.122	746.487
166.950	14.182	978.592	746.162
167.964	14.148	977.661	745.238
168.979	14.109	976.890	744.410
169.994	14.183	975.502	743.616
171.008	14.171	975.252	743.306
172.023	14.102	974.528	742.380
173.037	14.175	973.587	741.922
174.052	14.235	972.772	741.501
175.067	14.121	972.584	740.784
176.081	14.139	971.658	740.097
177.096	14.119	971.560	739.867
178.110	14.141	970.849	739.357
179.125	14.316	970.098	739.498
180.140	14.171	969.432	738.281
181.154	14.290	969.329	738.664
182.169	14.325	968.514	738.133
183.183	14.209	968.213	737.326
184.198	14.317	966.964	736.786
185.213	14.347	966.455	736.465
186.227	14.419	965.455	735.958
187.242	14.372	964.924	735.279
188.256	14.380	964.355	734.818
189.271	14.372	963.611	734.151
190.286	14.254	962.689	732.862
191.300	14.201	962.171	732.167
192.315	14.192	961.294	731.397
193.329	14.274	960.611	731.175
194.344	14.210	960.182	730.501
195.359	14.275	959.768	730.407
196.373	14.455	958.626	730.261
197.388	14.556	958.351	730.430
198.402	14.552	957.810	729.936
199.417	14.610	956.838	729.382
200.432	14.566	956.520	728.886
201.446	14.500	956.100	728.210
202.461	14.572	955.534	728.031
203.475	14.585	955.173	727.749
204.490	14.649	954.010	727.074
205.504	14.693	953.157	726.551
206.519	14.565	952.286	725.270
207.534	14.656	951.630	725.099
208.548	14.509	951.227	724.092
209.563	14.618	950.575	724.003
210.577	14.634	949.634	723.291
211.592	14.698	949.095	723.096
212.607	14.661	947.785	721.872
213.621	14.710	947.293	721.646
214.636	14.676	946.550	720.868
215.650	14.722	945.946	720.543
216.665	14.820	945.307	720.415
217.680	14.792	944.510	719.623
218.694	14.865	943.536	719.134
219.709	14.849	942.927	718.536
220.723	14.779	942.558	717.892
221.738	14.694	941.859	716.931
222.753	14.744	941.281	716.641
223.767	14.891	940.465	716.584
224.782	14.985	939.518	716.202
225.796	14.961	939.371	715.923
226.811	15.015	938.681	715.568
227.826	14.893	937.993	714.459
228.840	14.811	937.120	713.379
229.855	15.026	935.884	713.290
230.869	14.921	935.401	712.413
231.884	14.860	934.689	711.548
232.899	14.815	934.270	710.975
233.913	14.795	933.323	710.107
234.928	14.850	932.914	709.964
235.942	14.889	932.101	709.451
236.957	14.971	931.311	709.135
237.972	14.985	930.810	708.750
238.986	15.005	930.220	708.322
240.001	15.031	929.365	707.718
241.015	14.948	929.025	707.044
242.030	14.954	928.365	706.504
243.045	14.917	928.053	706.049
244.059	15.016	927.314	705.840
245.074	15.083	926.438	705.395
246.088	15.063	925.525	704.553
247.103	15.053	925.153	704.168
248.117	15.050	924.816	703.836
249.132	15.265	923.856	703.946
250.147	15.217	922.971	703.008
251.161	15.342	922.174	702.860
252.176	15.418	921.504	702.607
253.190	15.309	921.216	701.869
254.205	15.466	920.443	701.875
255.220	15.261	920.071	700.672
256.234	15.513	918.744	700.649
257.249	15.455	917.995	699.776
258.263	15.455	917.371	699.237
259.278	15.457	916.985	698.892
260.293	15.560	916.382	698.799
261.307	15.619	915.529	698.331
262.322	15.484	914.996	697.300
263.336	15.473	914.430	696.762
264.351	15.607	913.465	696.521
265.366	15.578	912.685	695.745
266.380	15.604	912.374	695.552
267.395	15.561	911.971	695.008
268.409	15.575	910.922	694.203
269.424	15.524	910.208	693.387
270.439	15.686	909.290	693.296
271.453	15.642	908.455	692.415
272.468	15.572	908.516	692.111
273.482	15.601	907.762	691.598
274.497	15.642	907.124	691.217
275.512	15.703	906.120	690.642
276.526	15.706	905.849	690.388
277.541	15.763	905.376	690.201
278.555	15.814	904.472	689.659
279.570	15.935	903.827	689.600
280.585	15.841	903.142	688.631
281.599	15.861	902.497	688.163
282.614	15.716	902.024	687.148
283.628	15.750	901.157	686.564
284.643	15.731	900.800	686.155
285.657	15.719	900.341	685.696
286.672	15.739	899.559	685.119
287.687	15.845	898.559	684.728
288.701	15.966	897.806	684.587
289.716	15.750	897.728	683.591
290.730	15.910	897.024	683.641
291.745	15.927	896.498	683.250
292.760	15.924	895.671	682.547
293.774	16.096	895.283	682.888
294.789	16.002	894.424	681.792
295.803	16.020	893.472	681.078
296.818	15.966	892.789	680.282
297.833	16.132	891.847	680.172
298.847	16.220	891.423	680.141
299.862	16.085	890.710	678.996
300.876	16.111	890.508	678.884
301.891	16.003	890.119	678.094
302.906	16.096	889.507	677.942
303.920	16.216	888.951	677.941
304.935	16.210	888.285	677.348
305.949	16.283	887.875	677.270
306.964	16.158	887.048	676.078
307.979	16.145	886.552	675.586
308.993	16.305	885.712	675.527
310.008	16.335	885.048	675.080
311.022	16.317	884.413	674.464
312.037	16.242	884.130	673.891
313.052	16.295	883.293	673.402
314.066	16.216	882.846	672.690
315.081	16.280	881.966	672.214
316.095	16.310	881.465	671.893
317.110	16.251	880.787	671.082
318.125	16.208	880.711	670.792
319.139	16.238	880.064	670.357
320.154	16.402	879.610	670.607
321.168	16.335	879.055	669.856
322.183	16.458	878.085	669.544
323.197	16.431	877.763	669.134
324.212	16.501	877.236	668.951
325.227	16.438	876.508	668.084
326.241	16.379	876.047	667.442
327.256	16.436	875.170	666.940
328.270	16.391	875.007	666.579
329.285	16.425	874.411	666.203
330.300	16.501	873.752	665.938
331.314	16.467	873.162	665.296
332.329	16.527	872.728	665.142
333.343	16.525	872.272	664.729
334.358	16.530	871.782	664.315
335.373	16.437	871.572	663.732
336.387	16.538	871.229	663.807
337.402	16.418	871.097	663.178
338.416	16.657	870.244	663.407
339.431	16.625	869.813	662.895
340.446	16.693	869.549	662.902
341.460	16.739	868.915	662.538
342.475	16.795	868.604	662.462
343.489	16.885	867.970	662.271
344.504	16.791	867.910	661.802
345.519	16.695	867.270	660.878
346.533	16.881	866.406	660.885
347.548	16.869	865.938	660.423
348.562	16.765	865.358	659.517
349.577	16.783	865.303	659.490
350.592	16.787	864.503	658.836
351.606	16.797	863.524	658.069
352.621	16.955	862.907	658.156
353.635	16.836	862.503	657.329
354.650	16.834	861.652	656.613
355.665	16.900	861.093	656.386
356.679	16.922	860.266	655.782
357.694	16.912	859.588	655.167
358.708	16.880	859.177	654.674
359.723	17.010	858.246	654.407
360.738	17.030	857.217	653.641
361.752	16.955	857.449	653.472
362.767	16.949	856.783	652.883
363.781	17.057	856.237	652.824
364.796	16.903	855.688	651.758
365.810	16.962	855.547	651.819
366.825	17.206	855.100	652.356
367.840	17.278	854.480	652.103
368.854	17.179	853.603	650.997
369.869	17.213	853.420	650.929
370.883	17.140	853.019	650.288
371.898	17.317	852.259	650.328
372.913	17.383	852.018	650.336
373.927	17.212	851.877	649.519
374.942	17.321	851.343	649.472
375.956	17.334	850.874	649.106
376.971	17.347	850.279	648.643
377.986	17.442	849.662	648.479
379.000	17.491	849.081	648.163
380.015	17.349	848.872	647.406
381.029	17.510	848.059	647.339
382.044	17.417	847.537	646.533
383.059	17.537	846.756	646.333
384.073	17.423	846.255	645.461
385.088	17.440	845.640	645.002
386.102	17.344	845.220	644.258
387.117	17.494	844.325	644.089
388.132	17.456	843.999	643.638
389.146	17.503	843.633	643.480
390.161	17.511	843.298	643.198
391.175	17.566	842.901	643.043
392.190	17.541	842.228	642.381
393.205	17.505	841.886	641.925
394.219	17.392	841.393	641.069
395.234	17.495	841.057	641.143
396.248	17.576	840.273	640.794
397.263	17.460	839.854	639.981
398.278	17.573	839.462	640.051
399.292	17.591	839.118	639.801
400.307	17.604	838.697	639.470
401.321	17.582	838.095	638.874
402.336	17.627	837.585	638.597
403.350	17.571	837.187	638.025
404.365	17.640	836.795	637.930
405.380	17.804	835.930	637.826
406.394	17.789	835.506	637.389
407.409	17.640	835.634	636.876
408.423	17.836	835.210	637.230
409.438	17.969	834.319	636.989
410.453	18.030	834.013	636.925
411.467	17.855	833.703	635.979
412.482	17.949	832.993	635.731
413.496	17.926	832.597	635.290
414.511	18.044	832.180	635.351
415.526	17.915	831.785	634.516
416.540	17.981	831.187	634.249
417.555	17.845	830.811	633.399
418.569	18.013	830.457	633.698
419.584	18.063	829.804	633.329
420.599	17.957	829.637	632.753
421.613	97.611	1274.762	1402.103
422.628	84.394	1339.660	1402.237
