DTS Sentinel unit serial number:	SN413079Multiplexer serial number:	ORYXHardware model number:	OX4-SRSoftware version number:	ORYX F/W v4.00 Oryx Data Collector v3.7.2.0data status	okinstallation	princeton_trtdifferential loss correction	single-endedforward channel	channel 1reverse channel	N/Adate	2019/09/18time	20:38:35forward acquisition time	60.00reverse acquisition time	0.00gamma	496.2192k internal	0.2337k external	0.2337temperature offset calibration	1.0036default loss term (dB/km)	0.3790temperature slope calibration	1.0000multiplexer offset coefficient	1.0000multiplexer slope coefficient	1.0000fibre end	0.00T internal ref (°C)	27.75T ext. ref 1 (°C)	1.05T ext. ref 2 (°C)	18.79length (m)	temperature (°C)	Stokes	anti-Stokes-747.200	-36.155	-0.162	0.088
-746.185	49.787	-0.204	0.193
-745.171	159.306	-0.123	-0.172
-744.156	308.250	-0.125	0.234
-743.142	-52.743	-0.169	-0.078
-742.127	32.639	-0.204	0.177
-741.112	-119.037	0.127	0.022
-740.098	-120.511	-0.458	0.078
-739.083	800.000	-0.098	0.305
-738.069	353.655	-0.162	0.323
-737.054	695.639	-0.092	-0.243
-736.039	16.869	-0.275	0.219
-735.025	23.155	0.190	0.156
-734.010	103.409	-0.159	0.187
-732.996	138.115	-0.075	-0.099
-731.981	89.097	0.223	0.249
-730.966	-200.000	0.019	-0.278
-729.952	-96.465	-0.121	-0.032
-728.937	-115.284	0.438	0.083
-727.923	800.000	-0.046	-0.136
-726.908	800.000	-0.084	-0.365
-725.894	234.291	0.072	0.119
-724.879	-200.000	-0.004	0.043
-723.864	79.633	0.178	-0.191
-722.850	-51.686	0.256	-0.120
-721.835	-65.354	-0.006	-0.003
-720.821	-88.134	-0.096	-0.029
-719.806	322.160	0.034	-0.065
-718.791	-200.000	0.079	0.380
-717.777	-170.878	-0.185	0.006
-716.762	62.227	-0.275	-0.275
-715.748	-200.000	0.038	-0.214
-714.733	-171.826	-0.251	-0.008
-713.718	-13.213	0.123	0.080
-712.704	71.002	0.228	-0.237
-711.689	-26.899	-0.164	0.096
-710.675	-104.292	0.190	0.044
-709.660	9.604	0.142	-0.108
-708.645	-200.000	-0.053	-0.260
-707.631	-200.000	0.007	0.159
-706.616	-200.000	0.012	-0.251
-705.602	-200.000	-0.057	-0.409
-704.587	-200.000	0.061	-0.306
-703.572	202.429	0.145	0.224
-702.558	800.000	-0.097	0.312
-701.543	800.000	-0.055	-0.157
-700.529	-74.986	-0.154	-0.055
-699.514	-121.745	-0.109	-0.018
-698.499	198.672	0.103	-0.158
-697.485	87.102	-0.133	0.147
-696.470	-200.000	0.013	-0.113
-695.456	-200.000	0.030	-0.211
-694.441	720.930	-0.058	0.155
-693.426	380.173	-0.176	0.361
-692.412	800.000	0.023	-0.096
-691.397	-200.000	0.025	-0.172
-690.383	-104.721	-0.309	-0.071
-689.368	-200.000	0.097	-0.474
-688.354	-200.000	-0.033	-0.695
-687.339	-131.315	-0.105	-0.014
-686.324	-1.777	0.119	-0.084
-685.310	-96.190	-0.193	0.051
-684.295	-79.502	0.245	0.083
-683.281	346.117	-0.163	-0.321
-682.266	800.000	-0.048	-0.194
-681.251	264.565	0.113	-0.197
-680.237	-9.632	-0.253	0.169
-679.222	71.080	0.034	-0.036
-678.208	118.136	-0.267	-0.329
-677.193	-55.418	0.125	0.056
-676.178	-200.000	-0.015	-0.179
-675.164	800.000	-0.089	-0.258
-674.149	251.836	0.067	0.115
-673.135	-5.001	-0.149	0.103
-672.120	-50.201	-0.175	0.083
-671.105	-78.706	-0.222	0.076
-670.091	20.646	0.164	-0.133
-669.076	5.407	0.442	-0.327
-668.062	303.881	0.351	-0.651
-667.047	800.000	-0.049	0.156
-666.032	-110.317	-0.293	-0.061
-665.018	249.518	0.071	0.121
-664.003	60.005	-0.170	-0.168
-662.989	60.471	-0.044	0.043
-661.974	150.912	-0.258	-0.351
-660.959	133.721	0.076	0.099
-659.945	9.972	-0.027	0.021
-658.930	-93.007	0.277	0.077
-657.916	-176.243	-0.332	0.009
-656.901	117.022	-0.131	-0.162
-655.886	186.329	-0.123	0.184
-654.872	83.096	0.191	-0.208
-653.857	235.271	-0.106	-0.175
-652.843	-18.455	-0.167	-0.104
-651.828	-200.000	0.036	-0.305
-650.814	-145.961	-0.246	0.022
-649.799	800.000	-0.032	0.094
-648.784	-200.000	0.003	-0.052
-647.770	295.098	-0.068	0.125
-646.755	402.854	0.166	0.348
-645.741	161.259	-0.105	0.147
-644.726	170.573	-0.216	-0.310
-643.711	-200.000	-0.020	-0.286
-642.697	-58.785	0.075	-0.033
-641.682	-30.240	-0.397	0.225
-640.668	800.000	-0.091	-0.254
-639.653	-105.886	0.297	0.067
-638.638	800.000	0.075	0.219
-637.624	-200.000	-0.020	-0.288
-636.609	501.060	-0.050	-0.116
-635.595	-18.303	-0.085	0.053
-634.580	329.779	-0.100	-0.193
-633.565	-19.978	-0.291	-0.179
-632.551	-9.259	0.024	-0.016
-631.536	156.193	0.136	-0.188
-630.522	315.815	-0.117	-0.220
-629.507	-103.767	-0.144	-0.034
-628.492	-147.482	0.109	-0.009
-627.478	-89.393	0.294	-0.087
-626.463	103.181	0.167	0.195
-625.449	800.000	0.032	0.104
-624.434	-200.000	-0.007	0.103
-623.419	-29.418	-0.121	-0.069
-622.405	158.993	-0.100	0.139
-621.390	-176.363	0.065	-0.002
-620.376	-44.987	-0.147	-0.073
-619.361	-19.659	0.285	-0.176
-618.346	-30.536	0.207	0.117
-617.332	800.000	0.105	0.336
-616.317	37.277	0.158	0.140
-615.303	-200.000	0.039	-0.227
-614.288	-89.010	0.240	-0.071
-613.273	106.079	-0.144	-0.170
-612.259	-94.754	-0.301	0.082
-611.244	800.000	0.066	-0.243
-610.230	86.924	0.122	0.134
-609.215	-129.697	-0.335	0.046
-608.201	-142.111	0.128	0.013
-607.186	-200.000	-0.051	-0.229
-606.171	45.553	0.152	0.140
-605.157	-65.250	-0.329	-0.132
-604.142	-200.000	-0.007	0.044
-603.128	-185.804	-0.303	-0.005
-602.113	256.692	-0.176	0.303
-601.098	599.311	0.118	-0.293
-600.084	-46.527	-0.294	0.144
-599.069	-200.000	0.014	-0.061
-598.055	-155.366	0.149	0.010
-597.040	800.000	-0.072	-0.305
-596.025	-192.659	-0.084	-0.001
-595.011	-79.887	0.184	0.062
-593.996	197.845	0.187	0.285
-592.982	32.113	-0.308	-0.265
-591.967	-93.662	0.267	0.073
-590.952	-71.790	-0.226	-0.084
-589.938	-102.971	0.142	-0.034
-588.923	-107.623	-0.152	-0.033
-587.909	-123.618	-0.300	0.047
-586.894	259.810	-0.081	-0.139
-585.879	-19.747	-0.164	-0.101
-584.865	144.599	-0.056	0.075
-583.850	-158.300	-0.261	-0.015
-582.836	419.520	-0.141	-0.302
-581.821	-200.000	0.053	-0.439
-580.806	-60.051	-0.324	-0.138
-579.792	-87.801	-0.285	-0.086
-578.777	-80.918	-0.331	0.109
-577.763	16.865	-0.128	0.101
-576.748	2.880	-0.261	-0.189
-575.733	63.942	0.022	0.022
-574.719	-21.961	0.375	0.227
-573.704	-53.574	-0.228	-0.104
-572.690	118.982	0.086	-0.106
-571.675	152.770	0.188	0.257
-570.661	-134.747	-0.067	0.008
-569.646	270.574	0.172	-0.301
-568.631	-200.000	0.020	-0.110
-567.617	-22.817	-0.155	-0.093
-566.602	-40.997	-0.155	0.080
-565.588	800.000	-0.078	-0.226
-564.573	-109.179	0.254	0.054
-563.558	13.377	0.116	-0.090
-562.544	-130.446	0.247	-0.033
-561.529	347.308	-0.139	-0.273
-560.515	161.557	-0.056	-0.078
-559.500	-2.353	0.297	-0.207
-558.485	-108.112	0.143	-0.031
-557.471	-28.784	0.191	0.110
-556.456	-153.318	0.102	0.007
-555.442	-35.644	-0.351	0.190
-554.427	301.220	-0.128	-0.236
-553.412	143.328	0.148	0.196
-552.398	-16.320	0.279	-0.177
-551.383	-120.258	0.107	0.018
-550.369	-71.127	-0.182	-0.068
-549.354	-200.000	0.029	0.131
-548.339	-114.749	0.351	-0.067
-547.325	-22.684	-0.286	0.172
-546.310	407.496	0.143	0.301
-545.296	-128.655	0.310	0.044
-544.281	-171.743	-0.134	0.004
-543.266	-122.183	-0.286	-0.047
-542.252	692.608	-0.063	0.164
-541.237	-178.912	-0.258	-0.006
-540.223	-91.840	0.373	-0.105
-539.208	141.490	-0.219	-0.289
-538.193	65.884	-0.127	0.128
-537.179	388.666	-0.082	0.168
-536.164	-200.000	-0.002	-0.096
-535.150	-37.153	-0.169	-0.090
-534.135	-64.875	0.576	-0.232
-533.121	198.119	-0.076	-0.116
-532.106	-200.000	-0.006	-0.109
-531.091	-200.000	-0.035	-0.276
-530.077	523.250	-0.018	0.043
-529.062	-200.000	0.066	-0.349
-528.048	-169.867	-0.036	0.001
-527.033	0.786	0.134	-0.095
-526.018	80.361	-0.144	0.154
-525.004	81.542	0.150	0.162
-523.989	-79.076	-0.198	0.067
-522.975	-200.000	-0.007	-0.034
-521.960	-3.917	-0.100	0.069
-520.945	20.727	-0.123	-0.099
-519.931	-97.692	-0.446	-0.115
-518.916	88.695	0.128	-0.142
-517.902	-200.000	0.046	0.240
-516.887	55.241	-0.101	0.097
-515.872	-186.149	-0.414	0.006
-514.858	38.543	-0.265	0.235
-513.843	676.658	0.099	0.257
-512.829	800.000	0.045	-0.178
-511.814	-23.089	-0.151	0.090
-510.799	-200.000	0.055	0.000
-509.785	493.813	0.101	0.231
-508.770	380.206	0.163	0.332
-507.756	29.126	-0.194	0.164
-506.741	-32.508	0.137	-0.076
-505.726	-41.667	0.044	0.023
-504.712	-147.790	-0.236	-0.020
-503.697	-2.336	0.184	-0.128
-502.683	150.678	0.127	-0.171
-501.668	-74.606	-0.142	0.051
-500.653	305.507	-0.108	-0.200
-499.639	-32.293	0.202	-0.112
-498.624	365.705	-0.072	0.145
-497.610	-2.983	-0.076	0.052
-496.595	-95.721	0.024	-0.006
-495.581	-154.004	-0.159	0.011
-494.566	178.706	-0.340	-0.494
-493.551	698.158	-0.110	-0.286
-492.537	67.086	0.164	0.166
-491.522	-104.593	0.081	-0.018
-490.508	87.606	-0.136	0.150
-489.493	-10.898	0.141	-0.092
-488.478	84.290	-0.089	-0.096
-487.464	46.737	0.122	-0.113
-486.449	131.878	-0.096	-0.123
-485.435	305.268	0.119	-0.219
-484.420	141.905	-0.045	-0.060
-483.405	25.976	-0.060	-0.050
-482.391	-117.016	0.124	-0.022
-481.376	283.415	0.101	0.180
-480.362	-152.303	-0.228	-0.016
-479.347	-15.800	0.326	-0.206
-478.332	430.142	-0.081	-0.175
-477.318	226.101	-0.141	-0.227
-476.303	82.364	-0.145	0.157
-475.289	800.000	0.050	0.153
-474.274	-36.039	0.111	-0.059
-473.259	131.008	-0.038	0.048
-472.245	-94.995	-0.138	-0.037
-471.230	37.603	0.119	0.105
-470.216	21.780	0.107	0.087
-469.201	-200.000	0.037	-0.177
-468.186	800.000	0.084	-0.277
-467.172	6.558	0.058	0.043
-466.157	509.160	0.041	0.095
-465.143	-159.610	0.376	-0.021
-464.128	-200.000	-0.067	0.596
-463.113	385.217	0.054	-0.110
-462.099	-166.743	-0.044	-0.002
-461.084	800.000	-0.028	0.119
-460.070	400.399	0.105	-0.219
-459.055	-70.651	0.184	-0.069
-458.040	13.268	-0.460	0.354
-457.026	127.399	0.139	-0.175
-456.011	-115.989	0.371	0.069
-454.997	204.027	-0.091	-0.140
-453.982	-35.222	0.311	-0.168
-452.968	685.574	0.006	0.014
-451.953	-177.913	-0.499	0.012
-450.938	800.000	-0.011	0.029
-449.924	193.543	0.165	0.248
-448.909	-97.041	0.259	-0.067
-447.895	-200.000	0.004	0.100
-446.880	578.902	0.094	-0.227
-445.865	-108.704	0.132	-0.028
-444.851	128.081	-0.038	0.048
-443.836	-200.000	0.040	-0.252
-442.822	221.073	0.091	0.144
-441.807	50.126	0.130	0.122
-440.792	737.021	0.019	-0.052
-439.778	597.015	-0.049	0.120
-438.763	-69.492	-0.019	0.007
-437.749	-92.900	0.109	-0.030
-436.734	294.623	0.137	0.248
-435.719	-14.885	-0.108	-0.069
-434.705	-20.891	0.321	0.195
-433.690	9.141	-0.235	-0.176
-432.676	146.292	0.153	0.204
-431.661	-200.000	-0.002	0.096
-430.646	-200.000	-0.105	0.491
-429.632	-34.907	0.428	-0.232
-428.617	117.385	0.148	0.180
-427.603	197.169	-0.101	0.152
-426.588	58.169	0.173	-0.168
-425.573	800.000	-0.053	0.205
-424.559	49.002	0.097	0.090
-423.544	800.000	-0.063	-0.201
-422.530	185.416	-0.050	0.074
-421.515	-47.346	-0.101	0.049
-420.500	-200.000	0.074	-0.326
-419.486	800.000	-0.028	-0.119
-418.471	-108.555	0.265	0.056
-417.457	-24.779	-0.241	-0.142
-416.442	92.519	0.185	0.207
-415.428	-105.044	0.209	0.047
-414.413	-48.136	-0.234	-0.112
-413.398	-96.138	-0.143	0.038
-412.384	9.011	-0.097	-0.073
-411.369	-26.162	0.173	0.100
-410.355	-86.098	-0.128	-0.039
-409.340	-200.000	-0.022	-0.112
-408.325	-71.049	0.370	0.138
-407.311	338.322	-0.109	-0.211
-406.296	95.279	0.237	-0.268
-405.282	-26.817	-0.151	-0.087
-404.267	800.000	-0.104	0.330
-403.252	105.332	-0.072	-0.084
-402.238	18.653	0.453	0.359
-401.223	-129.891	0.239	0.032
-400.209	-109.772	0.017	-0.003
-399.194	-200.000	0.041	-0.191
-398.179	-200.000	-0.000	0.077
-397.165	329.798	0.103	-0.196
-396.150	800.000	-0.033	-0.099
-395.136	-47.169	0.104	-0.050
-394.121	-26.921	-0.176	-0.102
-393.106	-62.568	-0.169	0.069
-392.092	509.171	-0.056	0.128
-391.077	17.772	0.244	0.192
-390.063	800.000	-0.028	-0.085
-389.048	9.470	0.174	-0.131
-388.033	-41.408	0.201	-0.103
-387.019	-13.972	-0.122	-0.078
-386.004	-36.127	0.220	0.118
-384.990	-200.000	0.039	0.239
-383.975	53.249	0.256	-0.243
-382.960	-78.250	0.254	0.086
-381.946	-1.486	0.112	-0.078
-380.931	241.496	0.085	-0.140
-379.917	230.923	-0.144	-0.234
-378.902	78.348	0.051	0.054
-377.888	375.421	-0.109	0.221
-376.873	-42.521	-0.265	0.134
-375.858	800.000	-0.091	0.329
-374.844	473.105	0.088	-0.196
-373.829	-34.448	-0.310	-0.168
-372.815	-200.000	-0.001	0.368
-371.800	-107.336	-0.404	-0.088
-370.785	-132.671	0.077	0.010
-369.771	-132.856	-0.328	0.041
-368.756	-102.552	0.142	0.034
-367.742	-200.000	-0.033	0.233
-366.727	-200.000	0.054	0.339
-365.712	-200.000	0.053	-0.320
-364.698	4.727	-0.212	0.154
-363.683	447.144	0.067	0.146
-362.669	-200.000	0.007	-0.071
-361.654	200.441	-0.087	0.132
-360.639	-35.859	0.080	0.043
-359.625	-200.000	-0.036	-0.279
-358.610	-200.000	-0.031	-0.218
-357.596	-200.000	0.035	-0.190
-356.581	304.459	-0.062	-0.114
-355.566	33.662	0.289	-0.248
-354.552	-200.000	-0.096	-0.502
-353.537	-174.351	0.279	0.008
-352.523	-43.500	0.156	0.078
-351.508	515.539	-0.184	-0.424
-350.493	561.076	-0.077	-0.185
-349.479	-200.000	0.018	0.271
-348.464	98.299	0.080	0.091
-347.450	-200.000	0.020	0.107
-346.435	31.671	-0.242	0.205
-345.420	12.570	-0.441	0.336
-344.406	-68.923	-0.118	0.045
-343.391	59.778	-0.264	0.258
-342.377	-200.000	0.023	-0.449
-341.362	-108.601	0.226	0.048
-340.348	110.407	-0.214	-0.255
-339.333	-200.000	0.391	-0.001
-338.318	-48.769	0.035	-0.017
-337.304	464.410	-0.120	-0.265
-336.289	-90.293	0.356	0.102
-335.275	46.936	-0.297	0.272
-334.260	135.593	-0.108	-0.139
-333.245	-64.525	0.468	0.188
-332.231	-89.152	-0.172	-0.050
-331.216	682.746	0.024	0.061
-330.202	-35.677	0.168	0.090
-329.187	-200.000	-0.009	0.178
-328.172	-6.713	-0.234	0.157
-327.158	-4.576	0.293	-0.200
-326.143	112.972	-0.012	0.014
-325.129	278.035	-0.217	0.381
-324.114	-145.882	-0.053	-0.005
-323.099	-200.000	-0.016	-0.074
-322.085	-66.641	-0.296	-0.116
-321.070	-132.703	0.335	-0.042
-320.056	-18.612	0.090	0.055
-319.041	-190.014	0.221	-0.002
-318.026	-119.271	-0.062	-0.011
-317.012	12.542	-0.129	0.098
-315.997	-200.000	-0.013	-0.154
-314.983	-200.000	-0.014	-0.071
-313.968	4.666	-0.077	-0.056
-312.953	-86.636	0.217	0.066
-311.939	-91.827	0.106	-0.030
-310.924	-121.181	0.275	-0.045
-309.910	351.068	-0.136	0.266
-308.895	317.671	-0.100	0.186
-307.880	-166.994	-0.158	0.006
-306.866	-200.000	0.012	0.183
-305.851	-56.339	0.167	0.073
-304.837	-180.011	0.173	-0.004
-303.822	-200.000	-0.008	0.129
-302.807	-200.000	0.004	0.065
-301.793	-33.499	0.262	0.143
-300.778	307.466	0.092	0.169
-299.764	40.102	0.099	0.088
-298.749	-200.000	-0.010	-0.109
-297.735	800.000	0.051	0.196
-296.720	-69.222	-0.071	0.027
-295.705	107.743	0.125	-0.147
-294.691	-53.303	-0.380	-0.172
-293.676	-200.000	-0.003	0.067
-292.662	800.000	-0.065	0.264
-291.647	-51.324	0.585	0.270
-290.632	20.847	-0.378	-0.302
-289.618	414.067	-0.128	-0.268
-288.603	17.902	0.330	0.259
-287.589	65.529	0.189	-0.189
-286.574	800.000	0.090	-0.337
-285.559	65.327	0.088	0.087
-284.545	800.000	-0.051	-0.192
-283.530	800.000	0.069	-0.229
-282.516	-138.359	0.526	0.057
-281.501	-37.060	-0.104	0.055
-280.486	-77.680	-0.082	-0.028
-279.472	-140.471	0.062	0.006
-278.457	309.340	-0.137	-0.252
-277.443	-62.695	-0.202	0.083
-276.428	-200.000	-0.035	-0.191
-275.413	-200.000	0.038	0.317
-274.399	24.375	-0.351	0.286
-273.384	13.438	-0.239	0.182
-272.370	22.267	-0.109	0.088
-271.355	-169.006	0.435	0.016
-270.340	-48.027	-0.388	0.185
-269.326	-28.471	-0.384	0.218
-268.311	800.000	0.034	-0.108
-267.297	177.058	0.153	0.220
-266.282	-198.626	-0.336	0.002
-265.267	-110.486	0.140	-0.029
-264.253	68.657	0.025	-0.025
-263.238	55.499	-0.140	0.134
-262.224	575.310	0.033	-0.079
-261.209	140.829	-0.191	0.248
-260.195	625.109	-0.143	0.354
-259.180	-67.753	0.079	-0.030
-258.165	425.587	0.099	0.211
-257.151	216.851	0.082	0.128
-256.136	-200.000	-0.032	0.268
-255.122	-179.992	0.327	-0.007
-254.107	45.772	-0.159	0.145
-253.092	800.000	0.110	0.389
-252.078	0.890	0.088	0.062
-251.063	97.623	-0.235	-0.266
-250.049	-200.000	0.034	0.220
-249.034	-90.300	0.172	0.049
-248.019	800.000	0.020	-0.085
-247.005	-158.214	-0.379	0.022
-245.990	0.356	-0.005	-0.003
-244.976	-7.718	-0.085	0.056
-243.961	-200.000	-0.033	0.202
-242.946	350.741	-0.045	-0.087
-241.932	-31.300	-0.072	0.040
-240.917	-200.000	-0.064	-0.355
-239.903	319.319	0.103	0.192
-238.888	-83.103	-0.162	0.051
-237.873	-81.852	0.294	0.095
-236.859	-200.000	-0.026	0.210
-235.844	106.347	0.103	-0.121
-234.830	800.000	-0.081	-0.294
-233.815	61.246	-0.211	-0.207
-232.800	126.938	0.130	-0.162
-231.786	-200.000	-0.037	0.245
-230.771	526.994	-0.076	-0.175
-229.757	-170.928	-0.245	0.008
-228.742	-200.000	0.007	0.140
-227.727	93.033	-0.303	0.337
-226.713	-167.392	0.217	0.009
-225.698	224.080	0.168	0.267
-224.684	221.925	0.323	0.511
-223.669	800.000	0.051	-0.146
-222.655	136.867	-0.119	0.153
-221.640	-13.203	0.222	-0.142
-220.625	232.895	-0.190	0.307
-219.611	-200.000	0.011	0.233
-218.596	-32.030	0.143	0.079
-217.582	-121.267	0.085	0.014
-216.567	-200.000	0.023	-0.167
-215.552	-14.716	0.238	0.150
-214.538	-200.000	-0.006	0.060
-213.523	-33.687	0.384	0.208
-212.509	-42.573	0.088	-0.044
-211.494	-200.000	0.005	0.114
-210.479	-200.000	0.033	0.464
-209.465	415.381	-0.028	-0.058
-208.450	800.000	0.090	0.347
-207.436	800.000	-0.056	0.207
-206.421	-200.000	-0.047	-0.599
-205.406	41.234	0.132	0.117
-204.392	800.000	-0.104	-0.305
-203.377	-91.439	-0.386	-0.108
-202.363	-135.893	0.059	-0.007
-201.348	-147.410	0.028	-0.002
-200.333	-102.863	-0.142	-0.033
-199.319	-36.555	0.201	0.106
-198.304	-6.929	0.138	-0.092
-197.290	-200.000	0.033	0.000
-196.275	800.000	0.124	0.338
-195.260	-27.271	-0.261	-0.149
-194.246	-126.185	0.229	-0.034
-193.231	-115.907	0.303	-0.056
-192.217	7.899	0.371	-0.273
-191.202	-200.000	-0.089	-0.494
-190.187	155.205	-0.050	-0.068
-189.173	-39.724	0.292	0.150
-188.158	800.000	0.016	-0.056
-187.144	-78.791	-0.179	-0.060
-186.129	128.806	0.290	0.363
-185.114	-107.097	-0.292	-0.063
-184.100	93.225	0.064	-0.071
-183.085	-75.887	0.085	-0.029
-182.071	-79.047	0.328	-0.110
-181.056	-53.226	-0.234	-0.105
-180.042	433.026	0.141	-0.301
-179.027	203.572	-0.076	-0.116
-178.012	-28.751	-0.142	0.080
-176.998	800.000	-0.060	0.215
-175.983	69.908	-0.195	-0.198
-174.969	-95.516	0.207	-0.055
-173.954	5.949	-0.053	-0.038
-172.939	113.713	-0.079	0.094
-171.925	194.254	-0.212	-0.316
-170.910	618.059	-0.073	-0.180
-169.896	402.751	-0.032	0.066
-168.881	-32.688	-0.275	0.150
-167.866	96.817	-0.161	0.181
-166.852	-81.755	-0.056	-0.018
-165.837	-129.157	0.045	-0.006
-164.823	171.666	-0.203	-0.286
-163.808	61.952	0.247	0.241
-162.793	-17.226	-0.198	0.123
-161.779	-200.000	0.020	0.098
-160.764	-200.000	-0.008	-0.062
-159.750	-56.459	0.109	-0.048
-158.735	-153.298	-0.170	-0.012
-157.720	103.090	-0.258	-0.296
-156.706	-200.000	-0.040	-0.196
-155.691	-65.907	-0.079	0.031
-154.677	465.278	0.183	-0.401
-153.662	-200.000	-0.018	-0.152
-152.647	-34.748	-0.283	0.152
-151.633	118.792	0.134	0.162
-150.618	-200.000	0.074	0.386
-149.604	-69.677	0.271	0.102
-148.589	-196.173	-0.249	-0.002
-147.574	-87.917	0.191	0.056
-146.560	-200.000	-0.004	0.133
-145.545	62.201	0.148	0.145
-144.531	268.841	-0.090	0.155
-143.516	582.948	-0.132	-0.317
-142.502	-110.912	0.331	0.067
-141.487	310.547	0.069	-0.127
-140.472	43.453	-0.037	0.033
-139.458	435.693	0.116	0.247
-138.443	220.541	-0.069	-0.108
-137.429	177.669	-0.158	0.226
-136.414	257.378	0.223	0.376
-135.399	-53.550	0.224	0.100
-134.385	84.673	-0.021	0.022
-133.370	84.009	0.229	-0.246
-132.356	-75.271	-0.021	-0.007
-131.341	283.633	0.100	0.175
-130.326	-72.712	0.057	0.021
-129.312	-42.434	0.258	0.129
-128.297	231.332	0.082	0.132
-127.283	246.889	0.217	0.359
-126.268	-200.000	0.001	0.551
-125.253	-124.340	-0.335	-0.051
-124.239	-126.975	-0.352	0.051
-123.224	-50.759	0.232	0.107
-122.210	-102.780	0.307	0.071
-121.195	800.000	-0.043	0.146
-120.180	-200.000	-0.011	-0.205
-119.166	-148.492	-0.126	-0.010
-118.151	-11.774	0.364	0.234
-117.137	-47.872	0.234	-0.111
-116.122	400.101	0.042	0.087
-115.107	114.060	0.122	0.145
-114.093	138.458	-0.188	0.242
-113.078	35.421	-0.190	-0.164
-112.064	-140.261	-0.101	0.010
-111.049	62.479	0.213	-0.209
-110.034	221.219	0.209	0.329
-109.020	360.432	-0.204	0.400
-108.005	374.920	-0.154	0.308
-106.991	68.597	0.232	-0.233
-105.976	-200.000	0.066	0.341
-104.962	126.235	-0.202	0.250
-103.947	356.791	0.054	0.105
-102.932	-200.000	-0.042	0.234
-101.918	-83.587	-0.172	0.054
-100.903	498.149	-0.034	-0.076
-99.889	-89.681	-0.187	-0.054
-98.874	-138.633	-0.259	0.028
-97.859	800.000	-0.036	0.128
-96.845	14.803	0.102	-0.078
-95.830	-24.360	-0.245	-0.143
-94.816	-58.597	0.145	-0.061
-93.801	-46.188	0.096	-0.046
-92.786	-80.428	-0.360	-0.118
-91.772	-85.554	0.252	-0.077
-90.757	-200.000	0.005	-0.192
-89.743	288.419	-0.035	0.062
-88.728	76.775	-0.065	-0.067
-87.713	-200.000	-0.019	-0.124
-86.699	-101.307	0.322	0.077
-85.684	800.000	-0.023	-0.095
-84.670	-200.000	-0.006	0.178
-83.655	71.298	-0.271	0.275
-82.640	213.417	-0.150	-0.232
-81.626	-200.000	0.021	0.117
-80.611	151.163	0.243	-0.324
-79.597	-42.009	-0.336	-0.168
-78.582	-180.914	0.059	0.001
-77.567	232.283	0.146	0.234
-76.553	-200.000	0.028	-0.129
-75.538	800.000	-0.027	0.107
-74.524	17.175	-0.303	0.235
-73.509	-200.000	-0.060	0.391
-72.494	29.253	-0.112	-0.093
-71.480	-87.998	-0.160	0.047
-70.465	128.459	0.154	0.192
-69.451	-200.000	-0.036	-0.246
-68.436	-87.510	-0.070	-0.021
-67.422	-200.000	-0.008	0.162
-66.407	-200.000	0.020	0.190
-65.392	-153.188	-0.359	-0.025
-64.378	115.507	0.222	-0.266
-63.363	-200.000	0.050	0.443
-62.349	216.314	0.067	0.103
-61.334	43.691	-1.167	-1.043
-60.319	-73.892	0.724	0.257
-59.305	572.605	-0.449	-1.069
-58.290	800.000	0.429	1.343
-57.276	664.339	0.573	1.445
-56.261	-200.000	113.225	641.690
-55.246	482.578	1478.264	3282.282
-54.232	153.849	2634.977	3528.973
-53.217	101.779	2130.018	2427.425
-52.203	38.748	1584.444	1381.856
-51.188	31.198	1331.015	1115.867
-50.173	28.287	1292.898	1066.936
-49.159	52.036	1349.938	1256.270
-48.144	51.362	1364.400	1265.657
-47.130	31.084	1319.097	1105.023
-46.115	27.852	1301.371	1071.206
-45.100	27.720	1296.014	1065.982
-44.086	27.566	1293.962	1063.353
-43.071	27.611	1291.112	1061.233
-42.057	27.559	1289.763	1059.777
-41.042	27.541	1287.910	1058.106
-40.027	27.593	1286.196	1056.962
-39.013	27.647	1284.431	1055.780
-37.998	27.592	1282.754	1054.040
-36.984	27.767	1281.285	1053.804
-35.969	27.787	1279.079	1052.062
-34.954	27.669	1277.537	1050.075
-33.940	27.825	1275.925	1049.603
-32.925	27.891	1274.928	1049.122
-31.911	27.864	1273.399	1047.665
-30.896	27.751	1271.822	1045.679
-29.881	27.744	1271.044	1044.957
-28.867	27.864	1269.203	1044.092
-27.852	27.812	1268.162	1042.897
-26.838	27.835	1266.484	1041.603
-25.823	27.734	1265.857	1040.474
-24.809	27.820	1264.163	1039.526
-23.794	27.870	1262.647	1038.522
-22.779	27.848	1261.473	1037.395
-21.765	27.929	1259.909	1036.527
-20.750	27.859	1258.718	1035.106
-19.736	27.792	1257.372	1033.578
-18.721	27.664	1256.776	1032.322
-17.706	27.735	1255.366	1031.524
-16.692	27.774	1254.163	1030.715
-15.677	27.729	1253.005	1029.469
-14.663	27.735	1251.699	1028.394
-13.648	27.634	1251.040	1027.239
-12.633	27.635	1250.170	1026.491
-11.619	27.628	1249.404	1025.782
-10.604	27.638	1248.488	1025.046
-9.590	27.760	1247.234	1024.657
-8.575	27.783	1246.337	1024.013
-7.560	27.742	1245.549	1023.093
-6.546	27.722	1244.813	1022.337
-5.531	27.657	1243.802	1021.102
-4.517	27.707	1243.095	1020.759
-3.502	27.689	1242.056	1019.766
-2.487	27.592	1241.503	1018.728
-1.473	27.398	1237.438	1014.273
-0.458	25.187	1221.452	988.952
0.556	20.121	1203.518	944.901
1.571	15.575	1208.877	924.073
2.586	14.364	1223.568	928.477
3.600	14.228	1211.578	918.545
4.615	10.817	1142.310	848.180
5.629	4.398	1071.070	763.715
6.644	1.274	1053.353	735.886
7.659	0.900	1051.416	732.657
8.673	0.991	1050.671	732.515
9.688	1.045	1049.240	731.709
10.702	1.258	1046.944	731.071
11.717	4.978	1051.277	752.004
12.731	12.001	1061.197	793.128
13.746	16.628	1066.233	819.273
14.761	17.726	1067.263	825.307
15.775	16.887	1065.453	819.780
16.790	15.998	1063.066	813.581
17.804	15.234	1062.166	809.130
18.819	15.022	1060.352	806.658
19.834	14.708	1059.811	804.661
20.848	14.486	1058.720	802.692
21.863	14.113	1058.239	800.465
22.877	13.966	1057.513	799.135
23.892	13.960	1056.920	798.589
24.907	14.029	1056.142	798.259
25.921	14.062	1055.340	797.743
26.936	14.135	1054.440	797.340
27.950	14.029	1053.421	795.994
28.965	14.109	1052.727	795.780
29.980	14.221	1051.134	795.041
30.994	14.165	1050.038	793.875
32.009	14.168	1049.206	793.192
33.023	14.142	1048.281	792.294
34.038	14.173	1046.922	791.345
35.053	14.152	1046.179	790.615
36.067	14.121	1045.385	789.799
37.082	14.122	1044.768	789.268
38.096	14.175	1043.903	788.795
39.111	14.157	1043.500	788.337
40.126	14.075	1042.336	786.997
41.140	14.063	1040.628	785.584
42.155	13.972	1039.812	784.468
43.169	13.961	1038.693	783.504
44.184	14.003	1037.610	782.814
45.199	13.995	1036.677	782.002
46.213	14.093	1035.607	781.585
47.228	14.170	1033.860	780.561
48.242	14.123	1033.116	779.709
49.257	14.174	1032.283	779.250
50.271	14.012	1031.717	777.998
51.286	14.152	1030.548	777.701
52.301	14.161	1029.519	776.898
53.315	14.090	1028.533	775.754
54.330	14.145	1027.098	774.860
55.344	14.225	1026.442	774.667
56.359	14.042	1025.631	773.135
57.374	14.040	1025.233	772.760
58.388	14.080	1023.894	771.864
59.403	14.060	1023.281	771.240
60.417	13.999	1022.147	770.039
61.432	13.935	1021.847	769.446
62.447	13.923	1021.125	768.781
63.461	14.101	1019.751	768.498
64.476	13.907	1019.267	767.170
65.490	13.921	1018.241	766.395
66.505	13.941	1017.677	765.996
67.520	13.978	1017.154	765.704
68.534	13.910	1016.496	764.827
69.549	13.917	1015.794	764.265
70.563	13.982	1014.876	763.804
71.578	13.892	1014.059	762.707
72.593	13.887	1013.389	762.117
73.607	13.960	1012.381	761.623
74.622	13.832	1012.257	760.875
75.636	13.962	1011.361	760.729
76.651	13.893	1010.834	759.950
77.666	13.963	1010.001	759.579
78.680	13.847	1009.354	758.493
79.695	13.999	1008.410	758.411
80.709	13.980	1008.097	758.022
81.724	13.968	1007.371	757.356
82.739	14.170	1006.222	757.343
83.753	14.114	1005.968	756.831
84.768	14.238	1004.773	756.426
85.782	14.128	1004.012	755.290
86.797	14.082	1003.601	754.704
87.812	14.209	1002.008	754.013
88.826	14.143	1001.296	753.113
89.841	14.229	999.902	752.386
90.855	14.209	999.108	751.634
91.870	14.170	998.899	751.232
92.884	14.236	997.809	750.646
93.899	14.083	997.341	749.538
94.914	14.277	995.912	749.270
95.928	14.423	995.278	749.384
96.943	14.163	994.492	747.555
97.957	14.072	993.812	746.572
98.972	14.151	992.547	745.908
99.987	14.307	991.988	746.123
101.001	13.993	991.471	744.258
102.016	14.160	990.249	744.022
103.030	14.215	989.175	743.396
104.045	14.169	988.517	742.629
105.060	14.284	987.773	742.518
106.074	14.089	987.079	741.063
107.089	14.152	985.636	740.194
108.103	14.085	985.097	739.424
109.118	14.180	983.693	738.729
110.133	14.123	982.850	737.779
111.147	14.043	982.265	736.919
112.162	14.073	981.468	736.389
113.176	14.220	980.670	736.372
114.191	14.281	979.565	735.750
115.206	14.135	979.464	734.962
116.220	14.107	978.320	733.916
117.235	14.190	977.276	733.433
118.249	14.204	976.688	732.989
119.264	14.107	975.829	731.854
120.279	14.182	974.733	731.294
121.293	14.210	974.217	730.967
122.308	14.000	973.935	729.771
123.322	14.155	972.493	729.303
124.337	14.133	971.540	728.430
125.352	14.189	970.421	727.768
126.366	14.121	969.562	726.766
127.381	14.073	968.464	725.666
128.395	14.155	967.591	725.307
129.410	14.229	966.267	724.571
130.424	14.140	965.682	723.683
131.439	14.229	965.218	723.658
132.454	14.280	964.432	723.224
133.468	14.151	963.273	721.732
134.483	14.186	962.733	721.416
135.497	14.167	961.790	720.562
136.512	14.177	960.673	719.707
137.527	14.228	959.935	719.311
138.541	14.282	959.583	719.214
139.556	14.119	958.936	717.964
140.570	14.304	957.907	717.926
141.585	14.267	956.744	716.831
142.600	14.419	955.774	716.694
143.614	14.357	954.866	715.684
144.629	14.487	954.050	715.567
145.643	14.326	953.663	714.523
146.658	14.316	952.241	713.352
147.673	14.308	951.750	712.885
148.687	14.272	951.194	712.255
149.702	14.268	950.086	711.343
150.716	14.305	949.454	710.964
151.731	14.341	948.653	710.457
152.746	14.314	948.127	709.883
153.760	14.368	947.417	709.520
154.775	14.422	947.117	709.464
155.789	14.508	946.087	708.992
156.804	14.316	945.995	708.045
157.819	14.422	945.144	707.798
158.833	14.535	944.232	707.532
159.848	14.455	943.562	706.627
160.862	14.468	942.487	705.814
161.877	14.529	941.701	705.422
162.892	14.560	940.555	704.633
163.906	14.424	939.764	703.403
164.921	14.489	938.976	703.026
165.935	14.510	938.046	702.355
166.950	14.512	937.357	701.784
167.964	14.527	936.465	701.119
168.979	14.538	935.526	700.400
169.994	14.425	934.923	699.411
171.008	14.492	934.420	699.254
172.023	14.620	933.050	698.702
173.037	14.617	933.177	698.726
174.052	14.508	932.228	697.495
175.067	14.464	931.779	696.913
176.081	14.555	930.898	696.574
177.096	14.481	930.832	696.155
178.110	14.607	929.973	695.975
179.125	14.531	929.629	695.340
180.140	14.637	929.024	695.265
181.154	14.573	928.404	694.473
182.169	14.589	928.029	694.201
183.183	14.857	926.890	694.400
184.198	14.777	926.157	693.457
185.213	14.663	925.367	692.331
186.227	14.821	924.962	692.623
187.242	14.867	924.188	692.173
188.256	14.820	923.714	691.559
189.271	14.786	922.557	690.492
190.286	14.768	921.826	689.812
191.300	14.707	921.336	689.130
192.315	14.609	921.143	688.521
193.329	14.769	920.309	688.499
194.344	14.738	919.659	687.821
195.359	14.793	918.954	687.460
196.373	14.785	918.129	686.747
197.388	14.875	918.004	686.963
198.402	14.985	917.123	686.698
199.417	15.061	916.681	686.616
200.432	14.980	916.078	685.773
201.446	15.049	915.607	685.639
202.461	14.935	915.291	684.879
203.475	15.113	914.614	685.040
204.490	15.072	913.736	684.153
205.504	15.124	913.233	683.926
206.519	15.124	912.202	683.095
207.534	15.096	911.715	682.554
208.548	15.068	911.124	681.939
209.563	14.963	910.686	681.123
210.577	15.001	909.818	680.567
211.592	15.135	909.038	680.470
212.607	15.152	908.350	679.963
213.621	15.204	907.337	679.355
214.636	15.279	906.499	678.972
215.650	15.265	905.794	678.327
216.665	15.173	905.629	677.772
217.680	15.095	904.959	676.895
218.694	15.233	904.442	677.007
219.709	15.140	903.639	675.968
220.723	15.420	902.514	676.194
221.738	15.252	902.179	675.207
222.753	15.294	901.859	675.079
223.767	15.322	900.887	674.402
224.782	15.280	900.707	674.040
225.796	15.423	900.041	674.055
226.811	15.377	899.288	673.248
227.826	15.535	897.986	672.849
228.840	15.341	898.163	672.143
229.855	15.452	896.827	671.529
230.869	15.310	896.338	670.534
231.884	15.499	895.275	670.434
232.899	15.439	894.890	669.849
233.913	15.536	893.957	669.475
234.928	15.466	893.679	668.930
235.942	15.363	892.896	667.874
236.957	15.326	892.710	667.529
237.972	15.417	892.093	667.372
238.986	15.451	890.664	666.378
240.001	15.412	890.445	666.001
241.015	15.554	889.837	666.049
242.030	15.461	889.230	665.166
243.045	15.506	888.785	664.955
244.059	15.551	887.801	664.336
245.074	15.521	887.750	664.122
246.088	15.651	886.668	663.765
247.103	15.675	886.141	663.409
248.117	15.633	885.310	662.562
249.132	15.628	885.079	662.311
250.147	15.969	883.899	662.709
251.161	15.760	883.820	661.770
252.176	15.728	882.952	660.936
253.190	15.898	882.167	660.959
254.205	15.870	881.624	660.382
255.220	15.668	881.209	659.220
256.234	15.733	880.697	659.034
257.249	15.908	879.808	658.997
258.263	15.804	879.563	658.348
259.278	15.891	878.741	658.015
260.293	15.990	877.994	657.781
261.307	15.897	877.454	656.958
262.322	16.002	876.630	656.691
263.336	16.050	876.105	656.428
264.351	16.138	875.032	655.905
265.366	16.058	874.980	655.501
266.380	16.087	874.185	654.958
267.395	16.074	873.599	654.408
268.409	16.093	873.143	654.085
269.424	16.162	871.895	653.358
270.439	16.125	871.395	652.783
271.453	16.155	870.490	652.163
272.468	16.067	870.475	651.755
273.482	16.048	869.931	651.217
274.497	16.192	868.917	650.954
275.512	16.107	868.534	650.284
276.526	16.342	868.122	650.822
277.541	16.186	867.730	649.870
278.555	16.272	866.887	649.512
279.570	16.300	866.375	649.180
280.585	16.204	865.410	648.030
281.599	16.292	864.831	647.877
282.614	16.260	864.244	647.258
283.628	16.249	863.702	646.750
284.643	16.400	863.029	646.769
285.657	16.422	862.095	646.094
286.672	16.317	861.835	645.441
287.687	16.211	861.427	644.675
288.701	16.437	860.487	644.776
289.716	16.463	859.951	644.417
290.730	16.471	859.356	643.943
291.745	16.408	858.652	643.120
292.760	16.525	857.892	642.939
293.774	16.514	857.445	642.506
294.789	16.641	856.684	642.359
295.803	16.593	855.942	641.565
296.818	16.568	855.415	641.019
297.833	16.467	855.234	640.444
298.847	16.464	854.362	639.722
299.862	16.551	853.616	639.434
300.876	16.602	853.429	639.433
301.891	16.550	852.659	638.603
302.906	16.620	852.112	638.399
303.920	16.713	851.363	638.133
304.935	16.680	851.111	637.765
305.949	16.723	849.802	636.886
306.964	16.684	849.586	636.524
307.979	16.683	849.350	636.286
308.993	16.848	848.399	636.137
310.008	16.645	847.988	635.011
311.022	16.753	847.398	634.917
312.037	16.838	846.799	634.732
313.052	16.862	846.394	634.463
314.066	16.737	846.035	633.666
315.081	16.752	845.113	632.979
316.095	16.865	844.642	632.991
317.110	16.783	844.226	632.318
318.125	16.783	843.626	631.810
319.139	16.774	843.184	631.392
320.154	16.857	842.754	631.321
321.168	16.825	842.308	630.812
322.183	16.818	841.739	630.306
323.197	16.706	841.432	629.603
324.212	16.832	840.707	629.474
325.227	16.886	839.873	628.993
326.241	16.879	839.554	628.671
327.256	16.868	839.259	628.355
328.270	16.798	838.587	627.537
329.285	17.004	837.745	627.615
330.300	16.914	837.274	626.872
331.314	16.860	836.899	626.337
332.329	16.929	836.213	626.024
333.343	16.964	835.761	625.759
334.358	17.109	835.201	625.818
335.373	16.982	835.081	625.204
336.387	17.042	834.820	625.177
337.402	17.115	834.390	625.065
338.416	17.237	833.852	625.057
339.431	17.109	833.595	624.337
340.446	17.271	832.950	624.395
341.460	17.255	832.753	624.132
342.475	17.215	832.278	623.575
343.489	17.329	831.727	623.526
344.504	17.277	831.184	622.872
345.519	17.347	830.796	622.784
346.533	17.371	829.848	622.107
347.548	17.275	829.892	621.734
348.562	17.276	829.539	621.416
349.577	17.323	828.803	620.981
350.592	17.274	828.166	620.269
351.606	17.247	827.740	619.799
352.621	17.337	826.976	619.501
353.635	17.244	826.600	618.823
354.650	17.355	825.597	618.423
355.665	17.409	824.916	618.054
356.679	17.236	824.553	617.099
357.694	17.323	823.537	616.599
358.708	17.311	823.251	616.287
359.723	17.474	822.276	616.092
360.738	17.481	821.836	615.733
361.752	17.488	821.411	615.388
362.767	17.482	820.878	614.911
363.781	17.506	820.480	614.644
364.796	17.531	820.020	614.337
365.810	17.581	819.478	614.055
366.825	17.602	819.306	613.947
367.840	17.594	818.726	613.430
368.854	17.516	818.530	612.949
369.869	17.605	817.778	612.653
370.883	17.640	817.234	612.314
371.898	17.644	817.249	612.287
372.913	17.767	816.271	611.940
373.927	17.750	816.276	611.829
374.942	17.743	815.842	611.424
375.956	17.747	815.302	610.980
376.971	17.856	814.692	610.858
377.986	17.945	814.180	610.741
379.000	17.899	814.034	610.413
380.015	17.841	813.555	609.790
381.029	17.946	812.871	609.599
382.044	17.846	812.059	608.579
383.059	17.864	811.503	608.175
384.073	17.879	811.289	608.011
385.088	17.880	810.825	607.614
386.102	17.872	810.105	606.993
387.117	17.796	809.480	606.200
388.132	17.983	808.399	606.000
389.146	17.978	808.081	605.693
390.161	17.964	807.754	605.343
391.175	18.073	807.339	605.367
392.190	17.907	807.145	604.577
393.205	17.956	806.431	604.164
394.219	17.998	806.421	604.250
395.234	17.977	805.605	603.510
396.248	17.925	805.459	603.164
397.263	17.851	805.151	602.621
398.278	17.984	804.452	602.515
399.292	18.007	804.041	602.234
400.307	17.926	803.733	601.664
401.321	18.133	802.717	601.578
402.336	18.029	802.435	600.946
403.350	18.104	802.490	601.199
404.365	18.081	802.329	600.946
405.380	18.209	801.169	600.473
406.394	18.171	800.893	600.077
407.409	18.179	800.633	599.858
408.423	18.405	800.073	600.177
409.438	18.330	799.667	599.557
410.453	18.168	799.429	598.760
411.467	18.255	798.869	598.592
412.482	18.360	798.509	598.635
413.496	18.536	797.784	598.654
414.511	18.478	797.702	598.336
415.526	18.337	797.064	597.314
416.540	18.552	796.413	597.521
417.555	18.529	795.844	596.963
418.569	18.480	795.875	596.762
419.584	18.370	795.462	596.018
420.599	18.608	794.830	596.316
421.613	114.950	1294.994	1481.814
422.628	99.061	1367.853	1481.912
