DTS Sentinel unit serial number:	SN413079Multiplexer serial number:	ORYXHardware model number:	OX4-SRSoftware version number:	ORYX F/W v4.00 Oryx Data Collector v3.7.2.0data status	okinstallation	princeton_trtdifferential loss correction	single-endedforward channel	channel 1reverse channel	N/Adate	2019/09/16time	07:42:35forward acquisition time	60.00reverse acquisition time	0.00gamma	496.2192k internal	0.2328k external	0.2328temperature offset calibration	0.9976default loss term (dB/km)	0.3790temperature slope calibration	1.0000multiplexer offset coefficient	1.0000multiplexer slope coefficient	1.0000fibre end	0.00T internal ref (°C)	27.94T ext. ref 1 (°C)	11.68T ext. ref 2 (°C)	24.68length (m)	temperature (°C)	Stokes	anti-Stokes-747.200	50.733	-0.138	0.132
-746.185	-111.383	-0.151	0.031
-745.171	191.923	0.047	-0.071
-744.156	-23.166	-0.283	0.172
-743.142	33.237	0.144	-0.126
-742.127	-126.133	-0.184	0.028
-741.112	-89.939	0.234	-0.069
-740.098	-56.922	0.052	-0.023
-739.083	-61.103	-0.071	0.030
-738.069	800.000	-0.035	0.111
-737.054	95.397	0.071	-0.081
-736.039	161.809	-0.256	-0.361
-735.025	-109.561	0.318	-0.067
-734.010	-200.000	-0.065	-0.389
-732.996	35.015	-0.113	0.100
-731.981	518.494	0.205	-0.483
-730.966	230.521	-0.150	-0.246
-729.952	-145.467	-0.271	-0.025
-728.937	0.784	-0.227	0.163
-727.923	-175.585	-0.163	0.004
-726.908	152.653	-0.107	-0.147
-725.894	-99.662	0.189	-0.048
-724.879	300.109	-0.090	-0.167
-723.864	-200.000	-0.022	-0.109
-722.850	-101.355	0.346	-0.085
-721.835	-161.509	0.249	0.013
-720.821	-17.983	-0.147	-0.093
-719.806	164.281	-0.080	-0.113
-718.791	-200.000	0.048	-0.300
-717.777	-136.016	-0.408	0.048
-716.762	-101.298	-0.548	0.135
-715.748	-200.000	0.033	-0.229
-714.733	-137.435	-0.091	-0.010
-713.718	-1.023	0.117	0.083
-712.704	122.138	-0.183	0.230
-711.689	-65.874	0.125	-0.050
-710.675	-63.657	-0.283	-0.117
-709.660	-29.081	0.286	0.165
-708.645	-200.000	-0.003	0.216
-707.631	-200.000	-0.049	-0.278
-706.616	34.069	-0.207	0.181
-705.602	-200.000	-0.032	-0.317
-704.587	-63.423	0.397	-0.164
-703.572	800.000	0.099	0.325
-702.558	7.706	0.235	-0.177
-701.543	678.509	0.119	-0.311
-700.529	-69.556	-0.159	0.061
-699.514	21.362	-0.110	-0.090
-698.499	214.907	-0.083	-0.133
-697.485	85.835	0.228	-0.252
-696.470	209.114	-0.162	0.255
-695.456	416.257	-0.111	0.239
-694.441	-166.359	-0.219	0.009
-693.426	45.603	-0.113	0.105
-692.412	67.664	0.238	-0.245
-691.397	800.000	-0.050	0.147
-690.383	-123.062	-0.374	-0.060
-689.368	-22.666	0.199	-0.121
-688.354	378.512	-0.124	-0.256
-687.339	-44.463	-0.078	-0.039
-686.324	154.779	0.106	-0.146
-685.310	-200.000	0.017	0.266
-684.295	-23.090	-0.096	0.058
-683.281	-62.278	-0.078	0.033
-682.266	70.712	0.184	0.191
-681.251	-57.714	-0.464	-0.204
-680.237	662.106	0.083	0.216
-679.222	-81.130	-0.129	-0.043
-678.208	-44.418	0.057	-0.029
-677.193	-200.000	0.048	-0.413
-676.178	800.000	0.083	-0.237
-675.164	-158.776	-0.318	0.018
-674.149	-116.195	0.445	-0.083
-673.135	223.770	-0.069	-0.112
-672.120	555.364	0.077	-0.186
-671.105	13.829	-0.094	-0.073
-670.091	65.672	0.074	0.075
-669.076	-127.726	-0.454	-0.066
-668.062	800.000	0.175	-0.511
-667.047	800.000	0.008	-0.029
-666.032	-71.025	-0.173	-0.066
-665.018	26.039	0.217	0.182
-664.003	-12.942	-0.073	0.048
-662.989	499.891	0.022	0.051
-661.974	-18.891	0.172	-0.108
-660.959	-21.502	0.148	0.091
-659.945	202.619	0.057	-0.089
-658.930	800.000	-0.074	-0.255
-657.916	-117.873	-0.288	0.052
-656.901	-41.601	-0.374	0.193
-655.886	-200.000	-0.059	0.454
-654.872	-175.988	-0.435	-0.012
-653.857	800.000	-0.139	-0.395
-652.843	137.342	0.237	-0.312
-651.828	-200.000	0.070	-0.422
-650.814	-66.113	-0.259	0.104
-649.799	-148.351	-0.201	0.017
-648.784	-40.077	-0.196	-0.102
-647.770	-62.554	-0.102	0.043
-646.755	-61.125	-0.259	0.110
-645.741	624.373	0.004	-0.010
-644.726	-140.576	-0.034	0.004
-643.711	-104.723	-0.104	0.024
-642.697	-17.124	0.127	-0.080
-641.682	-30.535	-0.140	0.080
-640.668	-62.433	-0.183	-0.076
-639.653	-200.000	0.015	-0.226
-638.638	-144.962	-0.279	0.026
-637.624	-80.345	-0.263	0.088
-636.609	513.390	-0.086	0.201
-635.595	403.293	-0.043	-0.090
-634.580	-200.000	-0.015	0.206
-633.565	-24.511	-0.247	-0.148
-632.551	-63.304	0.300	-0.124
-631.536	109.804	-0.026	0.031
-630.522	-200.000	0.003	-0.087
-629.507	94.698	-0.190	-0.217
-628.492	-63.773	0.051	0.021
-627.478	84.532	-0.142	0.156
-626.463	-46.251	0.144	-0.071
-625.449	339.185	-0.120	0.235
-624.434	277.218	0.156	0.278
-623.419	-200.000	-0.026	-0.146
-622.405	101.502	-0.202	-0.236
-621.390	207.482	0.178	0.278
-620.376	-90.609	0.283	0.082
-619.361	-200.000	0.023	0.282
-618.346	-200.000	-0.061	0.451
-617.332	-55.698	0.152	-0.068
-616.317	-7.341	0.284	0.193
-615.303	-59.602	-0.205	-0.088
-614.288	-162.111	0.351	-0.018
-613.273	-63.060	0.069	-0.028
-612.259	-148.970	-0.562	0.045
-611.244	800.000	-0.085	-0.264
-610.230	226.139	-0.110	-0.179
-609.215	800.000	-0.206	0.620
-608.201	160.262	-0.353	-0.494
-607.186	739.032	0.098	-0.263
-606.171	203.422	0.114	0.176
-605.157	112.275	-0.080	-0.097
-604.142	190.853	0.053	-0.079
-603.128	800.000	0.077	-0.305
-602.113	26.798	-0.200	-0.168
-601.098	641.619	-0.028	0.071
-600.084	-110.315	0.155	-0.032
-599.069	257.602	0.144	0.248
-598.055	-116.328	-0.590	0.109
-597.040	473.815	0.145	0.328
-596.025	-200.000	0.054	-0.244
-595.011	-166.267	-0.293	-0.012
-593.996	-148.905	0.341	0.028
-592.982	-200.000	0.014	-0.094
-591.967	800.000	-0.072	-0.208
-590.952	-200.000	0.051	0.308
-589.938	16.964	0.307	-0.244
-588.923	176.104	-0.224	0.326
-587.909	-89.400	-0.272	-0.080
-586.894	-200.000	0.012	0.235
-585.879	454.215	-0.110	-0.244
-584.865	-200.000	-0.013	-0.199
-583.850	8.652	-0.216	0.163
-582.836	284.245	-0.017	0.030
-581.821	-153.826	0.225	0.015
-580.806	800.000	-0.023	0.087
-579.792	1.368	-0.091	-0.065
-578.777	-155.064	-0.160	-0.010
-577.763	-141.191	0.231	-0.024
-576.748	-9.886	0.065	0.044
-575.733	-79.818	-0.247	-0.083
-574.719	35.353	0.115	-0.101
-573.704	-173.089	-0.371	0.011
-572.690	-200.000	-0.080	0.418
-571.675	21.826	-0.063	-0.051
-570.661	-170.708	0.153	0.005
-569.646	101.711	-0.205	0.239
-568.631	-200.000	-0.007	0.273
-567.617	35.139	-0.320	-0.281
-566.602	-17.759	-0.285	-0.179
-565.588	15.646	0.143	0.113
-564.573	-44.855	0.396	0.198
-563.558	800.000	0.052	-0.170
-562.544	112.699	-0.269	0.326
-561.529	-54.380	-0.200	0.091
-560.515	357.066	-0.057	-0.114
-559.500	-101.206	-0.206	0.050
-558.485	53.320	0.069	0.066
-557.471	-14.569	0.232	0.149
-556.456	800.000	-0.021	0.058
-555.442	-10.924	0.401	-0.265
-554.427	-92.529	-0.318	0.089
-553.412	-103.548	-0.318	-0.075
-552.398	329.283	-0.156	0.300
-551.383	800.000	-0.049	-0.188
-550.369	-200.000	0.036	-0.261
-549.354	38.466	-0.213	-0.190
-548.339	-67.210	0.178	0.070
-547.325	12.297	-0.115	-0.088
-546.310	800.000	-0.059	-0.236
-545.296	-200.000	-0.005	0.023
-544.281	-59.718	0.244	0.105
-543.266	-144.625	0.212	0.020
-542.252	-108.978	-0.324	0.069
-541.237	-57.652	-0.049	-0.021
-540.223	-126.953	-0.296	0.044
-539.208	-131.831	0.140	-0.018
-538.193	-200.000	0.002	0.086
-537.179	-200.000	0.041	-0.209
-536.164	68.337	0.172	0.176
-535.150	634.977	-0.072	0.182
-534.135	800.000	-0.011	-0.044
-533.121	-35.423	-0.078	0.042
-532.106	800.000	0.163	0.472
-531.091	-112.697	0.268	-0.053
-530.077	-105.995	-0.147	-0.033
-529.062	-145.972	0.405	-0.036
-528.048	204.622	-0.150	-0.233
-527.033	-200.000	-0.019	-0.252
-526.018	-200.000	-0.013	-0.129
-525.004	36.509	-0.168	0.148
-523.989	21.387	-0.371	-0.301
-522.975	-38.346	0.263	-0.139
-521.960	800.000	0.060	0.168
-520.945	-200.000	0.053	0.291
-519.931	-90.595	-0.349	0.101
-518.916	-200.000	0.016	-0.078
-517.902	756.173	-0.062	-0.166
-516.887	-90.123	0.251	-0.073
-515.872	343.131	0.168	-0.328
-514.858	-66.081	-0.155	-0.062
-513.843	-64.035	0.344	0.140
-512.829	-46.880	0.345	0.169
-511.814	-147.957	0.289	-0.024
-510.799	-200.000	0.001	-0.255
-509.785	19.271	-0.322	-0.258
-508.770	-119.622	-0.236	-0.041
-507.756	-200.000	-0.003	0.029
-506.741	-200.000	-0.007	-0.078
-505.726	-200.000	-0.014	-0.126
-504.712	800.000	0.048	0.131
-503.697	264.278	0.175	0.304
-502.683	412.848	-0.158	-0.335
-501.668	-200.000	-0.021	0.176
-500.653	-0.717	-0.204	-0.144
-499.639	-200.000	-0.038	-0.216
-498.624	800.000	0.079	-0.310
-497.610	-138.769	0.157	-0.017
-496.595	-200.000	0.045	-0.326
-495.581	-83.004	-0.168	-0.054
-494.566	117.426	-0.071	0.087
-493.551	33.702	0.148	0.129
-492.537	-162.345	0.182	0.009
-491.522	-45.434	0.242	0.120
-490.508	-57.423	-0.077	-0.034
-489.493	338.644	-0.031	-0.061
-488.478	800.000	0.064	0.203
-487.464	-86.934	-0.126	-0.038
-486.449	10.254	0.100	0.076
-485.435	120.657	-0.301	0.373
-484.420	34.611	0.268	0.234
-483.405	39.820	0.282	0.252
-482.391	-185.259	-0.211	0.003
-481.376	152.425	0.098	-0.133
-480.362	800.000	0.088	0.259
-479.347	9.571	0.138	-0.105
-478.332	280.935	-0.127	0.227
-477.318	203.238	-0.118	-0.181
-476.303	104.435	-0.104	0.122
-475.289	307.530	-0.101	-0.188
-474.274	800.000	0.019	0.078
-473.259	800.000	-0.036	-0.149
-472.245	-200.000	-0.049	-0.222
-471.230	-117.441	-0.315	-0.057
-470.216	-200.000	0.034	-0.155
-469.201	176.261	-0.105	0.152
-468.186	349.847	0.064	0.125
-467.172	262.411	-0.018	0.031
-466.157	-200.000	0.002	-0.138
-465.143	-200.000	0.032	-0.436
-464.128	533.444	0.107	0.253
-463.113	220.405	0.153	-0.244
-462.099	800.000	-0.238	-0.754
-461.084	-104.456	0.397	0.091
-460.070	-48.129	-0.106	-0.051
-459.055	330.153	0.096	-0.184
-458.040	-85.949	-0.419	-0.129
-457.026	136.728	-0.114	-0.148
-456.011	-80.245	0.584	0.195
-454.997	-127.390	0.396	0.057
-453.982	-78.520	-0.207	0.071
-452.968	54.754	-0.232	-0.223
-451.953	-14.101	-0.176	0.113
-450.938	380.055	-0.049	-0.101
-449.924	286.555	0.070	0.126
-448.909	374.798	-0.102	-0.206
-447.895	-46.283	0.296	-0.145
-446.880	87.964	0.099	-0.110
-445.865	-160.758	-0.287	-0.015
-444.851	-84.402	-0.205	0.065
-443.836	-17.151	0.191	0.120
-442.822	287.686	-0.102	0.183
-441.807	-200.000	-0.028	0.256
-440.792	-200.000	0.018	0.115
-439.778	-134.898	0.171	-0.021
-438.763	-106.694	-0.242	-0.054
-437.749	69.627	-0.099	0.101
-436.734	103.972	0.102	-0.119
-435.719	500.866	0.098	-0.226
-434.705	-200.000	-0.015	0.116
-433.690	800.000	-0.126	0.436
-432.676	-200.000	-0.027	0.362
-431.661	-183.752	0.333	-0.006
-430.646	-95.187	0.145	-0.039
-429.632	-64.801	0.108	0.043
-428.617	-200.000	0.066	-0.294
-427.603	-34.482	0.177	0.096
-426.588	-200.000	0.012	0.359
-425.573	696.049	0.042	-0.109
-424.559	172.149	0.112	-0.161
-423.544	133.545	-0.108	0.139
-422.530	-68.310	-0.192	-0.074
-421.515	-103.338	-0.303	-0.071
-420.500	-86.442	-0.400	0.122
-419.486	8.100	-0.243	-0.181
-418.471	-200.000	0.034	-0.183
-417.457	800.000	-0.031	0.118
-416.442	800.000	-0.058	0.191
-415.428	273.942	-0.076	-0.135
-414.413	-169.317	-0.209	-0.008
-413.398	-200.000	-0.045	-0.355
-412.384	303.738	0.084	-0.156
-411.369	800.000	-0.045	0.162
-410.355	-200.000	0.025	-0.324
-409.340	-108.423	-0.024	-0.005
-408.325	-132.535	-0.024	0.003
-407.311	282.505	-0.123	-0.219
-406.296	-152.229	0.051	-0.004
-405.282	79.040	0.089	-0.095
-404.267	544.272	-0.019	-0.044
-403.252	10.906	-0.318	0.241
-402.238	188.168	-0.052	-0.077
-401.223	-40.770	-0.360	-0.186
-400.209	-200.000	0.103	0.462
-399.194	153.352	0.199	-0.271
-398.179	-200.000	-0.001	-0.072
-397.165	9.616	0.213	-0.160
-396.150	238.709	-0.120	-0.199
-395.136	653.616	-0.029	0.074
-394.121	89.667	-0.055	-0.061
-393.106	61.930	-0.061	0.061
-392.092	-200.000	0.004	0.199
-391.077	7.735	-0.201	-0.149
-390.063	-79.633	-0.031	0.010
-389.048	800.000	-0.057	-0.203
-388.033	158.088	-0.075	0.104
-387.019	-104.952	0.373	-0.085
-386.004	294.596	-0.080	0.146
-384.990	-64.153	-0.222	0.090
-383.975	340.377	-0.139	0.269
-382.960	-186.047	0.060	0.001
-381.946	293.813	0.026	-0.048
-380.931	-200.000	0.319	-0.001
-379.917	800.000	-0.065	0.282
-378.902	-139.981	-0.292	0.031
-377.888	800.000	-0.048	0.183
-376.873	149.526	-0.102	-0.137
-375.858	-52.832	-0.163	-0.075
-374.844	47.827	0.086	-0.080
-373.829	-200.000	0.067	0.294
-372.815	-200.000	-0.046	-0.265
-371.800	-98.552	-0.138	-0.035
-370.785	-131.632	0.246	-0.032
-369.771	197.928	0.120	0.182
-368.756	35.673	-0.077	0.067
-367.742	749.616	0.066	-0.177
-366.727	-200.000	-0.079	-0.355
-365.712	-85.641	0.243	-0.075
-364.698	800.000	0.083	0.280
-363.683	-44.423	-0.127	0.063
-362.669	70.363	-0.185	-0.190
-361.654	126.534	-0.131	-0.164
-360.639	105.569	0.190	-0.223
-359.625	124.833	0.170	0.213
-358.610	-200.000	0.025	-0.158
-357.596	-200.000	0.034	0.159
-356.581	165.898	0.104	0.146
-355.566	8.805	0.020	-0.015
-354.552	-134.242	0.283	-0.035
-353.537	-53.754	0.277	-0.125
-352.523	323.704	0.129	0.245
-351.508	-126.804	0.076	0.011
-350.493	-74.993	-0.020	0.007
-349.479	236.846	0.196	-0.322
-348.464	55.387	0.026	-0.025
-347.450	-200.000	-0.008	-0.323
-346.435	-41.897	-0.142	-0.072
-345.420	-155.262	0.190	-0.012
-344.406	550.552	0.013	0.031
-343.391	-200.000	0.266	-0.000
-342.377	800.000	0.058	0.192
-341.362	-200.000	0.024	-0.203
-340.348	-56.200	0.300	0.132
-339.333	-88.969	-0.253	0.074
-338.318	-30.466	-0.243	0.137
-337.304	60.020	-0.080	-0.078
-336.289	-167.696	-0.121	0.005
-335.275	-200.000	-0.009	-0.096
-334.260	-88.720	0.341	-0.101
-333.245	-134.712	0.212	0.026
-332.231	800.000	-0.083	0.233
-331.216	15.852	0.156	-0.122
-330.202	256.368	0.124	-0.211
-329.187	82.144	-0.094	0.101
-328.172	-7.465	0.042	0.028
-327.158	296.143	-0.181	-0.330
-326.143	-51.223	0.149	-0.069
-325.129	50.237	-0.218	0.205
-324.114	-140.717	0.233	0.024
-323.099	-147.380	0.381	-0.032
-322.085	309.124	-0.173	-0.321
-321.070	96.897	-0.031	0.035
-320.056	80.899	-0.125	0.133
-319.041	-200.000	-0.009	-0.063
-318.026	-117.721	0.229	0.041
-317.012	800.000	0.088	-0.302
-315.997	11.253	-0.142	0.108
-314.983	51.997	0.248	-0.234
-313.968	-66.194	0.185	-0.073
-312.953	32.661	-0.088	0.075
-311.939	-200.000	0.024	-0.141
-310.924	35.012	0.241	-0.209
-309.910	-145.799	-0.130	-0.011
-308.895	-200.000	0.032	0.142
-307.880	-200.000	-0.069	0.425
-306.866	-50.252	-0.278	-0.130
-305.851	-113.198	0.263	-0.051
-304.837	461.626	-0.061	0.135
-303.822	-145.236	0.149	0.013
-302.807	-121.065	0.296	-0.049
-301.793	-6.553	0.036	0.024
-300.778	-49.765	-0.278	-0.131
-299.764	800.000	0.135	0.415
-298.749	-79.703	0.277	-0.092
-297.735	-195.396	0.325	-0.002
-296.720	-68.337	-0.151	0.058
-295.705	-188.184	0.364	0.005
-294.691	234.582	-0.156	-0.255
-293.676	-200.000	0.012	0.116
-292.662	-78.857	0.196	0.066
-291.647	731.703	-0.062	0.163
-290.632	340.162	-0.125	-0.242
-289.618	-200.000	0.012	0.082
-288.603	60.270	0.257	-0.251
-287.589	-55.178	-0.246	0.110
-286.574	-72.498	-0.227	-0.083
-285.559	586.251	0.127	0.309
-284.545	-79.887	-0.062	0.021
-283.530	-71.159	0.087	0.033
-282.516	-132.997	-0.173	-0.022
-281.501	281.965	0.163	0.290
-280.486	-21.445	0.243	-0.147
-279.472	800.000	-0.043	0.150
-278.457	800.000	-0.075	0.218
-277.443	199.046	0.214	-0.324
-276.428	8.042	0.082	0.061
-275.413	-200.000	0.033	0.175
-274.399	-93.999	0.194	0.053
-273.384	-26.203	0.274	0.159
-272.370	76.615	-0.210	-0.220
-271.355	565.955	-0.139	0.333
-270.340	93.297	0.312	-0.349
-269.326	154.932	-0.185	-0.252
-268.311	-200.000	0.026	0.321
-267.297	-73.615	0.276	-0.100
-266.282	-200.000	0.026	-0.124
-265.267	177.714	0.132	0.190
-264.253	-170.984	0.179	-0.006
-263.238	800.000	-0.043	-0.137
-262.224	133.762	0.097	-0.124
-261.209	99.887	0.105	0.120
-260.195	-55.763	0.190	-0.084
-259.180	367.402	-0.117	0.233
-258.165	-33.495	-0.060	-0.033
-257.151	-200.000	-0.011	0.069
-256.136	-159.663	0.115	-0.006
-255.122	93.976	0.052	-0.058
-254.107	-200.000	-0.052	-0.325
-253.092	-200.000	-0.036	0.348
-252.078	800.000	0.119	-0.373
-251.063	-144.284	-0.053	-0.005
-250.049	800.000	-0.053	0.186
-249.034	-23.295	0.217	-0.129
-248.019	-52.148	-0.194	0.089
-247.005	800.000	-0.083	-0.354
-245.990	-200.000	-0.008	0.113
-244.976	265.398	-0.124	-0.213
-243.961	-79.490	0.337	0.113
-242.946	118.392	-0.084	-0.103
-241.932	468.391	0.131	0.292
-240.917	107.772	-0.047	-0.056
-239.903	-200.000	0.045	-0.505
-238.888	800.000	0.024	-0.096
-237.873	222.654	-0.127	0.203
-236.859	-200.000	-0.107	0.000
-235.844	-166.092	0.302	-0.013
-234.830	-76.497	-0.282	-0.098
-233.815	-200.000	-0.016	-0.080
-232.800	73.012	0.139	0.143
-231.786	104.418	0.350	0.407
-230.771	28.531	-0.263	-0.220
-229.757	483.185	-0.059	0.133
-228.742	89.763	-0.128	-0.141
-227.727	-42.011	-0.357	-0.180
-226.713	-104.890	0.128	-0.029
-225.698	-200.000	-0.106	0.608
-224.684	232.856	-0.160	-0.259
-223.669	-200.000	-0.004	-0.133
-222.655	334.526	0.111	0.213
-221.640	-111.454	0.314	0.063
-220.625	-200.000	0.022	0.222
-219.611	17.605	-0.196	0.154
-218.596	-200.000	0.042	0.367
-217.582	-57.025	-0.224	0.098
-216.567	-78.158	-0.146	0.049
-215.552	-134.247	0.172	0.021
-214.538	35.366	-0.220	0.190
-213.523	95.543	-0.071	-0.080
-212.509	91.058	-0.339	-0.375
-211.494	-94.615	-0.373	0.100
-210.479	-200.000	-0.030	0.194
-209.465	800.000	0.085	0.246
-208.450	514.204	0.091	0.209
-207.436	-108.004	0.169	0.036
-206.421	-200.000	-0.001	0.153
-205.406	-22.760	-0.059	0.035
-204.392	-95.399	0.279	-0.074
-203.377	-150.500	-0.164	-0.012
-202.363	-200.000	-0.030	-0.199
-201.348	-73.666	0.218	-0.078
-200.333	144.109	-0.177	0.233
-199.319	118.585	0.033	0.040
-198.304	129.701	0.206	0.260
-197.290	394.071	-0.162	-0.332
-196.275	-200.000	0.020	0.257
-195.260	68.812	0.141	0.143
-194.246	212.307	0.084	-0.131
-193.231	206.603	-0.232	-0.357
-192.217	13.026	0.267	-0.204
-191.202	-38.353	0.153	0.080
-190.187	-77.878	-0.037	-0.013
-189.173	131.964	0.178	0.225
-188.158	-15.686	-0.076	0.048
-187.144	47.710	-0.206	0.189
-186.129	-200.000	-0.006	-0.040
-185.114	-131.066	0.149	-0.020
-184.100	-78.804	-0.246	0.083
-183.085	31.219	0.054	0.046
-182.071	-40.489	-0.182	0.093
-181.056	-91.198	0.479	0.135
-180.042	19.993	0.390	0.310
-179.027	175.730	0.250	-0.357
-178.012	-59.358	0.190	-0.081
-176.998	-200.000	0.016	-0.346
-175.983	-125.265	-0.431	-0.065
-174.969	800.000	-0.048	0.154
-173.954	258.581	0.063	-0.107
-172.939	-111.076	-0.332	-0.067
-171.925	-200.000	0.058	0.355
-170.910	-58.567	0.232	-0.099
-169.896	-97.617	-0.147	0.038
-168.881	-128.226	-0.112	-0.016
-167.866	-53.432	-0.178	0.080
-166.852	129.687	0.246	0.310
-165.837	215.281	-0.120	-0.188
-164.823	44.141	0.358	0.324
-163.808	528.644	-0.079	0.183
-162.793	-67.959	0.277	-0.107
-161.779	521.958	-0.068	-0.156
-160.764	245.994	-0.085	-0.142
-159.750	800.000	-0.047	0.134
-158.735	-91.957	0.318	-0.089
-157.720	-93.970	-0.436	-0.118
-156.706	-13.018	-0.213	-0.137
-155.691	-2.736	0.397	0.273
-154.677	-62.397	-0.347	0.142
-153.662	-187.967	0.152	-0.002
-152.647	-119.048	0.124	-0.021
-151.633	-54.839	0.215	0.095
-150.618	-120.736	0.174	-0.029
-149.604	800.000	0.064	0.224
-148.589	95.172	0.157	-0.176
-147.574	123.682	-0.158	-0.195
-146.560	800.000	0.068	-0.191
-145.545	250.665	0.025	-0.041
-144.531	18.578	-0.045	-0.036
-143.516	3.326	-0.114	0.082
-142.502	-200.000	0.043	-0.414
-141.487	423.221	0.135	-0.285
-140.472	-200.000	-0.034	0.183
-139.458	-99.891	-0.465	0.114
-138.443	-4.971	-0.265	-0.179
-137.429	50.608	-0.116	-0.108
-136.414	36.483	0.285	0.247
-135.399	745.783	-0.085	0.225
-134.385	-153.680	0.310	-0.021
-133.370	-83.616	0.240	-0.076
-132.356	-38.268	-0.072	-0.038
-131.341	165.874	0.144	-0.201
-130.326	-200.000	-0.009	0.046
-129.312	-141.996	0.094	-0.009
-128.297	-200.000	-0.007	0.498
-127.283	-129.965	0.102	0.014
-126.268	-200.000	-0.029	-0.144
-125.253	800.000	-0.037	0.135
-124.239	-137.296	0.104	0.012
-123.224	644.993	0.004	0.010
-122.210	-200.000	-0.024	-0.165
-121.195	-145.526	0.160	-0.014
-120.180	-93.118	0.187	0.051
-119.166	123.865	-0.168	-0.207
-118.151	-37.292	0.219	0.115
-117.137	-58.481	0.243	-0.104
-116.122	363.604	0.080	-0.157
-115.107	-40.400	0.403	-0.206
-114.093	49.928	0.300	-0.278
-113.078	-143.361	-0.307	0.029
-112.064	19.461	-0.167	-0.132
-111.049	86.506	-0.124	-0.135
-110.034	17.746	-0.186	-0.145
-109.020	-102.010	-0.183	-0.043
-108.005	351.061	-0.167	0.324
-106.991	-49.449	0.203	0.095
-105.976	195.357	-0.096	0.143
-104.962	-20.849	0.130	0.079
-103.947	-41.985	0.260	0.131
-102.932	-44.828	0.236	-0.116
-101.918	69.234	-0.129	-0.131
-100.903	800.000	-0.105	-0.289
-99.889	121.876	-0.093	0.114
-98.874	-64.894	-0.189	0.075
-97.859	-116.184	0.169	0.031
-96.845	800.000	0.041	0.123
-95.830	-200.000	-0.035	-0.289
-94.816	-64.801	-0.141	0.056
-93.801	-200.000	-0.003	0.238
-92.786	31.756	-0.113	0.096
-91.772	800.000	0.103	0.317
-90.757	-200.000	-0.002	-0.124
-89.743	-200.000	0.102	-0.509
-88.728	82.219	0.157	0.168
-87.713	-200.000	-0.014	-0.236
-86.699	-200.000	0.053	-0.274
-85.684	240.128	-0.168	0.275
-84.670	118.120	0.298	-0.360
-83.655	760.927	-0.105	0.280
-82.640	-83.546	-0.223	-0.070
-81.626	29.274	0.141	0.118
-80.611	800.000	0.061	-0.220
-79.597	205.312	0.150	-0.229
-78.582	22.474	-0.212	0.170
-77.567	-84.912	0.205	0.063
-76.553	800.000	-0.026	0.096
-75.538	-64.920	-0.142	0.056
-74.524	-200.000	0.076	-0.370
-73.509	-200.000	-0.003	0.052
-72.494	-53.463	-0.326	0.147
-71.480	104.216	-0.064	0.073
-70.465	29.348	-0.062	0.052
-69.451	-66.255	0.102	0.040
-68.436	-139.427	0.234	-0.025
-67.422	646.468	0.087	-0.219
-66.407	109.193	-0.141	-0.165
-65.392	800.000	-0.068	-0.231
-64.378	95.898	-0.147	0.164
-63.363	-198.655	0.229	0.001
-62.349	602.198	0.031	0.075
-61.334	192.787	-0.867	-1.284
-60.319	-16.198	0.854	0.532
-59.305	800.000	-0.369	-1.024
-58.290	161.406	0.734	1.008
-57.276	800.000	0.387	1.560
-56.261	-200.000	112.554	612.122
-55.246	435.956	1518.630	3241.424
-54.232	144.508	2689.044	3522.014
-53.217	102.839	2163.914	2484.455
-52.203	39.315	1609.006	1412.561
-51.188	31.343	1353.137	1139.509
-50.173	28.359	1314.607	1089.304
-49.159	53.670	1370.315	1289.767
-48.144	53.212	1385.038	1300.801
-47.130	31.449	1340.570	1129.385
-46.115	28.148	1322.685	1094.559
-45.100	27.822	1318.008	1088.703
-44.086	27.758	1315.896	1086.533
-43.071	27.798	1313.011	1084.350
-42.057	27.776	1311.202	1082.677
-41.042	27.843	1309.228	1081.403
-40.027	27.845	1307.415	1079.874
-39.013	27.702	1306.236	1078.017
-37.998	27.889	1304.096	1077.310
-36.984	27.889	1302.554	1075.990
-35.969	27.943	1300.685	1074.723
-34.954	27.894	1298.638	1072.701
-33.940	27.917	1297.266	1071.660
-32.925	27.980	1295.918	1070.876
-31.911	27.955	1294.521	1069.528
-30.896	28.031	1293.222	1068.862
-29.881	28.113	1292.288	1068.524
-28.867	28.104	1290.418	1066.880
-27.852	28.105	1289.255	1065.883
-26.838	28.101	1287.928	1064.719
-25.823	28.011	1286.622	1063.077
-24.809	27.972	1285.248	1061.670
-23.794	27.920	1284.269	1060.521
-22.779	27.953	1282.652	1059.336
-21.765	28.078	1281.122	1058.753
-20.750	28.061	1279.991	1057.677
-19.736	28.027	1278.370	1056.097
-18.721	27.918	1277.560	1054.759
-17.706	27.896	1276.228	1053.492
-16.692	27.941	1274.898	1052.608
-15.677	27.845	1274.119	1051.371
-14.663	27.934	1272.740	1050.703
-13.648	27.773	1272.102	1049.212
-12.633	27.857	1270.947	1048.701
-11.619	27.872	1270.393	1048.286
-10.604	27.853	1269.394	1047.311
-9.590	27.928	1267.944	1046.503
-8.575	27.855	1267.547	1045.714
-7.560	27.879	1266.723	1045.129
-6.546	27.913	1265.278	1044.092
-5.531	27.986	1264.530	1043.851
-4.517	27.861	1264.022	1042.678
-3.502	27.801	1263.280	1041.681
-2.487	27.907	1262.343	1041.468
-1.473	27.811	1258.153	1037.425
-0.458	26.874	1243.045	1019.663
0.556	22.538	1227.616	986.681
1.571	19.408	1234.871	974.762
2.586	18.682	1249.629	982.170
3.600	18.735	1239.095	974.104
4.615	17.033	1172.229	912.317
5.629	13.516	1104.752	841.874
6.644	11.801	1087.917	820.382
7.659	11.680	1085.738	818.061
8.673	11.666	1084.777	817.194
9.688	11.563	1083.295	815.492
10.702	11.825	1081.064	815.044
11.717	14.002	1083.826	827.912
12.731	17.108	1087.154	845.880
13.746	18.130	1088.292	851.783
14.761	17.733	1086.621	848.424
15.775	16.687	1085.042	841.917
16.790	15.541	1082.959	834.536
17.804	14.916	1080.627	829.568
18.819	14.377	1079.860	826.230
19.834	14.226	1078.670	824.500
20.848	13.825	1078.280	822.142
21.863	13.729	1077.094	820.691
22.877	13.574	1076.395	819.320
23.892	13.580	1075.797	818.822
24.907	13.545	1074.943	817.926
25.921	13.507	1074.032	816.973
26.936	13.583	1072.648	816.222
27.950	13.585	1071.464	815.256
28.965	13.712	1069.644	814.427
29.980	13.776	1068.321	813.661
30.994	13.741	1066.895	812.332
32.009	13.695	1066.393	811.652
33.023	13.708	1065.322	810.827
34.038	13.691	1064.053	809.707
35.053	13.629	1062.813	808.389
36.067	13.645	1062.290	807.998
37.082	13.681	1061.399	807.423
38.096	13.681	1060.324	806.535
39.111	13.724	1059.934	806.376
40.126	13.762	1058.498	805.396
41.140	13.538	1057.285	803.316
42.155	13.514	1056.062	802.199
43.169	13.457	1055.136	801.151
44.184	13.400	1054.089	800.008
45.199	13.490	1052.804	799.396
46.213	13.570	1051.886	799.017
47.228	13.677	1050.836	798.665
48.242	13.658	1049.567	797.536
49.257	13.503	1049.136	796.390
50.271	13.735	1047.937	796.525
51.286	13.642	1047.174	795.430
52.301	13.762	1045.598	794.739
53.315	13.575	1045.028	793.340
54.330	13.599	1043.991	792.596
55.344	13.506	1043.360	791.604
56.359	13.584	1042.266	791.075
57.374	13.611	1041.228	790.345
58.388	13.627	1040.214	789.583
59.403	13.565	1039.298	788.524
60.417	13.607	1038.668	788.174
61.432	13.423	1038.145	786.832
62.447	13.334	1037.827	786.097
63.461	13.425	1036.332	785.330
64.476	13.438	1035.257	784.508
65.490	13.363	1034.915	783.820
66.505	13.457	1034.150	783.618
67.520	13.625	1033.069	783.525
68.534	13.439	1032.740	782.327
69.549	13.406	1032.170	781.670
70.563	13.428	1030.972	780.796
71.578	13.278	1030.342	779.545
72.593	13.345	1028.984	778.761
73.607	13.268	1028.885	778.254
74.622	13.280	1028.024	777.592
75.636	13.320	1027.582	777.376
76.651	13.435	1026.183	776.788
77.666	13.424	1025.933	776.478
78.680	13.266	1025.800	775.569
79.695	13.377	1024.815	775.276
80.709	13.410	1024.452	775.087
81.724	13.442	1023.625	774.546
82.739	13.688	1022.315	774.634
83.753	13.739	1021.475	774.168
84.768	13.787	1021.047	773.998
85.782	13.758	1019.900	772.924
86.797	13.768	1019.021	772.235
87.812	13.649	1018.388	771.136
88.826	13.652	1017.348	770.294
89.841	13.639	1016.341	769.404
90.855	13.820	1015.274	769.364
91.870	13.757	1014.742	768.603
92.884	13.691	1013.956	767.631
93.899	13.886	1012.947	767.704
94.914	13.808	1012.119	766.648
95.928	13.927	1011.112	766.365
96.943	13.846	1010.279	765.295
97.957	13.690	1009.820	764.158
98.972	13.684	1008.562	763.112
99.987	13.832	1007.408	762.850
101.001	13.798	1006.743	762.125
102.016	13.787	1005.577	761.123
103.030	13.731	1005.286	760.581
104.045	13.745	1004.266	759.805
105.060	13.718	1003.479	759.017
106.074	13.587	1002.587	757.676
107.089	13.542	1001.810	756.819
108.103	13.688	1000.081	756.108
109.118	13.489	999.592	754.766
110.133	13.506	998.974	754.310
111.147	13.447	998.084	753.306
112.162	13.572	997.161	753.110
113.176	13.601	996.337	752.552
114.191	13.665	995.579	752.204
115.206	13.626	994.419	751.081
116.220	13.455	994.392	750.222
117.235	13.678	992.924	750.058
118.249	13.633	992.059	749.133
119.264	13.551	991.288	748.115
120.279	13.500	990.362	747.119
121.293	13.586	989.385	746.706
122.308	13.548	988.829	746.048
123.322	13.424	987.755	744.612
124.337	13.402	986.439	743.457
125.352	13.518	985.174	742.957
126.366	13.574	983.915	742.192
127.381	13.554	982.900	741.273
128.395	13.485	982.296	740.444
129.410	13.598	981.576	740.341
130.424	13.574	980.772	739.561
131.439	13.610	979.997	739.071
132.454	13.723	978.980	738.742
133.468	13.714	978.297	738.122
134.483	13.792	977.318	737.663
135.497	13.665	976.522	736.432
136.512	13.474	976.575	735.561
137.527	13.687	974.982	735.239
138.541	13.643	974.176	734.371
139.556	13.660	973.491	733.864
140.570	13.744	973.107	733.885
141.585	13.850	972.130	733.550
142.600	13.971	971.003	733.169
143.614	13.822	970.325	731.936
144.629	13.912	969.552	731.683
145.643	13.831	968.694	730.615
146.658	13.692	967.515	729.048
147.673	13.731	966.871	728.670
148.687	13.770	965.698	727.895
149.702	13.804	964.864	727.350
150.716	13.769	963.983	726.468
151.731	13.690	963.578	725.751
152.746	13.795	962.808	725.569
153.760	13.838	962.278	725.290
154.775	13.920	961.444	724.959
155.789	13.901	960.805	724.329
156.804	13.833	960.078	723.421
157.819	13.926	959.789	723.544
158.833	13.999	958.990	723.195
159.848	13.964	958.302	722.461
160.862	13.957	957.087	721.449
161.877	13.874	956.542	720.614
162.892	13.835	955.054	719.260
163.906	13.785	954.159	718.306
164.921	13.911	953.363	718.188
165.935	13.830	952.869	717.403
166.950	13.837	951.599	716.413
167.964	13.962	951.114	716.524
168.979	13.917	950.491	715.799
169.994	13.916	949.260	714.803
171.008	13.997	948.493	714.512
172.023	14.121	947.637	714.333
173.037	14.065	947.358	713.821
174.052	13.986	946.522	712.788
175.067	13.982	945.620	712.031
176.081	13.969	945.101	711.521
177.096	14.016	944.185	710.970
178.110	14.013	944.160	710.873
179.125	14.021	943.426	710.294
180.140	13.991	942.996	709.779
181.154	14.041	942.629	709.654
182.169	14.087	942.336	709.565
183.183	14.202	941.295	709.209
184.198	14.182	940.583	708.522
185.213	14.276	939.620	708.135
186.227	14.086	939.311	707.035
187.242	14.155	938.582	706.714
188.256	14.272	937.669	706.463
189.271	14.334	936.753	705.971
190.286	14.193	936.087	704.808
191.300	13.999	935.628	703.582
192.315	13.940	934.920	702.738
193.329	14.063	934.639	702.982
194.344	14.113	933.541	702.307
195.359	14.217	932.994	702.269
196.373	14.153	932.319	701.433
197.388	14.281	932.421	701.986
198.402	14.348	931.841	701.769
199.417	14.389	930.568	700.921
200.432	14.413	930.690	701.052
201.446	14.333	930.083	700.197
202.461	14.608	929.337	700.728
203.475	14.633	928.434	700.090
204.490	14.497	927.947	699.092
205.504	14.423	927.297	698.229
206.519	14.352	926.588	697.335
207.534	14.452	925.285	696.713
208.548	14.497	924.852	696.512
209.563	14.420	924.948	696.201
210.577	14.504	923.491	695.392
211.592	14.634	923.030	695.527
212.607	14.667	922.253	695.016
213.621	14.562	921.740	694.132
214.636	14.581	920.998	693.588
215.650	14.684	920.230	693.380
216.665	14.677	919.272	692.567
217.680	14.734	918.785	692.373
218.694	14.752	918.256	691.987
219.709	14.781	917.355	691.369
220.723	14.775	916.728	690.809
221.738	14.681	916.065	689.859
222.753	14.723	915.734	689.725
223.767	14.681	915.114	689.024
224.782	14.859	914.268	689.059
225.796	14.747	913.917	688.271
226.811	14.788	913.171	687.819
227.826	14.858	912.084	687.225
228.840	14.798	911.285	686.316
229.855	14.837	910.788	686.042
230.869	14.728	910.359	685.211
231.884	14.721	909.462	684.445
232.899	14.693	908.854	683.815
233.913	14.752	908.158	683.470
234.928	14.801	907.553	683.153
235.942	14.851	906.750	682.693
236.957	14.722	906.120	681.635
237.972	14.664	905.621	680.962
238.986	14.829	904.770	680.933
240.001	14.818	904.285	680.463
241.015	14.789	903.614	679.780
242.030	14.882	902.993	679.630
243.045	14.945	902.295	679.300
244.059	14.842	902.032	678.623
245.074	14.973	901.265	678.521
246.088	14.957	900.939	678.150
247.103	15.018	900.072	677.682
248.117	15.003	899.667	677.256
249.132	15.216	898.924	677.501
250.147	15.131	898.076	676.458
251.161	15.222	897.576	676.389
252.176	15.192	897.023	675.790
253.190	15.193	896.152	675.078
254.205	15.251	895.784	674.974
255.220	15.352	895.254	674.921
256.234	15.409	894.186	674.288
257.249	15.321	893.564	673.405
258.263	15.354	893.099	673.126
259.278	15.427	892.132	672.632
260.293	15.475	891.422	672.227
261.307	15.456	890.988	671.768
262.322	15.448	890.645	671.416
263.336	15.600	889.697	671.249
264.351	15.526	888.992	670.364
265.366	15.474	888.524	669.741
266.380	15.572	887.882	669.590
267.395	15.468	887.695	668.974
268.409	15.411	886.443	667.745
269.424	15.429	885.570	667.102
270.439	15.511	884.748	666.749
271.453	15.559	883.813	666.177
272.468	15.576	883.486	665.938
273.482	15.411	883.276	665.067
274.497	15.453	882.796	664.811
275.512	15.486	881.986	664.272
276.526	15.447	881.726	663.867
277.541	15.618	880.995	663.932
278.555	15.626	880.318	663.393
279.570	15.647	879.785	663.018
280.585	15.710	878.714	662.399
281.599	15.721	878.109	661.927
282.614	15.619	877.535	661.034
283.628	15.693	876.730	660.661
284.643	15.630	876.296	660.029
285.657	15.794	875.385	659.926
286.672	15.721	875.244	659.476
287.687	15.781	874.349	658.978
288.701	15.807	873.624	658.474
289.716	15.724	873.157	657.739
290.730	15.846	872.700	657.815
291.745	15.828	872.052	657.200
292.760	15.906	871.419	656.968
293.774	15.815	871.055	656.278
294.789	15.987	869.890	656.013
295.803	15.749	869.327	654.606
296.818	15.966	868.487	654.757
297.833	15.856	868.057	653.949
298.847	15.825	867.761	653.546
299.862	15.904	866.774	653.054
300.876	15.980	866.540	653.115
301.891	15.848	866.351	652.401
302.906	15.922	865.504	651.994
303.920	16.188	864.598	652.282
304.935	15.968	864.292	651.141
305.949	16.043	863.889	651.068
306.964	15.969	863.196	650.204
307.979	16.192	862.511	650.490
308.993	16.126	861.803	649.644
310.008	16.030	861.507	648.995
311.022	16.152	860.706	648.805
312.037	15.979	860.495	647.921
313.052	16.000	859.434	647.147
314.066	16.017	858.822	646.694
315.081	16.052	858.497	646.527
316.095	16.195	857.369	646.165
317.110	15.883	857.031	644.659
318.125	16.039	856.697	644.949
319.139	16.234	856.099	645.185
320.154	16.063	856.024	644.420
321.168	16.263	855.101	644.430
322.183	16.192	854.469	643.628
323.197	16.287	853.908	643.509
324.212	16.310	853.292	643.078
325.227	16.355	852.762	642.790
326.241	16.242	852.081	641.791
327.256	16.267	851.582	641.455
328.270	16.220	851.387	641.072
329.285	16.301	850.164	640.402
330.300	16.173	849.843	639.618
331.314	16.361	849.315	639.876
332.329	16.388	849.152	639.800
333.343	16.270	848.580	638.865
334.358	16.352	848.041	638.712
335.373	16.447	847.846	638.867
336.387	16.400	846.994	637.993
337.402	16.495	846.928	638.246
338.416	16.494	846.768	638.063
339.431	16.473	846.640	637.831
340.446	16.473	846.009	637.298
341.460	16.593	845.473	637.292
342.475	16.559	845.070	636.802
343.489	16.618	844.542	636.572
344.504	16.659	844.123	636.355
345.519	16.764	843.563	636.269
346.533	16.734	843.009	635.684
347.548	16.677	842.693	635.175
348.562	16.604	841.823	634.187
349.577	16.666	841.404	634.051
350.592	16.570	840.739	633.134
351.606	16.530	840.044	632.402
352.621	16.553	839.627	632.119
353.635	16.552	838.894	631.508
354.650	16.621	838.305	631.266
355.665	16.542	837.500	630.310
356.679	16.707	836.939	630.448
357.694	16.826	835.903	630.053
358.708	16.664	836.049	629.506
359.723	16.854	835.004	629.368
360.738	16.751	834.582	628.610
361.752	16.820	833.844	628.255
362.767	16.968	833.255	628.306
363.781	16.829	833.156	627.661
364.796	16.974	832.354	627.536
365.810	16.992	832.139	627.384
366.825	17.085	832.137	627.674
367.840	17.009	831.272	626.684
368.854	16.843	830.918	625.749
369.869	16.907	830.348	625.500
370.883	17.064	829.865	625.659
371.898	17.079	829.479	625.368
372.913	17.011	829.295	624.926
373.927	17.068	828.443	624.435
374.942	17.192	827.922	624.444
375.956	17.231	827.880	624.500
376.971	17.197	827.117	623.745
377.986	17.255	826.539	623.467
379.000	17.265	826.072	623.095
380.015	17.192	825.808	622.575
381.029	17.266	825.370	622.460
382.044	17.358	824.458	622.052
383.059	17.358	824.010	621.660
384.073	17.293	823.402	620.908
385.088	17.186	822.738	619.962
386.102	17.264	822.152	619.752
387.117	17.144	821.777	618.976
388.132	17.300	821.295	619.127
389.146	17.199	820.808	618.336
390.161	17.349	819.863	618.116
391.175	17.357	819.634	617.917
392.190	17.328	819.281	617.490
393.205	17.353	818.501	616.938
394.219	17.410	818.341	616.969
395.234	17.327	817.701	616.135
396.248	17.235	817.858	615.864
397.263	17.245	817.073	615.256
398.278	17.344	816.518	615.141
399.292	17.235	816.263	614.501
400.307	17.318	815.705	614.324
401.321	17.352	815.421	614.180
402.336	17.442	814.690	613.900
403.350	17.604	813.862	613.803
404.365	17.518	813.685	613.306
405.380	17.563	813.280	613.108
406.394	17.726	812.604	613.130
407.409	17.701	812.158	612.651
408.423	17.703	812.163	612.606
409.438	17.818	811.751	612.656
410.453	17.635	811.302	611.605
411.467	17.786	810.992	611.859
412.482	17.676	810.747	611.227
413.496	17.772	810.357	611.221
414.511	17.719	809.870	610.610
415.526	17.701	809.360	610.107
416.540	17.773	808.503	609.665
417.555	17.797	808.347	609.578
418.569	17.882	807.661	609.310
419.584	17.876	807.603	609.192
420.599	17.800	806.854	608.304
421.613	110.719	1294.201	1474.279
422.628	95.534	1365.189	1474.381
