DTS Sentinel unit serial number:	SN413079Multiplexer serial number:	ORYXHardware model number:	OX4-SRSoftware version number:	ORYX F/W v4.00 Oryx Data Collector v3.7.2.0data status	okinstallation	princeton_trtdifferential loss correction	single-endedforward channel	channel 1reverse channel	N/Adate	2019/09/12time	17:56:11forward acquisition time	60.00reverse acquisition time	0.00gamma	496.2192k internal	0.2318k external	0.2318temperature offset calibration	1.0101default loss term (dB/km)	0.3790temperature slope calibration	1.0000multiplexer offset coefficient	1.0000multiplexer slope coefficient	1.0000fibre end	0.00T internal ref (°C)	33.92T ext. ref 1 (°C)	2.89T ext. ref 2 (°C)	28.26length (m)	temperature (°C)	Stokes	anti-Stokes-747.200	210.211	-0.038	0.060
-746.185	-46.996	-0.128	-0.063
-745.171	220.850	-0.134	0.218
-744.156	55.144	-0.112	0.109
-743.142	-101.433	0.367	-0.091
-742.127	-24.500	-0.107	-0.065
-741.112	62.283	-0.064	-0.065
-740.098	191.551	0.075	0.115
-739.083	-119.259	0.093	-0.016
-738.069	727.405	0.033	0.089
-737.054	-123.523	-0.221	-0.035
-736.039	-18.115	-0.303	-0.192
-735.025	-72.049	-0.182	0.068
-734.010	219.293	0.035	-0.056
-732.996	-200.000	0.013	0.071
-731.981	212.774	-0.124	-0.198
-730.966	800.000	0.020	-0.066
-729.952	561.817	0.065	-0.158
-728.937	-94.411	-0.370	-0.102
-727.923	-77.387	0.253	0.089
-726.908	-125.590	-0.246	-0.038
-725.894	-200.000	0.004	0.073
-724.879	-200.000	0.035	0.230
-723.864	512.037	-0.065	0.154
-722.850	1.064	-0.106	-0.077
-721.835	-3.905	-0.294	-0.206
-720.821	-63.164	0.284	-0.118
-719.806	-104.756	0.270	-0.063
-718.791	83.716	-0.050	-0.055
-717.777	-124.979	-0.186	0.029
-716.762	-200.000	-0.037	-0.261
-715.748	-7.073	-0.184	-0.126
-714.733	-81.154	-0.264	-0.088
-713.718	-37.896	0.055	-0.030
-712.704	-127.634	-0.282	0.041
-711.689	211.914	-0.103	-0.164
-710.675	-90.230	-0.158	0.046
-709.660	-93.648	0.341	-0.095
-708.645	-117.227	-0.211	-0.039
-707.631	16.924	-0.058	0.046
-706.616	-119.557	-0.287	-0.050
-705.602	-200.000	-0.001	0.242
-704.587	-81.843	0.253	-0.084
-703.572	-147.681	-0.307	-0.026
-702.558	-30.621	0.364	-0.208
-701.543	-151.905	-0.330	-0.024
-700.529	-200.000	0.029	-0.141
-699.514	-200.000	-0.018	0.190
-698.499	24.901	-0.165	0.138
-697.485	390.493	0.064	0.134
-696.470	294.185	-0.074	0.137
-695.456	7.582	-0.297	-0.225
-694.441	800.000	-0.073	0.262
-693.426	-200.000	0.080	0.438
-692.412	26.129	-0.374	-0.315
-691.397	-121.357	0.364	-0.061
-690.383	-173.612	-0.186	-0.006
-689.368	629.302	0.072	0.185
-688.354	-200.000	-0.018	0.189
-687.339	-108.311	0.093	-0.020
-686.324	-20.558	-0.206	0.128
-685.310	800.000	0.044	0.150
-684.295	491.352	-0.112	0.259
-683.281	247.851	0.046	0.079
-682.266	-200.000	-0.022	0.100
-681.251	-108.800	-0.228	0.049
-680.237	357.885	0.082	0.164
-679.222	800.000	0.063	-0.189
-678.208	118.823	-0.209	-0.260
-677.193	735.588	-0.087	0.234
-676.178	-81.891	0.105	-0.035
-675.164	85.190	0.092	-0.102
-674.149	-61.065	-0.280	0.119
-673.135	503.096	0.086	-0.200
-672.120	-54.734	0.166	0.076
-671.105	313.784	-0.084	0.160
-670.091	108.167	-0.160	-0.193
-669.076	-0.272	0.039	-0.028
-668.062	-110.918	0.174	0.036
-667.047	-200.000	-0.026	-0.229
-666.032	-188.174	-0.219	0.003
-665.018	-92.007	0.209	-0.060
-664.003	-136.041	-0.230	-0.027
-662.989	-49.060	0.330	0.159
-661.974	17.142	-0.286	0.229
-660.959	-116.623	-0.201	-0.037
-659.945	184.111	-0.144	-0.215
-658.930	800.000	-0.044	0.138
-657.916	-20.047	0.093	0.058
-656.901	139.664	0.184	-0.244
-655.886	589.463	-0.213	-0.529
-654.872	-45.089	0.262	-0.132
-653.857	800.000	-0.059	-0.196
-652.843	153.397	0.188	-0.260
-651.828	-87.448	-0.111	-0.034
-650.814	164.816	-0.126	0.180
-649.799	-200.000	0.011	-0.235
-648.784	184.607	0.139	0.208
-647.770	-149.298	-0.268	-0.022
-646.755	-35.263	0.145	0.079
-645.741	-43.246	-0.182	-0.093
-644.726	271.422	-0.037	0.065
-643.711	104.108	-0.074	-0.088
-642.697	-132.548	-0.128	-0.017
-641.682	-124.583	0.257	0.040
-640.668	-2.763	-0.074	-0.052
-639.653	32.961	0.107	0.093
-638.638	301.909	-0.112	0.209
-637.624	98.154	0.128	-0.149
-636.609	-200.000	0.007	-0.181
-635.595	-187.825	0.282	-0.004
-634.580	-23.181	-0.108	-0.066
-633.565	-169.930	0.202	0.007
-632.551	-200.000	0.002	0.030
-631.536	311.367	0.043	0.080
-630.522	-200.000	-0.058	0.324
-629.507	155.446	-0.274	-0.379
-628.492	-161.150	-0.250	0.013
-627.478	343.583	0.074	0.147
-626.463	-200.000	0.013	0.354
-625.449	-59.971	0.254	0.110
-624.434	115.961	0.107	0.132
-623.419	-200.000	0.017	-0.080
-622.405	800.000	-0.057	-0.201
-621.390	70.846	-0.173	0.181
-620.376	-200.000	-0.050	0.234
-619.361	61.352	-0.173	-0.173
-618.346	195.583	-0.226	-0.346
-617.332	112.978	-0.164	-0.200
-616.317	-200.000	0.006	0.257
-615.303	134.220	0.083	0.109
-614.288	156.898	0.148	-0.206
-613.273	263.291	-0.125	0.219
-612.259	756.048	-0.201	-0.549
-611.244	-200.000	-0.025	-0.310
-610.230	471.748	-0.087	-0.198
-609.215	800.000	0.024	0.081
-608.201	28.643	0.181	-0.154
-607.186	556.305	0.020	-0.048
-606.171	156.858	0.209	-0.291
-605.157	-200.000	-0.002	0.135
-604.142	-200.000	0.031	-0.147
-603.128	-129.137	0.269	-0.038
-602.113	-41.657	-0.301	-0.156
-601.098	-57.794	-0.114	0.050
-600.084	-125.594	0.155	0.024
-599.069	800.000	-0.030	0.117
-598.055	-105.206	-0.179	0.041
-597.040	-131.294	0.394	0.053
-596.025	-29.858	-0.406	0.233
-595.011	800.000	0.035	0.125
-593.996	179.082	0.294	-0.432
-592.982	-138.684	-0.231	-0.025
-591.967	-123.722	0.165	0.026
-590.952	-106.973	-0.183	0.041
-589.938	800.000	-0.135	0.377
-588.923	-54.246	0.376	-0.172
-587.909	264.034	0.139	-0.243
-586.894	-65.192	-0.059	0.024
-585.879	7.123	0.071	-0.053
-584.865	373.296	0.128	-0.262
-583.850	-84.233	-0.201	0.064
-582.836	301.500	0.183	-0.340
-581.821	800.000	0.056	0.236
-580.806	-11.282	0.220	0.146
-579.792	800.000	-0.054	0.228
-578.777	18.014	-0.086	-0.069
-577.763	6.990	0.112	0.084
-576.748	-134.854	0.289	0.035
-575.733	-123.091	-0.088	-0.014
-574.719	800.000	-0.093	-0.323
-573.704	-200.000	-0.001	-0.199
-572.690	254.964	0.173	0.297
-571.675	-89.892	-0.279	-0.082
-570.661	-152.567	0.126	-0.009
-569.646	365.684	-0.056	-0.114
-568.631	800.000	-0.051	0.155
-567.617	20.145	-0.245	-0.199
-566.602	-35.654	0.115	-0.062
-565.588	16.504	-0.049	-0.039
-564.573	229.324	-0.153	0.251
-563.558	-70.337	-0.066	0.025
-562.544	188.536	0.160	-0.240
-561.529	213.821	0.131	0.208
-560.515	-39.883	-0.248	0.130
-559.500	208.428	0.086	-0.135
-558.485	78.858	0.295	0.317
-557.471	90.058	0.045	-0.051
-556.456	-73.546	-0.389	-0.143
-555.442	21.314	-0.144	0.118
-554.427	-3.198	0.198	-0.139
-553.412	-56.195	-0.165	0.074
-552.398	260.714	-0.049	0.086
-551.383	129.398	0.160	0.205
-550.369	-158.494	-0.171	0.010
-549.354	36.756	0.015	-0.014
-548.339	-136.216	-0.171	0.020
-547.325	800.000	-0.032	0.133
-546.310	-123.120	-0.185	-0.030
-545.296	-26.646	0.247	0.145
-544.281	-200.000	0.007	0.267
-543.266	32.369	-0.095	0.083
-542.252	-55.705	0.259	0.116
-541.237	238.979	0.079	0.132
-540.223	-94.682	-0.540	-0.147
-539.208	113.391	-0.120	-0.146
-538.193	63.636	-0.190	0.192
-537.179	-42.829	0.270	-0.138
-536.164	-43.663	0.128	0.065
-535.150	-200.000	0.010	0.078
-534.135	-200.000	-0.061	0.309
-533.121	-68.823	-0.095	-0.037
-532.106	19.645	-0.225	0.182
-531.091	-200.000	0.024	0.220
-530.077	-82.378	-0.398	-0.130
-529.062	800.000	-0.057	0.164
-528.048	-27.476	0.045	-0.026
-527.033	-200.000	0.039	-0.388
-526.018	775.884	0.163	-0.446
-525.004	-80.006	-0.292	0.098
-523.989	-75.940	-0.085	-0.030
-522.975	-81.910	-0.269	0.088
-521.960	523.865	-0.111	0.262
-520.945	-200.000	0.083	-0.488
-519.931	129.008	-0.114	0.145
-518.916	244.201	-0.149	-0.252
-517.902	64.178	0.148	-0.149
-516.887	560.632	-0.022	0.053
-515.872	-65.443	-0.205	-0.083
-514.858	16.298	0.209	-0.165
-513.843	-200.000	0.003	0.146
-512.829	-57.473	0.228	0.100
-511.814	-12.593	0.112	0.073
-510.799	-200.000	-0.031	-0.147
-509.785	690.617	-0.011	0.029
-508.770	59.523	0.048	0.048
-507.756	-100.632	0.143	-0.035
-506.741	-145.575	-0.151	0.014
-505.726	468.368	-0.078	-0.176
-504.712	-49.901	-0.064	-0.031
-503.697	355.333	-0.122	0.244
-502.683	167.241	-0.059	0.084
-501.668	800.000	0.011	-0.035
-500.653	-101.920	0.133	-0.032
-499.639	169.957	0.115	-0.165
-498.624	93.035	-0.138	0.156
-497.610	-74.636	0.284	-0.102
-496.595	-200.000	0.032	0.246
-495.581	122.348	0.093	-0.117
-494.566	574.348	0.115	-0.281
-493.551	-96.955	0.424	0.111
-492.537	-1.157	0.243	0.172
-491.522	-200.000	-0.003	-0.204
-490.508	144.248	0.023	0.031
-489.493	800.000	0.063	0.191
-488.478	-12.906	0.254	-0.166
-487.464	-200.000	0.037	-0.246
-486.449	-141.443	-0.106	-0.011
-485.435	-62.898	0.327	0.135
-484.420	295.630	0.100	-0.184
-483.405	71.090	-0.059	-0.061
-482.391	-189.962	0.322	0.004
-481.376	-106.643	0.291	0.065
-480.362	-46.235	-0.072	0.035
-479.347	-53.578	-0.258	-0.118
-478.332	800.000	0.028	-0.114
-477.318	289.266	-0.165	-0.300
-476.303	-84.175	-0.108	-0.034
-475.289	-200.000	0.050	0.262
-474.274	22.832	0.211	-0.173
-473.259	800.000	-0.051	0.158
-472.245	41.192	-0.248	0.224
-471.230	178.164	0.140	0.205
-470.216	289.294	-0.056	-0.101
-469.201	-98.969	-0.103	-0.026
-468.186	138.772	0.129	-0.169
-467.172	67.061	0.034	-0.035
-466.157	-98.843	0.364	0.093
-465.143	-123.943	-0.035	-0.005
-464.128	-200.000	-0.011	-0.108
-463.113	460.925	0.125	0.278
-462.099	-200.000	0.009	0.079
-461.084	-200.000	0.007	-0.111
-460.070	75.204	-0.122	-0.129
-459.055	100.185	0.174	-0.202
-458.040	71.550	-0.250	0.260
-457.026	800.000	-0.136	0.423
-456.011	-139.161	-0.335	-0.036
-454.997	-107.681	-0.087	0.019
-453.982	16.997	0.083	-0.066
-452.968	800.000	-0.168	-0.523
-451.953	-53.125	-0.223	0.102
-450.938	-200.000	0.032	0.191
-449.924	204.913	-0.044	-0.069
-448.909	-61.671	0.326	-0.137
-447.895	-200.000	0.002	0.095
-446.880	800.000	0.062	-0.187
-445.865	-56.339	-0.170	-0.075
-444.851	-200.000	0.033	-0.341
-443.836	101.447	0.153	-0.178
-442.822	87.884	0.111	0.124
-441.807	412.791	0.073	-0.156
-440.792	-96.469	0.067	-0.018
-439.778	610.427	-0.044	0.110
-438.763	27.691	0.221	0.186
-437.749	-5.021	0.222	0.153
-436.734	-179.686	-0.418	0.009
-435.719	330.673	-0.087	0.168
-434.705	-103.913	0.127	-0.030
-433.690	-137.164	0.265	0.030
-432.676	800.000	-0.106	-0.310
-431.661	-20.355	-0.372	0.229
-430.646	-100.594	-0.327	0.081
-429.632	800.000	-0.026	0.108
-428.617	800.000	0.033	0.137
-427.603	630.951	0.109	0.276
-426.588	-147.218	-0.166	-0.014
-425.573	-101.402	-0.215	0.052
-424.559	218.576	-0.088	0.140
-423.544	165.415	-0.113	0.159
-422.530	-8.981	-0.032	0.022
-421.515	-134.286	-0.106	0.013
-420.500	-200.000	-0.001	-0.022
-419.486	212.309	0.076	0.120
-418.471	800.000	-0.125	0.531
-417.457	76.240	0.305	0.323
-416.442	171.581	-0.174	0.249
-415.428	-99.823	-0.159	0.040
-414.413	-12.404	0.249	-0.163
-413.398	376.699	-0.140	0.285
-412.384	-76.627	0.163	0.057
-411.369	59.146	-0.270	-0.266
-410.355	-46.150	0.113	0.056
-409.340	475.159	0.111	0.249
-408.325	-69.490	0.012	0.004
-407.311	429.307	-0.165	-0.357
-406.296	800.000	0.111	-0.376
-405.282	-200.000	-0.011	-0.208
-404.267	-63.036	-0.362	0.149
-403.252	-10.990	0.051	-0.034
-402.238	-82.479	0.257	-0.083
-401.223	-200.000	-0.031	-0.524
-400.209	58.987	-0.347	-0.341
-399.194	-200.000	0.032	-0.253
-398.179	-200.000	-0.013	-0.062
-397.165	-107.340	0.215	-0.047
-396.150	-11.133	-0.055	-0.037
-395.136	195.402	0.094	0.142
-394.121	800.000	-0.051	-0.157
-393.106	-38.981	-0.276	-0.145
-392.092	-89.283	0.550	0.162
-391.077	-194.721	0.161	0.001
-390.063	1.284	0.241	0.172
-389.048	-50.516	-0.178	0.084
-388.033	151.110	0.150	-0.204
-387.019	-200.000	0.006	0.183
-386.004	-200.000	-0.017	-0.243
-384.990	579.193	0.030	0.072
-383.975	292.425	-0.154	-0.280
-382.960	-200.000	0.029	-0.210
-381.946	-186.520	0.083	0.001
-380.931	59.744	0.338	-0.332
-379.917	-119.912	0.232	0.040
-378.902	26.311	-0.088	0.073
-377.888	544.394	-0.080	-0.190
-376.873	118.862	-0.012	0.015
-375.858	-49.036	0.233	-0.111
-374.844	-111.630	-0.294	0.059
-373.829	-78.792	-0.089	-0.030
-372.815	-186.026	0.106	0.002
-371.800	3.488	0.097	0.071
-370.785	120.894	0.090	0.111
-369.771	-200.000	-0.012	0.130
-368.756	-2.964	-0.365	0.254
-367.742	-66.560	-0.077	-0.031
-366.727	157.009	-0.177	-0.244
-365.712	-81.837	-0.210	-0.069
-364.698	49.830	-0.152	0.143
-363.683	758.527	0.104	0.280
-362.669	404.105	-0.095	0.199
-361.654	-14.586	-0.196	-0.126
-360.639	107.314	-0.142	0.168
-359.625	270.012	0.208	0.365
-358.610	-147.893	0.222	0.018
-357.596	47.958	0.319	-0.297
-356.581	-200.000	-0.040	-0.257
-355.566	-88.006	-0.283	-0.085
-354.552	2.172	-0.117	-0.084
-353.537	800.000	-0.042	-0.160
-352.523	-101.644	0.075	0.018
-351.508	800.000	-0.089	0.272
-350.493	800.000	-0.042	0.162
-349.479	366.345	0.019	0.038
-348.464	-200.000	-0.026	-0.189
-347.450	150.933	0.156	-0.211
-346.435	800.000	0.039	0.128
-345.420	-200.000	0.017	0.157
-344.406	31.220	0.144	0.123
-343.391	-200.000	-0.031	0.430
-342.377	-200.000	0.008	-0.203
-341.362	192.316	0.334	0.502
-340.348	800.000	0.010	-0.043
-339.333	-101.419	-0.289	-0.070
-338.318	800.000	0.092	-0.321
-337.304	-200.000	-0.001	-0.067
-336.289	141.352	-0.209	0.275
-335.275	233.782	0.116	0.190
-334.260	-41.697	-0.285	0.146
-333.245	-200.000	-0.007	0.231
-332.231	11.097	0.226	0.172
-331.216	-130.604	-0.266	0.036
-330.202	800.000	-0.089	-0.309
-329.187	-148.640	-0.020	0.002
-328.172	800.000	-0.103	0.323
-327.158	342.694	-0.086	-0.167
-326.143	478.011	-0.041	0.092
-325.129	126.880	-0.015	-0.019
-324.114	-200.000	-0.021	-0.361
-323.099	-140.906	-0.084	0.009
-322.085	44.612	-0.058	0.054
-321.070	117.610	-0.112	0.138
-320.056	-0.157	-0.271	-0.192
-319.041	29.282	0.225	-0.190
-318.026	493.127	0.069	0.159
-317.012	800.000	0.002	0.008
-315.997	-163.389	0.045	-0.002
-314.983	185.130	0.206	0.304
-313.968	-33.716	0.350	-0.192
-312.953	-95.280	0.173	0.046
-311.939	-200.000	0.073	-0.467
-310.924	138.606	-0.123	-0.161
-309.910	-81.301	0.055	0.018
-308.895	-40.156	-0.062	-0.032
-307.880	137.385	0.187	0.243
-306.866	-200.000	0.058	-0.407
-305.851	10.394	0.417	0.316
-304.837	-67.803	0.034	0.013
-303.822	-121.190	-0.180	-0.030
-302.807	94.504	-0.260	0.294
-301.793	-114.566	-0.315	-0.060
-300.778	371.934	-0.164	0.331
-299.764	-80.459	-0.309	-0.103
-298.749	-96.929	-0.258	-0.067
-297.735	-88.230	0.356	-0.106
-296.720	24.658	-0.241	-0.198
-295.705	103.690	0.125	0.146
-294.691	-34.767	-0.076	0.041
-293.676	-200.000	-0.020	-0.165
-292.662	87.032	-0.210	-0.230
-291.647	-7.751	0.131	-0.088
-290.632	-22.256	0.288	-0.174
-289.618	-59.951	0.262	-0.111
-288.603	-31.769	-0.357	0.199
-287.589	-200.000	-0.058	0.562
-286.574	-30.886	-0.238	0.134
-285.559	-146.290	0.147	0.013
-284.545	1.977	-0.161	-0.115
-283.530	-200.000	-0.021	-0.277
-282.516	391.034	-0.032	-0.066
-281.501	278.083	0.128	-0.226
-280.486	270.765	-0.130	-0.228
-279.472	179.221	0.098	-0.142
-278.457	-171.832	0.361	0.012
-277.443	-118.417	0.245	-0.043
-276.428	-200.000	0.006	0.166
-275.413	-59.127	-0.221	0.095
-274.399	147.117	-0.156	0.209
-273.384	-116.076	-0.280	0.052
-272.370	361.439	0.050	0.099
-271.355	-200.000	0.002	-0.121
-270.340	-49.452	0.280	0.133
-269.326	-119.393	-0.128	0.022
-268.311	87.283	0.058	-0.064
-267.297	580.497	0.129	0.314
-266.282	-17.814	0.181	-0.113
-265.267	483.888	-0.054	-0.121
-264.253	-200.000	-0.004	-0.090
-263.238	-200.000	0.005	0.324
-262.224	-200.000	0.034	-0.206
-261.209	80.079	0.228	-0.243
-260.195	-8.469	-0.102	0.068
-259.180	75.975	0.169	-0.177
-258.165	-38.127	0.204	0.107
-257.151	-135.582	0.296	-0.035
-256.136	-20.349	-0.088	-0.054
-255.122	-200.000	-0.015	0.342
-254.107	-65.342	-0.193	-0.077
-253.092	-0.498	0.066	0.047
-252.078	-161.572	-0.262	0.013
-251.063	-104.908	0.311	-0.071
-250.049	6.748	0.153	0.113
-249.034	800.000	-0.038	-0.114
-248.019	-149.698	0.291	-0.023
-247.005	-116.647	-0.179	-0.033
-245.990	-200.000	0.057	0.334
-244.976	-200.000	-0.005	0.077
-243.961	93.749	0.168	-0.188
-242.946	-3.119	-0.077	-0.053
-241.932	-3.694	0.316	0.218
-240.917	-83.722	0.416	-0.132
-239.903	-155.866	0.124	0.008
-238.888	-94.887	-0.196	0.053
-237.873	132.595	-0.168	-0.215
-236.859	800.000	-0.080	-0.229
-235.844	105.408	0.152	-0.179
-234.830	14.630	-0.196	-0.152
-233.815	-151.629	-0.276	-0.020
-232.800	481.061	-0.031	-0.070
-231.786	42.092	0.108	0.097
-230.771	253.968	-0.034	0.058
-229.757	-35.054	-0.268	-0.145
-228.742	-6.361	0.259	0.175
-227.727	-0.100	0.333	0.235
-226.713	347.552	0.057	0.112
-225.698	800.000	-0.016	-0.049
-224.684	293.093	0.204	-0.368
-223.669	148.693	-0.061	-0.081
-222.655	-67.849	-0.261	0.101
-221.640	-200.000	0.024	-0.115
-220.625	-200.000	-0.030	0.193
-219.611	-121.915	0.378	0.062
-218.596	-155.065	0.328	0.021
-217.582	46.939	0.088	0.081
-216.567	800.000	-0.021	-0.083
-215.552	-200.000	-0.033	-0.260
-214.538	-27.474	-0.156	-0.090
-213.523	49.474	-0.154	-0.144
-212.509	-72.870	-0.087	-0.032
-211.494	18.294	-0.161	0.127
-210.479	483.686	-0.050	-0.113
-209.465	0.295	0.145	0.102
-208.450	28.195	0.143	0.120
-207.436	159.139	-0.193	0.266
-206.421	384.254	0.216	0.441
-205.406	-48.771	0.351	0.167
-204.392	-173.653	0.153	-0.005
-203.377	-158.970	0.135	-0.008
-202.363	126.781	0.192	-0.241
-201.348	800.000	-0.067	-0.287
-200.333	203.042	0.191	0.292
-199.319	800.000	0.052	0.206
-198.304	-200.000	-0.035	-0.345
-197.290	65.174	-0.249	-0.250
-196.275	-93.293	0.096	-0.027
-195.260	-131.183	-0.201	0.026
-194.246	-56.184	-0.403	0.177
-193.231	-145.618	0.176	0.016
-192.217	369.798	-0.018	0.036
-191.202	-200.000	-0.057	0.308
-190.187	-200.000	0.009	-0.088
-189.173	-4.323	-0.168	0.115
-188.158	-161.233	0.396	-0.020
-187.144	-200.000	-0.049	-0.244
-186.129	-200.000	-0.041	-0.385
-185.114	-178.970	0.153	-0.003
-184.100	800.000	0.044	0.169
-183.085	176.227	-0.133	-0.191
-182.071	-84.854	0.121	0.038
-181.056	-136.509	-0.085	-0.010
-180.042	-174.525	-0.160	0.005
-179.027	-131.834	0.501	0.065
-178.012	-88.547	0.226	0.067
-176.998	75.525	-0.166	-0.173
-175.983	800.000	-0.115	0.371
-174.969	800.000	-0.049	0.197
-173.954	800.000	-0.093	0.302
-172.939	-10.923	-0.176	-0.115
-171.925	-44.001	-0.026	0.013
-170.910	140.843	-0.007	-0.009
-169.896	80.626	-0.189	0.201
-168.881	-68.661	-0.203	0.078
-167.866	759.513	0.028	0.075
-166.852	-48.545	-0.212	-0.101
-165.837	404.618	0.137	0.285
-164.823	-112.469	-0.195	0.039
-163.808	118.784	-0.191	0.233
-162.793	666.979	-0.091	-0.231
-161.779	-200.000	0.017	0.378
-160.764	-59.196	-0.382	-0.163
-159.750	800.000	0.059	-0.236
-158.735	33.067	0.078	0.067
-157.720	-200.000	0.047	-0.203
-156.706	-33.548	0.043	-0.023
-155.691	14.859	-0.200	-0.155
-154.677	62.887	-0.155	0.153
-153.662	-27.222	0.184	-0.106
-152.647	-200.000	-0.013	0.083
-151.633	-200.000	0.009	-0.117
-150.618	800.000	0.053	-0.149
-149.604	-122.164	0.133	0.022
-148.589	379.701	0.093	-0.187
-147.574	163.969	0.086	-0.119
-146.560	-13.421	-0.172	-0.110
-145.545	-127.914	-0.146	0.021
-144.531	-116.925	-0.434	-0.079
-143.516	-200.000	0.002	0.354
-142.502	-142.762	-0.385	-0.037
-141.487	49.380	-0.060	-0.056
-140.472	53.138	-0.043	-0.041
-139.458	-166.511	0.344	-0.014
-138.443	-83.751	0.136	0.043
-137.429	-200.000	0.010	-0.365
-136.414	-50.239	-0.161	0.075
-135.399	385.816	0.208	-0.425
-134.385	800.000	-0.072	-0.208
-133.370	-70.025	-0.157	0.059
-132.356	-160.903	-0.120	-0.006
-131.341	383.179	0.168	0.341
-130.326	-91.933	-0.173	0.049
-129.312	-90.060	0.363	0.105
-128.297	-200.000	0.075	-0.347
-127.283	12.894	-0.365	0.279
-126.268	184.026	0.291	0.425
-125.253	-36.707	0.063	-0.033
-124.239	256.804	-0.105	-0.179
-123.224	196.134	-0.217	0.327
-122.210	-171.642	0.396	0.013
-121.195	678.494	-0.098	-0.252
-120.180	-8.827	-0.179	-0.119
-119.166	-132.775	-0.216	0.027
-118.151	118.643	0.258	-0.315
-117.137	-200.000	0.009	0.144
-116.122	-4.645	-0.035	-0.024
-115.107	440.622	0.125	-0.271
-114.093	274.640	-0.118	0.206
-113.078	-151.136	0.325	0.024
-112.064	-49.354	0.119	0.056
-111.049	336.620	0.159	0.306
-110.034	-89.771	0.304	0.088
-109.020	-90.554	0.249	-0.071
-108.005	41.509	-0.096	-0.086
-106.991	379.484	-0.152	-0.306
-105.976	800.000	0.043	-0.148
-104.962	-92.487	-0.192	-0.053
-103.947	69.738	0.065	-0.066
-102.932	36.159	0.093	-0.081
-101.918	91.305	0.204	0.226
-100.903	44.995	0.079	-0.072
-99.889	37.321	0.164	-0.143
-98.874	800.000	0.068	0.227
-97.859	-200.000	-0.015	0.231
-96.845	-200.000	-0.008	-0.222
-95.830	11.422	0.048	-0.037
-94.816	-21.641	-0.025	-0.015
-93.801	800.000	0.050	0.199
-92.786	82.440	0.304	0.326
-91.772	-15.952	0.205	-0.129
-90.757	235.939	-0.233	-0.380
-89.743	-123.205	-0.144	0.023
-88.728	-99.047	-0.372	0.093
-87.713	-183.673	0.246	-0.004
-86.699	-55.102	-0.065	-0.029
-85.684	-200.000	0.014	-0.099
-84.670	-200.000	0.030	0.162
-83.655	-18.075	-0.166	0.103
-82.640	-200.000	-0.015	0.093
-81.626	115.846	0.061	-0.073
-80.611	-107.997	0.450	0.096
-79.597	-93.831	0.156	-0.042
-78.582	800.000	-0.004	-0.017
-77.567	-151.457	0.393	0.029
-76.553	-200.000	0.007	0.095
-75.538	100.515	-0.242	0.277
-74.524	-200.000	-0.008	-0.079
-73.509	15.576	-0.180	0.139
-72.494	-37.997	0.242	-0.127
-71.480	150.657	0.260	0.348
-70.465	800.000	-0.093	-0.320
-69.451	554.263	0.062	-0.147
-68.436	551.981	0.118	-0.280
-67.422	-41.598	0.119	-0.060
-66.407	236.207	-0.020	-0.033
-65.392	800.000	-0.054	0.171
-64.378	88.972	-0.286	-0.313
-63.363	352.200	-0.092	0.181
-62.349	-42.448	-0.061	0.031
-61.334	-8.851	-1.115	-0.737
-60.319	35.908	0.423	0.367
-59.305	800.000	-0.264	-0.992
-58.290	324.468	0.716	1.347
-57.276	800.000	0.604	1.679
-56.261	-200.000	94.944	569.342
-55.246	545.675	1378.083	3245.354
-54.232	157.622	2563.970	3497.793
-53.217	112.213	2148.296	2558.636
-52.203	45.290	1608.959	1461.892
-51.188	37.344	1347.487	1176.410
-50.173	34.032	1305.545	1120.276
-49.159	56.823	1352.641	1297.642
-48.144	59.455	1369.972	1329.947
-47.130	37.592	1327.476	1160.235
-46.115	34.067	1309.927	1124.066
-45.100	33.851	1305.408	1118.868
-44.086	33.698	1303.327	1116.142
-43.071	33.799	1300.541	1114.303
-42.057	33.744	1298.850	1112.489
-41.042	33.809	1296.812	1111.079
-40.027	33.759	1295.880	1109.948
-39.013	33.817	1293.481	1108.186
-37.998	33.894	1291.613	1106.986
-36.984	33.916	1290.112	1105.786
-35.969	33.939	1288.582	1104.562
-34.954	33.980	1286.749	1103.188
-33.940	33.970	1285.796	1102.269
-32.925	34.018	1284.260	1101.188
-31.911	34.002	1282.267	1099.341
-30.896	33.992	1281.499	1098.582
-29.881	34.023	1279.977	1097.415
-28.867	34.012	1278.483	1096.024
-27.852	33.992	1277.140	1094.711
-26.838	34.116	1275.485	1093.965
-25.823	34.012	1274.654	1092.609
-24.809	33.916	1273.444	1090.978
-23.794	34.025	1271.708	1090.076
-22.779	34.019	1270.523	1088.980
-21.765	33.978	1269.159	1087.536
-20.750	33.885	1267.830	1085.823
-19.736	33.879	1266.832	1084.888
-18.721	33.866	1265.421	1083.562
-17.706	33.923	1264.011	1082.638
-16.692	33.896	1263.281	1081.817
-15.677	33.895	1262.157	1080.806
-14.663	33.876	1261.428	1080.027
-13.648	33.955	1259.827	1079.063
-12.633	33.787	1259.182	1077.516
-11.619	33.791	1258.343	1076.778
-10.604	33.819	1257.520	1076.190
-9.590	33.937	1256.388	1075.846
-8.575	33.907	1255.346	1074.741
-7.560	33.868	1254.708	1073.933
-6.546	33.808	1253.728	1072.709
-5.531	33.861	1252.816	1072.188
-4.517	33.788	1252.268	1071.264
-3.502	33.803	1251.667	1070.795
-2.487	33.825	1250.576	1069.939
-1.473	33.779	1246.525	1066.176
-0.458	32.278	1230.712	1044.274
0.556	29.261	1212.375	1003.599
1.571	25.144	1217.791	985.417
2.586	24.009	1232.565	990.971
3.600	23.310	1221.426	978.069
4.615	17.367	1149.598	889.484
5.629	7.610	1072.836	782.184
6.644	3.373	1051.369	745.985
7.659	2.848	1049.394	741.982
8.673	2.679	1048.107	740.191
9.688	2.682	1046.705	739.151
10.702	3.098	1045.235	740.047
11.717	9.030	1053.850	774.792
12.731	19.099	1067.796	834.008
13.746	24.754	1075.024	867.079
14.761	26.254	1076.640	875.581
15.775	26.381	1076.454	875.968
16.790	26.122	1075.566	873.917
17.804	25.983	1075.264	872.918
18.819	26.272	1074.559	873.669
19.834	26.449	1074.053	874.032
20.848	26.387	1073.651	873.329
21.863	26.397	1073.262	872.985
22.877	26.374	1072.338	872.046
23.892	26.278	1071.387	870.731
24.907	26.316	1070.951	870.483
25.921	26.410	1069.754	869.888
26.936	26.214	1069.018	868.266
27.950	26.258	1067.182	866.913
28.965	26.123	1065.572	864.881
29.980	26.221	1064.027	864.020
30.994	26.456	1063.015	864.244
32.009	26.405	1062.266	863.314
33.023	26.223	1061.068	861.395
34.038	26.296	1060.261	861.011
35.053	26.359	1059.425	860.560
36.067	26.361	1058.963	860.115
37.082	26.402	1058.322	859.713
38.096	26.517	1057.781	859.746
39.111	26.634	1056.820	859.441
40.126	26.474	1055.625	857.638
41.140	26.058	1054.004	854.276
42.155	25.914	1052.191	852.047
43.169	25.961	1051.790	851.870
44.184	26.011	1050.830	851.253
45.199	25.920	1049.397	849.590
46.213	25.985	1048.879	849.402
47.228	26.147	1048.281	849.604
48.242	26.181	1047.589	849.127
49.257	26.198	1046.927	848.594
50.271	26.401	1046.155	848.850
51.286	26.404	1045.082	847.914
52.301	26.330	1044.389	846.934
53.315	26.354	1043.159	845.974
54.330	26.181	1042.703	844.717
55.344	26.258	1041.865	844.324
56.359	26.169	1041.066	843.189
57.374	26.051	1040.051	841.740
58.388	26.106	1039.707	841.644
59.403	26.017	1038.798	840.421
60.417	25.875	1037.707	838.800
61.432	25.986	1037.132	838.778
62.447	26.093	1036.330	838.554
63.461	26.145	1035.770	838.266
64.476	26.074	1034.853	837.122
65.490	25.905	1033.959	835.539
66.505	26.098	1033.003	835.585
67.520	26.014	1032.753	834.924
68.534	25.712	1031.625	832.541
69.549	25.550	1030.386	830.718
70.563	25.606	1029.513	830.198
71.578	25.585	1028.923	829.551
72.593	25.382	1027.929	827.744
73.607	25.565	1027.223	827.945
74.622	25.670	1027.283	828.399
75.636	25.790	1026.627	828.353
76.651	25.760	1025.088	826.899
77.666	25.659	1025.221	826.470
78.680	25.603	1024.776	825.778
79.695	25.849	1023.384	825.711
80.709	25.860	1023.181	825.528
81.724	25.805	1022.511	824.660
82.739	26.045	1021.355	824.751
83.753	26.324	1021.092	825.744
84.768	26.596	1020.348	826.311
85.782	26.776	1019.286	826.199
86.797	26.659	1018.033	824.577
87.812	26.413	1017.522	822.971
88.826	26.461	1016.740	822.484
89.841	26.608	1015.985	822.465
90.855	26.688	1014.999	821.957
91.870	26.573	1013.952	820.516
92.884	26.402	1013.134	819.009
93.899	26.441	1011.747	817.992
94.914	26.648	1010.867	818.142
95.928	26.409	1010.144	816.405
96.943	26.131	1008.649	813.873
97.957	25.889	1007.866	812.077
98.972	25.886	1006.034	810.517
99.987	26.185	1006.149	811.883
101.001	26.321	1004.880	811.398
102.016	26.329	1004.529	811.076
103.030	26.164	1003.557	809.481
104.045	26.098	1002.596	808.337
105.060	25.907	1001.555	806.574
106.074	26.096	1000.983	806.887
107.089	26.327	1000.481	807.443
108.103	26.288	999.559	806.453
109.118	26.093	998.243	804.451
110.133	26.076	996.931	803.248
111.147	25.867	996.019	801.512
112.162	25.744	995.370	800.373
113.176	26.132	994.489	801.315
114.191	25.986	994.081	800.266
115.206	25.623	993.096	797.795
116.220	25.584	992.361	796.961
117.235	25.757	991.753	797.167
118.249	25.775	990.647	796.287
119.264	25.684	990.009	795.301
120.279	25.679	989.032	794.424
121.293	25.847	987.975	794.248
122.308	25.814	987.285	793.475
123.322	25.700	986.144	791.986
124.337	25.643	984.918	790.681
125.352	25.144	983.622	787.381
126.366	25.123	982.689	786.471
127.381	25.754	983.050	789.460
128.395	26.156	982.557	790.753
129.410	26.354	981.383	790.604
130.424	26.229	980.790	789.512
131.439	26.216	979.731	788.532
132.454	26.195	979.024	787.804
133.468	26.185	977.949	786.822
134.483	26.299	977.458	786.858
135.497	26.545	976.311	786.932
136.512	26.538	975.789	786.413
137.527	26.503	974.934	785.503
138.541	26.577	974.026	785.019
139.556	26.567	973.236	784.273
140.570	26.522	973.066	783.872
141.585	26.615	971.522	782.958
142.600	26.684	970.155	782.086
143.614	26.864	970.126	782.771
144.629	26.863	969.538	782.225
145.643	26.651	967.886	779.910
146.658	26.551	966.751	778.496
147.673	26.434	965.417	776.849
148.687	26.375	964.773	776.010
149.702	26.139	963.523	773.923
150.716	26.270	962.737	773.785
151.731	26.474	961.828	773.859
152.746	26.518	961.871	774.014
153.760	26.563	961.120	773.533
154.775	26.632	960.505	773.264
155.789	26.575	959.790	772.375
156.804	26.623	958.622	771.571
157.819	26.756	957.776	771.387
158.833	26.864	957.278	771.380
159.848	26.814	956.383	770.379
160.862	26.623	955.498	768.784
161.877	26.591	954.415	767.711
162.892	26.595	953.689	767.075
163.906	26.620	952.343	766.029
164.921	26.578	951.413	765.037
165.935	26.699	950.150	764.464
166.950	26.710	949.136	763.629
167.964	26.600	948.854	762.870
168.979	26.529	947.763	761.625
169.994	26.384	946.980	760.318
171.008	26.774	946.348	761.382
172.023	26.832	945.398	760.797
173.037	26.515	944.429	758.620
174.052	26.302	943.755	757.117
175.067	26.584	942.421	757.159
176.081	26.507	942.209	756.602
177.096	26.349	942.059	755.756
178.110	26.198	940.869	754.102
179.125	26.025	940.159	752.745
180.140	26.025	940.009	752.556
181.154	26.172	939.584	752.763
182.169	26.493	939.427	753.910
183.183	26.720	938.902	754.365
184.198	26.718	937.623	753.261
185.213	26.597	937.138	752.305
186.227	26.667	936.542	752.050
187.242	26.658	936.035	751.539
188.256	26.662	935.606	751.146
189.271	26.756	934.509	750.586
190.286	26.422	933.559	748.375
191.300	25.756	931.859	744.195
192.315	25.000	929.916	739.457
193.329	24.859	930.124	738.977
194.344	25.900	930.264	743.318
195.359	26.453	930.580	745.785
196.373	26.543	929.930	745.571
197.388	26.589	928.971	744.924
198.402	26.539	928.888	744.586
199.417	26.688	927.827	744.281
200.432	26.240	927.357	741.998
201.446	26.376	925.986	741.394
202.461	26.270	925.855	740.787
203.475	25.367	924.068	735.598
204.490	24.660	922.429	731.333
205.504	25.373	923.018	734.655
206.519	25.967	923.275	737.224
207.534	26.235	922.594	737.709
208.548	26.604	922.559	739.124
209.563	26.354	921.677	737.330
210.577	26.407	920.934	736.888
211.592	26.827	920.619	738.281
212.607	26.678	919.772	736.931
213.621	26.828	919.145	736.972
214.636	26.731	918.936	736.345
215.650	26.672	917.916	735.224
216.665	26.880	917.172	735.406
217.680	26.806	916.326	734.364
218.694	26.426	915.032	731.722
219.709	26.100	915.119	730.410
220.723	26.406	914.073	730.748
221.738	26.541	913.852	731.050
222.753	26.376	913.338	729.907
223.767	26.497	912.968	730.038
224.782	26.906	912.446	731.202
225.796	26.874	911.808	730.497
226.811	26.224	909.911	726.301
227.826	25.514	908.904	722.579
228.840	25.788	908.451	723.258
229.855	25.892	907.748	723.051
230.869	25.479	906.604	720.419
231.884	25.874	906.660	721.984
232.899	26.506	907.342	724.996
233.913	26.489	906.346	724.066
234.928	26.526	905.456	723.440
235.942	26.452	904.721	722.493
236.957	26.126	903.865	720.443
237.972	26.132	903.649	720.234
238.986	26.249	903.017	720.130
240.001	26.343	902.271	719.847
241.015	26.299	902.089	719.465
242.030	26.451	901.643	719.650
243.045	26.489	901.337	719.494
244.059	26.767	900.612	719.953
245.074	26.348	899.823	717.599
246.088	26.173	898.660	715.914
247.103	26.575	898.420	717.252
248.117	27.072	898.862	719.508
249.132	27.302	898.511	720.076
250.147	27.290	898.073	719.613
251.161	27.435	897.525	719.683
252.176	27.409	896.724	718.875
253.190	27.411	896.402	718.562
254.205	27.613	895.923	718.909
255.220	27.553	895.115	717.964
256.234	27.372	894.770	716.909
257.249	27.555	893.364	716.437
258.263	27.489	892.665	715.554
259.278	27.561	892.295	715.479
260.293	27.599	891.547	714.964
261.307	27.518	891.062	714.193
262.322	27.294	890.329	712.668
263.336	26.485	888.145	707.692
264.351	25.515	886.590	702.601
265.366	25.626	886.095	702.579
266.380	26.773	887.013	707.727
267.395	27.054	886.964	708.720
268.409	26.972	886.211	707.739
269.424	27.209	885.516	708.041
270.439	27.346	884.660	707.830
271.453	27.382	884.290	707.611
272.468	27.445	884.460	707.930
273.482	27.549	883.598	707.582
274.497	27.122	882.873	705.278
275.512	26.810	881.633	703.017
276.526	27.177	881.601	704.353
277.541	27.380	881.220	704.771
278.555	27.099	880.557	703.090
279.570	27.034	879.625	702.032
280.585	27.097	879.044	701.752
281.599	27.049	878.370	700.967
282.614	26.509	877.063	697.781
283.628	26.486	876.705	697.345
284.643	26.938	876.491	698.853
285.657	26.534	875.062	696.098
286.672	26.192	874.490	694.266
287.687	26.799	874.844	696.820
288.701	26.780	874.032	696.038
289.716	26.548	873.118	694.358
290.730	26.492	872.292	693.427
291.745	26.323	871.458	692.056
292.760	26.456	872.073	692.993
293.774	27.536	872.044	697.044
294.789	27.739	871.868	697.618
295.803	27.948	870.966	697.630
296.818	27.783	870.455	696.532
297.833	27.442	868.835	693.873
298.847	27.292	868.455	692.938
299.862	27.599	868.669	694.214
300.876	27.944	868.002	694.935
301.891	27.884	867.220	694.019
302.906	27.333	866.287	691.117
303.920	27.459	866.119	691.402
304.935	27.759	865.928	692.328
305.949	27.783	865.225	691.793
306.964	27.589	864.455	690.382
307.979	27.592	864.091	690.044
308.993	28.025	863.753	691.349
310.008	27.967	862.991	690.458
311.022	27.659	862.279	688.666
312.037	27.556	861.720	687.769
313.052	27.180	860.897	685.632
314.066	26.334	859.205	681.038
315.081	26.030	858.839	679.544
316.095	26.907	858.878	682.815
317.110	27.385	858.870	684.548
318.125	26.543	857.240	680.026
319.139	25.418	855.605	674.449
320.154	25.613	855.299	674.877
321.168	26.502	856.005	678.711
322.183	27.177	855.723	680.959
323.197	27.304	855.621	681.291
324.212	27.678	854.741	681.931
325.227	27.554	854.676	681.357
326.241	27.383	853.662	679.849
327.256	27.314	853.333	679.268
328.270	27.302	852.458	678.466
329.285	26.984	851.413	676.390
330.300	26.726	851.272	675.255
331.314	27.089	850.868	676.229
332.329	27.541	850.705	677.719
333.343	27.610	850.531	677.779
334.358	27.640	850.036	677.435
335.373	27.755	849.774	677.592
336.387	28.005	849.542	678.278
337.402	28.131	849.247	678.449
338.416	28.186	848.944	678.351
339.431	28.003	849.057	677.704
340.446	28.335	848.575	678.487
341.460	28.251	847.918	677.592
342.475	27.990	847.055	675.875
343.489	28.178	846.863	676.357
344.504	28.241	846.778	676.463
345.519	28.632	845.886	677.134
346.533	28.615	845.824	676.962
347.548	28.356	845.563	675.738
348.562	28.260	845.171	675.009
349.577	28.407	844.286	674.783
350.592	28.447	842.991	673.839
351.606	28.412	842.716	673.431
352.621	28.222	841.700	671.860
353.635	28.186	841.050	671.149
354.650	27.542	839.276	667.318
355.665	26.648	837.822	662.832
356.679	26.899	837.878	663.738
357.694	27.383	837.657	665.274
358.708	27.378	836.811	664.524
359.723	27.734	837.046	665.952
360.738	27.970	836.632	666.422
361.752	28.106	836.264	666.569
362.767	28.576	835.841	667.883
363.781	28.778	835.524	668.304
364.796	28.875	835.092	668.254
365.810	28.901	834.849	668.094
366.825	28.863	834.136	667.326
367.840	28.579	833.515	665.739
368.854	28.045	832.902	663.254
369.869	28.184	832.333	663.248
370.883	28.351	831.921	663.463
371.898	28.156	831.246	662.161
372.913	28.186	830.930	661.960
373.927	28.333	830.624	662.188
374.942	28.487	830.299	662.426
375.956	28.553	829.561	662.018
376.971	28.786	829.502	662.753
377.986	28.918	829.026	662.790
379.000	28.702	828.633	661.639
380.015	28.612	828.024	660.769
381.029	28.774	827.229	660.660
382.044	28.713	826.979	660.183
383.059	28.803	826.393	659.980
384.073	28.824	825.781	659.507
385.088	28.695	825.138	658.475
386.102	28.575	824.551	657.518
387.117	28.493	823.663	656.459
388.132	28.149	822.579	654.304
389.146	27.774	821.323	651.907
390.161	27.996	821.465	652.758
391.175	28.584	821.200	654.586
392.190	28.164	820.487	652.465
393.205	26.663	818.337	645.353
394.219	25.194	816.677	638.762
395.234	25.108	816.891	638.564
396.248	26.790	817.931	645.316
397.263	28.449	818.487	651.599
398.278	28.363	818.125	650.946
399.292	28.026	817.573	649.252
400.307	28.074	817.196	649.067
401.321	28.290	816.554	649.265
402.336	28.534	816.646	650.148
403.350	29.064	816.764	652.060
404.365	29.274	816.149	652.254
405.380	29.562	815.801	652.939
406.394	29.573	815.543	652.712
407.409	29.490	815.217	652.100
408.423	29.363	815.040	651.452
409.438	29.463	814.781	651.541
410.453	29.581	814.103	651.359
411.467	29.392	813.230	649.934
412.482	29.530	812.455	649.743
413.496	29.615	812.282	649.849
414.511	29.545	812.141	649.431
415.526	29.617	811.466	649.087
416.540	29.463	810.853	647.998
417.555	29.107	810.367	646.303
418.569	29.188	810.057	646.282
419.584	29.221	809.176	645.638
420.599	28.881	808.968	644.224
421.613	110.041	1285.658	1449.826
422.628	95.124	1355.135	1449.956
