DTS Sentinel unit serial number:	SN413079Multiplexer serial number:	ORYXHardware model number:	OX4-SRSoftware version number:	ORYX F/W v4.00 Oryx Data Collector v3.7.2.0data status	okinstallation	princeton_trtdifferential loss correction	single-endedforward channel	channel 1reverse channel	N/Adate	2019/09/18time	06:18:35forward acquisition time	60.00reverse acquisition time	0.00gamma	496.2192k internal	0.2339k external	0.2339temperature offset calibration	0.9976default loss term (dB/km)	0.3790temperature slope calibration	1.0000multiplexer offset coefficient	1.0000multiplexer slope coefficient	1.0000fibre end	0.00T internal ref (°C)	23.25T ext. ref 1 (°C)	0.19T ext. ref 2 (°C)	17.84length (m)	temperature (°C)	Stokes	anti-Stokes-747.200	-1.426	-0.121	0.086
-746.185	-110.401	0.068	-0.014
-745.171	-200.000	-0.048	0.309
-744.156	-20.587	-0.168	0.103
-743.142	-13.479	0.082	-0.053
-742.127	-0.705	-0.351	0.250
-741.112	-19.475	0.092	0.057
-740.098	160.784	-0.187	0.262
-739.083	8.132	0.066	0.050
-738.069	-125.795	-0.278	-0.042
-737.054	-140.308	-0.215	-0.023
-736.039	379.489	0.161	-0.330
-735.025	-20.652	0.295	0.182
-734.010	-200.000	0.037	-0.366
-732.996	-200.000	-0.038	-0.294
-731.981	-122.347	0.182	0.030
-730.966	62.516	-0.110	-0.110
-729.952	800.000	-0.047	0.141
-728.937	-5.105	-0.208	0.144
-727.923	-200.000	0.028	-0.158
-726.908	-200.000	-0.002	-0.374
-725.894	55.018	0.147	-0.143
-724.879	23.389	0.157	-0.130
-723.864	-160.457	0.035	0.002
-722.850	788.087	0.081	-0.222
-721.835	800.000	0.046	0.195
-720.821	32.300	-0.035	0.031
-719.806	88.926	0.113	0.126
-718.791	800.000	-0.117	-0.348
-717.777	-148.399	0.252	0.021
-716.762	74.750	0.181	0.190
-715.748	-27.425	0.054	-0.031
-714.733	179.217	-0.094	-0.138
-713.718	697.862	-0.151	-0.397
-712.704	-60.523	0.266	-0.113
-711.689	-27.670	-0.225	0.131
-710.675	-75.758	0.112	0.040
-709.660	-200.000	-0.017	0.138
-708.645	-80.052	-0.121	-0.041
-707.631	247.425	0.064	-0.108
-706.616	-136.365	-0.429	-0.050
-705.602	800.000	0.124	-0.431
-704.587	-200.000	-0.043	0.306
-703.572	597.160	0.074	0.182
-702.558	239.214	0.082	0.136
-701.543	-150.865	0.387	-0.029
-700.529	-64.723	0.261	0.106
-699.514	158.207	0.153	0.213
-698.499	148.699	-0.087	-0.117
-697.485	-200.000	-0.077	0.465
-696.470	-65.420	0.197	-0.079
-695.456	-200.000	0.012	0.100
-694.441	-200.000	-0.001	-0.020
-693.426	-113.708	-0.258	0.050
-692.412	244.519	0.215	0.361
-691.397	319.866	0.125	-0.238
-690.383	46.264	0.164	0.152
-689.368	-77.999	-0.067	-0.023
-688.354	-15.887	-0.244	-0.156
-687.339	-172.845	0.274	0.009
-686.324	13.978	-0.209	-0.163
-685.310	238.598	0.069	-0.115
-684.295	-179.427	-0.345	-0.008
-683.281	-45.464	-0.262	-0.130
-682.266	-200.000	0.012	0.060
-681.251	64.463	-0.126	0.127
-680.237	-122.315	0.078	0.013
-679.222	177.226	-0.094	0.136
-678.208	-190.723	0.138	0.001
-677.193	162.026	0.093	0.130
-676.178	47.785	-0.179	-0.167
-675.164	560.426	-0.190	-0.460
-674.149	-24.639	0.131	0.078
-673.135	75.338	-0.094	-0.099
-672.120	-158.034	-0.267	0.016
-671.105	194.365	0.287	0.435
-670.091	-90.106	-0.192	0.056
-669.076	-6.141	0.087	-0.059
-668.062	154.149	0.049	0.067
-667.047	-157.373	0.166	-0.010
-666.032	10.644	0.071	-0.054
-665.018	348.990	-0.022	-0.043
-664.003	-93.804	-0.093	-0.026
-662.989	620.406	0.096	-0.241
-661.974	-133.582	0.306	0.038
-660.959	800.000	-0.051	-0.219
-659.945	-142.441	-0.213	-0.021
-658.930	-115.019	0.259	-0.049
-657.916	82.329	0.174	0.189
-656.901	-200.000	-0.050	-0.243
-655.886	350.481	0.085	-0.168
-654.872	-200.000	0.022	-0.215
-653.857	-40.516	-0.048	-0.025
-652.843	22.521	-0.064	0.053
-651.828	-46.685	-0.139	-0.068
-650.814	800.000	-0.092	0.266
-649.799	800.000	-0.033	0.117
-648.784	-101.651	-0.226	-0.055
-647.770	668.015	-0.050	0.129
-646.755	-200.000	0.015	-0.196
-645.741	38.489	-0.103	0.092
-644.726	39.289	0.251	-0.224
-643.711	-200.000	0.002	-0.120
-642.697	18.808	0.121	-0.097
-641.682	-43.088	0.311	-0.158
-640.668	-181.419	0.140	-0.003
-639.653	16.831	0.226	0.179
-638.638	-200.000	0.010	-0.154
-637.624	-30.630	0.283	-0.160
-636.609	-51.623	-0.140	0.065
-635.595	768.547	0.069	0.187
-634.580	-92.915	0.081	-0.022
-633.565	78.244	-0.033	0.036
-632.551	-83.102	-0.236	0.076
-631.536	480.160	-0.050	-0.113
-630.522	-45.439	-0.389	0.192
-629.507	792.265	-0.070	-0.192
-628.492	19.804	-0.270	-0.217
-627.478	761.877	-0.026	-0.070
-626.463	-200.000	-0.054	-0.250
-625.449	-200.000	-0.032	-0.317
-624.434	62.047	0.238	0.237
-623.419	399.719	0.191	-0.400
-622.405	-200.000	0.049	-0.217
-621.390	-94.087	-0.352	-0.096
-620.376	-156.256	0.413	-0.026
-619.361	58.520	0.078	-0.076
-618.346	-99.881	0.157	-0.039
-617.332	235.495	-0.217	-0.358
-616.317	-198.887	0.175	-0.001
-615.303	800.000	-0.041	0.162
-614.288	-17.756	-0.109	-0.069
-613.273	800.000	-0.050	0.203
-612.259	92.254	0.153	-0.172
-611.244	-52.523	-0.159	0.073
-610.230	-172.130	-0.298	0.010
-609.215	-87.323	0.271	-0.082
-608.201	238.366	-0.179	0.296
-607.186	108.317	0.048	0.058
-606.171	-200.000	0.062	-0.318
-605.157	-94.694	0.325	0.088
-604.142	-43.692	0.106	0.053
-603.128	800.000	-0.046	-0.141
-602.113	800.000	0.038	-0.109
-601.098	-200.000	0.094	0.000
-600.084	-5.369	-0.155	0.106
-599.069	358.022	-0.047	-0.094
-598.055	429.342	-0.051	-0.111
-597.040	800.000	0.019	-0.053
-596.025	800.000	0.012	0.043
-595.011	89.349	0.177	0.197
-593.996	-200.000	-0.042	0.398
-592.982	356.621	0.118	-0.235
-591.967	800.000	-0.007	-0.024
-590.952	-200.000	0.004	-0.174
-589.938	800.000	-0.116	-0.337
-588.923	-200.000	0.033	0.149
-587.909	78.153	-0.268	-0.285
-586.894	-141.652	-0.098	-0.010
-585.879	-32.811	-0.172	-0.095
-584.865	-103.775	0.240	0.056
-583.850	800.000	-0.064	-0.261
-582.836	-52.324	-0.264	-0.122
-581.821	-92.019	0.115	0.032
-580.806	286.293	0.156	0.281
-579.792	-37.067	-0.113	-0.060
-578.777	11.878	0.169	-0.129
-577.763	800.000	-0.065	-0.279
-576.748	161.426	-0.138	0.192
-575.733	19.221	0.230	-0.184
-574.719	177.532	-0.102	0.147
-573.704	-16.883	0.065	0.041
-572.690	348.734	0.118	-0.233
-571.675	6.630	0.208	-0.154
-570.661	-82.798	-0.540	0.174
-569.646	-58.093	0.254	0.111
-568.631	-161.690	-0.208	-0.011
-567.617	-96.940	0.193	0.050
-566.602	-70.130	-0.157	-0.060
-565.588	-86.065	0.076	-0.024
-564.573	50.352	0.343	0.323
-563.558	73.070	0.169	0.176
-562.544	776.891	-0.019	0.051
-561.529	262.804	0.232	-0.402
-560.515	-138.157	0.370	-0.041
-559.500	-0.209	-0.266	-0.188
-558.485	212.163	0.184	-0.289
-557.471	-36.698	-0.020	0.011
-556.456	-99.179	-0.226	0.057
-555.442	-45.142	-0.183	0.090
-554.427	-109.163	0.248	-0.052
-553.412	-85.577	-0.244	-0.075
-552.398	276.574	-0.226	-0.400
-551.383	-200.000	0.015	0.244
-550.369	-93.267	0.094	-0.026
-549.354	7.985	0.176	-0.131
-548.339	348.297	0.089	-0.175
-547.325	-111.458	0.216	-0.044
-546.310	-68.381	0.082	0.032
-545.296	800.000	0.052	-0.165
-544.281	196.326	0.264	-0.400
-543.266	-155.089	0.167	-0.011
-542.252	800.000	-0.061	0.172
-541.237	-8.702	0.229	0.153
-540.223	252.294	-0.232	0.393
-539.208	-61.438	0.141	-0.059
-538.193	64.569	-0.095	0.095
-537.179	212.219	-0.252	0.395
-536.164	29.991	-0.113	-0.096
-535.150	68.397	0.209	0.213
-534.135	218.649	0.029	0.046
-533.121	-4.475	0.187	-0.128
-532.106	630.842	0.128	0.323
-531.091	42.314	0.200	0.181
-530.077	4.993	0.183	-0.134
-529.062	-153.251	-0.223	-0.016
-528.048	-126.108	-0.154	-0.023
-527.033	13.287	-0.370	0.285
-526.018	-139.274	-0.205	0.022
-525.004	-24.483	-0.231	0.137
-523.989	-82.540	-0.203	0.065
-522.975	3.355	0.058	0.042
-521.960	-68.553	-0.267	0.103
-520.945	-200.000	-0.058	-0.396
-519.931	-128.523	-0.469	0.066
-518.916	287.860	0.126	0.226
-517.902	182.525	0.099	-0.145
-516.887	-133.734	0.238	-0.029
-515.872	800.000	-0.058	-0.214
-514.858	340.709	-0.124	0.241
-513.843	-127.851	-0.164	0.023
-512.829	-72.327	-0.121	0.045
-511.814	-134.665	0.042	-0.005
-510.799	96.806	-0.103	-0.117
-509.785	3.012	0.128	-0.092
-508.770	33.735	-0.312	-0.270
-507.756	-7.479	0.417	0.281
-506.741	-39.496	0.103	-0.054
-505.726	-108.153	-0.244	-0.053
-504.712	156.100	0.173	-0.237
-503.697	800.000	0.041	-0.166
-502.683	-193.357	-0.094	-0.001
-501.668	-72.057	-0.389	0.144
-500.653	-45.480	0.298	-0.147
-499.639	-112.666	0.092	-0.018
-498.624	-60.806	-0.041	0.017
-497.610	-200.000	-0.092	0.411
-496.595	-120.046	0.089	0.015
-495.581	159.067	-0.272	-0.375
-494.566	-200.000	-0.167	-0.001
-493.551	14.868	0.139	-0.108
-492.537	80.433	0.170	0.182
-491.522	142.359	0.272	-0.358
-490.508	-12.956	0.207	0.134
-489.493	-21.370	-0.165	-0.100
-488.478	10.895	-0.102	-0.077
-487.464	-200.000	0.029	-0.271
-486.449	-49.905	0.304	0.143
-485.435	-200.000	-0.021	-0.390
-484.420	-162.190	-0.049	0.002
-483.405	-200.000	0.032	-0.340
-482.391	-200.000	0.019	0.088
-481.376	-90.069	0.116	0.034
-480.362	-12.060	-0.208	0.135
-479.347	-122.994	-0.371	-0.059
-478.332	-174.898	0.392	-0.011
-477.318	800.000	0.086	0.321
-476.303	-103.513	-0.429	-0.100
-475.289	312.538	-0.131	0.244
-474.274	800.000	0.023	-0.093
-473.259	337.065	-0.039	-0.076
-472.245	64.345	0.153	0.153
-471.230	198.989	-0.094	-0.143
-470.216	-149.689	-0.379	0.030
-469.201	-95.023	-0.158	-0.042
-468.186	24.585	0.089	-0.073
-467.172	424.102	-0.217	0.462
-466.157	-108.746	0.137	0.029
-465.143	-200.000	0.008	0.105
-464.128	-200.000	-0.039	0.188
-463.113	-55.855	0.329	0.146
-462.099	-57.227	-0.222	-0.097
-461.084	255.275	0.079	0.135
-460.070	-36.403	0.439	0.235
-459.055	290.988	-0.185	0.333
-458.040	1.244	-0.096	-0.068
-457.026	24.621	0.209	-0.172
-456.011	-46.130	-0.011	-0.006
-454.997	-200.000	-0.013	0.469
-453.982	646.798	-0.048	-0.121
-452.968	205.984	0.183	0.283
-451.953	-75.705	0.123	-0.043
-450.938	124.020	-0.102	-0.127
-449.924	54.525	0.155	0.149
-448.909	199.140	0.122	0.185
-447.895	800.000	-0.032	0.097
-446.880	-166.288	-0.171	-0.007
-445.865	-128.253	0.161	-0.023
-444.851	800.000	-0.037	-0.137
-443.836	-200.000	-0.027	0.243
-442.822	181.966	0.052	-0.076
-441.807	800.000	0.103	-0.285
-440.792	98.756	0.093	0.106
-439.778	387.994	-0.033	-0.067
-438.763	-200.000	-0.026	0.155
-437.749	-37.780	-0.023	0.012
-436.734	529.766	0.060	0.141
-435.719	94.778	0.096	0.108
-434.705	-0.743	-0.144	-0.101
-433.690	82.188	0.127	0.136
-432.676	-200.000	0.065	-0.393
-431.661	800.000	-0.065	-0.250
-430.646	-82.000	-0.632	0.205
-429.632	29.825	0.123	0.104
-428.617	-200.000	-0.002	0.052
-427.603	-46.247	-0.300	-0.146
-426.588	37.663	-0.003	0.002
-425.573	-136.416	0.126	-0.014
-424.559	33.473	0.078	-0.067
-423.544	50.204	0.139	-0.130
-422.530	-200.000	0.044	-0.222
-421.515	240.083	0.086	-0.141
-420.500	-200.000	0.003	0.168
-419.486	750.641	-0.118	0.315
-418.471	-22.561	-0.330	-0.197
-417.457	485.012	0.104	0.235
-416.442	48.864	-0.209	-0.194
-415.428	800.000	-0.013	-0.039
-414.413	800.000	-0.086	0.283
-413.398	113.737	0.095	0.114
-412.384	549.684	-0.060	0.142
-411.369	-200.000	-0.036	0.385
-410.355	89.195	-0.069	-0.077
-409.340	15.129	0.064	-0.050
-408.325	-71.347	0.176	-0.065
-407.311	771.517	0.081	0.220
-406.296	-60.116	0.299	-0.126
-405.282	-0.807	0.323	0.227
-404.267	301.822	-0.081	0.148
-403.252	84.119	-0.087	-0.094
-402.238	-200.000	0.031	0.373
-401.223	-107.516	0.163	-0.035
-400.209	-14.350	-0.268	0.171
-399.194	17.890	-0.128	-0.101
-398.179	283.947	-0.044	-0.078
-397.165	-152.121	0.137	-0.010
-396.150	267.956	-0.062	-0.107
-395.136	-200.000	0.005	0.165
-394.121	-69.539	0.131	0.050
-393.106	31.824	0.219	0.186
-392.092	-155.232	-0.214	0.014
-391.077	-64.648	0.083	0.033
-390.063	58.455	0.180	-0.174
-389.048	391.039	-0.166	-0.340
-388.033	-48.855	-0.265	-0.125
-387.019	315.375	-0.092	-0.172
-386.004	791.151	0.077	-0.209
-384.990	101.395	0.072	-0.082
-383.975	88.085	0.157	-0.172
-382.960	-58.481	-0.352	-0.151
-381.946	800.000	-0.018	0.074
-380.931	-129.681	0.273	-0.037
-379.917	-77.105	0.366	0.126
-378.902	-40.874	-0.221	-0.113
-377.888	-33.255	-0.124	-0.068
-376.873	-73.060	0.175	-0.064
-375.858	38.983	-0.499	0.441
-374.844	-200.000	0.065	0.284
-373.829	-144.383	0.352	0.032
-372.815	800.000	0.040	-0.145
-371.800	53.459	0.205	0.194
-370.785	-11.827	-0.262	0.170
-369.771	371.483	0.113	0.226
-368.756	625.899	-0.029	0.071
-367.742	67.020	-0.067	-0.067
-366.727	71.207	0.056	0.057
-365.712	-43.555	0.202	-0.101
-364.698	-200.000	-0.094	-0.413
-363.683	-108.554	-0.330	-0.070
-362.669	800.000	0.033	0.138
-361.654	202.813	-0.065	-0.100
-360.639	-106.037	-0.304	-0.068
-359.625	-170.062	-0.029	0.001
-358.610	-200.000	0.006	0.123
-357.596	-169.192	-0.232	-0.008
-356.581	358.288	-0.096	-0.190
-355.566	-4.394	0.291	0.199
-354.552	9.408	0.165	0.123
-353.537	-200.000	0.006	0.296
-352.523	-53.498	-0.227	0.102
-351.508	-89.978	0.103	-0.030
-350.493	-40.162	-0.340	0.175
-349.479	800.000	0.081	0.255
-348.464	-64.193	-0.521	0.210
-347.450	-159.379	-0.140	-0.008
-346.435	4.492	-0.384	-0.278
-345.420	37.197	0.156	-0.136
-344.406	-23.609	0.118	0.070
-343.391	78.237	0.030	0.032
-342.377	486.467	0.037	0.083
-341.362	-200.000	0.017	0.085
-340.348	56.605	-0.327	0.314
-339.333	-20.309	0.154	0.094
-338.318	-139.540	0.102	-0.011
-337.304	12.272	-0.341	-0.259
-336.289	-74.134	-0.159	0.057
-335.275	-200.000	0.036	0.291
-334.260	-200.000	-0.003	-0.272
-333.245	-58.837	0.308	0.131
-332.231	138.569	0.086	0.111
-331.216	-80.217	-0.119	0.039
-330.202	-200.000	-0.009	0.264
-329.187	-200.000	0.015	0.312
-328.172	800.000	0.057	-0.170
-327.158	-200.000	-0.036	-0.194
-326.143	25.045	0.098	-0.080
-325.129	-65.313	0.224	-0.089
-324.114	-81.875	0.174	-0.056
-323.099	-87.456	0.029	-0.009
-322.085	77.569	-0.174	0.183
-321.070	-132.319	-0.276	-0.035
-320.056	-200.000	-0.006	-0.296
-319.041	-28.380	0.350	0.199
-318.026	224.155	0.226	-0.359
-317.012	-200.000	-0.070	-0.715
-315.997	-32.932	0.294	-0.161
-314.983	-31.434	0.310	-0.172
-313.968	-88.158	-0.089	0.026
-312.953	-48.391	-0.179	0.085
-311.939	-70.461	0.210	-0.078
-310.924	-35.510	-0.301	-0.161
-309.910	278.497	0.114	-0.200
-308.895	-200.000	0.037	0.331
-307.880	-200.000	0.337	0.001
-306.866	339.074	0.119	-0.229
-305.851	-33.115	0.110	-0.060
-304.837	119.461	0.213	0.260
-303.822	-30.585	-0.223	0.124
-302.807	284.628	0.144	-0.256
-301.793	-200.000	-0.053	0.355
-300.778	-200.000	0.062	0.537
-299.764	800.000	-0.085	-0.356
-298.749	403.849	-0.127	-0.264
-297.735	800.000	-0.091	0.376
-296.720	6.606	-0.109	-0.080
-295.705	-174.528	-0.192	-0.005
-294.691	73.404	0.214	0.220
-293.676	64.799	-0.109	0.108
-292.662	-99.629	-0.297	-0.074
-291.647	-105.729	0.240	-0.053
-290.632	-115.250	0.423	0.079
-289.618	-170.335	0.268	0.009
-288.603	-67.714	-0.207	0.080
-287.589	-200.000	0.030	0.156
-286.574	-51.623	0.332	0.152
-285.559	-131.676	-0.280	0.036
-284.545	609.059	0.123	0.302
-283.530	-149.201	-0.231	-0.018
-282.516	149.047	-0.042	-0.056
-281.501	128.121	-0.170	0.212
-280.486	51.649	-0.140	-0.131
-279.472	-57.270	-0.170	-0.074
-278.457	-200.000	-0.034	-0.525
-277.443	-94.038	0.333	-0.090
-276.428	-97.172	0.297	0.076
-275.413	-17.744	-0.205	0.127
-274.399	-91.877	-0.214	0.060
-273.384	-0.761	0.073	-0.051
-272.370	57.964	0.250	0.241
-271.355	-20.722	0.106	-0.064
-270.340	-47.286	0.078	-0.037
-269.326	800.000	-0.140	0.388
-268.311	800.000	-0.091	0.354
-267.297	800.000	0.096	-0.339
-266.282	38.798	0.125	0.110
-265.267	-91.472	0.320	0.090
-264.253	-200.000	-0.004	0.043
-263.238	61.905	0.021	-0.021
-262.224	800.000	-0.006	0.023
-261.209	-181.799	0.200	-0.004
-260.195	18.534	-0.107	0.084
-259.180	-173.605	0.143	-0.004
-258.165	39.676	0.242	-0.214
-257.151	-10.649	0.244	0.159
-256.136	3.508	0.347	0.249
-255.122	-129.902	-0.220	0.030
-254.107	-68.479	-0.098	-0.037
-253.092	50.850	-0.160	-0.149
-252.078	305.497	0.158	0.289
-251.063	431.675	0.115	-0.245
-250.049	-87.256	-0.080	0.024
-249.034	800.000	0.019	0.059
-248.019	-15.042	-0.152	-0.096
-247.005	-103.974	-0.298	0.068
-245.990	796.960	-0.125	0.339
-244.976	-42.564	0.144	0.072
-243.961	-66.677	0.526	-0.205
-242.946	800.000	-0.118	0.359
-241.932	126.736	-0.084	0.104
-240.917	377.147	0.172	0.345
-239.903	-200.000	0.022	-0.207
-238.888	-200.000	0.044	-0.245
-237.873	-159.713	-0.134	0.007
-236.859	-106.033	0.257	0.057
-235.844	-200.000	0.011	-0.182
-234.830	714.223	0.114	0.298
-233.815	106.764	-0.102	0.119
-232.800	-27.885	-0.079	0.045
-231.786	-161.370	0.108	-0.006
-230.771	-56.196	0.177	0.077
-229.757	644.254	0.073	0.183
-228.742	-105.494	-0.350	-0.078
-227.727	-124.278	-0.306	-0.047
-226.713	-200.000	-0.021	-0.113
-225.698	-24.476	-0.182	-0.106
-224.684	-200.000	0.070	0.345
-223.669	48.503	0.086	0.079
-222.655	-33.419	-0.309	-0.168
-221.640	104.040	0.139	-0.161
-220.625	-75.716	0.255	-0.089
-219.611	-110.095	0.128	-0.026
-218.596	800.000	-0.061	0.184
-217.582	99.821	0.077	0.088
-216.567	89.516	-0.135	0.148
-215.552	167.345	-0.259	-0.362
-214.538	-160.974	-0.068	-0.003
-213.523	-95.299	-0.248	0.065
-212.509	58.541	-0.129	-0.124
-211.494	-200.000	-0.009	0.403
-210.479	549.473	0.059	-0.138
-209.465	-200.000	-0.007	-0.152
-208.450	5.150	0.318	-0.230
-207.436	-200.000	-0.052	-0.270
-206.421	-77.700	-0.223	-0.076
-205.406	673.732	0.084	-0.214
-204.392	7.502	-0.139	-0.102
-203.377	72.454	-0.044	-0.045
-202.363	511.716	-0.049	-0.112
-201.348	800.000	-0.033	0.116
-200.333	-68.854	-0.200	0.076
-199.319	800.000	-0.112	-0.390
-198.304	-47.679	-0.142	0.068
-197.290	-200.000	-0.035	0.173
-196.275	-200.000	0.006	0.192
-195.260	341.245	-0.181	0.346
-194.246	800.000	0.076	-0.233
-193.231	29.892	-0.373	-0.312
-192.217	-32.877	0.092	0.050
-191.202	800.000	0.017	0.050
-190.187	-67.601	-0.278	-0.107
-189.173	112.092	-0.172	0.204
-188.158	138.690	-0.161	0.207
-187.144	-110.030	0.145	-0.030
-186.129	-200.000	0.019	0.102
-185.114	562.675	0.040	-0.094
-184.100	800.000	-0.064	-0.186
-183.085	-200.000	0.069	0.331
-182.071	800.000	-0.041	0.158
-181.056	-42.706	0.011	0.005
-180.042	-106.640	-0.120	0.026
-179.027	-72.268	0.144	0.052
-178.012	312.783	-0.098	-0.181
-176.998	-63.232	0.203	-0.082
-175.983	-168.682	0.437	-0.016
-174.969	-200.000	-0.027	-0.373
-173.954	-106.443	-0.145	-0.032
-172.939	-200.000	0.001	0.190
-171.925	-200.000	-0.027	-0.121
-170.910	759.772	-0.131	-0.348
-169.896	96.970	0.083	-0.093
-168.881	-67.945	0.164	-0.063
-167.866	-141.542	-0.397	-0.039
-166.852	161.918	-0.244	-0.335
-165.837	-200.000	0.020	0.306
-164.823	193.305	-0.149	-0.220
-163.808	65.274	-0.107	-0.106
-162.793	-46.397	0.167	-0.080
-161.779	-3.944	0.288	-0.196
-160.764	229.096	0.029	0.047
-159.750	274.253	0.148	-0.257
-158.735	-144.744	0.115	0.010
-157.720	-200.000	0.031	0.314
-156.706	244.637	0.106	-0.174
-155.691	88.572	-0.248	0.270
-154.677	60.111	0.075	-0.073
-153.662	115.798	-0.149	-0.179
-152.647	103.525	0.176	0.203
-151.633	-200.000	-0.009	0.234
-150.618	-16.438	0.303	-0.188
-149.604	-32.883	-0.198	0.108
-148.589	-200.000	0.057	0.262
-147.574	20.905	0.178	-0.141
-146.560	-200.000	0.040	-0.183
-145.545	-200.000	-0.010	0.149
-144.531	-42.974	-0.183	0.091
-143.516	-200.000	0.012	-0.147
-142.502	-47.374	-0.145	-0.069
-141.487	170.266	0.087	-0.122
-140.472	-87.374	-0.234	0.069
-139.458	-55.904	0.127	0.055
-138.443	411.119	0.054	-0.112
-137.429	113.616	0.222	0.264
-136.414	800.000	-0.043	-0.125
-135.399	-85.730	0.098	0.030
-134.385	800.000	0.130	0.402
-133.370	-1.541	0.268	-0.185
-132.356	-200.000	-0.063	-0.392
-131.341	112.642	0.164	0.194
-130.326	-142.208	-0.283	-0.027
-129.312	-9.638	-0.143	0.093
-128.297	-3.430	0.146	-0.100
-127.283	20.865	0.148	-0.117
-126.268	-149.163	0.388	0.030
-125.253	-132.453	-0.466	-0.059
-124.239	800.000	0.090	-0.314
-123.224	-46.677	0.214	-0.103
-122.210	-126.831	-0.129	0.019
-121.195	173.198	-0.131	0.186
-120.180	-93.167	0.268	-0.073
-119.166	800.000	0.096	-0.408
-118.151	294.107	-0.124	-0.221
-117.137	-170.448	-0.141	-0.005
-116.122	-200.000	-0.040	-0.257
-115.107	61.737	0.229	-0.223
-114.093	-200.000	0.008	0.106
-113.078	269.342	0.152	0.262
-112.064	634.291	0.120	0.299
-111.049	-200.000	0.034	-0.151
-110.034	38.515	0.108	0.094
-109.020	-200.000	0.010	-0.331
-108.005	-200.000	0.012	0.216
-106.991	-133.376	-0.208	0.026
-105.976	-76.184	0.105	0.036
-104.962	-200.000	-0.043	-0.248
-103.947	288.795	0.152	0.269
-102.932	-61.937	0.196	-0.080
-101.918	-61.473	-0.074	0.030
-100.903	-200.000	-0.053	-0.280
-99.889	700.295	-0.046	-0.119
-98.874	65.878	0.237	-0.235
-97.859	4.942	0.066	0.047
-96.845	-200.000	0.029	0.326
-95.830	396.900	-0.101	-0.206
-94.816	-200.000	-0.046	0.260
-93.801	-48.084	-0.282	-0.133
-92.786	49.238	0.076	0.070
-91.772	60.511	0.097	-0.094
-90.757	-53.933	0.115	-0.051
-89.743	194.355	-0.128	0.189
-88.728	800.000	-0.088	0.343
-87.713	-97.573	-0.429	0.109
-86.699	800.000	0.062	0.210
-85.684	42.320	0.167	-0.148
-84.670	26.432	-0.189	0.154
-83.655	800.000	-0.011	-0.039
-82.640	365.450	-0.179	-0.353
-81.626	-200.000	-0.006	0.217
-80.611	-200.000	-0.004	0.247
-79.597	11.883	-0.112	-0.084
-78.582	-200.000	-0.022	-0.101
-77.567	12.667	0.319	-0.241
-76.553	-128.030	0.139	-0.020
-75.538	-58.669	-0.120	-0.051
-74.524	800.000	-0.059	0.243
-73.509	9.517	-0.139	0.103
-72.494	86.231	0.053	-0.057
-71.480	-103.421	-0.172	0.039
-70.465	-109.784	-0.304	-0.062
-69.451	36.158	0.172	0.148
-68.436	31.348	-0.378	0.317
-67.422	-28.195	0.174	-0.098
-66.407	43.792	-0.261	-0.233
-65.392	172.658	0.154	0.217
-64.378	-18.249	0.120	-0.074
-63.363	390.006	-0.060	-0.122
-62.349	800.000	0.054	0.166
-61.334	60.502	-1.128	-1.090
-60.319	11.185	0.987	0.737
-59.305	800.000	-0.359	-1.496
-58.290	337.220	0.838	1.590
-57.276	177.114	0.965	1.372
-56.261	-200.000	125.086	646.543
-55.246	402.465	1575.851	3233.569
-54.232	141.702	2733.998	3535.489
-53.217	94.539	2165.272	2401.675
-52.203	34.766	1596.143	1362.323
-51.188	26.412	1339.957	1093.361
-50.173	23.909	1301.961	1047.594
-49.159	51.416	1372.129	1271.905
-48.144	48.376	1383.264	1263.774
-47.130	26.529	1331.391	1086.904
-46.115	23.394	1312.220	1052.624
-45.100	23.247	1306.804	1047.367
-44.086	23.142	1304.399	1044.778
-43.071	23.073	1302.009	1042.412
-42.057	23.030	1300.263	1040.720
-41.042	23.180	1298.627	1040.254
-40.027	23.211	1297.318	1039.343
-39.013	23.151	1295.188	1037.245
-37.998	23.152	1293.366	1035.754
-36.984	23.254	1291.467	1034.785
-35.969	23.240	1289.773	1033.304
-34.954	23.270	1288.333	1032.285
-33.940	23.170	1287.437	1030.942
-32.925	23.157	1285.687	1029.427
-31.911	23.370	1283.819	1029.129
-30.896	23.253	1282.794	1027.588
-29.881	23.350	1281.819	1027.329
-28.867	23.397	1279.858	1025.985
-27.852	23.416	1278.663	1025.100
-26.838	23.428	1277.450	1024.152
-25.823	23.469	1276.322	1023.446
-24.809	23.353	1274.990	1021.667
-23.794	23.376	1273.091	1020.236
-22.779	23.448	1271.738	1019.528
-21.765	23.472	1270.723	1018.809
-20.750	23.392	1269.172	1017.068
-19.736	23.153	1268.244	1014.913
-18.721	23.189	1267.366	1014.379
-17.706	23.270	1266.091	1013.778
-16.692	23.215	1264.617	1012.242
-15.677	23.254	1263.372	1011.431
-14.663	23.136	1262.914	1010.347
-13.648	23.185	1261.507	1009.465
-12.633	23.089	1260.941	1008.421
-11.619	23.191	1259.908	1008.138
-10.604	23.224	1259.033	1007.585
-9.590	23.160	1257.874	1006.254
-8.575	23.099	1257.366	1005.461
-7.560	23.182	1256.215	1004.974
-6.546	23.205	1255.655	1004.613
-5.531	23.057	1254.687	1002.964
-4.517	23.130	1254.240	1002.977
-3.502	23.238	1252.902	1002.482
-2.487	23.273	1251.955	1001.879
-1.473	23.138	1247.774	997.731
-0.458	21.784	1232.652	978.052
0.556	16.833	1217.892	942.614
1.571	13.443	1226.176	929.926
2.586	13.041	1241.662	939.301
3.600	13.144	1229.434	930.551
4.615	9.593	1157.625	857.254
5.629	3.239	1086.049	772.379
6.644	0.398	1069.103	746.213
7.659	0.092	1067.301	743.378
8.673	0.090	1065.982	742.384
9.688	0.171	1065.234	742.200
10.702	0.218	1063.220	740.959
11.717	4.155	1067.400	763.224
12.731	11.202	1076.425	804.510
13.746	15.696	1081.980	830.844
14.761	16.559	1083.131	835.919
15.775	15.999	1081.361	831.716
16.790	14.984	1079.732	825.384
17.804	14.510	1077.557	821.314
18.819	14.060	1076.537	818.252
19.834	13.804	1075.831	816.381
20.848	13.506	1075.107	814.298
21.863	13.391	1073.862	812.719
22.877	13.194	1073.424	811.344
23.892	13.134	1072.893	810.578
24.907	13.009	1072.462	809.569
25.921	13.260	1070.880	809.529
26.936	13.147	1070.511	808.625
27.950	13.250	1069.334	808.170
28.965	13.373	1068.069	807.743
29.980	13.327	1067.034	806.666
30.994	13.370	1065.973	805.999
32.009	13.323	1064.826	804.836
33.023	13.322	1063.581	803.815
34.038	13.263	1062.953	802.984
35.053	13.256	1061.937	802.111
36.067	13.341	1060.770	801.570
37.082	13.337	1060.263	801.098
38.096	13.257	1059.827	800.308
39.111	13.366	1058.688	799.907
40.126	13.271	1057.400	798.402
41.140	13.135	1056.605	797.075
42.155	13.088	1055.226	795.737
43.169	13.211	1053.902	795.260
44.184	13.136	1052.766	793.973
45.199	13.204	1051.878	793.559
46.213	13.140	1050.628	792.239
47.228	13.146	1050.140	791.834
48.242	13.266	1048.797	791.325
49.257	13.191	1047.729	790.090
50.271	13.210	1047.021	789.575
51.286	13.247	1046.266	789.114
52.301	13.190	1044.798	787.665
53.315	13.228	1043.959	787.146
54.330	13.172	1043.127	786.181
55.344	13.283	1042.283	786.004
56.359	13.056	1041.861	784.534
57.374	13.129	1040.627	783.885
58.388	13.147	1039.822	783.291
59.403	13.158	1038.771	782.483
60.417	13.119	1038.249	781.836
61.432	13.156	1037.259	781.197
62.447	13.102	1036.444	780.257
63.461	12.965	1036.090	779.278
64.476	13.054	1034.747	778.616
65.490	13.051	1033.782	777.809
66.505	13.121	1033.112	777.565
67.520	13.072	1032.996	777.176
68.534	13.084	1031.592	776.108
69.549	13.097	1031.126	775.753
70.563	13.079	1030.090	774.817
71.578	13.044	1029.449	774.106
72.593	13.088	1028.775	773.735
73.607	12.971	1028.506	772.914
74.622	13.065	1027.234	772.332
75.636	13.035	1026.500	771.571
76.651	13.047	1026.286	771.396
77.666	12.998	1025.692	770.653
78.680	12.985	1024.827	769.877
79.695	13.117	1023.988	769.795
80.709	13.147	1023.295	769.345
81.724	13.136	1022.730	768.798
82.739	13.213	1021.747	768.348
83.753	13.264	1021.194	768.103
84.768	13.293	1020.553	767.688
85.782	13.337	1019.222	766.821
86.797	13.250	1018.512	765.817
87.812	13.259	1017.499	765.029
88.826	13.220	1016.841	764.287
89.841	13.304	1015.467	763.573
90.855	13.324	1014.890	763.164
91.870	13.343	1014.371	762.795
92.884	13.308	1013.590	761.980
93.899	13.269	1012.534	760.937
94.914	13.312	1011.986	760.655
95.928	13.381	1010.918	760.106
96.943	13.301	1010.366	759.256
97.957	13.350	1009.273	758.590
98.972	13.336	1008.182	757.641
99.987	13.468	1007.091	757.356
101.001	13.429	1005.901	756.217
102.016	13.288	1005.570	755.258
103.030	13.427	1004.685	755.161
104.045	13.315	1004.080	754.126
105.060	13.456	1002.958	753.861
106.074	13.162	1002.557	752.155
107.089	13.239	1001.237	751.447
108.103	13.247	1000.486	750.851
109.118	13.128	999.559	749.552
110.133	13.194	998.716	749.150
111.147	13.218	997.765	748.480
112.162	13.219	996.774	747.675
113.176	13.307	995.797	747.274
114.191	13.217	995.361	746.477
115.206	13.224	994.904	746.100
116.220	13.206	993.737	745.074
117.235	13.333	992.911	744.962
118.249	13.229	992.177	743.876
119.264	13.384	991.187	743.768
120.279	13.268	990.631	742.761
121.293	13.164	989.681	741.517
122.308	13.240	988.878	741.190
123.322	13.166	987.859	740.032
124.337	13.190	986.607	739.134
125.352	13.221	985.990	738.743
126.366	13.179	984.590	737.441
127.381	13.280	983.602	737.090
128.395	13.214	982.699	736.050
129.410	13.203	981.931	735.363
130.424	13.266	980.981	734.865
131.439	13.258	980.129	734.130
132.454	13.315	979.279	733.681
133.468	13.302	978.556	733.016
134.483	13.242	977.642	732.000
135.497	13.379	976.173	731.442
136.512	13.343	976.032	731.111
137.527	13.308	974.987	730.109
138.541	13.341	974.374	729.732
139.556	13.279	973.932	729.063
140.570	13.411	973.188	729.024
141.585	13.519	971.739	728.349
142.600	13.350	971.269	727.187
143.614	13.501	970.394	727.133
144.629	13.464	969.541	726.264
145.643	13.395	968.614	725.205
146.658	13.372	967.280	724.042
147.673	13.324	967.038	723.587
148.687	13.351	965.936	722.813
149.702	13.444	965.066	722.505
150.716	13.358	964.388	721.562
151.731	13.521	963.618	721.629
152.746	13.499	963.164	721.130
153.760	13.455	962.356	720.270
154.775	13.420	962.161	719.908
155.789	13.489	961.633	719.750
156.804	13.551	960.391	719.028
157.819	13.639	959.766	718.875
158.833	13.696	959.278	718.694
159.848	13.688	958.114	717.722
160.862	13.633	957.114	716.672
161.877	13.546	956.180	715.535
162.892	13.563	955.622	715.128
163.906	13.480	954.689	714.007
164.921	13.559	953.598	713.470
165.935	13.486	953.164	712.766
166.950	13.608	952.472	712.710
167.964	13.580	951.350	711.688
168.979	13.611	950.198	710.894
169.994	13.652	949.419	710.425
171.008	13.665	948.833	709.980
172.023	13.703	947.983	709.444
173.037	13.757	947.279	709.086
174.052	13.782	946.181	708.309
175.067	13.571	946.063	707.255
176.081	13.664	945.456	707.136
177.096	13.607	944.870	706.390
178.110	13.672	944.264	706.154
179.125	13.718	943.831	705.963
180.140	13.713	943.093	705.329
181.154	13.848	942.336	705.272
182.169	13.850	941.784	704.806
183.183	13.712	941.125	703.665
184.198	13.757	940.271	703.155
185.213	13.886	939.365	702.961
186.227	13.968	938.851	702.859
187.242	13.889	938.109	701.910
188.256	14.004	937.763	702.074
189.271	13.879	936.834	700.789
190.286	13.887	936.042	700.169
191.300	13.621	935.471	698.557
192.315	13.693	935.003	698.451
193.329	13.695	934.639	698.124
194.344	13.852	933.591	697.939
195.359	13.897	932.753	697.440
196.373	13.807	932.491	696.807
197.388	13.902	932.007	696.781
198.402	13.977	931.673	696.786
199.417	14.047	930.669	696.267
200.432	14.020	930.207	695.745
201.446	14.082	929.847	695.674
202.461	14.211	929.108	695.596
203.475	14.030	928.648	694.435
204.490	14.121	927.390	693.813
205.504	14.165	926.887	693.560
206.519	14.070	926.440	692.769
207.534	14.159	925.625	692.467
208.548	14.113	925.100	691.821
209.563	14.199	924.304	691.525
210.577	14.163	923.466	690.687
211.592	14.168	922.824	690.163
212.607	14.330	921.994	690.153
213.621	14.389	921.041	689.622
214.636	14.275	920.687	688.826
215.650	14.388	919.674	688.472
216.665	14.388	919.312	688.141
217.680	14.347	918.509	687.313
218.694	14.314	917.932	686.682
219.709	14.275	917.462	686.110
220.723	14.320	916.805	685.743
221.738	14.334	916.009	685.144
222.753	14.429	915.278	684.928
223.767	14.519	914.587	684.721
224.782	14.441	914.397	684.198
225.796	14.452	913.757	683.704
226.811	14.388	913.332	683.061
227.826	14.446	912.344	682.498
228.840	14.495	911.543	682.040
229.855	14.496	910.796	681.425
230.869	14.543	909.876	680.869
231.884	14.425	909.364	679.943
232.899	14.519	908.536	679.648
233.913	14.438	907.988	678.846
234.928	14.254	907.407	677.606
235.942	14.480	906.656	677.901
236.957	14.367	906.123	676.986
237.972	14.309	905.829	676.470
238.986	14.498	904.634	676.283
240.001	14.554	904.027	675.995
241.015	14.624	903.366	675.725
242.030	14.579	902.643	674.943
243.045	14.498	902.505	674.452
244.059	14.558	901.758	674.076
245.074	14.582	901.356	673.816
246.088	14.572	900.306	672.928
247.103	14.591	899.855	672.610
248.117	14.716	899.248	672.601
249.132	14.636	899.074	672.086
250.147	14.788	898.101	671.912
251.161	14.913	897.132	671.632
252.176	14.880	896.443	670.922
253.190	14.868	896.329	670.730
254.205	14.943	895.246	670.159
255.220	14.924	894.929	669.786
256.234	14.879	894.144	668.961
257.249	15.062	893.290	668.994
258.263	15.026	892.377	668.106
259.278	15.056	891.645	667.618
260.293	14.988	891.488	667.170
261.307	15.031	890.993	666.912
262.322	15.121	890.140	666.577
263.336	15.111	889.279	665.831
264.351	15.389	888.256	666.109
265.366	15.192	887.915	665.014
266.380	15.155	887.374	664.403
267.395	15.292	886.209	664.014
268.409	15.269	885.445	663.292
269.424	15.116	884.976	662.276
270.439	15.122	884.647	661.996
271.453	15.112	883.892	661.331
272.468	15.167	883.206	660.980
273.482	15.014	883.237	660.339
274.497	15.172	882.101	660.056
275.512	15.329	881.200	659.939
276.526	15.269	880.669	659.248
277.541	15.361	880.396	659.347
278.555	15.285	880.151	658.806
279.570	15.177	879.463	657.808
280.585	15.318	878.560	657.630
281.599	15.413	877.608	657.229
282.614	15.439	877.033	656.843
283.628	15.391	876.184	655.959
284.643	15.404	875.623	655.533
285.657	15.375	875.577	655.328
286.672	15.515	874.907	655.313
287.687	15.399	874.207	654.281
288.701	15.586	873.356	654.314
289.716	15.460	872.996	653.496
290.730	15.417	872.824	653.142
291.745	15.451	871.777	652.434
292.760	15.556	871.090	652.267
293.774	15.444	870.804	651.561
294.789	15.506	869.808	650.999
295.803	15.525	869.189	650.551
296.818	15.572	868.318	650.026
297.833	15.580	867.723	649.552
298.847	15.682	867.044	649.383
299.862	15.645	866.536	648.799
300.876	15.652	866.051	648.406
301.891	15.680	865.374	647.951
302.906	15.695	864.737	647.474
303.920	15.742	864.487	647.410
304.935	15.927	863.619	647.416
305.949	15.889	863.055	646.789
306.964	15.835	862.503	646.111
307.979	15.834	861.930	645.621
308.993	15.774	861.686	645.149
310.008	15.878	860.869	644.879
311.022	15.902	860.424	644.581
312.037	15.892	859.562	643.839
313.052	15.809	859.241	643.226
314.066	15.739	858.407	642.277
315.081	15.808	858.134	642.280
316.095	15.823	857.213	641.590
317.110	15.724	857.018	641.011
318.125	15.823	856.875	641.223
319.139	15.909	856.088	640.906
320.154	15.890	855.600	640.411
321.168	15.812	854.890	639.527
322.183	16.039	854.074	639.720
323.197	15.990	853.889	639.340
324.212	15.971	853.702	639.069
325.227	15.873	852.495	637.740
326.241	15.871	852.507	637.686
327.256	16.002	851.411	637.303
328.270	16.105	850.872	637.235
329.285	15.882	850.417	635.995
330.300	15.950	849.554	635.548
331.314	15.931	849.211	635.163
332.329	15.984	848.903	635.080
333.343	16.062	848.253	634.828
334.358	15.964	847.979	634.198
335.373	16.081	847.742	634.407
336.387	16.005	847.365	633.783
337.402	16.167	846.966	634.036
338.416	16.345	846.360	634.196
339.431	16.179	846.235	633.422
340.446	16.449	845.185	633.594
341.460	16.255	845.408	632.977
342.475	16.348	844.826	632.833
343.489	16.377	844.632	632.741
344.504	16.278	844.074	631.893
345.519	16.276	843.636	631.505
346.533	16.328	843.239	631.347
347.548	16.289	842.462	630.562
348.562	16.355	841.831	630.282
349.577	16.301	841.317	629.640
350.592	16.244	840.856	629.024
351.606	16.277	840.021	628.467
352.621	16.340	839.098	627.955
353.635	16.300	838.880	627.590
354.650	16.247	837.905	626.606
355.665	16.400	837.392	626.734
356.679	16.548	836.397	626.484
357.694	16.440	836.424	626.048
358.708	16.515	835.297	625.426
359.723	16.488	834.889	624.965
360.738	16.450	834.166	624.231
361.752	16.525	833.816	624.188
362.767	16.539	833.105	623.652
363.781	16.723	832.463	623.793
364.796	16.652	832.107	623.210
365.810	16.696	831.747	623.048
366.825	16.815	831.450	623.210
367.840	16.668	831.198	622.425
368.854	16.535	830.690	621.500
369.869	16.543	830.533	621.355
370.883	16.671	829.918	621.310
371.898	16.693	829.593	621.095
372.913	16.953	828.795	621.396
373.927	16.755	828.359	620.289
374.942	16.798	828.066	620.170
375.956	16.748	827.703	619.661
376.971	16.847	826.827	619.311
377.986	17.006	826.406	619.522
379.000	16.818	826.364	618.750
380.015	16.894	825.983	618.685
381.029	17.057	825.060	618.536
382.044	16.967	824.419	617.672
383.059	17.073	823.652	617.429
384.073	16.972	823.345	616.776
385.088	16.950	822.834	616.258
386.102	17.048	822.330	616.182
387.117	17.068	821.421	615.521
388.132	17.055	821.054	615.144
389.146	16.988	820.648	614.543
390.161	17.163	820.211	614.793
391.175	17.153	819.571	614.225
392.190	17.122	819.257	613.820
393.205	17.112	818.852	613.428
394.219	17.096	818.477	613.036
395.234	17.022	818.098	612.428
396.248	17.041	817.802	612.221
397.263	17.006	817.430	611.762
398.278	17.026	816.990	611.454
399.292	17.035	816.141	610.795
400.307	17.069	815.773	610.589
401.321	17.159	815.071	610.332
402.336	17.279	814.779	610.489
403.350	17.066	814.685	609.601
404.365	17.107	814.138	609.285
405.380	17.343	812.976	609.208
406.394	17.268	812.761	608.722
407.409	17.332	812.325	608.572
408.423	17.329	812.111	608.346
409.438	17.390	812.055	608.467
410.453	17.424	811.323	607.988
411.467	17.391	810.779	607.410
412.482	17.381	810.353	607.001
413.496	17.595	809.950	607.407
414.511	17.494	809.919	606.971
415.526	17.683	809.197	607.049
416.540	17.548	808.476	605.975
417.555	17.357	808.273	605.087
418.569	17.570	807.878	605.498
419.584	17.523	807.675	605.123
420.599	17.452	806.843	604.197
421.613	114.018	1298.532	1488.556
422.628	98.495	1370.130	1488.628
