DTS Sentinel unit serial number:	SN413079Multiplexer serial number:	ORYXHardware model number:	OX4-SRSoftware version number:	ORYX F/W v4.00 Oryx Data Collector v3.7.2.0data status	okinstallation	princeton_trtdifferential loss correction	single-endedforward channel	channel 1reverse channel	N/Adate	2019/09/12time	00:16:11forward acquisition time	60.00reverse acquisition time	0.00gamma	496.2192k internal	0.2318k external	0.2318temperature offset calibration	1.0073default loss term (dB/km)	0.3790temperature slope calibration	1.0000multiplexer offset coefficient	1.0000multiplexer slope coefficient	1.0000fibre end	0.00T internal ref (°C)	33.56T ext. ref 1 (°C)	2.02T ext. ref 2 (°C)	27.87length (m)	temperature (°C)	Stokes	anti-Stokes-747.200	-74.930	0.271	-0.098
-746.185	800.000	0.145	0.465
-745.171	-62.366	0.132	0.056
-744.156	-147.305	-0.611	-0.053
-743.142	198.682	0.204	0.316
-742.127	-74.984	-0.226	0.082
-741.112	408.551	-0.043	0.093
-740.098	-44.273	-0.237	0.120
-739.083	-108.172	0.291	-0.064
-738.069	-142.657	-0.284	0.028
-737.054	188.832	-0.070	-0.105
-736.039	-118.149	-0.354	-0.064
-735.025	-56.671	0.113	-0.051
-734.010	-94.462	-0.172	0.047
-732.996	-200.000	-0.024	-0.166
-731.981	-72.399	-0.180	0.067
-730.966	-200.000	0.008	0.039
-729.952	86.083	-0.223	-0.248
-728.937	-131.999	0.219	0.029
-727.923	-200.000	0.009	-0.162
-726.908	-6.139	0.073	-0.050
-725.894	15.089	-0.087	-0.069
-724.879	49.977	0.109	0.104
-723.864	138.927	-0.130	0.173
-722.850	55.829	-0.198	-0.195
-721.835	-106.293	0.185	0.042
-720.821	-129.304	0.142	0.020
-719.806	-200.000	0.011	-0.201
-718.791	140.872	-0.058	0.077
-717.777	16.668	-0.196	-0.157
-716.762	126.271	-0.071	-0.090
-715.748	279.394	-0.063	-0.113
-714.733	131.873	-0.264	-0.343
-713.718	-30.166	-0.276	0.158
-712.704	346.011	-0.038	-0.076
-711.689	250.795	-0.066	-0.113
-710.675	-200.000	-0.052	0.259
-709.660	121.572	0.108	-0.136
-708.645	196.679	-0.077	0.118
-707.631	207.892	-0.250	0.395
-706.616	-200.000	-0.006	0.034
-705.602	-177.417	-0.241	0.006
-704.587	-40.421	-0.257	0.135
-703.572	-200.000	0.042	-0.367
-702.558	441.691	-0.059	-0.130
-701.543	800.000	0.044	-0.186
-700.529	140.764	-0.079	0.105
-699.514	-137.520	0.336	0.038
-698.499	-200.000	-0.014	0.121
-697.485	-200.000	0.006	0.182
-696.470	-142.081	0.293	0.029
-695.456	227.665	-0.109	-0.180
-694.441	-24.401	-0.129	-0.078
-693.426	-173.794	-0.123	-0.004
-692.412	80.383	0.157	0.171
-691.397	122.187	-0.118	-0.149
-690.383	-4.275	-0.110	0.077
-689.368	386.577	-0.079	-0.165
-688.354	800.000	-0.064	0.268
-687.339	-150.690	-0.441	0.034
-686.324	40.639	0.178	0.162
-685.310	-53.329	-0.416	-0.193
-684.295	-95.833	0.055	0.015
-683.281	-30.436	0.095	0.055
-682.266	-41.850	-0.170	0.088
-681.251	-150.400	-0.109	-0.008
-680.237	78.321	0.196	-0.212
-679.222	800.000	-0.066	-0.240
-678.208	-32.121	0.269	0.152
-677.193	-47.996	0.143	-0.070
-676.178	-181.553	-0.039	0.001
-675.164	317.427	-0.099	0.189
-674.149	-23.968	-0.179	0.108
-673.135	29.139	-0.198	-0.169
-672.120	304.221	-0.094	-0.177
-671.105	-0.117	-0.096	0.069
-670.091	16.411	-0.039	0.031
-669.076	-112.654	0.339	-0.068
-668.062	-82.259	-0.337	-0.111
-667.047	524.059	0.064	-0.152
-666.032	-146.320	-0.188	-0.017
-665.018	780.616	-0.077	0.211
-664.003	-160.391	0.313	0.017
-662.989	7.880	0.127	0.096
-661.974	-200.000	-0.007	0.165
-660.959	155.739	0.283	-0.393
-659.945	-200.000	-0.014	0.219
-658.930	-69.698	0.162	0.062
-657.916	-123.489	-0.161	-0.026
-656.901	26.895	0.441	-0.373
-655.886	-93.706	0.278	0.077
-654.872	-18.209	-0.182	0.115
-653.857	-200.000	0.009	-0.147
-652.843	238.413	0.140	-0.235
-651.828	3.805	0.197	0.145
-650.814	65.186	-0.055	-0.056
-649.799	163.248	-0.151	-0.214
-648.784	-200.000	-0.019	0.126
-647.770	800.000	0.027	0.102
-646.755	-35.076	-0.317	-0.174
-645.741	-22.050	-0.202	-0.123
-644.726	-200.000	-0.021	-0.115
-643.711	-150.691	0.379	-0.029
-642.697	-200.000	-0.118	0.569
-641.682	-200.000	-0.003	0.088
-640.668	-106.659	0.156	-0.035
-639.653	729.430	0.034	0.090
-638.638	-69.059	0.046	0.018
-637.624	-200.000	-0.068	0.411
-636.609	-75.502	0.208	0.075
-635.595	800.000	-0.065	0.258
-634.580	79.720	-0.211	0.229
-633.565	122.660	0.098	0.124
-632.551	51.384	-0.249	0.239
-631.536	-95.160	-0.046	-0.013
-630.522	-126.049	0.150	-0.023
-629.507	-99.076	0.200	0.051
-628.492	-141.972	0.076	0.008
-627.478	-117.652	-0.243	-0.044
-626.463	-7.208	-0.193	-0.132
-625.449	-9.473	-0.209	-0.141
-624.434	-142.539	-0.173	0.017
-623.419	-20.573	0.072	0.044
-622.405	388.238	-0.120	0.251
-621.390	224.070	-0.074	0.120
-620.376	-200.000	-0.089	-0.471
-619.361	-200.000	0.015	-0.348
-618.346	-200.000	0.036	-0.308
-617.332	-137.885	0.059	-0.007
-616.317	800.000	0.054	0.222
-615.303	10.319	0.053	-0.041
-614.288	-161.641	0.250	-0.013
-613.273	180.674	0.126	-0.187
-612.259	-83.814	-0.169	-0.054
-611.244	17.535	-0.126	-0.101
-610.230	-200.000	-0.001	0.012
-609.215	59.286	-0.050	0.049
-608.201	-40.524	-0.145	-0.076
-607.186	-118.761	-0.037	-0.007
-606.171	-2.488	-0.201	-0.142
-605.157	800.000	0.047	0.131
-604.142	-15.226	-0.116	-0.075
-603.128	200.525	0.195	-0.301
-602.113	573.259	0.052	-0.127
-601.098	-113.159	0.052	0.010
-600.084	-200.000	-0.003	0.244
-599.069	46.654	0.084	-0.078
-598.055	-79.493	-0.135	0.046
-597.040	-200.000	-0.003	0.109
-596.025	-200.000	0.007	0.080
-595.011	140.950	-0.162	-0.216
-593.996	173.125	0.065	-0.094
-592.982	-200.000	-0.078	0.362
-591.967	-200.000	0.001	0.241
-590.952	-2.554	0.251	0.177
-589.938	188.865	0.069	-0.105
-588.923	800.000	-0.055	-0.167
-587.909	-23.015	-0.060	0.036
-586.894	-153.796	0.603	-0.042
-585.879	123.138	0.019	-0.024
-584.865	345.397	0.049	-0.097
-583.850	162.473	0.311	-0.439
-582.836	321.685	-0.098	-0.188
-581.821	-78.379	-0.158	-0.054
-580.806	-79.937	-0.361	0.122
-579.792	113.290	0.173	0.211
-578.777	-35.464	-0.122	-0.066
-577.763	-200.000	0.024	-0.163
-576.748	-31.169	0.177	-0.100
-575.733	-200.000	-0.041	-0.389
-574.719	-23.171	-0.289	-0.175
-573.704	-200.000	-0.095	0.460
-572.690	363.187	-0.115	0.233
-571.675	211.606	0.122	-0.193
-570.661	-81.101	0.186	0.062
-569.646	519.516	0.161	0.380
-568.631	380.276	-0.078	0.162
-567.617	15.844	-0.256	-0.203
-566.602	-55.698	0.157	0.070
-565.588	-146.302	0.269	0.024
-564.573	-200.000	-0.016	0.082
-563.558	-24.580	-0.023	0.014
-562.544	-33.062	0.365	0.203
-561.529	-200.000	-0.009	-0.135
-560.515	-67.412	0.210	-0.083
-559.500	-50.412	0.148	-0.070
-558.485	-200.000	0.005	0.141
-557.471	236.876	0.087	0.144
-556.456	-109.918	0.251	0.053
-555.442	0.550	0.345	0.248
-554.427	179.455	-0.165	0.243
-553.412	800.000	0.070	0.262
-552.398	-150.182	-0.250	-0.019
-551.383	145.419	0.260	0.349
-550.369	511.436	-0.063	-0.147
-549.354	44.957	0.141	-0.131
-548.339	285.222	0.088	0.159
-547.325	-49.097	0.170	-0.082
-546.310	800.000	0.043	0.135
-545.296	495.593	-0.107	0.248
-544.281	-100.665	0.242	-0.060
-543.266	235.973	0.235	-0.390
-542.252	-200.000	0.011	0.272
-541.237	-97.612	-0.129	-0.034
-540.223	-9.949	0.137	0.092
-539.208	69.780	0.108	-0.112
-538.193	-136.616	0.225	-0.026
-537.179	-200.000	0.024	-0.116
-536.164	-52.033	0.296	0.138
-535.150	81.065	-0.170	0.184
-534.135	-59.684	-0.235	0.101
-533.121	127.327	-0.117	0.149
-532.106	-59.648	-0.088	-0.038
-531.091	-200.000	-0.005	-0.148
-530.077	-61.426	0.230	-0.097
-529.062	-200.000	0.048	0.303
-528.048	174.972	0.166	0.241
-527.033	146.600	-0.203	0.274
-526.018	-200.000	0.020	-0.163
-525.004	-106.801	0.355	0.079
-523.989	-18.538	-0.381	-0.238
-522.975	125.085	0.299	-0.377
-521.960	-200.000	-0.015	0.416
-520.945	-200.000	0.009	-0.242
-519.931	-2.640	0.071	0.050
-518.916	251.332	-0.137	0.233
-517.902	140.009	-0.203	-0.269
-516.887	-141.755	-0.300	0.030
-515.872	-200.000	-0.023	-0.196
-514.858	-120.176	-0.150	0.026
-513.843	-200.000	-0.009	0.093
-512.829	800.000	0.018	0.072
-511.814	-18.829	-0.252	0.157
-510.799	17.067	0.304	-0.242
-509.785	15.284	-0.121	-0.095
-508.770	-101.016	-0.199	-0.049
-507.756	42.900	-0.142	-0.130
-506.741	523.669	-0.162	0.381
-505.726	-140.485	0.393	0.041
-504.712	800.000	0.147	-0.555
-503.697	-78.558	-0.286	0.098
-502.683	-37.827	0.284	0.152
-501.668	-7.071	-0.258	0.175
-500.653	23.819	0.032	-0.027
-499.639	-97.224	0.370	0.097
-498.624	-36.134	-0.214	-0.116
-497.610	8.875	-0.207	-0.156
-496.595	-50.779	-0.235	-0.111
-495.581	-170.157	-0.009	0.000
-494.566	800.000	0.037	0.156
-493.551	-39.372	0.065	0.034
-492.537	-200.000	0.038	-0.247
-491.522	187.094	0.147	0.219
-490.508	183.478	-0.126	0.187
-489.493	800.000	0.024	-0.095
-488.478	446.401	-0.070	0.155
-487.464	800.000	-0.040	-0.149
-486.449	-14.162	0.252	-0.163
-485.435	79.728	-0.254	-0.274
-484.420	403.726	0.160	-0.337
-483.405	800.000	-0.059	-0.199
-482.391	-31.249	0.212	0.119
-481.376	800.000	-0.070	0.242
-480.362	342.755	0.051	0.100
-479.347	-200.000	0.008	-0.127
-478.332	-113.917	-0.275	-0.053
-477.318	-70.392	0.185	-0.070
-476.303	-90.452	0.214	0.062
-475.289	1.612	0.121	-0.087
-474.274	63.260	-0.084	-0.084
-473.259	-70.533	-0.278	0.106
-472.245	-119.283	0.355	0.062
-471.230	-157.847	0.298	-0.018
-470.216	-81.883	-0.339	0.111
-469.201	800.000	-0.035	0.105
-468.186	223.471	-0.051	-0.082
-467.172	-200.000	0.042	-0.399
-466.157	800.000	-0.077	0.234
-465.143	-20.695	-0.250	-0.153
-464.128	-200.000	-0.012	-0.223
-463.113	-177.775	0.365	0.009
-462.099	-200.000	-0.027	-0.209
-461.084	49.516	0.135	0.127
-460.070	-115.518	-0.216	0.041
-459.055	110.535	-0.141	0.170
-458.040	88.461	-0.288	0.320
-457.026	71.835	0.093	0.096
-456.011	266.254	0.109	-0.190
-454.997	-40.986	-0.205	0.106
-453.982	-37.905	-0.366	0.195
-452.968	800.000	-0.133	0.383
-451.953	-21.769	-0.285	0.174
-450.938	-38.642	-0.277	0.146
-449.924	800.000	-0.056	0.173
-448.909	0.975	-0.309	-0.222
-447.895	-200.000	-0.025	-0.331
-446.880	800.000	-0.017	-0.053
-445.865	-117.830	-0.320	0.058
-444.851	58.650	0.040	0.039
-443.836	411.996	0.062	0.131
-442.822	424.429	-0.123	-0.265
-441.807	10.791	-0.305	0.233
-440.792	1.022	0.139	-0.100
-439.778	67.917	0.182	0.186
-438.763	-93.819	-0.157	-0.043
-437.749	-153.331	0.214	0.015
-436.734	-144.349	0.184	0.017
-435.719	-52.452	-0.202	-0.094
-434.705	-200.000	0.051	0.420
-433.690	140.755	-0.077	-0.102
-432.676	-113.473	-0.157	0.031
-431.661	-154.216	0.042	0.003
-430.646	-120.351	-0.226	-0.038
-429.632	398.611	0.030	0.062
-428.617	-139.478	-0.179	-0.019
-427.603	190.952	0.116	-0.175
-426.588	-25.501	-0.054	-0.032
-425.573	-9.984	-0.345	-0.229
-424.559	18.736	-0.128	0.102
-423.544	-105.752	-0.157	0.035
-422.530	-68.122	0.337	0.131
-421.515	-44.116	0.185	-0.093
-420.500	168.392	0.243	-0.345
-419.486	-10.834	0.093	0.061
-418.471	-127.048	-0.170	0.025
-417.457	-26.193	0.221	0.129
-416.442	-96.310	0.052	-0.014
-415.428	65.647	-0.239	-0.242
-414.413	-90.619	-0.170	-0.049
-413.398	-102.435	-0.082	-0.020
-412.384	40.150	-0.075	-0.067
-411.369	-70.954	0.310	-0.117
-410.355	-65.456	-0.195	-0.078
-409.340	27.725	0.117	0.098
-408.325	-200.000	-0.003	-0.189
-407.311	242.417	-0.038	0.064
-406.296	800.000	0.055	-0.223
-405.282	-200.000	-0.068	-0.461
-404.267	105.665	0.058	0.068
-403.252	96.354	-0.237	0.270
-402.238	-161.785	0.426	-0.022
-401.223	-1.239	0.140	-0.099
-400.209	-200.000	-0.019	0.258
-399.194	-144.718	0.259	0.024
-398.179	510.020	0.079	-0.184
-397.165	752.595	0.129	-0.349
-396.150	-80.431	0.154	-0.051
-395.136	125.792	0.160	-0.202
-394.121	-200.000	0.044	-0.222
-393.106	-200.000	-0.000	0.004
-392.092	-169.135	0.113	0.004
-391.077	420.892	-0.096	0.205
-390.063	-157.438	0.207	-0.012
-389.048	-9.129	-0.186	0.124
-388.033	800.000	-0.075	0.256
-387.019	-39.728	-0.170	-0.089
-386.004	-105.894	0.088	0.020
-384.990	-200.000	-0.030	0.176
-383.975	510.708	0.071	-0.165
-382.960	106.884	0.057	-0.068
-381.946	314.386	-0.011	-0.022
-380.931	800.000	0.037	-0.134
-379.917	46.575	0.114	0.105
-378.902	-144.647	-0.212	0.020
-377.888	-50.595	0.210	0.099
-376.873	419.267	-0.113	0.240
-375.858	49.406	-0.109	-0.103
-374.844	-200.000	-0.003	-0.375
-373.829	-24.298	0.201	-0.119
-372.815	-163.707	0.302	0.014
-371.800	-200.000	-0.022	0.222
-370.785	-200.000	0.009	0.100
-369.771	-32.377	-0.152	-0.085
-368.756	72.055	0.078	0.081
-367.742	-110.705	-0.259	0.053
-366.727	-200.000	-0.015	0.117
-365.712	-200.000	0.001	-0.196
-364.698	188.185	0.110	0.163
-363.683	-102.070	-0.252	0.061
-362.669	-77.038	0.141	0.049
-361.654	264.172	-0.142	-0.246
-360.639	126.129	-0.130	0.164
-359.625	-138.128	-0.162	-0.018
-358.610	-93.246	-0.254	0.070
-357.596	-200.000	0.000	-0.080
-356.581	32.311	0.088	0.076
-355.566	-56.282	-0.341	-0.151
-354.552	-116.586	0.088	0.016
-353.537	127.449	0.042	-0.054
-352.523	111.228	0.048	-0.058
-351.508	143.445	-0.245	-0.325
-350.493	-200.000	-0.018	0.166
-349.479	-200.000	-0.005	-0.180
-348.464	-200.000	-0.034	-0.398
-347.450	-162.393	-0.114	-0.006
-346.435	-200.000	0.026	0.165
-345.420	316.178	0.138	-0.260
-344.406	102.198	-0.126	0.146
-343.391	712.026	0.104	0.275
-342.377	403.236	-0.113	0.237
-341.362	-78.990	0.219	-0.074
-340.348	-12.740	0.210	0.136
-339.333	800.000	-0.051	0.209
-338.318	-126.005	-0.211	0.032
-337.304	147.256	0.199	0.266
-336.289	-61.147	-0.130	0.055
-335.275	591.720	0.040	-0.097
-334.260	-90.056	-0.348	-0.101
-333.245	-200.000	-0.003	0.059
-332.231	-111.477	0.135	-0.027
-331.216	800.000	-0.081	-0.279
-330.202	-0.853	-0.066	0.047
-329.187	800.000	-0.007	0.028
-328.172	172.348	-0.129	-0.184
-327.158	-200.000	-0.012	0.294
-326.143	5.795	-0.243	-0.179
-325.129	800.000	-0.063	-0.220
-324.114	-62.884	0.360	0.148
-323.099	-200.000	-0.019	-0.242
-322.085	39.439	0.145	-0.129
-321.070	-200.000	-0.054	0.288
-320.056	800.000	-0.045	0.175
-319.041	-102.223	0.086	0.021
-318.026	283.832	0.144	-0.258
-317.012	251.286	0.020	-0.034
-315.997	45.217	-0.169	-0.155
-314.983	-200.000	0.035	-0.242
-313.968	-84.065	-0.389	0.123
-312.953	670.889	-0.074	0.190
-311.939	-35.877	-0.031	0.017
-310.924	351.568	-0.099	0.195
-309.910	38.463	0.158	0.140
-308.895	-200.000	0.046	-0.311
-307.880	-200.000	0.009	-0.312
-306.866	-103.082	-0.140	0.033
-305.851	-138.158	0.341	0.038
-304.837	24.910	0.076	0.063
-303.822	2.374	0.141	0.102
-302.807	79.651	-0.026	-0.027
-301.793	-200.000	-0.004	-0.317
-300.778	-3.415	0.113	0.078
-299.764	389.380	0.130	-0.268
-298.749	22.844	-0.110	-0.090
-297.735	126.451	0.184	-0.232
-296.720	56.820	-0.322	-0.312
-295.705	183.633	0.181	0.267
-294.691	-9.802	-0.333	0.220
-293.676	-35.951	-0.183	0.098
-292.662	674.194	0.056	-0.143
-291.647	-200.000	-0.028	-0.139
-290.632	-163.949	-0.273	0.013
-289.618	-5.195	0.117	0.080
-288.603	-200.000	0.020	0.126
-287.589	-200.000	0.041	0.378
-286.574	657.982	0.099	0.253
-285.559	-200.000	0.003	-0.179
-284.545	-200.000	0.002	-0.186
-283.530	800.000	-0.124	0.361
-282.516	-94.674	0.201	0.054
-281.501	-140.037	-0.302	-0.032
-280.486	-53.880	0.016	-0.007
-279.472	-200.000	-0.020	0.238
-278.457	-139.431	0.097	0.010
-277.443	-200.000	0.029	-0.243
-276.428	-200.000	-0.039	-0.184
-275.413	571.222	-0.045	0.110
-274.399	68.809	-0.346	-0.353
-273.384	-102.196	0.238	0.057
-272.370	544.605	-0.114	0.271
-271.355	-86.229	0.385	0.118
-270.340	189.200	-0.105	0.157
-269.326	800.000	0.018	-0.052
-268.311	800.000	0.101	-0.331
-267.297	304.449	-0.130	-0.240
-266.282	-54.648	-0.262	-0.118
-265.267	800.000	0.030	-0.110
-264.253	-129.859	0.308	-0.042
-263.238	-12.761	0.321	-0.208
-262.224	360.575	-0.174	-0.347
-261.209	800.000	0.070	-0.223
-260.195	800.000	-0.046	-0.196
-259.180	246.347	-0.135	0.226
-258.165	353.061	-0.100	-0.197
-257.151	-200.000	0.018	-0.138
-256.136	-186.369	-0.164	-0.002
-255.122	-200.000	-0.021	0.238
-254.107	800.000	-0.006	0.018
-253.092	55.640	0.101	0.097
-252.078	40.181	-0.052	-0.046
-251.063	-69.407	0.402	-0.153
-250.049	-200.000	-0.012	0.081
-249.034	-135.732	-0.434	-0.051
-248.019	800.000	-0.102	0.338
-247.005	104.066	0.065	-0.076
-245.990	-120.836	0.272	-0.046
-244.976	2.978	-0.093	-0.067
-243.961	-146.049	0.231	0.020
-242.946	330.488	-0.047	0.089
-241.932	-149.883	0.350	-0.027
-240.917	175.318	0.252	0.362
-239.903	-90.331	0.197	0.057
-238.888	228.795	0.186	-0.302
-237.873	-13.837	0.038	-0.024
-236.859	62.710	0.143	-0.142
-235.844	-46.576	0.084	-0.041
-234.830	-67.013	0.224	0.088
-233.815	49.105	0.214	-0.200
-232.800	-200.000	0.010	-0.492
-231.786	800.000	-0.053	0.215
-230.771	14.506	-0.326	0.252
-229.757	800.000	-0.067	0.277
-228.742	800.000	-0.018	-0.067
-227.727	-74.482	-0.104	0.037
-226.713	501.284	0.063	-0.143
-225.698	326.500	0.109	-0.208
-224.684	-32.193	0.015	-0.008
-223.669	231.727	0.202	0.328
-222.655	-94.120	0.354	0.096
-221.640	-147.939	-0.331	0.027
-220.625	-67.089	-0.277	-0.108
-219.611	296.658	0.185	0.337
-218.596	36.650	-0.147	0.129
-217.582	-144.805	0.374	-0.034
-216.567	52.963	0.250	-0.237
-215.552	-61.789	0.263	-0.109
-214.538	338.026	0.080	0.154
-213.523	161.883	0.059	-0.081
-212.509	108.873	-0.143	-0.170
-211.494	-68.565	-0.350	0.134
-210.479	-200.000	0.009	-0.070
-209.465	-200.000	0.061	0.306
-208.450	-200.000	0.020	-0.448
-207.436	99.086	-0.193	0.221
-206.421	-200.000	-0.051	0.408
-205.406	547.826	-0.027	-0.063
-204.392	-177.296	0.223	-0.005
-203.377	106.192	-0.108	-0.127
-202.363	-200.000	-0.006	0.099
-201.348	800.000	-0.068	0.256
-200.333	-52.016	-0.337	-0.155
-199.319	-0.935	0.065	-0.046
-198.304	202.853	-0.094	-0.145
-197.290	-170.289	0.123	-0.004
-196.275	148.081	-0.046	-0.061
-195.260	-200.000	0.019	-0.284
-194.246	-112.307	0.057	0.011
-193.231	-116.705	0.263	0.048
-192.217	557.801	-0.127	0.302
-191.202	-200.000	-0.010	0.245
-190.187	24.403	0.042	-0.034
-189.173	-101.155	0.144	-0.035
-188.158	-5.289	-0.224	0.153
-187.144	-190.095	-0.366	0.004
-186.129	-62.585	-0.184	0.076
-185.114	-131.207	-0.305	-0.040
-184.100	-200.000	0.008	0.236
-183.085	-7.672	0.313	-0.209
-182.071	231.247	-0.075	0.122
-181.056	-125.719	0.206	0.031
-180.042	-200.000	0.009	0.106
-179.027	142.221	-0.153	0.201
-178.012	214.687	-0.210	0.329
-176.998	-200.000	-0.033	0.241
-175.983	463.437	-0.067	-0.149
-174.969	-34.069	0.104	-0.056
-173.954	-21.542	-0.129	-0.078
-172.939	177.711	-0.192	-0.277
-171.925	-97.553	0.192	0.049
-170.910	-23.306	-0.238	-0.142
-169.896	-200.000	0.003	-0.118
-168.881	192.098	0.173	-0.258
-167.866	41.812	0.217	-0.195
-166.852	-50.487	-0.178	0.083
-165.837	-200.000	0.035	-0.264
-164.823	154.894	-0.103	0.140
-163.808	800.000	0.038	-0.119
-162.793	-5.593	0.270	0.183
-161.779	-70.668	0.229	-0.086
-160.764	-139.661	0.313	0.033
-159.750	-79.846	-0.108	-0.036
-158.735	-43.881	-0.264	-0.131
-157.720	155.504	-0.102	0.138
-156.706	-54.722	0.230	0.103
-155.691	-200.000	0.032	0.256
-154.677	-200.000	0.034	0.185
-153.662	800.000	0.044	0.154
-152.647	103.260	0.055	0.064
-151.633	-101.798	0.197	-0.047
-150.618	-7.400	0.232	-0.155
-149.604	95.523	-0.146	0.165
-148.589	-200.000	-0.031	0.230
-147.574	-87.130	0.282	0.085
-146.560	800.000	-0.031	-0.098
-145.545	-24.440	0.313	-0.184
-144.531	-200.000	0.013	0.356
-143.516	79.331	-0.146	0.155
-142.502	-160.108	0.417	-0.022
-141.487	87.256	0.023	-0.025
-140.472	59.415	0.132	-0.128
-139.458	168.556	0.169	-0.237
-138.443	-200.000	0.014	0.313
-137.429	-105.967	-0.154	0.034
-136.414	-110.187	-0.175	0.036
-135.399	800.000	-0.107	-0.381
-134.385	-200.000	0.007	-0.076
-133.370	-200.000	0.010	-0.217
-132.356	669.519	0.008	-0.020
-131.341	-0.726	-0.198	-0.139
-130.326	-31.116	0.433	0.241
-129.312	-76.439	0.387	-0.134
-128.297	-76.894	-0.081	0.028
-127.283	-81.400	0.135	0.044
-126.268	-144.521	0.191	-0.017
-125.253	-138.305	0.220	-0.024
-124.239	800.000	-0.087	0.297
-123.224	-200.000	0.026	-0.218
-122.210	-200.000	-0.036	0.263
-121.195	85.638	0.113	0.123
-120.180	-46.957	-0.134	0.065
-119.166	-15.255	0.233	-0.147
-118.151	-100.463	-0.216	0.053
-117.137	6.631	0.220	0.162
-116.122	-145.923	0.409	0.036
-115.107	95.367	-0.273	0.307
-114.093	369.250	0.133	0.265
-113.078	786.241	-0.027	-0.072
-112.064	40.583	-0.345	0.307
-111.049	-21.849	0.288	-0.173
-110.034	-80.976	-0.068	-0.022
-109.020	-80.195	0.235	0.078
-108.005	-200.000	0.040	0.297
-106.991	-95.381	-0.147	-0.039
-105.976	694.091	-0.071	-0.184
-104.962	-200.000	0.002	-0.091
-103.947	-200.000	0.001	-0.177
-102.932	2.687	0.208	-0.149
-101.918	800.000	0.094	0.299
-100.903	800.000	-0.043	-0.146
-99.889	-200.000	-0.011	0.229
-98.874	-132.383	-0.146	-0.019
-97.859	12.850	-0.085	-0.065
-96.845	-117.783	-0.300	0.053
-95.830	214.623	0.078	-0.121
-94.816	-46.030	-0.136	0.066
-93.801	157.443	-0.096	-0.131
-92.786	800.000	-0.064	0.253
-91.772	65.779	0.377	0.377
-90.757	31.316	-0.224	0.189
-89.743	-95.421	-0.024	0.006
-88.728	430.000	0.049	-0.104
-87.713	-200.000	0.013	0.092
-86.699	-200.000	0.035	-0.266
-85.684	-44.291	-0.242	0.120
-84.670	-200.000	-0.037	0.177
-83.655	-125.158	0.216	0.033
-82.640	-200.000	-0.021	0.143
-81.626	254.603	0.153	0.259
-80.611	-119.055	0.213	-0.037
-79.597	26.785	0.044	-0.036
-78.582	-58.874	-0.266	0.114
-77.567	-152.161	0.304	0.022
-76.553	-200.000	0.016	0.227
-75.538	-200.000	-0.016	0.164
-74.524	-200.000	-0.011	0.080
-73.509	-12.680	0.228	0.147
-72.494	800.000	-0.142	-0.392
-71.480	-17.049	-0.154	0.096
-70.465	-137.855	-0.400	0.044
-69.451	-25.005	-0.298	0.174
-68.436	93.849	-0.110	0.123
-67.422	151.427	-0.139	-0.186
-66.407	-26.379	-0.087	0.051
-65.392	-47.295	-0.145	-0.070
-64.378	-172.170	-0.364	-0.012
-63.363	800.000	0.136	0.389
-62.349	695.108	-0.046	-0.119
-61.334	282.884	-0.531	-0.939
-60.319	-8.245	0.388	0.257
-59.305	605.135	-0.302	-0.741
-58.290	486.313	0.536	1.203
-57.276	451.209	0.808	1.758
-56.261	-200.000	97.102	581.256
-55.246	541.867	1389.081	3261.417
-54.232	156.462	2574.370	3500.441
-53.217	111.563	2148.703	2553.097
-52.203	44.839	1608.588	1458.062
-51.188	37.118	1346.457	1173.933
-50.173	33.740	1304.560	1117.510
-49.159	56.248	1351.603	1293.012
-48.144	58.378	1369.037	1322.374
-47.130	37.267	1325.942	1156.750
-46.115	33.840	1308.872	1121.615
-45.100	33.577	1304.069	1115.909
-44.086	33.384	1302.220	1113.148
-43.071	33.426	1299.736	1111.225
-42.057	33.373	1297.480	1108.943
-41.042	33.484	1296.224	1108.476
-40.027	33.504	1294.666	1107.214
-39.013	33.451	1292.802	1105.267
-37.998	33.536	1290.570	1103.810
-36.984	33.571	1289.137	1102.745
-35.969	33.645	1287.149	1101.432
-34.954	33.668	1285.636	1100.224
-33.940	33.616	1284.797	1099.164
-32.925	33.649	1283.147	1097.901
-31.911	33.663	1281.666	1096.668
-30.896	33.624	1280.210	1095.152
-29.881	33.602	1279.092	1094.030
-28.867	33.654	1277.377	1092.816
-27.852	33.591	1276.489	1091.653
-26.838	33.730	1274.414	1090.633
-25.823	33.695	1273.500	1089.604
-24.809	33.687	1271.729	1088.000
-23.794	33.584	1270.611	1086.410
-22.779	33.519	1269.239	1084.823
-21.765	33.676	1267.898	1084.529
-20.750	33.667	1266.712	1083.424
-19.736	33.495	1265.582	1081.433
-18.721	33.568	1264.207	1080.629
-17.706	33.484	1263.228	1079.270
-16.692	33.629	1261.674	1078.723
-15.677	33.592	1260.569	1077.531
-14.663	33.544	1259.933	1076.671
-13.648	33.534	1258.920	1075.702
-12.633	33.400	1258.300	1074.370
-11.619	33.476	1257.129	1073.759
-10.604	33.433	1256.672	1073.085
-9.590	33.515	1255.154	1072.210
-8.575	33.435	1254.472	1071.134
-7.560	33.508	1253.271	1070.473
-6.546	33.479	1252.503	1069.614
-5.531	33.427	1251.564	1068.476
-4.517	33.542	1250.675	1068.319
-3.502	33.415	1250.088	1067.061
-2.487	33.453	1249.593	1066.813
-1.473	33.434	1245.305	1063.002
-0.458	32.074	1230.300	1042.606
0.556	29.099	1212.929	1005.705
1.571	25.425	1218.578	990.095
2.586	24.760	1234.204	998.984
3.600	24.432	1223.721	988.599
4.615	18.175	1150.177	896.419
5.629	7.436	1072.359	782.949
6.644	2.419	1050.973	742.956
7.659	1.982	1048.682	739.153
8.673	1.811	1047.438	737.385
9.688	1.880	1045.942	736.602
10.702	2.424	1044.732	738.308
11.717	9.276	1054.536	778.445
12.731	19.538	1068.867	839.084
13.746	24.304	1074.535	866.685
14.761	25.107	1075.051	870.927
15.775	25.116	1074.834	870.720
16.790	24.704	1074.148	868.084
17.804	24.746	1073.741	867.886
18.819	24.963	1072.815	868.110
19.834	25.194	1072.488	868.890
20.848	25.123	1072.375	868.376
21.863	25.078	1071.833	867.645
22.877	25.014	1071.400	866.907
23.892	25.038	1070.310	866.063
24.907	24.976	1069.911	865.363
25.921	24.925	1068.741	864.093
26.936	24.990	1066.901	862.844
27.950	24.976	1065.342	861.441
28.965	24.903	1064.030	859.952
29.980	24.893	1062.462	858.561
30.994	25.064	1061.483	858.514
32.009	25.110	1060.714	858.037
33.023	24.724	1060.032	855.560
34.038	24.979	1058.493	855.460
35.053	25.096	1057.659	855.268
36.067	25.105	1057.244	854.902
37.082	25.100	1056.484	854.186
38.096	25.378	1055.719	854.818
39.111	25.306	1055.704	854.387
40.126	25.220	1053.585	852.189
41.140	24.815	1051.952	848.870
42.155	24.629	1050.782	846.971
43.169	24.851	1049.512	846.919
44.184	24.771	1049.315	846.309
45.199	24.710	1047.837	844.752
46.213	24.809	1047.038	844.504
47.228	24.945	1046.383	844.540
48.242	24.876	1045.930	843.774
49.257	25.049	1045.047	843.803
50.271	25.080	1044.358	843.318
51.286	25.109	1044.269	843.308
52.301	25.147	1042.619	842.081
53.315	25.097	1041.822	841.128
54.330	25.055	1040.735	839.976
55.344	25.028	1040.001	839.186
56.359	24.935	1039.584	838.340
57.374	24.899	1037.969	836.795
58.388	24.911	1037.333	836.264
59.403	24.781	1036.240	834.702
60.417	24.658	1035.515	833.468
61.432	24.646	1035.711	833.496
62.447	24.857	1034.293	833.266
63.461	24.769	1033.934	832.492
64.476	24.913	1032.603	832.019
65.490	24.659	1031.783	830.104
66.505	24.692	1031.110	829.641
67.520	24.870	1030.235	829.687
68.534	24.561	1029.372	827.488
69.549	24.269	1028.355	825.245
70.563	24.393	1027.123	824.757
71.578	24.431	1026.521	824.376
72.593	24.083	1025.659	822.008
73.607	24.358	1025.109	822.760
74.622	24.769	1024.455	824.055
75.636	24.597	1024.069	822.881
76.651	24.272	1023.605	820.941
77.666	24.329	1022.289	820.076
78.680	24.475	1021.778	820.263
79.695	24.595	1021.385	820.426
80.709	24.625	1020.848	820.057
81.724	24.556	1019.730	818.774
82.739	24.728	1018.660	818.629
83.753	24.996	1018.626	819.756
84.768	25.352	1017.677	820.547
85.782	25.489	1016.941	820.505
86.797	25.253	1016.445	818.958
87.812	25.192	1014.766	817.251
88.826	25.315	1013.672	816.861
89.841	25.273	1013.537	816.488
90.855	25.314	1012.542	815.801
91.870	25.362	1011.573	815.163
92.884	25.147	1010.323	813.112
93.899	25.045	1009.208	811.679
94.914	25.197	1008.963	812.098
95.928	25.079	1007.709	810.482
96.943	25.083	1005.447	808.611
97.957	24.663	1005.234	806.471
98.972	24.650	1004.010	805.362
99.987	24.779	1003.692	805.615
101.001	25.008	1002.655	805.743
102.016	24.924	1002.172	804.907
103.030	24.920	1001.310	804.125
104.045	24.770	1000.158	802.454
105.060	24.634	999.071	800.900
106.074	24.822	998.604	801.300
107.089	25.070	998.225	802.034
108.103	25.072	996.261	800.393
109.118	24.804	995.448	798.476
110.133	24.748	994.684	797.539
111.147	24.566	993.730	795.894
112.162	24.513	992.535	794.633
113.176	24.762	992.073	795.298
114.191	24.563	991.328	793.746
115.206	24.235	990.174	791.296
116.220	24.307	989.695	791.165
117.235	24.491	988.860	791.242
118.249	24.457	987.524	789.950
119.264	24.376	987.013	789.115
120.279	24.461	986.145	788.724
121.293	24.489	985.742	788.458
122.308	24.514	984.743	787.701
123.322	24.439	983.294	786.141
124.337	24.331	982.026	784.580
125.352	23.895	980.423	781.315
126.366	23.889	979.796	780.722
127.381	24.511	979.952	783.506
128.395	24.994	979.533	785.219
129.410	25.126	978.574	784.958
130.424	25.072	977.539	783.825
131.439	24.929	976.841	782.571
132.454	24.951	976.087	781.993
133.468	25.137	974.565	781.514
134.483	25.066	974.307	780.929
135.497	25.155	973.728	780.785
136.512	25.210	972.978	780.352
137.527	25.217	972.231	779.715
138.541	25.235	971.097	778.816
139.556	25.334	970.299	778.538
140.570	25.379	969.400	777.940
141.585	25.282	968.407	776.654
142.600	25.165	967.792	775.587
143.614	25.469	966.850	776.078
144.629	25.630	966.055	776.065
145.643	25.514	964.774	774.467
146.658	25.242	963.614	772.298
147.673	25.274	962.319	771.330
148.687	25.211	961.317	770.185
149.702	25.103	960.214	768.772
150.716	25.089	959.709	768.240
151.731	24.943	959.600	767.459
152.746	25.394	958.486	768.428
153.760	25.300	958.322	767.828
154.775	25.540	957.459	768.094
155.789	25.349	956.327	766.303
156.804	25.440	955.467	765.934
157.819	25.456	954.469	765.135
158.833	25.489	954.403	765.153
159.848	25.469	953.435	764.227
160.862	25.375	952.017	762.623
161.877	25.380	951.250	761.959
162.892	25.439	950.146	761.261
163.906	25.356	949.138	760.032
164.921	25.326	948.446	759.284
165.935	25.443	947.354	758.838
166.950	25.393	946.549	757.915
167.964	25.485	945.781	757.619
168.979	25.330	944.635	755.981
169.994	25.289	943.676	754.976
171.008	25.488	943.024	755.224
172.023	25.597	942.030	754.817
173.037	25.334	940.588	752.495
174.052	25.172	940.275	751.497
175.067	25.158	939.483	750.742
176.081	25.283	939.277	751.033
177.096	25.093	938.837	749.819
178.110	24.913	937.363	747.826
179.125	24.843	936.673	746.916
180.140	24.798	936.496	746.522
181.154	25.053	936.033	747.148
182.169	25.321	935.964	748.146
183.183	25.301	935.661	747.755
184.198	25.266	934.584	746.681
185.213	25.373	933.635	746.300
186.227	25.309	933.296	745.699
187.242	25.362	932.736	745.403
188.256	25.471	931.922	745.138
189.271	25.468	931.420	744.660
190.286	25.115	930.160	742.127
191.300	24.549	928.241	738.189
192.315	23.759	927.174	734.012
193.329	23.809	926.161	733.355
194.344	24.645	927.164	737.533
195.359	25.229	927.045	739.782
196.373	25.271	926.524	739.475
197.388	25.177	926.120	738.702
198.402	25.296	925.326	738.491
199.417	25.330	924.492	737.900
200.432	25.138	923.422	736.191
201.446	24.929	923.132	735.040
202.461	24.954	922.355	734.456
203.475	24.061	920.372	729.159
204.490	23.358	919.049	725.169
205.504	24.318	919.518	729.403
206.519	24.824	919.541	731.425
207.534	25.042	918.762	731.630
208.548	25.281	919.135	732.840
209.563	25.008	917.927	730.698
210.577	25.050	917.379	730.367
211.592	25.459	916.884	731.575
212.607	25.455	916.162	730.919
213.621	25.466	915.545	730.406
214.636	25.520	914.632	729.834
215.650	25.473	913.877	728.977
216.665	25.621	913.477	729.192
217.680	25.437	912.550	727.643
218.694	25.064	911.443	725.186
219.709	24.891	910.767	723.884
220.723	25.085	910.982	724.774
221.738	25.232	909.921	724.460
222.753	25.338	909.186	724.240
223.767	25.264	908.878	723.630
224.782	25.627	908.539	724.760
225.796	25.445	908.278	723.755
226.811	24.936	906.205	719.992
227.826	24.224	905.362	716.398
228.840	24.481	904.836	716.953
229.855	24.554	904.247	716.713
230.869	24.138	903.167	714.129
231.884	24.665	903.278	716.265
232.899	25.364	903.340	719.049
233.913	25.030	902.675	717.121
234.928	25.218	901.458	716.841
235.942	25.043	901.155	715.840
236.957	24.828	900.584	714.464
237.972	24.887	900.049	714.209
238.986	25.045	899.082	714.011
240.001	25.042	898.735	713.660
241.015	25.034	898.410	713.304
242.030	25.128	897.573	712.950
243.045	25.225	897.443	713.171
244.059	25.579	896.550	713.804
245.074	25.117	896.004	711.472
246.088	24.961	894.773	709.815
247.103	25.316	894.771	711.157
248.117	25.716	894.880	712.766
249.132	25.939	894.077	712.945
250.147	26.014	893.800	712.956
251.161	26.112	893.422	712.980
252.176	26.163	892.637	712.492
253.190	26.202	892.298	712.313
254.205	26.466	891.439	712.600
255.220	26.348	890.919	711.658
256.234	26.157	890.344	710.386
257.249	26.100	889.757	709.630
258.263	26.084	888.886	708.809
259.278	26.190	888.143	708.572
260.293	26.198	887.618	708.120
261.307	25.956	887.243	706.812
262.322	25.953	885.958	705.711
263.336	25.158	884.233	701.168
264.351	24.125	882.365	695.592
265.366	24.347	882.114	696.200
266.380	25.331	882.910	700.608
267.395	25.853	882.228	702.040
268.409	25.710	881.939	701.192
269.424	25.901	881.297	701.362
270.439	26.052	880.529	701.276
271.453	26.253	879.639	701.285
272.468	26.230	879.841	701.294
273.482	26.296	879.289	701.047
274.497	25.856	877.790	698.088
275.512	25.567	876.992	696.272
276.526	25.878	877.214	697.590
277.541	25.947	876.899	697.544
278.555	25.790	875.865	696.055
279.570	25.647	875.499	695.150
280.585	25.934	874.730	695.587
281.599	25.875	873.225	694.101
282.614	25.225	872.218	690.735
283.628	25.258	872.326	690.886
284.643	25.620	871.692	691.715
285.657	25.234	870.455	689.194
286.672	24.881	869.928	687.356
287.687	25.573	869.808	689.858
288.701	25.570	869.243	689.337
289.716	25.325	868.138	687.463
290.730	25.269	867.692	686.833
291.745	24.871	866.753	684.507
292.760	25.148	866.959	685.670
293.774	26.258	867.299	690.122
294.789	26.611	866.762	690.979
295.803	26.566	866.376	690.438
296.818	26.561	865.460	689.627
297.833	26.275	864.022	687.335
298.847	26.013	863.499	685.859
299.862	26.353	863.502	687.096
300.876	26.557	863.153	687.534
301.891	26.306	862.777	686.220
302.906	26.148	861.261	684.352
303.920	26.235	861.285	684.642
304.935	26.437	861.274	685.339
305.949	26.605	860.197	685.055
306.964	26.274	859.624	683.288
307.979	26.314	859.344	683.156
308.993	26.792	858.764	684.441
310.008	26.677	858.387	683.642
311.022	26.451	857.458	681.991
312.037	26.156	857.305	680.698
313.052	25.945	855.945	678.763
314.066	25.082	854.792	674.541
315.081	24.680	853.730	672.133
316.095	25.759	854.072	676.399
317.110	26.203	853.693	677.707
318.125	25.419	852.024	673.382
319.139	24.241	851.050	668.140
320.154	24.269	850.493	667.749
321.168	25.215	850.702	671.395
322.183	25.890	851.138	674.207
323.197	26.102	850.829	674.697
324.212	26.155	850.619	674.669
325.227	26.302	849.647	674.387
326.241	26.126	849.092	673.228
327.256	26.018	848.493	672.294
328.270	26.037	847.761	671.722
329.285	25.783	846.931	670.060
330.300	25.649	845.875	668.667
331.314	25.798	845.956	669.225
332.329	26.345	845.768	671.049
333.343	26.417	845.245	670.844
334.358	26.393	845.127	670.602
335.373	26.347	844.763	670.085
336.387	26.794	844.660	671.596
337.402	26.872	844.355	671.584
338.416	26.767	843.947	670.814
339.431	26.767	843.865	670.688
340.446	27.025	843.241	671.087
341.460	26.887	842.877	670.227
342.475	26.674	842.284	668.908
343.489	26.767	841.805	668.814
344.504	27.195	841.745	670.284
345.519	27.192	841.339	669.891
346.533	27.312	840.545	669.642
347.548	27.260	839.978	668.940
348.562	27.155	839.563	668.162
349.577	27.092	839.286	667.654
350.592	27.001	838.484	666.623
351.606	27.096	837.741	666.319
352.621	27.144	836.827	665.709
353.635	26.904	836.356	664.399
354.650	26.243	834.297	660.290
355.665	25.347	832.873	655.831
356.679	25.588	833.363	657.042
357.694	26.160	832.688	658.537
358.708	26.163	831.917	657.880
359.723	26.553	832.085	659.377
360.738	26.858	831.363	659.854
361.752	26.989	830.881	659.892
362.767	27.312	830.660	660.831
363.781	27.459	830.674	661.315
364.796	27.505	830.025	660.910
365.810	27.598	829.798	661.005
366.825	27.515	829.117	660.103
367.840	27.071	828.729	658.130
368.854	26.823	827.724	656.374
369.869	26.961	827.076	656.301
370.883	27.282	826.701	657.105
371.898	26.831	826.305	655.105
372.913	26.911	826.096	655.170
373.927	27.126	825.014	655.030
374.942	27.216	825.078	655.347
375.956	27.186	825.121	655.214
376.971	27.411	824.342	655.347
377.986	27.544	824.261	655.705
379.000	27.639	823.280	655.207
380.015	27.371	822.698	653.722
381.029	27.435	822.360	653.627
382.044	27.485	822.229	653.643
383.059	27.651	821.034	653.231
384.073	27.453	820.652	652.160
385.088	27.422	819.895	651.390
386.102	27.291	819.317	650.406
387.117	27.193	818.434	649.296
388.132	26.889	817.731	647.597
389.146	26.515	816.697	645.385
390.161	26.759	816.384	645.952
391.175	27.147	816.747	647.564
392.190	26.818	815.480	645.332
393.205	25.471	813.434	638.872
394.219	23.967	811.759	632.159
395.234	23.990	811.580	632.045
396.248	25.627	812.548	638.557
397.263	27.171	813.332	644.598
398.278	27.165	812.872	644.156
399.292	26.775	812.197	642.185
400.307	26.723	811.926	641.730
401.321	26.844	811.938	642.108
402.336	27.188	811.652	643.045
403.350	27.589	811.940	644.633
404.365	27.909	811.681	645.502
405.380	28.249	811.019	646.116
406.394	28.227	810.485	645.557
407.409	28.280	809.784	645.129
408.423	28.218	809.375	644.527
409.438	28.342	809.125	644.710
410.453	28.313	808.416	643.983
411.467	28.242	808.068	643.402
412.482	28.149	807.784	642.792
413.496	28.283	807.481	642.965
414.511	28.216	807.082	642.353
415.526	28.246	806.296	641.777
416.540	28.163	805.795	641.029
417.555	27.948	804.753	639.393
418.569	28.072	804.344	639.444
419.584	27.891	804.285	638.710
420.599	27.730	803.819	637.717
421.613	110.092	1284.616	1452.560
422.628	95.034	1354.659	1452.627
