DTS Sentinel unit serial number:	SN413079Multiplexer serial number:	ORYXHardware model number:	OX4-SRSoftware version number:	ORYX F/W v4.00 Oryx Data Collector v3.7.2.0data status	okinstallation	princeton_trtdifferential loss correction	single-endedforward channel	channel 1reverse channel	N/Adate	2019/09/11time	05:12:11forward acquisition time	60.00reverse acquisition time	0.00gamma	496.2192k internal	0.2330k external	0.2330temperature offset calibration	0.9929default loss term (dB/km)	0.3790temperature slope calibration	1.0000multiplexer offset coefficient	1.0000multiplexer slope coefficient	1.0000fibre end	0.00T internal ref (°C)	29.44T ext. ref 1 (°C)	-0.26T ext. ref 2 (°C)	23.45length (m)	temperature (°C)	Stokes	anti-Stokes-747.200	575.804	0.042	-0.104
-746.185	-200.000	0.018	0.339
-745.171	800.000	0.028	-0.091
-744.156	-200.000	0.010	0.172
-743.142	-138.921	0.177	-0.019
-742.127	30.665	-0.080	-0.069
-741.112	110.302	0.095	0.115
-740.098	-28.193	-0.370	0.215
-739.083	12.981	0.240	-0.187
-738.069	99.455	-0.163	0.190
-737.054	-99.683	0.155	0.039
-736.039	-92.989	-0.166	0.046
-735.025	-5.964	-0.034	-0.024
-734.010	49.730	-0.360	-0.342
-732.996	308.078	-0.152	-0.285
-731.981	-36.859	0.255	-0.138
-730.966	-27.141	0.107	-0.063
-729.952	-111.219	0.163	-0.034
-728.937	-90.250	-0.035	-0.010
-727.923	-200.000	-0.031	0.263
-726.908	420.049	0.141	-0.303
-725.894	-126.568	-0.162	0.024
-724.879	-113.074	-0.206	0.041
-723.864	34.165	-0.091	-0.080
-722.850	43.663	-0.213	-0.196
-721.835	-11.816	-0.090	-0.059
-720.821	-155.314	-0.333	-0.022
-719.806	117.854	0.084	-0.104
-718.791	-39.703	0.370	0.194
-717.777	367.787	0.125	0.255
-716.762	689.401	-0.017	-0.045
-715.748	99.539	0.131	0.152
-714.733	-112.875	-0.139	-0.028
-713.718	-29.769	0.299	0.172
-712.704	672.456	0.091	-0.236
-711.689	-92.819	-0.188	-0.053
-710.675	41.635	0.192	0.175
-709.660	57.323	0.126	-0.123
-708.645	419.646	0.069	0.148
-707.631	25.158	-0.213	0.178
-706.616	172.662	0.067	-0.096
-705.602	-200.000	0.004	0.122
-704.587	43.777	-0.170	-0.156
-703.572	641.454	0.059	-0.151
-702.558	-129.666	0.056	0.008
-701.543	76.669	0.075	0.080
-700.529	800.000	-0.099	0.413
-699.514	-114.351	-0.215	0.042
-698.499	740.864	0.085	-0.231
-697.485	-95.971	0.086	0.023
-696.470	42.731	0.071	0.065
-695.456	-200.000	0.013	0.153
-694.441	-5.182	-0.205	-0.142
-693.426	18.942	0.223	-0.180
-692.412	-107.640	0.372	-0.082
-691.397	-200.000	-0.023	0.155
-690.383	-158.590	-0.143	-0.008
-689.368	-200.000	-0.006	0.225
-688.354	98.617	-0.227	-0.263
-687.339	51.586	0.058	0.055
-686.324	110.272	0.012	0.014
-685.310	208.919	-0.154	-0.242
-684.295	-66.790	0.247	0.098
-683.281	-157.846	-0.364	0.022
-682.266	-184.924	-0.199	0.003
-681.251	-129.540	-0.091	0.013
-680.237	800.000	0.068	-0.236
-679.222	60.830	-0.125	-0.124
-678.208	-87.139	0.147	-0.045
-677.193	-200.000	-0.018	0.218
-676.178	-0.212	-0.372	-0.266
-675.164	-200.000	0.001	-0.070
-674.149	63.154	-0.192	-0.193
-673.135	788.132	0.157	-0.433
-672.120	162.987	0.092	-0.130
-671.105	-49.406	-0.152	-0.073
-670.091	-76.072	-0.139	0.049
-669.076	446.167	0.054	-0.120
-668.062	-200.000	-0.038	-0.217
-667.047	800.000	0.073	0.238
-666.032	-69.016	0.316	-0.122
-665.018	508.223	0.049	0.115
-664.003	-124.739	-0.210	0.033
-662.989	-12.297	0.226	0.149
-661.974	764.320	0.014	0.039
-660.959	-45.387	0.143	0.071
-659.945	484.731	-0.025	-0.058
-658.930	-102.693	0.197	-0.047
-657.916	116.859	-0.233	0.286
-656.901	71.054	-0.308	0.320
-655.886	304.128	-0.118	-0.219
-654.872	42.901	0.147	-0.134
-653.857	247.546	0.075	0.128
-652.843	800.000	0.030	0.099
-651.828	800.000	-0.095	-0.346
-650.814	22.741	-0.386	0.317
-649.799	-190.377	-0.288	0.003
-648.784	-200.000	-0.037	-0.350
-647.770	-63.579	0.290	-0.120
-646.755	-156.129	0.187	-0.012
-645.741	-200.000	-0.014	0.098
-644.726	163.777	-0.093	-0.132
-643.711	-150.515	0.337	0.026
-642.697	-129.918	0.427	-0.059
-641.682	55.136	0.275	-0.266
-640.668	38.510	-0.051	0.045
-639.653	-138.598	0.047	-0.005
-638.638	-94.731	0.287	-0.078
-637.624	-67.830	-0.233	0.091
-636.609	609.202	0.087	-0.217
-635.595	-64.636	0.335	-0.136
-634.580	-200.000	0.060	-0.310
-633.565	800.000	0.083	0.294
-632.551	800.000	-0.062	-0.186
-631.536	-55.787	0.435	-0.195
-630.522	-107.673	-0.264	-0.058
-629.507	-117.827	0.087	0.016
-628.492	-144.061	0.254	-0.024
-627.478	2.523	-0.200	-0.145
-626.463	-94.067	-0.265	0.073
-625.449	176.971	-0.166	0.241
-624.434	-200.000	0.038	-0.174
-623.419	-33.692	0.222	0.122
-622.405	41.803	0.237	0.215
-621.390	31.729	0.175	0.151
-620.376	-200.000	0.047	0.231
-619.361	35.899	0.392	0.346
-618.346	61.846	-0.109	-0.109
-617.332	63.591	-0.045	-0.045
-616.317	134.657	0.020	0.025
-615.303	-68.623	0.369	0.143
-614.288	-200.000	-0.010	-0.120
-613.273	153.929	0.132	-0.181
-612.259	466.302	0.071	-0.160
-611.244	60.514	0.131	-0.130
-610.230	-127.634	0.017	-0.003
-609.215	-96.848	-0.134	0.035
-608.201	198.635	0.041	-0.062
-607.186	-112.974	0.158	-0.031
-606.171	145.480	-0.207	-0.277
-605.157	-52.241	0.078	-0.036
-604.142	-96.131	0.258	0.069
-603.128	-66.538	-0.280	-0.111
-602.113	431.850	-0.091	0.198
-601.098	128.944	0.145	0.185
-600.084	-34.455	0.223	-0.122
-599.069	-34.470	-0.109	-0.060
-598.055	60.774	-0.187	-0.185
-597.040	5.720	-0.023	0.017
-596.025	6.598	0.073	0.055
-595.011	-140.633	-0.085	-0.009
-593.996	-62.168	-0.085	0.035
-592.982	10.567	-0.092	0.071
-591.967	-200.000	-0.010	-0.064
-590.952	133.061	-0.111	-0.144
-589.938	-87.464	-0.454	-0.137
-588.923	-200.000	0.006	0.126
-587.909	-120.723	-0.494	0.084
-586.894	-45.826	-0.109	-0.054
-585.879	800.000	0.077	0.333
-584.865	-200.000	-0.051	-0.246
-583.850	-180.810	0.110	0.002
-582.836	800.000	-0.095	0.277
-581.821	-200.000	0.038	0.272
-580.806	-85.866	0.272	0.084
-579.792	-126.283	-0.206	-0.031
-578.777	800.000	-0.129	0.443
-577.763	800.000	-0.083	0.251
-576.748	-79.549	-0.092	-0.031
-575.733	242.599	-0.117	0.197
-574.719	253.229	0.106	0.181
-573.704	391.925	-0.204	0.424
-572.690	324.288	0.160	0.306
-571.675	-12.552	-0.208	-0.136
-570.661	-93.485	0.434	-0.120
-569.646	-200.000	-0.039	-0.260
-568.631	24.195	-0.060	0.050
-567.617	-199.576	0.118	0.001
-566.602	-76.177	-0.258	-0.091
-565.588	110.514	0.080	0.096
-564.573	107.557	-0.118	0.141
-563.558	311.506	-0.086	0.161
-562.544	-200.000	0.077	0.353
-561.529	-53.633	0.256	-0.117
-560.515	800.000	0.072	0.220
-559.500	-24.131	0.144	-0.086
-558.485	-99.683	0.403	0.101
-557.471	-100.390	0.053	0.013
-556.456	-120.895	0.385	0.065
-555.442	-200.000	0.011	-0.432
-554.427	-95.337	-0.245	-0.066
-553.412	-168.885	-0.234	0.009
-552.398	-43.472	-0.214	0.108
-551.383	800.000	-0.019	-0.073
-550.369	284.379	-0.175	0.314
-549.354	-146.986	-0.168	-0.014
-548.339	623.187	-0.082	-0.206
-547.325	257.820	0.072	-0.124
-546.310	111.097	-0.178	-0.214
-545.296	256.670	-0.117	-0.200
-544.281	-150.895	0.054	-0.004
-543.266	67.813	0.235	0.240
-542.252	-123.812	-0.010	-0.002
-541.237	-61.618	0.061	0.026
-540.223	-20.764	-0.146	-0.090
-539.208	-200.000	-0.096	0.000
-538.193	54.621	-0.181	-0.174
-537.179	-140.004	0.085	0.009
-536.164	-118.003	-0.098	-0.017
-535.150	800.000	-0.045	-0.162
-534.135	800.000	-0.077	0.285
-533.121	-130.496	-0.123	0.017
-532.106	275.470	-0.166	-0.294
-531.091	-9.390	-0.144	-0.096
-530.077	58.484	0.290	0.284
-529.062	-90.434	-0.189	-0.055
-528.048	800.000	0.050	0.174
-527.033	11.381	0.106	-0.081
-526.018	800.000	0.071	0.228
-525.004	-104.082	-0.143	0.033
-523.989	-165.485	-0.343	-0.015
-522.975	92.368	0.137	0.154
-521.960	24.356	-0.093	0.077
-520.945	-15.373	0.216	-0.138
-519.931	-94.693	-0.360	-0.098
-518.916	-55.519	0.116	0.052
-517.902	146.547	-0.028	-0.038
-516.887	128.530	-0.226	-0.287
-515.872	-79.232	0.210	-0.071
-514.858	-111.622	-0.236	-0.048
-513.843	-20.604	-0.194	-0.119
-512.829	-116.602	0.027	-0.005
-511.814	105.668	-0.246	0.290
-510.799	-45.419	0.075	0.037
-509.785	198.999	-0.083	0.127
-508.770	15.653	-0.134	-0.105
-507.756	-200.000	-0.014	-0.104
-506.741	-200.000	0.001	0.094
-505.726	-177.131	-0.371	0.009
-504.712	62.094	-0.152	-0.151
-503.697	-13.999	-0.049	0.031
-502.683	160.618	0.040	-0.055
-501.668	-152.772	0.100	-0.007
-500.653	800.000	-0.108	-0.324
-499.639	-89.902	-0.102	-0.030
-498.624	800.000	-0.014	-0.043
-497.610	28.954	0.251	-0.212
-496.595	-17.056	0.290	-0.183
-495.581	-82.413	-0.221	-0.071
-494.566	-58.626	-0.358	0.155
-493.551	470.022	0.056	0.126
-492.537	-95.658	-0.193	0.051
-491.522	98.253	-0.065	0.075
-490.508	-69.556	-0.145	0.055
-489.493	-111.355	0.209	-0.043
-488.478	591.163	-0.127	0.311
-487.464	-59.714	-0.160	0.068
-486.449	198.170	-0.167	-0.254
-485.435	10.589	-0.217	-0.165
-484.420	23.834	-0.114	-0.094
-483.405	-74.440	0.086	-0.031
-482.391	-200.000	0.038	0.213
-481.376	149.531	0.197	-0.266
-480.362	-84.745	-0.217	0.068
-479.347	115.845	-0.112	-0.137
-478.332	-63.237	-0.263	-0.108
-477.318	-100.759	0.138	-0.034
-476.303	-11.118	-0.272	-0.179
-475.289	186.095	0.030	0.044
-474.274	-26.275	-0.270	-0.158
-473.259	-20.427	0.135	-0.083
-472.245	-73.161	-0.270	-0.099
-471.230	233.020	0.194	-0.318
-470.216	-100.473	0.067	0.016
-469.201	-200.000	-0.016	-0.241
-468.186	-88.294	0.218	-0.065
-467.172	-142.935	-0.166	0.016
-466.157	-165.978	0.167	-0.007
-465.143	39.764	0.041	0.037
-464.128	-137.141	0.010	-0.001
-463.113	-3.021	0.179	0.125
-462.099	-200.000	0.042	0.366
-461.084	77.110	-0.255	-0.270
-460.070	-60.258	0.167	0.071
-459.055	172.203	-0.206	0.294
-458.040	217.854	0.062	-0.098
-457.026	-169.517	-0.379	-0.014
-456.011	-79.812	0.201	0.067
-454.997	220.400	0.087	-0.139
-453.982	325.041	0.122	0.233
-452.968	-57.545	-0.134	0.059
-451.953	48.920	0.137	-0.128
-450.938	185.967	-0.248	0.367
-449.924	-163.594	0.239	-0.011
-448.909	-9.910	0.140	0.093
-447.895	-200.000	0.024	0.146
-446.880	-200.000	-0.007	0.123
-445.865	-53.083	-0.209	0.096
-444.851	171.882	-0.242	0.346
-443.836	671.422	0.077	-0.198
-442.822	-3.515	0.286	-0.198
-441.807	3.498	-0.020	-0.015
-440.792	76.822	0.147	0.155
-439.778	-200.000	0.052	0.422
-438.763	429.552	-0.114	0.245
-437.749	349.145	0.124	-0.243
-436.734	-128.503	0.300	0.042
-435.719	800.000	0.109	-0.422
-434.705	-140.186	0.250	-0.026
-433.690	483.007	0.040	0.091
-432.676	-52.183	0.254	-0.117
-431.661	-200.000	0.024	-0.277
-430.646	176.715	0.100	0.144
-429.632	71.702	-0.096	0.099
-428.617	-200.000	0.013	-0.258
-427.603	-200.000	-0.007	-0.160
-426.588	-145.503	-0.489	0.044
-425.573	62.417	-0.112	0.111
-424.559	800.000	-0.034	0.124
-423.544	800.000	-0.076	0.209
-422.530	-54.292	-0.250	-0.113
-421.515	-128.646	0.492	-0.069
-420.500	-26.265	0.199	0.116
-419.486	-110.031	0.430	0.089
-418.471	-88.506	-0.371	-0.110
-417.457	800.000	0.039	-0.139
-416.442	114.286	0.080	-0.097
-415.428	-91.531	0.109	-0.031
-414.413	-152.840	0.108	0.008
-413.398	112.752	0.169	0.204
-412.384	270.193	-0.104	-0.182
-411.369	-143.447	0.253	0.024
-410.355	498.931	0.096	-0.219
-409.340	-200.000	0.046	-0.462
-408.325	-55.605	0.030	-0.013
-407.311	-1.021	0.297	-0.208
-406.296	-200.000	-0.044	-0.305
-405.282	-33.571	-0.303	0.166
-404.267	145.490	-0.087	-0.115
-403.252	-11.074	-0.125	0.082
-402.238	-80.891	0.190	-0.063
-401.223	454.609	0.146	-0.321
-400.209	-200.000	-0.069	-0.337
-399.194	800.000	-0.105	-0.289
-398.179	-141.731	-0.151	-0.015
-397.165	334.198	-0.041	0.080
-396.150	-114.945	0.293	0.055
-395.136	82.793	-0.149	-0.160
-394.121	-200.000	0.053	-0.328
-393.106	-56.805	-0.109	0.048
-392.092	-169.333	-0.176	0.006
-391.077	-49.305	0.294	-0.139
-390.063	-34.886	-0.209	-0.113
-389.048	-55.123	0.146	-0.065
-388.033	-79.232	0.212	-0.071
-387.019	-118.405	0.219	-0.039
-386.004	-130.669	-0.281	0.038
-384.990	9.578	-0.170	0.127
-383.975	75.553	-0.113	-0.119
-382.960	34.674	-0.086	0.074
-381.946	-200.000	0.044	-0.246
-380.931	17.097	-0.398	-0.313
-379.917	-200.000	0.057	0.257
-378.902	439.018	0.063	-0.137
-377.888	18.163	-0.242	-0.191
-376.873	-97.167	0.187	0.049
-375.858	-50.598	-0.111	0.052
-374.844	-200.000	-0.022	-0.337
-373.829	41.203	-0.182	0.164
-372.815	0.140	-0.178	0.126
-371.800	-85.514	0.238	0.074
-370.785	-36.239	-0.125	-0.067
-369.771	800.000	-0.059	-0.235
-368.756	65.383	-0.189	0.190
-367.742	-72.223	-0.508	0.187
-366.727	-200.000	0.019	0.170
-365.712	-54.790	-0.120	-0.054
-364.698	-0.151	-0.036	0.025
-363.683	-54.229	-0.224	-0.101
-362.669	-3.095	0.120	-0.083
-361.654	-7.686	-0.297	0.199
-360.639	-200.000	-0.043	0.289
-359.625	-100.950	0.200	0.049
-358.610	-77.747	-0.357	0.122
-357.596	-75.525	0.251	0.089
-356.581	800.000	-0.011	-0.045
-355.566	-37.991	-0.299	-0.157
-354.552	44.284	-0.250	-0.227
-353.537	-47.441	0.458	-0.221
-352.523	-200.000	0.006	0.228
-351.508	-200.000	-0.003	-0.056
-350.493	-200.000	-0.059	0.310
-349.479	0.358	0.179	-0.127
-348.464	174.396	0.298	0.428
-347.450	-33.213	0.134	0.073
-346.435	621.259	0.118	0.294
-345.420	-200.000	-0.002	0.018
-344.406	237.064	0.192	-0.315
-343.391	138.812	0.073	0.095
-342.377	-3.642	0.152	0.105
-341.362	-200.000	-0.009	-0.081
-340.348	230.410	-0.204	-0.331
-339.333	800.000	0.081	-0.266
-338.318	-200.000	-0.009	-0.234
-337.304	191.608	0.054	0.081
-336.289	154.022	0.086	-0.117
-335.275	61.928	0.149	0.147
-334.260	-54.769	-0.295	0.132
-333.245	-34.430	-0.190	-0.103
-332.231	-200.000	0.035	0.228
-331.216	-54.078	0.210	-0.094
-330.202	-53.515	0.260	-0.118
-329.187	52.046	-0.164	-0.155
-328.172	-200.000	-0.033	-0.259
-327.158	342.898	0.020	-0.039
-326.143	-40.996	0.272	0.139
-325.129	-79.005	-0.129	-0.044
-324.114	428.571	0.043	-0.093
-323.099	107.091	-0.127	-0.149
-322.085	-142.323	-0.366	-0.036
-321.070	111.164	-0.301	-0.359
-320.056	-51.762	-0.236	0.109
-319.041	-135.266	0.282	-0.033
-318.026	800.000	0.104	-0.339
-317.012	-48.699	-0.041	-0.020
-315.997	135.751	-0.046	0.059
-314.983	23.809	-0.187	0.152
-313.968	800.000	-0.074	-0.226
-312.953	134.723	-0.199	0.255
-311.939	463.858	-0.093	0.206
-310.924	-200.000	0.003	-0.315
-309.910	-200.000	-0.037	0.164
-308.895	-5.722	0.236	0.160
-307.880	-200.000	-0.031	0.140
-306.866	92.880	-0.140	0.157
-305.851	-200.000	0.312	-0.000
-304.837	504.485	-0.036	-0.083
-303.822	-158.005	-0.063	-0.004
-302.807	800.000	-0.061	-0.258
-301.793	-200.000	0.039	0.337
-300.778	32.473	0.166	0.142
-299.764	800.000	0.058	-0.163
-298.749	800.000	0.080	0.267
-297.735	59.953	0.238	0.233
-296.720	166.928	0.186	-0.261
-295.705	-200.000	0.030	-0.173
-294.691	800.000	0.026	0.094
-293.676	338.442	-0.099	-0.191
-292.662	222.828	-0.061	0.096
-291.647	74.860	0.149	0.155
-290.632	-121.622	0.139	0.023
-289.618	-200.000	-0.040	0.183
-288.603	800.000	-0.068	-0.188
-287.589	52.761	-0.069	0.065
-286.574	-200.000	-0.009	0.140
-285.559	-200.000	-0.008	-0.067
-284.545	-200.000	0.010	-0.290
-283.530	-95.318	-0.149	-0.040
-282.516	82.741	0.170	0.183
-281.501	-122.202	0.164	-0.027
-280.486	-64.118	-0.207	-0.084
-279.472	-114.334	-0.347	0.066
-278.457	-64.910	0.353	-0.141
-277.443	26.314	-0.150	0.124
-276.428	-21.322	-0.028	-0.017
-275.413	392.497	-0.079	0.162
-274.399	-162.671	-0.027	-0.001
-273.384	307.187	-0.125	-0.229
-272.370	53.286	0.347	0.328
-271.355	672.062	0.066	0.170
-270.340	-20.440	-0.102	-0.062
-269.326	-44.767	0.051	-0.025
-268.311	-81.159	-0.387	-0.127
-267.297	-200.000	0.051	-0.228
-266.282	48.037	-0.179	-0.166
-265.267	-102.649	-0.112	0.026
-264.253	130.004	0.120	0.151
-263.238	97.426	0.079	-0.089
-262.224	667.158	0.165	-0.421
-261.209	-66.542	0.095	-0.037
-260.195	85.013	-0.099	0.107
-259.180	142.329	0.107	0.140
-258.165	-80.211	0.131	0.043
-257.151	800.000	0.092	-0.321
-256.136	57.656	0.182	-0.176
-255.122	121.839	-0.117	0.145
-254.107	6.494	0.107	0.079
-253.092	0.353	0.291	0.205
-252.078	-26.249	-0.329	0.191
-251.063	-108.951	0.052	0.011
-250.049	-197.016	0.285	0.002
-249.034	525.747	0.134	0.312
-248.019	-47.514	-0.105	-0.050
-247.005	64.903	-0.211	-0.210
-245.990	-22.942	0.072	-0.043
-244.976	236.077	-0.294	0.480
-243.961	78.625	-0.130	-0.138
-242.946	327.332	-0.314	0.595
-241.932	166.653	0.125	0.175
-240.917	-72.343	0.431	0.157
-239.903	18.765	-0.129	-0.102
-238.888	-140.240	0.241	0.025
-237.873	-200.000	-0.015	0.124
-236.859	-161.139	0.118	0.006
-235.844	-200.000	-0.000	-0.379
-234.830	-8.116	0.171	0.114
-233.815	-108.558	0.193	-0.041
-232.800	594.404	-0.105	-0.256
-231.786	-72.843	0.281	0.102
-230.771	-200.000	0.011	-0.084
-229.757	800.000	0.033	-0.131
-228.742	100.407	0.189	-0.217
-227.727	14.416	-0.165	-0.127
-226.713	450.475	-0.095	0.206
-225.698	-200.000	-0.054	0.278
-224.684	147.497	-0.168	-0.223
-223.669	-83.757	0.338	-0.107
-222.655	800.000	-0.062	0.189
-221.640	159.614	0.153	0.210
-220.625	264.219	-0.265	0.454
-219.611	-119.060	0.139	-0.024
-218.596	-161.269	0.342	0.018
-217.582	-114.477	-0.092	0.017
-216.567	800.000	0.051	-0.150
-215.552	187.567	0.082	0.121
-214.538	-9.631	-0.087	0.057
-213.523	-200.000	-0.027	-0.169
-212.509	800.000	-0.026	0.095
-211.494	54.855	0.253	-0.240
-210.479	-200.000	-0.032	0.420
-209.465	444.395	0.046	-0.100
-208.450	-200.000	0.000	-0.042
-207.436	-43.754	0.337	-0.167
-206.421	-200.000	-0.005	-0.138
-205.406	537.084	-0.044	-0.102
-204.392	0.345	0.181	-0.127
-203.377	-59.917	0.154	0.065
-202.363	-183.500	0.079	0.001
-201.348	40.865	0.187	0.167
-200.333	800.000	-0.068	0.205
-199.319	-16.613	0.182	-0.114
-198.304	-200.000	-0.010	-0.106
-197.290	800.000	-0.025	0.100
-196.275	-45.801	0.340	0.165
-195.260	-58.753	0.253	0.108
-194.246	-2.639	-0.110	-0.076
-193.231	-92.064	0.193	-0.054
-192.217	231.919	-0.151	0.244
-191.202	-43.309	-0.249	0.124
-190.187	312.077	0.214	-0.396
-189.173	-200.000	-0.020	-0.166
-188.158	-200.000	-0.014	0.141
-187.144	410.302	-0.217	0.454
-186.129	800.000	0.093	0.310
-185.114	-153.458	0.066	0.004
-184.100	-92.272	0.052	0.014
-183.085	163.701	0.040	-0.055
-182.071	158.552	0.065	-0.089
-181.056	377.070	-0.123	-0.247
-180.042	800.000	-0.031	0.112
-179.027	18.711	-0.269	0.212
-178.012	-80.458	-0.258	0.085
-176.998	-200.000	0.003	0.127
-175.983	-38.092	-0.164	0.086
-174.969	5.175	-0.157	0.114
-173.954	27.123	-0.218	0.180
-172.939	-200.000	0.024	0.118
-171.925	52.637	0.104	-0.098
-170.910	83.522	0.052	-0.056
-169.896	800.000	-0.076	0.242
-168.881	800.000	-0.070	0.216
-167.866	116.297	-0.169	0.204
-166.852	198.816	-0.108	-0.163
-165.837	107.913	0.193	0.226
-164.823	562.957	-0.097	0.230
-163.808	-84.225	-0.068	-0.021
-162.793	24.400	-0.164	0.133
-161.779	-200.000	-0.058	-0.531
-160.764	-75.899	0.275	0.096
-159.750	-74.125	0.290	0.103
-158.735	520.505	-0.128	0.294
-157.720	-73.383	0.342	0.123
-156.706	-200.000	0.011	0.102
-155.691	79.935	0.304	-0.321
-154.677	-200.000	-0.026	-0.316
-153.662	-41.360	0.204	0.104
-152.647	-56.884	-0.759	0.330
-151.633	-32.293	-0.196	0.107
-150.618	163.610	-0.044	0.061
-149.604	291.647	0.296	0.531
-148.589	-200.000	0.006	0.040
-147.574	-44.907	-0.151	0.074
-146.560	174.589	0.045	0.065
-145.545	-200.000	0.023	0.175
-144.531	800.000	0.045	-0.170
-143.516	-127.752	0.554	-0.079
-142.502	6.743	0.387	-0.283
-141.487	800.000	-0.094	0.259
-140.472	-198.260	0.045	-0.000
-139.458	800.000	-0.126	0.351
-138.443	11.768	0.198	0.149
-137.429	-48.095	-0.094	-0.045
-136.414	60.713	-0.300	0.293
-135.399	-200.000	0.002	0.023
-134.385	70.671	0.127	-0.130
-133.370	147.629	-0.218	0.289
-132.356	76.027	-0.088	-0.092
-131.341	248.213	-0.057	0.096
-130.326	-51.977	0.236	0.108
-129.312	-90.233	0.147	-0.042
-128.297	-71.199	0.495	-0.182
-127.283	62.938	0.043	-0.042
-126.268	320.959	-0.220	0.410
-125.253	-200.000	0.016	-0.101
-124.239	800.000	0.096	-0.288
-123.224	268.556	-0.013	0.022
-122.210	800.000	-0.059	0.196
-121.195	-200.000	0.077	0.370
-120.180	-200.000	0.000	0.278
-119.166	140.724	-0.079	0.102
-118.151	620.166	0.129	0.318
-117.137	-200.000	0.001	-0.081
-116.122	351.903	-0.034	-0.066
-115.107	800.000	0.048	0.173
-114.093	-56.654	-0.223	-0.097
-113.078	-132.267	0.213	0.027
-112.064	-88.441	-0.142	0.042
-111.049	-200.000	-0.020	0.298
-110.034	48.442	-0.082	-0.075
-109.020	-156.611	0.358	-0.022
-108.005	-30.797	-0.054	0.030
-106.991	800.000	0.069	0.222
-105.976	476.883	0.005	-0.010
-104.962	-187.035	0.076	-0.001
-103.947	-101.368	-0.049	-0.012
-102.932	84.879	-0.297	0.319
-101.918	34.193	-0.074	-0.064
-100.903	-200.000	-0.028	0.153
-99.889	-121.291	0.277	0.045
-98.874	800.000	-0.031	-0.090
-97.859	800.000	0.020	0.084
-96.845	183.763	-0.208	0.302
-95.830	-200.000	-0.063	-0.280
-94.816	-14.874	0.267	0.168
-93.801	182.820	0.172	0.248
-92.786	-200.000	0.002	-0.050
-91.772	-11.132	-0.121	-0.078
-90.757	800.000	0.137	0.412
-89.743	-101.963	0.255	-0.060
-88.728	-18.493	-0.324	-0.198
-87.713	-138.884	-0.237	0.025
-86.699	-14.049	-0.165	-0.104
-85.684	20.893	0.164	0.130
-84.670	-200.000	-0.023	-0.121
-83.655	325.030	-0.079	-0.148
-82.640	-200.000	0.031	0.171
-81.626	71.759	-0.122	0.124
-80.611	143.086	0.071	0.093
-79.597	-177.152	0.105	0.003
-78.582	264.395	0.033	0.056
-77.567	800.000	-0.033	0.100
-76.553	49.668	0.184	0.170
-75.538	507.258	-0.055	0.125
-74.524	290.095	-0.038	0.068
-73.509	-200.000	0.011	-0.207
-72.494	-200.000	0.001	-0.025
-71.480	-73.120	-0.242	-0.087
-70.465	-200.000	-0.005	-0.212
-69.451	800.000	-0.117	0.379
-68.436	-39.877	0.115	0.059
-67.422	-200.000	-0.024	0.294
-66.407	-27.813	-0.125	0.071
-65.392	-137.870	-0.185	-0.020
-64.378	-19.640	0.195	0.118
-63.363	-42.614	-0.047	-0.024
-62.349	-9.177	0.341	0.224
-61.334	31.086	-1.240	-1.042
-60.319	-30.102	0.701	0.391
-59.305	-200.000	0.018	-0.961
-58.290	380.844	0.598	1.203
-57.276	800.000	0.405	1.518
-56.261	-200.000	105.794	614.553
-55.246	509.848	1507.609	3434.899
-54.232	175.957	2702.298	3843.433
-53.217	112.098	2166.156	2565.180
-52.203	41.536	1600.095	1419.459
-51.188	32.954	1334.355	1132.487
-50.173	29.811	1292.630	1078.733
-49.159	54.425	1346.977	1271.256
-48.144	54.701	1362.624	1287.608
-47.130	33.132	1316.968	1118.603
-46.115	29.599	1299.076	1082.701
-45.100	29.433	1294.357	1077.751
-44.086	29.371	1292.286	1075.623
-43.071	29.288	1289.691	1072.940
-42.057	29.336	1287.383	1071.257
-41.042	29.360	1285.852	1070.076
-40.027	29.379	1283.863	1068.492
-39.013	29.389	1282.199	1067.119
-37.998	29.349	1280.521	1065.449
-36.984	29.396	1279.074	1064.473
-35.969	29.476	1276.973	1063.143
-34.954	29.420	1275.397	1061.469
-33.940	29.553	1273.954	1060.992
-32.925	29.548	1272.571	1059.769
-31.911	29.447	1271.419	1058.186
-30.896	29.463	1270.477	1057.453
-29.881	29.555	1268.407	1056.212
-28.867	29.542	1266.872	1054.822
-27.852	29.617	1265.441	1054.017
-26.838	29.574	1263.950	1052.483
-25.823	29.598	1262.835	1051.653
-24.809	29.482	1261.655	1049.967
-23.794	29.585	1260.316	1049.399
-22.779	29.504	1259.136	1047.916
-21.765	29.504	1257.873	1046.820
-20.750	29.588	1256.344	1045.981
-19.736	29.478	1255.102	1044.283
-18.721	29.384	1253.886	1042.699
-17.706	29.366	1253.100	1041.902
-16.692	29.294	1252.194	1040.702
-15.677	29.381	1250.722	1039.929
-14.663	29.401	1249.557	1039.033
-13.648	29.455	1248.292	1038.240
-12.633	29.334	1247.717	1037.039
-11.619	29.341	1246.821	1036.297
-10.604	29.335	1245.943	1035.493
-9.590	29.299	1244.709	1034.224
-8.575	29.362	1243.879	1033.842
-7.560	29.477	1243.039	1033.752
-6.546	29.248	1242.593	1032.053
-5.531	29.347	1241.733	1031.855
-4.517	29.433	1240.744	1031.474
-3.502	29.403	1239.745	1030.432
-2.487	29.462	1238.689	1029.846
-1.473	29.283	1234.871	1025.634
-0.458	27.909	1219.936	1005.631
0.556	22.334	1202.952	969.552
1.571	18.741	1208.436	953.960
2.586	17.965	1222.994	961.000
3.600	18.015	1212.210	952.723
4.615	13.545	1142.395	874.231
5.629	4.670	1067.897	773.195
6.644	0.206	1047.649	736.663
7.659	-0.366	1044.868	731.852
8.673	-0.388	1043.738	730.890
9.688	-0.490	1042.428	729.408
10.702	0.199	1040.551	731.379
11.717	6.034	1049.302	765.984
12.731	14.969	1062.109	819.194
13.746	19.537	1067.644	845.822
14.761	20.743	1068.960	852.703
15.775	20.762	1068.507	852.358
16.790	20.665	1067.154	850.729
17.804	20.456	1067.106	849.593
18.819	20.547	1066.611	849.571
19.834	20.673	1066.235	849.809
20.848	20.735	1065.688	849.604
21.863	20.650	1065.521	848.976
22.877	20.640	1064.492	848.037
23.892	20.628	1063.674	847.250
24.907	20.637	1063.435	847.027
25.921	20.830	1061.409	846.277
26.936	20.645	1060.675	844.721
27.950	20.500	1058.810	842.457
28.965	20.498	1057.221	841.110
29.980	20.547	1055.325	839.760
30.994	20.826	1054.158	840.105
32.009	20.729	1053.414	838.970
33.023	20.574	1052.472	837.398
34.038	20.724	1051.426	837.213
35.053	20.773	1050.553	836.683
36.067	20.659	1049.671	835.355
37.082	20.718	1049.098	835.111
38.096	20.944	1048.299	835.481
39.111	21.062	1047.693	835.491
40.126	20.817	1046.429	833.238
41.140	20.535	1044.278	830.103
42.155	20.257	1043.132	827.792
43.169	20.497	1041.661	827.699
44.184	20.417	1041.132	826.821
45.199	20.376	1039.948	825.616
46.213	20.356	1039.247	824.889
47.228	20.433	1038.864	824.877
48.242	20.575	1037.214	824.170
49.257	20.709	1036.553	824.208
50.271	20.693	1036.193	823.772
51.286	20.804	1034.853	823.157
52.301	20.833	1033.893	822.457
53.315	20.610	1033.259	820.828
54.330	20.592	1031.928	819.614
55.344	20.614	1031.560	819.351
56.359	20.649	1030.213	818.376
57.374	20.495	1029.377	816.912
58.388	20.490	1028.532	816.145
59.403	20.551	1026.955	815.112
60.417	20.342	1026.648	813.812
61.432	20.484	1025.884	813.800
62.447	20.499	1025.664	813.627
63.461	20.555	1024.550	812.930
64.476	20.629	1023.320	812.229
65.490	20.459	1022.262	810.523
66.505	20.549	1021.941	810.617
67.520	20.428	1021.478	809.615
68.534	20.363	1019.951	808.032
69.549	19.902	1019.323	805.318
70.563	20.038	1018.423	805.168
71.578	20.012	1017.579	804.307
72.593	19.902	1016.385	802.784
73.607	20.135	1016.095	803.561
74.622	20.404	1015.598	804.347
75.636	20.272	1015.049	803.227
76.651	20.178	1013.872	801.788
77.666	20.211	1013.133	801.288
78.680	20.331	1012.095	800.950
79.695	20.297	1011.499	800.250
80.709	20.312	1011.464	800.220
81.724	20.317	1010.329	799.274
82.739	20.452	1009.758	799.375
83.753	20.701	1009.008	799.855
84.768	21.043	1008.037	800.587
85.782	21.040	1007.317	799.927
86.797	20.972	1006.294	798.732
87.812	20.743	1005.423	796.922
88.826	20.961	1004.141	796.831
89.841	21.015	1003.308	796.348
90.855	20.957	1002.623	795.468
91.870	20.917	1001.662	794.456
92.884	20.782	1000.258	792.654
93.899	20.791	999.300	791.865
94.914	20.881	998.700	791.729
95.928	20.718	997.396	789.886
96.943	20.508	996.436	788.105
97.957	20.354	994.870	786.100
98.972	20.230	994.035	784.808
99.987	20.500	993.427	785.478
101.001	20.631	992.619	785.363
102.016	20.685	991.577	784.711
103.030	20.647	990.515	783.630
104.045	20.397	989.664	781.766
105.060	20.375	988.503	780.679
106.074	20.532	988.392	781.228
107.089	20.816	987.751	781.928
108.103	20.721	986.614	780.531
109.118	20.487	985.537	778.562
110.133	20.436	984.383	777.355
111.147	20.308	982.692	775.380
112.162	20.301	982.241	774.921
113.176	20.502	981.132	774.873
114.191	20.351	980.589	773.703
115.206	20.004	979.045	770.874
116.220	20.138	978.691	771.125
117.235	20.111	978.152	770.509
118.249	20.091	977.168	769.580
119.264	20.088	976.032	768.604
120.279	20.245	975.273	768.633
121.293	20.247	974.548	768.004
122.308	20.247	974.046	767.539
123.322	20.227	972.558	766.208
124.337	20.051	970.953	764.102
125.352	19.664	969.324	761.045
126.366	19.592	968.289	759.851
127.381	20.280	968.218	762.752
128.395	20.655	967.887	764.074
129.410	20.773	966.937	763.771
130.424	20.737	965.691	762.562
131.439	20.541	964.996	761.089
132.454	20.543	964.630	760.739
133.468	20.647	962.817	759.698
134.483	20.592	962.710	759.307
135.497	20.876	961.464	759.495
136.512	20.787	961.286	758.900
137.527	20.883	959.990	758.225
138.541	20.827	958.909	757.064
139.556	20.899	958.016	756.604
140.570	20.894	957.531	756.132
141.585	21.051	956.318	755.786
142.600	20.848	955.676	754.334
143.614	21.131	954.478	754.547
144.629	21.221	953.760	754.301
145.643	21.020	952.537	752.400
146.658	20.807	951.533	750.620
147.673	20.794	950.282	749.512
148.687	20.690	949.137	748.097
149.702	20.710	948.168	747.352
150.716	20.685	947.526	746.672
151.731	20.779	947.218	746.764
152.746	20.994	946.409	746.983
153.760	21.137	946.010	747.215
154.775	21.169	945.165	746.617
155.789	21.077	944.217	745.410
156.804	21.009	943.396	744.406
157.819	21.135	942.162	743.906
158.833	21.190	941.757	743.752
159.848	21.155	940.698	742.702
160.862	20.859	939.917	740.760
161.877	21.080	938.953	740.872
162.892	21.177	937.943	740.421
163.906	20.966	936.629	738.424
164.921	21.011	935.786	737.885
165.935	21.080	934.804	737.337
166.950	20.982	934.136	736.331
167.964	21.053	933.281	735.894
168.979	20.882	932.480	734.474
169.994	20.798	931.560	733.332
171.008	21.169	930.656	734.115
172.023	21.065	929.515	732.715
173.037	20.802	928.835	731.008
174.052	20.863	927.476	730.129
175.067	20.781	927.026	729.369
176.081	20.845	926.831	729.418
177.096	20.708	926.056	728.172
178.110	20.638	924.835	726.853
179.125	20.458	923.720	725.161
180.140	20.556	923.310	725.184
181.154	20.469	924.137	725.406
182.169	20.926	923.361	726.639
183.183	20.954	922.900	726.330
184.198	21.065	921.597	725.702
185.213	21.066	920.857	725.058
186.227	21.046	920.248	724.434
187.242	21.010	919.706	723.792
188.256	21.026	918.953	723.201
189.271	21.180	918.243	723.217
190.286	20.982	916.590	721.033
191.300	20.362	915.497	717.547
192.315	19.599	914.572	713.609
193.329	19.487	914.174	712.772
194.344	20.419	914.368	716.708
195.359	20.949	913.973	718.520
196.373	20.825	913.779	717.793
197.388	20.812	912.741	716.860
198.402	20.926	912.133	716.787
199.417	20.870	911.839	716.262
200.432	20.696	910.165	714.172
201.446	20.489	909.816	712.984
202.461	20.451	909.485	712.505
203.475	19.495	907.956	707.327
204.490	18.967	906.218	703.752
205.504	20.016	906.672	708.334
206.519	20.671	906.119	710.517
207.534	20.588	905.894	709.937
208.548	21.127	905.874	712.058
209.563	20.762	904.918	709.755
210.577	20.681	904.286	708.868
211.592	21.106	903.797	710.154
212.607	21.013	903.024	709.105
213.621	21.227	902.435	709.447
214.636	21.070	901.931	708.351
215.650	21.090	901.004	707.642
216.665	21.130	900.378	707.249
217.680	21.020	899.684	706.195
218.694	20.697	898.465	703.870
219.709	20.542	897.978	702.801
220.723	20.904	897.647	703.944
221.738	21.080	896.406	703.618
222.753	20.913	895.933	702.511
223.767	20.954	895.932	702.613
224.782	21.225	895.452	703.266
225.796	21.267	894.634	702.730
226.811	20.400	893.238	698.089
227.826	19.782	892.460	694.936
228.840	20.102	891.946	695.757
229.855	20.229	890.820	695.326
230.869	19.807	889.538	692.577
231.884	20.261	889.892	694.608
232.899	21.076	889.496	697.497
233.913	21.026	889.118	696.938
234.928	21.082	887.884	696.132
235.942	20.790	887.789	694.831
236.957	20.616	886.729	693.249
237.972	20.591	886.241	692.706
238.986	20.708	885.614	692.622
240.001	20.693	885.028	692.040
241.015	20.789	884.523	691.966
242.030	20.832	884.288	691.890
243.045	20.995	884.020	692.269
244.059	21.025	883.400	691.841
245.074	20.830	882.294	690.141
246.088	20.677	881.012	688.473
247.103	20.845	880.961	689.036
248.117	21.374	881.138	691.205
249.132	21.504	880.497	691.155
250.147	21.600	880.269	691.293
251.161	21.851	879.759	691.822
252.176	21.666	878.988	690.424
253.190	21.826	878.316	690.468
254.205	21.996	877.560	690.481
255.220	22.009	876.944	689.984
256.234	21.692	876.656	688.450
257.249	21.724	875.468	687.585
258.263	21.753	874.714	687.043
259.278	21.719	874.413	686.613
260.293	21.969	873.639	686.923
261.307	21.637	873.021	685.079
262.322	21.485	871.941	683.576
263.336	20.717	869.848	678.880
264.351	19.684	867.875	673.260
265.366	20.003	867.640	674.259
266.380	21.018	868.325	678.684
267.395	21.379	868.335	680.036
268.409	21.324	867.185	678.862
269.424	21.481	866.976	679.246
270.439	21.544	866.414	678.993
271.453	21.632	865.844	678.824
272.468	21.879	865.258	679.262
273.482	21.974	864.601	679.053
274.497	21.385	863.709	676.018
275.512	21.222	862.815	674.628
276.526	21.576	862.886	675.991
277.541	21.716	862.396	676.089
278.555	21.422	861.331	674.060
279.570	21.362	860.805	673.359
280.585	21.438	860.152	673.079
281.599	21.398	859.132	672.070
282.614	20.859	858.007	669.057
283.628	20.815	857.496	668.432
284.643	21.230	857.198	669.731
285.657	20.789	856.075	667.107
286.672	20.601	854.897	665.412
287.687	21.240	855.299	668.109
288.701	21.225	854.739	667.555
289.716	20.927	853.530	665.415
290.730	20.905	852.698	664.625
291.745	20.600	852.091	662.928
292.760	20.880	852.138	663.976
293.774	22.007	851.941	668.053
294.789	22.086	852.092	668.413
295.803	22.288	851.421	668.595
296.818	22.200	850.760	667.685
297.833	21.722	850.228	665.392
298.847	21.678	848.897	664.124
299.862	21.889	848.686	664.701
300.876	22.064	848.836	665.422
301.891	21.983	847.868	664.299
302.906	21.551	846.737	661.720
303.920	21.697	846.801	662.264
304.935	22.103	846.117	663.204
305.949	22.005	845.488	662.282
306.964	21.810	844.976	661.085
307.979	22.003	844.304	661.229
308.993	22.283	844.176	662.125
310.008	22.293	843.395	661.493
311.022	21.951	842.613	659.536
312.037	21.807	842.155	658.577
313.052	21.507	841.399	656.803
314.066	20.777	839.540	652.558
315.081	20.476	839.201	651.109
316.095	21.453	839.124	654.651
317.110	21.768	839.107	655.755
318.125	20.993	837.579	651.608
319.139	20.068	835.901	646.795
320.154	20.064	835.868	646.697
321.168	20.934	836.190	650.136
322.183	21.532	836.283	652.381
323.197	21.571	836.020	652.262
324.212	21.913	835.437	653.022
325.227	21.989	834.776	652.731
326.241	21.730	834.443	651.450
327.256	21.670	833.612	650.521
328.270	21.749	832.815	650.135
329.285	21.403	831.715	647.939
330.300	21.396	830.981	647.282
331.314	21.587	830.772	647.770
332.329	21.846	830.722	648.629
333.343	21.932	830.506	648.722
334.358	22.035	829.820	648.512
335.373	22.145	829.506	648.614
336.387	22.325	829.661	649.341
337.402	22.370	829.306	649.171
338.416	22.351	828.836	648.677
339.431	22.431	828.736	648.835
340.446	22.584	828.394	649.074
341.460	22.491	827.454	647.939
342.475	22.271	827.266	646.923
343.489	22.192	826.952	646.331
344.504	22.621	826.643	647.608
345.519	22.711	826.385	647.681
346.533	22.845	825.833	647.681
347.548	22.764	825.522	647.083
348.562	22.693	824.903	646.280
349.577	22.627	824.400	645.588
350.592	22.815	823.043	645.157
351.606	22.776	822.579	644.590
352.621	22.609	821.960	643.441
353.635	22.549	820.863	642.305
354.650	21.856	819.405	638.585
355.665	20.966	817.956	634.164
356.679	21.297	817.861	635.238
357.694	21.647	817.887	636.473
358.708	21.565	817.191	635.580
359.723	22.265	816.928	637.856
360.738	22.349	816.717	637.939
361.752	22.699	815.829	638.457
362.767	22.761	815.913	638.690
363.781	23.187	815.467	639.825
364.796	23.207	814.756	639.284
365.810	23.192	814.396	638.892
366.825	23.097	814.011	638.189
367.840	22.758	813.283	636.340
368.854	22.429	812.766	634.693
369.869	22.530	812.234	634.585
370.883	22.469	811.946	634.084
371.898	22.412	811.141	633.194
372.913	22.506	810.802	633.212
373.927	22.627	810.097	633.041
374.942	22.684	810.055	633.158
375.956	22.742	810.264	633.473
376.971	22.945	809.265	633.361
377.986	23.085	808.893	633.517
379.000	23.096	808.087	632.870
380.015	22.884	807.694	631.746
381.029	22.944	807.259	631.564
382.044	23.098	806.800	631.698
383.059	23.172	805.993	631.275
384.073	23.134	805.765	630.906
385.088	23.107	804.850	630.038
386.102	22.952	804.122	628.862
387.117	22.821	803.866	628.141
388.132	22.408	802.755	625.749
389.146	22.048	802.035	623.851
390.161	22.487	801.962	625.298
391.175	22.803	801.638	626.114
392.190	22.560	800.296	624.148
393.205	21.231	798.439	617.946
394.219	19.855	796.768	611.736
395.234	19.870	796.797	611.756
396.248	21.210	798.507	617.758
397.263	22.792	798.955	623.645
398.278	22.632	798.348	622.551
399.292	22.522	797.526	621.469
400.307	22.418	797.262	620.841
401.321	22.511	796.926	620.852
402.336	22.961	796.682	622.194
403.350	23.270	796.864	623.368
404.365	23.350	796.733	623.490
405.380	23.752	796.207	624.436
406.394	23.731	795.761	623.958
407.409	23.844	794.958	623.670
408.423	23.641	794.884	622.845
409.438	23.838	794.324	623.043
410.453	23.769	794.322	622.743
411.467	23.627	793.346	621.427
412.482	23.833	792.492	621.422
413.496	23.663	792.766	620.989
414.511	23.804	792.299	621.060
415.526	23.857	791.884	620.865
416.540	23.677	790.966	619.462
417.555	23.474	789.959	617.910
418.569	23.433	790.121	617.841
419.584	23.418	789.635	617.354
420.599	23.192	788.976	615.997
421.613	157.595	1365.182	1797.117
422.628	136.428	1449.131	1797.210
