DTS Sentinel unit serial number:	SN413079Multiplexer serial number:	ORYXHardware model number:	OX4-SRSoftware version number:	ORYX F/W v4.00 Oryx Data Collector v3.7.2.0data status	okinstallation	princeton_trtdifferential loss correction	single-endedforward channel	channel 1reverse channel	N/Adate	2019/09/13time	02:02:35forward acquisition time	60.00reverse acquisition time	0.00gamma	496.2192k internal	0.2331k external	0.2331temperature offset calibration	1.0151default loss term (dB/km)	0.3790temperature slope calibration	1.0000multiplexer offset coefficient	1.0000multiplexer slope coefficient	1.0000fibre end	0.00T internal ref (°C)	27.62T ext. ref 1 (°C)	3.85T ext. ref 2 (°C)	22.20length (m)	temperature (°C)	Stokes	anti-Stokes-747.200	-137.348	-0.262	0.030
-746.185	69.684	0.110	0.114
-745.171	-56.365	0.174	-0.078
-744.156	292.674	-0.094	0.173
-743.142	-132.371	-0.202	-0.026
-742.127	-200.000	0.055	0.283
-741.112	-200.000	-0.056	-0.385
-740.098	-108.322	-0.091	0.020
-739.083	124.497	-0.098	-0.124
-738.069	-125.835	0.111	0.017
-737.054	105.622	-0.219	-0.260
-736.039	-10.200	-0.073	0.049
-735.025	-81.889	0.143	0.047
-734.010	-46.057	-0.142	-0.070
-732.996	-0.157	0.280	-0.200
-731.981	-3.277	0.118	-0.083
-730.966	800.000	-0.040	0.130
-729.952	-200.000	0.074	-0.347
-728.937	-87.519	-0.191	0.058
-727.923	269.772	0.051	-0.090
-726.908	207.184	0.035	0.054
-725.894	7.401	0.095	0.072
-724.879	-114.732	0.084	-0.016
-723.864	-37.358	-0.265	-0.142
-722.850	40.580	-0.141	-0.127
-721.835	45.380	-0.121	-0.112
-720.821	-61.613	-0.440	-0.186
-719.806	-200.000	-0.013	0.135
-718.791	-200.000	-0.063	-0.302
-717.777	237.110	-0.081	-0.135
-716.762	-85.290	-0.450	0.141
-715.748	424.231	0.044	0.094
-714.733	-2.315	-0.288	0.203
-713.718	-47.545	-0.371	0.181
-712.704	289.762	-0.152	-0.278
-711.689	-31.984	0.196	0.111
-710.675	-200.000	0.084	0.484
-709.660	-61.871	-0.214	0.090
-708.645	-28.777	-0.250	-0.144
-707.631	800.000	0.085	-0.246
-706.616	-66.154	-0.251	-0.101
-705.602	-53.379	0.180	-0.083
-704.587	800.000	-0.095	-0.294
-703.572	800.000	0.078	0.308
-702.558	628.740	-0.051	-0.130
-701.543	-32.731	0.210	-0.117
-700.529	287.517	-0.048	-0.087
-699.514	-200.000	0.005	0.068
-698.499	-115.062	0.030	0.006
-697.485	-47.518	-0.146	0.071
-696.470	800.000	-0.195	0.635
-695.456	-200.000	-0.013	0.195
-694.441	-20.535	-0.072	-0.044
-693.426	152.565	-0.027	-0.037
-692.412	769.961	-0.016	-0.044
-691.397	44.391	-0.040	0.037
-690.383	-55.947	-0.502	-0.225
-689.368	-200.000	0.011	0.118
-688.354	44.052	0.305	0.281
-687.339	619.488	-0.071	0.180
-686.324	-80.336	-0.216	0.072
-685.310	634.687	0.102	-0.260
-684.295	-98.606	0.203	-0.052
-683.281	-84.957	0.088	0.028
-682.266	-200.000	-0.023	0.171
-681.251	-132.617	-0.358	0.046
-680.237	-75.528	-0.087	0.031
-679.222	323.330	0.054	-0.103
-678.208	731.702	-0.033	0.090
-677.193	-97.230	-0.195	-0.051
-676.178	28.782	0.097	-0.082
-675.164	-51.270	0.111	0.052
-674.149	-57.151	0.445	-0.197
-673.135	34.299	0.054	-0.047
-672.120	130.174	-0.060	-0.078
-671.105	513.584	-0.063	0.148
-670.091	800.000	-0.023	0.070
-669.076	-115.695	-0.288	0.054
-668.062	619.550	-0.048	0.120
-667.047	-200.000	-0.167	-0.001
-666.032	297.868	0.032	0.059
-665.018	-200.000	-0.000	0.091
-664.003	104.442	-0.097	-0.114
-662.989	500.296	0.076	-0.177
-661.974	-44.558	-0.210	-0.105
-660.959	-200.000	0.042	0.404
-659.945	800.000	0.025	0.087
-658.930	-200.000	0.020	-0.162
-657.916	-76.653	-0.150	-0.053
-656.901	800.000	-0.097	-0.321
-655.886	171.611	0.077	0.111
-654.872	-27.484	0.364	0.212
-653.857	63.318	0.235	0.237
-652.843	-42.292	0.317	0.163
-651.828	-58.567	-0.162	0.071
-650.814	800.000	-0.039	0.142
-649.799	29.086	0.053	0.045
-648.784	-124.925	-0.073	-0.011
-647.770	-81.218	-0.322	-0.107
-646.755	67.300	-0.295	-0.302
-645.741	-62.588	-0.365	-0.152
-644.726	-63.121	-0.218	-0.090
-643.711	73.065	-0.202	-0.212
-642.697	-200.000	0.021	-0.185
-641.682	-11.212	0.078	0.052
-640.668	-119.892	0.231	-0.040
-639.653	148.500	0.108	-0.146
-638.638	-113.834	0.229	0.045
-637.624	490.393	0.018	-0.040
-636.609	-6.179	-0.196	0.134
-635.595	61.805	0.121	-0.121
-634.580	-33.064	-0.148	0.082
-633.565	-200.000	-0.038	-0.368
-632.551	-200.000	0.003	0.193
-631.536	-60.440	-0.070	-0.030
-630.522	126.646	0.150	-0.190
-629.507	612.699	-0.011	0.029
-628.492	-153.846	-0.183	0.013
-627.478	-120.904	0.079	0.013
-626.463	-99.112	-0.077	0.020
-625.449	-61.117	0.315	0.133
-624.434	-82.061	-0.165	0.054
-623.419	-200.000	-0.014	0.128
-622.405	800.000	-0.051	0.199
-621.390	90.044	-0.181	0.202
-620.376	26.865	0.172	-0.145
-619.361	-200.000	0.000	0.251
-618.346	631.855	-0.063	0.161
-617.332	-200.000	-0.026	0.304
-616.317	-135.893	0.162	-0.019
-615.303	-200.000	0.061	0.407
-614.288	6.347	0.085	-0.063
-613.273	-70.066	-0.169	0.064
-612.259	-200.000	-0.013	0.072
-611.244	272.209	-0.088	-0.156
-610.230	97.033	0.368	0.423
-609.215	98.459	0.105	0.121
-608.201	-59.469	0.142	-0.061
-607.186	-200.000	-0.032	0.171
-606.171	-104.797	-0.398	-0.092
-605.157	-91.568	-0.061	-0.017
-604.142	200.715	0.117	-0.180
-603.128	800.000	-0.078	-0.236
-602.113	234.792	0.172	0.283
-601.098	800.000	-0.042	0.148
-600.084	-10.931	0.159	0.105
-599.069	267.139	0.098	-0.172
-598.055	-110.131	-0.082	-0.017
-597.040	51.371	0.160	-0.152
-596.025	-156.389	-0.184	-0.012
-595.011	-148.485	-0.224	0.018
-593.996	-200.000	-0.043	0.194
-592.982	-158.673	0.123	0.007
-591.967	-200.000	0.042	0.294
-590.952	-16.138	0.129	0.082
-589.938	-200.000	-0.048	-0.279
-588.923	-200.000	0.004	-0.115
-587.909	-200.000	0.046	0.255
-586.894	-50.035	0.297	0.141
-585.879	-42.768	-0.327	0.166
-584.865	-71.263	0.263	-0.099
-583.850	603.650	-0.109	-0.270
-582.836	-99.509	0.060	-0.015
-581.821	-200.000	0.003	-0.048
-580.806	-200.000	-0.012	-0.107
-579.792	49.448	-0.117	-0.111
-578.777	518.667	-0.099	-0.232
-577.763	-109.502	-0.082	0.017
-576.748	-200.000	0.006	0.084
-575.733	-42.009	-0.246	0.126
-574.719	-200.000	-0.045	-0.221
-573.704	-67.397	-0.178	0.070
-572.690	-200.000	-0.035	-0.202
-571.675	694.350	-0.134	-0.352
-570.661	194.058	-0.080	0.122
-569.646	-200.000	-0.010	0.232
-568.631	-200.000	-0.005	0.148
-567.617	-96.878	0.060	0.016
-566.602	312.586	-0.187	0.352
-565.588	-200.000	-0.044	-0.194
-564.573	-147.084	-0.107	-0.009
-563.558	800.000	0.052	-0.156
-562.544	-200.000	0.035	0.233
-561.529	800.000	0.033	-0.093
-560.515	-91.551	-0.242	0.069
-559.500	-200.000	0.024	-0.263
-558.485	-145.957	0.311	-0.028
-557.471	-25.114	-0.105	-0.062
-556.456	-16.596	-0.286	0.181
-555.442	800.000	0.053	0.164
-554.427	138.206	-0.135	-0.177
-553.412	37.147	-0.236	0.209
-552.398	110.824	-0.207	0.249
-551.383	-187.290	0.270	-0.004
-550.369	-99.973	0.220	0.055
-549.354	-200.000	-0.010	0.156
-548.339	-200.000	0.090	0.439
-547.325	-22.679	-0.270	-0.163
-546.310	800.000	0.041	0.163
-545.296	6.885	-0.080	-0.060
-544.281	362.137	0.071	-0.143
-543.266	-124.818	-0.063	0.010
-542.252	-60.111	-0.315	-0.134
-541.237	335.609	0.099	0.191
-540.223	13.079	0.328	-0.254
-539.208	-200.000	0.022	-0.354
-538.193	-116.581	-0.248	0.046
-537.179	669.353	0.059	0.152
-536.164	334.272	-0.029	-0.056
-535.150	701.076	0.123	-0.324
-534.135	38.445	0.113	0.101
-533.121	60.864	-0.266	0.264
-532.106	-65.564	-0.303	-0.121
-531.091	-144.935	-0.099	-0.009
-530.077	-116.685	0.033	0.006
-529.062	800.000	-0.036	-0.149
-528.048	-200.000	-0.009	-0.196
-527.033	800.000	0.030	-0.119
-526.018	-76.554	-0.400	0.140
-525.004	-41.138	0.238	-0.122
-523.989	128.163	-0.072	0.092
-522.975	-200.000	0.019	-0.201
-521.960	-21.904	-0.196	-0.119
-520.945	14.335	-0.194	-0.151
-519.931	-200.000	0.016	-0.136
-518.916	-47.162	0.047	-0.023
-517.902	-116.010	0.263	0.049
-516.887	800.000	-0.036	0.141
-515.872	191.256	0.065	-0.098
-514.858	-121.759	-0.320	0.053
-513.843	58.623	-0.113	0.110
-512.829	38.755	0.301	0.268
-511.814	-200.000	0.064	-0.362
-510.799	170.450	-0.324	0.462
-509.785	18.973	0.130	0.104
-508.770	164.424	-0.219	-0.308
-507.756	800.000	0.086	-0.249
-506.741	219.678	-0.045	-0.072
-505.726	-200.000	-0.002	-0.049
-504.712	-45.706	-0.192	-0.095
-503.697	330.637	0.013	-0.026
-502.683	108.515	0.337	-0.401
-501.668	-200.000	-0.030	-0.298
-500.653	226.946	0.066	-0.106
-499.639	64.533	-0.165	0.166
-498.624	33.909	-0.103	-0.089
-497.610	-12.411	0.220	-0.144
-496.595	-134.285	0.276	-0.034
-495.581	-200.000	-0.049	-0.439
-494.566	-62.259	0.154	-0.064
-493.551	-78.052	-0.339	0.116
-492.537	-74.982	-0.162	-0.058
-491.522	-200.000	0.011	-0.342
-490.508	93.647	-0.127	-0.144
-489.493	-38.538	-0.423	0.223
-488.478	302.546	0.102	-0.188
-487.464	-200.000	0.017	-0.121
-486.449	-43.616	-0.288	-0.145
-485.435	45.443	0.385	0.354
-484.420	-200.000	0.000	-0.372
-483.405	-34.112	0.062	-0.034
-482.391	-44.722	0.135	0.067
-481.376	-105.955	-0.178	0.040
-480.362	75.319	-0.249	-0.262
-479.347	168.749	0.186	-0.264
-478.332	103.104	-0.286	-0.334
-477.318	-123.706	0.237	0.037
-476.303	-107.440	-0.236	0.052
-475.289	10.159	0.170	-0.129
-474.274	-101.348	-0.207	0.050
-473.259	-48.248	0.226	0.108
-472.245	-200.000	0.165	-0.001
-471.230	-200.000	0.197	-0.001
-470.216	-50.134	-0.274	0.129
-469.201	5.741	0.238	0.175
-468.186	176.781	-0.143	0.206
-467.172	800.000	-0.077	-0.236
-466.157	-129.959	-0.206	-0.028
-465.143	184.478	0.027	0.039
-464.128	54.738	-0.127	0.122
-463.113	800.000	-0.019	-0.074
-462.099	-200.000	0.005	-0.193
-461.084	87.669	0.103	0.113
-460.070	501.113	-0.020	-0.046
-459.055	-99.570	0.232	-0.058
-458.040	-200.000	0.003	0.356
-457.026	439.040	-0.078	0.170
-456.011	800.000	0.058	0.165
-454.997	-158.410	0.287	0.017
-453.982	135.901	-0.033	-0.043
-452.968	-111.303	-0.259	0.053
-451.953	800.000	0.035	0.106
-450.938	-200.000	-0.090	-0.412
-449.924	222.135	0.078	-0.125
-448.909	-200.000	0.012	0.354
-447.895	33.955	-0.048	-0.042
-446.880	-100.716	-0.133	-0.033
-445.865	-47.459	-0.331	-0.160
-444.851	45.998	-0.170	0.156
-443.836	-200.000	0.033	0.163
-442.822	-36.831	-0.101	0.054
-441.807	227.861	-0.064	-0.104
-440.792	383.034	0.056	0.114
-439.778	49.939	0.279	-0.262
-438.763	16.503	-0.240	0.189
-437.749	122.281	0.233	0.289
-436.734	-200.000	0.073	-0.339
-435.719	257.939	-0.159	-0.272
-434.705	800.000	-0.036	0.148
-433.690	-49.506	-0.120	0.057
-432.676	-80.149	0.150	0.050
-431.661	800.000	0.022	-0.066
-430.646	-86.137	0.232	0.071
-429.632	-89.523	0.151	0.044
-428.617	163.750	-0.234	0.328
-427.603	-77.367	0.090	-0.031
-426.588	754.742	-0.112	0.302
-425.573	-51.447	0.213	-0.099
-424.559	800.000	0.106	0.307
-423.544	-44.894	0.206	0.102
-422.530	38.192	0.187	0.165
-421.515	146.454	0.034	0.045
-420.500	252.765	-0.031	0.053
-419.486	-200.000	-0.002	0.330
-418.471	-69.917	0.295	0.112
-417.457	-69.714	0.230	0.088
-416.442	-48.985	-0.042	-0.020
-415.428	285.796	0.142	-0.255
-414.413	-67.608	-0.249	-0.097
-413.398	-78.140	-0.300	0.102
-412.384	-200.000	0.002	0.275
-411.369	19.340	0.097	-0.077
-410.355	195.189	-0.067	-0.100
-409.340	800.000	0.034	-0.122
-408.325	800.000	0.033	0.106
-407.311	-188.382	0.279	0.003
-406.296	77.203	-0.186	-0.197
-405.282	-15.955	0.290	0.183
-404.267	134.682	-0.255	-0.329
-403.252	90.252	-0.051	0.057
-402.238	-59.512	-0.076	-0.033
-401.223	35.153	0.177	0.154
-400.209	-200.000	-0.028	0.384
-399.194	-200.000	-0.059	0.389
-398.179	-10.512	0.141	0.093
-397.165	348.712	-0.115	-0.225
-396.150	800.000	0.032	-0.125
-395.136	567.063	0.131	-0.317
-394.121	800.000	0.137	-0.498
-393.106	-200.000	0.005	-0.075
-392.092	-200.000	-0.031	-0.183
-391.077	-101.510	0.185	-0.045
-390.063	-136.570	-0.111	0.013
-389.048	236.275	0.139	0.228
-388.033	-116.026	0.230	0.043
-387.019	800.000	0.006	0.021
-386.004	206.803	-0.080	-0.123
-384.990	-153.373	-0.214	-0.015
-383.975	369.161	0.110	0.222
-382.960	-107.829	0.337	0.073
-381.946	-31.549	-0.216	-0.120
-380.931	800.000	-0.036	0.128
-379.917	-178.997	-0.328	-0.007
-378.902	47.164	-0.036	-0.033
-377.888	98.445	0.299	-0.342
-376.873	-1.269	-0.078	0.055
-375.858	-12.814	0.108	-0.070
-374.844	-200.000	-0.005	0.309
-373.829	64.812	-0.183	0.183
-372.815	-64.871	0.217	0.087
-371.800	-200.000	0.003	0.222
-370.785	121.688	0.110	-0.136
-369.771	-190.123	-0.023	0.000
-368.756	-200.000	-0.006	0.308
-367.742	-0.152	-0.186	0.131
-366.727	-15.460	0.210	-0.133
-365.712	48.906	0.236	0.220
-364.698	80.958	0.069	0.074
-363.683	533.780	0.201	-0.472
-362.669	225.371	0.038	0.061
-361.654	800.000	-0.028	-0.123
-360.639	95.586	-0.091	0.103
-359.625	184.850	0.171	-0.252
-358.610	127.291	0.060	-0.075
-357.596	-75.492	-0.430	-0.152
-356.581	-72.281	0.041	-0.015
-355.566	-200.000	0.005	-0.152
-354.552	800.000	0.109	-0.338
-353.537	-79.193	0.120	-0.040
-352.523	-200.000	0.021	0.235
-351.508	800.000	-0.056	0.180
-350.493	-29.955	0.387	-0.219
-349.479	-200.000	-0.020	0.263
-348.464	676.718	0.115	0.296
-347.450	-200.000	0.004	0.193
-346.435	-103.045	-0.190	0.045
-345.420	-148.344	0.375	0.031
-344.406	-31.391	-0.134	0.075
-343.391	-141.964	-0.345	-0.034
-342.377	-93.756	0.250	0.068
-341.362	-4.389	0.036	-0.025
-340.348	-101.437	0.112	0.027
-339.333	-53.047	-0.421	-0.192
-338.318	-73.540	0.442	0.160
-337.304	-200.000	-0.017	-0.112
-336.289	-200.000	0.020	0.266
-335.275	25.814	-0.185	-0.153
-334.260	-76.522	0.227	-0.079
-333.245	135.587	0.206	-0.266
-332.231	233.429	-0.071	0.116
-331.216	800.000	-0.073	-0.259
-330.202	74.913	-0.118	0.123
-329.187	24.041	0.289	0.236
-328.172	-109.398	-0.270	0.056
-327.158	-200.000	-0.023	0.207
-326.143	-106.996	0.063	-0.014
-325.129	146.408	-0.245	0.326
-324.114	-115.636	0.103	-0.019
-323.099	50.591	0.374	-0.351
-322.085	64.478	0.155	0.155
-321.070	800.000	0.062	0.242
-320.056	-200.000	-0.006	0.107
-319.041	-100.982	-0.098	0.024
-318.026	169.169	0.109	-0.154
-317.012	-49.803	-0.159	-0.075
-315.997	-12.915	0.153	0.099
-314.983	130.419	-0.118	0.149
-313.968	-200.000	-0.009	-0.194
-312.953	-5.055	-0.226	0.154
-311.939	800.000	0.069	-0.241
-310.924	-128.126	0.102	0.015
-309.910	-178.093	-0.181	-0.004
-308.895	-186.284	-0.370	0.005
-307.880	800.000	-0.061	-0.220
-306.866	-31.822	0.129	-0.071
-305.851	-147.611	0.256	0.021
-304.837	-53.194	0.235	-0.107
-303.822	-57.849	-0.270	-0.117
-302.807	170.147	0.024	0.033
-301.793	-200.000	-0.038	-0.325
-300.778	-51.843	0.135	-0.062
-299.764	-200.000	0.003	-0.063
-298.749	-200.000	0.045	0.352
-297.735	-4.419	-0.239	0.164
-296.720	-40.734	-0.246	0.126
-295.705	-200.000	0.012	0.231
-294.691	-200.000	-0.035	-0.345
-293.676	-116.621	-0.272	0.050
-292.662	-122.822	0.343	-0.055
-291.647	-200.000	-0.012	0.108
-290.632	-158.820	0.383	0.022
-289.618	-34.864	0.168	-0.091
-288.603	-93.848	-0.240	0.065
-287.589	551.580	0.083	0.197
-286.574	335.596	0.121	-0.231
-285.559	187.963	0.050	0.074
-284.545	-200.000	0.016	0.123
-283.530	-45.968	0.215	0.105
-282.516	-200.000	-0.078	0.390
-281.501	-136.859	0.274	-0.031
-280.486	258.804	0.035	-0.059
-279.472	-200.000	0.032	-0.181
-278.457	-143.293	-0.279	-0.026
-277.443	-116.754	-0.091	-0.017
-276.428	-172.251	-0.402	0.013
-275.413	-200.000	-0.023	0.126
-274.399	43.238	-0.239	0.216
-273.384	22.723	-0.219	0.178
-272.370	193.250	-0.165	-0.247
-271.355	800.000	0.061	-0.209
-270.340	-200.000	-0.020	-0.172
-269.326	-3.851	0.130	-0.089
-268.311	498.049	0.050	-0.114
-267.297	-9.576	0.018	-0.012
-266.282	800.000	0.085	0.325
-265.267	-1.657	-0.201	-0.140
-264.253	297.164	-0.143	-0.260
-263.238	-200.000	-0.318	0.001
-262.224	-17.995	0.188	-0.117
-261.209	411.806	0.038	0.079
-260.195	-119.209	0.006	0.001
-259.180	10.253	0.093	0.070
-258.165	-98.108	-0.229	0.058
-257.151	-0.982	0.110	0.077
-256.136	-28.787	0.289	0.164
-255.122	-1.094	0.227	0.158
-254.107	-200.000	0.011	0.264
-253.092	-1.821	0.390	0.271
-252.078	288.565	-0.198	0.354
-251.063	10.403	0.082	-0.061
-250.049	-87.627	-0.223	-0.066
-249.034	-157.151	0.095	-0.006
-248.019	-48.557	0.336	-0.160
-247.005	-200.000	-0.008	0.164
-245.990	-200.000	0.031	-0.162
-244.976	-200.000	0.005	-0.280
-243.961	146.159	-0.033	0.043
-242.946	-127.022	-0.131	0.019
-241.932	406.055	0.018	0.038
-240.917	-32.614	0.024	-0.013
-239.903	-200.000	0.012	-0.548
-238.888	-38.036	-0.239	-0.125
-237.873	284.788	0.167	-0.297
-236.859	310.640	-0.250	-0.462
-235.844	-200.000	-0.019	-0.164
-234.830	-44.382	-0.379	0.187
-233.815	-69.220	0.177	-0.067
-232.800	-200.000	0.008	0.173
-231.786	-108.010	0.075	0.016
-230.771	0.561	-0.540	-0.381
-229.757	171.121	0.110	-0.156
-228.742	104.777	0.040	-0.046
-227.727	-200.000	0.033	-0.200
-226.713	755.582	0.211	0.563
-225.698	75.500	-0.131	0.137
-224.684	-200.000	-0.034	0.186
-223.669	190.884	0.243	0.360
-222.655	-200.000	-0.002	-0.052
-221.640	-16.241	0.026	-0.017
-220.625	-38.492	-0.245	0.128
-219.611	-14.493	0.291	0.185
-218.596	-156.482	-0.168	0.010
-217.582	-83.539	0.155	-0.049
-216.567	413.632	0.032	0.066
-215.552	432.413	0.069	-0.147
-214.538	-200.000	0.052	-0.239
-213.523	800.000	-0.035	0.116
-212.509	96.928	-0.088	-0.100
-211.494	24.342	-0.205	0.167
-210.479	-200.000	-0.061	-0.401
-209.465	-29.180	-0.162	0.092
-208.450	133.700	-0.094	-0.120
-207.436	-200.000	0.008	0.072
-206.421	-200.000	0.062	0.427
-205.406	-18.591	0.139	0.085
-204.392	-116.053	-0.335	0.062
-203.377	-200.000	0.000	0.010
-202.363	512.322	-0.074	-0.170
-201.348	-29.180	-0.203	0.115
-200.333	-54.581	0.096	0.043
-199.319	388.085	-0.101	0.207
-198.304	-67.883	0.199	0.077
-197.290	-200.000	-0.014	0.091
-196.275	-144.810	0.275	0.025
-195.260	-172.365	0.143	-0.005
-194.246	-109.431	-0.380	0.079
-193.231	-9.821	-0.093	-0.061
-192.217	-14.049	0.164	-0.104
-191.202	57.049	-0.156	0.149
-190.187	69.719	0.243	-0.247
-189.173	-85.032	-0.217	0.067
-188.158	-2.465	-0.165	0.114
-187.144	-23.075	0.130	-0.077
-186.129	59.619	0.136	-0.132
-185.114	-200.000	-0.009	-0.156
-184.100	10.432	0.074	-0.055
-183.085	2.444	-0.120	0.085
-182.071	62.306	0.030	0.029
-181.056	601.146	0.055	-0.134
-180.042	-21.584	0.191	0.115
-179.027	30.435	0.216	-0.182
-178.012	-32.422	-0.129	-0.071
-176.998	-89.052	0.315	-0.092
-175.983	159.248	0.161	0.220
-174.969	357.306	-0.084	0.165
-173.954	-200.000	0.023	-0.106
-172.939	800.000	-0.088	0.282
-171.925	-114.902	0.071	-0.013
-170.910	-25.835	-0.153	0.088
-169.896	64.316	0.123	0.122
-168.881	-200.000	0.007	-0.403
-167.866	179.238	0.145	0.209
-166.852	261.153	-0.058	-0.098
-165.837	-40.650	0.112	-0.057
-164.823	-120.042	0.161	-0.027
-163.808	800.000	0.055	-0.212
-162.793	9.205	0.145	-0.108
-161.779	-35.530	0.174	0.093
-160.764	52.664	0.329	0.309
-159.750	-200.000	-0.000	-0.200
-158.735	272.835	0.223	-0.388
-157.720	10.134	-0.102	-0.076
-156.706	-148.775	-0.084	-0.007
-155.691	-50.519	0.168	-0.078
-154.677	-132.631	0.374	0.047
-153.662	184.358	-0.159	0.232
-152.647	21.661	0.117	0.094
-151.633	238.560	-0.081	0.133
-150.618	56.144	0.166	-0.158
-149.604	68.854	0.100	0.101
-148.589	800.000	-0.077	0.280
-147.574	800.000	-0.024	-0.096
-146.560	-180.121	0.217	-0.005
-145.545	-167.349	0.340	-0.013
-144.531	800.000	0.062	0.232
-143.516	-142.576	0.104	0.010
-142.502	206.709	-0.183	-0.281
-141.487	62.673	0.134	0.131
-140.472	-12.071	-0.192	-0.123
-139.458	-174.439	0.113	-0.003
-138.443	-112.951	-0.187	-0.036
-137.429	204.756	0.094	0.143
-136.414	-200.000	-0.105	-0.487
-135.399	220.216	-0.088	-0.138
-134.385	381.508	0.056	-0.114
-133.370	-200.000	-0.040	0.252
-132.356	45.678	0.029	0.027
-131.341	-200.000	0.024	-0.103
-130.326	171.518	-0.110	-0.155
-129.312	800.000	-0.079	0.265
-128.297	22.136	-0.172	-0.138
-127.283	-45.509	0.317	-0.154
-126.268	-107.128	0.266	-0.058
-125.253	800.000	0.071	0.196
-124.239	-108.081	0.139	0.030
-123.224	572.515	0.143	-0.341
-122.210	-126.696	0.145	0.021
-121.195	-200.000	0.010	0.121
-120.180	230.785	-0.156	0.250
-119.166	-200.000	-0.003	0.138
-118.151	70.438	-0.208	0.211
-117.137	-10.807	0.151	0.098
-116.122	-27.379	-0.126	0.072
-115.107	-90.046	0.303	0.087
-114.093	189.674	-0.153	-0.225
-113.078	-182.964	0.081	-0.001
-112.064	138.852	0.185	0.238
-111.049	-115.099	-0.282	0.052
-110.034	800.000	0.043	0.144
-109.020	800.000	-0.012	-0.046
-108.005	-184.888	0.184	-0.003
-106.991	372.016	0.070	-0.139
-105.976	58.139	0.102	0.098
-104.962	65.590	0.309	0.307
-103.947	-102.085	-0.247	-0.058
-102.932	433.309	-0.130	0.276
-101.918	324.890	-0.066	-0.124
-100.903	-105.816	-0.214	0.047
-99.889	-200.000	-0.018	-0.162
-98.874	-200.000	-0.010	0.056
-97.859	66.156	-0.217	0.216
-96.845	-200.000	0.008	0.104
-95.830	141.619	-0.084	0.109
-94.816	-200.000	-0.039	0.371
-93.801	-50.614	-0.131	-0.061
-92.786	95.536	-0.318	0.356
-91.772	309.377	0.209	-0.383
-90.757	-78.368	0.211	0.071
-89.743	800.000	-0.045	-0.170
-88.728	153.351	0.135	0.181
-87.713	800.000	-0.081	-0.316
-86.699	-17.867	0.236	0.145
-85.684	58.866	-0.228	-0.220
-84.670	190.791	0.025	-0.036
-83.655	160.891	0.108	0.148
-82.640	800.000	-0.037	-0.104
-81.626	-168.368	-0.060	-0.002
-80.611	-200.000	-0.007	-0.103
-79.597	24.624	0.102	-0.083
-78.582	-162.646	0.100	0.005
-77.567	800.000	0.015	0.063
-76.553	-139.583	0.552	-0.058
-75.538	148.403	0.191	-0.253
-74.524	800.000	-0.047	-0.167
-73.509	800.000	0.077	-0.233
-72.494	-200.000	0.014	-0.191
-71.480	249.566	-0.132	-0.220
-70.465	583.698	-0.091	-0.219
-69.451	-13.370	-0.139	0.089
-68.436	-101.120	0.127	0.031
-67.422	10.904	0.055	-0.041
-66.407	92.517	-0.202	-0.223
-65.392	318.382	-0.029	0.053
-64.378	800.000	0.074	0.217
-63.363	241.068	0.139	-0.227
-62.349	158.073	0.144	0.196
-61.334	16.633	-1.072	-0.831
-60.319	161.186	0.334	0.457
-59.305	800.000	-0.401	-1.207
-58.290	607.241	0.584	1.428
-57.276	800.000	0.634	1.840
-56.261	-200.000	114.421	652.715
-55.246	537.350	1522.283	3542.889
-54.232	178.904	2684.799	3845.240
-53.217	109.270	2147.920	2518.875
-52.203	39.034	1595.789	1397.539
-51.188	30.968	1343.252	1127.768
-50.173	28.121	1305.740	1079.457
-49.159	55.130	1362.957	1290.222
-48.144	53.970	1376.636	1296.155
-47.130	31.245	1331.683	1119.534
-46.115	27.760	1314.086	1084.039
-45.100	27.669	1308.995	1079.257
-44.086	27.477	1307.171	1076.576
-43.071	27.387	1304.707	1073.970
-42.057	27.463	1303.019	1072.990
-41.042	27.570	1300.989	1071.900
-40.027	27.546	1299.505	1070.496
-39.013	27.610	1297.424	1069.116
-37.998	27.540	1295.685	1067.228
-36.984	27.541	1294.338	1066.083
-35.969	27.609	1292.499	1064.922
-34.954	27.728	1290.616	1064.023
-33.940	27.627	1289.765	1062.690
-32.925	27.693	1288.025	1061.598
-31.911	27.716	1286.475	1060.411
-30.896	27.820	1284.616	1059.441
-29.881	27.734	1283.927	1058.334
-28.867	27.747	1282.556	1057.235
-27.852	27.745	1280.909	1055.823
-26.838	27.816	1279.620	1055.134
-25.823	27.694	1278.874	1053.773
-24.809	27.594	1277.374	1051.917
-23.794	27.630	1275.849	1050.825
-22.779	27.735	1274.286	1050.103
-21.765	27.778	1272.863	1049.136
-20.750	27.702	1271.855	1047.823
-19.736	27.690	1270.634	1046.708
-18.721	27.603	1269.339	1045.101
-17.706	27.672	1268.286	1044.585
-16.692	27.498	1267.680	1043.049
-15.677	27.524	1266.187	1041.928
-14.663	27.477	1265.063	1040.692
-13.648	27.535	1264.120	1040.208
-12.633	27.602	1262.919	1039.564
-11.619	27.533	1262.736	1038.974
-10.604	27.595	1261.367	1038.164
-9.590	27.496	1260.472	1036.822
-8.575	27.514	1259.161	1035.804
-7.560	27.554	1258.666	1035.581
-6.546	27.625	1257.641	1035.099
-5.531	27.506	1257.080	1033.924
-4.517	27.582	1256.045	1033.463
-3.502	27.600	1255.453	1033.037
-2.487	27.631	1254.067	1032.028
-1.473	27.568	1249.775	1028.103
-0.458	25.941	1235.014	1006.837
0.556	24.045	1217.918	969.322
1.571	20.282	1223.152	952.781
2.586	19.282	1238.107	958.783
3.600	19.163	1226.207	948.828
4.615	14.808	1154.614	870.709
5.629	7.350	1082.062	779.382
6.644	4.102	1064.249	750.766
7.659	3.922	1061.878	748.158
8.673	3.679	1060.655	746.053
9.688	3.697	1059.369	745.172
10.702	4.102	1057.676	745.866
11.717	8.878	1063.645	773.084
12.731	16.974	1075.710	821.130
13.746	21.744	1081.765	848.840
14.761	22.668	1082.169	853.555
15.775	22.044	1080.470	849.124
16.790	20.971	1079.029	842.731
17.804	20.534	1077.331	839.220
18.819	20.300	1076.291	837.207
19.834	20.274	1076.093	836.856
20.848	20.356	1075.025	836.347
21.863	20.156	1074.268	834.719
22.877	19.968	1073.995	833.531
23.892	19.960	1073.004	832.650
24.907	19.787	1072.538	831.382
25.921	19.945	1070.953	830.836
26.936	19.772	1070.310	829.434
27.950	19.739	1068.363	827.696
28.965	20.049	1066.653	827.779
29.980	20.153	1065.831	827.564
30.994	20.181	1064.928	826.924
32.009	20.228	1064.031	826.377
33.023	20.231	1062.945	825.475
34.038	20.090	1061.793	823.836
35.053	19.801	1061.311	822.019
36.067	19.845	1060.267	821.345
37.082	19.975	1059.212	821.070
38.096	20.027	1058.959	821.049
39.111	20.096	1058.265	820.764
40.126	19.927	1056.478	818.506
41.140	19.749	1054.436	816.013
42.155	19.489	1053.693	814.137
43.169	19.302	1052.789	812.488
44.184	19.483	1051.322	812.136
45.199	19.393	1051.100	811.468
46.213	19.589	1050.316	811.712
47.228	19.907	1049.519	812.519
48.242	19.949	1048.683	811.996
49.257	19.874	1047.818	810.903
50.271	20.033	1047.187	811.085
51.286	20.137	1046.026	810.601
52.301	20.151	1044.728	809.588
53.315	19.888	1043.742	807.528
54.330	19.660	1043.062	805.865
55.344	19.528	1042.180	804.499
56.359	19.566	1041.190	803.843
57.374	19.604	1040.272	803.236
58.388	19.418	1039.408	801.633
59.403	19.338	1038.483	800.482
60.417	19.378	1037.668	799.965
61.432	19.472	1036.568	799.484
62.447	19.282	1035.804	797.945
63.461	19.224	1035.226	797.158
64.476	19.064	1034.594	795.860
65.490	19.138	1033.576	795.349
66.505	19.322	1032.464	795.273
67.520	19.246	1032.032	794.520
68.534	19.102	1031.596	793.450
69.549	19.148	1030.589	792.817
70.563	18.996	1030.037	791.622
71.578	18.817	1029.116	790.021
72.593	18.751	1028.117	788.883
73.607	18.818	1027.231	788.439
74.622	18.954	1026.932	788.764
75.636	18.909	1026.426	788.099
76.651	19.066	1025.195	787.803
77.666	19.096	1025.025	787.741
78.680	19.027	1024.238	786.748
79.695	19.083	1023.847	786.635
80.709	19.375	1023.415	787.566
81.724	19.395	1022.769	787.093
82.739	19.573	1022.198	787.395
83.753	19.945	1021.747	788.673
84.768	20.184	1021.476	789.483
85.782	20.445	1020.467	789.820
86.797	20.214	1019.859	788.232
87.812	20.147	1018.275	786.631
88.826	20.249	1017.323	786.289
89.841	20.313	1016.951	786.223
90.855	20.386	1016.052	785.788
91.870	20.396	1015.115	785.037
92.884	20.269	1014.344	783.801
93.899	20.160	1013.751	782.780
94.914	20.294	1012.674	782.481
95.928	20.280	1011.802	781.678
96.943	20.121	1010.598	779.964
97.957	19.900	1009.824	778.304
98.972	20.164	1008.650	778.513
99.987	20.171	1007.750	777.782
101.001	20.164	1007.088	777.173
102.016	20.042	1006.248	775.908
103.030	20.125	1005.531	775.656
104.045	20.244	1004.747	775.515
105.060	20.026	1003.606	773.594
106.074	19.730	1002.223	771.138
107.089	19.454	1000.763	768.716
108.103	19.316	999.855	767.338
109.118	19.265	998.909	766.319
110.133	19.173	998.184	765.285
111.147	19.097	997.091	764.043
112.162	19.198	996.237	763.768
113.176	19.483	995.556	764.442
114.191	19.526	995.184	764.279
115.206	19.347	994.449	762.854
116.220	19.349	993.770	762.272
117.235	19.250	992.636	760.899
118.249	19.289	991.433	760.082
119.264	19.157	991.089	759.171
120.279	19.115	989.704	757.857
121.293	19.025	988.947	756.812
122.308	18.910	988.384	755.810
123.322	18.890	987.017	754.610
124.337	18.865	985.887	753.571
125.352	18.831	985.055	752.720
126.366	18.877	983.842	751.924
127.381	18.922	982.944	751.368
128.395	19.043	982.369	751.391
129.410	19.021	981.319	750.425
130.424	19.241	981.027	751.094
131.439	19.327	980.339	750.878
132.454	19.461	979.583	750.814
133.468	19.311	979.092	749.721
134.483	19.343	978.446	749.298
135.497	19.297	977.542	748.338
136.512	19.413	976.633	748.082
137.527	19.454	975.794	747.548
138.541	19.490	974.930	746.976
139.556	19.608	974.305	746.941
140.570	19.698	974.328	747.284
141.585	19.963	973.455	747.693
142.600	19.990	972.621	747.102
143.614	20.296	971.244	747.294
144.629	20.149	971.359	746.687
145.643	20.078	970.135	745.375
146.658	19.832	968.518	743.008
147.673	19.638	967.501	741.332
148.687	19.536	966.117	739.769
149.702	19.453	965.391	738.790
150.716	19.359	964.603	737.722
151.731	19.522	963.746	737.694
152.746	19.597	963.016	737.390
153.760	19.595	962.742	737.107
154.775	19.844	962.117	737.626
155.789	19.870	961.811	737.436
156.804	19.747	960.745	736.032
157.819	19.993	959.964	736.415
158.833	20.265	959.808	737.386
159.848	20.262	958.898	736.609
160.862	20.049	957.551	734.604
161.877	19.597	956.159	731.559
162.892	19.475	954.987	730.083
163.906	19.514	953.815	729.284
164.921	19.334	953.241	728.020
165.935	19.650	952.095	728.416
166.950	19.627	951.693	727.947
167.964	19.585	950.953	727.137
168.979	19.404	949.843	725.466
169.994	19.511	948.680	724.962
171.008	19.545	948.445	724.858
172.023	20.092	947.566	726.416
173.037	20.140	947.071	726.174
174.052	20.036	946.018	724.869
175.067	19.432	945.317	721.741
176.081	19.297	944.402	720.412
177.096	19.428	943.756	720.405
178.110	19.376	943.501	719.929
179.125	19.328	942.983	719.271
180.140	19.505	942.524	719.593
181.154	19.893	942.137	720.853
182.169	20.011	941.732	720.968
183.183	20.065	940.888	720.483
184.198	20.040	940.167	719.764
185.213	20.136	939.317	719.450
186.227	19.964	939.271	718.636
187.242	20.174	938.684	718.994
188.256	20.249	938.781	719.316
189.271	20.396	937.323	718.745
190.286	19.851	936.235	715.592
191.300	19.310	934.979	712.332
192.315	19.131	933.816	710.646
193.329	19.282	934.089	711.415
194.344	19.504	933.161	711.559
195.359	19.701	932.311	711.660
196.373	19.919	932.067	712.308
197.388	20.145	932.029	713.143
198.402	20.392	931.557	713.737
199.417	20.497	931.307	713.911
200.432	20.575	930.854	713.822
201.446	20.645	930.464	713.747
202.461	20.838	929.646	713.848
203.475	20.688	928.930	712.621
204.490	20.264	927.547	709.762
205.504	20.003	927.115	708.303
206.519	20.149	925.835	707.856
207.534	20.002	925.703	707.095
208.548	20.013	925.029	706.562
209.563	20.102	924.306	706.309
210.577	20.192	923.867	706.280
211.592	20.362	923.376	706.533
212.607	20.453	922.722	706.339
213.621	20.473	921.384	705.335
214.636	20.358	921.167	704.638
215.650	20.385	920.304	704.025
216.665	20.441	920.213	704.120
217.680	20.651	919.755	704.558
218.694	20.649	918.814	703.766
219.709	20.574	918.217	702.943
220.723	20.464	917.512	701.900
221.738	20.405	916.558	700.867
222.753	20.393	916.168	700.459
223.767	20.548	915.290	700.352
224.782	20.670	915.584	701.005
225.796	20.708	914.826	700.515
226.811	20.492	913.775	698.779
227.826	20.360	913.140	697.703
228.840	20.349	911.979	696.708
229.855	20.297	911.176	695.826
230.869	20.246	910.578	695.103
231.884	20.218	910.125	694.583
232.899	20.003	909.132	692.907
233.913	19.945	908.530	692.152
234.928	19.819	907.815	691.042
235.942	19.971	907.114	691.056
236.957	20.023	906.441	690.690
237.972	20.021	906.157	690.404
238.986	19.866	905.587	689.292
240.001	20.014	904.935	689.324
241.015	20.008	904.317	688.766
242.030	20.299	903.740	689.421
243.045	20.350	903.359	689.273
244.059	20.312	902.328	688.277
245.074	20.483	901.936	688.594
246.088	20.465	901.744	688.316
247.103	20.641	901.137	688.488
248.117	20.945	901.051	689.564
249.132	21.223	901.053	690.604
250.147	21.594	900.053	691.242
251.161	21.504	900.102	690.862
252.176	21.608	898.990	690.358
253.190	21.646	898.499	690.069
254.205	21.687	898.039	689.817
255.220	21.418	897.732	688.460
256.234	21.429	896.436	687.449
257.249	21.496	895.819	687.180
258.263	21.360	895.062	686.004
259.278	21.444	894.438	685.795
260.293	21.539	893.946	685.727
261.307	21.555	893.879	685.679
262.322	21.600	893.178	685.256
263.336	21.616	892.132	684.457
264.351	21.681	891.348	684.048
265.366	21.740	890.230	683.359
266.380	21.624	889.850	682.553
267.395	21.425	889.405	681.378
268.409	21.356	888.690	680.502
269.424	21.384	887.725	679.808
270.439	21.366	887.089	679.194
271.453	21.248	885.951	677.804
272.468	21.022	885.916	676.841
273.482	21.179	885.208	676.849
274.497	21.031	884.757	675.871
275.512	21.123	884.122	675.679
276.526	21.208	883.513	675.485
277.541	21.336	883.185	675.670
278.555	21.305	883.381	675.641
279.570	21.853	882.298	676.867
280.585	21.600	881.746	675.407
281.599	21.459	880.398	673.772
282.614	21.253	879.428	672.176
283.628	21.204	879.411	671.918
284.643	21.285	878.675	671.608
285.657	21.292	877.822	670.920
286.672	21.297	877.586	670.700
287.687	21.407	876.643	670.341
288.701	21.435	876.240	670.082
289.716	21.410	875.760	669.562
290.730	21.241	875.069	668.325
291.745	21.486	874.229	668.564
292.760	21.689	874.085	669.167
293.774	21.704	873.811	668.955
294.789	21.646	872.874	667.959
295.803	21.275	871.989	665.807
296.818	21.243	870.933	664.823
297.833	21.455	870.189	665.002
298.847	21.267	869.881	663.994
299.862	21.353	869.840	664.230
300.876	21.692	869.254	665.010
301.891	21.871	868.848	665.322
302.906	21.856	868.423	664.880
303.920	22.157	867.797	665.482
304.935	22.150	867.806	665.401
305.949	21.944	866.553	663.604
306.964	21.794	865.945	662.511
307.979	21.765	865.489	661.994
308.993	21.931	864.976	662.171
310.008	22.046	864.199	661.952
311.022	21.787	863.617	660.470
312.037	21.640	862.827	659.254
313.052	21.387	862.042	657.645
314.066	21.300	861.398	656.768
315.081	21.275	861.037	656.343
316.095	21.262	860.334	655.698
317.110	21.278	859.860	655.340
318.125	21.125	859.471	654.410
319.139	21.169	858.720	653.946
320.154	21.321	858.248	654.099
321.168	21.430	857.982	654.246
322.183	21.464	857.687	654.090
323.197	21.567	856.634	653.612
324.212	21.541	856.161	653.096
325.227	21.436	855.553	652.183
326.241	21.398	854.964	651.536
327.256	21.211	854.576	650.487
328.270	21.189	854.159	650.030
329.285	21.242	853.615	649.757
330.300	21.154	852.632	648.623
331.314	21.388	852.104	649.032
332.329	21.454	852.117	649.231
333.343	21.682	851.577	649.606
334.358	21.643	851.575	649.402
335.373	21.794	850.832	649.338
336.387	21.843	850.626	649.304
337.402	21.936	850.493	649.491
338.416	22.107	850.589	650.140
339.431	22.276	850.248	650.444
340.446	22.538	849.467	650.758
341.460	22.444	849.430	650.323
342.475	22.420	849.181	649.987
343.489	22.641	848.382	650.133
344.504	22.622	848.083	649.776
345.519	22.684	847.785	649.719
346.533	22.653	846.825	648.813
347.548	22.317	846.131	646.989
348.562	22.037	845.149	645.152
349.577	21.907	844.398	644.045
350.592	21.879	843.747	643.388
351.606	21.632	843.451	642.200
352.621	21.816	842.332	641.963
353.635	21.780	842.025	641.543
354.650	22.060	841.372	642.013
355.665	22.026	841.116	641.635
356.679	22.090	840.273	641.168
357.694	22.074	839.580	640.524
358.708	22.096	838.930	640.052
359.723	22.108	838.141	639.437
360.738	22.122	837.594	639.015
361.752	22.270	837.270	639.247
362.767	22.376	837.253	639.566
363.781	22.592	836.755	639.910
364.796	22.799	836.318	640.273
365.810	22.761	836.100	639.912
366.825	22.947	835.636	640.174
367.840	22.772	835.083	639.057
368.854	22.487	834.494	637.518
369.869	22.463	833.757	636.813
370.883	22.530	833.212	636.585
371.898	22.649	833.188	636.940
372.913	22.908	832.546	637.328
373.927	22.572	832.207	635.799
374.942	22.627	832.079	635.844
375.956	22.859	831.322	636.045
376.971	22.969	830.959	636.107
377.986	23.091	830.954	636.485
379.000	23.166	830.066	636.016
380.015	23.055	829.483	635.117
381.029	23.118	828.500	634.534
382.044	23.037	827.932	633.751
383.059	23.022	827.678	633.449
384.073	22.860	826.628	632.008
385.088	22.597	825.984	630.518
386.102	22.465	825.476	629.602
387.117	22.428	824.575	628.728
388.132	22.365	824.310	628.244
389.146	22.615	823.846	628.728
390.161	22.927	823.534	629.548
391.175	22.777	823.247	628.738
392.190	22.601	822.590	627.553
393.205	22.476	822.015	626.613
394.219	22.452	821.479	626.066
395.234	22.326	820.826	625.063
396.248	22.247	820.452	624.444
397.263	22.191	819.975	623.827
398.278	22.083	819.462	622.997
399.292	22.044	819.049	622.490
400.307	22.153	818.256	622.220
401.321	22.360	818.160	622.823
402.336	22.467	817.624	622.740
403.350	22.596	817.449	623.006
404.365	22.908	816.931	623.659
405.380	23.020	816.782	623.886
406.394	23.020	816.604	623.694
407.409	23.208	815.938	623.793
408.423	23.297	815.574	623.771
409.438	23.326	815.048	623.417
410.453	23.334	815.086	623.420
411.467	23.275	814.710	622.870
412.482	23.487	814.040	623.047
413.496	23.698	813.822	623.566
414.511	23.492	813.341	622.418
415.526	23.347	812.894	621.513
416.540	23.337	812.482	621.109
417.555	23.423	811.400	620.527
418.569	23.442	810.882	620.144
419.584	23.410	810.617	619.772
420.599	23.407	810.320	619.481
421.613	164.467	1372.540	1799.272
422.628	143.236	1454.448	1799.374
