DTS Sentinel unit serial number:	SN413079Multiplexer serial number:	ORYXHardware model number:	OX4-SRSoftware version number:	ORYX F/W v4.00 Oryx Data Collector v3.7.2.0data status	okinstallation	princeton_trtdifferential loss correction	single-endedforward channel	channel 1reverse channel	N/Adate	2019/09/12time	10:36:11forward acquisition time	60.00reverse acquisition time	0.00gamma	496.2192k internal	0.2296k external	0.2296temperature offset calibration	1.0043default loss term (dB/km)	0.3790temperature slope calibration	1.0000multiplexer offset coefficient	1.0000multiplexer slope coefficient	1.0000fibre end	0.00T internal ref (°C)	37.31T ext. ref 1 (°C)	1.89T ext. ref 2 (°C)	35.45length (m)	temperature (°C)	Stokes	anti-Stokes-747.200	-40.080	-0.114	0.061
-746.185	-8.866	-0.060	0.041
-745.171	4.641	0.215	0.161
-744.156	-80.437	0.184	0.063
-743.142	5.754	-0.325	-0.246
-742.127	800.000	-0.133	0.575
-741.112	-200.000	-0.064	0.297
-740.098	-200.000	0.011	0.176
-739.083	-200.000	0.018	0.450
-738.069	326.292	-0.080	-0.156
-737.054	35.840	0.200	0.180
-736.039	800.000	-0.002	-0.005
-735.025	95.228	0.121	-0.140
-734.010	404.069	-0.032	-0.068
-732.996	427.442	-0.104	-0.229
-731.981	259.396	0.077	-0.135
-730.966	-51.632	-0.339	-0.162
-729.952	124.503	-0.144	-0.185
-728.937	-145.047	-0.573	0.053
-727.923	-200.000	-0.005	-0.198
-726.908	175.524	-0.211	-0.312
-725.894	-68.107	-0.160	0.064
-724.879	-162.161	-0.337	-0.017
-723.864	-124.144	-0.217	0.035
-722.850	800.000	-0.062	0.204
-721.835	-51.353	-0.083	-0.040
-720.821	800.000	0.026	0.116
-719.806	-22.014	0.176	0.109
-718.791	-72.214	-0.544	-0.206
-717.777	482.526	0.018	0.043
-716.762	-73.116	-0.221	0.083
-715.748	475.010	-0.031	-0.071
-714.733	-200.000	0.020	0.121
-713.718	116.607	0.173	0.217
-712.704	-130.031	-0.606	0.085
-711.689	-198.690	0.028	-0.000
-710.675	800.000	0.039	-0.144
-709.660	127.391	0.181	-0.235
-708.645	-152.268	-0.129	-0.010
-707.631	-110.493	-0.121	0.026
-706.616	-57.716	-0.163	0.073
-705.602	321.653	0.051	0.098
-704.587	132.836	0.039	-0.052
-703.572	-200.000	-0.048	0.435
-702.558	-34.753	0.205	-0.114
-701.543	490.906	-0.020	-0.047
-700.529	-34.701	-0.284	-0.158
-699.514	-119.962	-0.082	0.014
-698.499	800.000	0.148	-0.495
-697.485	-200.000	0.089	-0.000
-696.470	662.644	-0.057	0.149
-695.456	-120.548	0.114	0.020
-694.441	63.975	0.028	0.028
-693.426	-200.000	-0.036	-0.397
-692.412	36.145	-0.151	-0.136
-691.397	0.183	-0.183	-0.133
-690.383	208.706	0.053	-0.084
-689.368	263.967	0.095	0.169
-688.354	25.493	-0.074	-0.063
-687.339	74.657	-0.145	-0.155
-686.324	-137.233	-0.208	-0.024
-685.310	-11.678	-0.273	-0.183
-684.295	20.701	-0.101	-0.083
-683.281	202.630	-0.090	0.142
-682.266	38.304	0.111	-0.101
-681.251	3.205	-0.034	-0.025
-680.237	800.000	0.166	-0.494
-679.222	381.444	0.048	0.100
-678.208	434.024	0.063	0.139
-677.193	-142.304	0.060	0.006
-676.178	22.009	-0.179	-0.149
-675.164	-5.349	-0.094	0.066
-674.149	652.278	0.053	0.137
-673.135	654.541	0.111	0.291
-672.120	-124.233	0.367	-0.059
-671.105	800.000	-0.065	0.230
-670.091	169.074	0.181	0.263
-669.076	-200.000	0.004	0.238
-668.062	-125.678	0.295	0.046
-667.047	-35.946	-0.224	0.123
-666.032	-113.466	0.178	0.035
-665.018	122.425	-0.200	0.255
-664.003	800.000	0.029	0.102
-662.989	39.721	0.130	0.119
-661.974	800.000	0.071	-0.218
-660.959	-139.044	-0.395	-0.044
-659.945	-71.751	-0.046	0.017
-658.930	177.850	-0.172	0.255
-657.916	-8.720	-0.069	0.047
-656.901	-165.001	-0.210	-0.010
-655.886	67.464	-0.141	-0.147
-654.872	-45.893	-0.133	0.067
-653.857	110.604	-0.236	0.289
-652.843	58.957	-0.207	0.207
-651.828	800.000	-0.126	0.402
-650.814	-200.000	-0.043	0.206
-649.799	58.764	-0.097	0.097
-648.784	-200.000	-0.061	-0.291
-647.770	73.832	-0.085	-0.090
-646.755	221.492	0.142	0.232
-645.741	-33.159	-0.357	0.201
-644.726	179.853	0.097	-0.144
-643.711	48.152	-0.312	-0.297
-642.697	16.513	0.311	-0.250
-641.682	-25.041	0.192	0.116
-640.668	-200.000	0.008	0.251
-639.653	-200.000	0.078	0.494
-638.638	-63.831	-0.427	-0.178
-637.624	800.000	-0.047	-0.172
-636.609	274.489	-0.250	-0.450
-635.595	800.000	-0.066	-0.237
-634.580	-51.567	0.108	0.051
-633.565	-200.000	0.013	0.220
-632.551	-117.283	0.430	0.079
-631.536	-145.135	0.084	-0.008
-630.522	800.000	0.060	-0.223
-629.507	71.169	0.056	0.059
-628.492	274.999	0.071	0.128
-627.478	-55.045	0.269	0.123
-626.463	119.243	-0.061	-0.076
-625.449	574.850	0.152	0.377
-624.434	-200.000	0.003	-0.018
-623.419	-137.458	0.564	0.065
-622.405	58.842	0.120	-0.120
-621.390	-19.248	-0.046	0.029
-620.376	-134.552	-0.262	0.033
-619.361	-177.473	0.185	-0.005
-618.346	-127.238	-0.135	-0.020
-617.332	203.324	0.027	-0.043
-616.317	-200.000	0.016	0.288
-615.303	102.110	-0.177	0.210
-614.288	155.165	0.210	-0.294
-613.273	110.213	0.048	-0.059
-612.259	-200.000	-0.067	-0.341
-611.244	-99.921	0.109	0.028
-610.230	-109.641	0.727	-0.156
-609.215	-48.236	-0.180	-0.088
-608.201	-140.142	0.190	0.020
-607.186	28.218	-0.069	-0.059
-606.171	124.703	-0.161	-0.206
-605.157	-30.297	0.191	-0.110
-604.142	-7.424	-0.179	0.123
-603.128	800.000	-0.111	-0.352
-602.113	-200.000	-0.031	0.273
-601.098	-70.711	-0.115	-0.044
-600.084	-70.702	0.332	0.128
-599.069	800.000	-0.057	-0.185
-598.055	194.581	-0.290	-0.447
-597.040	-153.069	-0.102	-0.007
-596.025	-26.087	0.218	-0.130
-595.011	-54.148	0.106	-0.049
-593.996	252.614	0.057	-0.098
-592.982	-13.131	0.355	0.234
-591.967	-172.122	0.145	-0.005
-590.952	-43.744	0.292	0.149
-589.938	-73.479	-0.240	0.089
-588.923	-200.000	-0.003	-0.225
-587.909	800.000	-0.037	-0.132
-586.894	-200.000	-0.039	-0.172
-585.879	53.533	0.101	0.098
-584.865	-122.211	0.299	-0.050
-583.850	113.461	0.030	0.037
-582.836	38.552	0.116	-0.105
-581.821	-74.041	0.238	-0.088
-580.806	-35.375	-0.067	0.037
-579.792	69.784	-0.242	-0.253
-578.777	-200.000	-0.020	0.348
-577.763	111.308	0.266	-0.325
-576.748	348.347	0.191	-0.382
-575.733	212.005	0.135	-0.216
-574.719	-200.000	-0.030	-0.413
-573.704	178.923	0.145	0.215
-572.690	160.910	-0.215	-0.305
-571.675	280.527	-0.067	0.122
-570.661	-91.915	0.249	0.072
-569.646	-77.880	-0.234	-0.082
-568.631	-143.551	0.123	-0.012
-567.617	-138.365	-0.212	0.024
-566.602	-181.888	-0.316	-0.006
-565.588	-200.000	-0.023	-0.218
-564.573	-146.054	-0.124	0.011
-563.558	241.136	-0.060	0.102
-562.544	-96.191	0.095	-0.026
-561.529	-0.981	0.369	0.265
-560.515	74.247	0.100	-0.106
-559.500	-28.241	0.214	-0.125
-558.485	-146.206	0.145	-0.013
-557.471	154.282	0.088	0.123
-556.456	-19.698	-0.131	0.082
-555.442	-38.700	-0.119	0.064
-554.427	81.853	-0.159	0.175
-553.412	-28.559	-0.284	-0.166
-552.398	-78.442	-0.265	-0.092
-551.383	-66.863	-0.241	0.097
-550.369	800.000	0.021	-0.089
-549.354	94.617	0.081	-0.094
-548.339	77.049	0.287	-0.309
-547.325	-31.249	0.178	0.102
-546.310	800.000	-0.073	-0.228
-545.296	747.355	-0.127	0.346
-544.281	-200.000	-0.053	-0.242
-543.266	-18.784	0.289	0.183
-542.252	275.680	0.197	0.355
-541.237	800.000	-0.091	-0.285
-540.223	114.512	-0.265	0.327
-539.208	-185.881	0.157	0.002
-538.193	-85.709	-0.261	0.082
-537.179	-200.000	0.036	-0.302
-536.164	140.917	0.137	0.183
-535.150	800.000	-0.052	-0.197
-534.135	-169.516	-0.168	0.006
-533.121	142.867	-0.162	0.218
-532.106	-34.335	0.398	-0.221
-531.091	-168.419	-0.207	-0.008
-530.077	-200.000	0.032	-0.235
-529.062	265.098	-0.114	0.201
-528.048	286.098	-0.148	0.270
-527.033	-121.186	-0.398	0.067
-526.018	47.244	-0.091	0.086
-525.004	85.383	-0.099	-0.110
-523.989	-200.000	-0.001	-0.011
-522.975	402.656	-0.166	0.354
-521.960	-93.344	-0.301	-0.084
-520.945	57.391	0.036	0.035
-519.931	-44.956	-0.239	0.120
-518.916	-185.960	-0.259	-0.004
-517.902	800.000	-0.030	0.094
-516.887	-200.000	0.039	0.245
-515.872	-200.000	0.014	-0.177
-514.858	-200.000	-0.007	-0.215
-513.843	-118.443	-0.100	-0.018
-512.829	-93.198	-0.041	-0.012
-511.814	-200.000	0.001	0.212
-510.799	-96.136	-0.255	0.068
-509.785	800.000	-0.046	-0.153
-508.770	800.000	0.025	-0.072
-507.756	-14.371	-0.347	0.226
-506.741	696.866	0.120	-0.318
-505.726	800.000	-0.112	-0.381
-504.712	-59.662	-0.351	-0.152
-503.697	183.609	0.167	-0.250
-502.683	-200.000	-0.031	0.192
-501.668	-200.000	-0.017	0.367
-500.653	425.147	0.112	0.244
-499.639	28.577	0.285	0.244
-498.624	74.012	-0.141	-0.150
-497.610	489.336	0.052	0.119
-496.595	618.680	-0.185	-0.470
-495.581	800.000	0.121	-0.526
-494.566	87.744	0.212	-0.238
-493.551	-117.045	0.302	0.056
-492.537	18.515	0.257	-0.208
-491.522	772.608	0.075	0.206
-490.508	-13.226	0.276	0.181
-489.493	38.258	0.027	0.025
-488.478	-171.708	0.629	0.021
-487.464	-131.936	0.146	0.019
-486.449	381.193	0.086	0.178
-485.435	-200.000	-0.011	-0.117
-484.420	-64.171	0.109	0.045
-483.405	-200.000	0.009	-0.198
-482.391	-200.000	-0.016	-0.266
-481.376	-93.176	0.097	-0.027
-480.362	-32.612	0.118	0.066
-479.347	130.832	0.159	-0.206
-478.332	-38.465	-0.217	0.116
-477.318	-86.325	-0.196	0.061
-476.303	-5.924	-0.444	-0.307
-475.289	-46.938	-0.155	-0.076
-474.274	-23.597	-0.177	0.108
-473.259	-200.000	-0.003	-0.443
-472.245	-189.653	-0.127	0.001
-471.230	-200.000	-0.022	-0.161
-470.216	96.309	-0.219	-0.254
-469.201	800.000	-0.062	0.180
-468.186	149.563	-0.085	0.116
-467.172	-100.589	-0.360	0.090
-466.157	-25.711	-0.020	0.012
-465.143	-102.068	-0.179	-0.044
-464.128	-200.000	-0.005	0.273
-463.113	800.000	0.053	-0.230
-462.099	-200.000	-0.011	0.124
-461.084	-45.094	-0.323	0.163
-460.070	-60.631	-0.198	0.085
-459.055	252.075	-0.030	0.051
-458.040	661.671	-0.082	0.215
-457.026	283.276	0.100	0.182
-456.011	162.110	0.053	0.075
-454.997	-123.935	-0.192	0.031
-453.982	575.168	0.089	0.220
-452.968	127.862	0.160	-0.205
-451.953	-200.000	-0.030	-0.207
-450.938	2.114	0.194	0.141
-449.924	800.000	-0.018	0.065
-448.909	-200.000	-0.075	0.422
-447.895	-200.000	0.021	0.237
-446.880	198.320	-0.154	0.238
-445.865	800.000	-0.007	-0.022
-444.851	-200.000	-0.032	-0.162
-443.836	800.000	-0.063	-0.262
-442.822	-109.342	0.142	0.030
-441.807	-200.000	-0.089	0.505
-440.792	-158.687	-0.098	-0.006
-439.778	-119.944	0.179	-0.031
-438.763	-22.519	0.322	0.197
-437.749	142.474	0.138	0.184
-436.734	800.000	-0.074	-0.258
-435.719	539.444	0.031	0.074
-434.705	21.644	0.107	-0.088
-433.690	226.526	-0.126	0.206
-432.676	-200.000	-0.037	0.261
-431.661	-62.033	0.356	0.150
-430.646	800.000	0.100	-0.396
-429.632	-60.389	-0.170	0.073
-428.617	111.232	0.230	-0.280
-427.603	-200.000	-0.009	-0.258
-426.588	181.777	0.075	0.111
-425.573	206.059	0.046	-0.073
-424.559	600.100	0.039	-0.099
-423.544	-65.416	-0.191	0.077
-422.530	19.119	0.169	-0.137
-421.515	-17.739	0.242	0.153
-420.500	-200.000	0.018	0.104
-419.486	800.000	-0.098	0.375
-418.471	533.013	0.009	0.022
-417.457	-90.375	-0.223	0.065
-416.442	-80.754	-0.178	-0.060
-415.428	161.409	-0.041	0.058
-414.413	-115.931	-0.413	-0.078
-413.398	-64.059	-0.191	-0.079
-412.384	-118.975	-0.224	-0.040
-411.369	-101.295	-0.183	0.045
-410.355	67.262	-0.214	0.220
-409.340	-14.250	0.167	0.108
-408.325	16.278	0.100	0.080
-407.311	592.397	0.031	0.077
-406.296	-200.000	0.001	-0.258
-405.282	-102.976	0.328	-0.078
-404.267	-98.395	-0.003	-0.001
-403.252	62.223	0.164	-0.165
-402.238	543.687	-0.109	-0.262
-401.223	-7.076	-0.100	-0.069
-400.209	-200.000	-0.013	0.206
-399.194	-161.305	-0.278	0.015
-398.179	155.646	-0.208	0.288
-397.165	30.031	0.092	0.079
-396.150	-28.297	-0.186	0.108
-395.136	-22.033	0.154	0.095
-394.121	-200.000	-0.005	-0.258
-393.106	27.078	-0.090	0.076
-392.092	-102.039	-0.128	0.031
-391.077	-34.926	0.090	0.049
-390.063	279.498	-0.131	-0.235
-389.048	-22.437	-0.316	-0.193
-388.033	-122.426	0.072	-0.012
-387.019	87.651	0.148	0.165
-386.004	800.000	-0.052	-0.170
-384.990	-28.124	0.270	0.157
-383.975	-56.749	0.118	0.053
-382.960	800.000	-0.049	0.168
-381.946	-200.000	0.003	0.216
-380.931	-200.000	0.001	0.025
-379.917	-21.333	-0.004	0.002
-378.902	49.048	-0.265	0.251
-377.888	-200.000	-0.009	-0.172
-376.873	-73.948	0.115	-0.042
-375.858	-23.073	-0.364	-0.221
-374.844	102.992	0.005	-0.005
-373.829	57.147	-0.180	-0.177
-372.815	33.853	-0.194	0.170
-371.800	-41.538	0.203	0.105
-370.785	286.548	0.161	-0.292
-369.771	-130.774	0.218	0.030
-368.756	106.903	0.128	0.153
-367.742	-200.000	-0.032	0.323
-366.727	481.234	-0.110	-0.250
-365.712	301.945	0.068	-0.126
-364.698	625.833	-0.058	0.147
-363.683	13.498	-0.243	-0.190
-362.669	16.400	0.131	0.104
-361.654	-20.848	0.108	0.067
-360.639	-122.468	0.069	-0.011
-359.625	60.718	-0.351	0.350
-358.610	-200.000	-0.009	-0.169
-357.596	-176.739	-0.365	-0.009
-356.581	800.000	-0.124	-0.400
-355.566	-76.978	0.190	-0.067
-354.552	-200.000	-0.009	0.049
-353.537	-157.170	0.148	0.009
-352.523	800.000	-0.080	-0.282
-351.508	-189.257	0.064	-0.001
-350.493	481.570	0.048	0.111
-349.479	-200.000	0.018	0.466
-348.464	-88.874	-0.424	0.126
-347.450	237.630	0.116	0.193
-346.435	184.720	0.237	-0.354
-345.420	-138.281	0.112	-0.012
-344.406	483.431	-0.119	0.272
-343.391	-37.202	0.200	-0.107
-342.377	360.979	0.107	0.216
-341.362	-109.283	-0.223	0.047
-340.348	-64.188	-0.259	0.106
-339.333	-100.512	0.079	-0.020
-338.318	-123.246	-0.348	0.056
-337.304	39.644	0.202	-0.182
-336.289	110.895	0.219	-0.265
-335.275	-200.000	0.004	0.254
-334.260	800.000	-0.076	0.273
-333.245	-0.368	-0.022	0.016
-332.231	523.404	-0.188	0.444
-331.216	103.432	0.123	0.145
-330.202	-101.960	0.199	-0.048
-329.187	328.616	0.157	-0.304
-328.172	79.749	-0.139	0.150
-327.158	140.119	-0.124	0.164
-326.143	137.315	0.139	0.183
-325.129	-45.884	-0.228	0.113
-324.114	-78.108	0.272	-0.094
-323.099	150.667	-0.091	0.125
-322.085	78.151	-0.051	-0.054
-321.070	635.601	-0.047	0.119
-320.056	800.000	0.039	0.122
-319.041	-39.160	-0.140	0.074
-318.026	-177.408	-0.084	0.002
-317.012	-200.000	-0.025	-0.119
-315.997	-108.133	0.236	0.051
-314.983	-98.023	0.290	-0.075
-313.968	-200.000	-0.003	-0.258
-312.953	-49.982	0.292	-0.139
-311.939	-120.542	-0.127	0.022
-310.924	-200.000	-0.008	-0.138
-309.910	-130.344	0.236	0.032
-308.895	-181.792	0.309	-0.006
-307.880	22.296	0.039	0.032
-306.866	800.000	-0.056	0.156
-305.851	-52.729	-0.202	-0.094
-304.837	120.839	0.161	-0.200
-303.822	-75.860	0.141	-0.050
-302.807	-200.000	0.013	0.423
-301.793	10.491	0.257	-0.197
-300.778	-51.568	0.165	-0.078
-299.764	56.740	-0.128	0.126
-298.749	-3.001	-0.054	0.038
-297.735	30.906	0.035	0.030
-296.720	-200.000	0.015	-0.121
-295.705	201.500	-0.122	-0.189
-294.691	-200.000	0.008	-0.124
-293.676	-39.447	0.083	0.044
-292.662	-114.819	0.201	-0.038
-291.647	-74.935	-0.231	0.083
-290.632	-39.156	0.232	-0.122
-289.618	431.386	-0.046	0.100
-288.603	-49.159	0.277	0.133
-287.589	13.204	0.296	0.230
-286.574	-153.704	0.131	0.009
-285.559	-71.544	0.124	-0.046
-284.545	201.520	-0.029	-0.045
-283.530	-33.488	0.157	-0.087
-282.516	-60.533	0.080	0.034
-281.501	-134.490	-0.388	0.048
-280.486	-176.722	0.318	0.008
-279.472	-121.015	0.151	-0.025
-278.457	257.101	0.227	0.391
-277.443	236.975	-0.096	-0.160
-276.428	-62.515	0.107	-0.045
-275.413	186.547	0.074	-0.110
-274.399	-79.964	-0.366	0.123
-273.384	-103.911	0.055	-0.013
-272.370	402.293	-0.120	-0.254
-271.355	100.761	-0.165	-0.192
-270.340	639.992	0.032	-0.082
-269.326	-26.405	0.235	0.138
-268.311	800.000	-0.104	-0.292
-267.297	-136.789	-0.296	0.034
-266.282	352.738	-0.060	0.120
-265.267	-118.396	0.070	-0.012
-264.253	800.000	0.111	0.330
-263.238	-5.312	-0.076	0.052
-262.224	-19.904	-0.249	0.154
-261.209	119.888	-0.112	-0.140
-260.195	-200.000	0.009	-0.192
-259.180	-146.349	0.184	0.016
-258.165	-23.693	-0.145	-0.087
-257.151	-10.498	0.072	-0.048
-256.136	-6.625	-0.137	-0.094
-255.122	-152.848	0.036	-0.003
-254.107	609.589	0.083	-0.207
-253.092	-61.477	0.337	0.142
-252.078	-116.921	-0.171	-0.031
-251.063	242.141	0.082	0.138
-250.049	18.799	-0.090	0.072
-249.034	-56.980	-0.122	-0.054
-248.019	-32.219	-0.043	-0.024
-247.005	-102.867	-0.272	0.065
-245.990	-200.000	-0.003	-0.129
-244.976	-49.612	-0.126	-0.060
-243.961	-25.008	-0.061	-0.036
-242.946	-200.000	0.060	-0.279
-241.932	-200.000	-0.014	-0.128
-240.917	-104.740	0.456	-0.105
-239.903	-118.857	0.236	-0.042
-238.888	16.768	0.174	-0.138
-237.873	114.818	-0.156	0.191
-236.859	600.616	0.063	0.157
-235.844	-200.000	0.033	0.378
-234.830	94.234	-0.076	-0.086
-233.815	442.672	0.117	0.256
-232.800	-145.664	-0.081	-0.007
-231.786	-64.916	0.234	-0.095
-230.771	-82.871	-0.238	-0.077
-229.757	-92.331	-0.377	-0.106
-228.742	-186.429	0.196	0.003
-227.727	301.058	-0.193	-0.356
-226.713	18.081	-0.086	0.069
-225.698	114.549	0.098	0.120
-224.684	-200.000	0.021	0.229
-223.669	-136.572	-0.217	-0.025
-222.655	13.916	-0.262	-0.204
-221.640	-200.000	-0.012	0.360
-220.625	-37.380	-0.148	-0.079
-219.611	70.581	-0.013	0.013
-218.596	202.385	-0.032	-0.049
-217.582	800.000	-0.080	0.240
-216.567	-200.000	-0.023	-0.349
-215.552	345.533	-0.116	-0.228
-214.538	-200.000	-0.015	-0.125
-213.523	709.073	0.135	-0.358
-212.509	800.000	0.020	0.069
-211.494	-198.590	-0.207	0.001
-210.479	-200.000	-0.067	0.408
-209.465	330.558	0.074	0.143
-208.450	573.728	-0.052	0.127
-207.436	-200.000	-0.022	0.251
-206.421	-8.724	0.207	0.139
-205.406	-72.557	0.238	-0.088
-204.392	160.651	-0.091	-0.127
-203.377	246.612	0.189	0.320
-202.363	113.074	-0.085	0.103
-201.348	12.119	0.155	0.120
-200.333	182.956	0.088	0.129
-199.319	401.279	-0.014	0.029
-198.304	-200.000	-0.009	-0.324
-197.290	-91.356	-0.318	0.091
-196.275	-135.363	0.129	-0.015
-195.260	43.872	0.111	-0.102
-194.246	-9.054	0.118	-0.079
-193.231	-200.000	0.015	0.080
-192.217	-99.740	-0.220	-0.055
-191.202	209.988	0.056	0.087
-190.187	-200.000	0.039	0.316
-189.173	116.142	-0.069	0.084
-188.158	18.495	-0.119	0.095
-187.144	248.481	0.080	-0.135
-186.129	-200.000	0.001	-0.014
-185.114	61.138	-0.178	0.177
-184.100	-96.000	0.084	0.022
-183.085	-108.696	0.125	0.027
-182.071	4.577	-0.200	-0.147
-181.056	-76.391	-0.158	-0.056
-180.042	-200.000	0.043	-0.241
-179.027	800.000	-0.086	-0.277
-178.012	21.016	-0.102	-0.083
-176.998	-20.523	-0.053	-0.033
-175.983	-200.000	0.020	-0.121
-174.969	-147.672	0.074	0.006
-173.954	-200.000	-0.011	-0.093
-172.939	-200.000	0.000	-0.379
-171.925	-200.000	-0.028	0.141
-170.910	759.341	-0.126	0.341
-169.896	109.037	0.290	0.346
-168.881	83.284	0.015	0.016
-167.866	76.207	-0.314	-0.332
-166.852	270.334	0.031	0.055
-165.837	-74.343	0.337	0.122
-164.823	-38.013	-0.182	-0.097
-163.808	278.019	0.094	-0.167
-162.793	-62.320	-0.135	-0.056
-161.779	-109.745	0.214	0.045
-160.764	-73.114	0.142	-0.052
-159.750	109.785	-0.099	0.118
-158.735	800.000	0.122	0.387
-157.720	-65.753	0.095	0.038
-156.706	-90.549	0.376	-0.109
-155.691	-47.279	-0.116	0.056
-154.677	-157.134	-0.125	-0.008
-153.662	100.943	-0.088	0.102
-152.647	-200.000	-0.007	0.160
-151.633	-31.282	0.146	0.082
-150.618	-127.622	-0.244	0.035
-149.604	247.123	0.203	-0.342
-148.589	-47.560	-0.239	0.116
-147.574	20.493	0.306	0.247
-146.560	-200.000	-0.038	0.230
-145.545	369.810	-0.149	0.301
-144.531	-10.736	0.147	-0.097
-143.516	-11.987	-0.251	-0.164
-142.502	-30.225	-0.102	-0.058
-141.487	-88.868	-0.125	0.037
-140.472	209.123	-0.099	0.155
-139.458	205.288	-0.125	0.194
-138.443	-87.797	-0.147	-0.044
-137.429	676.844	0.086	0.224
-136.414	20.256	0.079	-0.064
-135.399	-97.655	-0.347	0.090
-134.385	-87.585	0.335	-0.101
-133.370	-26.246	0.332	-0.194
-132.356	93.877	-0.151	0.171
-131.341	11.793	0.309	-0.236
-130.326	-200.000	0.040	0.292
-129.312	274.018	-0.114	-0.201
-128.297	-114.081	-0.146	-0.028
-127.283	-200.000	-0.050	-0.348
-126.268	20.649	-0.111	-0.089
-125.253	-82.350	-0.179	0.058
-124.239	63.744	-0.302	-0.303
-123.224	103.462	0.187	-0.218
-122.210	-20.771	0.387	-0.237
-121.195	241.789	0.119	0.198
-120.180	18.696	0.164	-0.131
-119.166	-200.000	0.033	0.353
-118.151	641.096	0.105	-0.267
-117.137	62.258	0.163	0.162
-116.122	53.283	0.146	-0.139
-115.107	151.179	0.051	-0.070
-114.093	-139.032	0.249	-0.027
-113.078	226.693	-0.029	-0.048
-112.064	-200.000	0.035	0.198
-111.049	750.647	0.063	0.170
-110.034	59.563	-0.049	-0.048
-109.020	30.044	-0.070	-0.059
-108.005	189.224	0.175	0.261
-106.991	194.489	0.057	-0.086
-105.976	59.231	0.167	0.164
-104.962	800.000	-0.021	0.073
-103.947	-200.000	0.015	-0.351
-102.932	6.997	0.203	-0.151
-101.918	-200.000	-0.026	0.138
-100.903	-87.647	-0.208	0.062
-99.889	-200.000	-0.005	0.099
-98.874	-58.624	0.209	-0.090
-97.859	-74.941	-0.136	0.048
-96.845	-200.000	0.051	0.483
-95.830	-131.290	-0.151	0.020
-94.816	-200.000	-0.029	0.183
-93.801	53.206	-0.112	-0.107
-92.786	-16.694	0.309	-0.194
-91.772	800.000	0.086	0.266
-90.757	-137.385	0.125	-0.014
-89.743	109.305	0.232	-0.276
-88.728	-62.258	0.378	-0.157
-87.713	103.625	-0.213	0.249
-86.699	28.054	-0.177	-0.148
-85.684	46.157	0.084	-0.078
-84.670	-186.802	-0.138	0.002
-83.655	-200.000	0.003	-0.134
-82.640	-37.837	-0.223	0.118
-81.626	166.844	0.042	-0.060
-80.611	23.564	-0.032	-0.026
-79.597	578.022	-0.102	0.247
-78.582	-200.000	0.034	0.258
-77.567	800.000	-0.041	0.159
-76.553	800.000	-0.073	0.202
-75.538	-89.219	0.369	0.108
-74.524	229.146	0.169	-0.274
-73.509	480.112	-0.087	0.196
-72.494	800.000	0.061	-0.228
-71.480	-62.749	0.328	0.135
-70.465	247.114	-0.031	-0.052
-69.451	-90.719	0.296	-0.085
-68.436	-200.000	0.014	-0.275
-67.422	-71.209	-0.077	0.029
-66.407	-50.694	0.211	0.099
-65.392	-116.895	0.170	-0.031
-64.378	-57.059	0.378	-0.166
-63.363	800.000	0.078	0.306
-62.349	427.921	0.057	0.123
-61.334	-23.388	-1.051	-0.628
-60.319	144.183	0.212	0.281
-59.305	219.731	-0.390	-0.620
-58.290	314.041	0.568	1.063
-57.276	800.000	0.347	1.469
-56.261	-200.000	86.335	496.180
-55.246	455.215	1388.559	3061.276
-54.232	145.054	2606.017	3466.266
-53.217	109.893	2229.455	2659.277
-52.203	47.970	1673.624	1554.942
-51.188	40.632	1402.986	1257.183
-50.173	37.367	1359.220	1197.834
-49.159	56.096	1401.884	1352.946
-48.144	60.855	1420.591	1400.705
-47.130	41.203	1378.528	1238.625
-46.115	37.407	1361.673	1200.053
-45.100	37.239	1356.505	1194.413
-44.086	37.157	1353.872	1191.547
-43.071	37.120	1352.032	1189.651
-42.057	37.236	1349.022	1187.667
-41.042	37.271	1347.427	1186.427
-40.027	37.335	1345.703	1185.252
-39.013	37.190	1344.320	1183.108
-37.998	37.233	1342.173	1181.430
-36.984	37.228	1340.517	1179.898
-35.969	37.260	1338.983	1178.691
-34.954	37.349	1336.264	1176.793
-33.940	37.319	1334.914	1175.377
-32.925	37.370	1333.755	1174.617
-31.911	37.489	1332.356	1174.054
-30.896	37.461	1331.162	1172.787
-29.881	37.468	1329.961	1171.727
-28.867	37.389	1328.333	1169.770
-27.852	37.382	1326.666	1168.210
-26.838	37.469	1325.360	1167.538
-25.823	37.475	1323.793	1166.148
-24.809	37.444	1322.555	1164.826
-23.794	37.399	1321.380	1163.475
-22.779	37.470	1319.698	1162.374
-21.765	37.367	1318.504	1160.658
-20.750	37.422	1316.584	1159.249
-19.736	37.339	1315.577	1157.821
-18.721	37.260	1314.627	1156.470
-17.706	37.210	1313.536	1155.169
-16.692	37.272	1311.955	1154.100
-15.677	37.306	1311.025	1153.438
-14.663	37.261	1309.690	1151.951
-13.648	37.237	1308.834	1151.011
-12.633	37.170	1307.946	1149.784
-11.619	37.149	1307.080	1148.856
-10.604	37.252	1306.208	1148.653
-9.590	37.213	1305.044	1147.353
-8.575	37.290	1303.886	1146.745
-7.560	37.185	1303.525	1145.761
-6.546	37.209	1302.254	1144.739
-5.531	37.320	1301.164	1144.392
-4.517	37.199	1300.633	1143.164
-3.502	37.193	1299.576	1142.156
-2.487	37.298	1298.544	1141.823
-1.473	37.364	1294.870	1138.931
-0.458	36.561	1280.513	1121.601
0.556	33.448	1261.505	1084.132
1.571	29.795	1265.886	1066.776
2.586	28.701	1280.879	1072.929
3.600	27.187	1268.706	1053.866
4.615	19.170	1189.973	944.591
5.629	7.302	1107.061	817.794
6.644	2.296	1083.632	775.082
7.659	1.990	1080.538	771.257
8.673	1.716	1079.934	769.373
9.688	1.560	1078.963	767.828
10.702	1.874	1076.967	767.917
11.717	8.494	1086.924	808.522
12.731	19.467	1102.476	876.027
13.746	24.442	1109.302	906.715
14.761	25.037	1109.850	910.105
15.775	25.220	1109.144	910.375
16.790	24.959	1108.233	908.225
17.804	24.937	1107.349	907.305
18.819	25.033	1107.253	907.633
19.834	25.079	1106.691	907.327
20.848	25.198	1106.200	907.447
21.863	25.176	1105.624	906.781
22.877	25.099	1105.164	905.935
23.892	24.965	1104.161	904.358
24.907	25.077	1103.648	904.422
25.921	25.070	1102.855	903.655
26.936	24.987	1101.402	901.965
27.950	24.940	1100.002	900.505
28.965	24.826	1097.775	898.033
29.980	24.886	1096.239	896.996
30.994	25.158	1095.571	897.732
32.009	25.090	1094.518	896.449
33.023	24.901	1093.193	894.338
34.038	24.914	1092.762	893.973
35.053	25.203	1091.792	894.540
36.067	25.100	1091.067	893.357
37.082	25.251	1089.808	892.995
38.096	25.379	1089.456	893.268
39.111	25.470	1088.753	893.065
40.126	25.221	1087.761	890.935
41.140	24.938	1085.532	887.627
42.155	24.583	1084.871	885.247
43.169	24.667	1083.726	884.652
44.184	24.836	1082.621	884.509
45.199	24.587	1081.818	882.545
46.213	24.688	1080.882	882.199
47.228	24.859	1080.067	882.299
48.242	24.945	1079.581	882.251
49.257	24.883	1078.830	881.250
50.271	24.970	1078.416	881.265
51.286	25.122	1077.067	880.833
52.301	25.076	1076.088	879.727
53.315	25.094	1074.895	878.760
54.330	24.969	1074.097	877.417
55.344	24.995	1073.302	876.818
56.359	25.050	1072.145	876.064
57.374	24.820	1071.495	874.331
58.388	24.856	1070.600	873.703
59.403	24.699	1070.341	872.647
60.417	24.571	1068.980	870.833
61.432	24.760	1068.001	870.879
62.447	24.807	1067.830	870.892
63.461	24.773	1066.849	869.850
64.476	24.722	1065.935	868.779
65.490	24.680	1064.980	867.721
66.505	24.777	1064.250	867.520
67.520	24.820	1063.856	867.328
68.534	24.595	1062.507	865.066
69.549	24.362	1061.544	863.075
70.563	24.252	1060.723	861.801
71.578	24.244	1059.681	860.841
72.593	24.084	1058.849	859.317
73.607	24.379	1058.353	860.260
74.622	24.626	1058.044	861.121
75.636	24.540	1057.319	860.044
76.651	24.426	1056.629	858.857
77.666	24.467	1055.808	858.312
78.680	24.411	1055.121	857.406
79.695	24.505	1054.089	856.943
80.709	24.691	1053.433	857.226
81.724	24.694	1052.557	856.452
82.739	24.703	1052.339	856.243
83.753	24.988	1051.723	857.027
84.768	25.297	1050.919	857.775
85.782	25.415	1050.219	857.692
86.797	25.342	1048.848	856.145
87.812	25.208	1048.030	854.767
88.826	25.292	1046.731	854.029
89.841	25.383	1046.142	853.905
90.855	25.366	1045.567	853.281
91.870	25.328	1044.087	851.819
92.884	25.140	1043.195	850.122
93.899	25.031	1041.875	848.455
94.914	25.296	1041.309	849.174
95.928	25.132	1040.169	847.392
96.943	24.936	1038.829	845.304
97.957	24.768	1037.507	843.361
98.972	24.559	1036.503	841.484
99.987	24.942	1036.043	842.841
101.001	25.037	1035.323	842.628
102.016	24.933	1035.047	841.837
103.030	24.997	1033.378	840.706
104.045	24.801	1032.605	839.083
105.060	24.564	1031.662	837.133
106.074	24.802	1030.841	837.508
107.089	24.997	1030.949	838.434
108.103	24.960	1029.365	836.900
109.118	24.805	1027.770	834.803
110.133	24.771	1027.221	834.126
111.147	24.560	1025.823	831.935
112.162	24.305	1024.978	829.990
113.176	24.683	1024.476	831.266
114.191	24.682	1023.403	830.320
115.206	24.268	1022.359	827.478
116.220	24.342	1021.514	827.061
117.235	24.601	1020.432	827.314
118.249	24.593	1019.776	826.672
119.264	24.258	1019.187	824.571
120.279	24.411	1018.600	824.729
121.293	24.527	1017.707	824.468
122.308	24.467	1016.483	823.130
123.322	24.416	1015.460	821.994
124.337	24.229	1014.539	820.315
125.352	23.799	1012.873	816.916
126.366	23.712	1011.928	815.683
127.381	24.521	1011.850	819.262
128.395	24.832	1011.512	820.341
129.410	24.996	1010.212	819.965
130.424	25.094	1009.281	819.585
131.439	25.029	1008.009	818.181
132.454	24.886	1007.746	817.243
133.468	25.016	1006.370	816.647
134.483	25.200	1005.769	816.928
135.497	25.343	1005.269	817.101
136.512	25.355	1004.262	816.266
137.527	25.412	1003.588	815.904
138.541	25.307	1002.984	814.862
139.556	25.344	1002.056	814.206
140.570	25.338	1001.342	813.527
141.585	25.360	1000.288	812.697
142.600	25.235	999.424	811.356
143.614	25.357	999.010	811.502
144.629	25.602	997.830	811.576
145.643	25.470	996.209	809.591
146.658	25.240	995.098	807.582
147.673	25.273	993.866	806.658
148.687	25.025	993.226	804.953
149.702	24.998	991.806	803.611
150.716	25.033	991.174	803.184
151.731	25.242	990.149	803.218
152.746	25.337	990.135	803.561
153.760	25.404	989.244	803.067
154.775	25.387	988.890	802.633
155.789	25.485	987.673	802.011
156.804	25.301	987.018	800.585
157.819	25.468	986.152	800.557
158.833	25.522	985.617	800.292
159.848	25.647	984.387	799.779
160.862	25.343	983.080	797.299
161.877	25.294	982.462	796.508
162.892	25.425	981.290	796.070
163.906	25.323	980.183	794.649
164.921	25.350	979.288	793.972
165.935	25.522	978.357	793.906
166.950	25.412	977.438	792.605
167.964	25.324	976.450	791.346
168.979	25.177	975.332	789.725
169.994	25.229	974.683	789.358
171.008	25.381	973.948	789.359
172.023	25.436	972.994	788.755
173.037	25.250	971.941	787.017
174.052	25.013	971.292	785.386
175.067	25.070	970.348	784.803
176.081	25.219	969.833	784.967
177.096	25.148	969.197	784.073
178.110	24.835	968.182	781.813
179.125	24.809	967.170	780.813
180.140	24.777	966.972	780.447
181.154	24.994	966.883	781.254
182.169	25.183	966.819	781.956
183.183	25.485	966.008	782.547
184.198	25.266	965.190	780.861
185.213	25.296	964.529	780.389
186.227	25.418	963.725	780.197
187.242	25.462	962.803	779.571
188.256	25.443	962.643	779.290
189.271	25.579	961.902	779.211
190.286	25.135	960.904	776.413
191.300	24.502	959.417	772.404
192.315	23.768	957.599	767.703
193.329	23.747	957.220	767.239
194.344	24.696	957.685	771.645
195.359	25.172	957.716	773.654
196.373	25.374	956.980	773.861
197.388	25.197	956.621	772.739
198.402	25.224	956.016	772.300
199.417	25.336	955.157	772.020
200.432	24.979	954.206	769.648
201.446	24.882	953.183	768.338
202.461	25.033	952.479	768.351
203.475	24.021	950.926	762.695
204.490	23.342	949.551	758.617
205.504	24.151	949.789	762.207
206.519	24.929	949.515	765.245
207.534	24.890	949.304	764.838
208.548	25.340	949.255	766.654
209.563	25.172	948.028	764.878
210.577	25.118	947.603	764.239
211.592	25.519	947.343	765.669
212.607	25.433	946.188	764.301
213.621	25.375	945.860	763.725
214.636	25.466	945.110	763.437
215.650	25.310	944.121	761.907
216.665	25.658	943.231	762.596
217.680	25.629	942.797	762.058
218.694	25.055	941.620	758.608
219.709	24.999	940.910	757.732
220.723	25.114	940.915	758.155
221.738	25.266	940.324	758.254
222.753	25.160	939.434	757.021
223.767	25.346	939.436	757.744
224.782	25.538	938.871	758.031
225.796	25.603	938.361	757.826
226.811	24.836	936.853	753.313
227.826	24.260	935.250	749.537
228.840	24.309	935.267	749.689
229.855	24.587	934.288	750.003
230.869	24.194	933.078	747.319
231.884	24.606	932.924	748.856
232.899	25.247	933.383	751.848
233.913	25.141	932.565	750.676
234.928	25.120	932.146	750.184
235.942	25.176	931.489	749.824
236.957	24.764	930.691	747.394
237.972	24.976	929.849	747.536
238.986	24.973	929.261	746.985
240.001	24.886	928.925	746.285
241.015	24.997	928.483	746.326
242.030	25.284	927.713	746.838
243.045	25.332	927.104	746.480
244.059	25.383	927.328	746.805
245.074	25.352	925.564	745.193
246.088	24.924	924.840	742.769
247.103	25.174	924.751	743.666
248.117	25.738	924.476	745.716
249.132	25.914	924.387	746.309
250.147	26.051	923.975	746.476
251.161	26.211	923.022	746.303
252.176	26.115	922.532	745.442
253.190	26.274	922.011	745.613
254.205	26.310	921.807	745.530
255.220	26.347	920.846	744.839
256.234	26.148	920.147	743.387
257.249	25.993	919.677	742.306
258.263	26.123	918.680	741.969
259.278	26.167	918.039	741.567
260.293	26.190	917.419	741.096
261.307	26.262	916.533	740.607
262.322	25.890	916.181	738.732
263.336	25.285	913.842	734.308
264.351	24.248	911.666	728.261
265.366	24.267	911.862	728.430
266.380	25.518	912.524	734.004
267.395	25.753	912.302	734.719
268.409	25.702	911.638	733.916
269.424	25.871	911.080	734.087
270.439	25.932	910.630	733.907
271.453	26.079	909.905	733.857
272.468	26.298	909.325	734.213
273.482	26.356	908.694	733.876
274.497	25.793	907.915	730.897
275.512	25.490	907.018	728.884
276.526	25.984	906.848	730.682
277.541	26.035	906.926	730.889
278.555	25.714	905.614	728.467
279.570	25.651	905.086	727.722
280.585	25.889	904.605	728.235
281.599	25.850	903.461	727.091
282.614	25.166	902.411	723.425
283.628	25.175	901.845	722.941
284.643	25.527	901.512	724.028
285.657	25.220	900.335	721.784
286.672	24.843	899.578	719.598
287.687	25.461	899.846	722.234
288.701	25.591	898.840	721.885
289.716	25.235	897.991	719.711
290.730	25.208	897.361	719.036
291.745	25.034	896.083	717.252
292.760	25.281	896.093	718.184
293.774	26.255	896.616	722.437
294.789	26.639	896.148	723.531
295.803	26.580	895.768	722.925
296.818	26.650	895.058	722.565
297.833	26.124	893.763	719.362
298.847	25.823	893.182	717.631
299.862	26.149	893.309	718.967
300.876	26.556	892.386	719.779
301.891	26.449	892.171	719.117
302.906	26.068	890.766	716.409
303.920	26.058	890.881	716.399
304.935	26.533	890.403	717.833
305.949	26.530	889.741	717.225
306.964	26.326	888.723	715.534
307.979	26.280	888.470	715.086
308.993	26.741	888.192	716.621
310.008	26.619	887.562	715.568
311.022	26.401	886.542	713.822
312.037	26.219	886.016	712.616
313.052	25.948	885.061	710.718
314.066	25.087	883.653	706.133
315.081	24.824	882.746	704.312
316.095	25.759	883.280	708.354
317.110	26.220	883.011	709.889
318.125	25.407	881.279	705.243
319.139	24.204	879.915	699.370
320.154	24.104	879.743	698.780
321.168	25.028	880.214	702.718
322.183	25.778	880.238	705.614
323.197	26.079	879.568	706.193
324.212	26.135	879.701	706.457
325.227	26.256	878.869	706.198
326.241	26.101	877.849	704.714
327.256	25.943	877.532	703.778
328.270	26.067	876.607	703.457
329.285	25.771	875.966	701.728
330.300	25.506	875.100	699.940
331.314	25.843	874.765	700.921
332.329	26.186	874.882	702.289
333.343	26.379	874.802	702.914
334.358	26.298	873.908	701.819
335.373	26.331	873.972	701.936
336.387	26.701	873.616	703.021
337.402	26.791	873.247	703.011
338.416	26.797	872.717	702.548
339.431	27.003	872.689	703.262
340.446	27.034	872.222	702.941
341.460	26.807	872.015	701.835
342.475	26.814	871.090	701.055
343.489	26.750	871.094	700.747
344.504	27.005	870.433	701.138
345.519	27.197	870.489	701.866
346.533	27.267	869.619	701.372
347.548	27.180	868.980	700.457
348.562	27.213	868.431	700.079
349.577	27.097	867.994	699.221
350.592	27.031	867.085	698.170
351.606	27.221	866.012	697.974
352.621	26.962	865.616	696.601
353.635	26.951	865.179	696.144
354.650	26.227	863.532	691.987
355.665	25.320	861.659	686.954
356.679	25.553	861.757	687.863
357.694	26.238	861.002	689.819
358.708	26.009	860.815	688.731
359.723	26.484	860.518	690.247
360.738	26.796	860.262	691.170
361.752	26.806	859.675	690.674
362.767	27.215	859.301	691.869
363.781	27.453	859.078	692.533
364.796	27.474	858.621	692.182
365.810	27.671	858.063	692.420
366.825	27.464	857.577	691.182
367.840	27.257	856.990	689.861
368.854	26.832	856.300	687.635
369.869	26.816	855.543	686.904
370.883	26.963	854.757	686.771
371.898	26.847	854.668	686.201
372.913	26.887	854.621	686.253
373.927	26.985	854.010	686.070
374.942	27.166	853.537	686.316
375.956	27.319	853.223	686.579
376.971	27.369	852.916	686.458
377.986	27.626	852.297	686.868
379.000	27.478	851.699	685.769
380.015	27.389	851.087	684.879
381.029	27.367	850.372	684.163
382.044	27.498	850.231	684.479
383.059	27.497	849.545	683.863
384.073	27.637	848.897	683.806
385.088	27.478	847.970	682.401
386.102	27.281	847.263	681.035
387.117	27.144	847.033	680.277
388.132	26.939	845.624	678.320
389.146	26.442	844.275	675.323
390.161	26.792	844.701	676.911
391.175	27.149	844.575	678.084
392.190	26.752	843.786	675.907
393.205	25.539	841.251	669.307
394.219	23.936	839.549	661.931
395.234	23.909	839.192	661.494
396.248	25.275	840.762	667.756
397.263	26.930	841.729	674.626
398.278	26.940	840.845	673.895
399.292	26.654	840.416	672.428
400.307	26.701	839.875	672.110
401.321	26.803	839.631	672.235
402.336	27.292	839.233	673.668
403.350	27.711	839.030	674.997
404.365	27.816	839.077	675.361
405.380	28.174	838.875	676.463
406.394	28.321	837.806	676.085
407.409	28.259	837.205	675.312
408.423	27.988	837.401	674.410
409.438	28.139	837.280	674.809
410.453	28.208	836.656	674.500
411.467	28.137	836.043	673.687
412.482	28.234	835.561	673.595
413.496	28.260	835.117	673.273
414.511	28.322	834.585	673.013
415.526	28.197	834.262	672.234
416.540	28.152	833.469	671.371
417.555	27.913	832.757	669.862
418.569	27.886	832.648	669.614
419.584	27.873	832.151	669.106
420.599	27.608	831.606	667.641
421.613	101.016	1278.174	1418.257
422.628	87.558	1343.258	1418.391
