DTS Sentinel unit serial number:	SN413079Multiplexer serial number:	ORYXHardware model number:	OX4-SRSoftware version number:	ORYX F/W v4.00 Oryx Data Collector v3.7.2.0data status	okinstallation	princeton_trtdifferential loss correction	single-endedforward channel	channel 1reverse channel	N/Adate	2019/09/15time	08:26:35forward acquisition time	60.00reverse acquisition time	0.00gamma	496.2192k internal	0.2321k external	0.2321temperature offset calibration	0.9990default loss term (dB/km)	0.3790temperature slope calibration	1.0000multiplexer offset coefficient	1.0000multiplexer slope coefficient	1.0000fibre end	0.00T internal ref (°C)	31.48T ext. ref 1 (°C)	4.97T ext. ref 2 (°C)	28.50length (m)	temperature (°C)	Stokes	anti-Stokes-747.200	-130.256	0.354	0.049
-746.185	-56.384	-0.040	-0.018
-745.171	-200.000	0.004	-0.111
-744.156	110.790	-0.125	0.152
-743.142	-61.716	0.232	0.098
-742.127	199.860	0.078	0.121
-741.112	-166.279	0.323	0.014
-740.098	-27.747	0.067	0.040
-739.083	-2.617	-0.134	-0.095
-738.069	-13.015	-0.038	-0.025
-737.054	-110.236	0.569	0.120
-736.039	2.081	0.124	0.090
-735.025	-133.700	0.176	0.022
-734.010	137.714	-0.149	-0.198
-732.996	189.734	-0.091	0.138
-731.981	9.781	-0.162	0.124
-730.966	328.712	-0.206	0.400
-729.952	432.010	-0.095	-0.208
-728.937	27.396	-0.061	-0.052
-727.923	-56.542	-0.107	-0.048
-726.908	-55.500	-0.161	-0.073
-725.894	133.268	-0.178	-0.232
-724.879	165.275	0.156	-0.222
-723.864	-200.000	0.031	-0.201
-722.850	-61.200	-0.120	0.051
-721.835	131.293	0.415	0.538
-720.821	-62.791	-0.152	0.063
-719.806	-161.495	0.213	-0.011
-718.791	-200.000	-0.010	-0.192
-717.777	-54.083	0.155	-0.071
-716.762	-165.415	0.166	-0.007
-715.748	47.310	-0.258	-0.243
-714.733	800.000	-0.043	-0.176
-713.718	116.529	-0.185	-0.229
-712.704	68.311	-0.226	-0.233
-711.689	742.315	0.044	-0.120
-710.675	21.096	-0.167	-0.137
-709.660	-200.000	-0.021	-0.354
-708.645	-29.318	-0.135	-0.078
-707.631	800.000	0.026	-0.108
-706.616	-32.297	0.030	-0.017
-705.602	800.000	-0.077	-0.216
-704.587	15.203	-0.139	0.110
-703.572	800.000	-0.072	0.226
-702.558	12.251	-0.261	-0.203
-701.543	119.838	-0.090	0.112
-700.529	-40.603	-0.182	-0.095
-699.514	-184.396	0.075	0.001
-698.499	-200.000	0.004	0.019
-697.485	-59.118	-0.117	-0.051
-696.470	-37.401	-0.168	-0.090
-695.456	-10.836	-0.117	-0.078
-694.441	-200.000	0.079	-0.394
-693.426	-200.000	0.002	0.065
-692.412	-200.000	-0.043	0.214
-691.397	457.015	-0.117	-0.263
-690.383	-86.766	0.352	0.109
-689.368	155.029	0.111	-0.154
-688.354	-111.968	0.040	-0.008
-687.339	84.931	-0.127	0.140
-686.324	33.819	0.152	-0.133
-685.310	-200.000	-0.030	-0.165
-684.295	-200.000	0.027	-0.255
-683.281	-40.444	-0.191	0.100
-682.266	-30.419	0.330	-0.188
-681.251	-200.000	0.009	-0.218
-680.237	-34.120	0.287	-0.159
-679.222	194.145	0.204	0.312
-678.208	-58.446	-0.186	0.081
-677.193	-27.062	0.010	-0.006
-676.178	-200.000	0.025	-0.158
-675.164	383.457	-0.158	0.329
-674.149	73.771	-0.234	-0.247
-673.135	75.135	-0.257	-0.273
-672.120	-78.079	0.086	-0.030
-671.105	31.205	0.260	-0.225
-670.091	800.000	0.139	-0.456
-669.076	181.406	0.206	-0.306
-668.062	35.836	0.155	-0.138
-667.047	-200.000	0.040	-0.368
-666.032	441.881	-0.050	0.111
-665.018	-105.510	0.339	-0.077
-664.003	-166.391	0.248	0.010
-662.989	800.000	-0.087	0.261
-661.974	191.789	-0.191	0.289
-660.959	377.323	-0.088	-0.181
-659.945	-200.000	-0.036	-0.185
-658.930	-25.847	0.217	-0.129
-657.916	95.664	-0.131	0.151
-656.901	-75.409	0.036	0.013
-655.886	86.971	-0.132	0.147
-654.872	251.499	0.110	0.189
-653.857	-200.000	0.002	0.156
-652.843	47.118	-0.172	-0.161
-651.828	-6.430	-0.069	0.047
-650.814	-62.345	0.375	-0.157
-649.799	-200.000	-0.001	-0.112
-648.784	107.863	0.138	-0.165
-647.770	393.526	-0.049	-0.102
-646.755	156.479	-0.094	0.131
-645.741	-137.649	0.183	0.021
-644.726	130.331	-0.309	0.398
-643.711	-88.300	0.159	0.048
-642.697	59.200	-0.070	0.069
-641.682	-69.860	-0.319	-0.122
-640.668	-200.000	-0.003	-0.353
-639.653	-172.955	0.354	-0.011
-638.638	-105.816	0.059	-0.013
-637.624	-109.910	0.061	0.013
-636.609	-128.423	-0.134	-0.019
-635.595	30.492	-0.112	-0.096
-634.580	-200.000	-0.021	0.110
-633.565	19.563	0.032	-0.026
-632.551	-65.121	0.227	0.092
-631.536	-114.333	0.079	-0.015
-630.522	231.501	-0.203	-0.335
-629.507	31.481	0.146	-0.126
-628.492	800.000	0.121	-0.438
-627.478	-0.638	-0.040	0.028
-626.463	14.401	-0.210	-0.165
-625.449	-200.000	0.080	0.360
-624.434	179.561	-0.186	0.274
-623.419	139.690	-0.017	-0.022
-622.405	-90.866	0.287	0.083
-621.390	-60.518	0.026	-0.011
-620.376	-115.752	-0.208	0.039
-619.361	37.885	0.200	-0.179
-618.346	-44.876	-0.165	-0.083
-617.332	53.518	-0.378	0.364
-616.317	-117.852	0.126	-0.023
-615.303	-200.000	-0.011	0.090
-614.288	25.650	0.124	0.104
-613.273	443.017	-0.046	-0.102
-612.259	800.000	-0.118	-0.345
-611.244	188.930	0.105	-0.158
-610.230	30.108	0.315	0.270
-609.215	689.630	-0.060	0.158
-608.201	164.508	0.244	0.346
-607.186	117.990	-0.147	-0.182
-606.171	-165.557	0.334	0.015
-605.157	-197.486	-0.128	-0.001
-604.142	-34.989	0.190	0.104
-603.128	25.271	-0.239	0.200
-602.113	15.246	0.312	-0.246
-601.098	-52.577	-0.297	-0.138
-600.084	-200.000	-0.038	0.283
-599.069	216.552	0.110	0.176
-598.055	33.984	0.391	-0.342
-597.040	-21.697	-0.342	-0.210
-596.025	-200.000	0.012	-0.132
-595.011	-148.255	0.376	0.031
-593.996	-60.900	-0.048	0.021
-592.982	800.000	-0.132	-0.385
-591.967	637.171	0.076	0.195
-590.952	-124.696	0.216	0.034
-589.938	-138.962	-0.054	-0.006
-588.923	121.177	0.088	-0.110
-587.909	-190.473	0.254	-0.003
-586.894	-31.106	-0.152	-0.086
-585.879	800.000	0.064	0.251
-584.865	-186.190	-0.288	-0.004
-583.850	-50.731	-0.047	-0.022
-582.836	-113.411	0.092	0.018
-581.821	238.858	0.121	-0.203
-580.806	119.449	-0.223	-0.278
-579.792	-36.473	0.314	-0.170
-578.777	-123.439	-0.383	-0.061
-577.763	632.215	0.052	-0.132
-576.748	-69.936	0.241	0.092
-575.733	800.000	-0.042	-0.127
-574.719	800.000	0.049	0.142
-573.704	192.391	-0.087	-0.131
-572.690	-101.940	0.058	-0.014
-571.675	-120.163	-0.041	-0.007
-570.661	326.149	-0.109	0.209
-569.646	98.949	0.033	-0.038
-568.631	-200.000	0.053	-0.337
-567.617	-200.000	0.047	0.369
-566.602	537.190	-0.153	-0.364
-565.588	42.192	-0.066	0.060
-564.573	-121.108	0.276	-0.046
-563.558	301.705	0.097	0.179
-562.544	-103.500	0.113	-0.027
-561.529	285.873	-0.102	0.185
-560.515	532.286	-0.107	-0.254
-559.500	140.792	-0.185	0.246
-558.485	34.291	-0.372	0.326
-557.471	-161.011	-0.263	0.014
-556.456	-102.949	-0.084	-0.020
-555.442	112.561	0.043	-0.052
-554.427	108.986	-0.094	0.112
-553.412	19.637	-0.402	0.324
-552.398	-200.000	0.058	0.304
-551.383	800.000	0.056	0.208
-550.369	-54.655	0.294	0.134
-549.354	-200.000	-0.043	-0.221
-548.339	52.142	0.189	-0.180
-547.325	-6.958	-0.203	-0.138
-546.310	-200.000	0.031	0.320
-545.296	-45.148	-0.290	0.144
-544.281	-5.916	0.257	-0.177
-543.266	34.051	0.129	-0.113
-542.252	-62.145	0.041	-0.017
-541.237	28.273	0.215	-0.182
-540.223	-85.541	-0.121	-0.038
-539.208	64.097	-0.202	0.204
-538.193	35.524	0.042	-0.037
-537.179	-200.000	0.023	0.181
-536.164	97.180	-0.128	0.147
-535.150	-126.660	-0.136	0.020
-534.135	21.598	-0.123	0.100
-533.121	-32.434	0.164	-0.091
-532.106	-97.939	0.134	-0.035
-531.091	800.000	-0.058	-0.245
-530.077	-2.808	0.233	-0.163
-529.062	242.012	-0.161	-0.270
-528.048	-200.000	0.005	-0.269
-527.033	-200.000	0.025	0.293
-526.018	8.383	-0.119	-0.089
-525.004	-9.232	0.096	-0.064
-523.989	-100.670	0.144	-0.036
-522.975	164.509	0.068	-0.096
-521.960	-200.000	0.009	-0.041
-520.945	-33.450	0.175	-0.097
-519.931	-30.970	0.211	-0.119
-518.916	25.778	0.078	0.065
-517.902	-190.944	-0.048	-0.001
-516.887	100.135	-0.156	-0.182
-515.872	800.000	0.094	-0.268
-514.858	-127.428	-0.298	-0.043
-513.843	-200.000	-0.004	-0.160
-512.829	575.363	0.072	-0.175
-511.814	-47.592	0.149	-0.073
-510.799	217.845	0.059	0.094
-509.785	-200.000	0.008	-0.097
-508.770	-200.000	0.014	0.185
-507.756	-8.578	-0.087	-0.058
-506.741	-200.000	0.069	-0.419
-505.726	519.935	-0.043	-0.101
-504.712	95.218	0.056	0.064
-503.697	800.000	-0.085	-0.325
-502.683	-200.000	0.001	0.095
-501.668	-200.000	-0.004	-0.047
-500.653	36.612	-0.195	0.172
-499.639	-66.051	0.169	-0.067
-498.624	-68.728	0.216	-0.084
-497.610	-200.000	-0.029	0.424
-496.595	-38.581	0.199	0.105
-495.581	800.000	0.039	-0.134
-494.566	-18.509	-0.174	-0.108
-493.551	186.390	-0.093	0.139
-492.537	-0.539	0.274	-0.194
-491.522	-65.324	-0.306	-0.123
-490.508	455.507	-0.141	0.313
-489.493	-61.380	0.040	0.017
-488.478	-7.253	-0.084	-0.057
-487.464	-200.000	0.028	0.130
-486.449	-13.575	-0.117	0.076
-485.435	38.416	-0.126	-0.112
-484.420	2.628	0.235	0.170
-483.405	-74.210	0.131	0.047
-482.391	800.000	-0.114	0.391
-481.376	-200.000	0.064	0.283
-480.362	800.000	0.063	0.247
-479.347	-200.000	0.014	-0.227
-478.332	-200.000	0.040	0.249
-477.318	-200.000	0.049	0.419
-476.303	-95.974	0.260	-0.069
-475.289	-125.343	-0.103	-0.016
-474.274	699.548	0.047	0.125
-473.259	-158.252	-0.179	-0.010
-472.245	-200.000	0.036	-0.242
-471.230	-94.631	0.132	-0.036
-470.216	374.990	-0.073	-0.150
-469.201	296.503	0.034	-0.063
-468.186	245.787	-0.024	0.040
-467.172	-29.842	-0.246	0.140
-466.157	-8.193	0.100	0.067
-465.143	-26.304	-0.326	-0.191
-464.128	-200.000	0.025	-0.176
-463.113	5.645	0.079	0.058
-462.099	-200.000	0.035	0.167
-461.084	-43.852	-0.254	-0.128
-460.070	-200.000	-0.071	-0.366
-459.055	-35.776	0.107	0.058
-458.040	-131.525	-0.359	0.047
-457.026	518.399	-0.059	0.139
-456.011	-39.957	0.060	0.031
-454.997	800.000	0.089	0.361
-453.982	48.991	0.101	0.095
-452.968	222.740	-0.068	0.110
-451.953	326.678	0.146	-0.279
-450.938	38.220	-0.212	-0.189
-449.924	150.885	0.123	0.168
-448.909	-70.011	-0.082	0.031
-447.895	-200.000	-0.029	0.195
-446.880	-149.181	0.205	0.016
-445.865	-185.033	0.240	0.004
-444.851	800.000	-0.019	-0.065
-443.836	-200.000	0.068	-0.386
-442.822	0.877	0.238	0.171
-441.807	-50.751	-0.126	0.059
-440.792	205.884	0.177	-0.274
-439.778	-32.015	-0.149	0.083
-438.763	-200.000	-0.007	0.237
-437.749	-67.312	-0.380	0.149
-436.734	-169.960	-0.131	0.005
-435.719	289.400	-0.184	0.332
-434.705	-6.859	-0.120	-0.081
-433.690	26.210	-0.104	-0.086
-432.676	-76.714	-0.202	0.071
-431.661	-45.729	-0.262	0.130
-430.646	-105.859	0.068	0.015
-429.632	800.000	-0.010	0.031
-428.617	-200.000	0.009	0.356
-427.603	131.624	0.116	0.149
-426.588	7.618	-0.120	-0.090
-425.573	327.758	-0.142	-0.273
-424.559	-11.651	0.219	-0.144
-423.544	103.061	-0.074	0.087
-422.530	206.115	-0.182	0.283
-421.515	-85.519	-0.254	0.079
-420.500	-200.000	-0.039	0.177
-419.486	49.427	-0.161	0.151
-418.471	-32.512	-0.436	0.243
-417.457	-200.000	-0.002	-0.073
-416.442	365.033	-0.092	0.185
-415.428	-10.872	-0.066	0.044
-414.413	51.909	0.160	-0.152
-413.398	171.297	-0.123	0.176
-412.384	-9.048	-0.054	-0.036
-411.369	-200.000	-0.008	-0.155
-410.355	-86.636	0.092	0.028
-409.340	800.000	0.057	0.164
-408.325	-37.800	-0.184	-0.098
-407.311	-200.000	-0.015	0.207
-406.296	-158.417	-0.425	0.025
-405.282	-40.577	0.074	0.038
-404.267	-200.000	0.025	0.126
-403.252	-67.796	0.284	0.111
-402.238	-15.106	-0.253	0.162
-401.223	7.651	-0.125	0.093
-400.209	191.281	-0.130	0.196
-399.194	-78.114	-0.377	0.130
-398.179	5.015	-0.099	-0.073
-397.165	-72.677	-0.451	-0.166
-396.150	-200.000	-0.002	-0.034
-395.136	-141.196	-0.440	0.045
-394.121	-28.670	0.222	0.127
-393.106	144.100	0.009	0.012
-392.092	116.705	-0.166	-0.203
-391.077	270.253	-0.069	-0.121
-390.063	-108.605	-0.045	-0.010
-389.048	148.927	0.138	-0.186
-388.033	45.143	0.172	-0.158
-387.019	-200.000	-0.015	-0.183
-386.004	-37.143	0.124	0.066
-384.990	147.164	0.113	0.152
-383.975	-200.000	0.013	-0.094
-382.960	10.448	-0.165	0.125
-381.946	50.403	0.204	0.192
-380.931	-52.889	0.185	0.085
-379.917	-47.959	0.137	0.066
-378.902	75.485	-0.207	-0.218
-377.888	-103.765	0.298	0.070
-376.873	262.977	0.128	-0.222
-375.858	-200.000	-0.014	0.126
-374.844	296.963	0.154	-0.281
-373.829	-87.540	0.044	0.013
-372.815	131.869	0.128	-0.164
-371.800	800.000	-0.072	-0.240
-370.785	29.696	-0.086	0.073
-369.771	-12.895	0.218	-0.142
-368.756	-64.262	0.159	-0.065
-367.742	800.000	-0.054	-0.174
-366.727	800.000	-0.073	-0.202
-365.712	412.798	-0.181	-0.384
-364.698	-2.124	-0.109	0.076
-363.683	-119.685	-0.084	0.014
-362.669	264.124	0.106	-0.184
-361.654	-200.000	-0.004	0.436
-360.639	35.937	-0.230	0.202
-359.625	-87.168	-0.087	0.026
-358.610	-93.753	0.382	0.105
-357.596	-200.000	-0.016	0.100
-356.581	41.961	-0.255	0.230
-355.566	506.243	0.132	-0.305
-354.552	155.860	-0.089	0.121
-353.537	122.026	-0.015	0.019
-352.523	-34.301	0.225	-0.123
-351.508	486.022	0.123	-0.278
-350.493	-15.042	-0.174	0.111
-349.479	187.956	0.067	0.100
-348.464	-32.934	0.166	-0.092
-347.450	-38.152	-0.153	-0.081
-346.435	-9.296	0.102	0.068
-345.420	247.319	-0.026	0.044
-344.406	68.800	0.159	0.162
-343.391	481.821	0.176	0.398
-342.377	-25.809	0.208	-0.122
-341.362	-40.517	0.119	-0.061
-340.348	-71.549	-0.094	0.035
-339.333	188.597	0.089	0.132
-338.318	-179.484	0.288	0.006
-337.304	-181.678	0.196	-0.004
-336.289	800.000	0.062	0.191
-335.275	-200.000	0.001	-0.231
-334.260	289.776	-0.118	-0.212
-333.245	-23.507	0.244	0.146
-332.231	-74.344	-0.114	-0.041
-331.216	14.628	-0.203	-0.158
-330.202	-58.583	0.224	-0.097
-329.187	-200.000	-0.029	0.146
-328.172	800.000	-0.052	0.220
-327.158	53.097	-0.044	-0.041
-326.143	88.464	0.170	0.188
-325.129	-2.341	-0.180	-0.126
-324.114	24.429	0.035	0.029
-323.099	-200.000	-0.033	-0.312
-322.085	800.000	-0.064	-0.196
-321.070	-200.000	-0.002	0.142
-320.056	800.000	-0.036	-0.136
-319.041	-147.853	-0.373	0.031
-318.026	-139.860	0.374	0.039
-317.012	36.603	0.431	-0.379
-315.997	5.635	-0.160	-0.117
-314.983	81.316	0.181	0.194
-313.968	229.143	-0.181	0.294
-312.953	-8.338	-0.103	0.069
-311.939	-200.000	-0.019	-0.198
-310.924	81.649	-0.116	-0.125
-309.910	254.965	-0.064	-0.110
-308.895	341.664	-0.073	0.142
-307.880	295.182	0.132	-0.239
-306.866	-153.383	0.145	0.010
-305.851	-116.799	-0.159	-0.029
-304.837	-33.609	0.198	-0.109
-303.822	-180.413	0.041	-0.001
-302.807	800.000	0.133	-0.394
-301.793	-180.443	0.271	-0.006
-300.778	41.311	0.077	0.069
-299.764	57.092	0.203	0.197
-298.749	-172.899	0.353	-0.011
-297.735	562.387	-0.025	-0.060
-296.720	-93.768	0.126	-0.034
-295.705	-156.395	0.417	0.026
-294.691	-67.103	0.024	0.009
-293.676	171.020	0.059	0.084
-292.662	-66.987	0.233	-0.091
-291.647	-61.367	0.275	0.115
-290.632	-38.638	0.117	-0.061
-289.618	-200.000	-0.057	0.336
-288.603	-191.079	-0.312	0.003
-287.589	288.355	0.198	-0.356
-286.574	800.000	-0.028	0.121
-285.559	-69.693	0.288	-0.109
-284.545	800.000	-0.055	0.219
-283.530	161.269	-0.209	-0.290
-282.516	76.673	0.183	-0.192
-281.501	-159.791	-0.439	0.024
-280.486	-146.081	-0.146	-0.013
-279.472	-97.996	0.205	-0.052
-278.457	-200.000	0.015	-0.177
-277.443	-67.303	-0.229	-0.089
-276.428	800.000	0.102	-0.369
-275.413	-145.346	0.082	-0.007
-274.399	759.034	0.025	0.068
-273.384	165.857	0.219	0.308
-272.370	102.589	-0.242	0.281
-271.355	-38.918	-0.250	0.131
-270.340	291.509	-0.031	0.056
-269.326	-47.855	-0.221	-0.106
-268.311	-89.203	-0.282	0.082
-267.297	-101.770	0.232	-0.056
-266.282	-200.000	-0.023	0.206
-265.267	47.800	-0.287	-0.266
-264.253	-159.051	0.469	-0.026
-263.238	79.915	0.183	-0.195
-262.224	139.637	-0.020	0.027
-261.209	-22.691	0.190	-0.114
-260.195	-200.000	-0.077	0.477
-259.180	-39.213	-0.056	-0.029
-258.165	-200.000	0.308	-0.001
-257.151	-200.000	0.017	0.289
-256.136	-102.197	-0.285	-0.068
-255.122	800.000	0.121	-0.350
-254.107	56.554	-0.267	0.257
-253.092	173.213	-0.064	-0.092
-252.078	-59.824	0.287	0.122
-251.063	437.741	-0.038	0.082
-250.049	-135.192	-0.229	-0.027
-249.034	604.002	-0.146	-0.361
-248.019	54.673	0.330	-0.316
-247.005	-166.629	-0.430	0.018
-245.990	-176.954	-0.109	-0.003
-244.976	800.000	-0.059	-0.205
-243.961	-61.160	-0.225	0.094
-242.946	-141.677	-0.361	-0.036
-241.932	-150.674	-0.383	0.029
-240.917	375.397	-0.031	0.063
-239.903	340.396	0.124	0.240
-238.888	800.000	-0.062	0.215
-237.873	279.574	0.164	0.290
-236.859	-25.052	-0.402	0.236
-235.844	800.000	-0.026	0.099
-234.830	-120.971	-0.272	-0.045
-233.815	800.000	-0.024	0.067
-232.800	-200.000	-0.007	0.057
-231.786	44.492	-0.175	0.159
-230.771	-138.525	0.091	-0.010
-229.757	49.998	0.034	-0.032
-228.742	-96.387	0.134	-0.035
-227.727	50.694	-0.190	0.178
-226.713	-29.938	0.264	-0.149
-225.698	-79.361	0.216	0.072
-224.684	121.154	-0.222	0.274
-223.669	-200.000	0.027	0.177
-222.655	-150.397	0.453	-0.035
-221.640	-200.000	-0.009	0.060
-220.625	33.103	0.143	-0.123
-219.611	-16.650	-0.098	-0.061
-218.596	156.437	0.139	0.190
-217.582	-139.364	0.280	-0.030
-216.567	19.444	0.216	-0.172
-215.552	348.268	-0.178	-0.347
-214.538	-200.000	-0.005	-0.227
-213.523	-82.805	-0.132	0.042
-212.509	-69.317	-0.215	-0.082
-211.494	50.762	-0.078	0.073
-210.479	480.338	-0.047	0.105
-209.465	129.863	0.124	-0.157
-208.450	6.077	-0.074	-0.054
-207.436	114.928	0.099	0.119
-206.421	-70.485	0.248	0.093
-205.406	-39.386	0.208	-0.108
-204.392	-67.714	0.117	0.045
-203.377	84.533	-0.131	-0.142
-202.363	-97.063	-0.266	0.069
-201.348	126.780	-0.092	0.115
-200.333	300.030	-0.161	-0.294
-199.319	-85.705	-0.114	-0.035
-198.304	386.370	-0.047	-0.096
-197.290	118.566	0.093	0.113
-196.275	235.674	0.272	0.445
-195.260	32.049	-0.211	-0.180
-194.246	-21.128	0.192	0.116
-193.231	-200.000	-0.031	0.138
-192.217	31.827	-0.171	-0.146
-191.202	-200.000	0.029	-0.417
-190.187	-200.000	0.025	0.247
-189.173	-64.145	0.265	0.107
-188.158	-47.421	-0.137	-0.066
-187.144	800.000	-0.040	-0.140
-186.129	782.295	-0.048	-0.129
-185.114	-138.826	-0.093	0.010
-184.100	-163.490	-0.188	0.009
-183.085	320.524	-0.106	0.200
-182.071	-28.433	0.233	0.133
-181.056	42.955	0.221	-0.200
-180.042	-27.436	0.329	0.189
-179.027	-66.654	-0.331	0.130
-178.012	-200.000	0.020	0.098
-176.998	-65.288	0.143	0.057
-175.983	40.371	-0.187	-0.166
-174.969	50.236	0.210	0.196
-173.954	94.657	-0.148	-0.166
-172.939	-200.000	0.030	-0.163
-171.925	-125.355	-0.425	-0.064
-170.910	-5.585	0.296	-0.201
-169.896	-200.000	0.022	0.097
-168.881	46.948	-0.130	-0.119
-167.866	104.762	0.086	-0.100
-166.852	-102.543	-0.212	-0.050
-165.837	-61.865	0.150	0.062
-164.823	-19.169	0.152	0.093
-163.808	-20.585	0.203	-0.123
-162.793	800.000	-0.075	-0.219
-161.779	800.000	0.099	-0.292
-160.764	-52.004	0.185	0.085
-159.750	-200.000	-0.050	-0.246
-158.735	-200.000	-0.026	0.165
-157.720	151.327	0.240	0.323
-156.706	-136.950	0.101	-0.011
-155.691	-31.314	-0.249	0.139
-154.677	236.697	-0.087	0.143
-153.662	-200.000	-0.061	-0.266
-152.647	-92.290	0.510	0.142
-151.633	800.000	-0.046	0.185
-150.618	-13.684	0.059	-0.038
-149.604	800.000	-0.106	-0.376
-148.589	115.478	0.170	0.206
-147.574	-46.916	0.175	-0.084
-146.560	390.026	0.106	-0.216
-145.545	224.157	0.173	-0.276
-144.531	452.352	-0.151	-0.329
-143.516	-68.000	-0.213	-0.082
-142.502	-45.294	0.210	0.103
-141.487	187.609	0.157	0.231
-140.472	-72.172	-0.220	-0.080
-139.458	339.757	-0.105	-0.203
-138.443	225.763	0.174	-0.278
-137.429	800.000	0.085	-0.342
-136.414	-200.000	0.006	0.106
-135.399	66.488	0.104	-0.105
-134.385	141.918	0.070	-0.092
-133.370	-74.192	-0.308	-0.110
-132.356	422.391	-0.091	-0.192
-131.341	19.435	-0.154	0.122
-130.326	17.113	0.159	-0.124
-129.312	-124.212	-0.078	-0.012
-128.297	-82.157	0.309	0.099
-127.283	43.329	0.331	0.298
-126.268	-44.587	-0.333	0.164
-125.253	606.858	-0.119	0.293
-124.239	-65.310	-0.300	-0.119
-123.224	-200.000	0.028	-0.163
-122.210	800.000	0.075	0.250
-121.195	-68.587	0.182	0.070
-120.180	-115.920	0.182	-0.033
-119.166	-73.811	0.123	-0.044
-118.151	154.763	0.082	0.111
-117.137	-66.532	-0.106	-0.042
-116.122	-138.599	0.221	0.024
-115.107	114.964	-0.067	-0.080
-114.093	-44.464	0.499	-0.246
-113.078	-7.269	0.245	-0.164
-112.064	-65.324	0.128	-0.051
-111.049	69.765	0.191	0.194
-110.034	800.000	0.026	-0.095
-109.020	-58.104	-0.300	-0.129
-108.005	358.678	-0.071	-0.140
-106.991	32.021	0.023	0.019
-105.976	185.212	-0.125	0.183
-104.962	116.557	-0.058	0.070
-103.947	256.836	0.170	0.288
-102.932	-26.531	-0.128	-0.074
-101.918	582.334	0.044	-0.106
-100.903	-51.964	0.124	0.057
-99.889	-19.100	0.218	-0.133
-98.874	-58.016	-0.124	0.053
-97.859	-200.000	-0.022	0.288
-96.845	47.278	0.234	0.215
-95.830	221.211	0.129	0.204
-94.816	-200.000	-0.011	-0.054
-93.801	89.006	0.199	-0.219
-92.786	-82.559	0.252	-0.080
-91.772	-200.000	-0.003	-0.129
-90.757	-200.000	-0.011	-0.421
-89.743	199.702	0.143	0.216
-88.728	800.000	-0.062	-0.212
-87.713	-200.000	0.050	0.431
-86.699	5.634	0.035	0.025
-85.684	58.255	0.073	0.070
-84.670	508.308	-0.060	-0.137
-83.655	605.477	0.122	0.300
-82.640	-31.090	-0.246	0.137
-81.626	-110.226	-0.048	-0.010
-80.611	21.187	0.205	0.164
-79.597	-200.000	-0.022	0.360
-78.582	-200.000	-0.021	0.117
-77.567	800.000	-0.070	-0.300
-76.553	-167.616	-0.165	-0.006
-75.538	-124.834	0.061	-0.009
-74.524	-200.000	-0.022	-0.175
-73.509	76.642	0.037	-0.038
-72.494	36.545	-0.235	-0.205
-71.480	558.702	0.100	-0.237
-70.465	30.263	-0.362	-0.304
-69.451	269.811	0.250	0.433
-68.436	664.404	-0.034	-0.086
-67.422	71.967	0.105	-0.107
-66.407	-200.000	-0.025	-0.223
-65.392	-154.098	-0.148	-0.010
-64.378	-73.655	0.080	0.029
-63.363	-5.965	-0.275	0.185
-62.349	487.367	-0.069	0.155
-61.334	33.676	-1.164	-0.996
-60.319	83.692	0.558	0.598
-59.305	-200.000	-0.083	-0.990
-58.290	68.258	0.823	0.830
-57.276	575.535	0.635	1.526
-56.261	-200.000	95.770	602.919
-55.246	661.205	1380.606	3499.009
-54.232	196.452	2563.326	3840.587
-53.217	121.771	2149.455	2637.079
-52.203	43.904	1605.202	1446.399
-51.188	35.026	1341.254	1155.234
-50.173	31.798	1299.363	1100.197
-49.159	55.116	1346.345	1279.612
-48.144	56.945	1362.696	1305.994
-47.130	35.283	1322.027	1140.025
-46.115	31.749	1304.620	1104.183
-45.100	31.495	1299.317	1098.159
-44.086	31.504	1297.130	1096.322
-43.071	31.375	1295.129	1093.830
-42.057	31.364	1292.805	1091.759
-41.042	31.462	1291.067	1090.825
-40.027	31.378	1289.727	1089.156
-39.013	31.313	1288.232	1087.474
-37.998	31.361	1286.346	1086.115
-36.984	31.501	1284.052	1084.949
-35.969	31.580	1282.369	1083.941
-34.954	31.550	1280.676	1082.295
-33.940	31.484	1279.792	1081.124
-32.925	31.576	1278.061	1080.150
-31.911	31.557	1276.648	1078.800
-30.896	31.421	1275.358	1076.885
-29.881	31.594	1273.803	1076.523
-28.867	31.509	1272.758	1075.111
-27.852	31.650	1270.851	1074.265
-26.838	31.591	1269.636	1072.860
-25.823	31.667	1268.047	1071.908
-24.809	31.542	1266.989	1070.255
-23.794	31.566	1265.552	1069.140
-22.779	31.589	1264.058	1067.962
-21.765	31.561	1263.273	1067.096
-20.750	31.602	1261.541	1065.826
-19.736	31.458	1260.087	1063.736
-18.721	31.474	1258.971	1062.842
-17.706	31.479	1258.071	1062.069
-16.692	31.472	1257.226	1061.273
-15.677	31.501	1255.343	1059.805
-14.663	31.503	1254.284	1058.881
-13.648	31.458	1253.304	1057.759
-12.633	31.552	1252.146	1057.269
-11.619	31.374	1251.865	1055.984
-10.604	31.451	1250.907	1055.568
-9.590	31.386	1249.946	1054.352
-8.575	31.316	1249.262	1053.336
-7.560	31.464	1247.918	1052.995
-6.546	31.354	1246.932	1051.505
-5.531	31.251	1246.701	1050.687
-4.517	31.239	1245.917	1049.916
-3.502	31.444	1244.473	1049.810
-2.487	31.337	1243.599	1048.429
-1.473	31.411	1239.589	1045.422
-0.458	30.467	1225.418	1028.206
0.556	26.293	1208.279	993.440
1.571	23.001	1213.530	979.460
2.586	22.049	1228.220	985.888
3.600	21.497	1217.025	973.744
4.615	16.629	1145.525	890.892
5.629	8.683	1072.296	794.566
6.644	5.177	1053.307	763.304
7.659	4.920	1050.888	760.231
8.673	4.885	1049.212	758.782
9.688	4.909	1048.160	758.069
10.702	4.973	1046.990	757.467
11.717	9.823	1053.321	785.642
12.731	16.863	1063.020	827.283
13.746	19.111	1064.753	839.533
14.761	18.080	1063.367	833.343
15.775	17.052	1060.886	826.321
16.790	16.061	1058.397	819.498
17.804	15.340	1057.217	815.006
18.819	14.915	1056.213	812.096
19.834	14.649	1055.136	809.906
20.848	14.417	1054.129	807.941
21.863	14.303	1053.626	806.930
22.877	14.038	1052.555	804.755
23.892	14.065	1052.214	804.553
24.907	14.230	1051.440	804.688
25.921	14.103	1050.291	803.123
26.936	14.060	1049.526	802.260
27.950	14.271	1047.369	801.555
28.965	14.215	1046.028	800.192
29.980	14.285	1044.497	799.283
30.994	14.397	1043.101	798.685
32.009	14.510	1041.955	798.276
33.023	14.391	1041.161	797.026
34.038	14.289	1040.118	795.670
35.053	14.233	1039.387	794.773
36.067	14.178	1038.275	793.592
37.082	14.192	1037.680	793.131
38.096	14.392	1037.134	793.596
39.111	14.213	1036.471	792.168
40.126	14.248	1035.048	791.176
41.140	14.159	1033.563	789.551
42.155	13.977	1032.541	787.834
43.169	14.068	1031.095	787.094
44.184	13.915	1030.442	785.799
45.199	13.953	1029.607	785.277
46.213	14.062	1028.432	784.824
47.228	14.354	1026.968	785.015
48.242	14.167	1026.123	783.418
49.257	14.199	1024.943	782.596
50.271	14.297	1024.333	782.525
51.286	14.195	1023.818	781.581
52.301	14.184	1022.579	780.515
53.315	14.079	1021.701	779.285
54.330	14.086	1020.397	778.254
55.344	14.111	1019.166	777.363
56.359	14.092	1018.722	776.868
57.374	13.949	1017.827	775.446
58.388	13.990	1016.980	774.925
59.403	14.103	1015.862	774.532
60.417	13.896	1015.838	773.478
61.432	13.943	1014.767	772.817
62.447	13.927	1013.706	771.865
63.461	13.890	1013.208	771.243
64.476	13.870	1012.125	770.257
65.490	13.954	1011.220	769.890
66.505	14.014	1010.499	769.551
67.520	13.977	1009.815	768.795
68.534	13.975	1009.188	768.238
69.549	13.904	1008.457	767.286
70.563	13.865	1007.857	766.580
71.578	14.011	1006.704	766.311
72.593	13.822	1006.136	764.938
73.607	13.820	1005.289	764.217
74.622	13.791	1004.740	763.601
75.636	13.878	1004.489	763.743
76.651	13.867	1003.475	762.850
77.666	13.895	1003.083	762.617
78.680	13.837	1002.613	761.924
79.695	14.010	1001.579	761.862
80.709	14.016	1001.328	761.630
81.724	13.958	1000.658	760.788
82.739	14.103	999.607	760.589
83.753	14.230	998.762	760.458
84.768	14.289	997.837	759.956
85.782	14.389	997.122	759.800
86.797	14.372	996.219	758.966
87.812	14.190	995.204	757.296
88.826	14.171	994.297	756.452
89.841	14.206	993.631	756.039
90.855	14.214	992.852	755.416
91.870	14.227	992.217	754.925
92.884	14.336	991.268	754.631
93.899	14.320	990.153	753.642
94.914	14.412	989.664	753.620
95.928	14.329	988.871	752.575
96.943	14.400	988.004	752.166
97.957	14.267	987.145	750.847
98.972	14.248	986.141	749.930
99.987	14.407	985.325	749.961
101.001	14.329	984.274	748.746
102.016	14.379	983.439	748.267
103.030	14.330	982.670	747.397
104.045	14.461	981.738	747.209
105.060	14.107	981.123	745.089
106.074	14.162	980.079	744.476
107.089	14.046	979.246	743.258
108.103	14.113	978.004	742.548
109.118	14.051	977.240	741.629
110.133	14.046	976.231	740.775
111.147	14.079	975.949	740.639
112.162	13.984	975.044	739.466
113.176	14.175	973.910	739.390
114.191	14.203	973.597	739.210
115.206	14.171	972.847	738.434
116.220	14.125	971.690	737.284
117.235	14.082	970.786	736.345
118.249	14.137	969.702	735.699
119.264	14.149	969.132	735.256
120.279	14.081	968.090	734.102
121.293	13.968	967.519	733.102
122.308	14.005	966.508	732.434
123.322	13.948	965.740	731.539
124.337	14.083	964.367	731.025
125.352	14.087	963.436	730.274
126.366	14.037	962.287	729.119
127.381	14.051	961.425	728.462
128.395	14.005	960.709	727.653
129.410	14.145	959.572	727.341
130.424	14.055	959.436	726.779
131.439	14.154	957.995	726.055
132.454	14.099	957.702	725.528
133.468	14.272	956.800	725.535
134.483	14.268	955.891	724.766
135.497	14.136	955.339	723.708
136.512	14.167	954.376	723.052
137.527	14.235	953.505	722.623
138.541	14.216	953.138	722.198
139.556	14.263	951.785	721.311
140.570	14.314	951.602	721.330
141.585	14.429	950.582	720.990
142.600	14.288	950.181	720.013
143.614	14.370	949.056	719.452
144.629	14.494	948.145	719.232
145.643	14.259	947.653	717.780
146.658	14.266	946.220	716.661
147.673	14.302	945.541	716.238
148.687	14.243	945.097	715.588
149.702	14.211	943.879	714.462
150.716	14.201	943.165	713.819
151.731	14.367	942.129	713.680
152.746	14.165	941.809	712.511
153.760	14.277	941.259	712.509
154.775	14.377	940.301	712.148
155.789	14.501	939.571	712.065
156.804	14.380	938.908	710.981
157.819	14.492	937.927	710.655
158.833	14.431	937.943	710.342
159.848	14.531	936.960	709.961
160.862	14.551	935.712	709.038
161.877	14.401	934.765	707.619
162.892	14.252	934.290	706.564
163.906	14.365	933.136	706.109
164.921	14.290	932.605	705.329
165.935	14.277	931.688	704.515
166.950	14.360	930.768	704.109
167.964	14.496	929.373	703.565
168.979	14.535	928.258	702.823
169.994	14.360	927.857	701.722
171.008	14.378	927.368	701.366
172.023	14.473	926.850	701.311
173.037	14.608	926.079	701.234
174.052	14.502	925.165	700.035
175.067	14.388	924.841	699.246
176.081	14.393	924.084	698.635
177.096	14.537	923.274	698.565
178.110	14.542	922.892	698.233
179.125	14.477	922.287	697.443
180.140	14.531	921.806	697.244
181.154	14.524	921.217	696.704
182.169	14.677	920.806	696.972
183.183	14.708	920.079	696.488
184.198	14.652	919.117	695.465
185.213	14.821	917.895	695.184
186.227	14.722	918.011	694.798
187.242	14.780	917.184	694.352
188.256	14.870	916.844	694.408
189.271	14.699	916.009	693.005
190.286	14.775	914.709	692.273
191.300	14.363	914.640	690.452
192.315	14.417	913.610	689.837
193.329	14.399	913.447	689.580
194.344	14.553	912.990	689.809
195.359	14.646	912.279	689.597
196.373	14.824	911.386	689.592
197.388	14.724	911.134	688.930
198.402	14.875	910.698	689.163
199.417	14.966	909.856	688.837
200.432	15.004	909.303	688.516
201.446	15.004	909.449	688.565
202.461	15.124	908.310	688.132
203.475	15.118	907.505	687.439
204.490	14.927	907.406	686.519
205.504	14.844	906.384	685.347
206.519	14.899	905.434	684.792
207.534	14.882	904.960	684.302
208.548	14.869	904.532	683.865
209.563	14.814	903.663	682.924
210.577	14.805	902.997	682.322
211.592	14.980	902.461	682.572
212.607	15.114	901.413	682.265
213.621	15.107	900.411	681.416
214.636	15.112	900.430	681.392
215.650	15.026	899.497	680.274
216.665	15.119	899.233	680.391
217.680	15.198	898.257	679.915
218.694	15.262	897.609	679.624
219.709	15.271	896.590	678.828
220.723	15.232	896.525	678.562
221.738	15.220	895.478	677.663
222.753	15.283	895.088	677.561
223.767	15.202	894.756	676.923
224.782	15.300	893.984	676.672
225.796	15.394	893.553	676.667
226.811	15.289	892.581	675.446
227.826	15.284	892.074	674.985
228.840	15.321	891.413	674.575
229.855	15.328	890.307	673.706
230.869	15.173	889.664	672.537
231.884	15.151	889.179	672.021
232.899	15.232	888.378	671.681
233.913	15.260	887.695	671.220
234.928	15.125	887.109	670.176
235.942	15.193	886.872	670.207
236.957	15.264	885.807	669.628
237.972	15.207	885.444	669.068
238.986	15.172	884.669	668.284
240.001	15.322	883.978	668.300
241.015	15.328	883.366	667.800
242.030	15.430	883.089	667.940
243.045	15.340	882.456	667.045
244.059	15.520	881.690	667.121
245.074	15.433	881.223	666.364
246.088	15.408	881.029	666.058
247.103	15.391	880.475	665.511
248.117	15.645	879.694	665.869
249.132	15.597	879.416	665.410
250.147	15.756	878.540	665.317
251.161	15.737	878.065	664.823
252.176	15.748	877.345	664.261
253.190	15.810	876.603	663.886
254.205	15.790	876.252	663.486
255.220	15.827	875.279	662.834
256.234	15.868	874.666	662.474
257.249	15.852	873.961	661.817
258.263	15.787	873.363	661.051
259.278	15.957	872.218	660.791
260.293	15.934	872.103	660.556
261.307	15.923	871.484	659.988
262.322	15.992	870.881	659.740
263.336	16.009	870.324	659.328
264.351	16.074	869.497	658.896
265.366	16.100	868.891	658.479
266.380	16.025	868.447	657.792
267.395	16.111	867.021	656.989
268.409	16.030	866.544	656.253
269.424	16.062	866.001	655.911
270.439	16.036	865.229	655.167
271.453	16.045	864.744	654.775
272.468	15.957	864.284	654.030
273.482	15.975	863.678	653.581
274.497	16.059	862.865	653.234
275.512	16.032	862.616	652.885
276.526	16.066	861.972	652.468
277.541	16.084	861.443	652.081
278.555	16.242	860.995	652.295
279.570	16.276	860.233	651.793
280.585	16.174	859.522	650.800
281.599	16.210	858.645	650.219
282.614	16.247	858.176	649.947
283.628	16.355	857.129	649.514
284.643	16.267	856.567	648.691
285.657	16.160	856.296	648.020
286.672	16.351	855.825	648.338
287.687	16.193	855.049	647.086
288.701	16.271	854.635	647.015
289.716	16.229	853.888	646.230
290.730	16.242	853.146	645.663
291.745	16.416	852.827	646.030
292.760	16.311	852.244	645.128
293.774	16.441	851.740	645.185
294.789	16.426	850.883	644.423
295.803	16.338	849.873	643.265
296.818	16.296	849.655	642.882
297.833	16.210	849.264	642.203
298.847	16.469	848.416	642.490
299.862	16.485	847.404	641.729
300.876	16.364	847.619	641.375
301.891	16.575	846.594	641.343
302.906	16.560	846.511	641.165
303.920	16.606	845.931	640.844
304.935	16.613	845.102	640.184
305.949	16.585	844.719	639.732
306.964	16.618	844.121	639.349
307.979	16.674	843.328	638.904
308.993	16.760	842.212	638.324
310.008	16.591	842.201	637.623
311.022	16.673	841.639	637.452
312.037	16.687	840.892	636.879
313.052	16.530	840.697	636.086
314.066	16.571	839.567	635.330
315.081	16.430	839.700	634.844
316.095	16.499	838.970	634.495
317.110	16.439	838.485	633.846
318.125	16.485	838.236	633.775
319.139	16.550	837.544	633.438
320.154	16.511	837.038	632.855
321.168	16.644	836.265	632.711
322.183	16.821	835.687	632.880
323.197	16.609	835.312	631.747
324.212	16.652	834.620	631.328
325.227	16.427	834.370	630.243
326.241	16.690	833.704	630.664
327.256	16.719	833.135	630.286
328.270	16.571	832.518	629.214
329.285	16.595	831.923	628.797
330.300	16.792	831.036	628.803
331.314	16.724	831.049	628.505
332.329	16.763	830.555	628.220
333.343	16.914	829.587	627.993
334.358	16.600	830.158	627.204
335.373	16.866	829.402	627.563
336.387	16.854	828.984	627.147
337.402	16.920	828.858	627.238
338.416	16.917	828.683	627.040
339.431	17.051	828.135	627.065
340.446	17.091	827.423	626.619
341.460	17.155	826.960	626.448
342.475	17.091	826.965	626.162
343.489	17.304	826.030	626.185
344.504	17.152	825.940	625.500
345.519	17.237	824.909	624.974
346.533	17.387	824.245	624.970
347.548	17.120	824.010	623.756
348.562	17.052	823.327	622.932
349.577	17.109	822.774	622.670
350.592	16.934	822.373	621.669
351.606	16.987	821.746	621.332
352.621	17.136	820.814	621.119
353.635	17.121	820.435	620.722
354.650	17.181	819.881	620.468
355.665	17.155	819.332	619.903
356.679	17.401	818.213	619.895
357.694	17.181	818.159	619.001
358.708	17.123	817.744	618.418
359.723	17.194	817.096	618.132
360.738	17.226	816.449	617.705
361.752	17.241	815.995	617.362
362.767	17.301	815.446	617.111
363.781	17.437	815.124	617.304
364.796	17.525	814.436	617.046
365.810	17.389	814.341	616.429
366.825	17.521	813.718	616.380
367.840	17.533	813.160	615.945
368.854	17.512	812.612	615.401
369.869	17.525	812.119	615.019
370.883	17.515	811.769	614.663
371.898	17.549	811.619	614.621
372.913	17.728	811.162	614.863
373.927	17.635	810.473	613.953
374.942	17.774	810.011	614.047
375.956	17.667	809.732	613.398
376.971	17.660	809.303	612.994
377.986	17.715	808.975	612.888
379.000	17.879	808.342	612.943
380.015	17.916	807.328	612.254
381.029	17.895	807.133	611.977
382.044	17.693	807.056	611.138
383.059	17.872	805.884	610.837
384.073	17.991	805.118	610.627
385.088	17.777	804.989	609.713
386.102	17.872	804.420	609.565
387.117	17.818	803.578	608.683
388.132	17.747	803.115	608.026
389.146	17.749	802.798	607.737
390.161	17.800	802.538	607.670
391.175	17.940	801.957	607.673
392.190	17.952	801.202	607.091
393.205	17.804	800.853	606.247
394.219	17.808	800.627	606.036
395.234	17.719	800.100	605.268
396.248	17.710	799.390	604.645
397.263	17.722	798.959	604.307
398.278	17.692	798.918	604.116
399.292	17.705	798.358	603.685
400.307	17.721	797.802	603.270
401.321	17.640	797.464	602.673
402.336	17.804	796.889	602.763
403.350	17.797	796.751	602.583
404.365	17.946	795.968	602.461
405.380	18.135	795.405	602.649
406.394	18.051	795.314	602.230
407.409	18.121	794.833	602.059
408.423	18.232	794.513	602.156
409.438	18.195	794.553	602.000
410.453	18.149	793.642	601.097
411.467	18.253	793.240	601.105
412.482	18.438	792.879	601.428
413.496	18.353	792.740	600.970
414.511	18.343	792.422	600.642
415.526	18.452	791.468	600.246
416.540	18.336	791.379	599.719
417.555	18.265	790.948	599.090
418.569	18.296	790.356	598.700
419.584	18.431	789.722	598.638
420.599	18.393	789.459	598.252
421.613	156.459	1369.466	1793.185
422.628	135.335	1453.949	1793.262
