DTS Sentinel unit serial number:	SN413079Multiplexer serial number:	ORYXHardware model number:	OX4-SRSoftware version number:	ORYX F/W v4.00 Oryx Data Collector v3.7.2.0data status	okinstallation	princeton_trtdifferential loss correction	single-endedforward channel	channel 1reverse channel	N/Adate	2019/09/19time	07:10:35forward acquisition time	60.00reverse acquisition time	0.00gamma	496.2192k internal	0.2342k external	0.2342temperature offset calibration	1.0019default loss term (dB/km)	0.3790temperature slope calibration	1.0000multiplexer offset coefficient	1.0000multiplexer slope coefficient	1.0000fibre end	0.00T internal ref (°C)	19.05T ext. ref 1 (°C)	0.56T ext. ref 2 (°C)	13.27length (m)	temperature (°C)	Stokes	anti-Stokes-747.200	-56.084	-0.215	0.096
-746.185	-33.918	-0.437	0.241
-745.171	120.719	-0.225	0.280
-744.156	-200.000	-0.036	0.334
-743.142	-200.000	0.076	0.362
-742.127	-50.959	-0.210	-0.099
-741.112	-103.272	-0.041	0.010
-740.098	52.990	0.044	0.042
-739.083	800.000	0.018	-0.049
-738.069	-16.987	0.044	-0.028
-737.054	-200.000	0.014	0.106
-736.039	-11.487	-0.360	0.237
-735.025	-38.876	0.185	0.098
-734.010	34.613	-0.262	0.229
-732.996	-200.000	0.019	-0.255
-731.981	-68.948	-0.189	-0.073
-730.966	-127.380	-0.292	0.043
-729.952	301.904	0.086	-0.160
-728.937	-130.321	0.183	0.025
-727.923	-128.268	0.168	0.024
-726.908	-105.028	-0.259	0.059
-725.894	165.974	-0.141	0.200
-724.879	-200.000	0.034	-0.193
-723.864	-145.496	-0.043	0.004
-722.850	-200.000	-0.004	-0.261
-721.835	442.855	-0.041	0.089
-720.821	-1.560	0.048	-0.034
-719.806	-3.935	-0.226	0.157
-718.791	478.940	0.100	0.226
-717.777	-200.000	0.001	-0.032
-716.762	800.000	0.054	-0.177
-715.748	-114.317	-0.196	-0.038
-714.733	-43.531	0.073	-0.037
-713.718	-200.000	0.021	-0.286
-712.704	108.531	0.165	0.197
-711.689	800.000	0.071	0.294
-710.675	516.288	-0.174	0.406
-709.660	-200.000	-0.005	-0.067
-708.645	-200.000	0.010	-0.191
-707.631	800.000	-0.029	-0.085
-706.616	-200.000	0.020	-0.239
-705.602	103.820	0.100	-0.118
-704.587	-123.204	-0.050	0.008
-703.572	-116.183	-0.219	0.041
-702.558	-4.973	0.189	0.130
-701.543	-200.000	0.010	0.266
-700.529	253.521	-0.147	-0.252
-699.514	284.363	0.112	-0.202
-698.499	157.363	0.122	0.169
-697.485	725.929	-0.040	0.106
-696.470	529.171	-0.090	-0.212
-695.456	-119.604	-0.329	-0.057
-694.441	509.023	-0.022	0.050
-693.426	-49.151	0.071	0.034
-692.412	-200.000	-0.017	-0.431
-691.397	800.000	0.073	-0.239
-690.383	9.139	-0.208	-0.157
-689.368	73.249	-0.155	-0.162
-688.354	-200.000	0.008	-0.193
-687.339	-126.054	0.242	0.036
-686.324	-200.000	0.023	-0.142
-685.310	-44.573	-0.257	0.128
-684.295	135.503	-0.205	-0.267
-683.281	-42.344	0.103	0.052
-682.266	2.752	-0.204	0.148
-681.251	-72.710	-0.191	0.070
-680.237	396.632	-0.121	0.252
-679.222	5.966	0.187	-0.139
-678.208	-200.000	0.029	0.253
-677.193	418.150	0.052	-0.111
-676.178	-56.142	0.194	0.086
-675.164	-200.000	-0.001	0.327
-674.149	196.699	-0.145	0.220
-673.135	800.000	0.053	-0.162
-672.120	-113.900	-0.205	-0.040
-671.105	305.900	-0.113	0.210
-670.091	46.137	-0.191	0.176
-669.076	157.853	0.251	0.348
-668.062	-96.761	-0.259	0.068
-667.047	-102.735	0.066	0.016
-666.032	-172.292	-0.397	0.013
-665.018	44.326	-0.281	0.258
-664.003	63.369	0.044	-0.044
-662.989	179.079	-0.119	-0.173
-661.974	-52.586	0.228	0.105
-660.959	800.000	-0.082	0.251
-659.945	333.852	-0.219	-0.423
-658.930	329.679	-0.132	-0.254
-657.916	-46.130	0.258	0.127
-656.901	-26.043	-0.329	-0.193
-655.886	-16.082	-0.094	-0.060
-654.872	-96.209	0.403	-0.107
-653.857	-200.000	0.002	0.122
-652.843	293.310	-0.158	0.288
-651.828	800.000	-0.095	0.416
-650.814	-135.025	0.204	-0.025
-649.799	212.174	-0.156	0.246
-648.784	64.908	0.119	-0.120
-647.770	214.485	0.224	0.354
-646.755	-95.690	0.097	-0.026
-645.741	-138.580	0.451	-0.049
-644.726	-133.687	-0.066	-0.008
-643.711	-200.000	0.057	-0.268
-642.697	246.764	0.062	-0.105
-641.682	14.361	-0.481	0.374
-640.668	800.000	-0.026	-0.102
-639.653	-84.172	-0.223	0.071
-638.638	-200.000	0.014	-0.174
-637.624	-118.940	0.290	0.051
-636.609	272.959	-0.147	-0.259
-635.595	-120.699	-0.094	-0.016
-634.580	-200.000	-0.031	-0.231
-633.565	21.547	0.246	0.200
-632.551	800.000	-0.045	0.160
-631.536	85.901	-0.151	-0.166
-630.522	800.000	0.101	-0.364
-629.507	-135.806	-0.138	0.016
-628.492	-188.486	0.271	-0.003
-627.478	-131.470	0.110	-0.014
-626.463	-143.429	0.201	0.019
-625.449	286.756	0.182	0.328
-624.434	55.822	0.197	0.191
-623.419	128.949	-0.189	-0.240
-622.405	800.000	0.024	0.072
-621.390	800.000	0.138	-0.458
-620.376	54.167	-0.152	0.146
-619.361	337.805	-0.042	-0.081
-618.346	-114.675	-0.254	-0.049
-617.332	-117.042	-0.176	0.032
-616.317	-24.466	0.263	-0.156
-615.303	-200.000	0.001	-0.036
-614.288	-161.074	-0.862	-0.045
-613.273	120.528	0.063	-0.078
-612.259	-170.265	-0.337	-0.012
-611.244	800.000	-0.093	0.259
-610.230	126.707	0.127	0.161
-609.215	49.911	-0.225	-0.211
-608.201	146.503	0.261	-0.350
-607.186	-164.108	-0.224	0.010
-606.171	-158.295	-0.189	-0.011
-605.157	-168.862	0.200	0.007
-604.142	83.824	-0.144	-0.156
-603.128	800.000	0.035	-0.104
-602.113	800.000	0.017	0.056
-601.098	-150.654	-0.058	-0.004
-600.084	-200.000	-0.068	-0.565
-599.069	140.689	0.293	-0.386
-598.055	-5.471	0.151	0.103
-597.040	33.228	0.159	0.137
-596.025	800.000	-0.128	-0.432
-595.011	-59.060	0.271	0.116
-593.996	-116.858	-0.037	0.007
-592.982	-200.000	0.021	-0.091
-591.967	-24.449	-0.301	0.179
-590.952	-200.000	-0.144	-0.001
-589.938	-78.258	-0.250	0.086
-588.923	-200.000	0.004	0.068
-587.909	276.376	-0.104	-0.183
-586.894	-20.366	0.150	-0.092
-585.879	800.000	-0.061	0.252
-584.865	407.401	0.096	0.202
-583.850	-131.388	-0.268	0.035
-582.836	-200.000	-0.024	-0.415
-581.821	70.341	0.151	-0.156
-580.806	-22.895	0.334	-0.201
-579.792	359.412	-0.148	-0.294
-578.777	-85.718	-0.270	0.083
-577.763	11.703	-0.167	-0.128
-576.748	33.986	-0.110	0.095
-575.733	406.588	-0.158	0.332
-574.719	-200.000	-0.044	-0.201
-573.704	-42.336	-0.255	-0.130
-572.690	55.686	0.122	0.118
-571.675	-200.000	0.018	-0.204
-570.661	16.768	-0.067	-0.052
-569.646	107.354	0.257	-0.304
-568.631	68.185	0.042	0.043
-567.617	-200.000	0.040	-0.222
-566.602	-25.656	-0.209	-0.122
-565.588	-22.595	-0.174	0.105
-564.573	800.000	-0.025	0.091
-563.558	-136.568	-0.276	-0.032
-562.544	-200.000	0.009	-0.079
-561.529	-200.000	-0.012	-0.367
-560.515	256.865	-0.149	-0.255
-559.500	-200.000	-0.010	0.119
-558.485	-132.564	0.076	-0.010
-557.471	523.617	-0.073	0.171
-556.456	38.835	-0.050	0.044
-555.442	-200.000	0.002	-0.199
-554.427	800.000	-0.084	-0.297
-553.412	-90.104	-0.156	0.045
-552.398	208.646	-0.045	0.070
-551.383	-82.583	0.138	0.044
-550.369	-79.513	0.208	-0.070
-549.354	-200.000	0.021	0.130
-548.339	6.271	-0.056	0.041
-547.325	-134.798	0.088	-0.011
-546.310	285.256	-0.052	-0.093
-545.296	-107.898	-0.239	-0.052
-544.281	-200.000	0.016	-0.074
-543.266	800.000	0.098	-0.291
-542.252	800.000	0.103	-0.337
-541.237	26.610	0.270	0.225
-540.223	-99.320	-0.124	-0.031
-539.208	-200.000	0.001	0.281
-538.193	181.737	-0.045	-0.065
-537.179	117.576	0.039	-0.047
-536.164	115.612	0.131	-0.159
-535.150	-200.000	0.015	-0.097
-534.135	-50.751	-0.374	-0.175
-533.121	288.172	-0.185	0.333
-532.106	-13.196	-0.274	0.176
-531.091	-122.576	-0.137	-0.022
-530.077	800.000	0.024	-0.077
-529.062	-41.396	0.122	-0.062
-528.048	-134.233	-0.240	0.029
-527.033	-200.000	-0.015	0.260
-526.018	-200.000	0.273	-0.001
-525.004	-159.970	0.170	0.009
-523.989	29.154	-0.111	0.093
-522.975	307.872	-0.166	-0.307
-521.960	788.668	-0.016	-0.044
-520.945	-84.600	-0.034	-0.011
-519.931	45.060	0.083	0.076
-518.916	348.750	0.035	-0.068
-517.902	164.725	-0.030	-0.041
-516.887	-200.000	0.056	-0.281
-515.872	-200.000	-0.018	0.106
-514.858	-30.876	0.247	-0.139
-513.843	122.814	0.174	0.217
-512.829	113.142	0.059	-0.071
-511.814	-200.000	-0.282	-0.001
-510.799	-66.112	0.069	-0.027
-509.785	584.486	-0.048	-0.118
-508.770	-81.299	0.054	-0.018
-507.756	-200.000	-0.031	-0.182
-506.741	-200.000	-0.045	-0.446
-505.726	800.000	-0.080	0.302
-504.712	-126.129	0.325	-0.048
-503.697	-6.683	0.174	-0.117
-502.683	27.355	-0.177	-0.147
-501.668	-76.219	0.273	0.096
-500.653	214.773	0.160	0.251
-499.639	800.000	-0.047	-0.153
-498.624	-125.612	-0.224	0.034
-497.610	698.263	0.119	-0.309
-496.595	-25.389	0.280	0.164
-495.581	-200.000	0.004	0.112
-494.566	64.681	0.008	-0.008
-493.551	-37.552	-0.281	-0.148
-492.537	-200.000	0.016	-0.320
-491.522	-200.000	0.031	-0.162
-490.508	-200.000	-0.100	0.616
-489.493	-158.101	-0.106	-0.006
-488.478	-101.743	0.312	0.075
-487.464	-200.000	-0.049	0.285
-486.449	184.123	0.142	0.209
-485.435	-119.479	0.211	0.036
-484.420	-18.014	-0.347	0.216
-483.405	-46.234	0.062	0.030
-482.391	11.415	-0.113	0.086
-481.376	615.867	0.083	0.205
-480.362	-69.013	0.076	0.029
-479.347	-200.000	-0.031	-0.191
-478.332	-200.000	0.071	-0.328
-477.318	16.904	-0.148	0.116
-476.303	-81.360	-0.145	0.047
-475.289	-34.923	0.032	0.017
-474.274	-47.179	0.151	-0.073
-473.259	-104.552	-0.181	0.041
-472.245	81.464	-0.051	-0.054
-471.230	-66.772	0.285	0.112
-470.216	381.238	0.047	0.097
-469.201	46.256	-0.062	-0.057
-468.186	212.277	0.108	0.169
-467.172	-200.000	0.001	0.301
-466.157	94.847	0.173	-0.195
-465.143	113.846	-0.256	0.309
-464.128	461.370	-0.021	-0.046
-463.113	-62.766	0.305	0.125
-462.099	-191.892	-0.204	0.002
-461.084	50.140	0.176	-0.164
-460.070	-104.466	-0.137	-0.031
-459.055	-36.804	0.124	0.066
-458.040	800.000	-0.052	0.175
-457.026	42.328	-0.053	0.047
-456.011	-25.107	0.273	0.160
-454.997	492.528	-0.164	0.372
-453.982	-138.876	0.326	0.035
-452.968	-109.288	-0.332	-0.070
-451.953	-200.000	0.032	0.244
-450.938	58.043	0.180	0.175
-449.924	-3.414	-0.220	-0.152
-448.909	-200.000	0.036	-0.411
-447.895	133.866	-0.059	0.076
-446.880	-148.898	-0.324	-0.026
-445.865	-200.000	-0.028	-0.164
-444.851	370.897	-0.174	0.349
-443.836	800.000	0.020	-0.056
-442.822	93.459	-0.086	0.096
-441.807	-200.000	0.024	-0.143
-440.792	-137.656	0.211	0.024
-439.778	8.370	0.160	-0.119
-438.763	517.253	-0.086	-0.200
-437.749	289.824	-0.162	-0.292
-436.734	143.310	0.129	0.170
-435.719	173.075	0.068	-0.097
-434.705	-53.680	0.094	-0.043
-433.690	132.369	0.124	-0.158
-432.676	-43.155	0.295	-0.148
-431.661	-121.010	-0.147	-0.024
-430.646	63.821	0.120	0.119
-429.632	-30.910	0.010	-0.005
-428.617	-118.678	-0.211	0.037
-427.603	205.461	-0.161	-0.248
-426.588	-200.000	0.102	-0.609
-425.573	-67.910	-0.260	0.101
-424.559	386.394	-0.087	-0.177
-423.544	414.452	-0.116	-0.245
-422.530	-200.000	0.038	0.330
-421.515	84.576	-0.218	0.236
-420.500	-175.547	-0.063	0.002
-419.486	33.330	0.084	0.072
-418.471	50.137	0.082	0.077
-417.457	227.876	0.135	0.218
-416.442	279.231	-0.097	-0.172
-415.428	-200.000	0.008	0.051
-414.413	-200.000	0.060	-0.290
-413.398	344.003	-0.102	-0.197
-412.384	-85.985	0.323	-0.099
-411.369	295.942	-0.174	0.316
-410.355	273.522	-0.051	0.089
-409.340	800.000	0.082	-0.282
-408.325	-200.000	-0.022	-0.116
-407.311	21.660	-0.065	0.052
-406.296	-200.000	0.003	0.067
-405.282	176.951	0.053	0.077
-404.267	577.196	0.095	0.229
-403.252	517.197	0.079	0.183
-402.238	-77.078	-0.220	0.076
-401.223	392.797	0.145	-0.299
-400.209	30.341	-0.054	0.045
-399.194	-33.408	-0.198	-0.108
-398.179	435.698	-0.060	0.129
-397.165	-200.000	-0.007	0.057
-396.150	-49.883	0.319	0.150
-395.136	50.033	-0.114	0.107
-394.121	800.000	-0.069	0.198
-393.106	-86.287	0.317	0.096
-392.092	-57.179	-0.025	0.011
-391.077	-200.000	-0.021	0.101
-390.063	665.800	0.100	0.254
-389.048	-139.486	-0.316	-0.033
-388.033	-200.000	-0.004	0.223
-387.019	158.831	0.077	-0.106
-386.004	-98.862	-0.363	-0.091
-384.990	-36.226	-0.197	-0.105
-383.975	-122.843	-0.116	0.018
-382.960	54.219	-0.216	0.205
-381.946	-81.073	-0.094	0.031
-380.931	-92.002	-0.171	-0.048
-379.917	-130.219	0.222	-0.030
-378.902	-74.585	-0.062	0.022
-377.888	40.381	0.128	-0.113
-376.873	-46.454	0.011	-0.005
-375.858	-51.226	-0.375	-0.173
-374.844	-200.000	-0.028	-0.180
-373.829	800.000	-0.047	0.198
-372.815	22.415	0.142	-0.115
-371.800	124.710	-0.158	-0.196
-370.785	-55.610	-0.064	0.028
-369.771	-109.489	0.358	0.075
-368.756	160.185	0.259	-0.356
-367.742	-29.977	0.065	-0.036
-366.727	-168.374	0.334	0.013
-365.712	-200.000	-0.037	-0.179
-364.698	-56.479	-0.322	0.141
-363.683	97.455	0.085	0.096
-362.669	-200.000	0.013	0.078
-361.654	-163.487	0.227	-0.011
-360.639	36.395	-0.302	0.263
-359.625	-153.960	-0.118	0.008
-358.610	-200.000	0.245	0.000
-357.596	9.737	-0.349	0.261
-356.581	108.605	-0.069	-0.081
-355.566	-53.515	0.263	0.119
-354.552	-187.606	0.298	0.004
-353.537	10.860	-0.026	0.020
-352.523	154.205	0.102	0.137
-351.508	337.202	-0.049	0.093
-350.493	-200.000	0.017	-0.199
-349.479	583.671	0.060	-0.146
-348.464	18.577	0.205	0.162
-347.450	-200.000	0.037	0.334
-346.435	-111.303	0.083	-0.017
-345.420	-136.806	0.255	-0.029
-344.406	-11.647	-0.395	-0.256
-343.391	29.990	0.274	0.230
-342.377	208.895	0.131	-0.202
-341.362	99.793	-0.039	0.045
-340.348	40.255	0.171	0.152
-339.333	-36.300	0.228	-0.121
-338.318	-4.340	-0.128	-0.087
-337.304	-200.000	-0.071	0.398
-336.289	159.064	-0.087	0.119
-335.275	82.114	0.189	0.202
-334.260	800.000	-0.095	0.340
-333.245	-200.000	-0.007	-0.231
-332.231	-64.123	0.211	0.085
-331.216	145.543	0.136	0.179
-330.202	113.943	0.136	-0.162
-329.187	-53.300	0.239	-0.108
-328.172	-30.397	0.239	-0.134
-327.158	-65.027	-0.227	-0.091
-326.143	-50.671	0.300	0.139
-325.129	-99.847	-0.073	0.018
-324.114	85.299	0.234	-0.253
-323.099	-178.544	0.330	-0.008
-322.085	-200.000	0.010	0.078
-321.070	133.831	-0.056	0.072
-320.056	800.000	-0.066	0.205
-319.041	-200.000	0.020	-0.248
-318.026	-119.029	-0.247	0.043
-317.012	800.000	-0.060	0.242
-315.997	303.239	-0.136	0.248
-314.983	-96.934	-0.166	0.043
-313.968	90.135	-0.108	-0.119
-312.953	15.204	-0.179	-0.138
-311.939	-63.085	0.210	-0.085
-310.924	142.776	0.342	-0.447
-309.910	-105.897	-0.108	0.024
-308.895	230.867	-0.075	0.121
-307.880	132.560	-0.025	-0.032
-306.866	800.000	-0.072	-0.215
-305.851	-129.750	-0.137	0.019
-304.837	-200.000	-0.009	-0.258
-303.822	50.063	-0.017	0.016
-302.807	-38.453	-0.108	0.056
-301.793	800.000	0.020	0.081
-300.778	333.183	0.091	0.174
-299.764	134.778	-0.133	0.169
-298.749	-23.807	-0.154	0.091
-297.735	-68.054	0.275	0.106
-296.720	800.000	0.026	-0.086
-295.705	-200.000	-0.012	-0.220
-294.691	-51.444	-0.442	-0.203
-293.676	9.746	0.149	0.112
-292.662	176.214	-0.122	0.175
-291.647	-167.699	0.146	0.006
-290.632	624.601	-0.125	0.310
-289.618	-21.921	0.027	0.016
-288.603	-107.966	-0.168	-0.036
-287.589	780.733	-0.087	-0.234
-286.574	-79.535	-0.105	-0.035
-285.559	29.772	0.263	0.220
-284.545	-200.000	-0.066	0.311
-283.530	-146.406	0.165	0.014
-282.516	281.464	-0.041	0.072
-281.501	800.000	-0.053	0.159
-280.486	46.124	-0.151	-0.137
-279.472	-110.254	-0.037	0.008
-278.457	138.699	0.097	-0.126
-277.443	-22.384	-0.390	0.232
-276.428	-200.000	0.002	0.034
-275.413	8.609	0.117	0.087
-274.399	-200.000	0.012	0.086
-273.384	139.125	0.025	-0.033
-272.370	-83.960	-0.518	-0.162
-271.355	-141.122	0.287	0.029
-270.340	-50.790	-0.198	0.092
-269.326	156.948	0.120	0.163
-268.311	-74.590	0.133	0.047
-267.297	-24.288	-0.181	-0.106
-266.282	-141.403	0.116	-0.012
-265.267	51.233	0.195	-0.182
-264.253	-18.695	0.215	0.131
-263.238	548.444	-0.148	0.348
-262.224	-200.000	-0.024	0.123
-261.209	800.000	-0.029	-0.116
-260.195	105.884	0.336	-0.390
-259.180	531.598	0.054	-0.125
-258.165	-74.990	-0.206	-0.073
-257.151	277.457	-0.101	0.176
-256.136	450.839	0.096	-0.208
-255.122	-156.560	-0.203	0.012
-254.107	139.301	0.130	0.167
-253.092	380.717	0.084	0.170
-252.078	130.381	0.176	-0.222
-251.063	-160.513	0.156	0.008
-250.049	-170.203	0.379	-0.013
-249.034	461.561	0.079	0.172
-248.019	-127.189	0.153	0.022
-247.005	-200.000	-0.002	0.059
-245.990	-23.348	-0.316	-0.187
-244.976	-9.137	0.202	-0.133
-243.961	-64.518	-0.305	-0.122
-242.946	-62.949	0.148	-0.060
-241.932	-21.045	-0.261	-0.157
-240.917	-200.000	-0.011	-0.276
-239.903	-76.995	-0.295	-0.101
-238.888	800.000	-0.066	0.281
-237.873	800.000	0.014	-0.043
-236.859	377.916	-0.108	0.217
-235.844	518.708	0.172	-0.396
-234.830	88.989	0.197	-0.215
-233.815	-93.586	-0.084	-0.023
-232.800	-66.723	-0.135	-0.052
-231.786	800.000	0.041	-0.171
-230.771	800.000	-0.074	-0.280
-229.757	-135.200	0.390	-0.046
-228.742	-200.000	-0.028	0.267
-227.727	177.358	-0.119	0.170
-226.713	-105.411	0.083	0.018
-225.698	-172.133	0.453	0.014
-224.684	-122.967	0.137	0.022
-223.669	-75.072	-0.223	0.078
-222.655	-103.205	0.170	0.039
-221.640	-145.586	-0.112	-0.010
-220.625	-125.922	-0.269	-0.040
-219.611	-93.279	-0.138	-0.038
-218.596	388.070	-0.043	0.087
-217.582	-27.081	0.219	0.125
-216.567	-66.721	-0.267	0.104
-215.552	-63.665	-0.220	0.089
-214.538	-78.220	0.489	-0.165
-213.523	800.000	-0.041	-0.120
-212.509	-200.000	0.009	0.110
-211.494	-200.000	-0.044	-0.238
-210.479	479.595	-0.124	0.276
-209.465	432.976	0.088	0.187
-208.450	268.893	-0.137	0.236
-207.436	-200.000	-0.027	0.220
-206.421	-99.258	-0.119	-0.030
-205.406	-200.000	0.031	0.217
-204.392	-181.986	0.046	-0.001
-203.377	-156.710	0.251	0.015
-202.363	117.025	0.167	0.201
-201.348	-84.188	0.182	-0.057
-200.333	382.832	0.121	-0.243
-199.319	554.907	0.167	0.394
-198.304	58.958	0.095	-0.092
-197.290	0.748	-0.263	0.184
-196.275	-28.909	0.232	0.131
-195.260	-1.761	-0.141	0.097
-194.246	-200.000	-0.015	0.394
-193.231	-200.000	-0.001	0.187
-192.217	-17.823	0.253	0.156
-191.202	92.238	-0.123	-0.136
-190.187	155.772	-0.201	0.271
-189.173	11.631	0.066	0.050
-188.158	28.303	0.105	0.087
-187.144	-160.368	0.247	-0.013
-186.129	186.066	-0.163	-0.237
-185.114	-157.231	-0.311	-0.018
-184.100	674.268	0.059	0.149
-183.085	-61.378	-0.013	0.006
-182.071	-200.000	0.010	-0.139
-181.056	142.926	0.234	-0.304
-180.042	-18.489	-0.098	-0.060
-179.027	-200.000	-0.009	-0.164
-178.012	79.243	0.177	0.186
-176.998	700.112	0.108	-0.278
-175.983	308.233	-0.046	0.084
-174.969	800.000	0.067	0.228
-173.954	-105.771	-0.157	0.035
-172.939	-119.579	0.155	-0.026
-171.925	-200.000	-0.013	0.060
-170.910	123.829	0.250	0.307
-169.896	800.000	-0.051	0.152
-168.881	-49.104	-0.061	-0.028
-167.866	326.929	-0.181	0.340
-166.852	800.000	0.021	-0.078
-165.837	0.665	-0.142	0.099
-164.823	-112.307	0.240	0.047
-163.808	170.110	-0.124	0.174
-162.793	-171.953	0.044	0.001
-161.779	-200.000	-0.119	-0.000
-160.764	145.926	0.118	0.155
-159.750	-200.000	-0.037	-0.168
-158.735	-59.207	-0.351	0.148
-157.720	-124.309	0.159	0.024
-156.706	774.321	-0.031	0.082
-155.691	399.415	0.125	0.257
-154.677	82.437	-0.064	-0.067
-153.662	-53.262	0.416	0.187
-152.647	180.969	-0.289	-0.415
-151.633	-200.000	0.085	-0.425
-150.618	-49.697	0.297	0.138
-149.604	93.621	0.197	-0.219
-148.589	5.822	0.287	-0.208
-147.574	-128.582	0.038	0.005
-146.560	-200.000	-0.031	-0.289
-145.545	-76.540	-0.173	-0.059
-144.531	541.862	-0.091	-0.212
-143.516	-126.790	-0.396	0.057
-142.502	16.331	0.139	0.107
-141.487	-129.196	-0.054	-0.007
-140.472	800.000	-0.030	0.091
-139.458	-200.000	-0.013	0.113
-138.443	-83.832	0.367	-0.114
-137.429	-146.808	-0.343	-0.029
-136.414	-98.623	-0.181	0.045
-135.399	18.475	0.190	-0.148
-134.385	19.552	0.039	-0.031
-133.370	15.560	0.235	-0.181
-132.356	716.768	-0.047	0.122
-131.341	-147.136	0.182	0.015
-130.326	95.432	0.099	-0.110
-129.312	183.773	-0.122	-0.177
-128.297	326.538	-0.032	-0.059
-127.283	51.414	0.341	-0.317
-126.268	-32.672	-0.455	-0.247
-125.253	-24.070	-0.029	0.017
-124.239	97.366	-0.030	0.033
-123.224	425.132	-0.056	0.119
-122.210	223.569	0.049	0.078
-121.195	-34.766	-0.317	0.169
-120.180	164.702	0.090	0.124
-119.166	239.242	-0.288	0.469
-118.151	25.481	-0.087	0.071
-117.137	135.143	0.185	-0.235
-116.122	-200.000	-0.010	0.131
-115.107	-200.000	0.015	-0.278
-114.093	-19.939	-0.203	0.123
-113.078	-152.865	0.201	-0.014
-112.064	214.975	-0.215	0.333
-111.049	178.425	-0.189	0.270
-110.034	33.988	-0.027	0.023
-109.020	-38.218	-0.200	-0.103
-108.005	-37.690	0.339	0.176
-106.991	-200.000	-0.038	-0.200
-105.976	800.000	-0.087	-0.272
-104.962	800.000	-0.059	0.231
-103.947	-0.583	-0.088	-0.061
-102.932	-200.000	0.055	-0.314
-101.918	-9.226	0.201	-0.131
-100.903	155.210	-0.047	-0.064
-99.889	800.000	-0.105	0.411
-98.874	-200.000	-0.009	-0.108
-97.859	-66.704	0.453	-0.175
-96.845	609.057	-0.179	-0.436
-95.830	-103.896	-0.218	-0.050
-94.816	-75.814	-0.007	-0.002
-93.801	129.086	-0.104	-0.129
-92.786	-200.000	-0.027	0.221
-91.772	223.799	0.079	0.125
-90.757	800.000	0.107	0.378
-89.743	178.127	0.101	0.144
-88.728	-157.566	0.158	0.009
-87.713	484.387	-0.092	-0.204
-86.699	-99.812	-0.099	0.024
-85.684	77.469	-0.175	0.182
-84.670	15.526	-0.323	-0.248
-83.655	-49.920	0.242	0.112
-82.640	215.866	0.166	0.258
-81.626	-85.487	0.401	0.122
-80.611	18.060	0.084	-0.066
-79.597	-150.826	-0.290	0.021
-78.582	11.582	0.100	-0.075
-77.567	-141.684	0.282	-0.028
-76.553	-15.375	0.210	-0.131
-75.538	36.210	0.065	-0.056
-74.524	24.318	0.065	-0.053
-73.509	-7.486	-0.213	0.141
-72.494	-200.000	0.041	0.258
-71.480	477.459	0.122	0.269
-70.465	71.519	-0.062	-0.062
-69.451	-156.022	-0.455	0.028
-68.436	8.383	0.175	0.128
-67.422	-200.000	-0.000	-0.057
-66.407	-106.039	-0.164	-0.036
-65.392	800.000	0.067	0.206
-64.378	-170.860	0.288	-0.010
-63.363	-84.142	0.310	-0.096
-62.349	-200.000	-0.013	0.461
-61.334	62.365	-1.538	-1.497
-60.319	81.540	0.713	0.752
-59.305	368.171	-0.757	-1.491
-58.290	402.084	0.819	1.678
-57.276	404.447	0.829	1.703
-56.261	-200.000	135.874	625.151
-55.246	343.586	1635.755	3125.528
-54.232	137.074	2774.092	3535.102
-53.217	81.331	2156.664	2272.139
-52.203	29.653	1590.677	1319.663
-51.188	22.114	1342.821	1068.341
-50.173	20.151	1308.983	1029.732
-49.159	46.736	1383.281	1252.412
-48.144	42.168	1391.963	1232.218
-47.130	22.039	1340.659	1065.996
-46.115	19.222	1322.025	1034.249
-45.100	18.979	1316.513	1028.441
-44.086	18.997	1313.910	1026.478
-43.071	18.997	1311.629	1024.651
-42.057	18.916	1309.996	1022.855
-41.042	19.152	1307.602	1022.347
-40.027	18.972	1306.776	1020.592
-39.013	18.979	1304.627	1018.915
-37.998	19.006	1302.876	1017.671
-36.984	19.108	1301.035	1016.791
-35.969	19.001	1299.632	1015.025
-34.954	19.067	1298.219	1014.269
-33.940	19.062	1296.779	1013.072
-32.925	19.009	1295.346	1011.602
-31.911	19.135	1293.525	1010.878
-30.896	19.136	1292.702	1010.201
-29.881	19.089	1290.811	1008.409
-28.867	19.224	1288.786	1007.577
-27.852	19.175	1287.568	1006.299
-26.838	19.170	1286.562	1005.445
-25.823	19.160	1285.195	1004.277
-24.809	19.120	1283.701	1002.837
-23.794	19.073	1283.035	1002.002
-22.779	19.150	1280.824	1000.686
-21.765	19.204	1280.118	1000.407
-20.750	19.154	1278.995	999.200
-19.736	19.119	1277.390	997.705
-18.721	18.948	1276.398	995.900
-17.706	19.038	1275.376	995.579
-16.692	18.975	1274.229	994.284
-15.677	18.944	1272.977	993.090
-14.663	19.096	1271.261	992.585
-13.648	18.962	1270.442	991.133
-12.633	19.034	1269.826	991.028
-11.619	18.914	1269.126	989.754
-10.604	18.917	1268.148	988.967
-9.590	18.981	1267.288	988.626
-8.575	18.962	1266.386	987.773
-7.560	18.904	1265.477	986.693
-6.546	18.980	1264.470	986.307
-5.531	19.003	1263.350	985.524
-4.517	19.011	1262.700	985.026
-3.502	19.026	1261.885	984.436
-2.487	19.017	1261.280	983.874
-1.473	18.938	1256.716	979.823
-0.458	17.387	1241.276	959.007
0.556	13.261	1226.354	924.055
1.571	9.838	1234.756	911.013
2.586	9.405	1249.970	919.678
3.600	9.546	1237.574	911.277
4.615	7.200	1166.370	846.249
5.629	2.782	1097.937	774.271
6.644	0.704	1082.810	753.187
7.659	0.485	1081.392	751.045
8.673	0.509	1080.147	750.234
9.688	0.531	1078.732	749.293
10.702	0.664	1076.214	748.135
11.717	3.535	1078.443	763.846
12.731	9.464	1086.955	799.327
13.746	15.058	1093.988	832.312
14.761	17.004	1096.657	843.956
15.775	16.526	1094.562	839.897
16.790	15.465	1092.646	833.092
17.804	14.884	1091.183	829.021
18.819	14.533	1089.951	826.274
19.834	14.232	1089.612	824.452
20.848	14.015	1088.672	822.596
21.863	13.856	1087.532	820.877
22.877	13.683	1087.113	819.629
23.892	13.603	1086.196	818.472
24.907	13.641	1085.631	818.161
25.921	13.538	1085.230	817.280
26.936	13.627	1083.805	816.569
27.950	13.714	1082.817	816.182
28.965	13.766	1081.630	815.470
29.980	13.904	1080.041	814.878
30.994	13.886	1078.652	813.673
32.009	13.858	1078.157	813.086
33.023	13.829	1076.994	811.998
34.038	13.769	1076.266	811.083
35.053	13.808	1075.495	810.619
36.067	13.776	1074.141	809.372
37.082	13.897	1073.436	809.362
38.096	13.825	1072.581	808.291
39.111	13.819	1072.231	807.929
40.126	13.635	1070.882	805.944
41.140	13.730	1069.506	805.298
42.155	13.617	1068.953	804.266
43.169	13.651	1067.480	803.249
44.184	13.660	1066.144	802.214
45.199	13.629	1065.646	801.620
46.213	13.693	1064.267	800.820
47.228	13.733	1062.970	799.968
48.242	13.711	1062.020	799.077
49.257	13.743	1060.827	798.262
50.271	13.789	1059.872	797.694
51.286	13.704	1059.380	796.846
52.301	13.648	1058.712	796.004
53.315	13.685	1057.464	795.173
54.330	13.634	1055.969	793.732
55.344	13.657	1055.282	793.254
56.359	13.704	1054.298	792.672
57.374	13.516	1053.998	791.477
58.388	13.578	1052.852	790.841
59.403	13.647	1051.920	790.402
60.417	13.646	1051.142	789.744
61.432	13.523	1050.736	788.781
62.447	13.598	1049.482	788.128
63.461	13.579	1048.733	787.403
64.476	13.381	1047.802	785.693
65.490	13.612	1046.914	786.057
66.505	13.678	1046.352	785.874
67.520	13.621	1045.535	784.924
68.534	13.583	1044.843	784.154
69.549	13.574	1044.101	783.488
70.563	13.558	1043.064	782.563
71.578	13.526	1042.463	781.892
72.593	13.570	1041.611	781.389
73.607	13.479	1041.187	780.575
74.622	13.611	1040.002	780.239
75.636	13.550	1039.282	779.343
76.651	13.533	1038.898	778.905
77.666	13.543	1038.594	778.658
78.680	13.525	1037.452	777.648
79.695	13.627	1036.963	777.688
80.709	13.502	1036.397	776.611
81.724	13.627	1035.617	776.543
82.739	13.674	1034.937	776.186
83.753	13.692	1034.266	775.694
84.768	13.790	1032.440	774.717
85.782	13.811	1032.191	774.558
86.797	13.765	1031.092	773.452
87.812	13.563	1030.479	771.980
88.826	13.585	1029.362	771.181
89.841	13.751	1028.423	771.180
90.855	13.830	1027.393	770.704
91.870	13.725	1026.465	769.455
92.884	13.876	1025.464	769.333
93.899	13.769	1024.878	768.330
94.914	13.763	1024.208	767.735
95.928	13.803	1023.406	767.248
96.943	13.854	1022.193	766.506
97.957	13.872	1021.294	765.848
98.972	13.831	1020.570	765.048
99.987	13.727	1019.714	763.861
101.001	13.860	1018.900	763.795
102.016	13.812	1017.703	762.612
103.030	13.851	1017.059	762.238
104.045	13.862	1016.486	761.792
105.060	13.807	1015.669	760.861
106.074	13.698	1015.211	759.952
107.089	13.751	1013.485	758.836
108.103	13.789	1012.577	758.260
109.118	13.703	1011.649	757.105
110.133	13.649	1011.338	756.560
111.147	13.820	1010.013	756.283
112.162	13.688	1009.625	755.321
113.176	13.747	1008.150	754.421
114.191	13.735	1007.454	753.780
115.206	13.741	1006.750	753.213
116.220	13.884	1005.675	752.992
117.235	13.854	1004.535	751.932
118.249	13.833	1004.259	751.564
119.264	13.722	1003.510	750.439
120.279	13.796	1002.674	750.080
121.293	13.716	1001.970	749.125
122.308	13.657	1000.971	748.044
123.322	13.772	999.936	747.723
124.337	13.705	998.750	746.471
125.352	13.671	997.655	745.431
126.366	13.694	996.820	744.848
127.381	13.649	995.859	743.862
128.395	13.695	994.671	743.114
129.410	13.819	993.319	742.591
130.424	13.562	993.245	741.322
131.439	13.709	992.033	741.006
132.454	13.689	991.880	740.741
133.468	13.753	990.471	739.908
134.483	13.764	989.244	738.976
135.497	13.888	988.328	738.775
136.512	13.814	987.803	737.989
137.527	13.691	987.479	737.133
138.541	13.761	986.285	736.487
139.556	13.841	985.652	736.304
140.570	13.811	985.119	735.708
141.585	13.865	983.905	734.976
142.600	13.962	983.238	734.844
143.614	13.928	982.403	734.003
144.629	14.094	981.692	734.142
145.643	13.969	980.843	732.888
146.658	13.938	979.719	731.847
147.673	14.013	978.812	731.435
148.687	13.895	977.987	730.238
149.702	13.949	977.082	729.733
150.716	13.775	976.735	728.646
151.731	13.865	976.015	728.439
152.746	13.989	974.943	728.118
153.760	13.924	974.581	727.495
154.775	14.094	973.628	727.467
155.789	14.062	973.215	726.954
156.804	14.040	972.470	726.235
157.819	14.001	972.024	725.667
158.833	14.248	971.184	726.056
159.848	14.107	970.083	724.550
160.862	14.016	969.130	723.381
161.877	14.063	968.520	723.065
162.892	13.952	967.535	721.783
163.906	13.972	966.678	721.170
164.921	13.987	966.086	720.727
165.935	14.172	964.867	720.556
166.950	14.055	964.107	719.418
167.964	14.230	962.579	718.969
168.979	14.158	962.118	718.252
169.994	14.143	961.433	717.613
171.008	14.283	960.312	717.315
172.023	14.131	959.826	716.233
173.037	14.147	959.200	715.774
174.052	14.178	958.552	715.358
175.067	14.081	957.875	714.373
176.081	14.241	956.987	714.335
177.096	14.194	956.733	713.881
178.110	14.113	956.262	713.119
179.125	14.271	955.420	713.104
180.140	14.328	954.500	712.600
181.154	14.263	954.359	712.152
182.169	14.295	954.399	712.257
183.183	14.268	953.421	711.345
184.198	14.244	952.344	710.379
185.213	14.310	951.736	710.144
186.227	14.418	951.053	710.030
187.242	14.435	950.454	709.591
188.256	14.485	949.674	709.161
189.271	14.439	949.088	708.465
190.286	14.397	947.953	707.379
191.300	14.201	947.794	706.364
192.315	14.241	946.941	705.837
193.329	14.239	946.293	705.280
194.344	14.302	945.767	705.094
195.359	14.373	944.850	704.647
196.373	14.433	944.492	704.573
197.388	14.465	943.440	703.861
198.402	14.551	943.154	703.948
199.417	14.540	942.597	703.425
200.432	14.689	941.675	703.299
201.446	14.628	941.768	703.052
202.461	14.617	940.832	702.244
203.475	14.567	940.397	701.644
204.490	14.696	939.488	701.448
205.504	14.582	938.700	700.320
206.519	14.571	938.280	699.898
207.534	14.591	937.617	699.426
208.548	14.571	936.853	698.709
209.563	14.639	936.141	698.399
210.577	14.660	935.325	697.820
211.592	14.675	934.777	697.411
212.607	14.786	933.668	696.983
213.621	14.897	932.854	696.778
214.636	14.791	932.423	695.953
215.650	14.757	931.738	695.240
216.665	14.758	930.953	694.594
217.680	14.924	929.962	694.485
218.694	14.877	929.671	694.009
219.709	14.764	928.811	692.838
220.723	14.857	928.476	692.912
221.738	14.846	927.642	692.181
222.753	14.902	927.290	692.091
223.767	14.956	926.463	691.635
224.782	15.030	925.653	691.276
225.796	14.956	925.376	690.703
226.811	15.076	924.143	690.214
227.826	14.946	923.493	689.132
228.840	14.919	923.056	688.634
229.855	14.962	921.843	687.845
230.869	14.896	921.601	687.333
231.884	15.021	920.728	687.134
232.899	14.988	919.771	686.223
233.913	15.056	918.994	685.861
234.928	15.014	918.684	685.399
235.942	14.890	918.125	684.411
236.957	15.171	917.207	684.818
237.972	15.054	916.823	683.993
238.986	15.117	915.847	683.459
240.001	15.055	915.352	682.776
241.015	15.066	914.942	682.456
242.030	15.075	914.388	682.019
243.045	15.166	913.686	681.806
244.059	15.134	912.913	681.039
245.074	15.137	912.751	680.868
246.088	15.214	911.348	680.074
247.103	15.288	910.814	679.918
248.117	15.363	910.322	679.794
249.132	15.352	909.796	679.295
250.147	15.239	909.303	678.411
251.161	15.229	909.127	678.178
252.176	15.422	907.939	678.013
253.190	15.297	907.378	677.030
254.205	15.492	906.955	677.439
255.220	15.525	905.647	676.536
256.234	15.452	905.177	675.831
257.249	15.437	904.242	675.012
258.263	15.467	903.809	674.750
259.278	15.472	902.873	674.013
260.293	15.592	902.259	673.974
261.307	15.562	901.926	673.546
262.322	15.552	901.512	673.139
263.336	15.621	900.445	672.557
264.351	15.670	899.794	672.207
265.366	15.662	899.589	671.965
266.380	15.532	898.637	670.673
267.395	15.554	897.831	670.100
268.409	15.563	897.256	669.649
269.424	15.569	896.429	668.996
270.439	15.568	895.385	668.151
271.453	15.560	895.013	667.786
272.468	15.778	894.153	667.950
273.482	15.828	893.738	667.780
274.497	15.544	893.515	666.426
275.512	15.679	892.639	666.247
276.526	15.809	891.893	666.147
277.541	15.677	891.734	665.448
278.555	15.826	891.108	665.510
279.570	15.797	890.521	664.900
280.585	15.934	889.287	664.460
281.599	15.940	888.422	663.778
282.614	15.899	888.052	663.280
283.628	15.902	887.275	662.653
284.643	16.039	886.724	662.722
285.657	15.964	886.136	661.928
286.672	16.063	885.357	661.678
287.687	16.103	885.082	661.572
288.701	15.980	884.233	660.396
289.716	15.933	884.082	660.041
290.730	16.011	883.268	659.679
291.745	15.894	882.700	658.738
292.760	16.009	882.340	658.863
293.774	16.082	881.325	658.332
294.789	15.979	880.680	657.390
295.803	16.077	879.850	657.093
296.818	15.895	879.366	655.966
297.833	16.210	878.736	656.661
298.847	16.130	878.001	655.745
299.862	15.974	877.613	654.789
300.876	16.137	877.378	655.189
301.891	16.164	876.209	654.364
302.906	16.219	875.669	654.117
303.920	16.272	875.525	654.157
304.935	16.351	874.688	653.777
305.949	16.248	873.992	652.804
306.964	16.355	873.342	652.673
307.979	16.396	872.704	652.295
308.993	16.195	872.422	651.252
310.008	16.308	871.593	651.012
311.022	16.449	870.922	650.995
312.037	16.318	870.730	650.290
313.052	16.326	870.148	649.827
314.066	16.355	869.285	649.238
315.081	16.345	868.879	648.839
316.095	16.261	868.406	648.105
317.110	16.390	867.627	647.961
318.125	16.283	867.572	647.453
319.139	16.306	866.715	646.844
320.154	16.523	865.979	647.066
321.168	16.438	865.666	646.452
322.183	16.418	864.805	645.676
323.197	16.610	864.167	645.874
324.212	16.214	864.387	644.471
325.227	16.486	863.471	644.768
326.241	16.504	862.763	644.249
327.256	16.610	862.088	644.092
328.270	16.436	861.258	642.753
329.285	16.505	861.023	642.785
330.300	16.614	860.027	642.396
331.314	16.589	859.438	641.805
332.329	16.538	859.275	641.434
333.343	16.562	858.644	640.997
334.358	16.604	858.407	640.921
335.373	16.563	858.183	640.543
336.387	16.719	857.702	640.719
337.402	16.725	857.476	640.514
338.416	16.690	857.314	640.206
339.431	16.808	856.487	639.978
340.446	16.914	855.936	639.909
341.460	16.711	855.876	639.040
342.475	16.902	855.248	639.236
343.489	16.852	854.983	638.794
344.504	16.950	854.422	638.685
345.519	16.869	853.739	637.813
346.533	16.791	853.078	636.970
347.548	16.857	853.014	637.114
348.562	16.911	852.494	636.874
349.577	16.956	851.880	636.526
350.592	16.859	851.127	635.542
351.606	16.835	850.556	634.971
352.621	16.898	849.999	634.735
353.635	17.019	849.114	634.471
354.650	16.916	848.341	633.451
355.665	16.903	847.722	632.885
356.679	17.026	846.816	632.612
357.694	17.022	846.380	632.215
358.708	17.010	846.251	632.016
359.723	17.043	845.415	631.461
360.738	17.129	844.748	631.228
361.752	17.024	844.374	630.501
362.767	17.164	843.311	630.170
363.781	17.124	842.970	629.709
364.796	17.208	842.298	629.466
365.810	17.185	842.013	629.110
366.825	17.285	841.316	628.905
367.840	17.254	841.083	628.561
368.854	17.325	840.879	628.613
369.869	17.285	840.563	628.177
370.883	17.199	839.667	627.130
371.898	17.225	839.851	627.310
372.913	17.262	839.448	627.090
373.927	17.278	838.408	626.315
374.942	17.332	838.208	626.310
375.956	17.429	837.408	626.015
376.971	17.536	837.367	626.321
377.986	17.410	836.799	625.379
379.000	17.449	836.770	625.445
380.015	17.438	835.857	624.665
381.029	17.601	835.058	624.612
382.044	17.600	834.567	624.187
383.059	17.483	833.840	623.160
384.073	17.524	833.311	622.860
385.088	17.547	832.984	622.645
386.102	17.613	832.363	622.364
387.117	17.562	832.009	621.859
388.132	17.495	831.216	620.966
389.146	17.630	830.617	620.955
390.161	17.646	830.175	620.628
391.175	17.590	829.907	620.168
392.190	17.563	829.177	619.473
393.205	17.517	828.740	618.924
394.219	17.647	828.453	619.125
395.234	17.565	828.179	618.567
396.248	17.620	827.530	618.229
397.263	17.681	826.989	617.991
398.278	17.504	827.019	617.316
399.292	17.616	826.334	617.156
400.307	17.442	825.675	615.981
401.321	17.621	825.510	616.450
402.336	17.646	824.969	616.082
403.350	17.637	824.583	615.707
404.365	17.857	823.633	615.736
405.380	17.838	823.372	615.417
406.394	17.711	822.990	614.620
407.409	17.810	822.825	614.799
408.423	17.914	822.034	614.530
409.438	17.983	821.776	614.532
410.453	17.968	821.367	614.115
411.467	18.001	820.896	613.827
412.482	17.831	820.677	612.998
413.496	18.103	819.991	613.409
414.511	18.067	819.775	613.063
415.526	18.047	819.249	612.546
416.540	18.143	818.576	612.329
417.555	18.126	817.967	611.760
418.569	17.918	818.399	611.286
419.584	18.136	817.333	611.214
420.599	18.025	816.958	610.484
421.613	115.830	1301.282	1492.461
422.628	100.411	1371.804	1492.508
