DTS Sentinel unit serial number:	SN413079Multiplexer serial number:	ORYXHardware model number:	OX4-SRSoftware version number:	ORYX F/W v4.00 Oryx Data Collector v3.7.2.0data status	okinstallation	princeton_trtdifferential loss correction	single-endedforward channel	channel 1reverse channel	N/Adate	2019/09/13time	17:26:36forward acquisition time	60.00reverse acquisition time	0.00gamma	496.2192k internal	0.2296k external	0.2296temperature offset calibration	1.0136default loss term (dB/km)	0.3790temperature slope calibration	1.0000multiplexer offset coefficient	1.0000multiplexer slope coefficient	1.0000fibre end	0.00T internal ref (°C)	36.12T ext. ref 1 (°C)	4.83T ext. ref 2 (°C)	30.66length (m)	temperature (°C)	Stokes	anti-Stokes-747.200	-82.963	0.184	0.061
-746.185	90.924	0.166	0.191
-745.171	-50.749	0.296	-0.143
-744.156	88.334	0.018	0.021
-743.142	656.605	-0.067	-0.176
-742.127	-64.553	0.112	0.047
-741.112	-53.727	-0.208	0.097
-740.098	-127.190	-0.198	0.030
-739.083	-200.000	0.009	-0.084
-738.069	-200.000	-0.015	0.245
-737.054	159.417	-0.101	0.143
-736.039	174.603	0.033	0.049
-735.025	298.659	-0.130	-0.245
-734.010	101.943	-0.136	-0.162
-732.996	14.682	0.309	-0.247
-731.981	38.190	-0.009	0.008
-730.966	-50.649	0.245	-0.118
-729.952	-75.313	-0.264	0.096
-728.937	-113.010	-0.210	-0.042
-727.923	137.632	-0.231	0.308
-726.908	153.374	0.185	-0.258
-725.894	-0.182	-0.260	-0.189
-724.879	263.971	0.038	-0.068
-723.864	-77.446	-0.146	0.052
-722.850	-10.028	0.118	0.080
-721.835	-134.281	0.176	0.022
-720.821	25.036	-0.070	0.059
-719.806	-52.264	-0.068	0.032
-718.791	-200.000	-0.000	-0.065
-717.777	6.873	0.018	-0.014
-716.762	141.606	0.123	-0.166
-715.748	292.604	-0.141	0.262
-714.733	526.871	-0.007	0.017
-713.718	41.908	0.159	0.147
-712.704	800.000	0.044	0.167
-711.689	52.164	0.073	0.071
-710.675	-28.094	-0.256	-0.151
-709.660	-136.040	0.509	0.061
-708.645	-62.958	0.181	0.076
-707.631	-200.000	0.007	-0.244
-706.616	-157.870	-0.073	0.004
-705.602	530.781	0.073	-0.176
-704.587	-200.000	-0.019	0.136
-703.572	-46.984	-0.272	-0.136
-702.558	112.261	0.190	0.235
-701.543	800.000	0.053	0.187
-700.529	166.158	0.044	0.063
-699.514	6.942	-0.378	0.287
-698.499	33.533	-0.151	-0.133
-697.485	-200.000	0.026	-0.126
-696.470	86.332	-0.220	-0.247
-695.456	-36.243	-0.113	-0.062
-694.441	-200.000	-0.027	-0.363
-693.426	-106.994	0.314	0.071
-692.412	-25.484	0.370	-0.223
-691.397	740.065	0.051	0.139
-690.383	-200.000	-0.015	0.091
-689.368	175.566	-0.076	-0.113
-688.354	-106.629	0.156	0.035
-687.339	-102.624	-0.271	0.066
-686.324	-2.218	0.159	-0.114
-685.310	-21.343	-0.227	0.141
-684.295	-200.000	0.015	-0.207
-683.281	-100.729	0.244	-0.061
-682.266	402.701	0.119	0.255
-681.251	-200.000	-0.062	-0.406
-680.237	42.067	-0.178	-0.164
-679.222	95.624	0.110	-0.127
-678.208	-200.000	0.068	0.359
-677.193	-89.467	-0.341	-0.102
-676.178	-76.775	-0.291	0.104
-675.164	-191.846	-0.263	0.003
-674.149	800.000	0.070	-0.290
-673.135	425.836	-0.123	0.270
-672.120	641.485	0.020	0.051
-671.105	18.089	-0.142	-0.116
-670.091	-129.290	-0.383	-0.054
-669.076	-200.000	0.000	0.309
-668.062	88.106	-0.207	0.234
-667.047	-118.815	-0.195	0.035
-666.032	267.061	-0.140	0.250
-665.018	-75.727	0.177	0.064
-664.003	-200.000	0.053	0.345
-662.989	39.880	-0.254	0.232
-661.974	16.098	0.125	-0.101
-660.959	-60.625	0.038	0.016
-659.945	-3.689	-0.131	-0.093
-658.930	-67.199	-0.194	-0.078
-657.916	-56.691	0.151	-0.068
-656.901	-200.000	0.014	0.084
-655.886	-110.681	-0.287	0.060
-654.872	-57.578	-0.250	-0.112
-653.857	800.000	0.070	0.282
-652.843	134.540	-0.131	0.173
-651.828	246.154	-0.091	-0.157
-650.814	102.210	0.156	-0.186
-649.799	-40.940	-0.360	0.189
-648.784	-200.000	0.042	0.000
-647.770	800.000	0.133	0.444
-646.755	-200.000	0.033	0.258
-645.741	-200.000	0.020	0.284
-644.726	15.878	0.150	0.120
-643.711	800.000	0.068	0.281
-642.697	48.938	-0.114	0.109
-641.682	95.468	0.063	-0.074
-640.668	-49.108	0.269	0.131
-639.653	162.941	-0.063	-0.090
-638.638	125.976	0.083	0.107
-637.624	-106.267	-0.342	-0.078
-636.609	-163.859	0.199	0.009
-635.595	-200.000	0.018	0.265
-634.580	51.917	0.256	-0.248
-633.565	800.000	0.071	-0.292
-632.551	46.186	0.135	0.128
-631.536	135.605	-0.130	0.172
-630.522	-85.743	-0.201	-0.063
-629.507	-91.708	0.343	0.099
-628.492	45.892	0.238	0.224
-627.478	-70.870	-0.065	-0.025
-626.463	102.071	-0.154	-0.183
-625.449	204.149	0.142	0.224
-624.434	163.074	0.125	-0.178
-623.419	-124.237	-0.318	-0.051
-622.405	-200.000	0.018	-0.145
-621.390	-7.129	0.254	0.175
-620.376	250.688	-0.155	-0.268
-619.361	-80.856	0.085	0.029
-618.346	-135.844	-0.083	-0.010
-617.332	423.182	-0.108	0.235
-616.317	101.342	-0.253	-0.299
-615.303	310.498	-0.125	-0.238
-614.288	-50.456	-0.152	-0.073
-613.273	-36.364	-0.114	0.062
-612.259	362.777	-0.161	0.329
-611.244	525.262	0.090	0.216
-610.230	-200.000	-0.013	-0.241
-609.215	474.364	0.152	-0.348
-608.201	12.003	-0.258	-0.202
-607.186	800.000	0.061	-0.237
-606.171	688.877	-0.216	-0.574
-605.157	274.350	-0.134	-0.241
-604.142	140.835	-0.093	-0.125
-603.128	-17.727	0.076	-0.048
-602.113	83.688	-0.294	0.326
-601.098	-139.770	-0.134	-0.014
-600.084	270.554	0.051	0.091
-599.069	182.995	-0.121	0.181
-598.055	283.781	-0.058	-0.105
-597.040	-74.835	0.116	0.042
-596.025	517.738	0.011	-0.025
-595.011	-8.370	-0.043	-0.029
-593.996	559.743	0.133	-0.326
-592.982	-195.853	-0.181	0.001
-591.967	120.102	-0.185	0.233
-590.952	-67.054	0.328	0.131
-589.938	473.795	0.078	-0.178
-588.923	-47.085	-0.307	-0.152
-587.909	-200.000	0.006	0.105
-586.894	800.000	0.014	0.059
-585.879	-67.588	-0.226	0.090
-584.865	-124.976	0.151	0.024
-583.850	-116.999	0.369	0.068
-582.836	-200.000	0.053	-0.263
-581.821	-78.456	-0.447	-0.155
-580.806	-77.626	0.160	0.056
-579.792	85.276	0.293	-0.326
-578.777	-18.046	0.074	-0.047
-577.763	-97.055	-0.174	0.046
-576.748	-43.773	0.084	-0.043
-575.733	-60.535	0.135	-0.058
-574.719	-13.530	0.119	0.078
-573.704	66.606	0.058	0.059
-572.690	330.846	-0.201	-0.394
-571.675	107.662	-0.184	0.222
-570.661	800.000	0.053	0.175
-569.646	16.137	0.187	-0.150
-568.631	-66.593	-0.112	0.045
-567.617	-200.000	0.001	-0.089
-566.602	-200.000	0.032	0.303
-565.588	357.918	-0.056	-0.112
-564.573	-200.000	-0.036	-0.207
-563.558	-200.000	0.010	0.074
-562.544	800.000	-0.025	-0.077
-561.529	112.549	-0.071	-0.087
-560.515	-98.230	-0.271	0.071
-559.500	651.329	-0.129	0.335
-558.485	-112.530	-0.351	-0.071
-557.471	-37.323	0.283	0.153
-556.456	-200.000	-0.009	-0.131
-555.442	-200.000	0.004	-0.185
-554.427	185.808	-0.061	0.092
-553.412	-115.302	0.135	0.026
-552.398	-101.464	-0.289	-0.071
-551.383	-20.524	-0.274	-0.171
-550.369	17.857	-0.075	0.061
-549.354	214.194	0.175	0.281
-548.339	185.923	0.086	-0.130
-547.325	-23.737	0.045	-0.027
-546.310	67.400	0.112	0.116
-545.296	-72.280	0.097	-0.036
-544.281	10.381	-0.122	-0.094
-543.266	439.215	-0.077	-0.172
-542.252	371.624	0.110	0.227
-541.237	800.000	0.016	0.070
-540.223	-200.000	0.031	-0.163
-539.208	250.232	0.049	0.084
-538.193	-111.864	-0.128	0.026
-537.179	-200.000	0.024	-0.366
-536.164	-134.550	0.188	-0.023
-535.150	-52.869	0.073	0.034
-534.135	-20.762	0.162	0.101
-533.121	63.767	0.046	0.046
-532.106	-177.851	-0.172	-0.004
-531.091	90.794	-0.116	0.131
-530.077	-132.040	0.287	0.038
-529.062	-131.037	-0.053	0.007
-528.048	-134.885	0.147	-0.018
-527.033	274.028	0.102	-0.182
-526.018	174.373	-0.183	0.268
-525.004	45.339	-0.133	-0.124
-523.989	112.601	-0.076	0.093
-522.975	237.920	-0.179	0.301
-521.960	-200.000	-0.026	0.332
-520.945	-200.000	-0.046	-0.352
-519.931	537.833	0.103	-0.249
-518.916	651.988	-0.122	-0.316
-517.902	152.717	-0.187	0.259
-516.887	-200.000	0.084	0.425
-515.872	98.592	0.088	0.103
-514.858	36.976	-0.198	-0.177
-513.843	-64.939	0.252	0.103
-512.829	-103.450	-0.036	0.009
-511.814	-80.046	-0.149	0.050
-510.799	18.937	-0.200	-0.162
-509.785	29.569	0.102	0.088
-508.770	32.509	-0.088	0.077
-507.756	-67.453	-0.396	-0.158
-506.741	-49.577	0.465	-0.224
-505.726	77.211	0.225	-0.242
-504.712	90.463	0.077	-0.087
-503.697	168.102	0.105	-0.152
-502.683	276.931	0.139	-0.250
-501.668	-200.000	0.049	-0.417
-500.653	-60.877	-0.071	0.030
-499.639	48.288	0.213	0.201
-498.624	-131.887	-0.445	0.059
-497.610	-200.000	0.020	0.103
-496.595	-200.000	-0.042	0.198
-495.581	-147.776	0.089	0.008
-494.566	253.292	0.074	0.129
-493.551	-1.400	-0.163	0.117
-492.537	-110.544	0.267	-0.056
-491.522	-48.891	0.222	0.108
-490.508	24.749	0.421	-0.353
-489.493	-123.294	-0.269	0.043
-488.478	-60.848	0.033	0.014
-487.464	-200.000	-0.050	0.301
-486.449	182.902	-0.168	0.252
-485.435	86.871	-0.190	0.212
-484.420	-91.820	-0.155	0.045
-483.405	411.464	-0.182	-0.391
-482.391	459.310	0.099	-0.224
-481.376	-117.135	-0.281	-0.052
-480.362	371.369	-0.033	-0.067
-479.347	-76.121	-0.407	0.145
-478.332	76.974	-0.088	0.094
-477.318	-127.950	0.160	0.023
-476.303	-136.455	0.272	-0.032
-475.289	-160.736	0.321	0.017
-474.274	-81.505	-0.132	-0.044
-473.259	-72.802	-0.142	-0.053
-472.245	145.445	0.264	0.357
-471.230	-44.832	-0.149	0.075
-470.216	79.538	-0.195	-0.212
-469.201	219.035	-0.039	-0.064
-468.186	-131.685	-0.229	0.030
-467.172	-159.645	0.132	0.007
-466.157	-27.811	0.181	0.106
-465.143	438.056	0.115	0.253
-464.128	800.000	-0.094	0.272
-463.113	42.005	-0.161	0.147
-462.099	-200.000	-0.013	0.298
-461.084	800.000	-0.034	0.100
-460.070	-200.000	-0.023	0.123
-459.055	-200.000	-0.027	0.199
-458.040	46.344	0.064	0.060
-457.026	-13.305	0.195	-0.128
-456.011	487.864	-0.091	-0.211
-454.997	102.298	0.225	-0.265
-453.982	-200.000	-0.023	-0.368
-452.968	800.000	0.082	0.261
-451.953	800.000	0.072	0.272
-450.938	225.697	-0.195	0.319
-449.924	756.967	0.041	-0.113
-448.909	15.472	0.198	0.157
-447.895	-200.000	0.039	0.196
-446.880	-130.302	0.125	0.017
-445.865	0.039	0.119	0.086
-444.851	-96.255	-0.345	0.092
-443.836	-157.838	0.299	0.018
-442.822	-169.556	0.153	0.006
-441.807	55.883	0.128	-0.125
-440.792	800.000	0.055	-0.165
-439.778	-25.988	-0.093	-0.055
-438.763	31.781	0.241	-0.210
-437.749	-43.645	-0.315	-0.160
-436.734	217.213	0.191	-0.308
-435.719	78.540	0.295	-0.319
-434.705	-153.093	-0.236	0.017
-433.690	46.775	-0.040	-0.037
-432.676	-8.779	-0.174	-0.118
-431.661	346.745	-0.057	0.113
-430.646	-118.802	0.304	-0.054
-429.632	168.579	0.109	-0.157
-428.617	232.021	-0.168	0.278
-427.603	-124.513	0.090	0.014
-426.588	628.253	-0.130	-0.331
-425.573	-200.000	0.010	0.109
-424.559	-200.000	-0.076	-0.400
-423.544	-68.134	-0.100	0.039
-422.530	-200.000	0.034	0.205
-421.515	-57.303	-0.065	0.029
-420.500	800.000	0.098	-0.428
-419.486	64.661	-0.057	0.058
-418.471	182.961	-0.167	0.249
-417.457	-24.589	-0.232	0.140
-416.442	-146.974	0.163	0.014
-415.428	120.703	0.227	0.285
-414.413	-20.016	-0.250	0.156
-413.398	165.023	0.124	0.177
-412.384	-55.328	0.235	0.106
-411.369	-7.900	0.438	-0.298
-410.355	-161.361	0.284	0.015
-409.340	272.985	0.234	-0.417
-408.325	-200.000	-0.027	0.140
-407.311	-55.354	-0.244	-0.110
-406.296	456.928	0.035	0.078
-405.282	182.764	-0.130	-0.193
-404.267	-155.092	-0.200	0.013
-403.252	-188.122	-0.376	0.005
-402.238	-200.000	0.031	0.180
-401.223	800.000	-0.024	-0.081
-400.209	289.476	0.077	0.141
-399.194	608.372	0.139	0.349
-398.179	29.105	-0.109	0.094
-397.165	-200.000	0.018	-0.171
-396.150	-50.941	-0.117	0.055
-395.136	58.052	0.300	-0.296
-394.121	-20.563	0.051	0.031
-393.106	-46.538	0.329	0.163
-392.092	-12.187	0.143	-0.094
-391.077	116.938	-0.135	0.167
-390.063	-12.467	-0.258	0.170
-389.048	-94.695	-0.432	0.118
-388.033	6.675	0.194	-0.145
-387.019	-200.000	-0.001	0.406
-386.004	755.182	-0.036	0.098
-384.990	-200.000	0.033	0.154
-383.975	-200.000	-0.038	0.268
-382.960	-200.000	-0.040	-0.373
-381.946	800.000	-0.058	-0.165
-380.931	-105.786	-0.227	-0.052
-379.917	800.000	0.069	-0.257
-378.902	-200.000	-0.009	0.262
-377.888	219.294	-0.126	0.203
-376.873	179.088	-0.021	0.030
-375.858	45.896	0.101	0.095
-374.844	109.445	-0.166	0.200
-373.829	89.727	0.211	-0.237
-372.815	-105.541	0.107	-0.024
-371.800	-159.342	-0.460	0.026
-370.785	-70.047	-0.363	-0.139
-369.771	-137.032	0.124	-0.014
-368.756	-200.000	0.059	-0.315
-367.742	-200.000	-0.041	-0.347
-366.727	-14.538	0.174	-0.113
-365.712	-64.223	-0.217	0.089
-364.698	359.965	-0.096	-0.194
-363.683	-63.343	-0.213	0.088
-362.669	-200.000	-0.002	0.314
-361.654	-200.000	0.035	0.182
-360.639	-99.999	-0.284	0.071
-359.625	0.825	0.125	-0.090
-358.610	156.937	-0.159	-0.221
-357.596	-122.853	-0.080	-0.013
-356.581	193.113	-0.178	0.271
-355.566	-74.888	-0.079	-0.028
-354.552	800.000	0.055	0.219
-353.537	-179.448	0.296	-0.007
-352.523	-155.161	0.067	0.004
-351.508	-6.078	-0.285	-0.196
-350.493	-22.229	-0.237	0.144
-349.479	16.560	0.181	-0.144
-348.464	-179.488	-0.334	0.007
-347.450	-10.263	0.227	-0.152
-346.435	800.000	0.040	-0.144
-345.420	-28.039	0.160	0.093
-344.406	-64.157	0.185	0.076
-343.391	-68.338	-0.155	0.061
-342.377	71.105	0.096	0.100
-341.362	800.000	0.128	-0.358
-340.348	-82.988	0.044	0.014
-339.333	-104.800	0.152	-0.035
-338.318	433.724	-0.010	-0.022
-337.304	-66.947	0.269	-0.107
-336.289	455.748	-0.046	0.102
-335.275	-33.019	-0.259	-0.145
-334.260	800.000	0.015	0.064
-333.245	-200.000	-0.031	-0.194
-332.231	315.136	-0.092	-0.174
-331.216	16.780	0.323	-0.257
-330.202	304.472	0.094	-0.175
-329.187	183.943	0.062	-0.092
-328.172	800.000	-0.077	0.305
-327.158	104.857	0.134	-0.159
-326.143	800.000	-0.027	0.114
-325.129	466.331	-0.136	0.307
-324.114	800.000	0.089	-0.391
-323.099	294.972	0.082	-0.151
-322.085	423.073	-0.051	0.110
-321.070	-98.659	0.370	-0.095
-320.056	-24.338	-0.259	0.155
-319.041	-150.923	-0.256	0.019
-318.026	-200.000	0.051	-0.376
-317.012	-34.610	0.279	-0.153
-315.997	-200.000	-0.008	0.262
-314.983	-130.551	0.305	0.041
-313.968	800.000	0.021	-0.068
-312.953	22.289	-0.075	-0.061
-311.939	-161.822	0.077	-0.004
-310.924	800.000	0.034	0.133
-309.910	-60.266	0.091	-0.039
-308.895	2.889	-0.158	-0.115
-307.880	-200.000	0.005	-0.027
-306.866	68.966	-0.257	0.265
-305.851	-200.000	-0.056	0.316
-304.837	167.628	0.130	-0.185
-303.822	800.000	0.010	-0.030
-302.807	26.767	0.273	0.230
-301.793	229.622	-0.098	0.161
-300.778	-39.539	0.285	-0.150
-299.764	93.132	0.117	-0.132
-298.749	22.311	-0.127	-0.104
-297.735	775.865	-0.091	0.251
-296.720	-105.326	-0.044	-0.010
-295.705	-73.023	0.116	0.043
-294.691	-7.706	0.338	0.229
-293.676	-117.684	0.336	-0.061
-292.662	3.785	0.022	0.016
-291.647	-8.120	-0.219	0.148
-290.632	-145.660	0.241	0.022
-289.618	93.812	0.109	-0.124
-288.603	-200.000	-0.013	0.081
-287.589	800.000	-0.038	-0.147
-286.574	-200.000	-0.012	-0.142
-285.559	543.227	-0.082	-0.196
-284.545	800.000	0.035	-0.137
-283.530	-58.044	0.024	0.010
-282.516	530.512	-0.112	-0.266
-281.501	-155.962	0.034	0.002
-280.486	800.000	0.090	0.303
-279.472	-170.366	0.179	-0.006
-278.457	-165.005	-0.049	0.002
-277.443	-127.594	-0.223	0.032
-276.428	-75.845	-0.217	0.077
-275.413	-162.045	0.213	-0.011
-274.399	142.167	-0.071	0.095
-273.384	71.341	0.100	0.104
-272.370	-103.436	-0.199	0.047
-271.355	-119.838	0.278	-0.048
-270.340	-67.925	-0.197	-0.077
-269.326	-200.000	-0.004	0.124
-268.311	800.000	0.116	-0.366
-267.297	-131.682	-0.303	0.040
-266.282	800.000	-0.046	0.135
-265.267	-116.096	0.471	0.088
-264.253	169.087	0.297	0.425
-263.238	-186.751	-0.060	0.001
-262.224	-7.169	-0.192	-0.131
-261.209	-77.495	0.225	0.078
-260.195	-26.926	-0.116	0.068
-259.180	113.092	-0.204	-0.248
-258.165	-133.553	0.136	0.017
-257.151	25.656	-0.095	0.080
-256.136	41.600	0.123	-0.112
-255.122	-200.000	-0.090	0.472
-254.107	207.488	0.082	0.129
-253.092	170.942	-0.085	0.122
-252.078	57.677	-0.197	-0.193
-251.063	-25.536	0.216	0.128
-250.049	-128.137	0.255	-0.037
-249.034	-200.000	-0.004	0.033
-248.019	-197.305	-0.167	-0.001
-247.005	56.165	-0.241	-0.235
-245.990	43.608	0.072	-0.066
-244.976	322.297	0.144	-0.274
-243.961	588.178	0.098	-0.241
-242.946	-200.000	-0.299	0.001
-241.932	-70.649	-0.409	0.155
-240.917	-8.231	-0.108	-0.073
-239.903	124.369	0.112	0.141
-238.888	39.767	-0.057	-0.051
-237.873	-46.922	-0.216	-0.106
-236.859	-4.035	0.069	0.048
-235.844	573.607	0.099	-0.242
-234.830	390.764	-0.181	0.376
-233.815	-36.487	-0.296	0.159
-232.800	188.538	0.023	-0.035
-231.786	800.000	-0.046	0.147
-230.771	800.000	-0.040	0.169
-229.757	58.350	-0.128	-0.126
-228.742	88.824	0.261	0.291
-227.727	61.357	-0.208	-0.207
-226.713	-145.434	0.561	-0.051
-225.698	-72.547	-0.109	0.040
-224.684	32.758	0.092	0.079
-223.669	-36.833	0.167	0.090
-222.655	86.819	0.154	-0.170
-221.640	-13.257	-0.130	-0.084
-220.625	380.495	0.090	-0.184
-219.611	42.391	0.054	-0.049
-218.596	371.042	-0.014	0.028
-217.582	-117.073	0.257	0.047
-216.567	-131.855	-0.358	0.047
-215.552	9.405	0.100	0.075
-214.538	416.689	0.053	0.113
-213.523	29.470	0.160	0.136
-212.509	-175.520	-0.124	0.003
-211.494	-71.210	-0.235	-0.088
-210.479	800.000	0.112	0.385
-209.465	-200.000	-0.021	0.103
-208.450	800.000	0.037	0.107
-207.436	192.822	0.066	0.099
-206.421	56.670	0.065	0.063
-205.406	-200.000	0.007	-0.156
-204.392	-20.813	0.093	-0.057
-203.377	-200.000	0.027	-0.206
-202.363	306.357	0.159	0.295
-201.348	-18.667	0.263	-0.164
-200.333	61.360	0.249	0.248
-199.319	-200.000	-0.005	0.061
-198.304	-71.864	-0.111	-0.041
-197.290	-142.051	-0.191	-0.019
-196.275	301.398	0.132	-0.245
-195.260	-96.280	-0.096	0.026
-194.246	-59.183	-0.083	-0.036
-193.231	-200.000	-0.005	0.270
-192.217	93.780	-0.170	0.193
-191.202	800.000	0.005	0.014
-190.187	-162.538	-0.354	0.017
-189.173	-35.331	-0.403	-0.219
-188.158	-200.000	0.005	-0.190
-187.144	-200.000	0.030	-0.326
-186.129	57.246	0.072	-0.070
-185.114	23.238	0.167	0.137
-184.100	800.000	0.048	-0.157
-183.085	800.000	-0.056	-0.234
-182.071	-200.000	0.045	-0.291
-181.056	626.525	0.068	0.172
-180.042	4.271	-0.176	-0.129
-179.027	-200.000	-0.001	-0.127
-178.012	-184.432	-0.085	-0.001
-176.998	25.000	0.135	0.112
-175.983	771.255	0.024	-0.066
-174.969	-200.000	0.040	0.181
-173.954	-200.000	0.009	-0.266
-172.939	575.466	-0.060	0.147
-171.925	-133.416	0.139	-0.017
-170.910	725.886	0.053	-0.142
-169.896	800.000	-0.072	0.228
-168.881	55.338	0.077	-0.074
-167.866	-76.642	-0.304	0.107
-166.852	800.000	0.069	0.291
-165.837	23.480	0.251	-0.206
-164.823	120.749	0.110	-0.136
-163.808	707.812	0.059	0.156
-162.793	-177.908	-0.119	-0.003
-161.779	65.777	-0.041	-0.042
-160.764	-40.747	0.229	-0.119
-159.750	-200.000	0.037	-0.520
-158.735	-3.863	-0.212	-0.147
-157.720	147.116	0.185	0.249
-156.706	-200.000	-0.017	0.139
-155.691	165.300	0.188	0.266
-154.677	23.163	-0.121	-0.099
-153.662	-200.000	0.006	0.174
-152.647	-200.000	0.013	-0.308
-151.633	-200.000	-0.007	0.038
-150.618	-200.000	-0.062	-0.277
-149.604	-200.000	0.030	0.298
-148.589	-200.000	-0.034	0.351
-147.574	170.521	0.158	-0.226
-146.560	-106.623	0.310	0.069
-145.545	57.551	-0.177	0.173
-144.531	-48.102	-0.235	-0.113
-143.516	-99.015	0.124	-0.031
-142.502	-42.651	0.063	-0.032
-141.487	397.197	0.046	0.095
-140.472	-108.530	-0.241	0.052
-139.458	102.704	-0.221	-0.259
-138.443	470.347	0.150	-0.336
-137.429	-8.682	-0.068	0.046
-136.414	577.295	0.044	0.107
-135.399	800.000	-0.009	0.027
-134.385	-46.738	0.372	0.182
-133.370	-44.779	-0.237	-0.118
-132.356	-133.034	0.073	0.009
-131.341	-72.230	0.359	-0.133
-130.326	23.151	-0.179	0.146
-129.312	59.347	0.271	0.266
-128.297	-141.439	0.306	-0.031
-127.283	-60.344	0.197	-0.084
-126.268	-42.135	0.192	0.098
-125.253	-52.162	0.077	0.036
-124.239	23.160	-0.297	-0.243
-123.224	-132.828	0.178	-0.023
-122.210	71.221	-0.063	-0.065
-121.195	-187.555	0.216	-0.003
-120.180	-200.000	0.000	-0.136
-119.166	-200.000	0.027	0.293
-118.151	-80.104	0.333	0.111
-117.137	49.504	-0.144	-0.135
-116.122	-25.308	0.222	-0.131
-115.107	486.533	0.046	0.104
-114.093	182.462	-0.055	-0.081
-113.078	-200.000	0.007	0.371
-112.064	-100.910	0.162	-0.040
-111.049	-200.000	0.020	-0.100
-110.034	800.000	-0.045	-0.127
-109.020	20.744	-0.325	0.262
-108.005	-24.895	0.076	0.045
-106.991	-200.000	-0.041	-0.292
-105.976	-200.000	-0.014	-0.160
-104.962	224.889	-0.228	0.367
-103.947	-92.530	0.186	0.052
-102.932	-100.541	0.192	-0.047
-101.918	-53.731	0.101	-0.046
-100.903	-3.459	-0.397	0.275
-99.889	-74.454	-0.114	0.041
-98.874	-200.000	0.011	0.118
-97.859	111.434	-0.110	0.132
-96.845	-200.000	-0.058	-0.361
-95.830	111.800	-0.134	-0.161
-94.816	386.801	-0.102	0.210
-93.801	800.000	-0.039	0.111
-92.786	33.350	-0.085	0.073
-91.772	-145.799	0.246	-0.022
-90.757	-80.954	0.155	0.051
-89.743	305.332	-0.029	0.054
-88.728	640.358	-0.073	0.186
-87.713	-200.000	0.004	0.261
-86.699	498.517	0.105	-0.241
-85.684	-200.000	-0.033	-0.173
-84.670	-200.000	0.046	-0.290
-83.655	-66.288	-0.110	0.044
-82.640	107.859	0.121	-0.143
-81.626	141.837	0.110	0.145
-80.611	-58.763	-0.160	0.069
-79.597	800.000	-0.044	0.170
-78.582	800.000	-0.026	0.087
-77.567	5.679	0.218	0.161
-76.553	800.000	0.059	0.188
-75.538	-200.000	-0.030	0.334
-74.524	-147.149	-0.316	0.027
-73.509	-112.845	0.104	0.020
-72.494	800.000	-0.065	0.268
-71.480	-47.357	-0.061	0.029
-70.465	-185.443	0.299	0.005
-69.451	-93.118	-0.188	0.052
-68.436	-86.206	0.276	-0.085
-67.422	-67.394	0.047	-0.018
-66.407	-24.832	-0.482	0.285
-65.392	-106.803	0.325	0.072
-64.378	111.626	0.038	0.046
-63.363	-172.693	0.185	0.006
-62.349	-72.813	0.167	0.061
-61.334	123.161	-0.763	-0.950
-60.319	122.308	0.433	0.538
-59.305	-200.000	0.006	-0.280
-58.290	354.319	0.353	0.698
-57.276	572.341	0.454	1.101
-56.261	-200.000	90.081	524.348
-55.246	562.413	1389.744	3344.649
-54.232	184.607	2599.593	3832.076
-53.217	120.968	2205.379	2728.830
-52.203	47.393	1652.253	1531.240
-51.188	39.430	1383.994	1232.981
-50.173	36.185	1340.415	1174.391
-49.159	56.408	1386.333	1340.211
-48.144	60.777	1405.144	1385.370
-47.130	40.052	1361.161	1216.276
-46.115	36.195	1343.656	1177.104
-45.100	36.063	1338.588	1171.814
-44.086	35.980	1336.333	1169.291
-43.071	35.982	1334.109	1167.310
-42.057	35.861	1332.148	1164.814
-41.042	35.888	1330.231	1163.258
-40.027	35.961	1328.552	1162.180
-39.013	35.990	1326.550	1160.562
-37.998	36.021	1324.714	1159.095
-36.984	36.148	1322.406	1157.789
-35.969	36.210	1320.882	1156.781
-34.954	36.159	1319.429	1155.158
-33.940	36.266	1317.639	1154.189
-32.925	36.260	1316.446	1153.058
-31.911	36.317	1314.805	1151.915
-30.896	36.288	1313.540	1150.591
-29.881	36.389	1312.013	1149.810
-28.867	36.283	1310.590	1147.886
-27.852	36.242	1309.070	1146.263
-26.838	36.309	1307.316	1145.082
-25.823	36.249	1305.504	1143.092
-24.809	36.184	1304.485	1141.769
-23.794	36.207	1303.299	1140.820
-22.779	36.246	1301.905	1139.787
-21.765	36.101	1300.670	1137.806
-20.750	36.195	1298.786	1136.669
-19.736	36.065	1298.040	1135.205
-18.721	36.031	1296.939	1133.995
-17.706	35.992	1295.554	1132.509
-16.692	36.011	1294.178	1131.369
-15.677	36.064	1293.095	1130.692
-14.663	36.029	1292.285	1129.731
-13.648	36.072	1290.398	1128.288
-12.633	36.051	1289.971	1127.747
-11.619	35.976	1288.802	1126.243
-10.604	36.019	1288.214	1125.938
-9.590	36.100	1286.918	1125.231
-8.575	35.974	1286.063	1123.704
-7.560	36.002	1285.436	1123.274
-6.546	36.036	1284.618	1122.716
-5.531	36.002	1283.303	1121.326
-4.517	36.041	1282.262	1120.593
-3.502	35.887	1282.344	1119.726
-2.487	35.962	1280.718	1118.697
-1.473	36.030	1277.056	1115.847
-0.458	34.642	1261.340	1094.125
0.556	31.725	1240.371	1046.804
1.571	26.610	1243.373	1020.503
2.586	24.720	1256.645	1020.530
3.600	22.680	1244.578	999.098
4.615	17.063	1171.447	910.270
5.629	8.931	1095.619	810.329
6.644	5.161	1074.443	775.884
7.659	4.855	1071.419	772.115
8.673	4.585	1069.925	769.637
9.688	4.711	1068.666	769.284
10.702	5.250	1067.583	771.098
11.717	9.966	1074.320	799.280
12.731	17.501	1085.198	844.826
13.746	21.302	1088.765	866.416
14.761	21.095	1088.888	865.408
15.775	20.190	1086.902	859.273
16.790	19.353	1084.507	853.164
17.804	18.563	1083.224	848.172
18.819	18.150	1082.181	845.240
19.834	18.152	1080.942	844.210
20.848	17.906	1080.784	842.797
21.863	17.843	1079.629	841.511
22.877	17.618	1079.031	839.859
23.892	17.672	1078.010	839.258
24.907	17.688	1077.253	838.670
25.921	17.565	1076.469	837.384
26.936	17.545	1074.966	836.040
27.950	17.575	1073.540	835.007
28.965	17.677	1071.921	834.173
29.980	17.832	1070.350	833.634
30.994	17.885	1070.007	833.550
32.009	17.936	1068.889	832.853
33.023	17.744	1067.810	831.005
34.038	17.670	1066.631	829.651
35.053	17.722	1065.505	828.957
36.067	17.597	1064.503	827.496
37.082	17.698	1063.913	827.457
38.096	17.845	1063.355	827.661
39.111	17.774	1062.740	826.766
40.126	17.655	1061.238	824.946
41.140	17.410	1059.618	822.432
42.155	17.376	1058.005	820.942
43.169	17.331	1057.100	819.950
44.184	17.223	1056.265	818.712
45.199	17.356	1055.130	818.399
46.213	17.396	1054.354	817.917
47.228	17.634	1053.691	818.474
48.242	17.734	1052.103	817.647
49.257	17.557	1051.440	816.210
50.271	17.747	1050.642	816.429
51.286	17.722	1049.585	815.416
52.301	17.799	1048.387	814.782
53.315	17.620	1047.291	813.002
54.330	17.519	1046.603	811.915
55.344	17.481	1045.584	810.870
56.359	17.528	1045.184	810.716
57.374	17.453	1043.790	809.202
58.388	17.337	1042.827	807.834
59.403	17.213	1042.240	806.719
60.417	17.181	1041.574	805.980
61.432	17.286	1040.289	805.410
62.447	17.125	1039.343	803.846
63.461	17.131	1038.815	803.398
64.476	17.066	1038.051	802.428
65.490	16.994	1037.318	801.447
66.505	17.203	1036.175	801.479
67.520	17.254	1035.309	800.979
68.534	17.085	1035.059	799.918
69.549	17.164	1034.451	799.750
70.563	17.043	1033.735	798.558
71.578	17.064	1032.210	797.406
72.593	16.919	1031.484	796.095
73.607	16.991	1030.810	795.844
74.622	16.911	1030.487	795.146
75.636	17.058	1029.684	795.145
76.651	17.025	1029.148	794.506
77.666	16.971	1028.472	793.664
78.680	16.953	1027.964	793.116
79.695	17.036	1027.267	792.896
80.709	17.228	1026.525	793.147
81.724	17.329	1026.192	793.293
82.739	17.377	1025.349	792.794
83.753	17.584	1024.992	793.415
84.768	17.798	1024.169	793.702
85.782	17.979	1023.225	793.739
86.797	17.744	1022.584	792.081
87.812	17.799	1021.014	791.051
88.826	17.701	1020.228	789.920
89.841	17.782	1019.659	789.782
90.855	17.942	1018.264	789.370
91.870	17.907	1017.924	788.879
92.884	17.906	1016.465	787.674
93.899	17.874	1016.041	787.126
94.914	18.019	1014.942	786.874
95.928	18.048	1014.217	786.376
96.943	17.739	1013.411	784.258
97.957	17.686	1012.574	783.300
98.972	17.780	1011.710	782.992
99.987	17.849	1010.737	782.488
101.001	17.793	1009.772	781.415
102.016	17.775	1008.966	780.637
103.030	17.853	1008.080	780.239
104.045	17.782	1007.185	779.153
105.060	17.649	1006.425	777.889
106.074	17.512	1005.330	776.351
107.089	17.326	1003.568	774.077
108.103	17.243	1003.056	773.233
109.118	17.346	1002.381	773.113
110.133	17.272	1001.170	771.777
111.147	17.179	1000.334	770.638
112.162	17.198	999.915	770.335
113.176	17.302	999.388	770.334
114.191	17.472	998.593	770.423
115.206	17.248	997.655	768.616
116.220	17.239	996.402	767.544
117.235	17.243	995.662	766.922
118.249	17.241	994.838	766.212
119.264	17.183	993.710	765.015
120.279	17.310	992.506	764.589
121.293	17.204	991.984	763.643
122.308	17.103	991.392	762.665
123.322	17.029	989.941	761.151
124.337	17.080	988.727	760.378
125.352	17.108	988.065	759.927
126.366	17.060	987.011	758.837
127.381	17.123	985.844	758.151
128.395	17.121	985.287	757.650
129.410	17.182	984.574	757.307
130.424	17.281	983.452	756.816
131.439	17.372	983.068	756.857
132.454	17.457	982.071	756.399
133.468	17.591	980.924	756.045
134.483	17.389	980.572	754.810
135.497	17.580	979.092	754.451
136.512	17.508	978.789	753.833
137.527	17.494	978.146	753.209
138.541	17.498	977.274	752.488
139.556	17.554	976.395	751.994
140.570	17.650	975.996	752.043
141.585	17.830	975.129	752.102
142.600	17.857	974.038	751.310
143.614	17.986	973.126	751.110
144.629	17.982	972.850	750.814
145.643	17.967	971.506	749.643
146.658	17.657	970.494	747.434
147.673	17.557	969.590	746.235
148.687	17.592	968.295	745.327
149.702	17.410	967.536	743.879
150.716	17.470	967.028	743.687
151.731	17.519	965.807	742.896
152.746	17.520	965.214	742.379
153.760	17.545	965.115	742.346
154.775	17.746	964.128	742.394
155.789	17.686	963.383	741.495
156.804	17.743	962.509	741.004
157.819	17.770	962.025	740.682
158.833	17.927	961.518	740.909
159.848	17.886	960.903	740.193
160.862	17.887	959.724	739.223
161.877	17.685	958.377	737.244
162.892	17.622	957.303	736.082
163.906	17.560	956.187	734.890
164.921	17.489	955.794	734.218
165.935	17.636	954.719	733.961
166.950	17.481	954.178	732.813
167.964	17.778	952.814	732.978
168.979	17.596	951.785	731.338
169.994	17.528	951.238	730.564
171.008	17.540	950.889	730.280
172.023	17.811	950.162	730.817
173.037	17.954	949.263	730.675
174.052	17.898	948.092	729.470
175.067	17.624	947.428	727.726
176.081	17.560	946.996	727.054
177.096	17.445	946.260	725.936
178.110	17.492	945.941	725.825
179.125	17.598	945.278	725.703
180.140	17.688	944.583	725.488
181.154	17.815	944.252	725.711
182.169	17.947	943.983	726.003
183.183	17.951	943.246	725.389
184.198	17.916	942.523	724.620
185.213	18.011	941.721	724.341
186.227	18.016	941.144	723.853
187.242	18.048	940.495	723.426
188.256	18.176	940.270	723.731
189.271	18.169	939.158	722.780
190.286	17.875	938.102	720.662
191.300	17.520	937.186	718.399
192.315	17.332	936.523	717.035
193.329	17.331	936.397	716.870
194.344	17.659	935.570	717.555
195.359	17.710	935.108	717.353
196.373	18.022	934.056	717.793
197.388	18.021	934.097	717.754
198.402	18.183	933.720	718.083
199.417	18.290	933.100	717.993
200.432	18.397	932.450	717.877
201.446	18.501	931.982	717.889
202.461	18.495	931.925	717.755
203.475	18.407	931.053	716.654
204.490	18.267	929.695	714.957
205.504	18.144	929.121	713.941
206.519	18.246	928.541	713.856
207.534	18.043	927.696	712.300
208.548	18.133	927.104	712.156
209.563	18.122	926.398	711.506
210.577	18.203	925.526	711.110
211.592	18.384	924.877	711.299
212.607	18.521	924.323	711.380
213.621	18.272	923.670	709.782
214.636	18.377	922.730	709.429
215.650	18.322	921.933	708.526
216.665	18.480	921.451	708.748
217.680	18.638	920.705	708.761
218.694	18.605	920.237	708.206
219.709	18.432	919.733	707.041
220.723	18.505	918.944	706.671
221.738	18.439	918.503	705.999
222.753	18.487	917.894	705.665
223.767	18.695	917.138	705.877
224.782	18.592	917.066	705.334
225.796	18.540	916.810	704.862
226.811	18.673	915.425	704.279
227.826	18.503	914.514	702.821
228.840	18.375	913.988	701.831
229.855	18.369	913.005	700.988
230.869	18.486	912.076	700.690
231.884	18.380	911.521	699.769
232.899	18.434	910.051	698.798
233.913	18.313	909.681	697.963
234.928	18.074	909.737	696.968
235.942	18.266	908.579	696.801
236.957	18.247	908.286	696.435
237.972	18.125	907.766	695.481
238.986	18.233	906.984	695.259
240.001	18.238	906.381	694.755
241.015	18.325	905.829	694.625
242.030	18.394	905.266	694.412
243.045	18.400	904.821	694.029
244.059	18.410	904.309	693.617
245.074	18.689	903.677	694.200
246.088	18.610	903.068	693.353
247.103	18.723	902.120	693.020
248.117	18.737	902.018	692.937
249.132	19.067	901.327	693.674
250.147	19.164	901.097	693.826
251.161	19.158	900.586	693.345
252.176	19.238	899.444	692.729
253.190	19.360	899.355	693.090
254.205	19.247	898.635	692.018
255.220	19.361	897.971	691.903
256.234	19.228	897.755	691.145
257.249	19.371	896.546	690.725
258.263	19.122	895.993	689.241
259.278	19.252	894.926	688.877
260.293	19.469	894.313	689.213
261.307	19.494	893.845	688.889
262.322	19.558	893.527	688.840
263.336	19.399	893.226	687.910
264.351	19.490	892.243	687.456
265.366	19.497	891.647	686.965
266.380	19.433	890.901	686.074
267.395	19.493	889.999	685.558
268.409	19.381	888.858	684.176
269.424	19.261	888.567	683.413
270.439	19.372	887.304	682.821
271.453	19.193	887.248	682.007
272.468	19.251	886.379	681.511
273.482	19.175	886.091	680.926
274.497	19.148	885.201	680.078
275.512	19.236	884.792	680.051
276.526	19.224	884.201	679.489
277.541	19.392	883.584	679.614
278.555	19.408	883.440	679.507
279.570	19.682	882.898	680.109
280.585	19.539	881.782	678.628
281.599	19.446	880.856	677.490
282.614	19.301	880.431	676.534
283.628	19.386	879.870	676.375
284.643	19.306	879.310	675.572
285.657	19.424	878.650	675.468
286.672	19.270	878.145	674.415
287.687	19.380	877.450	674.254
288.701	19.449	876.690	673.879
289.716	19.378	876.321	673.260
290.730	19.389	875.726	672.784
291.745	19.342	875.478	672.351
292.760	19.563	874.597	672.475
293.774	19.723	874.218	672.748
294.789	19.751	872.824	671.727
295.803	19.479	872.384	670.270
296.818	19.363	871.734	669.263
297.833	19.578	870.690	669.233
298.847	19.623	870.344	669.084
299.862	19.650	869.780	668.696
300.876	19.621	869.587	668.376
301.891	19.638	869.250	668.122
302.906	19.913	868.277	668.380
303.920	19.949	868.363	668.524
304.935	19.893	868.073	668.026
305.949	19.972	867.036	667.472
306.964	19.854	866.228	666.338
307.979	19.733	865.851	665.523
308.993	20.014	864.854	665.778
310.008	19.984	864.348	665.213
311.022	19.877	863.921	664.414
312.037	19.775	863.174	663.392
313.052	19.549	862.685	662.091
314.066	19.542	861.848	661.364
315.081	19.468	861.333	660.627
316.095	19.464	860.852	660.185
317.110	19.480	860.146	659.644
318.125	19.652	859.603	659.825
319.139	19.566	859.324	659.223
320.154	19.677	858.853	659.227
321.168	19.589	858.563	658.611
322.183	19.665	857.945	658.370
323.197	19.716	857.224	657.951
324.212	19.636	856.793	657.261
325.227	19.756	855.976	657.032
326.241	19.737	855.337	656.409
327.256	19.650	855.058	655.806
328.270	19.564	853.995	654.606
329.285	19.654	853.912	654.827
330.300	19.637	853.254	654.201
331.314	19.751	852.433	653.943
332.329	19.789	852.449	654.043
333.343	19.885	851.824	653.866
334.358	19.986	851.351	653.828
335.373	20.043	850.751	653.523
336.387	20.005	850.730	653.307
337.402	20.028	850.576	653.216
338.416	20.196	850.188	653.494
339.431	20.310	849.997	653.718
340.446	20.399	849.103	653.309
341.460	20.471	848.986	653.433
342.475	20.664	848.555	653.768
343.489	20.542	848.127	652.924
344.504	20.612	847.305	652.493
345.519	20.623	847.413	652.562
346.533	20.487	846.787	651.511
347.548	20.205	846.133	649.894
348.562	20.137	845.657	649.215
349.577	20.295	844.263	648.679
350.592	20.016	844.186	647.520
351.606	20.027	843.179	646.730
352.621	20.176	842.481	646.694
353.635	20.151	841.805	646.024
354.650	20.157	841.256	645.568
355.665	20.226	840.920	645.510
356.679	20.198	840.528	645.050
357.694	20.418	839.382	644.928
358.708	20.404	838.779	644.356
359.723	20.387	838.453	643.986
360.738	20.429	837.734	643.533
361.752	20.477	837.070	643.145
362.767	20.506	837.109	643.225
363.781	20.519	836.482	642.734
364.796	20.709	835.994	643.002
365.810	21.000	835.592	643.710
366.825	20.721	835.532	642.578
367.840	20.693	834.784	641.845
368.854	20.783	834.092	641.585
369.869	20.749	833.842	641.213
370.883	20.640	833.441	640.446
371.898	20.761	833.324	640.744
372.913	20.954	832.680	640.904
373.927	20.871	831.831	639.887
374.942	20.800	831.315	639.172
375.956	20.909	831.204	639.429
376.971	21.056	830.689	639.518
377.986	21.054	830.133	639.026
379.000	21.087	829.821	638.851
380.015	21.029	829.150	638.064
381.029	21.042	828.624	637.650
382.044	21.114	827.835	637.252
383.059	21.088	827.450	636.803
384.073	21.003	826.627	635.804
385.088	20.740	826.162	634.430
386.102	20.786	825.383	633.942
387.117	20.874	824.796	633.757
388.132	20.816	823.884	632.790
389.146	20.990	823.569	633.123
390.161	21.007	823.417	633.011
391.175	20.856	823.549	632.510
392.190	20.805	822.798	631.690
393.205	20.931	821.626	631.194
394.219	20.859	821.500	630.777
395.234	20.745	821.096	630.001
396.248	20.752	820.182	629.266
397.263	20.602	819.843	628.409
398.278	20.645	819.292	628.089
399.292	20.573	819.333	627.803
400.307	20.729	818.668	627.802
401.321	20.738	818.218	627.432
402.336	20.919	817.461	627.448
403.350	20.803	817.647	627.120
404.365	20.899	817.386	627.206
405.380	21.013	816.781	627.098
406.394	21.395	815.948	627.774
407.409	21.228	815.985	627.150
408.423	21.288	815.619	627.028
409.438	21.508	814.935	627.234
410.453	21.380	814.781	626.603
411.467	21.576	814.133	626.750
412.482	21.581	813.768	626.431
413.496	21.713	813.168	626.385
414.511	21.604	813.005	625.816
415.526	21.531	812.362	625.005
416.540	21.415	812.123	624.351
417.555	21.339	811.966	623.902
418.569	21.641	811.025	624.201
419.584	21.444	811.072	623.480
420.599	21.486	810.567	623.186
421.613	156.138	1368.717	1784.544
422.628	135.769	1450.053	1784.647
