DTS Sentinel unit serial number:	SN413079Multiplexer serial number:	ORYXHardware model number:	OX4-SRSoftware version number:	ORYX F/W v4.00 Oryx Data Collector v3.7.2.0data status	okinstallation	princeton_trtdifferential loss correction	single-endedforward channel	channel 1reverse channel	N/Adate	2019/09/15time	13:10:35forward acquisition time	60.00reverse acquisition time	0.00gamma	496.2192k internal	0.2296k external	0.2296temperature offset calibration	0.9980default loss term (dB/km)	0.3790temperature slope calibration	1.0000multiplexer offset coefficient	1.0000multiplexer slope coefficient	1.0000fibre end	0.00T internal ref (°C)	36.92T ext. ref 1 (°C)	4.96T ext. ref 2 (°C)	34.90length (m)	temperature (°C)	Stokes	anti-Stokes-747.200	-200.000	0.008	0.225
-746.185	20.428	-0.174	0.144
-745.171	19.770	-0.128	-0.105
-744.156	715.262	-0.098	0.266
-743.142	-89.133	0.332	0.100
-742.127	25.618	0.030	0.026
-741.112	-54.999	-0.192	-0.088
-740.098	186.191	0.052	0.078
-739.083	490.132	0.076	-0.178
-738.069	800.000	0.031	0.136
-737.054	442.487	0.065	-0.146
-736.039	-151.271	-0.244	-0.019
-735.025	800.000	-0.081	0.345
-734.010	800.000	0.074	0.327
-732.996	86.254	-0.255	-0.287
-731.981	-151.118	-0.141	-0.011
-730.966	158.386	0.212	-0.300
-729.952	800.000	0.054	0.219
-728.937	-200.000	0.014	-0.104
-727.923	-100.912	0.224	0.056
-726.908	385.710	0.083	-0.175
-725.894	-200.000	0.000	0.126
-724.879	-113.890	-0.108	-0.021
-723.864	-79.667	-0.030	-0.010
-722.850	-126.315	0.112	0.017
-721.835	-161.100	-0.266	-0.014
-720.821	83.550	-0.032	-0.036
-719.806	-200.000	0.008	-0.202
-718.791	-200.000	-0.064	-0.329
-717.777	-200.000	0.021	0.340
-716.762	74.087	-0.162	0.174
-715.748	387.124	0.067	0.140
-714.733	-88.876	0.148	0.045
-713.718	352.584	-0.188	-0.380
-712.704	659.950	0.120	-0.316
-711.689	145.153	-0.094	-0.129
-710.675	501.824	-0.097	-0.229
-709.660	-200.000	0.022	-0.302
-708.645	-185.280	0.143	-0.002
-707.631	21.037	-0.075	-0.062
-706.616	-154.300	0.402	-0.028
-705.602	7.164	0.250	0.190
-704.587	800.000	0.038	0.165
-703.572	500.111	-0.070	0.165
-702.558	20.811	-0.357	-0.295
-701.543	-200.000	0.014	-0.160
-700.529	-34.083	0.059	-0.033
-699.514	-24.140	-0.297	0.181
-698.499	-16.772	0.195	-0.126
-697.485	-200.000	-0.079	-0.449
-696.470	256.863	-0.139	-0.244
-695.456	-9.762	0.149	0.101
-694.441	800.000	0.039	-0.120
-693.426	-95.694	0.333	-0.091
-692.412	-17.865	-0.340	0.218
-691.397	316.512	0.046	0.088
-690.383	-200.000	0.001	-0.099
-689.368	299.996	-0.129	0.243
-688.354	800.000	0.089	-0.364
-687.339	1.667	0.079	0.058
-686.324	-200.000	0.018	0.383
-685.310	734.214	-0.139	-0.379
-684.295	422.154	0.083	0.182
-683.281	55.838	0.102	-0.101
-682.266	51.923	-0.266	-0.258
-681.251	-200.000	-0.020	0.241
-680.237	-114.556	0.080	0.016
-679.222	-2.971	-0.139	0.099
-678.208	94.981	-0.174	-0.201
-677.193	-83.899	-0.159	0.052
-676.178	-150.723	-0.142	-0.011
-675.164	-15.166	0.338	-0.220
-674.149	-66.240	-0.400	-0.163
-673.135	-200.000	0.018	-0.103
-672.120	436.006	-0.105	-0.232
-671.105	30.831	0.281	-0.245
-670.091	422.493	0.073	-0.159
-669.076	168.181	-0.083	0.120
-668.062	-95.278	0.024	-0.007
-667.047	111.488	-0.148	0.182
-666.032	-20.829	-0.298	0.186
-665.018	-200.000	0.004	0.177
-664.003	-96.063	-0.363	-0.098
-662.989	6.826	-0.167	0.126
-661.974	-100.351	0.112	0.028
-660.959	-57.314	0.238	-0.107
-659.945	685.303	0.081	0.216
-658.930	-18.931	0.344	-0.218
-657.916	-92.381	-0.082	-0.023
-656.901	-2.374	0.052	0.037
-655.886	-192.280	-0.243	0.002
-654.872	367.305	-0.079	-0.162
-653.857	-99.866	0.097	0.025
-652.843	-132.871	-0.078	0.010
-651.828	239.173	0.210	-0.355
-650.814	332.313	0.047	0.093
-649.799	-53.317	-0.171	-0.080
-648.784	-200.000	0.031	0.233
-647.770	800.000	0.029	-0.093
-646.755	-22.212	-0.114	-0.071
-645.741	800.000	-0.034	-0.133
-644.726	-60.403	0.281	0.122
-643.711	-86.061	-0.249	0.078
-642.697	800.000	0.120	-0.358
-641.682	-157.158	-0.059	0.004
-640.668	-38.747	-0.342	-0.183
-639.653	-153.224	0.134	-0.010
-638.638	196.530	0.159	-0.246
-637.624	-200.000	-0.044	-0.325
-636.609	590.626	0.110	-0.277
-635.595	-200.000	0.017	0.221
-634.580	127.784	-0.114	0.148
-633.565	75.402	-0.166	-0.178
-632.551	-200.000	-0.010	-0.354
-631.536	-200.000	0.001	0.013
-630.522	456.506	0.090	0.203
-629.507	55.746	-0.260	-0.257
-628.492	-17.145	-0.148	-0.095
-627.478	800.000	0.070	-0.253
-626.463	1.598	0.220	-0.161
-625.449	-128.080	-0.309	-0.045
-624.434	-115.912	0.118	-0.022
-623.419	141.700	0.062	0.083
-622.405	497.036	0.114	0.266
-621.390	315.540	0.208	0.399
-620.376	163.805	0.093	0.133
-619.361	-169.463	0.152	-0.006
-618.346	-200.000	0.001	-0.089
-617.332	-200.000	-0.048	0.274
-616.317	-96.074	-0.193	0.052
-615.303	-200.000	-0.020	-0.183
-614.288	80.834	0.089	0.097
-613.273	72.433	-0.077	0.081
-612.259	-131.023	0.177	-0.024
-611.244	-76.164	0.141	0.050
-610.230	697.744	0.098	-0.262
-609.215	-161.362	0.245	0.013
-608.201	-185.908	0.331	-0.005
-607.186	-63.368	-0.174	0.073
-606.171	800.000	-0.030	-0.119
-605.157	517.770	0.049	0.116
-604.142	-200.000	0.089	0.469
-603.128	39.411	0.051	-0.047
-602.113	642.946	-0.037	0.095
-601.098	103.446	-0.165	-0.196
-600.084	-97.500	-0.207	-0.055
-599.069	-67.315	0.165	-0.066
-598.055	-68.961	-0.450	0.176
-597.040	800.000	0.067	0.241
-596.025	-120.004	0.143	0.025
-595.011	800.000	0.077	0.239
-593.996	-23.142	-0.225	-0.137
-592.982	800.000	0.081	-0.305
-591.967	-143.382	-0.457	-0.044
-590.952	800.000	0.070	0.209
-589.938	47.923	0.162	-0.154
-588.923	133.497	0.051	0.067
-587.909	-86.769	0.082	-0.025
-586.894	-200.000	-0.001	0.100
-585.879	149.360	0.081	0.112
-584.865	164.875	0.185	-0.265
-583.850	-116.667	-0.074	-0.014
-582.836	-176.590	-0.138	-0.004
-581.821	-200.000	-0.025	0.313
-580.806	800.000	-0.035	0.106
-579.792	-200.000	-0.033	-0.224
-578.777	-148.518	0.367	-0.030
-577.763	6.742	-0.274	0.207
-576.748	800.000	-0.080	0.267
-575.733	-200.000	-0.090	0.442
-574.719	-200.000	0.022	0.105
-573.704	221.532	-0.114	0.187
-572.690	-56.607	-0.216	0.097
-571.675	-63.936	0.125	-0.052
-570.661	-43.089	-0.075	-0.038
-569.646	-11.039	0.174	0.117
-568.631	-42.095	-0.238	-0.123
-567.617	-5.334	0.029	-0.020
-566.602	-12.873	0.098	-0.065
-565.588	-90.493	-0.397	-0.117
-564.573	-0.986	-0.186	0.134
-563.558	-0.593	-0.149	-0.107
-562.544	169.653	0.102	-0.148
-561.529	33.563	-0.420	-0.370
-560.515	135.184	0.133	0.176
-559.500	66.975	0.096	0.099
-558.485	-200.000	-0.009	0.147
-557.471	362.290	0.059	0.119
-556.456	-131.704	-0.086	0.011
-555.442	-88.843	-0.163	0.049
-554.427	49.155	0.092	-0.088
-553.412	-200.000	-0.044	0.217
-552.398	-78.514	0.347	0.120
-551.383	103.990	0.054	-0.065
-550.369	164.997	0.121	0.173
-549.354	-11.572	0.152	-0.101
-548.339	800.000	0.069	-0.209
-547.325	-200.000	0.020	-0.205
-546.310	-138.922	-0.126	-0.014
-545.296	269.741	0.215	-0.382
-544.281	147.345	-0.247	-0.337
-543.266	2.132	-0.211	0.155
-542.252	-200.000	0.002	-0.231
-541.237	112.714	0.265	-0.326
-540.223	-200.000	0.037	-0.177
-539.208	38.348	-0.156	0.141
-538.193	-83.603	0.179	-0.058
-537.179	-200.000	-0.010	-0.166
-536.164	-200.000	-0.053	-0.489
-535.150	64.436	-0.195	0.199
-534.135	19.281	-0.233	-0.190
-533.121	-76.942	-0.335	0.119
-532.106	-126.326	0.034	-0.005
-531.091	800.000	-0.052	-0.150
-530.077	-16.067	-0.318	0.205
-529.062	-137.607	0.214	0.024
-528.048	-33.514	-0.256	-0.143
-527.033	67.436	-0.073	0.076
-526.018	44.472	-0.308	-0.287
-525.004	-130.276	-0.380	0.052
-523.989	-111.189	-0.372	0.077
-522.975	-91.769	-0.283	0.082
-521.960	529.068	0.155	0.369
-520.945	12.333	-0.177	-0.138
-519.931	79.701	-0.232	0.252
-518.916	698.949	0.089	0.237
-517.902	-39.978	-0.103	-0.055
-516.887	-47.822	-0.104	-0.051
-515.872	88.732	-0.282	0.318
-514.858	-129.060	0.198	0.028
-513.843	-47.924	0.343	-0.168
-512.829	800.000	-0.152	0.585
-511.814	128.293	0.208	0.268
-510.799	21.496	0.265	-0.218
-509.785	-200.000	0.032	0.241
-508.770	142.921	-0.179	0.241
-507.756	-40.570	-0.228	0.120
-506.741	-94.266	0.223	0.062
-505.726	-163.494	0.367	0.018
-504.712	166.094	-0.256	-0.367
-503.697	155.972	0.056	-0.077
-502.683	186.229	-0.104	0.157
-501.668	203.047	0.194	-0.304
-500.653	172.776	-0.115	-0.168
-499.639	83.282	0.092	0.102
-498.624	-59.305	0.149	0.065
-497.610	-200.000	-0.031	-0.184
-496.595	202.882	0.134	0.209
-495.581	244.718	-0.177	-0.301
-494.566	-85.485	-0.270	-0.085
-493.551	-86.500	0.397	-0.123
-492.537	-136.869	-0.185	-0.021
-491.522	179.650	-0.073	0.109
-490.508	-9.313	0.094	0.064
-489.493	40.484	-0.208	-0.190
-488.478	33.105	0.256	0.225
-487.464	210.991	-0.134	0.214
-486.449	-20.550	-0.216	0.134
-485.435	235.659	-0.136	0.227
-484.420	345.840	0.083	-0.164
-483.405	-147.253	-0.152	-0.013
-482.391	-200.000	-0.004	-0.052
-481.376	669.263	-0.105	-0.275
-480.362	37.309	-0.253	0.227
-479.347	130.312	-0.151	-0.195
-478.332	270.349	-0.162	-0.288
-477.318	800.000	-0.066	0.248
-476.303	1.417	-0.152	0.111
-475.289	233.238	-0.144	-0.239
-474.274	265.084	-0.027	-0.047
-473.259	-200.000	-0.086	-0.391
-472.245	-61.554	0.430	-0.183
-471.230	-200.000	0.036	0.175
-470.216	102.675	0.091	0.107
-469.201	-69.483	-0.352	-0.137
-468.186	-46.908	-0.240	-0.118
-467.172	49.289	0.153	-0.145
-466.157	573.394	-0.003	-0.009
-465.143	-200.000	-0.059	0.386
-464.128	800.000	0.131	0.434
-463.113	-200.000	0.066	-0.458
-462.099	-200.000	0.005	-0.081
-461.084	331.433	0.099	-0.193
-460.070	-200.000	-0.040	0.201
-459.055	800.000	-0.036	-0.153
-458.040	-131.242	-0.225	-0.030
-457.026	-101.375	0.235	0.058
-456.011	164.653	0.246	0.350
-454.997	-21.812	-0.234	-0.144
-453.982	321.303	-0.257	-0.493
-452.968	-200.000	0.004	0.230
-451.953	-79.266	0.350	-0.120
-450.938	345.684	0.076	0.151
-449.924	-117.673	0.232	0.042
-448.909	-200.000	0.019	0.107
-447.895	65.288	0.143	0.146
-446.880	-62.601	0.234	-0.098
-445.865	-200.000	-0.008	-0.432
-444.851	153.837	-0.163	0.226
-443.836	-75.078	-0.243	-0.088
-442.822	800.000	0.010	-0.028
-441.807	800.000	0.005	-0.016
-440.792	-6.569	0.343	0.236
-439.778	-52.618	-0.220	0.102
-438.763	-56.497	0.170	0.076
-437.749	168.069	0.084	-0.121
-436.734	-34.562	0.275	0.152
-435.719	223.888	-0.156	0.254
-434.705	-13.535	-0.080	0.053
-433.690	-94.065	-0.202	0.056
-432.676	-200.000	0.004	0.080
-431.661	155.544	-0.102	0.142
-430.646	-65.527	0.178	0.072
-429.632	-200.000	0.005	0.086
-428.617	384.934	-0.100	0.207
-427.603	-200.000	-0.063	0.288
-426.588	40.679	-0.120	0.109
-425.573	-20.988	-0.238	0.147
-424.559	-200.000	0.068	-0.369
-423.544	6.200	0.167	-0.125
-422.530	145.182	0.131	-0.177
-421.515	106.695	0.122	0.147
-420.500	142.743	-0.240	-0.321
-419.486	763.834	0.048	0.132
-418.471	-11.684	0.086	0.057
-417.457	800.000	-0.118	-0.434
-416.442	-106.492	0.272	-0.061
-415.428	295.228	-0.037	0.069
-414.413	562.463	-0.032	0.078
-413.398	746.232	-0.089	0.242
-412.384	800.000	-0.062	0.271
-411.369	-66.779	-0.118	-0.047
-410.355	33.503	-0.227	-0.199
-409.340	-200.000	-0.013	0.221
-408.325	-153.326	-0.165	-0.012
-407.311	-114.172	0.510	0.099
-406.296	87.917	-0.388	0.434
-405.282	-11.911	-0.108	0.071
-404.267	759.441	-0.049	0.133
-403.252	-104.973	-0.052	-0.012
-402.238	119.824	-0.054	-0.067
-401.223	135.121	0.188	0.246
-400.209	127.695	-0.036	0.046
-399.194	292.286	0.067	0.123
-398.179	-66.302	-0.164	-0.066
-397.165	-200.000	-0.031	-0.513
-396.150	-200.000	-0.017	-0.162
-395.136	257.322	-0.213	-0.369
-394.121	38.512	0.102	0.091
-393.106	-36.558	0.410	-0.223
-392.092	182.173	-0.109	0.162
-391.077	-0.843	-0.157	0.112
-390.063	-142.228	0.269	0.027
-389.048	-200.000	0.018	0.425
-388.033	72.513	-0.230	0.242
-387.019	-186.130	0.275	0.004
-386.004	-73.633	-0.071	0.026
-384.990	-24.445	0.120	-0.072
-383.975	-200.000	0.050	0.398
-382.960	-130.415	0.232	-0.032
-381.946	-109.016	0.616	-0.132
-380.931	86.081	-0.050	0.056
-379.917	186.840	-0.156	-0.234
-378.902	-156.260	-0.271	-0.017
-377.888	-200.000	-0.018	-0.176
-376.873	-200.000	0.159	-0.001
-375.858	-200.000	-0.006	0.142
-374.844	101.005	0.263	-0.308
-373.829	64.223	-0.289	0.293
-372.815	-131.213	-0.173	0.023
-371.800	-200.000	-0.005	-0.059
-370.785	75.413	-0.080	0.085
-369.771	800.000	-0.135	0.410
-368.756	456.007	-0.045	0.101
-367.742	222.821	-0.079	0.128
-366.727	52.952	-0.174	0.168
-365.712	38.743	0.117	-0.105
-364.698	-200.000	0.081	0.367
-363.683	206.159	-0.197	-0.309
-362.669	109.787	-0.320	0.386
-361.654	771.642	-0.050	0.136
-360.639	-76.042	-0.114	-0.040
-359.625	669.767	0.043	0.113
-358.610	417.093	-0.169	-0.363
-357.596	-36.743	0.298	-0.161
-356.581	-200.000	0.012	-0.447
-355.566	-108.795	0.389	0.084
-354.552	-143.156	-0.120	-0.012
-353.537	-37.561	-0.340	-0.182
-352.523	800.000	0.089	-0.360
-351.508	800.000	-0.038	0.128
-350.493	408.699	0.138	-0.294
-349.479	-3.660	-0.103	0.072
-348.464	-88.732	-0.268	0.080
-347.450	-68.618	0.276	0.108
-346.435	349.359	0.061	-0.121
-345.420	-104.960	-0.268	-0.062
-344.406	40.255	0.312	-0.282
-343.391	-73.578	-0.185	-0.068
-342.377	91.822	0.181	-0.205
-341.362	-42.780	-0.207	0.106
-340.348	800.000	-0.040	0.110
-339.333	800.000	-0.124	0.367
-338.318	-52.757	0.052	-0.024
-337.304	259.129	0.075	-0.129
-336.289	99.549	0.203	0.236
-335.275	54.082	-0.170	-0.165
-334.260	282.291	0.072	0.129
-333.245	-145.007	0.227	-0.021
-332.231	-200.000	0.018	-0.257
-331.216	-40.797	0.173	-0.090
-330.202	-42.079	-0.083	0.043
-329.187	-49.647	-0.162	0.078
-328.172	36.055	-0.305	-0.270
-327.158	57.349	0.265	-0.260
-326.143	83.617	0.105	-0.115
-325.129	60.380	0.263	-0.261
-324.114	35.065	-0.067	-0.059
-323.099	-99.274	-0.304	-0.077
-322.085	-200.000	-0.004	-0.213
-321.070	252.513	0.103	-0.177
-320.056	-149.699	0.350	0.028
-319.041	-88.768	-0.304	0.091
-318.026	5.923	0.140	0.104
-317.012	151.743	-0.085	0.116
-315.997	40.407	-0.151	-0.136
-314.983	-11.442	0.195	-0.129
-313.968	125.828	0.092	0.117
-312.953	158.641	-0.097	0.135
-311.939	-8.482	0.063	-0.042
-310.924	5.906	0.245	0.182
-309.910	-200.000	-0.025	0.168
-308.895	-119.198	-0.333	-0.058
-307.880	-200.000	-0.004	-0.409
-306.866	678.165	0.100	0.261
-305.851	286.164	0.059	-0.107
-304.837	-148.069	0.269	-0.022
-303.822	253.044	-0.119	0.204
-302.807	-200.000	0.006	0.164
-301.793	-200.000	-0.024	0.302
-300.778	-73.057	0.356	-0.131
-299.764	-78.400	-0.278	-0.096
-298.749	-157.044	0.210	0.013
-297.735	-138.028	-0.153	-0.017
-296.720	-200.000	0.005	-0.031
-295.705	-106.844	-0.282	0.063
-294.691	-111.749	0.240	-0.049
-293.676	189.640	0.090	0.135
-292.662	10.129	0.210	0.160
-291.647	-95.364	0.206	0.056
-290.632	-115.362	0.071	0.013
-289.618	164.639	0.251	0.355
-288.603	-8.010	0.160	0.108
-287.589	69.344	-0.022	0.023
-286.574	-77.897	0.301	-0.104
-285.559	76.493	0.105	-0.111
-284.545	288.757	0.090	0.164
-283.530	-200.000	-0.038	-0.222
-282.516	313.949	-0.098	0.186
-281.501	-50.730	0.038	-0.018
-280.486	98.127	-0.096	0.111
-279.472	460.124	-0.129	0.287
-278.457	540.624	0.122	0.293
-277.443	266.183	-0.163	-0.285
-276.428	-82.974	-0.123	0.040
-275.413	-150.072	-0.395	-0.031
-274.399	-29.268	-0.047	0.027
-273.384	-91.765	-0.213	0.061
-272.370	-200.000	-0.058	-0.451
-271.355	-79.284	0.138	0.047
-270.340	116.566	0.090	0.111
-269.326	7.355	-0.210	-0.157
-268.311	-138.664	-0.046	0.005
-267.297	-4.150	0.216	0.150
-266.282	-15.751	-0.190	0.122
-265.267	511.973	-0.126	0.295
-264.253	-200.000	0.019	0.282
-263.238	800.000	0.079	-0.247
-262.224	-58.208	0.057	0.025
-261.209	-52.243	0.119	-0.055
-260.195	800.000	0.044	-0.123
-259.180	187.375	0.164	-0.245
-258.165	-11.465	-0.288	0.190
-257.151	-200.000	0.020	-0.135
-256.136	-111.848	0.392	0.079
-255.122	-75.926	0.173	0.061
-254.107	-200.000	0.038	0.281
-253.092	519.144	-0.061	-0.144
-252.078	-200.000	0.003	0.153
-251.063	576.905	0.308	-0.753
-250.049	-200.000	0.012	0.162
-249.034	581.189	-0.067	-0.163
-248.019	-93.069	0.244	-0.068
-247.005	800.000	0.024	-0.094
-245.990	-50.003	0.247	-0.117
-244.976	-29.328	0.345	-0.198
-243.961	-19.951	0.146	-0.090
-242.946	131.643	0.184	0.238
-241.932	395.691	0.040	0.084
-240.917	34.341	0.321	0.281
-239.903	74.453	0.049	0.052
-238.888	202.269	0.045	-0.069
-237.873	-200.000	-0.030	-0.219
-236.859	-112.986	0.141	0.028
-235.844	261.425	-0.118	-0.204
-234.830	-136.730	-0.129	0.015
-233.815	800.000	-0.061	-0.258
-232.800	-48.098	0.087	0.042
-231.786	92.853	0.065	0.074
-230.771	-167.414	-0.290	-0.012
-229.757	-78.086	-0.090	-0.031
-228.742	-87.540	0.231	0.070
-227.727	-200.000	-0.011	-0.092
-226.713	118.320	0.193	0.238
-225.698	148.376	-0.148	0.201
-224.684	-89.246	0.135	-0.040
-223.669	-82.529	0.191	0.062
-222.655	-111.052	0.359	0.074
-221.640	-141.044	-0.299	0.031
-220.625	800.000	0.029	-0.101
-219.611	-139.868	-0.234	0.025
-218.596	416.999	0.067	0.144
-217.582	-154.177	-0.151	0.010
-216.567	245.312	0.081	0.137
-215.552	-37.534	-0.411	-0.220
-214.538	91.310	0.176	-0.198
-213.523	391.528	0.247	-0.512
-212.509	-115.703	0.352	0.066
-211.494	800.000	-0.036	-0.141
-210.479	100.247	-0.139	-0.161
-209.465	245.236	0.125	-0.210
-208.450	264.289	0.186	0.324
-207.436	118.359	-0.156	-0.192
-206.421	-127.699	-0.153	0.022
-205.406	-161.324	0.171	0.009
-204.392	102.897	0.104	-0.122
-203.377	-23.303	-0.066	-0.040
-202.363	118.072	-0.165	-0.204
-201.348	32.510	0.214	0.185
-200.333	-58.312	-0.129	-0.056
-199.319	-200.000	0.056	0.279
-198.304	26.428	-0.178	-0.149
-197.290	-131.488	0.258	0.034
-196.275	-200.000	-0.027	0.168
-195.260	-200.000	0.043	0.228
-194.246	-54.489	0.156	0.071
-193.231	800.000	0.032	0.114
-192.217	83.120	0.259	-0.282
-191.202	-81.389	-0.067	-0.022
-190.187	379.456	-0.174	-0.357
-189.173	384.291	0.029	-0.061
-188.158	132.965	0.205	0.265
-187.144	74.110	0.283	0.297
-186.129	-130.346	-0.233	0.032
-185.114	5.735	0.373	-0.276
-184.100	-13.547	-0.232	0.150
-183.085	-200.000	-0.008	0.058
-182.071	-30.713	-0.271	0.153
-181.056	-115.947	0.307	-0.057
-180.042	-200.000	-0.024	0.117
-179.027	620.702	-0.066	-0.165
-178.012	-75.959	-0.140	-0.050
-176.998	45.547	-0.241	0.222
-175.983	-200.000	-0.012	-0.110
-174.969	-153.351	-0.377	0.026
-173.954	-15.050	-0.146	0.094
-172.939	800.000	0.070	-0.301
-171.925	800.000	0.022	0.089
-170.910	543.343	0.034	-0.082
-169.896	-200.000	0.012	0.098
-168.881	800.000	-0.035	-0.126
-167.866	-39.599	0.187	0.098
-166.852	-79.480	-0.166	0.056
-165.837	166.716	0.141	0.200
-164.823	-200.000	0.048	-0.538
-163.808	-147.730	-0.115	-0.010
-162.793	164.158	-0.153	-0.215
-161.779	-102.881	0.266	0.063
-160.764	-97.448	-0.092	0.024
-159.750	-200.000	0.008	0.035
-158.735	-96.111	0.178	-0.047
-157.720	-12.693	0.188	-0.123
-156.706	-158.153	-0.163	-0.010
-155.691	-18.447	-0.104	-0.065
-154.677	-84.088	0.139	0.044
-153.662	60.103	0.152	0.150
-152.647	256.655	-0.025	0.043
-151.633	310.436	0.127	0.238
-150.618	372.658	-0.049	-0.100
-149.604	-200.000	0.038	-0.222
-148.589	112.406	-0.191	0.231
-147.574	29.558	-0.205	0.174
-146.560	-8.492	0.285	0.191
-145.545	-51.130	0.228	-0.106
-144.531	-114.329	0.151	-0.029
-143.516	92.999	-0.101	-0.114
-142.502	800.000	0.072	-0.249
-141.487	281.490	0.160	-0.285
-140.472	123.463	0.273	-0.342
-139.458	4.202	-0.180	-0.132
-138.443	-200.000	-0.009	0.304
-137.429	319.883	0.153	-0.290
-136.414	-66.718	-0.163	-0.064
-135.399	-91.425	-0.348	-0.099
-134.385	20.705	-0.287	0.232
-133.370	800.000	0.014	0.058
-132.356	14.661	-0.127	-0.099
-131.341	-148.997	-0.354	-0.028
-130.326	-115.512	0.361	-0.068
-129.312	252.677	0.069	-0.117
-128.297	800.000	0.046	0.171
-127.283	-79.502	0.338	-0.114
-126.268	-157.816	-0.200	0.012
-125.253	102.737	0.245	-0.286
-124.239	800.000	0.007	-0.022
-123.224	-29.391	-0.198	-0.113
-122.210	-200.000	0.003	0.050
-121.195	69.889	-0.168	-0.172
-120.180	-79.165	0.320	0.108
-119.166	-93.748	-0.088	-0.024
-118.151	315.987	0.117	-0.220
-117.137	-200.000	-0.027	-0.282
-116.122	-51.904	0.280	0.130
-115.107	800.000	-0.047	0.130
-114.093	-200.000	-0.048	0.254
-113.078	800.000	0.031	-0.098
-112.064	-116.745	0.142	0.026
-111.049	307.219	-0.188	-0.349
-110.034	-200.000	-0.319	0.000
-109.020	-140.078	0.220	0.023
-108.005	-45.561	0.145	0.071
-106.991	-92.231	-0.418	0.118
-105.976	-27.620	0.150	0.087
-104.962	-51.145	0.141	-0.066
-103.947	294.738	-0.144	-0.263
-102.932	111.194	-0.132	0.158
-101.918	-200.000	0.030	0.172
-100.903	-101.071	0.399	0.097
-99.889	-58.902	0.106	-0.046
-98.874	488.486	0.078	0.176
-97.859	-200.000	-0.047	0.220
-96.845	-75.807	-0.074	-0.026
-95.830	-17.085	-0.067	0.042
-94.816	-107.034	-0.292	0.064
-93.801	234.866	-0.226	-0.371
-92.786	18.653	0.108	-0.086
-91.772	-200.000	-0.013	0.357
-90.757	-200.000	0.004	0.086
-89.743	-12.364	0.229	-0.149
-88.728	136.174	0.104	-0.135
-87.713	-200.000	-0.024	0.121
-86.699	167.753	-0.080	-0.114
-85.684	-200.000	-0.011	-0.189
-84.670	172.130	0.109	0.156
-83.655	-200.000	-0.044	0.263
-82.640	577.009	0.106	0.258
-81.626	-187.376	0.146	-0.002
-80.611	265.278	-0.191	0.331
-79.597	66.210	0.150	-0.151
-78.582	-200.000	-0.004	0.246
-77.567	-200.000	0.015	0.194
-76.553	315.240	0.151	-0.284
-75.538	106.826	0.260	-0.308
-74.524	-200.000	0.026	0.337
-73.509	148.415	0.265	-0.356
-72.494	106.276	-0.076	0.090
-71.480	-75.456	0.421	-0.149
-70.465	-200.000	0.006	-0.329
-69.451	169.423	0.221	0.314
-68.436	-200.000	0.032	0.251
-67.422	-179.132	0.348	-0.008
-66.407	800.000	-0.011	0.034
-65.392	-108.034	0.176	0.038
-64.378	92.285	-0.177	0.199
-63.363	-39.260	-0.088	0.046
-62.349	-62.381	-0.195	0.081
-61.334	24.995	-0.691	-0.570
-60.319	9.749	0.368	0.277
-59.305	800.000	-0.296	-0.988
-58.290	137.967	0.566	0.738
-57.276	374.154	0.747	1.513
-56.261	-200.000	87.575	500.872
-55.246	493.720	1411.888	3221.971
-54.232	180.555	2622.723	3829.008
-53.217	115.788	2233.996	2718.332
-52.203	47.512	1672.635	1551.048
-51.188	40.119	1401.744	1253.190
-50.173	36.912	1357.925	1194.236
-49.159	56.010	1400.958	1351.916
-48.144	60.415	1419.105	1396.906
-47.130	40.827	1377.747	1235.946
-46.115	37.221	1359.781	1197.588
-45.100	36.882	1355.333	1191.538
-44.086	36.849	1352.123	1188.467
-43.071	36.753	1350.110	1186.063
-42.057	36.704	1348.263	1184.091
-41.042	36.792	1346.624	1183.144
-40.027	36.887	1344.634	1181.926
-39.013	36.851	1342.708	1179.970
-37.998	36.823	1341.003	1178.252
-36.984	36.970	1338.944	1177.288
-35.969	36.889	1337.313	1175.318
-34.954	37.035	1335.172	1174.275
-33.940	37.057	1334.135	1173.450
-32.925	37.033	1332.514	1171.830
-31.911	37.026	1331.167	1170.560
-30.896	37.170	1329.559	1169.965
-29.881	37.088	1328.421	1168.421
-28.867	37.024	1326.825	1166.589
-27.852	37.046	1325.444	1165.457
-26.838	37.051	1323.941	1164.120
-25.823	37.001	1322.841	1162.807
-24.809	37.048	1321.160	1161.565
-23.794	37.150	1319.189	1160.400
-22.779	37.071	1317.909	1158.755
-21.765	37.052	1316.762	1157.588
-20.750	36.947	1315.674	1155.956
-19.736	36.834	1314.567	1154.265
-18.721	36.850	1313.290	1153.194
-17.706	36.792	1312.165	1151.816
-16.692	36.806	1310.794	1150.651
-15.677	36.843	1309.540	1149.722
-14.663	36.900	1308.508	1149.111
-13.648	36.868	1307.322	1147.834
-12.633	36.845	1306.103	1146.581
-11.619	36.780	1305.731	1145.822
-10.604	36.767	1304.968	1145.033
-9.590	36.804	1303.723	1144.109
-8.575	36.721	1302.525	1142.522
-7.560	36.778	1301.796	1142.174
-6.546	36.914	1300.757	1142.022
-5.531	36.733	1300.112	1140.346
-4.517	36.734	1298.758	1139.118
-3.502	36.865	1297.901	1139.090
-2.487	36.829	1297.049	1138.086
-1.473	36.931	1293.553	1135.567
-0.458	36.122	1279.085	1118.133
0.556	31.789	1260.234	1080.613
1.571	28.054	1264.423	1062.452
2.586	26.839	1278.740	1067.243
3.600	25.401	1266.838	1048.827
4.615	19.500	1190.954	953.418
5.629	9.960	1111.306	840.174
6.644	5.364	1089.050	799.807
7.659	4.957	1086.134	795.517
8.673	4.818	1085.062	793.951
9.688	4.703	1083.740	792.328
10.702	5.242	1082.228	793.895
11.717	11.127	1090.882	830.249
12.731	18.986	1101.523	878.578
13.746	20.056	1102.119	884.439
14.761	18.050	1098.668	871.376
15.775	16.925	1096.078	863.517
16.790	15.772	1094.305	856.179
17.804	15.139	1092.598	851.549
18.819	14.773	1091.501	848.759
19.834	14.313	1091.041	845.991
20.848	14.139	1089.809	844.077
21.863	13.888	1089.074	842.159
22.877	13.728	1088.027	840.466
23.892	13.805	1087.433	840.325
24.907	13.735	1086.274	839.001
25.921	13.801	1084.965	838.248
26.936	13.752	1084.365	837.465
27.950	13.840	1082.725	836.565
28.965	13.988	1081.147	836.016
29.980	14.063	1079.557	835.090
30.994	14.035	1078.318	833.916
32.009	14.108	1077.452	833.538
33.023	14.038	1076.308	832.230
34.038	13.933	1075.668	831.136
35.053	13.906	1074.456	829.991
36.067	13.913	1073.445	829.174
37.082	13.982	1072.457	828.681
38.096	13.940	1071.930	827.988
39.111	14.017	1071.204	827.739
40.126	13.984	1069.640	826.296
41.140	13.813	1068.549	824.528
42.155	13.759	1067.393	823.296
43.169	13.732	1065.985	822.005
44.184	13.685	1065.547	821.360
45.199	13.630	1064.714	820.372
46.213	13.698	1063.750	819.893
47.228	13.902	1062.436	819.814
48.242	14.042	1060.862	819.218
49.257	13.814	1060.251	817.551
50.271	13.988	1059.203	817.525
51.286	13.844	1058.754	816.401
52.301	13.875	1057.976	815.881
53.315	13.819	1056.412	814.325
54.330	13.835	1055.116	813.335
55.344	13.777	1054.617	812.595
56.359	13.804	1053.690	811.941
57.374	13.767	1052.496	810.766
58.388	13.755	1051.668	809.997
59.403	13.646	1051.220	809.049
60.417	13.618	1050.187	808.048
61.432	13.630	1049.255	807.316
62.447	13.544	1048.583	806.312
63.461	13.736	1047.482	806.326
64.476	13.523	1046.725	804.637
65.490	13.629	1045.745	804.328
66.505	13.575	1045.454	803.772
67.520	13.661	1044.484	803.370
68.534	13.668	1043.857	802.852
69.549	13.673	1043.069	802.194
70.563	13.616	1041.910	800.958
71.578	13.660	1041.169	800.530
72.593	13.516	1040.787	799.473
73.607	13.559	1040.319	799.251
74.622	13.541	1039.029	798.099
75.636	13.462	1038.620	797.336
76.651	13.590	1037.421	796.957
77.666	13.517	1037.549	796.637
78.680	13.584	1036.448	796.044
79.695	13.505	1035.814	795.103
80.709	13.499	1035.427	794.711
81.724	13.679	1034.243	794.592
82.739	13.828	1033.696	794.814
83.753	13.854	1032.981	794.322
84.768	14.082	1031.961	794.556
85.782	14.035	1031.346	793.785
86.797	13.938	1030.753	792.797
87.812	13.871	1029.482	791.433
88.826	13.876	1028.427	790.573
89.841	13.914	1027.622	790.064
90.855	13.893	1026.679	789.172
91.870	14.056	1025.125	788.681
92.884	14.086	1024.446	788.228
93.899	14.070	1023.827	787.608
94.914	14.161	1022.858	787.223
95.928	13.951	1022.804	786.120
96.943	14.123	1021.468	785.835
97.957	13.945	1020.842	784.444
98.972	14.079	1019.511	783.984
99.987	14.031	1018.730	783.086
101.001	13.958	1017.913	782.044
102.016	13.897	1017.248	781.179
103.030	14.042	1015.823	780.698
104.045	13.900	1015.607	779.793
105.060	14.005	1014.175	779.118
106.074	13.714	1013.741	777.352
107.089	13.788	1012.282	776.512
108.103	13.718	1011.455	775.480
109.118	13.749	1010.598	774.900
110.133	13.869	1009.209	774.324
111.147	13.705	1008.702	773.105
112.162	13.772	1007.748	772.616
113.176	13.765	1007.327	772.194
114.191	13.874	1006.424	771.938
115.206	13.767	1005.775	770.875
116.220	13.737	1004.640	769.801
117.235	13.801	1003.478	769.137
118.249	13.779	1002.793	768.444
119.264	13.803	1002.218	768.045
120.279	13.787	1001.424	767.292
121.293	13.791	1000.336	766.411
122.308	13.708	999.882	765.611
123.322	13.626	999.041	764.523
124.337	13.673	997.895	763.792
125.352	13.570	996.997	762.563
126.366	13.713	995.703	762.166
127.381	13.754	994.138	761.089
128.395	13.677	993.695	760.328
129.410	13.720	992.712	759.708
130.424	13.910	991.569	759.632
131.439	13.814	991.256	758.885
132.454	13.899	990.271	758.453
133.468	13.842	989.466	757.510
134.483	13.803	988.820	756.769
135.497	13.950	987.845	756.630
136.512	13.891	986.958	755.611
137.527	14.010	985.949	755.314
138.541	13.892	985.323	754.233
139.556	13.998	984.601	754.095
140.570	14.061	983.728	753.643
141.585	14.177	982.773	753.371
142.600	14.122	982.074	752.521
143.614	14.155	981.096	751.854
144.629	14.095	980.717	751.225
145.643	14.204	979.363	750.613
146.658	14.143	978.186	749.369
147.673	14.095	977.215	748.344
148.687	13.832	976.943	746.886
149.702	13.937	975.807	746.422
150.716	13.966	974.743	745.672
151.731	14.016	974.291	745.486
152.746	14.026	973.779	745.072
153.760	14.121	972.615	744.544
154.775	14.043	972.288	743.877
155.789	14.118	971.816	743.784
156.804	14.179	970.584	743.048
157.819	14.189	969.981	742.567
158.833	14.259	969.389	742.357
159.848	14.237	968.670	741.644
160.862	14.134	967.961	740.577
161.877	14.116	966.508	739.320
162.892	14.080	965.529	738.346
163.906	13.914	964.568	736.811
164.921	14.091	963.739	736.894
165.935	14.068	962.880	736.071
166.950	14.106	962.167	735.631
167.964	14.068	960.968	734.482
168.979	14.049	960.315	733.831
169.994	14.099	959.476	733.346
171.008	14.177	958.632	732.981
172.023	14.212	958.167	732.716
173.037	14.310	957.483	732.559
174.052	14.296	956.080	731.356
175.067	14.007	955.981	729.950
176.081	14.162	955.097	729.891
177.096	14.071	955.165	729.477
178.110	14.148	954.406	729.169
179.125	14.127	953.516	728.336
180.140	14.152	952.971	727.962
181.154	14.253	952.239	727.780
182.169	14.239	952.279	727.686
183.183	14.371	951.079	727.282
184.198	14.321	950.342	726.435
185.213	14.310	949.525	725.698
186.227	14.423	949.009	725.733
187.242	14.318	948.700	724.972
188.256	14.470	947.762	724.852
189.271	14.493	946.987	724.298
190.286	14.326	946.023	722.772
191.300	14.196	945.325	721.610
192.315	14.095	944.752	720.670
193.329	14.208	944.245	720.709
194.344	14.134	943.882	720.049
195.359	14.387	943.009	720.413
196.373	14.340	942.658	719.877
197.388	14.475	942.686	720.416
198.402	14.473	941.786	719.659
199.417	14.683	940.760	719.718
200.432	14.606	940.278	718.951
201.446	14.672	939.986	718.951
202.461	14.780	939.258	718.795
203.475	14.727	938.652	718.038
204.490	14.598	937.821	716.785
205.504	14.614	936.621	715.874
206.519	14.628	936.100	715.472
207.534	14.505	935.690	714.568
208.548	14.613	934.853	714.328
209.563	14.625	934.390	713.963
210.577	14.719	933.415	713.556
211.592	14.743	932.993	713.271
212.607	14.724	932.354	712.639
213.621	14.861	931.076	712.182
214.636	14.748	931.169	711.711
215.650	14.660	930.294	710.603
216.665	14.831	929.354	710.550
217.680	14.925	928.455	710.199
218.694	14.813	928.167	709.441
219.709	15.034	926.958	709.389
220.723	14.898	926.907	708.714
221.738	14.788	926.089	707.558
222.753	14.924	924.905	707.165
223.767	14.992	924.531	707.104
224.782	14.916	924.257	706.513
225.796	14.962	923.852	706.333
226.811	14.890	922.779	705.149
227.826	14.841	922.387	704.577
228.840	14.933	921.249	704.037
229.855	14.811	920.702	703.043
230.869	14.935	919.712	702.742
231.884	14.851	919.339	702.044
232.899	14.857	918.509	701.371
233.913	14.744	918.063	700.499
234.928	14.855	917.151	700.203
235.942	14.709	916.374	698.936
236.957	14.812	916.241	699.204
237.972	14.850	915.121	698.449
238.986	15.012	914.258	698.402
240.001	14.996	913.935	698.029
241.015	15.142	912.652	697.595
242.030	15.129	912.261	697.179
243.045	14.957	912.187	696.346
244.059	14.921	911.694	695.760
245.074	15.096	910.717	695.677
246.088	15.038	910.200	694.979
247.103	15.150	909.501	694.851
248.117	15.220	909.118	694.784
249.132	15.285	908.719	694.690
250.147	15.510	908.044	695.042
251.161	15.384	907.324	693.909
252.176	15.500	906.844	693.961
253.190	15.525	905.975	693.337
254.205	15.592	905.228	692.982
255.220	15.613	904.459	692.417
256.234	15.643	903.868	692.026
257.249	15.583	902.987	691.045
258.263	15.599	902.259	690.492
259.278	15.426	902.140	689.628
260.293	15.537	901.188	689.295
261.307	15.634	900.683	689.245
262.322	15.641	900.230	688.866
263.336	15.709	898.879	688.052
264.351	15.735	898.072	687.477
265.366	15.589	898.060	686.814
266.380	15.561	897.717	686.373
267.395	15.783	896.489	686.281
268.409	15.678	895.704	685.193
269.424	15.690	895.093	684.712
270.439	15.601	894.678	683.972
271.453	15.718	893.893	683.787
272.468	15.611	893.407	682.920
273.482	15.646	892.397	682.228
274.497	15.567	892.228	681.719
275.512	15.685	891.381	681.488
276.526	15.683	891.121	681.221
277.541	15.832	890.202	681.061
278.555	15.809	889.679	680.509
279.570	15.908	888.926	680.271
280.585	15.921	888.090	679.625
281.599	15.748	887.417	678.353
282.614	15.793	886.729	677.948
283.628	15.860	885.835	677.473
284.643	15.853	885.678	677.265
285.657	15.938	884.809	676.884
286.672	15.854	884.104	675.948
287.687	15.927	883.350	675.606
288.701	15.995	882.701	675.322
289.716	16.068	882.275	675.227
290.730	15.894	882.169	674.387
291.745	15.963	881.528	674.116
292.760	16.011	880.361	673.356
293.774	16.170	879.974	673.632
294.789	16.157	879.040	672.808
295.803	16.017	878.653	671.895
296.818	15.849	877.897	670.589
297.833	16.060	877.207	670.841
298.847	16.043	877.100	670.634
299.862	16.054	876.233	669.955
300.876	16.090	875.419	669.415
301.891	16.134	875.052	669.249
302.906	16.191	874.540	669.024
303.920	16.364	873.874	669.142
304.935	16.412	873.369	668.885
305.949	16.242	873.030	667.893
306.964	16.240	872.266	667.244
307.979	16.271	871.595	666.791
308.993	16.259	871.142	666.341
310.008	16.229	870.455	665.638
311.022	16.300	870.155	665.627
312.037	16.197	869.307	664.516
313.052	16.214	868.566	663.956
314.066	16.231	867.925	663.474
315.081	16.164	867.760	663.025
316.095	16.331	866.497	662.659
317.110	16.169	866.452	661.930
318.125	16.252	865.904	661.778
319.139	16.227	865.453	661.278
320.154	16.313	864.891	661.125
321.168	16.318	864.112	660.491
322.183	16.406	863.460	660.277
323.197	16.345	863.146	659.743
324.212	16.345	862.781	659.403
325.227	16.323	862.264	658.864
326.241	16.385	861.094	658.156
327.256	16.240	860.635	657.179
328.270	16.315	860.408	657.242
329.285	16.246	859.833	656.476
330.300	16.329	859.237	656.283
331.314	16.320	858.536	655.655
332.329	16.209	858.446	655.099
333.343	16.383	857.837	655.251
334.358	16.498	857.181	655.136
335.373	16.480	856.678	654.623
336.387	16.531	856.633	654.729
337.402	16.525	856.330	654.416
338.416	16.620	856.190	654.619
339.431	16.748	855.339	654.406
340.446	16.681	855.182	653.970
341.460	16.878	854.517	654.162
342.475	16.714	854.489	653.452
343.489	16.803	854.033	653.387
344.504	17.006	853.268	653.527
345.519	16.873	852.882	652.661
346.533	16.919	852.053	652.146
347.548	16.839	851.841	651.619
348.562	16.630	851.413	650.430
349.577	16.663	850.402	649.726
350.592	16.743	849.776	649.497
351.606	16.673	848.859	648.473
352.621	16.813	848.114	648.382
353.635	16.853	847.933	648.339
354.650	16.861	847.084	647.661
355.665	16.988	846.598	647.718
356.679	16.896	846.188	646.994
357.694	16.945	845.292	646.441
358.708	16.855	844.706	645.594
359.723	16.744	844.575	645.011
360.738	16.924	843.710	644.978
361.752	17.103	842.779	644.890
362.767	17.079	842.143	644.258
363.781	17.055	841.807	643.852
364.796	17.180	841.281	643.866
365.810	17.055	841.354	643.390
366.825	17.239	840.610	643.460
367.840	17.147	840.351	642.859
368.854	17.189	839.939	642.647
369.869	17.241	839.227	642.240
370.883	17.210	838.695	641.659
371.898	17.197	838.315	641.262
372.913	17.278	838.070	641.323
373.927	17.320	837.333	640.862
374.942	17.276	837.018	640.398
375.956	17.366	836.446	640.241
376.971	17.461	836.279	640.414
377.986	17.447	835.850	639.977
379.000	17.517	834.959	639.502
380.015	17.508	834.659	639.179
381.029	17.554	833.825	638.658
382.044	17.597	833.167	638.258
383.059	17.564	832.514	637.577
384.073	17.420	832.499	636.972
385.088	17.295	831.694	635.834
386.102	17.328	831.059	635.412
387.117	17.377	830.680	635.249
388.132	17.305	830.427	634.731
389.146	17.333	829.436	634.023
390.161	17.473	829.235	634.334
391.175	17.585	828.560	634.179
392.190	17.557	827.857	633.480
393.205	17.527	827.270	632.865
394.219	17.553	826.904	632.624
395.234	17.546	826.581	632.294
396.248	17.322	826.114	631.053
397.263	17.205	825.787	630.311
398.278	17.447	825.401	630.861
399.292	17.312	824.989	629.989
400.307	17.474	824.199	629.928
401.321	17.364	824.021	629.330
402.336	17.509	823.001	629.029
403.350	17.352	823.327	628.643
404.365	17.476	822.976	628.779
405.380	17.700	822.145	628.915
406.394	17.651	821.759	628.384
407.409	17.661	821.252	627.976
408.423	17.785	820.790	628.023
409.438	17.721	820.507	627.518
410.453	17.704	820.172	627.143
411.467	17.914	819.804	627.575
412.482	17.810	819.786	627.124
413.496	17.762	818.925	626.234
414.511	17.952	818.706	626.709
415.526	17.991	817.891	626.174
416.540	17.906	817.741	625.690
417.555	17.862	817.068	624.959
418.569	17.935	816.759	624.934
419.584	17.964	816.468	624.763
420.599	18.038	815.820	624.483
421.613	149.722	1369.498	1782.032
422.628	130.097	1450.200	1782.142
