DTS Sentinel unit serial number:	SN413079Multiplexer serial number:	ORYXHardware model number:	OX4-SRSoftware version number:	ORYX F/W v4.00 Oryx Data Collector v3.7.2.0data status	okinstallation	princeton_trtdifferential loss correction	single-endedforward channel	channel 1reverse channel	N/Adate	2019/09/14time	22:02:35forward acquisition time	60.00reverse acquisition time	0.00gamma	496.2192k internal	0.2319k external	0.2319temperature offset calibration	1.0005default loss term (dB/km)	0.3790temperature slope calibration	1.0000multiplexer offset coefficient	1.0000multiplexer slope coefficient	1.0000fibre end	0.00T internal ref (°C)	32.69T ext. ref 1 (°C)	4.71T ext. ref 2 (°C)	27.62length (m)	temperature (°C)	Stokes	anti-Stokes-747.200	118.040	0.120	-0.150
-746.185	574.688	0.019	0.046
-745.171	-200.000	-0.002	0.083
-744.156	-200.000	0.023	0.533
-743.142	5.092	0.036	0.027
-742.127	-200.000	0.040	0.342
-741.112	-99.264	-0.333	0.085
-740.098	-200.000	0.020	-0.197
-739.083	138.167	0.242	0.320
-738.069	-199.622	-0.239	0.001
-737.054	-200.000	0.049	-0.229
-736.039	800.000	-0.156	-0.493
-735.025	-27.859	0.172	0.101
-734.010	-66.503	-0.036	-0.014
-732.996	-82.646	0.198	0.065
-731.981	-200.000	-0.051	0.240
-730.966	-200.000	-0.050	0.313
-729.952	-20.639	0.060	-0.037
-728.937	-23.736	-0.244	-0.148
-727.923	77.237	0.258	0.277
-726.908	-200.000	-0.006	-0.061
-725.894	-150.613	0.315	-0.024
-724.879	258.954	0.118	-0.206
-723.864	-200.000	-0.005	-0.354
-722.850	-200.000	0.035	-0.200
-721.835	737.549	-0.060	0.164
-720.821	-82.585	-0.285	-0.093
-719.806	800.000	-0.007	0.025
-718.791	-200.000	-0.058	-0.347
-717.777	-33.594	-0.054	0.030
-716.762	-200.000	-0.000	-0.147
-715.748	283.161	0.146	0.265
-714.733	443.266	0.075	-0.166
-713.718	-49.120	-0.080	0.039
-712.704	-51.361	0.234	-0.111
-711.689	800.000	0.100	0.311
-710.675	-81.267	-0.137	-0.046
-709.660	-41.909	-0.274	-0.142
-708.645	62.714	-0.005	-0.005
-707.631	-190.924	-0.331	-0.004
-706.616	245.045	0.266	-0.452
-705.602	491.947	0.066	0.153
-704.587	248.518	0.225	0.385
-703.572	-110.564	0.071	-0.015
-702.558	424.363	-0.036	-0.078
-701.543	437.749	-0.039	-0.086
-700.529	227.198	0.171	-0.280
-699.514	-96.949	0.149	-0.039
-698.499	213.198	-0.007	-0.011
-697.485	-200.000	-0.049	0.257
-696.470	-200.000	0.042	0.195
-695.456	308.849	0.102	-0.192
-694.441	346.490	-0.122	-0.241
-693.426	-155.497	-0.181	-0.012
-692.412	800.000	0.103	-0.310
-691.397	-31.448	-0.168	0.095
-690.383	-200.000	0.058	0.369
-689.368	-200.000	0.001	0.205
-688.354	87.886	-0.150	0.168
-687.339	-123.343	-0.109	0.018
-686.324	-131.020	-0.126	0.017
-685.310	800.000	0.072	-0.304
-684.295	-3.901	0.226	-0.158
-683.281	-138.365	-0.303	0.034
-682.266	178.107	-0.283	-0.417
-681.251	1.807	0.304	-0.221
-680.237	800.000	-0.095	-0.352
-679.222	164.486	-0.070	0.100
-678.208	-128.349	-0.464	-0.067
-677.193	800.000	-0.037	-0.106
-676.178	-200.000	0.010	-0.469
-675.164	-102.736	0.092	-0.022
-674.149	183.682	-0.118	-0.177
-673.135	4.531	-0.128	0.095
-672.120	-200.000	-0.009	-0.162
-671.105	-85.203	0.142	-0.045
-670.091	-48.603	0.036	0.017
-669.076	-200.000	-0.030	0.191
-668.062	539.990	-0.120	0.287
-667.047	110.856	-0.146	0.177
-666.032	800.000	-0.031	-0.091
-665.018	-101.616	-0.365	-0.089
-664.003	800.000	0.068	-0.282
-662.989	-200.000	-0.018	-0.128
-661.974	-200.000	-0.001	0.153
-660.959	47.069	-0.130	-0.122
-659.945	164.168	-0.051	-0.073
-658.930	-200.000	0.057	-0.260
-657.916	-200.000	-0.020	0.158
-656.901	-132.586	-0.370	-0.048
-655.886	-105.060	0.400	-0.092
-654.872	-200.000	-0.002	0.184
-653.857	-99.354	-0.179	-0.046
-652.843	-46.192	0.211	-0.104
-651.828	-127.509	0.340	0.050
-650.814	-111.980	-0.621	0.126
-649.799	-22.148	-0.168	-0.103
-648.784	63.337	-0.135	0.137
-647.770	155.263	-0.120	-0.166
-646.755	-29.570	-0.294	-0.170
-645.741	800.000	-0.067	-0.207
-644.726	-105.333	0.319	0.073
-643.711	691.071	0.066	0.175
-642.697	-123.631	0.081	-0.013
-641.682	-104.146	-0.425	-0.100
-640.668	-116.524	0.144	-0.027
-639.653	-90.033	0.128	0.038
-638.638	25.889	-0.043	-0.036
-637.624	152.769	-0.121	-0.167
-636.609	-141.733	0.031	0.003
-635.595	126.055	0.131	-0.167
-634.580	-92.960	0.403	-0.113
-633.565	315.621	0.161	0.307
-632.551	-3.042	-0.254	-0.179
-631.536	-70.663	-0.035	0.013
-630.522	17.631	-0.261	-0.209
-629.507	397.325	-0.182	-0.383
-628.492	62.726	0.195	-0.196
-627.478	800.000	-0.072	0.237
-626.463	800.000	-0.016	0.060
-625.449	-130.627	0.387	-0.053
-624.434	-3.204	0.215	-0.151
-623.419	147.830	-0.122	-0.166
-622.405	-47.878	-0.136	0.066
-621.390	800.000	-0.031	0.101
-620.376	-132.856	0.114	-0.015
-619.361	11.797	0.075	-0.058
-618.346	-200.000	-0.014	0.248
-617.332	800.000	-0.085	0.270
-616.317	-151.413	-0.159	0.012
-615.303	-72.152	-0.438	-0.163
-614.288	-28.718	-0.155	-0.090
-613.273	-200.000	0.021	-0.219
-612.259	25.706	0.225	0.188
-611.244	-200.000	0.011	-0.118
-610.230	124.764	0.139	-0.176
-609.215	312.900	0.026	-0.048
-608.201	44.457	-0.136	-0.125
-607.186	79.828	-0.157	0.169
-606.171	150.097	-0.150	0.205
-605.157	800.000	0.046	0.175
-604.142	-5.080	-0.195	-0.135
-603.128	-200.000	-0.052	-0.249
-602.113	-200.000	-0.015	-0.131
-601.098	437.363	-0.035	-0.077
-600.084	460.950	-0.088	-0.197
-599.069	-200.000	0.026	-0.141
-598.055	479.175	0.108	-0.245
-597.040	-23.554	0.183	0.110
-596.025	-200.000	-0.013	0.278
-595.011	131.482	0.102	-0.132
-593.996	-16.841	-0.040	0.026
-592.982	-200.000	0.026	-0.261
-591.967	369.226	0.045	0.093
-590.952	546.672	-0.098	0.236
-589.938	58.946	0.115	-0.114
-588.923	18.129	-0.177	0.142
-587.909	114.214	-0.226	-0.276
-586.894	-125.752	0.139	0.021
-585.879	-74.242	0.039	-0.014
-584.865	430.424	0.025	0.054
-583.850	-34.053	0.263	0.146
-582.836	-136.599	-0.221	-0.026
-581.821	76.781	0.123	0.131
-580.806	51.818	0.241	0.230
-579.792	248.839	-0.097	-0.164
-578.777	292.170	0.088	0.160
-577.763	343.700	-0.118	-0.232
-576.748	70.065	-0.141	-0.146
-575.733	-112.236	0.271	-0.055
-574.719	800.000	0.050	-0.210
-573.704	-1.469	0.163	0.115
-572.690	-200.000	0.033	0.170
-571.675	800.000	-0.065	0.247
-570.661	-200.000	-0.050	-0.262
-569.646	16.370	0.174	0.138
-568.631	-98.228	0.104	-0.027
-567.617	42.839	-0.066	0.060
-566.602	574.982	-0.051	0.125
-565.588	-56.580	-0.440	-0.196
-564.573	66.312	-0.272	-0.277
-563.558	130.090	-0.064	-0.083
-562.544	-159.299	0.361	-0.020
-561.529	-71.626	0.158	-0.059
-560.515	-129.437	-0.115	0.016
-559.500	34.173	0.224	-0.196
-558.485	-200.000	-0.088	-0.402
-557.471	-200.000	0.023	-0.108
-556.456	-80.488	0.173	-0.058
-555.442	193.750	-0.196	-0.298
-554.427	28.158	-0.121	-0.102
-553.412	-135.039	-0.207	0.025
-552.398	-200.000	0.003	-0.123
-551.383	-154.847	0.147	-0.010
-550.369	-72.019	-0.154	-0.058
-549.354	-83.272	0.390	0.126
-548.339	-200.000	0.037	-0.221
-547.325	135.208	0.300	-0.392
-546.310	-119.042	0.234	0.041
-545.296	11.069	-0.192	0.148
-544.281	800.000	-0.108	-0.472
-543.266	486.860	0.081	-0.186
-542.252	800.000	-0.041	0.157
-541.237	66.813	-0.018	0.019
-540.223	-127.032	0.313	-0.046
-539.208	-34.641	-0.193	-0.106
-538.193	-53.656	0.251	-0.115
-537.179	64.653	0.251	-0.254
-536.164	-152.914	0.327	0.023
-535.150	2.933	-0.226	-0.164
-534.135	-200.000	0.013	-0.185
-533.121	162.363	-0.131	-0.185
-532.106	-200.000	-0.028	-0.175
-531.091	-43.633	-0.195	-0.099
-530.077	248.867	0.046	-0.078
-529.062	246.631	-0.151	-0.256
-528.048	-142.808	0.269	0.026
-527.033	190.163	-0.181	0.272
-526.018	-200.000	-0.023	-0.120
-525.004	214.446	-0.079	0.125
-523.989	-114.650	0.199	-0.038
-522.975	-112.727	-0.254	0.051
-521.960	800.000	0.059	-0.235
-520.945	800.000	0.031	-0.123
-519.931	-11.831	0.062	-0.041
-518.916	216.584	-0.101	0.161
-517.902	469.886	0.140	0.315
-516.887	800.000	-0.045	0.196
-515.872	-111.671	-0.335	0.068
-514.858	790.712	0.082	0.227
-513.843	-200.000	-0.005	-0.085
-512.829	-55.228	-0.050	0.022
-511.814	-129.830	-0.183	0.025
-510.799	88.781	-0.006	0.007
-509.785	100.344	-0.172	-0.200
-508.770	-90.263	-0.316	-0.092
-507.756	-65.815	0.054	-0.022
-506.741	-200.000	-0.006	0.031
-505.726	124.620	0.270	0.340
-504.712	-106.070	-0.145	0.033
-503.697	-12.701	0.025	0.016
-502.683	-3.512	-0.257	-0.179
-501.668	-142.027	-0.266	0.027
-500.653	-26.190	0.162	-0.096
-499.639	-132.948	-0.135	-0.017
-498.624	34.668	-0.102	-0.089
-497.610	-53.197	-0.149	0.069
-496.595	-64.366	0.168	0.069
-495.581	65.517	-0.047	0.047
-494.566	-200.000	0.015	0.177
-493.551	73.975	-0.176	-0.185
-492.537	504.768	0.086	-0.198
-491.522	352.860	0.030	0.060
-490.508	800.000	0.058	-0.181
-489.493	-60.704	0.221	0.094
-488.478	-47.578	0.180	-0.087
-487.464	300.956	0.017	-0.031
-486.449	50.221	0.088	0.083
-485.435	-107.764	0.165	0.036
-484.420	-107.586	-0.477	-0.104
-483.405	-200.000	0.021	-0.266
-482.391	148.468	-0.064	0.086
-481.376	-79.249	-0.037	0.012
-480.362	800.000	0.071	0.251
-479.347	-166.087	0.248	0.011
-478.332	84.346	-0.048	0.053
-477.318	-200.000	-0.005	-0.116
-476.303	-96.768	0.220	-0.058
-475.289	33.552	-0.093	0.081
-474.274	-200.000	0.015	-0.181
-473.259	356.582	0.104	-0.207
-472.245	425.071	-0.061	-0.131
-471.230	-41.626	0.091	-0.047
-470.216	34.624	0.140	0.122
-469.201	-68.727	-0.470	0.182
-468.186	137.212	-0.078	-0.102
-467.172	201.277	-0.203	0.313
-466.157	800.000	0.218	0.701
-465.143	467.681	-0.085	-0.191
-464.128	-183.682	-0.038	0.001
-463.113	123.823	0.213	-0.268
-462.099	-96.248	-0.238	0.063
-461.084	-71.221	-0.284	-0.107
-460.070	-98.661	0.139	0.035
-459.055	-8.786	-0.247	0.166
-458.040	-42.544	0.415	-0.211
-457.026	27.609	0.236	0.199
-456.011	31.947	-0.174	0.150
-454.997	-123.182	0.358	0.057
-453.982	-200.000	-0.028	-0.256
-452.968	-200.000	0.001	0.008
-451.953	-66.811	0.181	0.072
-450.938	-53.225	0.133	-0.061
-449.924	4.766	0.392	-0.288
-448.909	-1.348	-0.078	0.055
-447.895	104.993	0.066	-0.078
-446.880	8.276	0.138	0.104
-445.865	-200.000	-0.025	0.139
-444.851	407.271	-0.038	0.080
-443.836	-140.601	-0.353	-0.037
-442.822	256.492	-0.189	0.324
-441.807	-21.254	-0.468	-0.286
-440.792	800.000	-0.048	-0.147
-439.778	-17.081	0.158	0.100
-438.763	267.537	0.160	0.281
-437.749	800.000	0.080	-0.282
-436.734	-73.404	-0.465	0.170
-435.719	800.000	0.123	0.414
-434.705	254.918	0.103	-0.177
-433.690	19.987	-0.191	0.154
-432.676	168.207	0.237	0.337
-431.661	-200.000	-0.004	0.285
-430.646	365.977	0.075	0.151
-429.632	449.660	-0.096	0.212
-428.617	171.881	0.155	-0.222
-427.603	551.641	0.095	0.228
-426.588	-11.995	-0.130	-0.085
-425.573	219.018	-0.127	0.203
-424.559	47.288	0.240	0.223
-423.544	-200.000	-0.302	0.001
-422.530	3.020	0.161	-0.117
-421.515	-200.000	-0.009	-0.096
-420.500	-200.000	0.064	-0.290
-419.486	597.414	-0.153	-0.378
-418.471	187.633	-0.063	0.094
-417.457	-30.447	0.277	-0.157
-416.442	-200.000	0.012	-0.118
-415.428	-200.000	-0.012	0.114
-414.413	800.000	0.084	-0.350
-413.398	800.000	0.045	-0.191
-412.384	800.000	-0.088	0.306
-411.369	146.448	-0.222	-0.298
-410.355	289.479	0.118	-0.213
-409.340	-78.069	-0.234	0.081
-408.325	-200.000	-0.016	-0.242
-407.311	52.936	0.261	0.249
-406.296	-50.895	0.085	0.040
-405.282	192.924	0.224	-0.338
-404.267	-200.000	-0.021	0.170
-403.252	-48.301	0.223	-0.107
-402.238	194.775	0.157	0.238
-401.223	-149.971	-0.177	-0.014
-400.209	193.559	-0.137	-0.208
-399.194	-24.884	0.127	-0.076
-398.179	-200.000	0.012	-0.078
-397.165	14.744	0.419	-0.327
-396.150	42.533	-0.130	0.118
-395.136	141.254	-0.056	0.074
-394.121	800.000	0.124	-0.396
-393.106	-104.032	-0.153	-0.036
-392.092	-116.593	-0.145	0.027
-391.077	-11.388	0.138	-0.091
-390.063	-200.000	0.018	0.099
-389.048	-200.000	0.040	0.185
-388.033	-112.775	-0.076	-0.015
-387.019	-8.119	-0.070	0.047
-386.004	190.245	-0.028	0.041
-384.990	95.652	0.096	-0.109
-383.975	-56.018	0.376	-0.167
-382.960	-46.981	0.275	0.134
-381.946	54.856	-0.197	0.190
-380.931	800.000	-0.060	-0.211
-379.917	17.848	-0.115	-0.091
-378.902	-200.000	0.019	-0.131
-377.888	106.678	-0.209	-0.247
-376.873	-165.207	0.274	0.012
-375.858	8.260	0.110	-0.082
-374.844	-90.004	-0.123	-0.036
-373.829	57.058	-0.249	-0.242
-372.815	44.106	-0.062	-0.057
-371.800	-200.000	-0.072	0.366
-370.785	-41.883	0.288	-0.147
-369.771	-96.949	-0.161	-0.042
-368.756	-90.371	0.206	0.059
-367.742	800.000	-0.032	-0.104
-366.727	-158.037	-0.230	-0.013
-365.712	122.882	0.079	-0.098
-364.698	-200.000	0.026	-0.223
-363.683	66.011	-0.232	-0.235
-362.669	-81.479	-0.183	-0.060
-361.654	-83.579	0.069	-0.022
-360.639	189.818	0.138	0.206
-359.625	-42.204	0.038	0.019
-358.610	-200.000	-0.051	0.385
-357.596	-55.570	0.302	0.135
-356.581	92.532	-0.058	0.066
-355.566	-200.000	0.029	-0.171
-354.552	257.286	-0.212	0.363
-353.537	760.156	0.098	0.264
-352.523	-37.727	-0.021	-0.011
-351.508	653.276	-0.135	0.346
-350.493	-60.758	-0.118	-0.050
-349.479	44.309	-0.155	0.142
-348.464	223.196	0.072	-0.116
-347.450	-200.000	0.010	-0.281
-346.435	569.105	-0.096	0.232
-345.420	309.918	-0.212	0.395
-344.406	-200.000	0.043	0.242
-343.391	-61.153	-0.218	0.091
-342.377	32.503	-0.115	0.099
-341.362	-168.790	-0.332	-0.012
-340.348	-200.000	-0.019	-0.107
-339.333	-88.758	0.091	0.027
-338.318	800.000	0.107	0.369
-337.304	64.652	-0.124	0.125
-336.289	800.000	-0.094	0.334
-335.275	-200.000	0.019	0.275
-334.260	800.000	0.134	-0.477
-333.245	48.346	-0.030	-0.028
-332.231	4.759	0.123	-0.090
-331.216	-200.000	-0.026	0.161
-330.202	155.799	0.089	-0.122
-329.187	371.790	-0.193	-0.391
-328.172	298.964	-0.086	-0.158
-327.158	-32.753	0.197	0.109
-326.143	-138.422	-0.147	-0.016
-325.129	-200.000	0.055	-0.327
-324.114	-200.000	0.027	0.319
-323.099	-200.000	0.005	0.071
-322.085	7.523	0.143	0.106
-321.070	293.604	0.095	0.173
-320.056	-200.000	0.018	0.202
-319.041	278.139	0.196	0.347
-318.026	703.142	0.058	-0.151
-317.012	-8.404	0.117	0.078
-315.997	-74.560	0.295	-0.106
-314.983	800.000	0.033	-0.093
-313.968	-200.000	-0.011	0.265
-312.953	73.564	0.272	-0.284
-311.939	-50.320	-0.164	0.077
-310.924	176.022	-0.174	0.251
-309.910	-78.221	0.174	-0.059
-308.895	-200.000	-0.004	0.212
-307.880	-130.702	-0.580	-0.078
-306.866	-200.000	0.024	-0.143
-305.851	-143.949	0.085	0.008
-304.837	116.974	0.078	0.096
-303.822	800.000	-0.051	0.165
-302.807	330.412	-0.086	0.164
-301.793	-6.450	0.063	-0.043
-300.778	800.000	-0.061	0.208
-299.764	435.759	0.067	-0.146
-298.749	-200.000	-0.007	-0.196
-297.735	39.745	0.097	0.087
-296.720	-200.000	-0.025	0.118
-295.705	483.170	-0.210	0.474
-294.691	378.837	-0.179	0.365
-293.676	-123.571	0.195	-0.031
-292.662	74.895	0.126	0.132
-291.647	-81.470	0.374	0.122
-290.632	208.199	0.114	0.177
-289.618	204.103	-0.108	0.167
-288.603	103.092	-0.075	-0.088
-287.589	-59.079	-0.157	-0.067
-286.574	385.975	-0.224	0.460
-285.559	-42.527	0.388	-0.196
-284.545	-200.000	-0.010	0.089
-283.530	-57.299	-0.472	0.206
-282.516	800.000	0.033	-0.137
-281.501	-12.718	-0.274	-0.177
-280.486	800.000	-0.049	-0.181
-279.472	-200.000	0.021	-0.136
-278.457	-31.680	0.330	-0.184
-277.443	-19.782	0.068	-0.042
-276.428	226.319	0.165	0.266
-275.413	-200.000	-0.049	0.310
-274.399	800.000	-0.124	0.361
-273.384	42.183	0.165	0.149
-272.370	110.047	-0.182	0.217
-271.355	150.419	0.081	0.110
-270.340	-139.153	-0.519	-0.056
-269.326	191.329	-0.056	-0.084
-268.311	629.097	0.043	-0.108
-267.297	-12.612	-0.150	0.097
-266.282	-141.025	-0.264	-0.027
-265.267	-200.000	-0.021	-0.333
-264.253	596.932	-0.070	-0.172
-263.238	20.726	0.082	0.066
-262.224	80.434	-0.048	-0.051
-261.209	68.993	0.239	0.243
-260.195	-15.737	-0.176	-0.111
-259.180	174.255	-0.152	-0.218
-258.165	52.738	0.258	0.245
-257.151	-135.753	-0.083	-0.010
-256.136	800.000	-0.055	0.184
-255.122	-200.000	0.011	-0.273
-254.107	200.910	-0.029	0.044
-253.092	-200.000	-0.009	-0.093
-252.078	-40.502	0.217	-0.112
-251.063	-29.080	0.283	-0.161
-250.049	-160.432	0.270	-0.014
-249.034	89.499	-0.228	-0.253
-248.019	-3.792	0.090	0.062
-247.005	-190.859	0.218	0.002
-245.990	-87.153	0.454	-0.137
-244.976	-131.850	0.195	-0.025
-243.961	-39.329	0.226	0.118
-242.946	800.000	-0.066	0.237
-241.932	242.557	-0.211	-0.350
-240.917	568.521	-0.086	-0.208
-239.903	726.349	0.052	-0.136
-238.888	8.792	0.214	0.160
-237.873	168.566	-0.139	-0.197
-236.859	13.921	-0.248	-0.191
-235.844	-200.000	0.008	0.068
-234.830	-18.012	-0.247	0.154
-233.815	-129.104	-0.359	0.050
-232.800	-94.894	-0.232	0.062
-231.786	-200.000	-0.008	-0.035
-230.771	263.418	-0.170	0.293
-229.757	183.720	0.097	0.142
-228.742	-200.000	0.049	0.306
-227.727	-84.796	0.197	0.061
-226.713	-74.727	-0.287	-0.102
-225.698	-33.125	-0.356	0.196
-224.684	-200.000	-0.000	-0.001
-223.669	-200.000	-0.014	0.064
-222.655	-200.000	-0.009	0.199
-221.640	308.988	-0.136	0.253
-220.625	800.000	0.105	0.310
-219.611	-200.000	-0.010	0.060
-218.596	59.868	-0.271	-0.265
-217.582	-108.885	-0.114	-0.024
-216.567	715.918	0.039	-0.102
-215.552	584.703	-0.192	-0.466
-214.538	-97.412	0.133	0.034
-213.523	-200.000	0.034	-0.428
-212.509	-124.918	-0.250	0.038
-211.494	-110.989	-0.417	0.085
-210.479	221.298	0.079	-0.126
-209.465	-200.000	0.028	-0.317
-208.450	-200.000	0.036	0.196
-207.436	-67.231	0.201	-0.078
-206.421	-122.199	0.243	-0.039
-205.406	-42.886	0.135	-0.068
-204.392	162.357	0.272	0.378
-203.377	800.000	0.144	0.478
-202.363	121.922	0.200	0.247
-201.348	-200.000	-0.047	-0.242
-200.333	137.359	-0.124	0.161
-199.319	-80.892	0.127	-0.042
-198.304	131.903	-0.056	0.071
-197.290	-200.000	-0.012	0.150
-196.275	-200.000	-0.008	0.159
-195.260	102.897	0.204	0.236
-194.246	236.637	0.203	0.333
-193.231	308.681	0.061	0.112
-192.217	-70.704	-0.650	-0.243
-191.202	228.040	0.026	0.042
-190.187	325.173	0.129	0.244
-189.173	-51.764	0.146	0.067
-188.158	-127.055	0.249	-0.036
-187.144	-200.000	-0.003	0.112
-186.129	6.284	0.099	-0.073
-185.114	767.415	-0.031	-0.084
-184.100	-200.000	0.054	0.380
-183.085	261.842	-0.193	0.331
-182.071	-81.526	-0.175	-0.057
-181.056	32.478	0.128	0.110
-180.042	76.062	-0.072	-0.076
-179.027	800.000	0.108	-0.366
-178.012	-124.645	-0.166	-0.025
-176.998	-109.044	0.078	-0.016
-175.983	49.574	-0.065	-0.061
-174.969	242.145	-0.110	-0.182
-173.954	800.000	0.105	0.299
-172.939	-81.233	0.282	0.092
-171.925	21.913	0.046	-0.037
-170.910	800.000	0.088	0.313
-169.896	127.108	0.302	-0.379
-168.881	-79.165	-0.368	0.123
-167.866	-200.000	0.048	-0.239
-166.852	201.411	-0.151	-0.230
-165.837	765.199	0.146	-0.393
-164.823	-73.615	0.229	-0.083
-163.808	4.067	-0.132	0.096
-162.793	-152.548	0.294	-0.021
-161.779	-3.038	0.155	-0.107
-160.764	800.000	0.110	0.385
-159.750	800.000	0.063	0.233
-158.735	62.991	0.049	0.049
-157.720	212.538	-0.075	-0.117
-156.706	-49.576	-0.126	0.059
-155.691	-107.155	-0.280	0.061
-154.677	795.170	-0.008	-0.022
-153.662	-38.250	0.154	0.081
-152.647	4.059	0.273	0.198
-151.633	-38.250	0.173	0.091
-150.618	-200.000	0.030	-0.351
-149.604	-166.358	-0.144	0.006
-148.589	800.000	0.044	0.134
-147.574	290.750	-0.250	-0.450
-146.560	-180.172	-0.128	-0.003
-145.545	-163.895	0.124	-0.006
-144.531	-65.198	-0.219	0.087
-143.516	-200.000	0.029	0.146
-142.502	-72.660	-0.165	-0.060
-141.487	-114.393	-0.197	-0.037
-140.472	558.467	0.075	-0.178
-139.458	260.793	0.169	-0.290
-138.443	34.340	0.110	-0.095
-137.429	335.023	-0.100	-0.192
-136.414	-77.336	-0.203	-0.070
-135.399	-130.372	0.238	-0.032
-134.385	50.930	-0.153	-0.143
-133.370	353.747	-0.018	-0.036
-132.356	26.387	0.047	0.039
-131.341	-93.892	-0.130	-0.035
-130.326	378.230	0.045	-0.092
-129.312	800.000	0.123	0.415
-128.297	-138.213	0.175	0.019
-127.283	26.177	-0.144	0.119
-126.268	-52.943	0.260	0.118
-125.253	800.000	-0.071	0.232
-124.239	109.039	0.208	0.246
-123.224	-36.929	-0.249	-0.132
-122.210	110.817	0.216	0.257
-121.195	-200.000	0.027	0.364
-120.180	-93.013	0.244	0.067
-119.166	200.346	0.108	-0.164
-118.151	-65.290	-0.453	-0.180
-117.137	-3.229	-0.113	0.078
-116.122	120.181	-0.304	0.372
-115.107	-82.131	-0.176	0.057
-114.093	-200.000	-0.033	-0.357
-113.078	87.224	-0.058	-0.064
-112.064	-200.000	-0.006	0.098
-111.049	289.037	-0.006	0.011
-110.034	78.719	0.138	-0.146
-109.020	-66.109	0.307	0.121
-108.005	-200.000	0.010	0.215
-106.991	-10.397	0.033	0.022
-105.976	-2.449	0.247	-0.170
-104.962	38.561	-0.182	0.160
-103.947	-166.173	-0.177	-0.007
-102.932	-122.359	0.241	0.039
-101.918	800.000	0.043	0.166
-100.903	79.856	0.085	0.090
-99.889	800.000	0.029	0.095
-98.874	376.914	-0.071	0.144
-97.859	0.299	-0.108	-0.076
-96.845	-200.000	-0.010	0.279
-95.830	800.000	0.084	-0.273
-94.816	-161.316	0.101	-0.005
-93.801	80.130	0.055	0.059
-92.786	66.430	-0.062	-0.062
-91.772	800.000	0.027	-0.084
-90.757	-71.679	0.149	-0.055
-89.743	-200.000	0.001	0.420
-88.728	-28.988	-0.247	0.140
-87.713	133.917	0.139	0.178
-86.699	469.707	0.011	0.024
-85.684	-88.262	0.441	-0.130
-84.670	260.872	-0.175	0.298
-83.655	-0.452	-0.161	-0.113
-82.640	-141.745	-0.127	0.013
-81.626	653.979	-0.079	-0.199
-80.611	-159.081	0.158	0.009
-79.597	-200.000	0.053	-0.243
-78.582	318.965	0.106	-0.198
-77.567	800.000	-0.129	0.366
-76.553	22.436	0.250	-0.201
-75.538	-200.000	0.018	-0.289
-74.524	721.964	0.115	0.301
-73.509	-150.018	0.199	-0.015
-72.494	800.000	0.063	-0.256
-71.480	-0.950	0.013	-0.009
-70.465	800.000	-0.048	0.176
-69.451	800.000	0.064	-0.249
-68.436	-21.050	-0.253	0.153
-67.422	-109.549	-0.449	0.093
-66.407	86.316	0.278	-0.302
-65.392	-71.669	0.231	-0.085
-64.378	172.164	0.101	0.144
-63.363	800.000	-0.114	0.480
-62.349	-118.499	0.147	0.026
-61.334	64.031	-0.741	-0.734
-60.319	106.412	0.409	0.477
-59.305	-200.000	-0.052	-0.893
-58.290	279.014	0.612	1.075
-57.276	632.149	0.681	1.698
-56.261	-200.000	94.946	572.650
-55.246	647.341	1373.309	3456.214
-54.232	199.803	2544.128	3844.282
-53.217	120.230	2140.547	2615.850
-52.203	44.507	1605.476	1452.391
-51.188	36.225	1343.757	1165.790
-50.173	32.905	1302.121	1110.138
-49.159	55.147	1347.808	1282.457
-48.144	57.142	1365.110	1310.783
-47.130	36.374	1324.165	1149.499
-46.115	32.867	1306.950	1113.856
-45.100	32.747	1301.751	1108.674
-44.086	32.626	1299.563	1106.061
-43.071	32.603	1297.576	1104.192
-42.057	32.627	1295.089	1102.168
-41.042	32.696	1293.283	1100.992
-40.027	32.651	1292.184	1099.753
-39.013	32.589	1290.408	1097.834
-37.998	32.645	1288.400	1096.405
-36.984	32.582	1286.941	1094.758
-35.969	32.618	1285.006	1093.275
-34.954	32.679	1283.481	1092.286
-33.940	32.807	1282.191	1091.886
-32.925	32.816	1280.215	1090.215
-31.911	32.855	1278.579	1089.000
-30.896	32.767	1277.489	1087.522
-29.881	32.817	1276.339	1086.791
-28.867	32.881	1274.726	1085.739
-27.852	32.816	1273.227	1084.045
-26.838	32.841	1271.730	1082.873
-25.823	32.830	1270.321	1081.566
-24.809	32.805	1269.195	1080.424
-23.794	32.681	1268.073	1078.714
-22.779	32.749	1266.402	1077.639
-21.765	32.780	1265.310	1076.844
-20.750	32.727	1264.080	1075.454
-19.736	32.733	1262.824	1074.379
-18.721	32.555	1262.108	1072.710
-17.706	32.668	1260.937	1072.317
-16.692	32.651	1259.627	1071.060
-15.677	32.586	1258.632	1069.805
-14.663	32.562	1257.585	1068.739
-13.648	32.668	1256.086	1068.021
-12.633	32.773	1254.751	1067.440
-11.619	32.570	1254.786	1066.277
-10.604	32.587	1253.618	1065.336
-9.590	32.592	1252.600	1064.457
-8.575	32.499	1252.089	1063.457
-7.560	32.635	1250.692	1062.992
-6.546	32.642	1250.279	1062.638
-5.531	32.592	1248.732	1061.003
-4.517	32.580	1248.229	1060.465
-3.502	32.695	1247.739	1060.656
-2.487	32.613	1246.443	1059.049
-1.473	32.712	1242.296	1056.037
-0.458	31.313	1227.120	1035.350
0.556	26.766	1209.685	996.689
1.571	23.152	1214.280	980.404
2.586	22.248	1229.014	987.138
3.600	21.462	1218.287	974.058
4.615	16.431	1146.748	890.341
5.629	8.365	1073.416	793.409
6.644	4.899	1053.562	761.740
7.659	4.640	1050.999	758.556
8.673	4.577	1050.583	757.884
9.688	4.734	1048.667	757.198
10.702	4.699	1047.180	755.889
11.717	9.134	1053.307	781.877
12.731	16.520	1062.872	825.072
13.746	19.205	1065.771	840.367
14.761	18.393	1064.381	835.239
15.775	17.493	1061.900	828.839
16.790	16.314	1060.130	821.646
17.804	15.454	1058.706	816.291
18.819	15.118	1058.055	814.085
19.834	15.026	1056.530	812.394
20.848	14.783	1055.908	810.664
21.863	14.527	1055.034	808.680
22.877	14.469	1054.306	807.768
23.892	14.335	1053.514	806.444
24.907	14.399	1053.416	806.606
25.921	14.349	1052.180	805.347
26.936	14.567	1050.009	804.666
27.950	14.451	1049.501	803.643
28.965	14.563	1047.955	802.929
29.980	14.604	1046.333	801.813
30.994	14.763	1045.419	801.806
32.009	14.796	1043.947	800.765
33.023	14.739	1042.971	799.673
34.038	14.689	1042.236	798.799
35.053	14.514	1041.321	797.187
36.067	14.438	1040.617	796.217
37.082	14.555	1039.568	795.903
38.096	14.574	1039.093	795.559
39.111	14.643	1037.802	794.826
40.126	14.392	1037.221	793.118
41.140	14.288	1035.652	791.353
42.155	14.380	1034.176	790.593
43.169	14.331	1033.240	789.572
44.184	14.300	1032.320	788.656
45.199	14.363	1030.787	787.710
46.213	14.472	1030.161	787.676
47.228	14.504	1029.350	787.138
48.242	14.551	1027.853	786.147
49.257	14.462	1026.720	784.794
50.271	14.580	1026.001	784.729
51.286	14.513	1025.201	783.730
52.301	14.538	1024.302	783.093
53.315	14.466	1023.317	781.932
54.330	14.412	1022.453	780.952
55.344	14.327	1021.120	779.467
56.359	14.368	1020.328	778.985
57.374	14.472	1019.335	778.642
58.388	14.361	1018.284	777.253
59.403	14.321	1017.885	776.694
60.417	14.327	1017.190	776.122
61.432	14.315	1016.253	775.281
62.447	14.283	1015.413	774.423
63.461	14.231	1014.546	773.451
64.476	14.216	1013.736	772.698
65.490	14.247	1013.048	772.246
66.505	14.115	1012.435	771.100
67.520	14.367	1011.149	771.218
68.534	14.262	1011.032	770.575
69.549	14.040	1010.945	769.412
70.563	14.206	1009.667	769.140
71.578	14.256	1008.414	768.349
72.593	14.118	1007.767	767.151
73.607	14.140	1006.930	766.549
74.622	14.175	1006.300	766.163
75.636	14.156	1005.554	765.438
76.651	14.084	1005.208	764.776
77.666	14.322	1004.439	765.218
78.680	14.180	1003.860	764.055
79.695	14.242	1003.569	764.049
80.709	14.396	1002.570	763.927
81.724	14.293	1002.442	763.291
82.739	14.333	1001.506	762.693
83.753	14.428	1000.684	762.437
84.768	14.683	999.686	762.771
85.782	14.663	998.917	762.029
86.797	14.522	998.048	760.653
87.812	14.465	997.291	759.750
88.826	14.525	996.160	759.094
89.841	14.514	995.122	758.187
90.855	14.623	994.129	757.860
91.870	14.747	993.109	757.574
92.884	14.622	992.643	756.585
93.899	14.787	991.673	756.525
94.914	14.701	991.033	755.583
95.928	14.761	990.077	755.061
96.943	14.698	989.244	754.074
97.957	14.668	988.705	753.458
98.972	14.637	987.568	752.387
99.987	14.629	986.949	751.812
101.001	14.785	985.682	751.482
102.016	14.704	985.030	750.556
103.030	14.696	984.576	750.108
104.045	14.579	983.890	748.991
105.060	14.556	982.584	747.830
106.074	14.477	981.600	746.661
107.089	14.469	980.332	745.593
108.103	14.342	979.933	744.655
109.118	14.277	979.039	743.621
110.133	14.343	977.790	742.901
111.147	14.301	976.820	741.910
112.162	14.483	975.897	741.953
113.176	14.364	975.582	741.120
114.191	14.532	975.019	741.372
115.206	14.490	974.214	740.510
116.220	14.220	973.612	738.789
117.235	14.399	972.492	738.665
118.249	14.419	971.612	738.020
119.264	14.469	970.599	737.409
120.279	14.368	969.819	736.303
121.293	14.355	969.263	735.760
122.308	14.291	968.504	734.836
123.322	14.154	967.884	733.695
124.337	14.229	966.453	732.877
125.352	14.276	965.243	732.098
126.366	14.305	964.398	731.522
127.381	14.229	963.754	730.637
128.395	14.298	962.836	730.176
129.410	14.353	961.658	729.459
130.424	14.431	961.052	729.275
131.439	14.537	959.951	728.839
132.454	14.403	959.729	728.023
133.468	14.461	958.989	727.650
134.483	14.437	958.059	726.776
135.497	14.371	957.546	726.032
136.512	14.537	956.588	725.965
137.527	14.417	955.334	724.428
138.541	14.519	954.979	724.538
139.556	14.555	954.317	724.129
140.570	14.623	953.822	723.983
141.585	14.802	952.934	724.020
142.600	14.729	951.836	722.806
143.614	14.664	951.274	722.033
144.629	14.753	950.140	721.494
145.643	14.735	949.354	720.757
146.658	14.592	948.313	719.287
147.673	14.663	947.195	718.680
148.687	14.579	946.383	717.637
149.702	14.581	945.838	717.169
150.716	14.466	944.864	715.876
151.731	14.574	943.909	715.550
152.746	14.470	943.366	714.632
153.760	14.633	942.556	714.652
154.775	14.561	942.672	714.368
155.789	14.724	941.574	714.171
156.804	14.703	940.665	713.327
157.819	14.915	939.777	713.495
158.833	14.798	939.703	712.876
159.848	14.903	938.511	712.355
160.862	14.863	937.698	711.507
161.877	14.614	936.789	709.694
162.892	14.565	935.935	708.776
163.906	14.397	935.320	707.533
164.921	14.717	933.919	707.770
165.935	14.826	932.759	707.288
166.950	14.660	932.664	706.454
167.964	14.659	931.746	705.688
168.979	14.688	930.873	705.090
169.994	14.814	929.411	704.450
171.008	14.703	929.002	703.611
172.023	14.866	928.641	703.962
173.037	14.904	927.532	703.219
174.052	14.866	926.729	702.388
175.067	14.793	925.978	701.449
176.081	14.642	926.174	700.903
177.096	14.720	925.070	700.331
178.110	14.695	924.855	700.003
179.125	14.797	924.052	699.760
180.140	14.725	923.413	698.912
181.154	14.838	922.622	698.723
182.169	14.964	922.548	699.132
183.183	15.041	921.911	698.911
184.198	15.070	920.738	698.080
185.213	14.876	920.616	697.115
186.227	15.081	919.802	697.292
187.242	15.028	918.942	696.360
188.256	15.071	919.085	696.583
189.271	15.092	917.846	695.671
190.286	14.851	917.351	694.233
191.300	14.702	916.266	692.732
192.315	14.717	915.565	692.203
193.329	14.626	915.377	691.623
194.344	14.792	914.448	691.548
195.359	14.972	913.790	691.733
196.373	14.876	913.400	690.981
197.388	15.161	912.962	691.762
198.402	15.189	912.889	691.762
199.417	15.332	911.954	691.584
200.432	15.232	911.417	690.704
201.446	15.252	911.203	690.560
202.461	15.276	911.006	690.449
203.475	15.396	909.830	689.992
204.490	15.375	908.954	689.180
205.504	15.233	908.323	688.057
206.519	15.146	907.725	687.187
207.534	15.201	906.467	686.400
208.548	15.271	906.423	686.589
209.563	15.261	905.442	685.747
210.577	15.297	904.810	685.353
211.592	15.453	904.235	685.496
212.607	15.404	903.694	684.823
213.621	15.399	902.623	683.931
214.636	15.426	901.783	683.344
215.650	15.582	901.153	683.441
216.665	15.495	900.820	682.776
217.680	15.536	900.112	682.344
218.694	15.498	899.486	681.653
219.709	15.567	898.817	681.369
220.723	15.599	898.156	680.937
221.738	15.645	897.341	680.443
222.753	15.501	897.001	679.544
223.767	15.626	896.375	679.516
224.782	15.779	895.388	679.324
225.796	15.602	895.409	678.565
226.811	15.500	894.820	677.648
227.826	15.642	893.960	677.506
228.840	15.415	893.319	676.046
229.855	15.500	892.636	675.814
230.869	15.470	891.764	674.973
231.884	15.525	890.719	674.343
232.899	15.360	890.402	673.381
233.913	15.520	889.393	673.201
234.928	15.558	888.859	672.886
235.942	15.384	888.298	671.708
236.957	15.368	887.630	671.079
237.972	15.521	886.980	671.138
238.986	15.513	886.401	670.610
240.001	15.552	885.864	670.301
241.015	15.594	885.287	669.972
242.030	15.632	884.821	669.712
243.045	15.725	884.057	669.445
244.059	15.601	883.821	668.714
245.074	15.582	883.227	668.128
246.088	15.699	882.415	667.920
247.103	15.655	881.847	667.256
248.117	15.842	881.339	667.555
249.132	15.854	881.260	667.484
250.147	16.115	880.182	667.641
251.161	16.089	879.714	667.123
252.176	16.068	879.114	666.526
253.190	16.308	878.055	666.612
254.205	16.193	877.661	665.800
255.220	16.055	877.176	664.829
256.234	16.143	876.356	664.498
257.249	16.132	875.641	663.851
258.263	16.134	874.951	663.277
259.278	16.098	874.652	662.851
260.293	16.218	873.850	662.655
261.307	16.249	873.569	662.505
262.322	16.336	872.614	662.066
263.336	16.282	872.014	661.338
264.351	16.245	871.400	660.669
265.366	16.454	870.409	660.676
266.380	16.338	869.940	659.808
267.395	16.228	869.302	658.836
268.409	16.421	868.091	658.613
269.424	16.398	867.753	658.211
270.439	16.271	866.885	656.997
271.453	16.287	866.498	656.708
272.468	16.220	866.151	656.127
273.482	16.225	865.509	655.604
274.497	16.346	864.618	655.341
275.512	16.249	864.064	654.486
276.526	16.390	863.554	654.590
277.541	16.254	863.665	654.087
278.555	16.398	862.785	653.920
279.570	16.665	861.917	654.238
280.585	16.689	861.218	653.741
281.599	16.464	860.475	652.252
282.614	16.316	860.260	651.459
283.628	16.329	859.520	650.893
284.643	16.520	858.893	651.095
285.657	16.500	857.959	650.253
286.672	16.440	857.756	649.811
287.687	16.555	857.006	649.626
288.701	16.631	856.485	649.464
289.716	16.629	855.866	648.931
290.730	16.456	855.608	648.015
291.745	16.523	854.902	647.680
292.760	16.547	854.434	647.359
293.774	16.696	853.355	647.054
294.789	16.762	852.725	646.772
295.803	16.698	852.190	646.061
296.818	16.723	851.382	645.490
297.833	16.652	850.695	644.642
298.847	16.514	850.334	643.784
299.862	16.784	849.665	644.249
300.876	16.738	849.135	643.614
301.891	16.801	848.720	643.482
302.906	16.763	848.206	642.893
303.920	16.951	847.464	642.984
304.935	17.038	847.046	642.941
305.949	16.928	846.526	642.074
306.964	16.828	845.859	641.130
307.979	16.892	845.269	640.867
308.993	16.923	844.705	640.503
310.008	17.062	844.079	640.496
311.022	16.979	843.659	639.808
312.037	16.792	843.263	638.745
313.052	16.810	842.292	638.021
314.066	16.709	842.091	637.434
315.081	16.811	841.414	637.247
316.095	16.803	840.707	636.624
317.110	16.726	839.934	635.692
318.125	16.964	839.552	636.243
319.139	16.795	839.766	635.715
320.154	16.883	838.708	635.186
321.168	16.907	838.162	634.806
322.183	16.844	837.884	634.304
323.197	16.949	837.398	634.274
324.212	16.941	836.818	633.748
325.227	17.017	836.147	633.468
326.241	16.953	835.628	632.777
327.256	16.969	834.921	632.246
328.270	17.002	834.135	631.718
329.285	16.956	833.738	631.189
330.300	16.918	833.133	630.537
331.314	17.072	832.624	630.666
332.329	16.976	832.014	629.794
333.343	17.001	831.784	629.654
334.358	17.000	831.591	629.451
335.373	17.171	831.454	629.926
336.387	17.174	831.161	629.658
337.402	17.275	830.691	629.619
338.416	17.173	830.409	628.973
339.431	17.333	830.077	629.259
340.446	17.367	829.522	628.906
341.460	17.388	829.009	628.540
342.475	17.388	828.891	628.395
343.489	17.400	828.359	627.981
344.504	17.475	827.982	627.916
345.519	17.614	827.369	627.906
346.533	17.444	827.032	626.972
347.548	17.286	826.568	625.983
348.562	17.290	825.549	625.171
349.577	17.425	824.935	625.146
350.592	17.370	824.275	624.386
351.606	17.335	823.714	623.777
352.621	17.418	822.920	623.427
353.635	17.545	822.278	623.349
354.650	17.409	821.842	622.468
355.665	17.446	821.245	622.094
356.679	17.399	820.514	621.314
357.694	17.517	820.149	621.413
358.708	17.379	819.789	620.583
359.723	17.418	818.990	620.065
360.738	17.422	818.400	619.579
361.752	17.486	818.221	619.621
362.767	17.630	817.626	619.637
363.781	17.621	816.738	618.879
364.796	17.724	816.170	618.766
365.810	17.789	816.159	618.940
366.825	17.752	815.726	618.424
367.840	17.888	815.057	618.352
368.854	17.951	814.417	618.040
369.869	17.809	813.893	617.075
370.883	17.708	813.966	616.709
371.898	17.806	813.303	616.509
372.913	17.826	813.375	616.579
373.927	17.843	812.745	616.110
374.942	18.070	811.816	616.168
375.956	17.983	811.709	615.721
376.971	18.007	811.133	615.315
377.986	17.966	810.966	614.985
379.000	17.970	810.305	614.446
380.015	18.065	809.616	614.209
381.029	18.043	809.092	613.679
382.044	18.198	808.403	613.658
383.059	18.112	807.953	612.951
384.073	18.027	807.259	612.069
385.088	17.902	806.903	611.296
386.102	17.847	806.334	610.613
387.117	18.051	805.713	610.819
388.132	17.940	805.156	609.947
389.146	17.916	804.813	609.546
390.161	17.981	804.180	609.246
391.175	18.158	803.729	609.482
392.190	18.086	803.321	608.863
393.205	17.919	802.829	607.839
394.219	17.914	802.473	607.499
395.234	18.020	801.852	607.353
396.248	17.955	801.714	606.961
397.263	17.963	800.999	606.395
398.278	17.886	801.121	606.163
399.292	18.020	800.241	605.916
400.307	18.056	799.546	605.465
401.321	17.805	799.542	604.517
402.336	18.046	799.142	605.018
403.350	18.058	798.659	604.639
404.365	18.188	797.855	604.437
405.380	18.266	797.522	604.405
406.394	18.397	796.741	604.224
407.409	18.304	796.774	603.866
408.423	18.438	796.811	604.315
409.438	18.557	795.909	603.997
410.453	18.434	795.717	603.363
411.467	18.520	795.012	603.079
412.482	18.576	794.622	602.924
413.496	18.653	794.175	602.803
414.511	18.652	794.415	602.930
415.526	18.452	793.602	601.557
416.540	18.580	793.240	601.677
417.555	18.580	792.512	601.072
418.569	18.447	792.223	600.334
419.584	18.520	791.648	600.100
420.599	18.689	791.286	600.366
421.613	157.203	1370.558	1797.277
422.628	136.060	1454.930	1797.411
