DTS Sentinel unit serial number:	SN413079Multiplexer serial number:	ORYXHardware model number:	OX4-SRSoftware version number:	ORYX F/W v4.00 Oryx Data Collector v3.7.2.0data status	okinstallation	princeton_trtdifferential loss correction	single-endedforward channel	channel 1reverse channel	N/Adate	2019/09/19time	00:54:35forward acquisition time	60.00reverse acquisition time	0.00gamma	496.2192k internal	0.2343k external	0.2343temperature offset calibration	1.0019default loss term (dB/km)	0.3790temperature slope calibration	1.0000multiplexer offset coefficient	1.0000multiplexer slope coefficient	1.0000fibre end	0.00T internal ref (°C)	22.02T ext. ref 1 (°C)	0.72T ext. ref 2 (°C)	15.36length (m)	temperature (°C)	Stokes	anti-Stokes-747.200	-93.597	-0.260	-0.072
-746.185	10.743	-0.251	0.192
-745.171	332.136	-0.121	0.235
-744.156	80.228	0.047	0.050
-743.142	-149.494	0.199	-0.016
-742.127	363.968	0.157	0.316
-741.112	-200.000	-0.024	-0.171
-740.098	-200.000	0.010	0.329
-739.083	-154.796	-0.265	0.018
-738.069	61.519	-0.344	0.343
-737.054	16.337	0.304	0.240
-736.039	134.881	-0.151	0.196
-735.025	-17.779	0.092	-0.058
-734.010	-26.681	-0.088	-0.052
-732.996	-200.000	-0.024	-0.123
-731.981	19.795	-0.217	-0.175
-730.966	-38.473	-0.120	0.063
-729.952	800.000	-0.028	-0.084
-728.937	507.514	-0.131	-0.304
-727.923	-72.041	-0.238	-0.088
-726.908	-36.826	-0.273	0.147
-725.894	-47.345	-0.240	-0.117
-724.879	43.151	-0.345	-0.315
-723.864	131.444	0.201	-0.258
-722.850	75.865	0.235	-0.248
-721.835	67.975	-0.257	-0.263
-720.821	-81.843	-0.173	-0.057
-719.806	-150.042	-0.150	0.012
-718.791	-27.570	0.060	0.035
-717.777	-167.778	-0.198	0.008
-716.762	-35.244	-0.325	-0.177
-715.748	-124.540	0.330	0.051
-714.733	-95.904	-0.339	-0.090
-713.718	481.464	0.083	0.189
-712.704	20.571	-0.236	-0.191
-711.689	-74.452	0.258	-0.093
-710.675	-102.821	-0.158	-0.038
-709.660	-126.057	0.202	-0.030
-708.645	-200.000	-0.037	-0.192
-707.631	-200.000	0.003	0.024
-706.616	800.000	0.033	-0.120
-705.602	67.762	0.291	-0.298
-704.587	-200.000	0.083	-0.376
-703.572	-25.305	-0.155	0.092
-702.558	-200.000	-0.040	0.280
-701.543	-91.027	0.180	0.052
-700.529	38.306	0.052	0.047
-699.514	485.866	0.081	0.185
-698.499	-39.685	0.090	0.047
-697.485	-110.523	0.168	0.035
-696.470	-72.812	0.138	-0.051
-695.456	-200.000	-0.011	0.194
-694.441	-200.000	0.021	-0.196
-693.426	-36.646	0.242	-0.130
-692.412	800.000	-0.089	-0.359
-691.397	-200.000	0.005	-0.121
-690.383	309.894	0.032	-0.059
-689.368	234.671	-0.061	-0.101
-688.354	373.901	-0.116	-0.236
-687.339	-109.940	0.296	-0.062
-686.324	-133.219	-0.303	0.038
-685.310	453.106	0.096	-0.211
-684.295	539.234	0.032	-0.077
-683.281	635.543	0.018	0.046
-682.266	-126.130	0.015	0.002
-681.251	24.481	-0.054	0.044
-680.237	-200.000	-0.017	0.403
-679.222	-200.000	0.007	0.337
-678.208	-28.915	-0.251	0.144
-677.193	800.000	-0.107	0.328
-676.178	-200.000	-0.071	0.412
-675.164	-18.182	-0.159	0.099
-674.149	-141.065	0.496	0.051
-673.135	800.000	-0.139	-0.566
-672.120	540.542	-0.132	-0.315
-671.105	-168.024	-0.203	-0.008
-670.091	222.771	-0.073	-0.118
-669.076	540.441	-0.177	-0.421
-668.062	7.257	0.194	-0.145
-667.047	-89.117	-0.189	0.056
-666.032	132.516	0.073	-0.094
-665.018	630.998	-0.097	0.245
-664.003	-200.000	-0.059	-0.350
-662.989	382.478	-0.023	-0.047
-661.974	107.270	0.015	-0.017
-660.959	800.000	-0.113	-0.434
-659.945	-143.755	-0.247	-0.023
-658.930	-200.000	-0.010	0.178
-657.916	431.171	0.230	-0.497
-656.901	800.000	-0.052	0.143
-655.886	116.188	0.229	0.280
-654.872	-119.041	-0.197	0.034
-653.857	-200.000	-0.025	-0.423
-652.843	246.256	-0.257	-0.432
-651.828	-138.824	-0.218	0.024
-650.814	87.593	0.201	-0.222
-649.799	800.000	-0.039	-0.130
-648.784	113.803	0.170	-0.207
-647.770	-200.000	-0.028	0.143
-646.755	-200.000	-0.032	-0.184
-645.741	112.262	-0.256	-0.309
-644.726	-200.000	-0.017	-0.229
-643.711	167.011	0.251	-0.356
-642.697	-200.000	-0.018	-0.115
-641.682	76.917	-0.090	-0.095
-640.668	277.441	0.022	-0.039
-639.653	-109.059	0.195	0.041
-638.638	725.649	-0.071	0.188
-637.624	-200.000	0.054	0.277
-636.609	52.492	0.156	0.149
-635.595	800.000	-0.066	0.218
-634.580	-30.860	0.198	0.111
-633.565	-93.613	-0.094	-0.026
-632.551	-200.000	-0.026	-0.324
-631.536	401.748	0.117	-0.245
-630.522	-39.877	0.160	-0.083
-629.507	-0.108	0.290	-0.206
-628.492	-196.852	0.289	0.002
-627.478	-15.577	0.079	-0.050
-626.463	-200.000	-0.058	0.424
-625.449	-200.000	0.018	-0.080
-624.434	-43.719	0.347	-0.174
-623.419	-200.000	0.005	-0.159
-622.405	800.000	0.035	0.122
-621.390	-148.850	-0.255	0.021
-620.376	-200.000	0.046	-0.334
-619.361	-200.000	-0.051	0.228
-618.346	98.334	0.140	-0.161
-617.332	-182.264	-0.340	-0.006
-616.317	-89.225	0.065	0.019
-615.303	-154.461	0.277	0.018
-614.288	-200.000	-0.347	0.000
-613.273	611.233	0.062	-0.155
-612.259	-98.599	0.118	-0.030
-611.244	-168.690	-0.340	-0.013
-610.230	219.859	0.131	-0.210
-609.215	-159.618	-0.383	-0.021
-608.201	-53.652	-0.200	-0.091
-607.186	348.115	0.040	-0.078
-606.171	-131.731	-0.183	-0.024
-605.157	-200.000	-0.002	-0.142
-604.142	13.931	-0.196	0.151
-603.128	98.976	-0.104	-0.119
-602.113	749.190	-0.053	-0.141
-601.098	-200.000	-0.032	0.347
-600.084	-200.000	0.045	-0.285
-599.069	-137.969	-0.184	0.020
-598.055	639.562	0.076	0.193
-597.040	566.670	0.092	-0.222
-596.025	-2.378	0.126	0.088
-595.011	-200.000	-0.003	0.024
-593.996	-32.510	0.092	-0.051
-592.982	-112.099	-0.268	-0.054
-591.967	-200.000	0.042	0.231
-590.952	800.000	0.091	-0.329
-589.938	1.978	0.133	-0.096
-588.923	800.000	0.104	-0.361
-587.909	164.062	0.049	-0.069
-586.894	-106.719	-0.263	0.058
-585.879	-88.598	-0.212	0.063
-584.865	800.000	-0.039	0.122
-583.850	-14.722	-0.121	-0.077
-582.836	4.999	0.361	0.264
-581.821	-82.123	-0.202	-0.066
-580.806	180.179	-0.107	-0.156
-579.792	98.331	0.160	0.183
-578.777	-79.190	0.194	-0.066
-577.763	193.780	0.030	-0.045
-576.748	-200.000	-0.036	-0.183
-575.733	800.000	-0.045	0.191
-574.719	165.671	-0.205	-0.288
-573.704	121.827	-0.192	0.239
-572.690	116.314	0.176	-0.214
-571.675	-200.000	-0.046	0.343
-570.661	786.196	0.069	0.189
-569.646	-136.309	-0.141	-0.016
-568.631	-66.545	0.108	-0.043
-567.617	-180.291	-0.130	-0.003
-566.602	800.000	0.033	0.113
-565.588	45.089	-0.169	-0.155
-564.573	98.293	0.135	-0.155
-563.558	-91.217	0.371	0.106
-562.544	800.000	-0.043	0.143
-561.529	-172.772	-0.302	-0.009
-560.515	-49.309	0.252	0.120
-559.500	-84.644	0.228	-0.071
-558.485	203.717	0.072	0.110
-557.471	339.815	-0.178	-0.345
-556.456	-63.155	0.306	0.125
-555.442	-200.000	0.000	0.326
-554.427	800.000	-0.100	0.358
-553.412	-33.384	-0.195	0.107
-552.398	-200.000	0.010	0.264
-551.383	31.261	0.266	-0.227
-550.369	-82.035	-0.284	0.092
-549.354	377.952	-0.072	0.147
-548.339	136.855	0.158	-0.205
-547.325	348.596	0.216	-0.424
-546.310	-33.711	0.057	0.031
-545.296	800.000	-0.066	-0.237
-544.281	-200.000	0.024	-0.130
-543.266	-200.000	0.018	-0.103
-542.252	393.517	-0.098	0.203
-541.237	-111.827	-0.074	0.015
-540.223	-7.809	0.039	-0.026
-539.208	-42.256	-0.129	-0.065
-538.193	-200.000	-0.040	0.180
-537.179	800.000	0.134	-0.559
-536.164	-122.622	-0.371	0.060
-535.150	88.915	-0.174	-0.193
-534.135	463.022	-0.098	-0.218
-533.121	-200.000	-0.004	-0.070
-532.106	113.693	-0.297	-0.358
-531.091	800.000	-0.031	-0.131
-530.077	-200.000	0.077	0.574
-529.062	-42.242	-0.244	-0.124
-528.048	-20.305	-0.050	0.031
-527.033	415.094	0.182	-0.385
-526.018	-200.000	0.022	0.194
-525.004	-57.104	0.293	0.128
-523.989	800.000	-0.075	-0.235
-522.975	800.000	0.063	0.266
-521.960	45.485	-0.334	0.306
-520.945	-161.446	-0.191	0.010
-519.931	-5.531	0.216	-0.147
-518.916	-0.864	0.138	-0.097
-517.902	-88.930	-0.302	0.089
-516.887	-99.420	0.301	0.075
-515.872	50.995	-0.198	-0.187
-514.858	-198.338	0.369	-0.002
-513.843	112.793	-0.055	0.066
-512.829	-120.269	-0.367	-0.062
-511.814	-87.746	0.282	-0.084
-510.799	268.247	-0.072	-0.125
-509.785	-200.000	-0.007	0.068
-508.770	800.000	-0.031	0.087
-507.756	414.727	0.074	0.156
-506.741	-15.247	-0.069	-0.044
-505.726	-69.926	-0.426	-0.161
-504.712	488.077	0.138	0.312
-503.697	-103.334	0.328	0.077
-502.683	-23.611	0.204	-0.121
-501.668	-46.180	-0.086	-0.042
-500.653	210.741	0.067	0.104
-499.639	-112.763	0.287	-0.057
-498.624	57.405	0.144	0.139
-497.610	148.560	-0.091	-0.122
-496.595	210.440	-0.151	0.236
-495.581	37.103	0.143	-0.125
-494.566	114.462	-0.140	-0.170
-493.551	413.054	0.159	0.336
-492.537	-2.733	0.106	-0.073
-491.522	397.173	-0.194	-0.401
-490.508	-69.751	0.118	-0.045
-489.493	-2.826	-0.164	0.114
-488.478	-167.957	0.280	-0.011
-487.464	-200.000	-0.044	0.232
-486.449	54.578	0.104	-0.099
-485.435	-129.750	0.109	0.015
-484.420	39.351	-0.108	0.096
-483.405	-148.475	0.156	0.013
-482.391	339.181	0.037	0.071
-481.376	53.191	0.137	0.130
-480.362	-145.271	-0.152	0.014
-479.347	-200.000	0.026	0.135
-478.332	-200.000	0.008	-0.071
-477.318	-200.000	0.015	0.169
-476.303	152.245	0.144	0.195
-475.289	168.638	-0.164	0.231
-474.274	-200.000	0.023	-0.168
-473.259	800.000	0.088	-0.272
-472.245	-133.728	0.287	0.035
-471.230	302.383	-0.036	0.065
-470.216	-106.233	-0.226	0.050
-469.201	-135.939	0.169	-0.020
-468.186	-14.865	-0.296	-0.188
-467.172	-127.021	-0.142	0.021
-466.157	-86.931	-0.520	0.157
-465.143	-56.834	0.075	0.033
-464.128	386.969	-0.160	-0.328
-463.113	-8.094	-0.223	-0.149
-462.099	125.877	0.164	-0.205
-461.084	-200.000	0.032	0.143
-460.070	273.792	-0.141	-0.247
-459.055	-200.000	0.037	-0.250
-458.040	-200.000	-0.042	-0.236
-457.026	-24.035	-0.225	-0.133
-456.011	-54.930	0.225	-0.101
-454.997	461.365	-0.021	-0.046
-453.982	-0.280	-0.162	0.114
-452.968	-141.506	-0.205	-0.021
-451.953	-167.685	0.247	-0.010
-450.938	71.688	0.188	-0.194
-449.924	-107.734	-0.263	-0.057
-448.909	121.622	0.042	0.052
-447.895	-200.000	-0.022	-0.320
-446.880	615.262	0.088	-0.218
-445.865	-200.000	-0.001	0.015
-444.851	663.867	-0.088	0.224
-443.836	68.019	-0.226	0.229
-442.822	-55.519	0.163	-0.072
-441.807	-200.000	-0.022	0.193
-440.792	406.907	-0.181	-0.379
-439.778	-200.000	0.023	-0.295
-438.763	-0.041	0.196	0.138
-437.749	55.947	0.142	0.136
-436.734	10.356	0.324	-0.244
-435.719	-2.748	0.054	0.038
-434.705	-130.455	0.218	-0.029
-433.690	267.798	0.085	0.148
-432.676	-9.545	0.143	0.094
-431.661	-66.536	-0.356	-0.140
-430.646	-200.000	0.022	-0.127
-429.632	-200.000	-0.047	0.281
-428.617	800.000	0.117	-0.411
-427.603	-69.646	-0.271	-0.102
-426.588	-134.660	0.168	0.020
-425.573	-200.000	-0.014	0.250
-424.559	225.717	0.137	-0.220
-423.544	-130.776	-0.278	0.037
-422.530	16.047	-0.251	-0.195
-421.515	-97.712	-0.309	-0.079
-420.500	211.245	-0.095	-0.148
-419.486	-43.800	0.129	0.064
-418.471	10.314	-0.282	0.212
-417.457	61.490	-0.255	0.251
-416.442	-104.276	0.326	0.075
-415.428	-111.254	-0.363	0.073
-414.413	686.645	0.067	-0.172
-413.398	202.604	0.268	-0.409
-412.384	44.028	0.074	-0.067
-411.369	426.470	0.056	0.119
-410.355	-200.000	0.002	-0.167
-409.340	172.515	0.197	-0.280
-408.325	800.000	-0.038	0.149
-407.311	-194.359	-0.424	0.003
-406.296	-96.280	0.266	0.070
-405.282	222.032	0.123	0.196
-404.267	21.140	-0.181	-0.146
-403.252	83.483	0.215	0.232
-402.238	800.000	-0.040	-0.149
-401.223	217.695	0.189	-0.298
-400.209	-200.000	0.013	0.260
-399.194	800.000	-0.014	-0.057
-398.179	8.651	-0.274	0.204
-397.165	-200.000	-0.013	0.092
-396.150	-200.000	-0.017	-0.097
-395.136	-200.000	0.110	-0.000
-394.121	7.207	-0.191	-0.141
-393.106	632.856	-0.197	0.494
-392.092	-115.795	0.654	-0.121
-391.077	-70.643	-0.052	0.019
-390.063	-196.908	-0.197	-0.001
-389.048	-165.284	0.190	0.008
-388.033	218.055	0.108	-0.170
-387.019	-200.000	-0.012	-0.090
-386.004	-200.000	0.018	-0.120
-384.990	-129.683	-0.184	0.025
-383.975	-53.596	0.122	0.055
-382.960	800.000	0.025	0.076
-381.946	-200.000	0.040	0.178
-380.931	-200.000	0.074	0.387
-379.917	220.832	0.157	-0.248
-378.902	48.290	0.202	0.186
-377.888	-50.676	0.148	0.069
-376.873	-200.000	-0.002	-0.044
-375.858	-181.543	0.521	0.010
-374.844	-200.000	-0.050	0.267
-373.829	-133.844	0.273	0.033
-372.815	43.861	-0.082	0.074
-371.800	-159.927	-0.254	0.014
-370.785	65.796	-0.275	0.275
-369.771	-200.000	0.013	0.292
-368.756	394.299	0.053	0.110
-367.742	-89.380	0.162	-0.047
-366.727	-114.265	0.196	-0.037
-365.712	296.413	-0.075	0.136
-364.698	222.485	0.040	-0.063
-363.683	-0.923	-0.253	0.176
-362.669	227.609	-0.077	0.124
-361.654	14.206	0.297	0.228
-360.639	-151.011	-0.276	-0.021
-359.625	65.672	-0.380	0.379
-358.610	-4.091	-0.219	0.150
-357.596	800.000	-0.066	0.273
-356.581	-34.442	0.158	0.085
-355.566	-43.081	0.095	-0.047
-354.552	-200.000	-0.059	0.281
-353.537	-149.151	0.176	-0.014
-352.523	-200.000	-0.012	0.415
-351.508	-81.821	-0.054	0.018
-350.493	506.421	0.109	-0.250
-349.479	710.170	0.095	-0.249
-348.464	23.871	-0.179	0.145
-347.450	675.567	0.007	0.018
-346.435	-87.221	0.185	-0.055
-345.420	154.784	0.148	-0.201
-344.406	-151.902	-0.123	0.009
-343.391	-112.723	0.141	-0.028
-342.377	-128.808	0.310	-0.043
-341.362	106.094	0.112	-0.131
-340.348	-76.690	0.104	-0.036
-339.333	800.000	-0.130	-0.442
-338.318	-200.000	0.007	-0.130
-337.304	-200.000	-0.025	0.119
-336.289	52.398	-0.110	-0.104
-335.275	-29.611	-0.182	-0.103
-334.260	441.808	-0.054	-0.116
-333.245	-2.436	-0.166	-0.115
-332.231	93.041	-0.115	0.128
-331.216	-92.426	-0.350	0.097
-330.202	800.000	-0.038	0.129
-329.187	-26.618	0.131	-0.076
-328.172	-95.881	-0.159	0.042
-327.158	-19.018	0.195	-0.120
-326.143	110.184	-0.117	0.138
-325.129	0.683	-0.195	-0.137
-324.114	49.752	0.094	0.088
-323.099	102.382	0.067	0.077
-322.085	-72.934	0.094	-0.034
-321.070	423.674	-0.109	-0.231
-320.056	596.077	0.074	0.179
-319.041	800.000	0.063	-0.195
-318.026	-200.000	0.056	0.276
-317.012	-158.758	0.291	-0.016
-315.997	-180.501	-0.333	0.007
-314.983	229.520	-0.134	0.215
-313.968	-95.416	0.510	-0.135
-312.953	800.000	-0.121	0.340
-311.939	90.165	-0.117	0.128
-310.924	-126.080	-0.280	0.041
-309.910	-145.932	-0.221	-0.019
-308.895	-91.829	-0.032	0.009
-307.880	-61.928	0.252	-0.104
-306.866	362.540	-0.061	-0.121
-305.851	109.424	0.098	-0.115
-304.837	95.689	0.083	0.094
-303.822	-71.767	-0.087	-0.032
-302.807	-9.026	-0.196	0.129
-301.793	442.773	0.047	-0.102
-300.778	-98.891	-0.183	0.046
-299.764	-119.687	0.369	0.063
-298.749	-200.000	0.008	-0.082
-297.735	-19.337	0.074	0.045
-296.720	-40.719	-0.260	-0.132
-295.705	201.440	0.095	0.143
-294.691	691.328	0.221	0.569
-293.676	-200.000	0.066	0.321
-292.662	-200.000	-0.015	0.085
-291.647	-25.378	0.313	-0.182
-290.632	25.643	0.001	0.001
-289.618	327.470	-0.017	-0.032
-288.603	-200.000	0.002	0.086
-287.589	80.731	-0.295	0.313
-286.574	32.779	0.179	0.152
-285.559	-28.523	-0.095	-0.054
-284.545	74.410	0.258	0.266
-283.530	156.674	-0.286	-0.389
-282.516	-144.213	0.130	0.012
-281.501	-54.668	-0.338	-0.150
-280.486	126.163	0.018	0.023
-279.472	-37.434	0.224	0.118
-278.457	800.000	-0.088	-0.254
-277.443	-200.000	-0.088	-0.398
-276.428	-139.101	0.320	-0.034
-275.413	800.000	0.040	-0.154
-274.399	-32.834	-0.130	-0.071
-273.384	93.912	0.091	-0.101
-272.370	800.000	0.051	0.212
-271.355	25.203	0.131	-0.107
-270.340	800.000	0.014	0.039
-269.326	-14.441	0.140	0.089
-268.311	-200.000	-0.029	0.163
-267.297	-136.441	0.100	-0.011
-266.282	-200.000	0.003	0.200
-265.267	-200.000	0.005	0.126
-264.253	534.142	0.033	0.076
-263.238	-152.082	0.063	-0.004
-262.224	-200.000	0.055	0.286
-261.209	37.084	-0.111	0.097
-260.195	-156.155	0.140	-0.009
-259.180	365.650	-0.124	-0.245
-258.165	179.014	-0.217	0.311
-257.151	-60.972	0.271	-0.113
-256.136	-93.970	0.121	-0.033
-255.122	-200.000	-0.040	-0.206
-254.107	-200.000	-0.030	0.142
-253.092	116.568	-0.380	-0.457
-252.078	102.311	-0.121	0.139
-251.063	-83.046	0.075	-0.024
-250.049	-131.610	-0.180	-0.023
-249.034	-72.535	0.118	0.043
-248.019	202.380	-0.012	0.019
-247.005	-37.487	-0.139	-0.073
-245.990	-200.000	-0.034	-0.197
-244.976	102.001	-0.251	0.288
-243.961	105.572	-0.081	-0.094
-242.946	-154.650	0.170	0.011
-241.932	39.069	-0.073	0.064
-240.917	107.107	0.014	0.016
-239.903	403.354	-0.165	-0.341
-238.888	-42.873	-0.164	0.082
-237.873	-42.731	-0.180	0.090
-236.859	-115.188	-0.197	-0.037
-235.844	-68.315	0.344	0.131
-234.830	-200.000	-0.007	-0.281
-233.815	-200.000	0.020	-0.168
-232.800	697.677	0.060	0.156
-231.786	42.363	-0.357	0.318
-230.771	-200.000	-0.001	0.170
-229.757	228.023	0.088	0.141
-228.742	324.356	-0.092	0.173
-227.727	-153.987	0.168	0.011
-226.713	105.944	0.109	-0.127
-225.698	602.690	-0.086	-0.209
-224.684	-146.993	0.217	-0.018
-223.669	-200.000	-0.022	0.132
-222.655	-103.325	-0.228	-0.053
-221.640	618.100	0.027	0.066
-220.625	37.185	0.189	0.165
-219.611	-200.000	0.066	-0.300
-218.596	800.000	-0.076	-0.237
-217.582	225.828	0.125	-0.199
-216.567	-7.905	0.316	-0.209
-215.552	671.866	-0.067	0.171
-214.538	-77.646	-0.277	0.094
-213.523	-107.115	-0.264	0.057
-212.509	-77.852	0.065	0.022
-211.494	4.371	0.090	0.065
-210.479	-12.912	0.178	-0.113
-209.465	256.399	0.082	-0.139
-208.450	93.461	-0.120	0.134
-207.436	82.895	0.039	-0.041
-206.421	800.000	0.087	0.300
-205.406	-117.497	-0.063	0.011
-204.392	234.106	-0.137	-0.222
-203.377	798.256	-0.026	-0.071
-202.363	345.274	0.102	-0.197
-201.348	709.635	0.228	0.592
-200.333	-130.446	0.105	-0.014
-199.319	-200.000	-0.025	-0.287
-198.304	-200.000	0.024	-0.278
-197.290	800.000	-0.029	-0.121
-196.275	281.214	0.172	0.302
-195.260	323.256	-0.020	0.038
-194.246	-5.116	0.333	-0.225
-193.231	-29.030	0.103	-0.058
-192.217	-105.182	-0.128	-0.029
-191.202	-200.000	0.069	-0.326
-190.187	533.908	-0.141	0.327
-189.173	769.092	-0.089	0.239
-188.158	-138.792	0.039	-0.004
-187.144	89.894	-0.214	0.234
-186.129	-75.473	-0.121	0.042
-185.114	31.734	0.206	0.174
-184.100	-14.861	0.292	0.184
-183.085	43.497	-0.166	-0.149
-182.071	422.466	-0.194	0.408
-181.056	-200.000	-0.035	0.197
-180.042	-49.419	0.121	0.057
-179.027	-52.268	0.217	-0.099
-178.012	-200.000	0.015	0.200
-176.998	-79.859	-0.162	-0.053
-175.983	18.236	-0.297	0.232
-174.969	25.606	-0.166	0.136
-173.954	-26.825	-0.080	-0.046
-172.939	800.000	-0.037	0.150
-171.925	-200.000	-0.028	0.221
-170.910	-161.543	-0.255	-0.013
-169.896	-116.678	-0.242	-0.044
-168.881	-98.995	-0.217	0.054
-167.866	-200.000	-0.023	-0.144
-166.852	85.621	-0.215	-0.231
-165.837	87.980	-0.188	0.204
-164.823	800.000	0.099	-0.295
-163.808	-200.000	0.025	-0.365
-162.793	55.353	0.094	0.089
-161.779	-127.192	0.313	-0.045
-160.764	-200.000	0.018	0.109
-159.750	-105.761	0.203	-0.045
-158.735	71.488	-0.182	-0.185
-157.720	800.000	-0.021	0.090
-156.706	290.253	0.053	0.093
-155.691	-76.526	0.262	0.090
-154.677	25.598	0.407	0.331
-153.662	220.849	0.086	0.135
-152.647	-119.104	0.085	-0.014
-151.633	-148.543	0.066	0.005
-150.618	-191.587	0.115	-0.001
-149.604	-200.000	0.006	0.056
-148.589	-200.000	0.021	-0.151
-147.574	-200.000	0.017	0.275
-146.560	800.000	-0.094	-0.327
-145.545	-90.134	0.257	0.073
-144.531	800.000	0.069	0.288
-143.516	-9.839	-0.014	-0.009
-142.502	-78.062	0.180	-0.061
-141.487	800.000	-0.063	-0.246
-140.472	68.051	-0.138	0.138
-139.458	91.505	-0.043	-0.047
-138.443	-149.409	0.058	-0.005
-137.429	-55.583	-0.215	0.094
-136.414	-196.718	0.033	0.000
-135.399	151.882	-0.151	0.201
-134.385	-102.456	-0.222	-0.052
-133.370	800.000	0.035	0.096
-132.356	501.593	0.034	0.077
-131.341	-200.000	-0.025	-0.206
-130.326	-22.351	0.240	-0.142
-129.312	-62.605	-0.081	0.033
-128.297	8.985	0.042	0.031
-127.283	-76.050	0.256	-0.088
-126.268	-81.796	0.251	-0.081
-125.253	141.905	-0.158	-0.205
-124.239	-200.000	0.006	0.132
-123.224	-143.832	0.258	-0.024
-122.210	-89.861	0.094	0.027
-121.195	-156.484	0.172	0.010
-120.180	350.768	0.134	-0.260
-119.166	-200.000	-0.004	0.246
-118.151	-11.392	0.201	-0.129
-117.137	-42.176	-0.155	-0.078
-116.122	-50.266	0.334	0.154
-115.107	-120.752	0.260	-0.043
-114.093	-110.589	0.128	-0.026
-113.078	419.077	0.031	0.066
-112.064	79.973	-0.121	0.127
-111.049	-167.646	-0.118	0.005
-110.034	-110.759	-0.204	0.041
-109.020	800.000	-0.085	-0.261
-108.005	-81.278	0.034	-0.011
-106.991	-156.802	0.170	0.010
-105.976	7.713	0.165	0.121
-104.962	-74.768	0.249	0.088
-103.947	112.518	0.129	-0.153
-102.932	440.411	-0.119	-0.255
-101.918	271.622	0.069	0.119
-100.903	429.775	0.103	0.219
-99.889	288.374	0.250	0.442
-98.874	-2.988	-0.181	-0.123
-97.859	-120.750	-0.501	-0.083
-96.845	-90.432	0.258	0.073
-95.830	-200.000	-0.035	0.163
-94.816	-74.137	-0.064	-0.023
-93.801	435.797	-0.144	-0.305
-92.786	-164.116	0.236	0.011
-91.772	-3.175	0.260	0.177
-90.757	61.877	-0.058	0.057
-89.743	800.000	-0.017	-0.071
-88.728	-200.000	0.019	-0.265
-87.713	242.808	0.087	0.142
-86.699	800.000	0.111	-0.372
-85.684	-200.000	-0.027	-0.277
-84.670	195.115	0.100	0.148
-83.655	-59.996	0.133	-0.055
-82.640	800.000	-0.029	0.087
-81.626	-2.496	-0.174	-0.119
-80.611	233.441	-0.045	0.072
-79.597	-137.714	0.290	0.032
-78.582	-23.915	-0.147	-0.086
-77.567	63.373	0.156	0.152
-76.553	269.784	-0.163	0.280
-75.538	-200.000	-0.005	0.276
-74.524	-200.000	0.054	0.448
-73.509	-16.176	-0.154	0.095
-72.494	-102.638	0.222	0.052
-71.480	-200.000	-0.044	0.256
-70.465	-12.511	0.247	-0.157
-69.451	236.378	0.034	0.055
-68.436	800.000	-0.070	-0.193
-67.422	247.090	0.268	0.441
-66.407	800.000	0.056	0.156
-65.392	-119.842	0.073	0.012
-64.378	102.376	0.334	-0.380
-63.363	483.050	-0.043	0.096
-62.349	379.477	0.099	0.198
-61.334	147.191	-0.957	-1.255
-60.319	9.345	1.059	0.781
-59.305	120.047	-0.741	-0.897
-58.290	285.343	0.883	1.550
-57.276	-200.000	0.363	1.582
-56.261	-200.000	134.119	697.112
-55.246	361.563	1662.733	3249.114
-54.232	134.243	2801.210	3538.478
-53.217	92.706	2167.800	2384.593
-52.203	33.401	1596.089	1350.450
-51.188	25.200	1342.483	1086.400
-50.173	22.893	1305.119	1042.519
-49.159	51.342	1378.445	1275.347
-48.144	47.580	1388.666	1261.914
-47.130	25.489	1334.652	1081.630
-46.115	22.135	1315.942	1046.486
-45.100	22.027	1309.914	1041.012
-44.086	21.929	1307.952	1038.829
-43.071	21.822	1305.585	1036.276
-42.057	21.887	1303.519	1034.980
-41.042	21.880	1302.107	1033.778
-40.027	21.818	1300.506	1032.102
-39.013	21.931	1298.281	1030.959
-37.998	21.968	1296.542	1029.756
-36.984	21.998	1295.020	1028.680
-35.969	21.922	1293.572	1027.044
-34.954	22.070	1291.171	1025.959
-33.940	22.011	1290.449	1025.004
-32.925	21.978	1289.186	1023.766
-31.911	21.971	1288.119	1022.837
-30.896	22.065	1286.326	1021.922
-29.881	22.119	1285.381	1021.444
-28.867	22.225	1282.918	1020.061
-27.852	22.181	1282.170	1019.171
-26.838	22.182	1281.042	1018.238
-25.823	22.083	1279.657	1016.524
-24.809	22.090	1278.473	1015.582
-23.794	22.100	1277.275	1014.649
-22.779	22.089	1275.968	1013.509
-21.765	22.104	1274.681	1012.531
-20.750	22.102	1272.892	1011.061
-19.736	22.033	1272.069	1009.965
-18.721	21.920	1271.411	1008.755
-17.706	22.017	1269.687	1007.907
-16.692	22.001	1268.350	1006.712
-15.677	22.050	1267.506	1006.280
-14.663	22.001	1266.096	1004.842
-13.648	21.950	1265.211	1003.806
-12.633	21.912	1264.572	1003.044
-11.619	21.966	1263.692	1002.612
-10.604	21.944	1262.780	1001.728
-9.590	21.946	1262.052	1001.119
-8.575	21.949	1260.714	1000.036
-7.560	21.993	1259.750	999.481
-6.546	21.895	1259.260	998.498
-5.531	21.986	1258.157	998.100
-4.517	21.899	1257.779	997.265
-3.502	21.900	1256.937	996.563
-2.487	21.964	1255.814	995.996
-1.473	21.990	1250.980	992.268
-0.458	20.056	1236.399	969.848
0.556	15.690	1220.976	933.175
1.571	12.002	1229.436	918.909
2.586	11.276	1244.891	926.257
3.600	11.449	1232.285	917.767
4.615	8.564	1161.270	849.497
5.629	3.279	1091.738	772.116
6.644	0.858	1075.597	748.664
7.659	0.739	1073.464	746.527
8.673	0.593	1072.745	745.241
9.688	0.691	1071.396	744.720
10.702	0.693	1069.023	743.015
11.717	4.047	1072.403	761.819
12.731	10.516	1081.520	800.239
13.746	15.720	1087.331	830.225
14.761	17.207	1089.019	838.788
15.775	16.552	1087.834	834.565
16.790	15.608	1085.467	828.028
17.804	14.798	1084.404	823.157
18.819	14.529	1082.774	820.523
19.834	14.349	1081.651	818.712
20.848	14.084	1080.855	816.737
21.863	13.954	1080.057	815.422
22.877	13.695	1079.443	813.616
23.892	13.713	1078.959	813.269
24.907	13.735	1078.074	812.641
25.921	13.776	1077.106	812.039
26.936	13.694	1076.342	810.987
27.950	13.801	1075.792	811.026
28.965	13.894	1074.174	810.188
29.980	13.963	1072.935	809.519
30.994	13.830	1072.064	808.141
32.009	13.926	1071.158	807.853
33.023	13.922	1070.226	807.060
34.038	13.778	1069.131	805.464
35.053	13.903	1068.359	805.419
36.067	13.833	1067.316	804.222
37.082	13.802	1066.785	803.600
38.096	13.801	1066.240	803.113
39.111	13.930	1065.067	802.783
40.126	13.765	1064.239	801.290
41.140	13.717	1062.986	800.045
42.155	13.602	1061.792	798.520
43.169	13.621	1060.903	797.870
44.184	13.597	1059.892	796.925
45.199	13.602	1058.647	795.945
46.213	13.716	1057.544	795.591
47.228	13.779	1056.716	795.198
48.242	13.748	1055.404	793.995
49.257	13.743	1054.537	793.247
50.271	13.828	1053.427	792.749
51.286	13.811	1052.808	792.131
52.301	13.726	1052.379	791.332
53.315	13.726	1050.608	789.931
54.330	13.767	1050.030	789.619
55.344	13.693	1049.074	788.480
56.359	13.733	1048.070	787.847
57.374	13.602	1047.215	786.511
58.388	13.664	1046.185	785.964
59.403	13.672	1045.515	785.430
60.417	13.628	1044.670	784.518
61.432	13.618	1043.728	783.693
62.447	13.589	1043.053	782.980
63.461	13.613	1042.243	782.412
64.476	13.607	1040.890	781.303
65.490	13.548	1040.477	780.646
66.505	13.619	1039.634	780.278
67.520	13.667	1038.740	779.765
68.534	13.633	1038.369	779.255
69.549	13.713	1037.561	778.958
70.563	13.690	1036.547	778.019
71.578	13.650	1035.810	777.206
72.593	13.459	1035.417	775.951
73.607	13.507	1034.829	775.664
74.622	13.627	1034.096	775.608
75.636	13.486	1033.333	774.309
76.651	13.537	1032.678	773.986
77.666	13.680	1031.525	773.723
78.680	13.614	1031.127	773.048
79.695	13.620	1030.639	772.641
80.709	13.521	1030.392	771.925
81.724	13.562	1029.765	771.581
82.739	13.630	1028.564	770.925
83.753	13.758	1027.649	770.767
84.768	13.763	1026.662	769.982
85.782	13.821	1025.739	769.492
86.797	13.783	1025.224	768.859
87.812	13.852	1023.641	767.922
88.826	13.653	1022.964	766.427
89.841	13.801	1021.786	766.160
90.855	13.891	1021.189	766.061
91.870	13.853	1020.261	765.123
92.884	13.960	1019.095	764.671
93.899	13.952	1018.104	763.827
94.914	14.059	1017.395	763.719
95.928	13.965	1016.935	762.871
96.943	13.975	1015.917	762.088
97.957	13.870	1015.073	760.906
98.972	13.875	1014.555	760.475
99.987	13.881	1013.217	759.429
101.001	13.871	1012.037	758.433
102.016	13.921	1011.386	758.107
103.030	13.921	1010.703	757.527
104.045	13.833	1009.902	756.459
105.060	13.882	1008.810	755.799
106.074	13.701	1008.403	754.603
107.089	13.811	1006.827	753.854
108.103	13.749	1005.961	752.857
109.118	13.815	1005.104	752.450
110.133	13.717	1004.521	751.504
111.147	13.799	1003.711	751.203
112.162	13.870	1002.507	750.552
113.176	13.778	1001.748	749.502
114.191	13.948	1000.548	749.308
115.206	13.877	1000.307	748.741
116.220	13.775	999.835	747.860
117.235	13.743	998.799	746.873
118.249	13.840	998.118	746.737
119.264	13.848	996.775	745.703
120.279	13.955	995.915	745.471
121.293	13.778	995.059	743.971
122.308	13.917	994.438	744.067
123.322	13.761	993.510	742.608
124.337	13.721	992.092	741.303
125.352	13.712	991.362	740.651
126.366	13.708	989.984	739.541
127.381	13.745	989.114	738.988
128.395	13.689	988.220	738.005
129.410	13.689	987.662	737.524
130.424	13.733	986.374	736.691
131.439	13.759	985.906	736.393
132.454	13.824	984.737	735.744
133.468	13.777	983.978	734.901
134.483	13.847	983.208	734.573
135.497	13.895	981.861	733.714
136.512	13.678	981.290	732.264
137.527	13.776	980.726	732.212
138.541	13.699	980.259	731.455
139.556	13.812	979.267	731.151
140.570	13.943	978.517	731.103
141.585	14.027	977.553	730.687
142.600	13.940	976.604	729.530
143.614	13.960	975.905	729.031
144.629	14.018	974.958	728.514
145.643	14.055	973.864	727.793
146.658	13.955	972.973	726.627
147.673	14.065	971.878	726.223
148.687	13.908	971.468	725.168
149.702	13.913	970.447	724.363
150.716	13.977	969.616	723.958
151.731	13.912	969.094	723.220
152.746	14.036	968.197	723.028
153.760	13.996	967.666	722.392
154.775	14.016	967.249	722.103
155.789	14.154	966.130	721.803
156.804	14.143	965.425	721.167
157.819	14.077	965.091	720.564
158.833	14.209	964.104	720.336
159.848	14.189	963.639	719.839
160.862	14.214	962.607	719.114
161.877	14.093	961.698	717.847
162.892	13.994	960.879	716.746
163.906	14.102	959.378	716.029
164.921	14.053	959.189	715.615
165.935	14.138	957.958	714.996
166.950	14.187	956.947	714.390
167.964	14.105	956.457	713.609
168.979	14.252	955.152	713.200
169.994	14.239	954.570	712.648
171.008	14.247	953.721	711.985
172.023	14.251	953.180	711.536
173.037	14.302	952.362	711.081
174.052	14.235	951.494	710.082
175.067	14.277	950.848	709.717
176.081	14.137	950.446	708.756
177.096	14.302	949.840	708.944
178.110	14.251	948.903	707.966
179.125	14.326	948.407	707.853
180.140	14.227	948.213	707.227
181.154	14.374	947.451	707.219
182.169	14.404	947.150	707.059
183.183	14.445	946.578	706.743
184.198	14.417	945.383	705.670
185.213	14.361	944.536	704.735
186.227	14.477	944.110	704.846
187.242	14.512	943.367	704.377
188.256	14.533	942.739	703.935
189.271	14.416	942.091	702.897
190.286	14.332	941.341	701.920
191.300	14.380	940.604	701.511
192.315	14.296	939.624	700.366
193.329	14.459	939.731	701.069
194.344	14.449	938.854	700.308
195.359	14.422	938.289	699.713
196.373	14.480	937.401	699.233
197.388	14.477	936.861	698.754
198.402	14.507	936.554	698.589
199.417	14.671	935.689	698.568
200.432	14.643	935.181	698.008
201.446	14.504	935.077	697.291
202.461	14.603	933.864	696.738
203.475	14.637	933.698	696.693
204.490	14.615	932.865	695.920
205.504	14.659	931.925	695.339
206.519	14.626	931.611	694.904
207.534	14.564	930.638	693.861
208.548	14.590	930.197	693.579
209.563	14.779	929.349	693.671
210.577	14.622	929.075	692.752
211.592	14.582	928.405	692.026
212.607	14.743	927.459	691.925
213.621	14.847	926.155	691.324
214.636	14.925	925.819	691.332
215.650	14.846	925.290	690.552
216.665	14.912	924.310	690.031
217.680	14.976	923.609	689.711
218.694	15.023	922.590	689.081
219.709	14.996	922.101	688.541
220.723	14.870	921.857	687.783
221.738	14.909	921.051	687.279
222.753	15.003	920.192	686.965
223.767	15.090	919.679	686.876
224.782	14.967	919.397	686.103
225.796	15.060	918.464	685.724
226.811	15.116	917.977	685.530
227.826	14.877	917.489	684.126
228.840	15.010	916.491	683.868
229.855	15.091	915.434	683.349
230.869	15.100	914.658	682.746
231.884	14.940	914.841	682.168
232.899	15.012	913.575	681.458
233.913	14.918	912.890	680.505
234.928	15.040	912.115	680.362
235.942	15.017	911.427	679.696
236.957	14.976	911.135	679.250
237.972	15.083	910.451	679.114
238.986	15.028	909.697	678.269
240.001	15.160	909.075	678.282
241.015	15.199	908.324	677.816
242.030	15.059	908.286	677.164
243.045	15.154	907.461	676.872
244.059	15.223	906.609	676.456
245.074	15.179	906.214	675.924
246.088	15.287	905.055	675.432
247.103	15.234	905.037	675.147
248.117	15.208	904.396	674.506
249.132	15.148	904.040	673.936
250.147	15.323	902.953	673.771
251.161	15.262	902.308	672.986
252.176	15.527	901.327	673.258
253.190	15.483	900.497	672.401
254.205	15.458	900.046	671.904
255.220	15.460	899.687	671.586
256.234	15.521	898.695	671.031
257.249	15.490	898.353	670.589
258.263	15.429	897.698	669.799
259.278	15.491	896.872	669.372
260.293	15.588	896.126	669.140
261.307	15.611	895.949	669.041
262.322	15.549	895.078	668.083
263.336	15.753	894.382	668.315
264.351	15.699	893.519	667.400
265.366	15.639	892.955	666.678
266.380	15.708	892.721	666.721
267.395	15.697	891.876	665.984
268.409	15.690	890.793	665.092
269.424	15.855	889.869	664.993
270.439	15.625	889.809	663.980
271.453	15.717	888.726	663.478
272.468	15.733	888.339	663.192
273.482	15.787	887.585	662.784
274.497	15.799	887.003	662.338
275.512	15.683	886.916	661.758
276.526	15.806	886.573	661.927
277.541	15.816	885.731	661.279
278.555	15.797	885.235	660.777
279.570	15.877	884.570	660.535
280.585	15.850	883.439	659.526
281.599	16.009	882.948	659.725
282.614	15.841	882.422	658.617
283.628	16.000	881.715	658.651
284.643	16.026	881.077	658.218
285.657	16.004	879.858	657.163
286.672	15.897	879.576	656.478
287.687	15.901	879.022	656.022
288.701	15.938	878.547	655.754
289.716	16.068	877.741	655.598
290.730	16.127	877.157	655.333
291.745	16.160	876.560	654.959
292.760	16.104	875.686	654.029
293.774	16.285	875.105	654.238
294.789	16.109	874.472	653.028
295.803	16.053	874.183	652.535
296.818	16.074	873.300	651.903
297.833	16.069	872.520	651.241
298.847	16.127	872.333	651.267
299.862	16.124	871.550	650.614
300.876	16.212	871.020	650.501
301.891	16.333	870.182	650.283
302.906	16.325	869.829	649.930
303.920	16.411	868.971	649.565
304.935	16.429	868.339	649.103
305.949	16.380	867.862	648.499
306.964	16.457	866.826	647.965
307.979	16.346	866.977	647.593
308.993	16.401	865.875	646.923
310.008	16.434	865.369	646.617
311.022	16.241	865.164	645.668
312.037	16.331	864.499	645.459
313.052	16.356	863.708	644.906
314.066	16.358	863.408	644.632
315.081	16.256	863.154	643.996
316.095	16.464	861.976	643.853
317.110	16.398	861.788	643.405
318.125	16.319	861.327	642.702
319.139	16.348	860.795	642.357
320.154	16.448	860.180	642.221
321.168	16.477	859.382	641.679
322.183	16.474	858.992	641.319
323.197	16.512	858.439	640.996
324.212	16.563	858.133	640.902
325.227	16.526	857.510	640.243
326.241	16.584	856.563	639.695
327.256	16.462	856.277	638.967
328.270	16.495	855.777	638.662
329.285	16.526	855.462	638.484
330.300	16.626	854.602	638.164
331.314	16.538	853.790	637.171
332.329	16.617	853.113	636.905
333.343	16.651	852.857	636.786
334.358	16.783	852.456	636.927
335.373	16.622	852.334	636.174
336.387	16.656	851.926	635.942
337.402	16.699	851.350	635.615
338.416	16.632	851.203	635.200
339.431	16.899	850.533	635.645
340.446	16.841	849.906	634.903
341.460	16.841	849.548	634.577
342.475	16.810	849.534	634.395
343.489	16.969	849.117	634.624
344.504	16.972	848.326	633.988
345.519	16.955	847.910	633.556
346.533	16.773	847.555	632.556
347.548	16.905	846.934	632.527
348.562	16.924	846.513	632.230
349.577	16.761	845.650	630.921
350.592	16.744	845.116	630.404
351.606	16.912	844.355	630.404
352.621	16.958	843.733	630.054
353.635	17.069	842.882	629.775
354.650	16.971	842.534	629.098
355.665	17.117	841.980	629.168
356.679	16.984	841.474	628.243
357.694	17.064	840.467	627.730
358.708	17.042	840.074	627.302
359.723	17.133	839.300	627.004
360.738	17.111	838.597	626.340
361.752	16.976	838.332	625.589
362.767	17.162	837.334	625.474
363.781	17.180	837.330	625.484
364.796	17.332	836.354	625.258
365.810	17.481	836.046	625.518
366.825	17.290	835.614	624.441
367.840	17.300	835.379	624.245
368.854	17.375	834.776	624.016
369.869	17.159	834.776	623.166
370.883	17.237	834.384	623.104
371.898	17.227	834.089	622.792
372.913	17.509	833.091	623.025
373.927	17.488	832.498	622.448
374.942	17.418	832.351	622.029
375.956	17.441	831.859	621.688
376.971	17.539	831.160	621.472
377.986	17.469	830.831	620.914
379.000	17.561	830.383	620.858
380.015	17.509	829.684	620.092
381.029	17.678	829.257	620.334
382.044	17.634	828.569	619.605
383.059	17.557	828.263	619.042
384.073	17.594	827.686	618.688
385.088	17.428	827.212	617.678
386.102	17.592	826.592	617.755
387.117	17.570	826.032	617.202
388.132	17.616	825.245	616.725
389.146	17.657	824.703	616.414
390.161	17.688	824.409	616.253
391.175	17.702	823.962	615.914
392.190	17.650	823.183	615.091
393.205	17.664	822.785	614.789
394.219	17.685	822.554	614.638
395.234	17.777	822.089	614.564
396.248	17.676	821.595	613.780
397.263	17.570	821.430	613.220
398.278	17.713	821.014	613.371
399.292	17.735	820.562	613.056
400.307	17.747	819.908	612.556
401.321	17.674	819.209	611.719
402.336	17.740	819.246	611.929
403.350	17.735	818.328	611.173
404.365	17.665	818.358	610.887
405.380	17.726	817.690	610.556
406.394	17.892	817.034	610.604
407.409	17.952	816.471	610.345
408.423	17.952	816.388	610.228
409.438	17.975	815.669	609.719
410.453	18.078	815.271	609.734
411.467	17.964	815.132	609.171
412.482	18.030	814.601	608.955
413.496	18.169	814.074	609.002
414.511	18.038	814.144	608.535
415.526	18.054	813.508	608.060
416.540	18.001	813.048	607.475
417.555	18.130	812.448	607.433
418.569	18.268	811.712	607.318
419.584	18.131	811.537	606.646
420.599	18.372	810.814	606.906
421.613	116.026	1300.023	1491.444
422.628	100.435	1371.252	1491.507
