DTS Sentinel unit serial number:	SN413079Multiplexer serial number:	ORYXHardware model number:	OX4-SRSoftware version number:	ORYX F/W v4.00 Oryx Data Collector v3.7.2.0data status	okinstallation	princeton_trtdifferential loss correction	single-endedforward channel	channel 1reverse channel	N/Adate	2019/09/19time	14:26:35forward acquisition time	60.00reverse acquisition time	0.00gamma	496.2192k internal	0.2321k external	0.2321temperature offset calibration	1.0017default loss term (dB/km)	0.3790temperature slope calibration	1.0000multiplexer offset coefficient	1.0000multiplexer slope coefficient	1.0000fibre end	0.00T internal ref (°C)	32.05T ext. ref 1 (°C)	1.05T ext. ref 2 (°C)	29.22length (m)	temperature (°C)	Stokes	anti-Stokes-747.200	16.449	0.123	-0.098
-746.185	37.445	-0.231	0.207
-745.171	115.842	-0.051	-0.063
-744.156	-200.000	-0.043	0.205
-743.142	41.271	0.163	-0.149
-742.127	-200.000	0.067	0.338
-741.112	6.536	-0.161	-0.121
-740.098	-171.669	-0.090	0.003
-739.083	659.527	0.065	-0.169
-738.069	-68.854	-0.260	-0.101
-737.054	323.106	-0.191	-0.369
-736.039	-200.000	-0.090	-0.452
-735.025	64.569	0.146	0.149
-734.010	33.762	-0.168	-0.147
-732.996	525.835	-0.169	-0.403
-731.981	114.931	-0.080	0.098
-730.966	-137.548	-0.249	-0.028
-729.952	-115.928	-0.233	0.044
-728.937	-200.000	-0.066	0.336
-727.923	148.402	0.375	0.511
-726.908	800.000	-0.041	-0.133
-725.894	249.935	0.122	-0.209
-724.879	147.355	-0.141	-0.192
-723.864	-200.000	-0.044	-0.210
-722.850	-127.520	-0.109	-0.016
-721.835	68.512	-0.157	-0.162
-720.821	-89.700	-0.084	0.025
-719.806	64.264	-0.191	-0.195
-718.791	-119.856	-0.431	-0.075
-717.777	-61.519	-0.282	0.120
-716.762	-61.444	-0.224	-0.095
-715.748	800.000	0.026	0.083
-714.733	-66.546	0.124	0.050
-713.718	-73.540	-0.180	0.066
-712.704	-123.196	-0.168	-0.027
-711.689	328.514	0.166	-0.322
-710.675	-13.917	-0.121	0.079
-709.660	-83.037	-0.074	0.024
-708.645	26.259	-0.146	-0.123
-707.631	153.374	0.060	-0.082
-706.616	-107.541	-0.276	0.061
-705.602	-59.874	-0.217	-0.094
-704.587	74.409	0.028	0.030
-703.572	-42.678	0.166	-0.085
-702.558	800.000	-0.041	-0.117
-701.543	-89.870	-0.145	0.043
-700.529	-200.000	-0.019	0.106
-699.514	-56.035	0.342	0.154
-698.499	-116.796	-0.165	-0.030
-697.485	437.166	0.021	0.046
-696.470	-200.000	0.039	-0.182
-695.456	-9.374	0.067	-0.045
-694.441	-200.000	0.000	0.045
-693.426	-200.000	-0.012	0.063
-692.412	258.335	0.082	-0.143
-691.397	-174.375	-0.517	0.015
-690.383	-71.403	-0.115	0.044
-689.368	14.152	-0.121	0.095
-688.354	201.281	-0.054	0.084
-687.339	-13.998	-0.117	0.076
-686.324	573.548	0.109	0.268
-685.310	-8.101	-0.436	0.297
-684.295	181.858	0.168	-0.249
-683.281	61.238	0.024	-0.024
-682.266	800.000	0.076	0.324
-681.251	-187.019	0.266	-0.004
-680.237	35.243	0.120	0.106
-679.222	193.772	-0.175	0.267
-678.208	126.927	0.182	0.233
-677.193	374.867	0.060	0.124
-676.178	800.000	-0.105	0.384
-675.164	176.191	-0.099	0.145
-674.149	-10.842	-0.403	-0.268
-673.135	-200.000	-0.024	-0.112
-672.120	12.232	-0.094	-0.073
-671.105	800.000	0.056	0.241
-670.091	-200.000	0.040	-0.176
-669.076	-34.211	-0.158	-0.087
-668.062	427.790	0.190	-0.413
-667.047	344.863	-0.121	0.239
-666.032	-127.732	-0.292	0.042
-665.018	-156.830	-0.336	0.021
-664.003	349.991	0.036	0.072
-662.989	216.276	0.028	-0.046
-661.974	-115.963	-0.274	0.052
-660.959	-100.913	-0.015	0.004
-659.945	-60.063	-0.073	0.031
-658.930	-184.006	0.202	-0.003
-657.916	-152.498	0.313	0.023
-656.901	83.440	0.194	-0.213
-655.886	-200.000	-0.030	0.138
-654.872	-48.651	-0.395	0.191
-653.857	12.427	0.256	-0.199
-652.843	96.217	0.205	-0.236
-651.828	268.208	-0.102	-0.180
-650.814	-181.991	-0.234	0.004
-649.799	114.787	-0.045	-0.056
-648.784	-27.786	-0.233	0.136
-647.770	-163.837	0.338	-0.016
-646.755	800.000	-0.050	0.154
-645.741	254.737	-0.165	0.285
-644.726	-86.691	-0.252	-0.078
-643.711	11.818	-0.381	-0.295
-642.697	-113.725	0.365	0.072
-641.682	323.067	0.189	-0.363
-640.668	93.544	0.092	0.105
-639.653	-76.158	-0.340	0.121
-638.638	386.268	0.241	-0.500
-637.624	800.000	0.052	0.145
-636.609	36.120	0.087	0.077
-635.595	800.000	0.064	0.256
-634.580	-38.386	0.066	-0.035
-633.565	562.251	-0.181	0.442
-632.551	49.470	-0.179	-0.169
-631.536	50.283	0.135	0.128
-630.522	-200.000	-0.035	0.260
-629.507	-49.951	0.355	-0.170
-628.492	-163.895	0.041	-0.002
-627.478	800.000	-0.076	-0.250
-626.463	-200.000	-0.007	0.033
-625.449	68.777	-0.180	-0.185
-624.434	447.344	-0.127	-0.280
-623.419	800.000	-0.021	-0.083
-622.405	-200.000	0.019	0.092
-621.390	-13.789	-0.085	-0.055
-620.376	55.120	0.238	-0.231
-619.361	-140.612	-0.185	-0.019
-618.346	-200.000	-0.048	0.365
-617.332	800.000	-0.114	0.448
-616.317	55.674	-0.212	-0.207
-615.303	181.246	-0.115	-0.170
-614.288	389.682	-0.023	-0.048
-613.273	-200.000	-0.039	0.346
-612.259	-97.595	-0.208	-0.054
-611.244	-123.018	-0.094	0.015
-610.230	-95.992	-0.211	-0.056
-609.215	154.499	-0.138	-0.190
-608.201	-200.000	-0.058	0.271
-607.186	266.468	-0.244	0.428
-606.171	800.000	-0.026	-0.105
-605.157	-200.000	-0.006	-0.138
-604.142	485.401	0.044	-0.101
-603.128	47.891	0.082	0.077
-602.113	-5.695	0.233	-0.161
-601.098	-77.673	0.091	-0.032
-600.084	-169.395	-0.040	-0.001
-599.069	-140.212	0.103	-0.011
-598.055	134.635	0.168	-0.219
-597.040	47.049	-0.111	0.104
-596.025	213.658	-0.095	0.151
-595.011	290.741	-0.041	-0.075
-593.996	-79.662	-0.346	-0.117
-592.982	7.852	0.295	0.222
-591.967	-137.133	0.184	0.021
-590.952	-200.000	-0.025	0.186
-589.938	-91.013	-0.131	-0.038
-588.923	124.706	-0.083	-0.106
-587.909	349.131	0.106	0.210
-586.894	-25.681	-0.072	0.042
-585.879	369.129	-0.019	-0.038
-584.865	22.644	0.326	-0.268
-583.850	307.474	0.133	0.249
-582.836	-154.755	0.150	-0.010
-581.821	-200.000	0.205	-0.000
-580.806	51.127	0.158	-0.151
-579.792	-82.684	-0.179	-0.058
-578.777	23.480	-0.256	-0.211
-577.763	-200.000	-0.003	0.351
-576.748	-200.000	0.023	-0.424
-575.733	-24.639	-0.087	-0.052
-574.719	559.890	-0.085	-0.207
-573.704	-89.642	0.107	-0.031
-572.690	-200.000	-0.001	-0.113
-571.675	207.619	-0.083	0.130
-570.661	-118.917	0.145	0.026
-569.646	146.780	-0.058	0.078
-568.631	87.253	-0.311	0.345
-567.617	-200.000	0.029	0.193
-566.602	-200.000	-0.006	-0.173
-565.588	233.516	0.041	-0.067
-564.573	-114.860	-0.178	0.034
-563.558	106.073	0.230	0.273
-562.544	86.948	-0.175	0.193
-561.529	-28.734	0.256	-0.148
-560.515	-200.000	0.027	-0.273
-559.500	237.927	0.083	-0.138
-558.485	-99.665	0.189	-0.048
-557.471	-129.728	0.196	0.027
-556.456	631.578	0.046	0.117
-555.442	800.000	-0.097	0.357
-554.427	-57.745	-0.257	0.113
-553.412	72.119	-0.303	0.317
-552.398	28.524	0.086	0.073
-551.383	-12.839	0.125	-0.081
-550.369	20.054	-0.185	-0.149
-549.354	426.620	0.080	-0.173
-548.339	-32.242	0.070	-0.039
-547.325	-55.526	-0.172	0.077
-546.310	683.112	0.073	0.192
-545.296	57.615	0.157	-0.153
-544.281	-200.000	-0.055	-0.249
-543.266	488.007	0.061	0.140
-542.252	-23.051	-0.205	-0.124
-541.237	-90.432	0.321	-0.093
-540.223	720.536	0.075	-0.200
-539.208	-124.059	-0.281	0.044
-538.193	254.655	0.064	0.111
-537.179	-23.755	-0.388	0.233
-536.164	-46.782	0.352	-0.173
-535.150	-200.000	0.002	0.018
-534.135	283.743	-0.113	0.203
-533.121	570.915	-0.077	-0.188
-532.106	-83.591	-0.462	0.148
-531.091	-124.799	-0.120	-0.019
-530.077	-200.000	-0.012	-0.183
-529.062	308.038	0.082	0.154
-528.048	-89.439	-0.151	-0.044
-527.033	-23.070	-0.232	0.140
-526.018	-88.339	0.168	-0.050
-525.004	638.222	0.114	-0.290
-523.989	27.393	0.114	-0.096
-522.975	53.350	0.123	-0.118
-521.960	-50.718	-0.053	-0.025
-520.945	-200.000	-0.021	0.185
-519.931	800.000	-0.113	-0.327
-518.916	-51.787	0.209	-0.097
-517.902	800.000	-0.056	-0.210
-516.887	95.863	0.175	-0.200
-515.872	47.865	0.186	-0.174
-514.858	-200.000	-0.013	-0.381
-513.843	-53.126	0.445	-0.205
-512.829	73.388	0.121	-0.127
-511.814	78.489	0.136	-0.146
-510.799	175.805	0.086	-0.124
-509.785	131.909	-0.034	0.043
-508.770	800.000	0.028	0.112
-507.756	154.706	0.195	-0.269
-506.741	-15.002	-0.045	0.029
-505.726	-11.884	0.311	0.204
-504.712	114.246	0.139	0.169
-503.697	-200.000	-0.011	0.159
-502.683	153.756	0.073	-0.100
-501.668	535.437	-0.115	0.273
-500.653	-200.000	-0.020	0.230
-499.639	-62.003	-0.420	0.176
-498.624	-200.000	-0.007	-0.036
-497.610	-200.000	0.055	0.252
-496.595	800.000	-0.036	-0.099
-495.581	40.027	0.162	0.146
-494.566	-87.741	-0.105	0.032
-493.551	-2.452	0.204	0.143
-492.537	-200.000	-0.040	-0.183
-491.522	-200.000	0.015	-0.223
-490.508	232.116	-0.016	0.026
-489.493	126.462	-0.093	-0.118
-488.478	10.748	-0.269	0.205
-487.464	800.000	-0.105	-0.322
-486.449	143.730	-0.054	-0.072
-485.435	-200.000	-0.044	0.321
-484.420	-120.680	-0.361	0.061
-483.405	145.777	-0.064	0.086
-482.391	-162.526	0.394	-0.019
-481.376	149.323	0.175	-0.237
-480.362	-200.000	-0.013	0.080
-479.347	-66.192	-0.176	-0.070
-478.332	-80.374	-0.317	0.106
-477.318	-127.761	-0.447	0.064
-476.303	140.026	0.135	-0.178
-475.289	74.700	-0.064	0.067
-474.274	800.000	-0.040	-0.112
-473.259	-200.000	0.006	0.173
-472.245	-0.559	-0.216	0.153
-471.230	800.000	0.087	0.364
-470.216	-50.657	-0.320	-0.151
-469.201	-119.557	-0.141	0.024
-468.186	107.006	0.165	0.196
-467.172	-52.010	0.291	0.135
-466.157	61.874	0.181	-0.180
-465.143	77.651	-0.259	-0.275
-464.128	-5.091	-0.338	0.232
-463.113	-200.000	-0.003	0.118
-462.099	-3.336	0.069	0.048
-461.084	800.000	-0.129	0.412
-460.070	-200.000	-0.005	-0.091
-459.055	-78.307	-0.192	-0.066
-458.040	-1.388	0.148	-0.104
-457.026	-1.316	0.323	0.228
-456.011	-100.132	-0.092	0.023
-454.997	-138.126	0.277	-0.031
-453.982	133.931	-0.104	0.134
-452.968	-128.940	-0.032	-0.004
-451.953	800.000	0.131	-0.560
-450.938	145.686	0.197	0.264
-449.924	-200.000	0.049	-0.227
-448.909	-139.493	-0.196	0.021
-447.895	18.669	0.400	0.320
-446.880	800.000	-0.016	-0.045
-445.865	800.000	-0.070	-0.289
-444.851	50.083	0.137	0.129
-443.836	-200.000	-0.027	0.225
-442.822	14.632	0.140	0.110
-441.807	-71.800	-0.259	-0.096
-440.792	623.195	-0.088	-0.220
-439.778	8.369	-0.093	-0.070
-438.763	-97.083	0.197	-0.051
-437.749	49.493	-0.075	0.071
-436.734	145.943	-0.113	-0.151
-435.719	-200.000	-0.031	0.359
-434.705	800.000	-0.055	0.152
-433.690	-62.381	-0.211	-0.088
-432.676	56.062	-0.210	0.203
-431.661	148.706	-0.021	0.028
-430.646	-31.936	-0.039	-0.022
-429.632	154.344	0.110	-0.151
-428.617	-200.000	-0.019	0.096
-427.603	86.702	-0.051	0.056
-426.588	178.650	0.219	-0.320
-425.573	-7.943	-0.143	0.096
-424.559	-129.511	0.138	0.019
-423.544	-180.922	-0.235	-0.005
-422.530	-12.986	0.180	-0.117
-421.515	800.000	0.090	-0.291
-420.500	-14.593	-0.035	-0.022
-419.486	24.954	0.089	0.074
-418.471	-54.578	0.147	0.066
-417.457	-105.591	0.188	-0.042
-416.442	54.170	0.125	0.120
-415.428	-32.648	-0.166	0.092
-414.413	-80.966	0.189	-0.062
-413.398	-200.000	-0.034	0.303
-412.384	573.331	-0.131	0.318
-411.369	235.195	0.083	0.136
-410.355	-131.012	0.459	-0.061
-409.340	74.336	-0.085	0.090
-408.325	-200.000	-0.072	0.374
-407.311	71.595	0.079	-0.082
-406.296	800.000	0.106	0.422
-405.282	800.000	0.094	0.397
-404.267	536.163	0.052	-0.123
-403.252	-54.280	-0.320	-0.145
-402.238	-48.755	0.347	-0.166
-401.223	173.250	-0.092	-0.133
-400.209	-91.332	-0.148	0.042
-399.194	-200.000	0.012	-0.053
-398.179	800.000	-0.064	0.201
-397.165	800.000	-0.055	0.238
-396.150	-76.173	0.325	0.114
-395.136	-179.449	0.176	-0.004
-394.121	-92.618	-0.141	-0.040
-393.106	800.000	0.075	0.229
-392.092	128.870	-0.139	-0.177
-391.077	29.237	0.308	0.261
-390.063	-87.631	0.116	-0.035
-389.048	-111.537	0.455	0.092
-388.033	-200.000	-0.061	-0.341
-387.019	564.041	0.056	0.136
-386.004	4.725	-0.117	-0.086
-384.990	-75.201	-0.062	-0.022
-383.975	-149.337	0.354	-0.028
-382.960	800.000	0.054	0.197
-381.946	175.537	0.043	0.062
-380.931	-25.888	0.239	-0.140
-379.917	105.030	-0.264	0.311
-378.902	-2.933	0.373	0.259
-377.888	-173.133	-0.399	-0.012
-376.873	-96.047	0.176	-0.047
-375.858	22.912	-0.150	0.122
-374.844	126.718	0.279	-0.352
-373.829	-57.202	0.244	-0.107
-372.815	-151.334	-0.332	-0.025
-371.800	36.041	0.161	-0.141
-370.785	800.000	-0.115	-0.320
-369.771	604.212	-0.044	0.110
-368.756	-80.307	0.040	0.013
-367.742	591.229	-0.070	0.171
-366.727	-117.729	-0.245	-0.044
-365.712	245.556	0.152	0.254
-364.698	-157.499	-0.115	0.007
-363.683	-37.187	0.208	-0.111
-362.669	112.080	0.247	-0.297
-361.654	173.955	-0.194	-0.278
-360.639	195.369	-0.081	0.122
-359.625	800.000	0.020	0.062
-358.610	113.943	-0.118	0.142
-357.596	800.000	-0.092	-0.278
-356.581	-93.769	0.201	0.055
-355.566	-54.022	-0.240	0.109
-354.552	-200.000	-0.048	0.222
-353.537	-23.315	0.144	-0.086
-352.523	218.187	-0.227	0.361
-351.508	304.188	0.198	-0.366
-350.493	76.643	-0.141	0.149
-349.479	-87.917	-0.116	0.035
-348.464	90.351	-0.332	-0.369
-347.450	-200.000	0.045	0.529
-346.435	-32.639	-0.170	0.094
-345.420	-84.457	0.168	-0.053
-344.406	14.275	0.213	-0.165
-343.391	5.325	-0.091	0.067
-342.377	-89.862	0.206	-0.060
-341.362	251.065	0.066	-0.112
-340.348	126.253	-0.150	0.189
-339.333	-106.965	0.163	0.036
-338.318	65.128	-0.124	-0.125
-337.304	231.518	-0.113	0.185
-336.289	-22.058	-0.163	0.098
-335.275	-200.000	-0.002	0.069
-334.260	43.968	-0.078	-0.071
-333.245	43.458	0.119	0.108
-332.231	548.864	0.136	-0.324
-331.216	-136.856	-0.151	-0.017
-330.202	439.780	0.115	-0.250
-329.187	624.703	0.085	-0.213
-328.172	-101.893	0.350	-0.084
-327.158	-76.307	-0.282	0.099
-326.143	-116.855	-0.149	0.027
-325.129	329.042	-0.092	-0.175
-324.114	50.112	-0.119	0.112
-323.099	-6.074	-0.162	-0.110
-322.085	800.000	-0.008	-0.029
-321.070	800.000	0.074	-0.280
-320.056	267.776	-0.103	-0.179
-319.041	800.000	0.059	-0.243
-318.026	-200.000	0.028	0.149
-317.012	188.844	-0.026	-0.038
-315.997	-200.000	0.002	-0.131
-314.983	-200.000	-0.008	0.079
-313.968	800.000	0.014	-0.044
-312.953	216.356	-0.042	-0.067
-311.939	-73.463	0.092	0.033
-310.924	90.399	-0.117	-0.131
-309.910	134.607	0.159	-0.205
-308.895	204.061	-0.292	0.450
-307.880	-96.735	0.271	-0.071
-306.866	-134.729	0.584	-0.071
-305.851	-200.000	-0.021	-0.174
-304.837	-170.546	-0.142	-0.005
-303.822	-50.133	-0.160	-0.075
-302.807	-109.397	0.284	0.060
-301.793	250.902	0.019	0.032
-300.778	-83.683	-0.127	-0.040
-299.764	-84.152	-0.041	0.013
-298.749	-73.918	0.260	0.094
-297.735	414.771	-0.089	0.188
-296.720	21.374	0.063	-0.051
-295.705	362.513	0.213	0.425
-294.691	-200.000	-0.005	0.170
-293.676	-200.000	0.037	0.247
-292.662	-200.000	0.013	-0.254
-291.647	579.124	-0.072	-0.175
-290.632	-15.193	0.385	-0.245
-289.618	69.974	0.190	-0.195
-288.603	-119.670	-0.319	-0.055
-287.589	92.368	0.139	0.155
-286.574	-118.017	0.352	0.063
-285.559	-160.948	-0.176	-0.009
-284.545	429.754	0.074	-0.158
-283.530	-12.721	-0.223	-0.144
-282.516	-129.435	-0.205	-0.028
-281.501	102.203	0.013	-0.015
-280.486	-38.361	0.110	-0.058
-279.472	16.767	-0.175	0.137
-278.457	9.715	0.143	-0.108
-277.443	-35.254	0.467	-0.252
-276.428	-200.000	-0.003	0.041
-275.413	209.696	-0.089	0.138
-274.399	543.940	-0.028	-0.066
-273.384	-200.000	-0.029	-0.184
-272.370	-117.178	-0.191	-0.034
-271.355	-72.950	0.387	-0.141
-270.340	800.000	-0.031	-0.134
-269.326	-175.365	-0.110	0.003
-268.311	-200.000	-0.010	-0.074
-267.297	-148.942	-0.301	-0.024
-266.282	-141.051	0.135	-0.014
-265.267	-82.262	0.253	-0.082
-264.253	800.000	0.021	0.068
-263.238	18.855	0.189	0.150
-262.224	21.091	-0.128	0.103
-261.209	800.000	0.025	0.106
-260.195	-200.000	-0.021	-0.094
-259.180	800.000	0.032	-0.093
-258.165	-200.000	-0.050	-0.267
-257.151	-200.000	-0.024	0.296
-256.136	605.403	-0.077	-0.191
-255.122	-22.819	-0.158	0.095
-254.107	-148.963	-0.067	0.005
-253.092	-200.000	0.049	0.224
-252.078	-121.160	-0.248	0.041
-251.063	33.631	-0.235	0.202
-250.049	-70.101	-0.417	0.157
-249.034	133.901	-0.199	-0.256
-248.019	-200.000	-0.058	0.292
-247.005	-200.000	-0.012	-0.072
-245.990	43.845	-0.238	-0.216
-244.976	24.473	-0.060	-0.049
-243.961	-148.576	0.154	0.012
-242.946	267.324	0.136	0.236
-241.932	800.000	-0.049	0.148
-240.917	-97.988	0.261	0.067
-239.903	93.232	-0.263	-0.295
-238.888	-58.435	0.198	-0.085
-237.873	-99.374	0.147	0.037
-236.859	170.493	-0.044	0.062
-235.844	-57.064	0.133	0.058
-234.830	-73.276	0.082	0.030
-233.815	-188.010	0.127	0.002
-232.800	60.242	-0.195	0.191
-231.786	-200.000	0.062	0.352
-230.771	34.551	-0.279	-0.241
-229.757	-134.949	-0.116	-0.014
-228.742	-3.397	-0.069	-0.047
-227.727	329.760	-0.178	0.340
-226.713	800.000	-0.114	0.377
-225.698	800.000	0.024	-0.069
-224.684	-85.673	0.284	-0.088
-223.669	356.549	0.135	0.266
-222.655	800.000	0.060	-0.197
-221.640	418.671	0.157	0.333
-220.625	-200.000	0.017	0.127
-219.611	800.000	0.050	0.149
-218.596	445.836	-0.133	-0.289
-217.582	-50.888	0.187	-0.087
-216.567	-200.000	0.008	-0.185
-215.552	-200.000	0.008	-0.140
-214.538	260.101	0.125	0.214
-213.523	-72.472	0.224	0.082
-212.509	41.618	0.293	-0.263
-211.494	464.904	0.148	-0.327
-210.479	-65.159	-0.279	0.111
-209.465	-22.227	-0.108	-0.065
-208.450	-200.000	-0.010	-0.152
-207.436	800.000	-0.031	0.126
-206.421	-110.939	0.092	-0.019
-205.406	-200.000	-0.000	-0.104
-204.392	800.000	0.017	-0.069
-203.377	331.561	-0.052	-0.099
-202.363	316.736	0.089	-0.167
-201.348	352.301	0.214	-0.420
-200.333	174.487	0.056	-0.080
-199.319	-91.467	0.215	-0.061
-198.304	-11.286	-0.252	-0.164
-197.290	-65.599	-0.263	-0.104
-196.275	47.396	0.197	-0.182
-195.260	-200.000	-0.008	-0.056
-194.246	-200.000	0.007	-0.065
-193.231	2.888	0.404	0.290
-192.217	639.148	0.057	0.143
-191.202	185.217	-0.045	-0.066
-190.187	109.160	0.172	-0.203
-189.173	800.000	-0.129	-0.467
-188.158	162.444	-0.217	0.301
-187.144	-32.753	-0.226	0.125
-186.129	-88.213	-0.136	0.040
-185.114	138.882	-0.158	0.205
-184.100	18.085	-0.114	0.090
-183.085	-49.883	-0.130	0.061
-182.071	-83.293	-0.302	0.096
-181.056	-54.697	-0.261	-0.117
-180.042	-96.728	0.131	0.034
-179.027	-180.476	0.327	-0.007
-178.012	-200.000	0.008	-0.112
-176.998	264.248	0.048	-0.083
-175.983	-28.812	0.158	0.090
-174.969	12.980	-0.168	-0.128
-173.954	-80.039	-0.291	0.097
-172.939	-200.000	-0.018	0.217
-171.925	-200.000	-0.039	-0.244
-170.910	-8.494	-0.062	0.041
-169.896	373.619	0.080	-0.160
-168.881	-47.716	0.099	0.048
-167.866	496.251	0.017	0.038
-166.852	-65.519	-0.290	0.115
-165.837	74.404	-0.165	0.171
-164.823	-200.000	-0.033	-0.272
-163.808	-200.000	0.004	-0.119
-162.793	-200.000	-0.017	-0.162
-161.779	168.938	-0.091	-0.128
-160.764	-93.219	0.215	0.059
-159.750	-200.000	0.036	0.195
-158.735	-200.000	-0.026	0.164
-157.720	-200.000	-0.015	-0.214
-156.706	-200.000	-0.041	0.210
-155.691	-80.422	0.086	0.028
-154.677	-8.553	-0.226	-0.150
-153.662	-31.842	0.144	0.080
-152.647	784.679	0.077	0.210
-151.633	-200.000	0.004	-0.103
-150.618	188.278	-0.180	0.266
-149.604	220.418	0.081	0.128
-148.589	800.000	-0.044	0.154
-147.574	585.901	-0.068	0.165
-146.560	-200.000	0.001	0.186
-145.545	1.345	0.165	0.117
-144.531	-200.000	-0.045	-0.221
-143.516	20.146	-0.065	0.051
-142.502	289.497	0.017	0.031
-141.487	221.259	0.079	0.125
-140.472	-200.000	0.031	0.274
-139.458	560.736	0.059	0.141
-138.443	-200.000	0.062	-0.348
-137.429	-200.000	0.031	-0.381
-136.414	-79.239	0.101	-0.034
-135.399	-200.000	-0.120	-0.652
-134.385	-200.000	-0.044	-0.197
-133.370	-200.000	-0.007	0.132
-132.356	133.347	0.083	-0.106
-131.341	246.008	0.117	0.194
-130.326	253.551	-0.223	0.376
-129.312	-200.000	-0.042	0.214
-128.297	86.516	0.192	-0.208
-127.283	-69.627	0.339	0.128
-126.268	-41.139	-0.340	0.173
-125.253	-139.871	0.162	0.017
-124.239	102.914	-0.279	0.322
-123.224	709.876	0.018	-0.048
-122.210	-83.389	-0.191	0.060
-121.195	-200.000	-0.029	0.278
-120.180	800.000	-0.077	0.248
-119.166	57.027	-0.110	-0.106
-118.151	-37.499	-0.069	0.036
-117.137	-127.154	-0.248	-0.036
-116.122	800.000	0.068	0.227
-115.107	-200.000	-0.045	-0.203
-114.093	-200.000	0.057	0.318
-113.078	-200.000	-0.043	-0.364
-112.064	-2.636	-0.159	-0.110
-111.049	-148.384	0.164	0.013
-110.034	800.000	0.147	0.445
-109.020	-124.615	-0.107	-0.016
-108.005	800.000	-0.024	-0.078
-106.991	-124.907	0.197	-0.030
-105.976	-5.530	-0.096	0.065
-104.962	-85.846	0.113	-0.035
-103.947	-20.118	-0.193	0.117
-102.932	144.640	0.112	0.148
-101.918	139.338	-0.238	0.309
-100.903	-200.000	-0.002	-0.177
-99.889	-0.484	0.159	-0.111
-98.874	82.273	-0.109	0.117
-97.859	141.518	-0.096	0.126
-96.845	-142.117	-0.114	0.011
-95.830	47.155	-0.092	-0.085
-94.816	22.661	-0.119	0.096
-93.801	255.383	0.159	0.268
-92.786	-95.620	-0.154	-0.041
-91.772	-87.965	0.103	-0.030
-90.757	253.853	-0.209	-0.351
-89.743	-200.000	-0.015	0.176
-88.728	-57.960	0.161	-0.069
-87.713	245.349	-0.072	-0.119
-86.699	-84.289	0.373	0.116
-85.684	-127.600	0.149	-0.021
-84.670	-92.784	0.223	0.062
-83.655	-84.651	-0.240	0.075
-82.640	800.000	0.068	0.188
-81.626	-78.604	-0.179	0.060
-80.611	-65.338	0.277	0.110
-79.597	-200.000	-0.036	-0.329
-78.582	162.023	0.045	0.062
-77.567	32.647	0.263	-0.224
-76.553	146.911	-0.162	0.215
-75.538	553.235	0.051	-0.121
-74.524	-116.723	0.231	0.042
-73.509	-20.525	-0.141	0.085
-72.494	-47.434	-0.198	-0.095
-71.480	-91.339	0.318	-0.089
-70.465	-84.512	0.434	-0.135
-69.451	14.259	0.077	0.059
-68.436	-200.000	-0.008	-0.129
-67.422	-200.000	0.054	-0.235
-66.407	-200.000	0.038	0.433
-65.392	107.899	-0.030	-0.035
-64.378	-108.244	-0.340	-0.072
-63.363	-200.000	0.027	0.155
-62.349	59.162	-0.348	0.337
-61.334	77.831	-0.788	-0.826
-60.319	-20.401	0.617	0.374
-59.305	180.802	-0.418	-0.604
-58.290	287.314	0.573	1.019
-57.276	800.000	0.424	1.368
-56.261	-200.000	93.471	557.411
-55.246	507.283	1407.712	3213.399
-54.232	151.912	2615.831	3508.987
-53.217	111.104	2202.291	2609.674
-52.203	44.180	1646.108	1485.496
-51.188	35.511	1376.633	1188.893
-50.173	32.353	1334.352	1133.337
-49.159	54.108	1380.221	1305.912
-48.144	56.005	1397.033	1333.368
-47.130	35.751	1356.413	1172.707
-46.115	32.350	1338.884	1136.990
-45.100	32.016	1333.998	1130.783
-44.086	32.045	1331.469	1128.765
-43.071	31.986	1329.252	1126.491
-42.057	31.936	1326.853	1124.113
-41.042	32.042	1325.124	1123.238
-40.027	31.927	1323.639	1121.249
-39.013	31.915	1322.056	1119.790
-37.998	32.024	1319.696	1118.395
-36.984	32.068	1318.001	1117.174
-35.969	32.193	1315.969	1116.150
-34.954	32.086	1314.394	1114.138
-33.940	32.087	1313.039	1112.951
-32.925	32.163	1311.815	1112.317
-31.911	32.139	1310.155	1110.725
-30.896	32.097	1308.830	1109.309
-29.881	32.158	1307.251	1108.288
-28.867	32.137	1306.029	1107.084
-27.852	32.151	1304.260	1105.624
-26.838	32.259	1302.788	1104.964
-25.823	32.252	1301.392	1103.694
-24.809	32.215	1300.376	1102.573
-23.794	32.165	1298.897	1100.984
-22.779	32.091	1297.688	1099.483
-21.765	32.176	1296.385	1098.829
-20.750	32.115	1294.964	1097.227
-19.736	32.049	1293.697	1095.722
-18.721	31.916	1292.625	1093.996
-17.706	31.943	1291.367	1093.048
-16.692	32.003	1290.337	1092.480
-15.677	31.897	1289.560	1091.163
-14.663	31.985	1287.862	1090.193
-13.648	32.001	1286.802	1089.345
-12.633	32.052	1285.661	1088.633
-11.619	31.920	1285.325	1087.540
-10.604	31.969	1284.243	1086.864
-9.590	31.906	1283.470	1085.804
-8.575	31.947	1282.199	1084.920
-7.560	32.030	1281.052	1084.388
-6.546	31.886	1280.835	1083.328
-5.531	31.823	1279.795	1082.044
-4.517	31.940	1278.604	1081.670
-3.502	31.930	1278.015	1081.071
-2.487	31.925	1276.669	1079.857
-1.473	31.950	1273.440	1077.230
-0.458	31.031	1258.311	1059.172
0.556	27.055	1241.175	1022.228
1.571	22.850	1246.508	1002.704
2.586	21.140	1260.314	1003.897
3.600	19.510	1247.920	984.648
4.615	14.320	1171.915	896.719
5.629	5.358	1094.451	792.126
6.644	1.252	1074.161	756.921
7.659	1.043	1071.484	753.930
8.673	0.998	1070.557	752.985
9.688	0.928	1069.564	751.872
10.702	1.143	1067.548	751.455
11.717	5.801	1073.157	778.500
12.731	13.268	1083.631	823.341
13.746	17.043	1087.500	845.038
14.761	17.434	1087.658	847.034
15.775	16.726	1086.211	842.314
16.790	15.869	1083.614	835.968
17.804	15.057	1082.037	830.650
18.819	14.808	1080.772	828.376
19.834	14.343	1080.334	825.659
20.848	14.224	1079.132	824.078
21.863	13.990	1078.043	822.017
22.877	13.751	1077.771	820.556
23.892	13.764	1076.786	819.796
24.907	13.657	1076.385	818.888
25.921	13.575	1075.692	817.886
26.936	13.723	1074.293	817.477
27.950	13.893	1073.456	817.605
28.965	13.903	1072.193	816.623
29.980	13.945	1070.632	815.569
30.994	13.911	1070.029	814.869
32.009	13.927	1068.893	814.008
33.023	13.960	1067.874	813.325
34.038	13.883	1066.830	812.079
35.053	13.870	1066.300	811.539
36.067	13.794	1065.780	810.702
37.082	13.862	1064.693	810.133
38.096	13.913	1063.611	809.488
39.111	13.928	1062.770	808.852
40.126	13.870	1061.383	807.440
41.140	13.767	1060.665	806.323
42.155	13.781	1059.234	805.234
43.169	13.788	1058.101	804.335
44.184	13.767	1057.150	803.436
45.199	13.699	1056.360	802.439
46.213	13.745	1055.497	801.931
47.228	13.846	1054.033	801.237
48.242	13.742	1053.460	800.229
49.257	13.737	1052.192	799.173
50.271	13.863	1050.761	798.621
51.286	13.827	1050.082	797.858
52.301	13.718	1049.698	796.972
53.315	13.782	1048.248	796.110
54.330	13.826	1047.036	795.329
55.344	13.689	1046.602	794.271
56.359	13.891	1045.117	794.043
57.374	13.719	1044.722	792.850
58.388	13.719	1043.628	791.950
59.403	13.751	1043.109	791.636
60.417	13.641	1042.367	790.480
61.432	13.555	1042.051	789.762
62.447	13.621	1041.037	789.236
63.461	13.511	1040.418	788.173
64.476	13.686	1039.139	787.965
65.490	13.742	1038.142	787.406
66.505	13.679	1037.446	786.512
67.520	13.834	1036.723	786.630
68.534	13.844	1035.962	786.029
69.549	13.665	1035.496	784.760
70.563	13.601	1034.692	783.774
71.578	13.666	1033.511	783.119
72.593	13.709	1032.687	782.626
73.607	13.604	1032.641	782.029
74.622	13.634	1031.628	781.332
75.636	13.573	1031.170	780.632
76.651	13.583	1030.254	779.917
77.666	13.550	1030.081	779.559
78.680	13.606	1029.201	779.089
79.695	13.801	1028.335	779.281
80.709	13.644	1028.155	778.338
81.724	13.699	1027.033	777.678
82.739	13.797	1026.111	777.367
83.753	13.830	1025.313	776.848
84.768	13.845	1024.348	776.121
85.782	13.889	1023.900	775.920
86.797	13.793	1023.261	774.917
87.812	13.843	1022.050	774.162
88.826	13.942	1020.223	773.171
89.841	13.774	1020.080	772.217
90.855	13.822	1019.213	771.711
91.870	13.878	1018.343	771.243
92.884	13.979	1016.952	770.594
93.899	13.928	1016.426	769.892
94.914	13.912	1015.613	769.131
95.928	13.910	1015.126	768.688
96.943	13.963	1014.054	768.050
97.957	14.010	1013.036	767.431
98.972	13.867	1012.617	766.382
99.987	13.865	1011.740	765.643
101.001	14.002	1010.305	765.119
102.016	13.864	1009.841	764.066
103.030	13.888	1009.343	763.729
104.045	13.853	1008.347	762.748
105.060	13.768	1007.854	761.919
106.074	13.852	1006.592	761.284
107.089	13.889	1005.499	760.560
108.103	13.899	1004.624	759.877
109.118	13.771	1003.355	758.265
110.133	13.804	1002.896	758.001
111.147	13.772	1001.820	756.975
112.162	13.864	1000.744	756.514
113.176	13.984	1000.130	756.530
114.191	13.809	999.650	755.300
115.206	13.902	998.393	754.707
116.220	13.913	997.657	754.136
117.235	13.990	996.700	753.693
118.249	13.969	995.739	752.803
119.264	13.977	994.983	752.204
120.279	13.932	994.329	751.437
121.293	13.965	993.438	750.846
122.308	13.787	992.914	749.580
123.322	13.907	991.718	749.153
124.337	13.915	990.549	748.238
125.352	13.941	989.822	747.740
126.366	13.922	988.423	746.534
127.381	13.926	987.768	745.989
128.395	13.896	987.079	745.272
129.410	13.945	986.448	744.946
130.424	13.897	984.983	743.558
131.439	14.033	984.146	743.472
132.454	13.989	983.772	742.924
133.468	13.873	982.910	741.688
134.483	14.017	981.712	741.365
135.497	13.987	980.827	740.498
136.512	13.970	979.643	739.461
137.527	14.029	979.020	739.187
138.541	14.023	978.368	738.603
139.556	13.958	977.898	737.896
140.570	13.962	977.108	737.250
141.585	14.014	975.868	736.483
142.600	14.002	975.398	736.007
143.614	14.025	974.459	735.334
144.629	14.128	973.606	735.084
145.643	14.123	972.706	734.314
146.658	14.124	971.448	733.306
147.673	13.978	971.026	732.277
148.687	14.039	970.124	731.804
149.702	13.919	969.619	730.830
150.716	13.993	968.336	730.121
151.731	14.037	967.780	729.832
152.746	14.089	967.019	729.422
153.760	14.010	966.339	728.499
154.775	14.310	965.604	729.191
155.789	14.067	965.545	728.018
156.804	14.214	964.582	727.872
157.819	14.233	963.692	727.218
158.833	14.205	963.326	726.756
159.848	14.360	962.013	726.379
160.862	14.391	961.066	725.734
161.877	14.138	960.573	724.195
162.892	14.126	959.554	723.310
163.906	14.238	958.442	722.895
164.921	14.177	957.348	721.739
165.935	14.110	956.857	721.015
166.950	14.148	956.185	720.611
167.964	14.234	954.974	720.008
168.979	14.201	954.600	719.517
169.994	14.270	953.604	719.000
171.008	14.264	952.696	718.225
172.023	14.328	952.294	718.136
173.037	14.300	951.421	717.293
174.052	14.330	950.574	716.721
175.067	14.239	949.828	715.703
176.081	14.237	949.027	715.030
177.096	14.250	949.023	715.018
178.110	14.240	948.143	714.248
179.125	14.321	947.574	714.103
180.140	14.322	946.969	713.590
181.154	14.236	947.073	713.236
182.169	14.405	946.118	713.179
183.183	14.470	945.232	712.724
184.198	14.439	944.645	712.087
185.213	14.496	943.830	711.655
186.227	14.429	943.363	710.951
187.242	14.506	942.573	710.621
188.256	14.477	941.850	709.889
189.271	14.480	941.025	709.219
190.286	14.413	939.938	708.054
191.300	14.311	939.483	707.211
192.315	14.271	939.060	706.661
193.329	14.400	938.738	706.906
194.344	14.395	937.884	706.176
195.359	14.477	936.967	705.770
196.373	14.466	936.269	705.136
197.388	14.578	936.006	705.350
198.402	14.605	935.536	705.048
199.417	14.727	934.743	704.903
200.432	14.741	934.125	704.434
201.446	14.711	933.687	703.916
202.461	14.796	933.070	703.745
203.475	14.882	932.491	703.609
204.490	14.719	931.754	702.306
205.504	14.667	930.939	701.407
206.519	14.814	930.048	701.292
207.534	14.676	929.701	700.391
208.548	14.702	929.088	699.974
209.563	14.734	928.255	699.419
210.577	14.727	927.420	698.701
211.592	14.851	926.905	698.768
212.607	14.807	926.198	697.990
213.621	14.811	925.853	697.683
214.636	14.892	924.268	696.767
215.650	14.832	923.827	696.120
216.665	14.855	923.391	695.829
217.680	14.994	922.407	695.603
218.694	14.915	921.978	694.888
219.709	14.826	921.401	694.022
220.723	14.929	920.963	694.061
221.738	14.908	920.311	693.420
222.753	14.974	919.114	692.728
223.767	14.882	918.881	692.113
224.782	14.940	918.142	691.732
225.796	15.147	917.559	692.090
226.811	15.043	916.790	691.019
227.826	15.063	916.109	690.526
228.840	15.004	915.591	689.831
229.855	15.081	914.557	689.310
230.869	15.105	913.970	688.902
231.884	15.046	913.587	688.313
232.899	15.101	912.162	687.404
233.913	15.058	911.834	686.918
234.928	14.929	911.439	686.029
235.942	15.051	910.652	685.877
236.957	15.151	910.340	685.991
237.972	15.236	909.237	685.448
238.986	15.133	908.802	684.638
240.001	14.946	908.530	683.607
241.015	15.076	907.637	683.406
242.030	15.037	907.326	682.953
243.045	15.215	906.400	682.920
244.059	15.163	906.057	682.389
245.074	15.221	905.171	681.898
246.088	15.338	904.398	681.731
247.103	15.437	903.298	681.243
248.117	15.221	903.445	680.418
249.132	15.340	902.580	680.190
250.147	15.336	902.181	679.812
251.161	15.420	900.977	679.186
252.176	15.579	900.672	679.539
253.190	15.534	899.840	678.668
254.205	15.605	899.079	678.320
255.220	15.413	898.913	677.359
256.234	15.479	898.228	677.049
257.249	15.561	897.298	676.621
258.263	15.595	896.403	676.021
259.278	15.583	895.520	675.249
260.293	15.596	895.125	674.943
261.307	15.752	894.595	675.107
262.322	15.638	894.070	674.195
263.336	15.716	893.453	673.983
264.351	15.658	892.629	673.071
265.366	15.866	891.594	673.061
266.380	15.848	891.235	672.661
267.395	15.709	890.505	671.494
268.409	15.780	889.781	671.172
269.424	15.876	888.947	670.866
270.439	15.786	888.404	670.039
271.453	15.814	887.741	669.590
272.468	15.834	887.230	669.224
273.482	15.834	886.395	668.536
274.497	15.849	886.182	668.374
275.512	15.759	885.549	667.484
276.526	15.920	884.551	667.309
277.541	15.893	884.673	667.233
278.555	15.825	884.585	666.839
279.570	15.856	883.577	666.144
280.585	15.912	882.560	665.539
281.599	15.846	881.706	664.576
282.614	15.838	881.328	664.199
283.628	16.050	880.615	664.442
284.643	16.044	879.680	663.651
285.657	15.972	879.207	662.955
286.672	15.986	878.680	662.552
287.687	16.018	877.702	661.884
288.701	16.034	877.641	661.840
289.716	15.934	877.048	660.943
290.730	16.169	875.949	660.976
291.745	16.109	875.930	660.668
292.760	16.082	875.204	659.957
293.774	16.199	874.417	659.762
294.789	16.092	873.709	658.754
295.803	16.105	873.166	658.335
296.818	16.252	872.389	658.264
297.833	16.288	871.559	657.720
298.847	16.151	871.288	656.923
299.862	16.235	870.182	656.361
300.876	16.205	869.742	655.852
301.891	16.277	869.038	655.541
302.906	16.347	868.530	655.372
303.920	16.254	868.131	654.652
304.935	16.470	867.341	654.837
305.949	16.321	866.945	653.904
306.964	16.325	866.293	653.369
307.979	16.302	865.559	652.668
308.993	16.535	864.978	653.071
310.008	16.410	864.469	652.146
311.022	16.472	864.064	652.025
312.037	16.461	863.156	651.240
313.052	16.526	862.618	651.026
314.066	16.427	861.949	650.084
315.081	16.478	861.712	650.042
316.095	16.426	860.847	649.131
317.110	16.319	860.600	648.477
318.125	16.524	860.032	648.777
319.139	16.466	859.786	648.315
320.154	16.394	859.189	647.529
321.168	16.460	858.750	647.396
322.183	16.675	857.292	647.061
323.197	16.583	857.292	646.650
324.212	16.491	856.996	646.020
325.227	16.535	856.570	645.810
326.241	16.502	855.693	644.964
327.256	16.504	855.367	644.669
328.270	16.518	854.760	644.208
329.285	16.532	854.079	643.692
330.300	16.420	853.445	642.730
331.314	16.636	852.434	642.731
332.329	16.672	852.077	642.543
333.343	16.580	851.754	641.896
334.358	16.531	851.765	641.659
335.373	16.555	851.100	641.193
336.387	16.674	850.919	641.449
337.402	16.785	850.440	641.453
338.416	16.761	850.185	641.112
339.431	16.838	849.625	640.925
340.446	16.877	848.975	640.526
341.460	16.801	848.872	640.105
342.475	16.775	848.667	639.794
343.489	17.021	847.700	639.935
344.504	16.899	847.543	639.303
345.519	16.962	847.044	639.105
346.533	17.021	845.989	638.475
347.548	17.060	845.799	638.423
348.562	16.800	845.490	637.154
349.577	16.928	844.692	636.977
350.592	17.024	844.202	636.914
351.606	16.933	843.104	635.685
352.621	16.967	842.475	635.282
353.635	17.056	842.058	635.248
354.650	16.928	841.683	634.429
355.665	16.987	840.836	633.954
356.679	17.098	839.948	633.641
357.694	17.142	839.740	633.593
358.708	17.093	838.882	632.707
359.723	17.186	838.118	632.422
360.738	17.187	837.658	632.021
361.752	17.077	837.518	631.453
362.767	17.116	836.794	630.996
363.781	17.231	836.329	631.014
364.796	17.240	835.752	630.558
365.810	17.232	835.437	630.235
366.825	17.333	834.784	630.059
367.840	17.245	834.316	629.327
368.854	17.249	833.669	628.797
369.869	17.313	833.545	628.883
370.883	17.263	832.917	628.170
371.898	17.366	832.479	628.164
372.913	17.447	832.000	628.047
373.927	17.324	831.477	627.142
374.942	17.332	831.448	627.094
375.956	17.343	830.945	626.700
376.971	17.369	830.297	626.252
377.986	17.550	829.927	626.584
379.000	17.609	829.319	626.285
380.015	17.734	828.437	626.025
381.029	17.496	828.594	625.212
382.044	17.375	827.881	624.174
383.059	17.611	827.182	624.458
384.073	17.733	826.328	624.203
385.088	17.614	826.140	623.573
386.102	17.610	825.610	623.100
387.117	17.527	825.072	622.337
388.132	17.601	824.539	622.151
389.146	17.543	823.951	621.440
390.161	17.737	823.253	621.566
391.175	17.837	822.513	621.318
392.190	17.657	822.486	620.586
393.205	17.664	821.528	619.835
394.219	17.747	821.464	620.034
395.234	17.588	821.503	619.427
396.248	17.807	820.538	619.440
397.263	17.720	820.268	618.868
398.278	17.834	819.932	618.974
399.292	17.628	819.436	617.795
400.307	17.704	818.855	617.577
401.321	17.772	818.350	617.389
402.336	17.748	817.792	616.828
403.350	17.789	817.584	616.765
404.365	17.939	817.018	616.822
405.380	17.896	816.553	616.264
406.394	17.912	816.193	615.994
407.409	17.815	816.039	615.474
408.423	17.752	815.654	614.904
409.438	17.828	815.097	614.702
410.453	17.953	814.609	614.728
411.467	18.027	813.845	614.366
412.482	17.998	813.762	614.142
413.496	18.084	812.944	613.780
414.511	17.893	813.276	613.292
415.526	18.002	812.488	613.033
416.540	18.162	811.946	613.144
417.555	18.126	811.312	612.482
418.569	18.198	810.952	612.413
419.584	18.202	810.559	612.075
420.599	18.092	810.465	611.559
421.613	109.179	1290.278	1460.956
422.628	94.291	1360.181	1461.077
