DTS Sentinel unit serial number:	SN413079Multiplexer serial number:	ORYXHardware model number:	OX4-SRSoftware version number:	ORYX F/W v4.00 Oryx Data Collector v3.7.2.0data status	okinstallation	princeton_trtdifferential loss correction	single-endedforward channel	channel 1reverse channel	N/Adate	2019/09/14time	08:10:35forward acquisition time	60.00reverse acquisition time	0.00gamma	496.2192k internal	0.2330k external	0.2330temperature offset calibration	1.0070default loss term (dB/km)	0.3790temperature slope calibration	1.0000multiplexer offset coefficient	1.0000multiplexer slope coefficient	1.0000fibre end	0.00T internal ref (°C)	27.36T ext. ref 1 (°C)	3.58T ext. ref 2 (°C)	26.08length (m)	temperature (°C)	Stokes	anti-Stokes-747.200	800.000	0.035	0.102
-746.185	-92.991	0.099	0.028
-745.171	189.675	-0.105	0.158
-744.156	146.048	-0.191	0.258
-743.142	800.000	0.032	-0.129
-742.127	300.221	-0.161	-0.299
-741.112	-123.083	0.199	-0.032
-740.098	267.172	-0.242	0.425
-739.083	-60.817	0.177	-0.075
-738.069	-50.237	0.103	0.049
-737.054	-46.463	-0.097	-0.048
-736.039	-70.710	0.095	-0.036
-735.025	407.015	0.217	0.462
-734.010	160.185	-0.022	-0.031
-732.996	354.160	-0.121	0.241
-731.981	800.000	-0.021	-0.064
-730.966	-91.432	0.100	0.029
-729.952	-200.000	0.027	-0.142
-728.937	800.000	-0.007	-0.028
-727.923	222.507	-0.130	0.210
-726.908	527.523	-0.024	0.057
-725.894	-126.270	0.251	-0.038
-724.879	47.394	-0.146	-0.137
-723.864	126.134	-0.137	0.174
-722.850	800.000	-0.012	-0.041
-721.835	43.401	-0.274	-0.252
-720.821	-30.462	0.052	0.030
-719.806	800.000	-0.102	-0.364
-718.791	-133.491	0.032	-0.004
-717.777	300.615	0.172	0.319
-716.762	-200.000	0.046	-0.527
-715.748	800.000	-0.062	0.249
-714.733	800.000	0.029	-0.082
-713.718	3.403	0.290	-0.213
-712.704	800.000	-0.048	0.208
-711.689	-64.939	-0.220	-0.089
-710.675	-61.031	0.405	-0.172
-709.660	-143.946	0.212	0.020
-708.645	-200.000	-0.007	0.212
-707.631	-44.270	-0.338	0.171
-706.616	-200.000	0.000	0.279
-705.602	384.779	-0.095	0.197
-704.587	-110.849	-0.322	-0.067
-703.572	-119.535	0.185	0.032
-702.558	66.376	0.224	-0.228
-701.543	-200.000	0.078	-0.498
-700.529	-15.251	-0.321	0.206
-699.514	-200.000	-0.030	0.152
-698.499	-71.194	0.043	0.016
-697.485	391.998	0.114	-0.237
-696.470	593.431	-0.156	-0.388
-695.456	-45.402	0.280	-0.139
-694.441	10.250	0.452	0.345
-693.426	-3.698	0.123	-0.086
-692.412	260.337	-0.153	-0.266
-691.397	-73.318	-0.280	-0.103
-690.383	-62.129	-0.098	-0.041
-689.368	-159.323	0.111	-0.006
-688.354	155.880	0.063	-0.087
-687.339	116.297	-0.223	-0.274
-686.324	800.000	-0.040	0.170
-685.310	65.521	-0.167	-0.170
-684.295	-51.403	0.222	-0.104
-683.281	-24.640	0.105	-0.063
-682.266	116.872	0.061	-0.075
-681.251	121.125	-0.217	0.271
-680.237	36.484	0.162	0.144
-679.222	19.550	-0.221	-0.178
-678.208	189.258	0.108	-0.162
-677.193	-139.899	0.049	0.005
-676.178	14.355	-0.124	-0.097
-675.164	800.000	-0.076	-0.215
-674.149	-32.981	0.142	0.079
-673.135	-31.461	-0.459	0.259
-672.120	429.921	0.059	0.127
-671.105	134.653	-0.172	-0.224
-670.091	86.852	-0.251	-0.278
-669.076	-56.205	-0.455	-0.203
-668.062	-3.614	0.194	0.135
-667.047	-31.933	0.119	0.067
-666.032	-200.000	-0.024	-0.283
-665.018	-200.000	-0.012	-0.069
-664.003	-21.260	-0.249	0.152
-662.989	-200.000	-0.024	0.200
-661.974	-200.000	0.004	-0.302
-660.959	434.740	-0.046	0.100
-659.945	50.056	0.173	-0.164
-658.930	-107.409	0.265	-0.058
-657.916	-121.910	0.314	-0.052
-656.901	-200.000	0.003	-0.238
-655.886	-65.361	0.188	-0.076
-654.872	-200.000	-0.010	-0.280
-653.857	5.922	0.088	0.066
-652.843	-90.297	0.188	-0.055
-651.828	-5.503	-0.145	-0.100
-650.814	-89.028	0.160	0.047
-649.799	515.145	-0.156	-0.366
-648.784	114.909	-0.077	-0.094
-647.770	454.237	0.079	-0.176
-646.755	-20.853	-0.241	-0.148
-645.741	6.646	0.149	0.111
-644.726	-37.208	0.330	0.177
-643.711	33.649	-0.185	-0.161
-642.697	26.369	0.101	-0.085
-641.682	144.932	0.110	0.148
-640.668	604.460	0.146	0.365
-639.653	-22.402	0.273	0.166
-638.638	-200.000	-0.016	0.128
-637.624	-200.000	-0.021	-0.163
-636.609	-200.000	0.022	0.125
-635.595	-200.000	-0.014	0.211
-634.580	53.545	-0.241	-0.232
-633.565	554.225	0.082	-0.199
-632.551	147.815	-0.296	-0.400
-631.536	-60.560	-0.233	0.099
-630.522	-200.000	0.010	-0.563
-629.507	-92.294	-0.097	0.027
-628.492	-200.000	-0.005	-0.087
-627.478	549.211	-0.088	-0.211
-626.463	-153.972	-0.178	-0.012
-625.449	-101.778	0.225	-0.055
-624.434	-200.000	-0.027	-0.223
-623.419	-46.059	-0.181	0.089
-622.405	475.970	-0.103	-0.233
-621.390	-200.000	0.041	0.375
-620.376	24.230	-0.142	-0.117
-619.361	41.232	0.281	-0.255
-618.346	-8.013	-0.219	0.148
-617.332	65.915	-0.194	0.197
-616.317	-178.465	-0.274	-0.006
-615.303	-69.580	-0.246	0.095
-614.288	22.922	-0.058	0.048
-613.273	-63.868	0.231	-0.095
-612.259	131.073	-0.119	-0.153
-611.244	-200.000	-0.023	0.150
-610.230	4.648	-0.176	-0.129
-609.215	800.000	-0.057	-0.204
-608.201	-21.220	-0.346	-0.212
-607.186	-88.750	0.216	0.064
-606.171	-165.011	-0.050	-0.002
-605.157	-138.422	-0.396	-0.044
-604.142	800.000	-0.083	-0.286
-603.128	30.880	-0.120	-0.103
-602.113	-189.600	0.179	-0.002
-601.098	-98.209	0.390	0.100
-600.084	-110.460	0.083	-0.017
-599.069	800.000	-0.037	0.142
-598.055	800.000	-0.043	0.135
-597.040	800.000	-0.072	-0.199
-596.025	-48.580	-0.056	-0.027
-595.011	34.392	-0.328	-0.287
-593.996	-141.534	-0.103	-0.010
-592.982	12.149	-0.338	-0.260
-591.967	-137.188	-0.332	-0.038
-590.952	114.468	-0.144	0.176
-589.938	-61.792	0.285	0.120
-588.923	110.267	-0.223	-0.268
-587.909	-74.080	-0.252	0.092
-586.894	659.745	0.036	0.093
-585.879	377.818	-0.039	-0.080
-584.865	109.992	-0.199	0.239
-583.850	800.000	-0.014	0.043
-582.836	-200.000	0.017	0.086
-581.821	800.000	-0.011	-0.036
-580.806	135.628	0.067	0.087
-579.792	-200.000	-0.014	0.078
-578.777	-48.048	-0.077	0.037
-577.763	-200.000	-0.047	0.320
-576.748	56.470	-0.262	0.254
-575.733	-200.000	0.008	-0.272
-574.719	38.218	0.207	-0.184
-573.704	-56.766	0.235	0.104
-572.690	-136.975	0.255	0.029
-571.675	-58.986	0.455	0.197
-570.661	-109.409	-0.193	0.041
-569.646	478.270	-0.027	0.061
-568.631	-134.942	0.190	0.023
-567.617	-200.000	-0.048	0.377
-566.602	-56.943	0.250	0.110
-565.588	382.198	0.225	0.462
-564.573	-154.156	0.232	-0.016
-563.558	-129.193	-0.261	0.036
-562.544	-15.347	-0.128	0.082
-561.529	14.793	0.177	0.139
-560.515	-77.900	0.264	-0.091
-559.500	-200.000	-0.001	0.088
-558.485	-200.000	-0.005	-0.092
-557.471	46.480	0.074	-0.068
-556.456	-200.000	0.019	0.110
-555.442	62.062	-0.209	0.209
-554.427	-40.443	0.293	0.152
-553.412	211.790	-0.083	-0.131
-552.398	-79.191	-0.045	-0.015
-551.383	800.000	0.050	0.199
-550.369	299.291	-0.116	0.214
-549.354	-4.101	0.246	-0.170
-548.339	43.414	-0.204	-0.186
-547.325	-185.806	-0.368	0.005
-546.310	-111.447	-0.234	0.048
-545.296	-200.000	-0.006	-0.318
-544.281	355.985	-0.122	-0.242
-543.266	-0.789	-0.076	0.054
-542.252	15.704	0.011	-0.009
-541.237	-97.062	0.061	-0.016
-540.223	509.903	0.221	-0.512
-539.208	160.750	-0.036	-0.051
-538.193	424.908	-0.095	0.203
-537.179	-158.334	0.467	-0.027
-536.164	-35.328	0.108	-0.059
-535.150	58.835	0.178	-0.175
-534.135	-150.716	0.094	0.007
-533.121	-200.000	0.005	-0.203
-532.106	-154.429	-0.140	0.009
-531.091	134.916	-0.085	-0.110
-530.077	-200.000	-0.050	0.268
-529.062	-200.000	-0.003	0.130
-528.048	-200.000	-0.004	-0.094
-527.033	29.637	0.061	-0.052
-526.018	2.762	0.274	0.199
-525.004	-200.000	0.043	-0.282
-523.989	7.916	0.121	0.090
-522.975	125.348	-0.136	-0.171
-521.960	-200.000	-0.021	-0.194
-520.945	-24.034	-0.143	-0.085
-519.931	32.975	0.148	-0.128
-518.916	44.855	-0.160	-0.147
-517.902	-200.000	-0.166	0.001
-516.887	297.150	-0.055	0.101
-515.872	356.514	-0.045	0.089
-514.858	-162.584	0.117	-0.006
-513.843	-200.000	-0.059	-0.289
-512.829	142.647	-0.093	-0.124
-511.814	-70.652	-0.270	0.102
-510.799	228.291	0.066	0.107
-509.785	800.000	0.153	0.471
-508.770	5.735	0.072	0.053
-507.756	141.844	0.076	-0.100
-506.741	259.740	0.086	0.147
-505.726	118.361	0.141	-0.174
-504.712	-136.368	0.175	0.020
-503.697	56.560	0.124	-0.120
-502.683	119.060	0.244	0.300
-501.668	-156.815	0.408	-0.025
-500.653	-200.000	-0.002	-0.360
-499.639	-200.000	0.026	0.351
-498.624	541.089	-0.046	-0.110
-497.610	5.177	-0.144	0.106
-496.595	-200.000	-0.060	0.271
-495.581	300.066	-0.084	0.154
-494.566	44.372	-0.186	-0.170
-493.551	-151.314	0.174	0.013
-492.537	-200.000	0.067	0.317
-491.522	273.863	0.042	0.074
-490.508	119.678	0.125	0.154
-489.493	-200.000	-0.019	-0.130
-488.478	-37.871	0.197	-0.104
-487.464	445.308	-0.209	-0.457
-486.449	-166.026	0.223	-0.009
-485.435	9.986	-0.136	0.103
-484.420	-200.000	-0.045	0.382
-483.405	800.000	-0.115	0.367
-482.391	-200.000	0.032	0.264
-481.376	2.862	-0.138	0.100
-480.362	-200.000	-0.078	-0.388
-479.347	322.530	0.203	0.384
-478.332	-38.525	-0.311	0.164
-477.318	341.819	-0.179	0.349
-476.303	729.560	-0.116	0.309
-475.289	-114.256	0.319	0.061
-474.274	523.864	0.062	-0.145
-473.259	3.291	-0.329	-0.239
-472.245	-118.899	-0.397	-0.069
-471.230	800.000	-0.023	-0.086
-470.216	33.021	-0.276	-0.238
-469.201	800.000	0.059	0.240
-468.186	-71.395	-0.144	-0.054
-467.172	457.361	0.104	-0.231
-466.157	800.000	0.028	0.112
-465.143	0.768	-0.169	-0.121
-464.128	800.000	-0.090	0.278
-463.113	5.435	0.070	0.051
-462.099	51.962	0.267	-0.253
-461.084	-130.648	-0.047	0.006
-460.070	-5.895	-0.373	0.254
-459.055	301.165	0.073	0.134
-458.040	104.087	-0.205	0.240
-457.026	-127.109	0.113	-0.016
-456.011	334.516	-0.078	0.150
-454.997	-1.175	-0.164	-0.116
-453.982	-125.380	0.237	0.036
-452.968	160.728	0.036	-0.050
-451.953	-93.911	-0.253	-0.069
-450.938	800.000	0.069	-0.211
-449.924	155.215	-0.080	0.110
-448.909	608.137	0.070	-0.173
-447.895	37.472	0.315	-0.278
-446.880	127.225	0.104	0.131
-445.865	-51.648	-0.144	0.067
-444.851	-27.389	-0.058	-0.033
-443.836	-130.226	0.275	-0.037
-442.822	-200.000	0.012	0.233
-441.807	-200.000	-0.051	0.476
-440.792	643.961	0.195	-0.494
-439.778	-200.000	-0.016	-0.507
-438.763	-101.390	-0.132	0.032
-437.749	-200.000	0.008	0.158
-436.734	-15.860	-0.335	0.212
-435.719	63.659	0.140	0.140
-434.705	-191.879	-0.379	-0.004
-433.690	281.540	0.128	0.229
-432.676	162.320	0.083	-0.116
-431.661	280.630	-0.197	-0.351
-430.646	6.634	-0.220	0.163
-429.632	-200.000	0.000	-0.356
-428.617	-36.903	-0.123	-0.066
-427.603	800.000	-0.044	0.153
-426.588	239.363	-0.034	-0.057
-425.573	151.319	-0.083	-0.113
-424.559	453.438	0.082	-0.181
-423.544	800.000	-0.111	-0.357
-422.530	-114.797	0.101	0.019
-421.515	-200.000	-0.027	0.428
-420.500	53.710	0.280	-0.267
-419.486	19.570	0.155	0.124
-418.471	800.000	-0.037	-0.142
-417.457	-200.000	0.023	0.134
-416.442	-95.989	0.188	0.050
-415.428	-72.314	-0.205	0.076
-414.413	-200.000	0.039	-0.246
-413.398	-56.066	0.113	-0.050
-412.384	45.952	0.129	-0.118
-411.369	274.053	-0.068	-0.120
-410.355	-200.000	-0.024	0.119
-409.340	-200.000	-0.005	-0.114
-408.325	-200.000	-0.066	0.379
-407.311	38.329	0.080	-0.071
-406.296	622.440	-0.066	0.165
-405.282	-95.027	0.260	-0.070
-404.267	800.000	0.102	-0.398
-403.252	-62.756	-0.302	0.124
-402.238	-22.983	0.164	0.098
-401.223	-200.000	-0.035	-0.248
-400.209	-200.000	-0.011	0.190
-399.194	-192.382	0.430	0.004
-398.179	35.242	0.222	0.193
-397.165	553.610	0.082	0.195
-396.150	-138.566	0.142	0.015
-395.136	178.688	-0.176	0.255
-394.121	421.603	-0.154	0.328
-393.106	14.823	-0.128	-0.099
-392.092	99.088	0.172	0.197
-391.077	800.000	-0.037	-0.110
-390.063	-49.738	-0.158	-0.075
-389.048	196.496	-0.244	-0.369
-388.033	-200.000	-0.040	-0.342
-387.019	12.449	-0.256	-0.196
-386.004	204.414	0.113	-0.175
-384.990	53.549	-0.483	0.460
-383.975	9.261	-0.211	-0.158
-382.960	-55.629	0.169	0.075
-381.946	-16.542	0.220	0.138
-380.931	-200.000	0.054	0.281
-379.917	19.469	0.118	-0.094
-378.902	26.234	0.104	0.086
-377.888	-42.344	-0.201	0.102
-376.873	119.069	-0.230	-0.283
-375.858	-200.000	0.012	-0.104
-374.844	-33.772	-0.082	-0.045
-373.829	-26.857	0.286	0.166
-372.815	-83.009	0.461	0.147
-371.800	-147.466	0.215	-0.018
-370.785	-115.559	0.398	-0.074
-369.771	555.420	0.117	0.280
-368.756	800.000	-0.073	-0.291
-367.742	516.579	-0.115	0.267
-366.727	262.205	-0.085	-0.146
-365.712	17.918	-0.093	0.074
-364.698	-200.000	-0.021	0.174
-363.683	13.919	0.219	0.169
-362.669	-128.839	-0.105	-0.015
-361.654	800.000	0.041	-0.159
-360.639	12.195	-0.204	0.156
-359.625	93.215	-0.055	0.061
-358.610	-97.683	0.230	0.059
-357.596	10.594	-0.211	-0.160
-356.581	-200.000	0.038	-0.239
-355.566	-200.000	0.007	-0.037
-354.552	-79.691	0.284	0.095
-353.537	-64.056	0.256	-0.104
-352.523	-54.093	0.477	0.215
-351.508	-105.427	0.114	-0.026
-350.493	-42.451	0.253	0.128
-349.479	-176.214	0.033	-0.001
-348.464	-132.125	0.140	-0.018
-347.450	-106.798	-0.127	0.028
-346.435	504.948	-0.024	0.054
-345.420	-136.345	-0.140	-0.016
-344.406	800.000	-0.047	-0.202
-343.391	-200.000	0.072	0.323
-342.377	-133.762	0.181	-0.022
-341.362	0.038	-0.135	0.095
-340.348	75.354	-0.081	-0.085
-339.333	800.000	0.036	0.130
-338.318	-200.000	0.012	0.130
-337.304	15.480	-0.391	-0.304
-336.289	93.682	0.100	-0.113
-335.275	-22.339	-0.246	-0.147
-334.260	-38.704	0.188	0.098
-333.245	-200.000	-0.030	0.362
-332.231	-200.000	0.010	0.319
-331.216	607.235	-0.021	-0.051
-330.202	-93.683	0.402	0.110
-329.187	-90.946	0.144	0.041
-328.172	800.000	-0.171	0.519
-327.158	-197.438	0.172	0.001
-326.143	36.093	0.167	-0.146
-325.129	-115.206	-0.162	-0.030
-324.114	-200.000	0.020	0.114
-323.099	-24.125	0.418	-0.247
-322.085	-35.284	-0.339	0.182
-321.070	800.000	-0.103	-0.281
-320.056	617.431	-0.135	0.336
-319.041	250.977	0.027	-0.046
-318.026	-91.589	0.326	-0.092
-317.012	-50.918	-0.165	-0.077
-315.997	-115.711	0.097	-0.018
-314.983	-51.368	0.084	-0.039
-313.968	-16.308	-0.321	0.202
-312.953	-80.004	0.337	-0.112
-311.939	221.655	-0.064	0.101
-310.924	-103.600	0.262	-0.061
-309.910	96.909	-0.160	-0.181
-308.895	243.399	0.152	0.252
-307.880	-10.700	-0.104	-0.068
-306.866	-165.410	-0.127	0.006
-305.851	-44.293	0.209	-0.104
-304.837	67.807	0.259	0.262
-303.822	409.720	-0.034	-0.071
-302.807	-70.691	-0.321	-0.120
-301.793	-109.463	0.146	0.031
-300.778	-200.000	0.010	0.367
-299.764	-108.971	-0.395	0.083
-298.749	800.000	0.022	0.074
-297.735	195.893	-0.061	-0.092
-296.720	175.969	0.115	-0.165
-295.705	72.474	0.136	0.141
-294.691	-200.000	0.023	-0.306
-293.676	183.302	0.136	-0.199
-292.662	-57.245	0.117	0.051
-291.647	61.030	-0.097	0.095
-290.632	203.542	0.198	0.304
-289.618	-133.048	-0.203	0.026
-288.603	27.198	0.072	-0.059
-287.589	-200.000	-0.275	-0.000
-286.574	79.810	-0.101	-0.107
-285.559	425.485	-0.039	-0.083
-284.545	655.167	-0.104	0.264
-283.530	-134.309	-0.342	0.042
-282.516	-75.995	0.187	-0.065
-281.501	256.474	-0.154	0.262
-280.486	225.239	0.108	0.173
-279.472	-169.677	-0.078	-0.003
-278.457	-200.000	0.005	-0.110
-277.443	42.871	0.139	0.126
-276.428	43.104	0.121	-0.109
-275.413	-200.000	0.007	-0.305
-274.399	800.000	0.032	-0.125
-273.384	771.157	0.083	0.224
-272.370	41.379	-0.180	0.161
-271.355	172.250	0.283	0.403
-270.340	-128.115	-0.386	0.055
-269.326	-34.224	-0.082	0.045
-268.311	-90.848	-0.310	-0.088
-267.297	-29.602	-0.131	-0.074
-266.282	17.045	0.302	-0.237
-265.267	-7.979	0.228	0.152
-264.253	-200.000	0.000	0.169
-263.238	537.588	0.175	0.412
-262.224	114.316	0.209	-0.252
-261.209	-35.525	0.108	-0.058
-260.195	800.000	0.020	-0.058
-259.180	-36.895	0.074	0.039
-258.165	111.496	0.104	0.124
-257.151	-28.957	0.225	-0.127
-256.136	-200.000	-0.036	0.243
-255.122	-105.112	0.365	0.082
-254.107	163.073	-0.025	-0.034
-253.092	53.721	-0.201	0.190
-252.078	127.212	-0.144	0.181
-251.063	-138.720	-0.162	0.018
-250.049	-124.337	0.356	-0.055
-249.034	800.000	0.109	-0.363
-248.019	453.475	0.040	0.087
-247.005	-178.784	0.217	-0.005
-245.990	800.000	0.029	0.102
-244.976	182.646	0.138	0.202
-243.961	-141.969	-0.017	0.002
-242.946	-200.000	0.002	-0.216
-241.932	168.179	-0.176	0.247
-240.917	524.823	-0.165	-0.382
-239.903	800.000	0.083	-0.307
-238.888	-103.872	0.269	-0.062
-237.873	-127.465	-0.236	0.034
-236.859	166.327	0.072	-0.100
-235.844	-140.099	0.082	0.008
-234.830	462.853	-0.047	-0.103
-233.815	-200.000	-0.072	-0.409
-232.800	182.620	0.047	0.069
-231.786	371.924	-0.127	-0.254
-230.771	-172.051	-0.163	0.005
-229.757	-84.311	0.116	-0.036
-228.742	137.634	-0.015	-0.020
-227.727	-200.000	0.050	-0.328
-226.713	9.411	-0.172	0.128
-225.698	41.445	0.115	-0.102
-224.684	-90.393	-0.079	0.023
-223.669	66.082	0.026	-0.026
-222.655	211.190	-0.191	-0.297
-221.640	-200.000	-0.028	-0.418
-220.625	-200.000	0.000	-0.193
-219.611	-69.443	-0.121	0.046
-218.596	-29.336	0.112	0.063
-217.582	800.000	0.037	0.104
-216.567	800.000	0.007	0.027
-215.552	-27.966	-0.307	-0.175
-214.538	-200.000	0.059	0.347
-213.523	180.181	-0.047	-0.069
-212.509	-200.000	0.070	-0.400
-211.494	76.576	0.056	-0.059
-210.479	-83.636	0.143	0.045
-209.465	-52.460	-0.281	-0.128
-208.450	-200.000	0.451	-0.000
-207.436	331.579	0.060	0.115
-206.421	14.827	0.152	-0.117
-205.406	-140.035	0.142	0.015
-204.392	270.033	0.173	0.300
-203.377	-141.079	-0.262	-0.026
-202.363	84.079	0.094	-0.102
-201.348	-14.283	-0.138	-0.088
-200.333	-21.948	0.397	-0.238
-199.319	-107.691	-0.264	0.057
-198.304	-200.000	-0.016	-0.311
-197.290	107.269	-0.007	-0.009
-196.275	32.577	-0.223	0.190
-195.260	11.566	-0.211	0.159
-194.246	-110.557	-0.201	-0.041
-193.231	-75.264	-0.089	0.031
-192.217	128.402	0.187	0.235
-191.202	800.000	-0.035	-0.144
-190.187	-154.099	-0.246	-0.016
-189.173	43.141	-0.254	-0.228
-188.158	-55.230	0.101	-0.045
-187.144	186.830	-0.064	0.093
-186.129	237.012	-0.091	-0.148
-185.114	-112.196	-0.096	-0.019
-184.100	186.166	0.265	-0.389
-183.085	-104.103	-0.141	-0.032
-182.071	-67.289	0.066	0.026
-181.056	-132.554	0.061	-0.008
-180.042	94.344	-0.193	-0.216
-179.027	-200.000	-0.007	0.148
-178.012	119.775	-0.059	0.072
-176.998	-200.000	0.081	0.509
-175.983	27.869	0.080	0.067
-174.969	413.565	0.139	-0.291
-173.954	800.000	-0.077	-0.210
-172.939	354.093	0.189	-0.370
-171.925	-200.000	0.004	0.329
-170.910	-85.493	-0.247	0.076
-169.896	-99.658	0.165	-0.041
-168.881	800.000	0.086	0.246
-167.866	239.982	-0.192	-0.315
-166.852	-79.694	-0.184	0.061
-165.837	-200.000	0.015	-0.112
-164.823	-130.982	0.279	0.037
-163.808	-200.000	-0.052	-0.305
-162.793	-200.000	-0.037	-0.244
-161.779	-200.000	-0.003	-0.128
-160.764	-200.000	-0.081	0.422
-159.750	-46.922	-0.050	0.024
-158.735	253.510	0.072	0.121
-157.720	-200.000	0.046	0.285
-156.706	-200.000	0.045	0.385
-155.691	800.000	0.076	0.231
-154.677	211.099	-0.106	-0.164
-153.662	-58.126	0.296	-0.127
-152.647	-151.100	0.301	-0.022
-151.633	-81.237	-0.249	-0.081
-150.618	-46.160	0.194	-0.094
-149.604	21.376	0.204	-0.163
-148.589	386.980	0.173	0.352
-147.574	-200.000	0.008	0.243
-146.560	24.841	-0.200	0.163
-145.545	82.979	0.261	-0.279
-144.531	265.979	0.022	0.038
-143.516	-200.000	0.045	0.326
-142.502	800.000	0.030	-0.083
-141.487	800.000	0.038	-0.145
-140.472	-78.052	0.092	-0.031
-139.458	-200.000	-0.025	-0.166
-138.443	-52.922	-0.259	-0.117
-137.429	-200.000	0.045	-0.376
-136.414	-200.000	0.013	0.121
-135.399	-12.511	-0.052	-0.033
-134.385	-21.225	0.160	0.096
-133.370	30.458	-0.247	-0.207
-132.356	747.338	0.186	-0.492
-131.341	231.479	0.073	0.118
-130.326	-37.246	0.229	-0.120
-129.312	14.791	0.099	0.076
-128.297	-108.546	-0.067	0.014
-127.283	-96.999	0.379	0.097
-126.268	800.000	-0.048	-0.202
-125.253	-111.563	0.146	-0.029
-124.239	-83.986	0.235	0.073
-123.224	347.089	0.178	-0.344
-122.210	554.610	-0.157	-0.371
-121.195	445.248	-0.032	0.069
-120.180	543.873	0.069	-0.163
-119.166	37.083	0.059	0.051
-118.151	-200.000	0.004	0.318
-117.137	704.801	0.168	0.435
-116.122	800.000	-0.080	0.313
-115.107	768.481	-0.030	0.081
-114.093	140.659	-0.030	0.039
-113.078	-2.186	-0.032	-0.022
-112.064	-64.688	-0.172	-0.068
-111.049	800.000	-0.048	-0.156
-110.034	-200.000	0.017	0.265
-109.020	800.000	0.050	-0.183
-108.005	648.371	-0.064	-0.160
-106.991	-84.168	-0.296	0.092
-105.976	342.840	0.111	0.214
-104.962	-200.000	-0.049	-0.219
-103.947	378.557	0.189	0.380
-102.932	-88.394	0.057	-0.017
-101.918	-200.000	0.003	-0.096
-100.903	-156.203	0.353	-0.022
-99.889	-83.190	-0.248	0.078
-98.874	-27.287	0.019	-0.011
-97.859	-16.721	0.140	0.087
-96.845	-120.638	0.124	-0.021
-95.830	-150.676	-0.294	0.022
-94.816	-9.998	-0.062	0.040
-93.801	-104.047	-0.354	0.081
-92.786	-33.968	0.061	0.033
-91.772	40.860	0.300	0.266
-90.757	-81.239	-0.083	0.027
-89.743	25.694	0.225	-0.184
-88.728	11.384	-0.139	0.105
-87.713	-126.053	-0.308	-0.045
-86.699	-200.000	0.067	0.331
-85.684	-134.529	-0.214	0.026
-84.670	-200.000	-0.020	0.123
-83.655	5.469	-0.189	0.137
-82.640	184.993	-0.069	0.101
-81.626	-155.272	0.130	0.008
-80.611	-30.234	-0.188	0.105
-79.597	539.084	0.041	-0.095
-78.582	351.169	-0.055	0.107
-77.567	65.776	0.146	-0.145
-76.553	-160.118	0.284	0.015
-75.538	-200.000	-0.020	-0.167
-74.524	137.705	0.167	0.214
-73.509	-101.453	-0.126	-0.030
-72.494	29.627	0.187	0.156
-71.480	111.216	0.138	0.163
-70.465	52.542	0.194	0.181
-69.451	96.368	-0.144	-0.162
-68.436	307.676	0.049	0.090
-67.422	-200.000	-0.082	0.446
-66.407	152.949	0.174	0.233
-65.392	-128.006	0.172	0.024
-64.378	-72.414	0.217	-0.079
-63.363	-200.000	-0.014	0.175
-62.349	36.662	-0.167	-0.144
-61.334	199.405	-0.782	-1.176
-60.319	-26.797	0.520	0.298
-59.305	466.055	-0.571	-1.254
-58.290	-25.929	1.008	0.582
-57.276	398.150	0.687	1.409
-56.261	-200.000	111.988	627.321
-55.246	514.825	1526.326	3491.820
-54.232	175.542	2703.176	3841.121
-53.217	108.870	2169.194	2541.212
-52.203	39.306	1607.529	1410.233
-51.188	30.799	1350.676	1133.342
-50.173	27.713	1312.401	1082.895
-49.159	54.279	1369.222	1291.495
-48.144	53.208	1383.843	1298.762
-47.130	30.952	1337.810	1123.290
-46.115	27.431	1320.213	1087.487
-45.100	27.325	1315.474	1082.910
-44.086	27.287	1313.022	1080.620
-43.071	27.244	1310.253	1078.047
-42.057	27.118	1308.453	1075.773
-41.042	27.290	1306.611	1075.232
-40.027	27.260	1304.996	1073.686
-39.013	27.196	1303.347	1071.909
-37.998	27.289	1301.572	1070.953
-36.984	27.472	1299.556	1070.328
-35.969	27.447	1297.960	1068.823
-34.954	27.386	1296.604	1067.311
-33.940	27.444	1294.717	1066.053
-32.925	27.461	1293.427	1065.047
-31.911	27.337	1292.227	1063.290
-30.896	27.368	1291.098	1062.501
-29.881	27.423	1289.506	1061.469
-28.867	27.564	1287.888	1060.918
-27.852	27.428	1286.901	1059.274
-26.838	27.500	1285.382	1058.397
-25.823	27.401	1284.163	1056.776
-24.809	27.307	1283.080	1055.296
-23.794	27.436	1281.544	1054.737
-22.779	27.518	1279.724	1053.675
-21.765	27.455	1278.647	1052.384
-20.750	27.388	1277.846	1051.292
-19.736	27.453	1276.182	1050.261
-18.721	27.376	1275.181	1048.952
-17.706	27.353	1273.854	1047.683
-16.692	27.273	1273.110	1046.567
-15.677	27.257	1271.826	1045.383
-14.663	27.353	1270.489	1044.791
-13.648	27.389	1269.106	1043.817
-12.633	27.294	1268.861	1043.033
-11.619	27.303	1267.698	1042.086
-10.604	27.268	1266.654	1040.988
-9.590	27.271	1265.780	1040.245
-8.575	27.266	1264.636	1039.233
-7.560	27.301	1263.704	1038.624
-6.546	27.209	1263.144	1037.599
-5.531	27.260	1262.556	1037.367
-4.517	27.296	1261.187	1036.406
-3.502	27.303	1260.487	1035.828
-2.487	27.204	1259.759	1034.626
-1.473	27.426	1255.582	1032.415
-0.458	26.756	1241.565	1017.091
0.556	24.519	1226.582	986.959
1.571	21.599	1233.470	976.163
2.586	20.981	1249.025	984.890
3.600	20.259	1236.601	970.972
4.615	15.058	1162.823	885.520
5.629	7.146	1089.834	790.493
6.644	3.733	1071.252	760.178
7.659	3.452	1068.978	757.116
8.673	3.590	1067.880	756.949
9.688	3.525	1067.267	756.127
10.702	3.773	1064.554	755.351
11.717	8.535	1071.373	783.502
12.731	16.234	1082.375	829.452
13.746	19.587	1085.694	848.424
14.761	19.494	1085.757	847.943
15.775	18.707	1083.648	842.361
16.790	17.762	1081.524	836.002
17.804	16.918	1080.252	830.814
18.819	16.608	1079.034	828.287
19.834	16.415	1077.924	826.416
20.848	16.181	1077.217	824.658
21.863	16.069	1076.717	823.653
22.877	15.990	1075.844	822.531
23.892	15.901	1075.098	821.449
24.907	15.792	1074.441	820.343
25.921	15.958	1073.242	820.166
26.936	16.033	1071.647	819.239
27.950	16.089	1070.309	818.417
28.965	16.118	1069.091	817.553
29.980	16.285	1067.407	817.001
30.994	16.329	1066.588	816.514
32.009	16.263	1065.601	815.370
33.023	16.314	1064.086	814.384
34.038	16.194	1063.458	813.251
35.053	16.111	1062.566	812.097
36.067	16.147	1061.491	811.378
37.082	16.014	1060.774	810.117
38.096	16.179	1060.063	810.293
39.111	16.152	1059.427	809.609
40.126	16.020	1058.343	808.073
41.140	15.863	1056.711	806.005
42.155	15.767	1055.308	804.404
43.169	15.767	1054.341	803.598
44.184	15.834	1052.991	802.817
45.199	15.818	1052.195	802.063
46.213	15.895	1051.172	801.580
47.228	15.988	1050.340	801.318
48.242	16.046	1049.524	800.897
49.257	16.007	1048.609	799.945
50.271	16.147	1047.622	799.784
51.286	16.091	1046.574	798.647
52.301	16.091	1045.771	797.962
53.315	15.948	1045.112	796.714
54.330	15.803	1044.146	795.221
55.344	15.907	1042.888	794.685
56.359	15.899	1042.057	793.944
57.374	15.730	1041.506	792.658
58.388	15.751	1040.364	791.818
59.403	15.728	1039.025	790.619
60.417	15.784	1038.423	790.355
61.432	15.777	1037.610	789.630
62.447	15.621	1036.507	787.993
63.461	15.621	1035.762	787.356
64.476	15.523	1035.025	786.269
65.490	15.628	1033.977	785.891
66.505	15.592	1033.782	785.505
67.520	15.812	1032.306	785.342
68.534	15.637	1031.818	784.083
69.549	15.706	1031.347	783.981
70.563	15.681	1030.473	783.130
71.578	15.505	1029.874	781.788
72.593	15.574	1028.785	781.211
73.607	15.417	1028.456	780.163
74.622	15.538	1027.889	780.225
75.636	15.622	1026.964	779.845
76.651	15.589	1026.141	778.998
77.666	15.574	1025.502	778.374
78.680	15.588	1024.861	777.884
79.695	15.712	1024.103	777.813
80.709	15.702	1023.366	777.138
81.724	15.724	1023.106	776.971
82.739	15.871	1022.127	776.841
83.753	15.986	1021.512	776.834
84.768	16.056	1020.705	776.472
85.782	16.270	1019.680	776.609
86.797	16.224	1018.428	775.374
87.812	16.018	1018.210	774.194
88.826	16.198	1016.623	773.747
89.841	16.113	1016.101	772.889
90.855	16.296	1014.965	772.796
91.870	16.356	1014.117	772.355
92.884	16.265	1013.819	771.646
93.899	16.329	1012.204	770.638
94.914	16.328	1011.771	770.234
95.928	16.377	1010.913	769.740
96.943	16.167	1009.835	767.896
97.957	16.168	1008.915	767.131
98.972	16.233	1008.002	766.666
99.987	16.124	1007.182	765.476
101.001	16.181	1006.385	765.061
102.016	16.142	1005.841	764.405
103.030	16.225	1004.720	763.863
104.045	16.159	1004.197	763.095
105.060	16.086	1003.051	761.829
106.074	15.968	1001.942	760.389
107.089	15.668	1001.291	758.472
108.103	15.705	1000.039	757.623
109.118	15.771	999.179	757.204
110.133	15.696	998.338	756.159
111.147	15.757	997.107	755.433
112.162	15.974	996.646	755.994
113.176	15.957	995.808	755.212
114.191	15.865	995.273	754.328
115.206	15.915	994.537	753.929
116.220	15.823	993.922	752.984
117.235	15.821	992.790	752.052
118.249	15.805	992.121	751.405
119.264	15.732	991.345	750.424
120.279	15.682	990.646	749.608
121.293	15.798	989.253	749.002
122.308	15.623	988.430	747.537
123.322	15.703	987.567	747.173
124.337	15.680	986.973	746.555
125.352	15.635	985.871	745.456
126.366	15.695	984.407	744.549
127.381	15.715	983.532	743.908
128.395	15.695	982.710	743.135
129.410	15.799	982.007	742.995
130.424	15.785	980.951	742.069
131.439	15.786	980.271	741.492
132.454	15.975	979.380	741.587
133.468	15.947	978.611	740.816
134.483	15.940	978.048	740.293
135.497	15.908	976.913	739.226
136.512	15.939	976.152	738.723
137.527	15.835	975.486	737.695
138.541	15.963	974.643	737.555
139.556	15.865	974.668	737.079
140.570	16.176	973.361	737.384
141.585	16.281	972.402	737.051
142.600	16.244	971.776	736.349
143.614	16.226	971.051	735.656
144.629	16.228	970.541	735.216
145.643	16.288	969.323	734.488
146.658	16.214	967.915	733.033
147.673	16.025	967.333	731.711
148.687	15.972	966.607	730.864
149.702	15.959	965.401	729.833
150.716	16.035	964.483	729.403
151.731	16.082	963.967	729.150
152.746	16.086	963.086	728.436
153.760	16.099	962.606	728.066
154.775	16.090	962.645	727.993
155.789	16.227	961.482	727.637
156.804	16.226	960.894	727.126
157.819	16.213	960.408	726.635
158.833	16.372	959.134	726.294
159.848	16.364	958.915	726.026
160.862	16.294	957.743	724.778
161.877	16.142	956.527	723.139
162.892	15.950	955.556	721.520
163.906	15.849	954.915	720.542
164.921	16.110	953.617	720.611
165.935	16.034	953.018	719.771
166.950	16.298	951.837	719.943
167.964	16.114	951.340	718.716
168.979	16.126	950.070	717.746
169.994	16.239	949.512	717.741
171.008	16.075	949.037	716.620
172.023	16.338	948.329	717.141
173.037	16.448	947.262	716.737
174.052	16.429	946.177	715.770
175.067	16.164	946.043	714.484
176.081	16.090	945.469	713.675
177.096	16.145	945.266	713.691
178.110	16.220	944.104	713.066
179.125	16.118	943.865	712.392
180.140	16.235	943.104	712.248
181.154	16.243	943.051	712.180
182.169	16.513	941.717	712.247
183.183	16.487	941.542	711.944
184.198	16.483	940.575	711.129
185.213	16.494	940.420	710.996
186.227	16.482	939.377	710.096
187.242	16.528	939.005	709.944
188.256	16.699	938.500	710.218
189.271	16.524	937.283	708.499
190.286	16.445	936.333	707.390
191.300	16.149	935.528	705.479
192.315	16.101	934.849	704.704
193.329	16.154	934.374	704.506
194.344	16.175	934.117	704.340
195.359	16.231	933.444	704.000
196.373	16.504	932.469	704.342
197.388	16.412	932.770	704.123
198.402	16.525	931.575	703.629
199.417	16.638	931.123	703.697
200.432	16.612	930.713	703.214
201.446	16.843	930.361	703.846
202.461	16.881	929.983	703.657
203.475	16.828	929.012	702.638
204.490	16.656	928.062	701.146
205.504	16.634	927.312	700.426
206.519	16.656	926.758	700.037
207.534	16.657	925.920	699.347
208.548	16.584	925.584	698.728
209.563	16.625	925.064	698.444
210.577	16.647	924.269	697.872
211.592	16.769	923.569	697.786
212.607	16.972	922.092	697.441
213.621	16.779	921.798	696.364
214.636	16.797	921.172	695.905
215.650	16.865	920.169	695.363
216.665	16.895	920.228	695.469
217.680	16.861	919.671	694.848
218.694	16.960	918.781	694.521
219.709	17.066	917.926	694.247
220.723	17.087	917.022	693.585
221.738	16.867	916.491	692.224
222.753	16.997	916.186	692.465
223.767	17.012	915.613	692.029
224.782	17.083	915.102	691.872
225.796	17.151	914.338	691.512
226.811	16.893	913.933	690.093
227.826	17.058	912.689	689.762
228.840	17.059	911.774	689.016
229.855	16.921	911.124	687.903
230.869	16.897	910.493	687.266
231.884	16.799	910.051	686.478
232.899	16.878	909.306	686.172
233.913	16.884	908.477	685.510
234.928	16.735	907.885	684.401
235.942	16.677	907.560	683.863
236.957	16.842	906.540	683.699
237.972	16.851	905.654	683.008
238.986	16.886	905.172	682.723
240.001	16.972	904.512	682.513
241.015	16.915	904.186	681.975
242.030	17.046	903.666	682.050
243.045	17.203	902.857	682.010
244.059	17.007	902.462	680.865
245.074	17.099	901.595	680.516
246.088	17.151	900.734	680.016
247.103	17.172	900.631	679.964
248.117	17.383	900.023	680.289
249.132	17.458	899.660	680.252
250.147	17.458	899.126	679.790
251.161	17.569	898.564	679.746
252.176	17.525	897.957	679.053
253.190	17.683	897.264	679.098
254.205	17.705	896.481	678.530
255.220	17.660	895.883	677.842
256.234	17.751	895.296	677.699
257.249	17.656	894.438	676.612
258.263	17.602	893.823	675.871
259.278	17.656	893.127	675.499
260.293	17.751	892.859	675.613
261.307	17.897	892.116	675.570
262.322	17.783	891.376	674.498
263.336	17.843	890.249	673.823
264.351	17.902	890.044	673.841
265.366	17.768	889.353	672.730
266.380	17.803	888.659	672.285
267.395	17.871	887.927	671.939
268.409	17.912	886.800	671.185
269.424	17.781	886.219	670.175
270.439	17.725	885.502	669.350
271.453	17.685	885.028	668.778
272.468	17.576	884.758	668.086
273.482	17.657	883.859	667.667
274.497	17.697	883.278	667.324
275.512	17.752	882.941	667.225
276.526	17.760	882.490	666.856
277.541	17.753	881.919	666.339
278.555	17.920	881.660	666.736
279.570	18.023	880.780	666.416
280.585	18.056	879.613	665.600
281.599	17.861	878.995	664.317
282.614	17.694	878.354	663.122
283.628	17.888	877.762	663.373
284.643	17.935	877.190	663.065
285.657	17.854	876.739	662.350
286.672	17.838	876.132	661.772
287.687	17.925	874.984	661.182
288.701	17.956	874.776	661.086
289.716	17.788	874.526	660.186
290.730	17.906	873.556	659.854
291.745	17.952	873.112	659.638
292.760	18.044	872.717	659.635
293.774	18.282	871.600	659.649
294.789	18.118	871.340	658.761
295.803	18.066	870.324	657.735
296.818	18.015	869.790	657.079
297.833	17.935	869.309	656.349
298.847	18.055	868.658	656.261
299.862	18.082	868.365	656.087
300.876	18.246	867.447	655.963
301.891	18.252	867.088	655.656
302.906	18.240	866.575	655.163
303.920	18.318	866.304	655.201
304.935	18.456	865.510	655.070
305.949	18.319	865.050	654.138
306.964	18.201	864.272	653.043
307.979	18.355	863.437	652.939
308.993	18.416	862.937	652.736
310.008	18.338	862.563	652.102
311.022	18.334	861.936	651.553
312.037	18.296	861.136	650.745
313.052	18.198	860.574	649.892
314.066	18.179	859.794	649.174
315.081	18.277	859.287	649.106
316.095	18.101	858.957	648.132
317.110	18.188	858.021	647.695
318.125	18.175	857.615	647.282
319.139	18.180	857.264	646.982
320.154	18.130	856.797	646.383
321.168	18.269	856.096	646.320
322.183	18.226	855.816	645.888
323.197	18.185	855.489	645.431
324.212	18.425	854.678	645.665
325.227	18.290	854.047	644.622
326.241	18.254	853.380	643.927
327.256	18.272	853.036	643.679
328.270	18.255	852.183	642.917
329.285	18.149	851.599	642.020
330.300	18.341	851.112	642.317
331.314	18.304	850.497	641.656
332.329	18.476	850.338	642.123
333.343	18.428	850.200	641.782
334.358	18.508	849.455	641.465
335.373	18.373	849.226	640.728
336.387	18.671	848.662	641.362
337.402	18.653	848.346	640.996
338.416	18.740	848.034	641.030
339.431	18.842	847.638	641.055
340.446	18.807	847.397	640.686
341.460	18.781	847.257	640.425
342.475	18.928	846.600	640.418
343.489	18.858	846.329	639.899
344.504	18.916	845.987	639.799
345.519	19.021	845.104	639.463
346.533	18.945	844.754	638.861
347.548	18.915	843.745	637.928
348.562	18.764	842.944	636.708
349.577	18.693	842.667	636.180
350.592	18.613	842.095	635.394
351.606	18.802	841.267	635.412
352.621	18.776	840.742	634.863
353.635	18.794	840.146	634.425
354.650	18.788	839.483	633.844
355.665	18.813	839.192	633.663
356.679	18.993	838.119	633.458
357.694	18.876	837.704	632.656
358.708	18.788	837.317	631.986
359.723	18.889	836.714	631.846
360.738	18.841	835.814	630.936
361.752	19.019	835.391	631.212
362.767	19.068	834.761	630.859
363.781	19.127	834.401	630.749
364.796	19.095	834.409	630.582
365.810	19.317	833.767	630.852
366.825	19.225	833.592	630.329
367.840	19.299	832.595	629.789
368.854	19.146	832.205	628.878
369.869	19.139	832.004	628.646
370.883	19.183	831.412	628.302
371.898	19.206	831.225	628.191
372.913	19.315	830.599	628.060
373.927	19.248	830.172	627.437
374.942	19.387	829.327	627.246
375.956	19.416	829.192	627.195
376.971	19.473	828.756	627.019
377.986	19.512	828.450	626.874
379.000	19.609	827.761	626.648
380.015	19.530	827.564	626.157
381.029	19.463	826.608	625.134
382.044	19.478	825.908	624.602
383.059	19.653	825.503	624.875
384.073	19.560	824.640	623.832
385.088	19.400	824.173	622.844
386.102	19.454	823.452	622.439
387.117	19.440	823.198	622.143
388.132	19.211	822.708	620.892
389.146	19.429	821.970	621.066
390.161	19.565	821.481	621.128
391.175	19.563	820.860	620.598
392.190	19.550	820.513	620.234
393.205	19.457	820.001	619.459
394.219	19.499	819.754	619.368
395.234	19.365	819.628	618.737
396.248	19.303	818.780	617.821
397.263	19.188	818.503	617.143
398.278	19.424	817.720	617.344
399.292	19.289	817.309	616.495
400.307	19.432	817.065	616.768
401.321	19.318	816.678	616.013
402.336	19.529	816.107	616.282
403.350	19.489	815.490	615.619
404.365	19.451	815.462	615.407
405.380	19.714	815.011	615.949
406.394	19.803	814.126	615.544
407.409	19.795	813.901	615.291
408.423	19.741	813.699	614.892
409.438	19.805	813.584	614.979
410.453	19.878	813.275	614.948
411.467	20.027	812.231	614.636
412.482	19.848	812.395	614.070
413.496	20.106	811.733	614.430
414.511	20.023	811.449	613.866
415.526	19.939	811.035	613.199
416.540	19.926	810.635	612.799
417.555	20.119	809.496	612.564
418.569	20.008	809.303	611.971
419.584	20.170	808.808	612.114
420.599	20.033	808.347	611.228
421.613	160.334	1372.688	1794.925
422.628	139.422	1454.893	1795.015
