DTS Sentinel unit serial number:	SN413079Multiplexer serial number:	ORYXHardware model number:	OX4-SRSoftware version number:	ORYX F/W v4.00 Oryx Data Collector v3.7.2.0data status	okinstallation	princeton_trtdifferential loss correction	single-endedforward channel	channel 1reverse channel	N/Adate	2019/09/13time	19:26:35forward acquisition time	60.00reverse acquisition time	0.00gamma	496.2192k internal	0.2327k external	0.2327temperature offset calibration	1.0098default loss term (dB/km)	0.3790temperature slope calibration	1.0000multiplexer offset coefficient	1.0000multiplexer slope coefficient	1.0000fibre end	0.00T internal ref (°C)	30.87T ext. ref 1 (°C)	3.50T ext. ref 2 (°C)	24.41length (m)	temperature (°C)	Stokes	anti-Stokes-747.200	-60.724	0.401	-0.171
-746.185	-42.497	-0.186	-0.096
-745.171	-82.459	0.248	-0.081
-744.156	-200.000	0.008	-0.118
-743.142	-91.176	-0.058	-0.017
-742.127	-97.513	-0.016	-0.004
-741.112	-9.485	0.153	-0.103
-740.098	-90.813	0.185	0.054
-739.083	93.211	0.139	-0.158
-738.069	-128.567	-0.587	-0.084
-737.054	89.971	0.145	0.164
-736.039	-124.421	-0.154	0.024
-735.025	39.976	-0.125	-0.113
-734.010	120.533	0.138	0.172
-732.996	800.000	0.002	0.009
-731.981	266.502	0.081	-0.142
-730.966	-81.622	-0.069	-0.023
-729.952	-83.644	0.155	0.050
-728.937	-200.000	0.052	-0.572
-727.923	800.000	0.043	-0.185
-726.908	-200.000	-0.001	0.222
-725.894	121.951	0.034	0.043
-724.879	-86.388	-0.110	-0.034
-723.864	43.958	0.107	-0.098
-722.850	-5.548	-0.106	0.073
-721.835	201.554	0.243	0.376
-720.821	149.915	-0.106	-0.145
-719.806	-200.000	0.058	0.301
-718.791	394.537	0.137	-0.287
-717.777	-200.000	-0.012	0.106
-716.762	43.175	-0.097	-0.089
-715.748	-200.000	0.020	0.176
-714.733	23.016	0.116	0.096
-713.718	93.145	-0.129	0.147
-712.704	201.652	-0.051	0.080
-711.689	-200.000	0.026	0.155
-710.675	-63.101	-0.432	0.180
-709.660	-200.000	-0.024	0.181
-708.645	92.867	-0.129	-0.147
-707.631	136.326	0.338	-0.444
-706.616	-166.195	0.092	0.004
-705.602	383.020	-0.187	-0.387
-704.587	-90.986	-0.167	-0.048
-703.572	-28.251	-0.157	-0.091
-702.558	487.037	0.037	-0.085
-701.543	-114.876	0.199	-0.038
-700.529	278.773	0.117	0.210
-699.514	18.805	-0.300	0.242
-698.499	-27.137	0.149	-0.088
-697.485	-64.341	0.413	0.169
-696.470	7.037	-0.048	0.036
-695.456	-200.000	-0.013	-0.203
-694.441	-60.921	-0.350	-0.149
-693.426	-200.000	0.072	-0.322
-692.412	800.000	-0.114	0.326
-691.397	157.341	-0.109	0.152
-690.383	99.298	-0.102	-0.119
-689.368	23.531	0.197	0.163
-688.354	800.000	-0.122	0.355
-687.339	-122.396	0.056	-0.009
-686.324	142.331	-0.048	0.064
-685.310	-99.436	-0.420	0.106
-684.295	-152.792	0.405	-0.029
-683.281	-46.257	-0.141	-0.070
-682.266	26.415	0.164	-0.138
-681.251	108.772	0.036	0.043
-680.237	30.492	-0.168	-0.144
-679.222	124.772	-0.090	0.114
-678.208	-29.402	-0.115	-0.066
-677.193	800.000	0.028	0.096
-676.178	-200.000	0.025	-0.206
-675.164	380.254	-0.142	-0.294
-674.149	-200.000	-0.046	-0.349
-673.135	-32.659	-0.301	-0.169
-672.120	800.000	-0.027	0.102
-671.105	-66.149	-0.136	0.055
-670.091	-69.539	-0.197	0.076
-669.076	-64.568	0.344	-0.140
-668.062	-150.155	-0.336	0.026
-667.047	8.549	0.062	-0.047
-666.032	-140.883	0.087	-0.009
-665.018	179.544	0.153	0.226
-664.003	-200.000	-0.067	0.419
-662.989	-89.856	0.097	0.029
-661.974	16.175	0.232	0.184
-660.959	-200.000	-0.004	-0.321
-659.945	42.489	0.131	-0.120
-658.930	-43.017	-0.153	-0.078
-657.916	800.000	0.026	-0.080
-656.901	44.645	0.174	0.161
-655.886	82.132	-0.115	0.125
-654.872	11.767	0.104	0.080
-653.857	-73.911	-0.111	0.041
-652.843	-200.000	-0.008	-0.313
-651.828	-43.448	0.266	0.135
-650.814	-200.000	-0.030	-0.172
-649.799	800.000	-0.021	-0.066
-648.784	800.000	-0.104	0.340
-647.770	-98.193	0.393	-0.102
-646.755	220.949	0.070	0.114
-645.741	-200.000	0.020	-0.246
-644.726	800.000	0.014	0.055
-643.711	65.495	0.098	-0.100
-642.697	83.329	0.090	-0.098
-641.682	-14.925	-0.181	0.116
-640.668	-29.274	-0.099	-0.057
-639.653	-2.689	0.104	0.073
-638.638	16.766	-0.247	0.196
-637.624	-52.232	0.200	0.093
-636.609	-200.000	-0.013	-0.086
-635.595	-87.360	-0.226	-0.069
-634.580	208.632	-0.212	-0.333
-633.565	-192.651	-0.155	-0.001
-632.551	765.191	0.088	-0.239
-631.536	256.625	0.120	-0.206
-630.522	-71.346	0.108	0.041
-629.507	-45.596	-0.397	-0.197
-628.492	385.392	-0.074	-0.154
-627.478	94.171	-0.144	0.164
-626.463	-200.000	-0.027	-0.120
-625.449	703.145	-0.116	-0.307
-624.434	800.000	0.077	0.270
-623.419	-64.872	0.055	-0.022
-622.405	35.572	-0.184	0.162
-621.390	85.458	-0.210	0.231
-620.376	360.227	-0.034	0.068
-619.361	728.929	0.087	-0.234
-618.346	-150.817	-0.157	0.012
-617.332	-200.000	-0.005	0.284
-616.317	211.999	-0.201	0.317
-615.303	-21.119	-0.246	-0.151
-614.288	-66.354	-0.180	0.072
-613.273	17.963	-0.329	-0.263
-612.259	424.054	-0.048	0.104
-611.244	176.345	-0.152	-0.221
-610.230	-200.000	-0.022	0.205
-609.215	800.000	0.069	0.291
-608.201	800.000	0.076	0.264
-607.186	-200.000	0.061	-0.278
-606.171	-163.795	0.099	0.005
-605.157	620.393	0.007	0.019
-604.142	-14.984	0.094	0.060
-603.128	245.272	-0.120	-0.203
-602.113	4.328	0.061	-0.044
-601.098	-184.353	0.123	-0.002
-600.084	-200.000	-0.008	-0.258
-599.069	-37.244	0.099	0.053
-598.055	34.315	0.206	0.181
-597.040	800.000	-0.009	-0.033
-596.025	-121.791	0.184	0.030
-595.011	-102.035	-0.155	-0.037
-593.996	243.305	-0.047	0.080
-592.982	-200.000	-0.038	-0.228
-591.967	203.881	0.091	-0.142
-590.952	150.502	0.123	-0.167
-589.938	-200.000	-0.022	0.294
-588.923	-84.985	-0.208	-0.065
-587.909	-1.859	-0.239	-0.169
-586.894	6.912	0.287	0.214
-585.879	800.000	-0.062	0.209
-584.865	800.000	-0.056	0.232
-583.850	-200.000	0.020	-0.327
-582.836	24.020	0.217	-0.180
-581.821	266.805	0.156	-0.274
-580.806	-148.861	-0.283	-0.023
-579.792	-200.000	0.020	-0.130
-578.777	-44.878	0.238	-0.119
-577.763	90.455	0.142	0.159
-576.748	-33.188	-0.393	0.218
-575.733	500.196	-0.193	0.445
-574.719	-97.424	0.132	0.034
-573.704	-15.717	-0.119	-0.076
-572.690	-200.000	-0.066	-0.329
-571.675	-26.658	-0.218	0.128
-570.661	-200.000	0.031	-0.206
-569.646	361.046	0.093	-0.187
-568.631	460.436	-0.079	-0.177
-567.617	-30.557	0.281	-0.160
-566.602	-200.000	-0.002	-0.073
-565.588	578.651	0.128	0.313
-564.573	-66.274	0.335	0.134
-563.558	800.000	-0.096	-0.272
-562.544	663.483	0.129	-0.332
-561.529	-200.000	-0.020	0.202
-560.515	455.194	-0.089	0.196
-559.500	800.000	0.026	-0.109
-558.485	-200.000	-0.049	-0.251
-557.471	-139.533	-0.213	0.023
-556.456	-200.000	0.041	0.381
-555.442	-109.225	0.443	-0.094
-554.427	180.713	0.221	-0.324
-553.412	65.576	0.110	-0.111
-552.398	-29.907	0.239	0.136
-551.383	-191.927	0.189	0.002
-550.369	-59.315	0.548	0.236
-549.354	129.225	-0.085	0.108
-548.339	-54.604	0.335	-0.152
-547.325	800.000	-0.125	-0.374
-546.310	-47.966	-0.077	0.037
-545.296	-51.640	0.175	-0.081
-544.281	-200.000	0.035	0.400
-543.266	-140.823	0.439	-0.045
-542.252	-43.576	0.136	-0.068
-541.237	-154.599	0.284	0.019
-540.223	-200.000	-0.042	-0.315
-539.208	-37.685	0.096	-0.051
-538.193	50.583	-0.076	-0.072
-537.179	43.295	-0.089	-0.081
-536.164	227.898	-0.082	0.133
-535.150	-41.209	-0.331	0.170
-534.135	-71.328	0.199	-0.075
-533.121	800.000	0.057	-0.211
-532.106	-200.000	0.002	-0.113
-531.091	-73.860	0.247	0.090
-530.077	194.037	-0.177	0.268
-529.062	114.602	0.230	-0.281
-528.048	-200.000	-0.010	0.069
-527.033	-200.000	0.018	-0.212
-526.018	227.290	0.134	0.218
-525.004	-21.449	-0.279	0.170
-523.989	-57.589	-0.192	-0.084
-522.975	233.017	-0.190	0.312
-521.960	-45.018	0.099	-0.049
-520.945	146.455	-0.050	-0.067
-519.931	-200.000	0.007	-0.131
-518.916	-111.378	-0.240	-0.049
-517.902	-129.848	0.085	0.012
-516.887	800.000	-0.016	-0.067
-515.872	800.000	-0.105	-0.359
-514.858	-9.452	-0.074	-0.050
-513.843	262.164	-0.072	0.125
-512.829	67.620	-0.181	0.185
-511.814	143.547	0.129	0.172
-510.799	237.886	-0.142	-0.235
-509.785	-138.847	0.076	-0.008
-508.770	530.397	0.127	0.299
-507.756	9.989	0.297	-0.225
-506.741	-37.256	-0.053	0.029
-505.726	184.722	-0.006	-0.009
-504.712	800.000	0.037	-0.119
-503.697	-44.726	-0.098	-0.049
-502.683	-200.000	0.069	0.404
-501.668	88.397	-0.087	-0.097
-500.653	260.089	0.055	-0.094
-499.639	-114.415	0.311	-0.060
-498.624	315.488	0.112	-0.211
-497.610	-200.000	-0.052	-0.265
-496.595	-100.663	-0.458	0.113
-495.581	800.000	-0.057	-0.244
-494.566	-169.466	-0.442	-0.016
-493.551	56.917	-0.098	0.096
-492.537	-49.946	0.414	0.196
-491.522	10.117	-0.218	-0.166
-490.508	-200.000	-0.018	-0.208
-489.493	191.818	0.168	-0.253
-488.478	-200.000	-0.052	-0.422
-487.464	-15.994	-0.273	0.174
-486.449	241.714	0.061	-0.102
-485.435	-43.184	-0.046	0.023
-484.420	-164.298	0.294	-0.013
-483.405	123.771	-0.039	0.049
-482.391	800.000	0.093	-0.319
-481.376	474.332	-0.142	-0.319
-480.362	-120.794	0.349	-0.059
-479.347	800.000	-0.024	0.078
-478.332	-80.575	0.236	0.079
-477.318	-54.472	0.087	-0.039
-476.303	-156.636	-0.215	0.013
-475.289	310.281	-0.124	0.231
-474.274	-200.000	-0.005	0.094
-473.259	-50.878	0.234	0.110
-472.245	800.000	-0.030	-0.094
-471.230	1.508	-0.186	0.133
-470.216	800.000	-0.046	-0.165
-469.201	-29.935	0.130	-0.074
-468.186	59.127	0.149	0.146
-467.172	-102.462	-0.201	0.048
-466.157	800.000	-0.024	-0.075
-465.143	-141.173	-0.143	0.015
-464.128	800.000	-0.028	0.114
-463.113	-25.572	0.309	0.182
-462.099	0.906	0.299	-0.213
-461.084	117.656	0.321	-0.394
-460.070	-36.764	-0.127	0.068
-459.055	-71.314	-0.159	0.059
-458.040	-29.750	0.027	0.015
-457.026	46.373	-0.218	0.202
-456.011	410.939	0.100	-0.211
-454.997	349.180	0.077	-0.152
-453.982	127.305	-0.092	0.116
-452.968	170.312	-0.082	0.117
-451.953	112.640	-0.178	-0.214
-450.938	-5.281	-0.357	0.244
-449.924	120.091	-0.049	-0.060
-448.909	-32.200	0.176	-0.098
-447.895	800.000	0.031	-0.131
-446.880	-200.000	0.019	-0.146
-445.865	54.793	-0.363	0.349
-444.851	1.269	-0.245	0.175
-443.836	29.934	0.089	0.076
-442.822	800.000	0.063	0.188
-441.807	86.380	0.302	0.332
-440.792	-107.331	0.450	-0.099
-439.778	-166.548	-0.137	0.006
-438.763	614.700	-0.023	-0.057
-437.749	-200.000	0.022	-0.123
-436.734	388.305	0.164	0.338
-435.719	-66.020	0.097	0.039
-434.705	685.262	0.021	0.054
-433.690	-145.737	-0.237	-0.021
-432.676	-48.927	-0.234	0.112
-431.661	85.845	-0.113	-0.123
-430.646	-200.000	-0.002	-0.118
-429.632	511.671	0.111	-0.258
-428.617	-96.570	0.260	0.068
-427.603	123.513	0.049	-0.061
-426.588	69.141	0.037	-0.038
-425.573	281.425	-0.127	0.227
-424.559	800.000	-0.070	0.216
-423.544	-142.998	0.122	0.012
-422.530	69.189	-0.040	-0.041
-421.515	-145.117	-0.326	-0.029
-420.500	-69.959	-0.121	0.046
-419.486	800.000	-0.010	-0.029
-418.471	-55.190	-0.313	-0.140
-417.457	-4.187	-0.263	-0.181
-416.442	-112.768	0.358	0.071
-415.428	-58.312	-0.269	-0.117
-414.413	-143.821	0.371	-0.035
-413.398	-116.239	0.263	0.049
-412.384	-200.000	0.013	-0.138
-411.369	1.159	-0.387	0.276
-410.355	-100.536	-0.009	0.002
-409.340	600.755	0.051	-0.125
-408.325	-29.088	0.111	-0.063
-407.311	-33.037	0.049	0.027
-406.296	305.093	0.028	0.053
-405.282	-173.172	0.055	0.002
-404.267	135.991	0.164	0.213
-403.252	109.924	0.123	0.147
-402.238	-189.078	0.121	-0.001
-401.223	-125.591	0.182	-0.027
-400.209	-48.702	0.158	-0.076
-399.194	-108.525	0.446	-0.095
-398.179	-24.720	-0.057	-0.034
-397.165	-142.070	0.107	0.011
-396.150	800.000	-0.086	-0.301
-395.136	303.887	0.091	-0.169
-394.121	720.525	-0.105	0.277
-393.106	800.000	0.048	0.159
-392.092	-200.000	0.139	0.001
-391.077	124.545	-0.200	0.251
-390.063	-111.630	0.048	0.010
-389.048	-111.237	0.119	-0.024
-388.033	-200.000	0.035	-0.333
-387.019	-200.000	0.012	-0.231
-386.004	800.000	0.061	0.221
-384.990	41.723	-0.111	0.100
-383.975	64.067	-0.115	0.115
-382.960	583.696	0.069	-0.168
-381.946	15.339	-0.124	-0.097
-380.931	800.000	-0.068	0.222
-379.917	-200.000	0.027	-0.121
-378.902	-147.998	0.077	-0.006
-377.888	-57.211	-0.381	-0.167
-376.873	34.506	0.101	-0.088
-375.858	9.807	0.238	0.179
-374.844	6.236	0.304	0.224
-373.829	-185.540	0.115	-0.002
-372.815	-61.453	0.464	-0.194
-371.800	-99.503	0.221	0.055
-370.785	-121.588	-0.105	0.017
-369.771	-98.973	-0.283	0.071
-368.756	-200.000	0.010	-0.187
-367.742	368.097	-0.164	0.330
-366.727	349.810	0.099	-0.195
-365.712	-71.573	-0.111	0.041
-364.698	696.802	-0.154	-0.403
-363.683	800.000	-0.086	-0.274
-362.669	-200.000	0.008	0.126
-361.654	-176.092	-0.406	-0.011
-360.639	124.736	0.307	0.384
-359.625	-64.520	-0.237	0.096
-358.610	323.409	-0.074	0.141
-357.596	-93.956	0.118	0.032
-356.581	-200.000	0.057	0.286
-355.566	-117.451	0.099	0.018
-354.552	612.648	0.126	-0.312
-353.537	14.710	-0.139	-0.108
-352.523	-46.868	-0.200	-0.097
-351.508	35.956	0.161	-0.141
-350.493	575.948	-0.093	-0.225
-349.479	-200.000	-0.040	-0.204
-348.464	-152.315	-0.181	0.013
-347.450	-131.124	-0.403	0.053
-346.435	292.620	-0.151	-0.273
-345.420	424.668	0.183	-0.390
-344.406	-63.253	-0.256	0.105
-343.391	130.520	-0.149	0.189
-342.377	446.598	-0.042	-0.091
-341.362	509.762	0.154	-0.355
-340.348	-5.090	-0.223	-0.152
-339.333	-200.000	0.097	0.471
-338.318	-126.757	-0.135	-0.020
-337.304	-140.786	0.207	-0.021
-336.289	-200.000	-0.012	0.371
-335.275	-117.471	0.291	0.052
-334.260	-23.664	0.264	0.157
-333.245	145.016	0.194	0.257
-332.231	156.625	-0.205	0.280
-331.216	518.858	0.083	-0.192
-330.202	-200.000	-0.018	-0.256
-329.187	0.484	-0.184	-0.131
-328.172	-96.392	0.053	-0.014
-327.158	-147.309	-0.251	-0.021
-326.143	-50.706	0.150	-0.070
-325.129	136.167	0.130	-0.168
-324.114	-200.000	0.006	0.355
-323.099	554.307	0.118	-0.282
-322.085	143.905	-0.150	0.199
-321.070	-13.509	-0.334	0.214
-320.056	-139.742	0.370	0.039
-319.041	-120.278	0.212	0.036
-318.026	-136.143	-0.210	-0.024
-317.012	-3.834	-0.127	-0.087
-315.997	-63.314	-0.053	-0.021
-314.983	-20.165	-0.037	0.023
-313.968	288.563	-0.146	-0.262
-312.953	44.297	0.117	-0.107
-311.939	-200.000	0.107	0.476
-310.924	-200.000	-0.040	0.198
-309.910	-16.319	0.267	0.168
-308.895	-134.005	-0.181	-0.022
-307.880	-11.289	-0.081	-0.053
-306.866	520.953	0.081	0.189
-305.851	-38.198	0.118	-0.062
-304.837	-200.000	-0.033	-0.258
-303.822	9.972	0.290	-0.218
-302.807	518.271	0.158	0.366
-301.793	-49.174	0.141	0.067
-300.778	-111.136	0.138	0.028
-299.764	-200.000	0.022	-0.225
-298.749	-200.000	-0.010	0.087
-297.735	175.211	0.121	0.174
-296.720	91.757	-0.152	0.169
-295.705	-200.000	0.014	0.294
-294.691	72.471	0.310	0.320
-293.676	-105.601	-0.360	-0.081
-292.662	-128.863	-0.274	0.038
-291.647	-43.473	0.370	-0.185
-290.632	-19.790	-0.123	0.075
-289.618	-200.000	0.005	0.109
-288.603	800.000	-0.020	0.081
-287.589	445.925	-0.108	-0.235
-286.574	-31.995	-0.255	-0.142
-285.559	-200.000	0.024	0.291
-284.545	6.267	-0.033	0.024
-283.530	-92.676	-0.276	0.077
-282.516	26.877	0.197	0.163
-281.501	558.522	-0.013	0.031
-280.486	82.890	0.118	0.127
-279.472	800.000	0.048	-0.156
-278.457	-114.483	-0.300	0.057
-277.443	-36.334	0.241	-0.129
-276.428	-136.277	0.046	-0.005
-275.413	46.073	-0.267	0.244
-274.399	292.764	0.152	0.275
-273.384	-200.000	-0.009	-0.107
-272.370	96.841	0.040	0.046
-271.355	-83.585	0.066	0.021
-270.340	-67.538	0.082	0.032
-269.326	-9.592	0.046	0.031
-268.311	-164.314	-0.303	-0.014
-267.297	-200.000	-0.002	0.097
-266.282	800.000	-0.075	-0.225
-265.267	36.229	0.290	-0.253
-264.253	-200.000	0.025	-0.363
-263.238	217.805	-0.101	-0.159
-262.224	576.381	-0.078	-0.189
-261.209	-138.482	0.103	0.011
-260.195	-72.317	0.436	-0.160
-259.180	-70.275	0.120	0.045
-258.165	557.124	-0.184	-0.438
-257.151	289.525	0.101	-0.181
-256.136	-130.884	0.198	-0.026
-255.122	800.000	-0.020	0.075
-254.107	-140.485	0.214	-0.022
-253.092	140.898	-0.149	-0.194
-252.078	-86.864	-0.152	0.046
-251.063	-7.698	-0.221	-0.147
-250.049	-200.000	-0.030	-0.187
-249.034	-200.000	-0.022	-0.178
-248.019	-47.416	-0.109	-0.052
-247.005	-103.614	-0.144	0.033
-245.990	-143.888	0.023	0.002
-244.976	-200.000	0.016	-0.351
-243.961	209.822	0.083	0.129
-242.946	-79.565	-0.328	0.109
-241.932	800.000	0.028	-0.091
-240.917	800.000	-0.103	0.408
-239.903	-179.474	-0.306	-0.007
-238.888	32.358	-0.206	-0.176
-237.873	-67.078	0.284	0.111
-236.859	-89.473	-0.472	-0.137
-235.844	800.000	-0.072	0.254
-234.830	88.519	0.188	0.207
-233.815	-101.828	0.263	-0.063
-232.800	20.899	0.205	0.165
-231.786	800.000	0.059	0.187
-230.771	193.897	-0.019	0.028
-229.757	666.875	0.084	0.215
-228.742	-200.000	-0.064	0.444
-227.727	-105.331	0.348	-0.078
-226.713	168.112	0.240	-0.337
-225.698	-110.397	-0.221	-0.045
-224.684	217.100	0.142	0.224
-223.669	-133.862	-0.310	-0.038
-222.655	60.284	-0.154	-0.151
-221.640	-200.000	-0.030	0.384
-220.625	637.591	0.003	-0.007
-219.611	-146.469	0.107	0.009
-218.596	-200.000	-0.066	0.303
-217.582	800.000	-0.083	0.330
-216.567	-105.054	0.069	-0.016
-215.552	76.841	-0.017	-0.017
-214.538	-2.743	0.121	0.084
-213.523	-111.894	0.275	-0.055
-212.509	-200.000	0.019	0.096
-211.494	-200.000	-0.005	-0.024
-210.479	179.005	0.070	-0.101
-209.465	60.290	-0.128	0.125
-208.450	-114.833	-0.280	0.053
-207.436	70.626	0.138	-0.141
-206.421	91.577	-0.195	-0.217
-205.406	800.000	-0.049	0.138
-204.392	242.152	0.134	0.222
-203.377	-185.276	-0.422	0.006
-202.363	-37.429	-0.227	0.120
-201.348	622.813	0.083	0.205
-200.333	-200.000	0.035	0.162
-199.319	-74.784	0.223	0.079
-198.304	-200.000	-0.007	0.060
-197.290	-3.105	-0.164	0.113
-196.275	-58.358	0.248	0.107
-195.260	-62.572	-0.168	0.069
-194.246	136.312	0.183	-0.235
-193.231	556.953	-0.167	0.397
-192.217	-200.000	0.031	0.417
-191.202	-2.551	-0.213	0.147
-190.187	-37.664	0.218	0.114
-189.173	-200.000	-0.003	0.410
-188.158	-200.000	0.004	0.085
-187.144	-59.549	-0.393	0.167
-186.129	459.690	-0.042	-0.092
-185.114	-200.000	-0.046	-0.313
-184.100	-200.000	-0.006	0.134
-183.085	138.185	-0.174	0.225
-182.071	16.129	-0.166	-0.129
-181.056	-200.000	0.003	-0.059
-180.042	-200.000	-0.020	-0.156
-179.027	-85.194	-0.072	0.022
-178.012	35.117	-0.125	0.108
-176.998	-200.000	-0.023	-0.378
-175.983	727.787	-0.088	-0.231
-174.969	-200.000	-0.011	0.085
-173.954	244.000	-0.051	0.084
-172.939	275.727	0.069	-0.120
-171.925	-200.000	0.069	-0.389
-170.910	112.640	0.255	-0.304
-169.896	-114.665	-0.061	0.011
-168.881	800.000	0.065	0.240
-167.866	42.458	-0.134	-0.120
-166.852	306.435	-0.102	0.187
-165.837	42.155	-0.160	0.143
-164.823	-140.867	0.201	0.020
-163.808	-172.152	-0.012	-0.000
-162.793	154.318	0.106	0.143
-161.779	159.639	-0.254	-0.349
-160.764	267.146	-0.047	0.082
-159.750	800.000	-0.072	0.213
-158.735	-89.818	0.195	-0.056
-157.720	-135.176	0.201	0.024
-156.706	800.000	0.040	0.149
-155.691	176.619	0.045	0.064
-154.677	-87.951	-0.433	0.128
-153.662	168.012	0.076	0.107
-152.647	22.783	0.228	-0.184
-151.633	720.077	0.077	-0.203
-150.618	-86.647	0.383	-0.116
-149.604	5.709	-0.134	-0.097
-148.589	44.519	-0.224	0.202
-147.574	319.736	-0.113	0.212
-146.560	73.548	-0.118	0.122
-145.545	181.407	0.114	-0.165
-144.531	103.984	-0.174	-0.201
-143.516	226.503	0.190	-0.304
-142.502	590.719	0.099	0.240
-141.487	550.336	0.077	0.183
-140.472	182.547	0.040	-0.058
-139.458	13.038	-0.055	-0.042
-138.443	-200.000	-0.018	-0.143
-137.429	773.565	-0.051	0.137
-136.414	-105.466	-0.203	0.045
-135.399	-147.247	-0.339	0.028
-134.385	-200.000	-0.028	0.208
-133.370	132.845	0.068	0.086
-132.356	800.000	0.065	0.233
-131.341	368.081	0.041	-0.081
-130.326	-200.000	0.005	-0.184
-129.312	-46.983	0.106	-0.051
-128.297	-90.591	-0.278	0.079
-127.283	46.599	0.083	0.076
-126.268	-71.162	0.130	0.048
-125.253	800.000	0.049	-0.191
-124.239	-200.000	-0.054	-0.281
-123.224	97.411	-0.239	-0.270
-122.210	-200.000	0.006	-0.092
-121.195	-114.363	0.280	0.053
-120.180	59.260	-0.244	0.236
-119.166	-84.269	0.159	-0.050
-118.151	44.098	0.259	-0.234
-117.137	254.656	-0.093	0.157
-116.122	186.112	-0.233	-0.341
-115.107	-200.000	0.001	0.296
-114.093	571.241	0.047	-0.112
-113.078	-5.883	-0.184	-0.124
-112.064	68.346	0.295	0.297
-111.049	-200.000	-0.026	0.219
-110.034	-200.000	-0.016	-0.197
-109.020	-178.773	0.413	0.009
-108.005	-200.000	-0.018	0.200
-106.991	-40.120	-0.129	0.066
-105.976	333.749	0.107	-0.204
-104.962	-51.006	0.159	-0.074
-103.947	-200.000	-0.022	0.401
-102.932	88.221	0.110	-0.120
-101.918	15.486	0.121	0.094
-100.903	75.490	0.078	-0.081
-99.889	198.917	0.185	-0.278
-98.874	-68.264	0.167	0.064
-97.859	53.656	-0.111	0.104
-96.845	684.323	0.080	0.204
-95.830	-200.000	0.008	-0.145
-94.816	-200.000	0.092	-0.447
-93.801	295.140	0.128	-0.230
-92.786	155.859	0.179	-0.242
-91.772	-101.410	0.058	0.014
-90.757	-200.000	0.047	0.307
-89.743	-51.035	-0.180	-0.083
-88.728	-80.668	0.399	0.130
-87.713	189.390	-0.056	-0.082
-86.699	-79.961	-0.199	-0.066
-85.684	9.441	-0.072	-0.054
-84.670	47.359	0.038	0.034
-83.655	55.409	-0.095	-0.091
-82.640	-93.721	0.313	0.085
-81.626	-200.000	0.070	-0.422
-80.611	284.324	-0.112	0.199
-79.597	65.209	0.094	0.094
-78.582	328.822	0.266	0.501
-77.567	-200.000	0.026	-0.125
-76.553	-0.615	-0.207	-0.145
-75.538	-200.000	0.001	-0.205
-74.524	25.921	0.177	-0.145
-73.509	-200.000	-0.025	-0.172
-72.494	80.171	0.205	-0.216
-71.480	-151.462	0.164	0.012
-70.465	-7.992	-0.305	0.202
-69.451	135.951	-0.194	-0.248
-68.436	57.683	0.090	-0.086
-67.422	-110.735	0.021	0.004
-66.407	235.112	-0.094	-0.152
-65.392	-65.312	-0.137	-0.054
-64.378	800.000	0.039	-0.150
-63.363	-200.000	0.023	-0.114
-62.349	275.268	-0.233	0.406
-61.334	-23.480	-1.132	-0.667
-60.319	800.000	0.206	0.875
-59.305	-200.000	-0.059	-0.989
-58.290	548.433	0.541	1.272
-57.276	800.000	0.518	1.850
-56.261	-200.000	103.747	591.468
-55.246	552.772	1441.616	3399.558
-54.232	186.835	2627.567	3841.771
-53.217	116.491	2141.494	2576.886
-52.203	42.863	1592.862	1424.540
-51.188	34.588	1330.562	1140.719
-50.173	31.451	1288.849	1086.712
-49.159	54.900	1341.139	1270.406
-48.144	56.345	1357.308	1294.228
-47.130	34.526	1313.264	1125.344
-46.115	31.005	1295.601	1089.628
-45.100	30.903	1290.490	1084.693
-44.086	30.768	1288.578	1082.258
-43.071	30.752	1286.245	1080.160
-42.057	30.883	1283.536	1078.604
-41.042	30.817	1281.909	1076.811
-40.027	30.843	1280.890	1076.063
-39.013	30.849	1278.923	1074.400
-37.998	30.850	1277.124	1072.855
-36.984	30.936	1275.232	1071.716
-35.969	30.907	1273.256	1069.845
-34.954	30.933	1271.909	1068.823
-33.940	30.864	1270.964	1067.592
-32.925	30.980	1269.332	1066.842
-31.911	30.912	1267.881	1065.190
-30.896	31.110	1265.898	1064.615
-29.881	30.958	1264.963	1062.916
-28.867	31.123	1262.903	1062.084
-27.852	31.014	1262.202	1060.830
-26.838	30.985	1260.701	1059.365
-25.823	31.045	1259.190	1058.391
-24.809	30.913	1258.208	1056.776
-23.794	30.963	1257.050	1056.046
-22.779	30.930	1255.497	1054.509
-21.765	30.961	1254.330	1053.665
-20.750	30.978	1252.799	1052.431
-19.736	30.923	1251.943	1051.362
-18.721	30.759	1251.059	1049.653
-17.706	30.858	1249.785	1049.097
-16.692	30.737	1248.512	1047.310
-15.677	30.750	1247.577	1046.554
-14.663	30.822	1246.243	1045.799
-13.648	30.787	1245.008	1044.527
-12.633	30.765	1244.111	1043.610
-11.619	30.776	1243.070	1042.752
-10.604	30.708	1242.873	1042.165
-9.590	30.690	1241.558	1040.923
-8.575	30.892	1240.235	1040.901
-7.560	30.734	1239.700	1039.526
-6.546	30.770	1238.697	1038.845
-5.531	30.799	1237.940	1038.330
-4.517	30.706	1237.243	1037.188
-3.502	30.915	1235.945	1037.225
-2.487	30.796	1235.256	1035.941
-1.473	30.734	1231.037	1032.019
-0.458	29.024	1215.312	1009.423
0.556	25.418	1197.039	966.748
1.571	21.150	1201.194	946.919
2.586	19.903	1215.580	951.323
3.600	19.260	1204.243	938.868
4.615	14.564	1134.489	860.248
5.629	7.055	1062.359	769.102
6.644	3.727	1043.574	739.524
7.659	3.434	1041.219	736.388
8.673	3.299	1040.327	735.051
9.688	3.551	1038.559	734.934
10.702	3.730	1036.931	734.568
11.717	7.767	1042.255	757.536
12.731	15.495	1053.092	802.414
13.746	20.054	1058.401	828.230
14.761	20.407	1058.197	829.686
15.775	19.570	1056.476	824.267
16.790	18.474	1054.546	817.465
17.804	17.795	1053.094	813.031
18.819	17.439	1052.440	810.761
19.834	17.344	1051.224	809.297
20.848	17.286	1050.520	808.411
21.863	16.965	1050.126	806.510
22.877	16.844	1049.207	805.158
23.892	16.768	1048.559	804.230
24.907	16.778	1047.960	803.743
25.921	16.766	1046.960	802.848
26.936	16.822	1045.447	801.884
27.950	16.902	1043.544	800.731
28.965	16.908	1042.610	799.973
29.980	17.097	1041.220	799.726
30.994	17.272	1039.893	799.459
32.009	17.173	1039.209	798.396
33.023	17.092	1038.394	797.319
34.038	17.092	1037.062	796.226
35.053	16.930	1036.521	794.979
36.067	16.827	1035.934	793.977
37.082	16.993	1034.707	793.743
38.096	17.180	1033.991	793.997
39.111	17.055	1033.528	792.990
40.126	16.944	1031.960	791.197
41.140	16.636	1031.251	789.146
42.155	16.618	1029.484	787.641
43.169	16.611	1028.444	786.745
44.184	16.534	1027.390	785.512
45.199	16.575	1026.415	784.884
46.213	16.645	1025.682	784.578
47.228	16.945	1024.656	785.114
48.242	16.942	1023.817	784.387
49.257	16.752	1023.359	783.089
50.271	16.981	1022.053	783.079
51.286	17.023	1021.285	782.613
52.301	16.959	1020.210	781.427
53.315	16.963	1018.973	780.430
54.330	16.601	1018.013	777.959
55.344	16.673	1017.613	777.917
56.359	16.838	1016.517	777.766
57.374	16.699	1015.625	776.379
58.388	16.543	1014.869	775.015
59.403	16.715	1013.832	774.944
60.417	16.637	1013.026	773.905
61.432	16.498	1012.634	772.898
62.447	16.449	1011.733	771.917
63.461	16.353	1010.730	770.646
64.476	16.424	1009.980	770.332
65.490	16.343	1008.921	769.088
66.505	16.404	1008.508	768.984
67.520	16.502	1007.822	768.834
68.534	16.465	1006.915	767.908
69.549	16.484	1006.217	767.392
70.563	16.322	1005.429	765.988
71.578	16.319	1004.597	765.275
72.593	16.218	1004.098	764.369
73.607	16.280	1003.051	763.785
74.622	16.260	1002.789	763.426
75.636	16.434	1001.688	763.307
76.651	16.339	1001.330	762.539
77.666	16.420	1000.460	762.173
78.680	16.364	999.806	761.355
79.695	16.447	999.288	761.270
80.709	16.563	998.384	761.035
81.724	16.592	998.466	761.159
82.739	16.623	998.100	760.953
83.753	16.906	997.104	761.397
84.768	17.252	996.220	762.205
85.782	17.195	995.520	761.351
86.797	17.201	994.152	760.261
87.812	17.012	993.751	759.045
88.826	17.052	992.318	758.058
89.841	16.978	991.872	757.320
90.855	17.126	991.229	757.422
91.870	17.224	990.062	756.901
92.884	17.192	989.425	756.205
93.899	17.111	988.529	755.092
94.914	17.326	987.666	755.323
95.928	17.168	987.152	754.163
96.943	17.060	985.546	752.389
97.957	17.078	984.829	751.853
98.972	16.926	984.474	750.845
99.987	17.137	983.391	750.884
101.001	17.047	982.062	749.406
102.016	17.092	981.231	748.902
103.030	17.081	980.746	748.421
104.045	17.076	980.051	747.799
105.060	17.041	978.877	746.684
106.074	16.853	978.197	745.274
107.089	16.576	977.325	743.326
108.103	16.597	975.776	742.173
109.118	16.532	975.060	741.280
110.133	16.539	974.282	740.654
111.147	16.589	973.187	739.974
112.162	16.508	972.652	739.148
113.176	16.757	971.837	739.551
114.191	16.747	971.352	739.071
115.206	16.691	970.416	738.048
116.220	16.639	969.602	737.140
117.235	16.718	968.383	736.489
118.249	16.571	968.216	735.659
119.264	16.563	967.120	734.728
120.279	16.537	966.179	733.833
121.293	16.462	965.687	733.069
122.308	16.483	964.383	732.105
123.322	16.422	963.599	731.182
124.337	16.450	962.406	730.334
125.352	16.323	961.615	729.123
126.366	16.331	960.509	728.253
127.381	16.424	959.229	727.616
128.395	16.396	958.804	727.112
129.410	16.459	957.831	726.580
130.424	16.477	957.170	726.092
131.439	16.675	956.386	726.279
132.454	16.761	955.548	725.949
133.468	16.792	955.064	725.651
134.483	16.793	953.838	724.657
135.497	16.681	953.224	723.647
136.512	16.588	952.689	722.783
137.527	16.807	952.015	723.143
138.541	16.744	950.842	721.916
139.556	16.868	950.313	721.978
140.570	16.907	949.780	721.677
141.585	17.055	948.949	721.612
142.600	17.004	948.851	721.257
143.614	17.183	947.604	721.005
144.629	17.191	946.638	720.241
145.643	17.050	946.122	719.187
146.658	16.956	944.244	717.299
147.673	16.853	943.552	716.272
148.687	16.905	942.432	715.580
149.702	16.784	941.506	714.300
150.716	16.766	940.924	713.723
151.731	16.919	939.866	713.499
152.746	16.819	939.563	712.786
153.760	16.911	939.029	712.702
154.775	17.044	938.547	712.835
155.789	17.035	937.599	712.015
156.804	16.956	937.140	711.269
157.819	17.126	936.433	711.385
158.833	17.203	935.816	711.173
159.848	17.312	934.596	710.639
160.862	17.192	933.894	709.543
161.877	16.918	932.969	707.634
162.892	16.849	931.743	706.355
163.906	16.759	930.866	705.252
164.921	16.746	929.986	704.468
165.935	16.994	928.969	704.664
166.950	16.912	928.170	703.657
167.964	17.068	927.465	703.706
168.979	16.896	926.509	702.208
169.994	16.893	925.952	701.709
171.008	16.849	925.665	701.249
172.023	17.201	924.610	701.842
173.037	17.231	924.019	701.453
174.052	17.279	922.881	700.725
175.067	16.949	922.651	699.128
176.081	16.748	921.855	697.636
177.096	16.856	921.385	697.666
178.110	16.830	921.015	697.216
179.125	16.832	920.565	696.822
180.140	17.035	919.848	697.050
181.154	17.053	919.728	696.974
182.169	17.166	919.213	696.984
183.183	17.305	918.882	697.241
184.198	17.245	917.910	696.196
185.213	17.196	917.619	695.714
186.227	17.224	916.587	694.984
187.242	17.360	915.799	694.882
188.256	17.547	914.866	694.874
189.271	17.450	914.345	694.022
190.286	17.180	913.459	692.188
191.300	16.819	912.596	690.001
192.315	16.819	911.346	688.994
193.329	16.779	911.602	688.966
194.344	17.076	910.857	689.550
195.359	16.989	910.295	688.710
196.373	17.214	909.805	689.191
197.388	17.420	909.631	689.833
198.402	17.553	909.316	690.072
199.417	17.314	908.818	688.664
200.432	17.638	907.676	689.049
201.446	17.760	907.791	689.570
202.461	17.836	907.028	689.233
203.475	17.750	906.442	688.383
204.490	17.444	905.613	686.457
205.504	17.353	904.813	685.422
206.519	17.495	903.698	685.087
207.534	17.324	902.990	683.802
208.548	17.425	902.585	683.844
209.563	17.467	901.942	683.464
210.577	17.490	901.215	682.946
211.592	17.580	900.846	682.967
212.607	17.712	899.709	682.571
213.621	17.651	899.375	682.012
214.636	17.505	898.928	681.030
215.650	17.740	897.650	680.941
216.665	17.771	897.246	680.698
217.680	17.936	896.786	680.948
218.694	17.849	896.103	680.020
219.709	17.796	895.479	679.276
220.723	17.815	894.944	678.887
221.738	17.752	893.955	677.824
222.753	17.716	893.674	677.409
223.767	17.804	893.214	677.350
224.782	17.927	892.731	677.412
225.796	17.985	892.193	677.172
226.811	18.056	891.411	676.801
227.826	17.783	890.521	674.985
228.840	17.816	889.730	674.457
229.855	17.845	889.065	674.009
230.869	17.620	888.668	672.760
231.884	17.664	887.579	672.049
232.899	17.663	886.418	671.105
233.913	17.602	886.120	670.582
234.928	17.652	885.413	670.183
235.942	17.580	884.847	669.414
236.957	17.525	884.478	668.859
237.972	17.664	883.762	668.801
238.986	17.620	883.203	668.148
240.001	17.553	882.549	667.332
241.015	17.798	882.121	667.908
242.030	17.764	881.475	667.228
243.045	17.748	881.122	666.839
244.059	17.801	880.445	666.473
245.074	17.883	880.031	666.421
246.088	17.922	879.079	665.792
247.103	17.981	878.502	665.529
248.117	18.254	878.284	666.369
249.132	18.354	877.883	666.393
250.147	18.460	877.537	666.484
251.161	18.492	877.025	666.161
252.176	18.553	876.222	665.727
253.190	18.657	875.548	665.559
254.205	18.651	875.200	665.214
255.220	18.607	874.254	664.264
256.234	18.498	873.815	663.450
257.249	18.466	873.533	663.055
258.263	18.376	872.059	661.529
259.278	18.557	871.770	661.952
260.293	18.585	871.404	661.722
261.307	18.739	870.716	661.735
262.322	18.748	870.099	661.243
263.336	18.782	869.359	660.751
264.351	18.778	868.426	659.968
265.366	18.844	867.744	659.645
266.380	18.801	867.316	659.097
267.395	18.677	866.797	658.169
268.409	18.677	865.744	657.312
269.424	18.579	865.002	656.315
270.439	18.660	864.507	656.190
271.453	18.692	863.623	655.584
272.468	18.529	863.045	654.464
273.482	18.549	862.811	654.308
274.497	18.617	862.100	653.969
275.512	18.551	861.422	653.145
276.526	18.553	861.105	652.854
277.541	18.673	860.357	652.684
278.555	18.824	860.037	652.959
279.570	18.984	859.450	653.064
280.585	18.952	858.909	652.475
281.599	18.722	858.170	650.980
282.614	18.680	857.624	650.351
283.628	18.491	856.808	648.959
284.643	18.621	856.303	649.011
285.657	18.702	855.501	648.651
286.672	18.692	854.950	648.139
287.687	18.756	854.217	647.768
288.701	18.705	854.123	647.447
289.716	18.821	853.117	647.062
290.730	18.757	852.838	646.552
291.745	18.689	852.373	645.888
292.760	18.934	851.715	646.253
293.774	19.063	851.207	646.294
294.789	19.071	850.268	645.555
295.803	18.832	850.042	644.431
296.818	18.822	849.143	643.652
297.833	18.854	848.492	643.225
298.847	18.847	847.594	642.461
299.862	18.799	847.467	642.128
300.876	18.951	847.016	642.297
301.891	19.081	846.423	642.274
302.906	19.065	846.247	642.025
303.920	19.284	845.297	642.065
304.935	19.419	844.813	642.141
305.949	19.206	844.173	640.807
306.964	19.230	843.313	640.186
307.979	19.076	842.984	639.308
308.993	19.208	842.791	639.594
310.008	19.242	842.196	639.211
311.022	19.209	841.302	638.354
312.037	19.087	840.750	637.428
313.052	18.924	840.037	636.228
314.066	18.842	839.414	635.396
315.081	18.939	839.007	635.391
316.095	18.934	837.833	634.428
317.110	19.023	837.292	634.290
318.125	18.958	837.103	633.850
319.139	19.032	836.658	633.731
320.154	19.031	836.247	633.358
321.168	19.081	835.778	633.133
322.183	19.038	835.159	632.447
323.197	19.063	834.793	632.206
324.212	19.050	834.071	631.557
325.227	19.134	833.448	631.337
326.241	18.998	832.922	630.383
327.256	18.982	832.369	629.850
328.270	19.103	831.554	629.620
329.285	18.902	831.451	628.753
330.300	18.995	830.525	628.338
331.314	19.014	830.325	628.200
332.329	19.252	829.818	628.628
333.343	19.220	829.576	628.271
334.358	19.309	828.679	627.863
335.373	19.271	828.768	627.735
336.387	19.380	828.544	627.908
337.402	19.376	828.324	627.671
338.416	19.314	828.449	627.483
339.431	19.630	827.520	627.872
340.446	19.536	827.583	627.524
341.460	19.627	827.193	627.503
342.475	19.842	826.203	627.475
343.489	19.736	826.473	627.242
344.504	19.821	825.744	626.940
345.519	19.906	824.974	626.608
346.533	19.862	824.384	625.945
347.548	19.504	824.232	624.480
348.562	19.517	823.434	623.866
349.577	19.518	822.658	623.225
350.592	19.445	821.566	622.081
351.606	19.398	821.447	621.768
352.621	19.442	820.674	621.285
353.635	19.468	819.962	620.785
354.650	19.489	819.552	620.497
355.665	19.545	818.851	620.110
356.679	19.706	818.136	620.091
357.694	19.782	817.597	619.900
358.708	19.549	817.249	618.748
359.723	19.684	816.316	618.471
360.738	19.571	816.071	617.827
361.752	19.627	815.655	617.655
362.767	19.760	815.065	617.628
363.781	19.915	814.978	618.064
364.796	20.091	814.436	618.224
365.810	20.130	813.855	617.867
366.825	20.139	813.802	617.804
367.840	20.003	813.285	616.874
368.854	20.208	812.450	616.916
369.869	19.866	812.131	615.403
370.883	20.039	811.581	615.547
371.898	20.147	811.387	615.726
372.913	20.255	810.780	615.594
373.927	20.007	810.555	614.492
374.942	20.098	809.678	614.092
375.956	20.027	809.682	613.792
376.971	20.165	809.215	613.870
377.986	20.408	808.605	614.213
379.000	20.507	808.190	614.194
380.015	20.323	807.586	613.029
381.029	20.307	807.166	612.601
382.044	20.298	806.451	611.974
383.059	20.362	806.085	611.867
384.073	20.229	805.577	610.957
385.088	20.159	804.394	609.760
386.102	20.099	803.765	609.019
387.117	20.129	803.540	608.900
388.132	20.073	802.703	608.014
389.146	20.157	802.401	608.029
390.161	20.310	801.842	608.087
391.175	20.492	800.849	607.917
392.190	20.385	800.668	607.350
393.205	20.259	800.086	606.414
394.219	20.172	800.143	606.102
395.234	19.953	799.790	605.013
396.248	19.934	799.135	604.397
397.263	20.092	798.126	604.132
398.278	19.933	798.449	603.771
399.292	19.935	797.922	603.323
400.307	20.125	797.276	603.446
401.321	20.074	796.769	602.831
402.336	20.175	796.361	602.819
403.350	20.195	796.199	602.713
404.365	20.391	795.397	602.731
405.380	20.294	795.334	602.296
406.394	20.421	795.257	602.623
407.409	20.527	794.921	602.683
408.423	20.613	794.611	602.692
409.438	20.730	793.944	602.539
410.453	20.659	793.467	601.879
411.467	20.709	793.023	601.659
412.482	20.930	792.388	601.889
413.496	20.865	792.271	601.523
414.511	20.793	791.990	601.008
415.526	20.769	791.928	600.826
416.540	20.827	791.333	600.520
417.555	20.825	790.435	599.779
418.569	21.015	790.047	600.085
419.584	20.795	789.891	599.156
420.599	20.871	789.142	598.796
421.613	161.259	1371.134	1794.882
422.628	139.628	1455.936	1794.993
