DTS Sentinel unit serial number:	SN413079Multiplexer serial number:	ORYXHardware model number:	OX4-SRSoftware version number:	ORYX F/W v4.00 Oryx Data Collector v3.7.2.0data status	okinstallation	princeton_trtdifferential loss correction	single-endedforward channel	channel 1reverse channel	N/Adate	2019/09/19time	00:50:35forward acquisition time	60.00reverse acquisition time	0.00gamma	496.2192k internal	0.2343k external	0.2343temperature offset calibration	1.0021default loss term (dB/km)	0.3790temperature slope calibration	1.0000multiplexer offset coefficient	1.0000multiplexer slope coefficient	1.0000fibre end	0.00T internal ref (°C)	22.09T ext. ref 1 (°C)	0.73T ext. ref 2 (°C)	15.36length (m)	temperature (°C)	Stokes	anti-Stokes-747.200	-87.955	0.174	0.052
-746.185	-131.105	-0.217	-0.029
-745.171	-105.697	-0.169	0.038
-744.156	231.386	-0.191	0.313
-743.142	-121.601	-0.210	0.035
-742.127	32.159	0.032	-0.028
-741.112	331.646	-0.058	0.112
-740.098	-67.804	-0.118	-0.046
-739.083	-79.564	0.158	-0.054
-738.069	-200.000	-0.010	0.487
-737.054	-153.006	-0.296	-0.021
-736.039	800.000	-0.033	-0.099
-735.025	359.167	0.144	-0.289
-734.010	-200.000	-0.006	-0.201
-732.996	-200.000	-0.011	-0.092
-731.981	329.268	0.054	-0.104
-730.966	109.133	-0.108	0.129
-729.952	18.211	-0.174	-0.139
-728.937	293.574	0.123	0.224
-727.923	-51.344	-0.216	0.101
-726.908	-34.140	0.088	0.048
-725.894	-31.673	-0.264	0.148
-724.879	-51.688	-0.159	-0.074
-723.864	418.839	0.043	-0.092
-722.850	34.258	-0.221	-0.193
-721.835	-200.000	0.004	-0.361
-720.821	800.000	0.046	-0.169
-719.806	-57.402	-0.227	-0.100
-718.791	-118.041	-0.360	0.064
-717.777	149.792	-0.194	0.263
-716.762	-128.359	0.240	0.034
-715.748	-200.000	-0.032	-0.420
-714.733	-112.723	0.050	-0.010
-713.718	-89.757	0.336	0.098
-712.704	185.038	0.157	0.233
-711.689	-39.267	-0.440	-0.231
-710.675	71.546	0.111	-0.115
-709.660	-134.713	-0.258	0.031
-708.645	800.000	-0.063	-0.227
-707.631	-142.984	-0.090	-0.009
-706.616	800.000	-0.061	0.185
-705.602	-75.130	-0.074	0.026
-704.587	79.088	-0.127	-0.136
-703.572	-115.398	-0.344	-0.065
-702.558	-165.269	-0.194	0.009
-701.543	196.304	0.135	0.206
-700.529	150.606	-0.076	0.103
-699.514	-56.134	-0.140	-0.062
-698.499	29.682	0.271	-0.230
-697.485	22.832	-0.219	-0.180
-696.470	-200.000	0.010	-0.086
-695.456	-84.171	0.179	0.057
-694.441	-200.000	0.009	-0.074
-693.426	135.824	0.207	-0.270
-692.412	-200.000	-0.006	-0.269
-691.397	-121.795	-0.323	-0.053
-690.383	72.134	0.153	0.159
-689.368	556.722	-0.148	0.356
-688.354	137.068	-0.027	0.036
-687.339	562.354	-0.067	-0.161
-686.324	-166.720	-0.142	-0.006
-685.310	36.005	-0.137	-0.120
-684.295	-10.794	0.148	-0.098
-683.281	-17.827	-0.273	-0.171
-682.266	-135.798	0.303	0.036
-681.251	784.920	-0.141	0.386
-680.237	26.047	-0.028	0.024
-679.222	23.912	0.122	0.101
-678.208	7.178	0.226	0.168
-677.193	-190.446	-0.026	-0.000
-676.178	800.000	0.049	0.213
-675.164	-200.000	-0.009	-0.136
-674.149	127.730	-0.159	-0.201
-673.135	42.724	0.155	0.141
-672.120	319.741	0.123	-0.232
-671.105	171.766	-0.164	-0.236
-670.091	122.788	-0.157	-0.196
-669.076	2.699	-0.113	-0.081
-668.062	688.076	0.025	0.066
-667.047	-37.047	0.099	0.053
-666.032	77.562	-0.153	-0.162
-665.018	-200.000	-0.057	0.413
-664.003	-147.619	-0.289	-0.024
-662.989	-130.364	-0.219	0.030
-661.974	134.544	0.138	-0.179
-660.959	-200.000	-0.004	0.319
-659.945	255.321	-0.127	-0.218
-658.930	800.000	0.116	-0.369
-657.916	-22.016	0.092	-0.056
-656.901	-74.887	0.128	0.046
-655.886	172.688	-0.178	-0.256
-654.872	-97.365	0.407	-0.106
-653.857	11.475	-0.202	-0.154
-652.843	57.095	-0.210	-0.204
-651.828	85.459	0.419	-0.459
-650.814	-162.161	-0.075	0.004
-649.799	-200.000	0.008	-0.114
-648.784	-114.050	-0.270	-0.052
-647.770	-36.402	0.207	-0.111
-646.755	269.629	-0.158	-0.276
-645.741	-51.316	-0.181	0.085
-644.726	800.000	-0.052	-0.214
-643.711	-49.811	0.153	0.072
-642.697	11.107	-0.014	-0.011
-641.682	33.563	-0.268	-0.232
-640.668	-64.125	-0.299	-0.122
-639.653	-72.537	-0.334	-0.123
-638.638	-200.000	-0.024	-0.127
-637.624	211.387	0.160	-0.251
-636.609	40.957	0.133	0.120
-635.595	25.300	-0.101	0.084
-634.580	-135.204	-0.245	-0.029
-633.565	-151.047	-0.090	-0.007
-632.551	91.879	-0.099	-0.112
-631.536	97.103	0.138	-0.158
-630.522	83.060	-0.063	-0.068
-629.507	772.188	-0.070	0.191
-628.492	-194.432	0.054	-0.000
-627.478	800.000	0.014	0.048
-626.463	-200.000	-0.037	0.307
-625.449	-70.161	0.133	0.050
-624.434	83.226	0.153	0.165
-623.419	800.000	-0.017	0.057
-622.405	34.563	0.219	-0.190
-621.390	271.518	0.086	-0.152
-620.376	-67.045	-0.150	-0.059
-619.361	267.286	0.098	0.170
-618.346	-70.720	-0.242	0.091
-617.332	411.397	0.073	0.155
-616.317	205.834	-0.069	0.106
-615.303	-200.000	-0.028	0.328
-614.288	800.000	-0.110	-0.448
-613.273	-82.186	0.395	-0.128
-612.259	87.211	-0.190	-0.209
-611.244	28.890	-0.132	-0.111
-610.230	800.000	-0.063	-0.245
-609.215	191.618	-0.142	-0.214
-608.201	-25.548	0.029	-0.017
-607.186	324.633	0.102	-0.195
-606.171	-200.000	0.033	0.284
-605.157	-39.109	0.251	0.132
-604.142	-200.000	-0.021	0.161
-603.128	-200.000	0.028	0.226
-602.113	183.889	-0.062	0.092
-601.098	-184.299	0.230	0.004
-600.084	117.607	-0.120	0.147
-599.069	-200.000	-0.023	-0.330
-598.055	-200.000	-0.017	0.134
-597.040	0.499	-0.170	0.121
-596.025	67.968	0.260	-0.265
-595.011	-177.492	-0.284	-0.007
-593.996	800.000	0.046	-0.195
-592.982	-200.000	-0.054	0.261
-591.967	-135.182	0.176	-0.021
-590.952	72.464	-0.207	-0.215
-589.938	657.063	0.181	-0.462
-588.923	155.139	-0.176	-0.240
-587.909	278.471	0.054	-0.096
-586.894	800.000	0.123	-0.388
-585.879	38.263	-0.200	-0.177
-584.865	800.000	0.027	0.095
-583.850	155.541	0.045	-0.062
-582.836	68.628	0.147	0.150
-581.821	81.738	-0.162	0.174
-580.806	-116.268	0.053	0.010
-579.792	800.000	0.024	0.067
-578.777	-96.664	-0.099	-0.026
-577.763	-90.938	-0.261	-0.075
-576.748	-93.541	0.029	0.008
-575.733	44.122	0.170	0.155
-574.719	-101.243	-0.250	-0.061
-573.704	800.000	-0.095	0.338
-572.690	-109.892	-0.049	0.010
-571.675	-200.000	-0.012	0.077
-570.661	-20.955	0.054	0.033
-569.646	-4.611	-0.028	-0.019
-568.631	800.000	0.047	-0.200
-567.617	466.412	0.049	-0.110
-566.602	143.082	0.281	0.372
-565.588	-51.726	-0.057	0.026
-564.573	-200.000	0.028	-0.249
-563.558	-36.148	-0.175	0.094
-562.544	-77.214	-0.411	0.142
-561.529	174.816	0.101	-0.146
-560.515	363.696	0.207	0.413
-559.500	128.032	-0.277	-0.350
-558.485	-27.844	0.070	0.040
-557.471	-26.443	-0.415	0.242
-556.456	11.165	-0.355	-0.270
-555.442	9.265	-0.097	-0.073
-554.427	-200.000	0.041	0.186
-553.412	777.936	-0.209	0.568
-552.398	276.304	0.126	0.223
-551.383	247.392	-0.182	-0.306
-550.369	112.095	-0.084	0.101
-549.354	107.513	0.069	0.081
-548.339	23.027	0.276	0.225
-547.325	22.510	0.111	-0.090
-546.310	39.903	-0.231	-0.206
-545.296	-200.000	0.031	0.252
-544.281	800.000	0.070	-0.207
-543.266	-47.751	-0.326	0.157
-542.252	-61.663	0.229	-0.095
-541.237	800.000	0.059	-0.190
-540.223	-200.000	-0.045	-0.320
-539.208	-95.557	0.357	-0.095
-538.193	181.200	0.125	-0.183
-537.179	121.531	0.040	0.050
-536.164	800.000	-0.056	0.218
-535.150	588.479	0.094	-0.230
-534.135	37.745	-0.152	-0.134
-533.121	-200.000	0.031	-0.167
-532.106	88.046	-0.248	0.273
-531.091	-113.605	0.244	-0.047
-530.077	800.000	-0.112	-0.353
-529.062	307.128	-0.129	-0.239
-528.048	783.316	-0.045	-0.124
-527.033	-7.701	0.296	-0.199
-526.018	184.740	-0.049	0.071
-525.004	-27.551	-0.299	-0.173
-523.989	-59.760	-0.175	-0.075
-522.975	666.095	-0.174	0.446
-521.960	-200.000	-0.064	0.282
-520.945	800.000	0.061	-0.180
-519.931	198.614	-0.186	-0.283
-518.916	44.717	0.056	-0.051
-517.902	800.000	0.092	-0.269
-516.887	-133.874	-0.366	0.045
-515.872	-200.000	0.031	-0.145
-514.858	103.593	-0.169	-0.197
-513.843	-77.280	0.182	0.063
-512.829	-200.000	0.056	0.289
-511.814	63.369	-0.320	0.318
-510.799	103.164	-0.047	0.055
-509.785	-142.063	-0.229	-0.023
-508.770	247.060	0.166	0.278
-507.756	242.524	-0.048	-0.080
-506.741	3.125	0.076	0.055
-505.726	-26.063	0.320	0.187
-504.712	800.000	-0.065	0.246
-503.697	-18.082	0.270	0.168
-502.683	-56.477	-0.116	-0.051
-501.668	-118.496	-0.269	0.047
-500.653	323.494	0.050	-0.095
-499.639	-12.565	-0.321	-0.208
-498.624	800.000	0.089	0.281
-497.610	181.214	-0.166	0.242
-496.595	-87.300	-0.072	0.022
-495.581	-19.076	0.140	0.086
-494.566	163.840	0.134	0.188
-493.551	475.321	0.019	-0.041
-492.537	800.000	0.054	0.227
-491.522	-149.477	0.163	0.013
-490.508	569.089	0.119	0.287
-489.493	742.240	0.016	0.044
-488.478	-199.631	0.230	-0.001
-487.464	19.265	0.203	0.162
-486.449	-200.000	-0.033	-0.396
-485.435	-141.615	0.237	-0.024
-484.420	458.699	-0.097	-0.213
-483.405	127.591	-0.209	0.264
-482.391	-76.242	0.295	0.103
-481.376	274.205	-0.110	-0.192
-480.362	-153.303	0.097	0.007
-479.347	800.000	-0.132	-0.384
-478.332	36.591	0.181	-0.158
-477.318	-21.025	0.325	-0.197
-476.303	-120.000	-0.062	0.011
-475.289	48.946	-0.152	-0.141
-474.274	-124.755	-0.204	-0.031
-473.259	102.418	0.118	0.136
-472.245	57.004	0.176	0.170
-471.230	179.021	-0.038	-0.055
-470.216	-44.770	0.102	-0.050
-469.201	-200.000	-0.031	0.205
-468.186	31.421	-0.058	0.049
-467.172	-200.000	0.022	0.153
-466.157	-200.000	-0.047	0.281
-465.143	165.424	-0.294	-0.412
-464.128	134.050	-0.016	-0.021
-463.113	81.369	0.138	0.148
-462.099	99.095	-0.054	-0.062
-461.084	319.436	0.100	-0.188
-460.070	-200.000	-0.059	0.270
-459.055	20.933	-0.149	-0.119
-458.040	800.000	0.006	-0.020
-457.026	800.000	-0.024	-0.081
-456.011	-183.934	0.204	-0.003
-454.997	-176.000	-0.297	0.008
-453.982	762.997	0.123	0.330
-452.968	-200.000	-0.018	-0.100
-451.953	-36.541	-0.252	0.134
-450.938	86.840	-0.103	-0.113
-449.924	-200.000	0.033	0.338
-448.909	20.873	0.033	-0.027
-447.895	-96.567	0.251	0.065
-446.880	5.156	-0.135	-0.098
-445.865	-200.000	0.001	0.100
-444.851	137.681	-0.149	0.193
-443.836	-13.225	-0.197	-0.127
-442.822	108.414	0.214	-0.252
-441.807	-84.931	-0.201	-0.062
-440.792	-135.624	-0.276	0.032
-439.778	494.578	-0.047	0.106
-438.763	-109.536	-0.059	-0.012
-437.749	27.822	0.202	0.168
-436.734	4.115	0.179	0.130
-435.719	95.636	-0.083	0.094
-434.705	426.275	-0.043	0.091
-433.690	-183.934	-0.358	0.006
-432.676	-107.725	-0.229	0.049
-431.661	-149.801	0.361	-0.028
-430.646	-41.054	-0.306	-0.157
-429.632	-200.000	0.030	-0.207
-428.617	-97.357	0.095	-0.024
-427.603	-1.020	-0.041	-0.028
-426.588	-2.994	0.244	-0.169
-425.573	133.027	-0.121	0.155
-424.559	571.934	0.086	0.208
-423.544	-70.552	-0.036	-0.013
-422.530	-36.475	-0.333	-0.177
-421.515	800.000	0.069	-0.282
-420.500	-50.554	-0.145	-0.067
-419.486	46.500	-0.196	-0.180
-418.471	176.493	-0.138	0.198
-417.457	800.000	-0.017	-0.050
-416.442	-34.474	0.109	-0.059
-415.428	-28.108	-0.253	0.144
-414.413	155.660	-0.107	0.146
-413.398	25.812	-0.175	-0.144
-412.384	-200.000	0.000	-0.275
-411.369	-200.000	-0.027	0.137
-410.355	-200.000	0.011	-0.473
-409.340	109.755	-0.191	-0.226
-408.325	-111.225	-0.306	-0.062
-407.311	126.075	-0.186	-0.232
-406.296	146.701	-0.079	-0.105
-405.282	56.224	0.098	0.094
-404.267	67.312	-0.212	0.214
-403.252	-149.382	0.200	0.016
-402.238	-74.744	0.104	0.037
-401.223	585.833	-0.055	-0.134
-400.209	-200.000	0.020	0.212
-399.194	800.000	-0.052	-0.211
-398.179	800.000	0.119	0.408
-397.165	113.887	0.110	-0.132
-396.150	551.458	-0.082	0.195
-395.136	-200.000	0.004	-0.323
-394.121	-73.055	-0.081	-0.029
-393.106	-82.876	-0.212	0.068
-392.092	-71.174	-0.183	0.068
-391.077	-39.876	-0.237	0.122
-390.063	82.015	0.152	-0.163
-389.048	800.000	0.089	0.314
-388.033	-200.000	-0.002	0.185
-387.019	-89.868	0.215	0.062
-386.004	471.185	-0.081	0.181
-384.990	-107.400	-0.046	-0.010
-383.975	-73.406	0.252	0.091
-382.960	-72.460	-0.271	0.099
-381.946	-200.000	-0.035	0.297
-380.931	-70.395	0.174	0.065
-379.917	-8.452	-0.249	0.165
-378.902	-62.399	0.359	-0.147
-377.888	393.744	-0.122	-0.251
-376.873	-97.545	0.394	0.101
-375.858	-200.000	0.033	-0.184
-374.844	64.315	-0.105	-0.104
-373.829	103.814	0.153	0.178
-372.815	485.108	-0.162	-0.365
-371.800	-67.128	-0.241	0.094
-370.785	-37.432	0.200	-0.105
-369.771	569.310	-0.072	-0.173
-368.756	192.889	0.119	0.178
-367.742	-200.000	-0.008	0.085
-366.727	216.315	0.280	-0.439
-365.712	50.796	-0.087	-0.081
-364.698	-200.000	0.034	0.218
-363.683	800.000	-0.071	0.197
-362.669	-84.598	-0.268	0.083
-361.654	158.943	-0.077	0.105
-360.639	-200.000	0.011	0.094
-359.625	-128.686	-0.368	0.051
-358.610	-3.713	-0.227	0.155
-357.596	41.510	-0.159	-0.142
-356.581	-200.000	-0.045	-0.241
-355.566	-7.526	0.086	-0.057
-354.552	32.498	-0.022	-0.019
-353.537	-200.000	-0.014	0.125
-352.523	-107.643	-0.251	-0.054
-351.508	4.882	0.250	0.181
-350.493	233.989	0.141	0.230
-349.479	-200.000	0.020	-0.443
-348.464	800.000	0.043	0.129
-347.450	61.420	0.227	-0.223
-346.435	-1.327	0.126	0.088
-345.420	-50.351	-0.345	0.161
-344.406	448.856	-0.142	-0.308
-343.391	800.000	-0.117	0.342
-342.377	-34.762	0.110	0.059
-341.362	800.000	0.045	0.164
-340.348	318.831	-0.133	0.248
-339.333	73.702	-0.314	0.325
-338.318	800.000	0.032	-0.095
-337.304	-117.162	0.208	0.037
-336.289	748.712	-0.087	-0.232
-335.275	73.997	-0.094	-0.097
-334.260	-152.443	0.132	0.009
-333.245	-200.000	-0.043	0.225
-332.231	113.966	0.091	0.109
-331.216	266.181	0.212	0.365
-330.202	313.033	0.086	-0.160
-329.187	407.564	0.110	-0.228
-328.172	-156.408	0.034	-0.002
-327.158	97.222	0.184	-0.208
-326.143	-48.140	-0.236	-0.112
-325.129	-200.000	-0.027	0.381
-324.114	49.410	0.248	0.230
-323.099	-61.647	-0.054	0.022
-322.085	164.162	0.013	-0.019
-321.070	120.582	-0.055	-0.068
-320.056	-200.000	0.013	0.380
-319.041	-200.000	0.044	-0.224
-318.026	-200.000	0.001	-0.161
-317.012	800.000	0.101	0.310
-315.997	-200.000	-0.002	0.120
-314.983	-200.000	-0.086	0.553
-313.968	-200.000	0.044	-0.272
-312.953	67.861	0.104	-0.105
-311.939	800.000	-0.045	-0.178
-310.924	194.078	0.150	-0.224
-309.910	-84.818	0.205	-0.063
-308.895	359.551	-0.036	-0.072
-307.880	-131.112	0.254	0.033
-306.866	7.578	0.160	0.118
-305.851	-128.323	-0.215	-0.030
-304.837	-74.485	0.220	0.078
-303.822	431.022	0.100	0.213
-302.807	-77.585	0.038	-0.013
-301.793	-91.181	0.173	0.049
-300.778	617.402	0.112	0.276
-299.764	140.711	0.101	-0.131
-298.749	-52.262	0.291	-0.133
-297.735	-18.590	0.209	-0.129
-296.720	-47.183	0.200	0.096
-295.705	-96.608	0.572	-0.148
-294.691	231.727	0.112	-0.180
-293.676	800.000	0.095	0.305
-292.662	63.769	0.017	-0.016
-291.647	109.438	0.149	0.176
-290.632	-178.308	0.228	0.005
-289.618	-54.022	0.213	-0.095
-288.603	-24.779	-0.259	-0.151
-287.589	-200.000	0.000	-0.051
-286.574	-28.902	0.168	-0.095
-285.559	124.273	0.201	-0.249
-284.545	-140.563	-0.309	-0.032
-283.530	800.000	-0.105	-0.303
-282.516	-67.433	0.223	-0.086
-281.501	-200.000	-0.018	0.159
-280.486	-200.000	0.030	0.315
-279.472	-69.831	-0.159	-0.059
-278.457	-99.902	0.220	-0.054
-277.443	-90.495	0.352	0.100
-276.428	-49.081	0.145	-0.068
-275.413	-10.318	0.233	-0.152
-274.399	800.000	-0.055	0.167
-273.384	151.727	-0.185	0.248
-272.370	-200.000	-0.054	0.507
-271.355	-160.504	-0.104	-0.005
-270.340	-34.007	-0.210	-0.113
-269.326	-162.613	0.353	-0.017
-268.311	348.445	0.051	-0.099
-267.297	-72.131	0.075	0.027
-266.282	-186.667	-0.240	0.003
-265.267	100.513	0.184	-0.210
-264.253	-71.845	-0.241	0.088
-263.238	15.891	-0.030	-0.023
-262.224	296.150	0.202	-0.364
-261.209	42.599	0.164	0.146
-260.195	800.000	0.039	0.107
-259.180	513.249	0.060	0.137
-258.165	-120.930	-0.079	0.013
-257.151	-200.000	0.054	0.397
-256.136	-50.570	-0.209	-0.097
-255.122	-101.506	-0.117	-0.028
-254.107	-134.271	0.413	-0.050
-253.092	800.000	-0.054	0.167
-252.078	-162.877	0.377	0.018
-251.063	-99.353	-0.123	0.030
-250.049	-10.991	0.255	-0.166
-249.034	152.318	0.169	0.227
-248.019	244.276	-0.088	0.146
-247.005	29.310	0.285	0.238
-245.990	358.899	0.048	-0.094
-244.976	122.210	0.140	-0.171
-243.961	-98.472	-0.228	-0.057
-242.946	-110.235	0.128	0.026
-241.932	100.437	-0.067	-0.077
-240.917	243.522	0.123	0.202
-239.903	-182.080	-0.277	-0.005
-238.888	-15.920	-0.075	0.047
-237.873	-11.797	0.228	0.147
-236.859	474.833	0.124	-0.275
-235.844	-141.452	0.074	-0.007
-234.830	39.869	0.123	-0.109
-233.815	-20.383	0.120	0.072
-232.800	-200.000	0.068	0.294
-231.786	201.387	0.135	-0.204
-230.771	-200.000	-0.024	-0.129
-229.757	699.373	0.077	-0.200
-228.742	-101.874	0.152	0.036
-227.727	-200.000	-0.030	0.152
-226.713	800.000	0.064	-0.223
-225.698	135.138	0.207	0.265
-224.684	-125.871	-0.085	0.013
-223.669	800.000	-0.063	-0.262
-222.655	-142.366	0.342	0.033
-221.640	800.000	0.096	-0.264
-220.625	169.160	-0.169	0.237
-219.611	-31.880	0.037	0.021
-218.596	-54.554	-0.340	-0.151
-217.582	-39.207	-0.087	-0.045
-216.567	-128.639	-0.111	-0.015
-215.552	69.131	0.209	-0.211
-214.538	-200.000	0.053	-0.248
-213.523	800.000	0.130	-0.450
-212.509	226.808	-0.126	0.201
-211.494	-32.826	-0.209	0.114
-210.479	-22.871	0.318	-0.188
-209.465	-108.422	-0.097	-0.020
-208.450	-200.000	-0.023	-0.101
-207.436	-137.691	-0.144	-0.016
-206.421	-144.010	-0.164	-0.015
-205.406	-200.000	-0.011	-0.106
-204.392	-200.000	0.021	0.092
-203.377	-34.296	-0.072	0.039
-202.363	-200.000	-0.029	-0.196
-201.348	-120.031	0.205	0.034
-200.333	800.000	-0.105	0.284
-199.319	267.029	-0.068	0.116
-198.304	-200.000	-0.006	0.076
-197.290	75.585	0.054	-0.056
-196.275	-14.978	0.134	-0.084
-195.260	-121.001	0.315	0.052
-194.246	-193.373	-0.280	0.002
-193.231	-95.430	0.138	0.036
-192.217	400.362	-0.066	0.136
-191.202	-23.662	0.131	0.077
-190.187	40.996	-0.221	0.196
-189.173	-113.804	0.021	0.004
-188.158	-30.492	0.222	-0.123
-187.144	162.976	-0.151	0.208
-186.129	-200.000	0.019	-0.226
-185.114	-61.451	0.227	0.094
-184.100	800.000	0.117	0.338
-183.085	-158.797	0.293	-0.016
-182.071	-165.806	0.179	-0.008
-181.056	147.895	-0.133	0.176
-180.042	371.575	0.112	0.223
-179.027	800.000	-0.105	0.348
-178.012	-113.765	-0.243	0.046
-176.998	480.793	-0.060	0.133
-175.983	-18.226	-0.023	0.014
-174.969	-143.180	-0.279	0.026
-173.954	-33.373	-0.278	0.151
-172.939	-88.497	0.173	-0.050
-171.925	800.000	-0.057	-0.167
-170.910	-200.000	0.025	-0.236
-169.896	-88.328	-0.156	0.046
-168.881	122.177	-0.225	-0.275
-167.866	248.646	-0.150	-0.249
-166.852	-200.000	0.015	-0.355
-165.837	-181.166	-0.191	0.004
-164.823	800.000	-0.073	-0.203
-163.808	33.563	0.074	-0.063
-162.793	653.779	0.114	0.285
-161.779	317.548	0.099	0.183
-160.764	800.000	-0.080	-0.281
-159.750	30.445	0.281	-0.235
-158.735	-200.000	0.036	0.194
-157.720	-200.000	-0.000	-0.067
-156.706	-167.153	0.499	0.020
-155.691	-200.000	-0.481	0.002
-154.677	-135.082	0.307	-0.036
-153.662	23.070	-0.068	0.054
-152.647	-92.013	0.272	0.075
-151.633	-30.788	-0.353	-0.195
-150.618	-44.285	0.182	-0.089
-149.604	266.705	-0.103	-0.176
-148.589	280.455	-0.113	0.197
-147.574	482.709	0.165	0.366
-146.560	-176.329	-0.359	-0.009
-145.545	-93.741	0.107	-0.029
-144.531	800.000	0.029	-0.113
-143.516	-95.464	0.483	0.127
-142.502	-200.000	-0.007	0.167
-141.487	800.000	0.039	-0.110
-140.472	-157.123	0.086	-0.005
-139.458	800.000	0.036	-0.100
-138.443	-174.889	-0.148	0.004
-137.429	393.414	-0.117	0.238
-136.414	-200.000	0.060	0.291
-135.399	-47.118	-0.464	-0.221
-134.385	-32.064	0.276	-0.151
-133.370	800.000	-0.038	-0.112
-132.356	-14.747	0.457	0.287
-131.341	-2.344	-0.168	0.115
-130.326	284.672	0.103	0.181
-129.312	800.000	-0.039	-0.119
-128.297	-200.000	-0.083	0.403
-127.283	-109.185	0.262	-0.054
-126.268	389.036	-0.057	0.114
-125.253	2.125	-0.155	0.109
-124.239	382.947	-0.122	0.246
-123.224	-64.027	0.031	0.012
-122.210	58.681	-0.264	0.254
-121.195	-25.844	-0.208	0.120
-120.180	705.288	0.069	-0.178
-119.166	333.182	0.079	-0.150
-118.151	190.713	0.133	0.195
-117.137	-200.000	-0.018	-0.080
-116.122	100.892	0.040	-0.045
-115.107	-200.000	0.005	-0.138
-114.093	-200.000	-0.002	0.155
-113.078	-1.847	0.360	0.247
-112.064	-97.414	0.185	0.047
-111.049	-28.927	-0.059	-0.033
-110.034	-200.000	0.027	-0.154
-109.020	128.151	-0.024	-0.030
-108.005	-152.236	-0.583	-0.041
-106.991	53.828	-0.133	-0.125
-105.976	129.802	-0.161	0.201
-104.962	-126.049	0.438	-0.064
-103.947	-177.380	-0.225	0.005
-102.932	143.225	-0.117	-0.152
-101.918	51.721	0.132	-0.123
-100.903	-23.054	-0.223	0.131
-99.889	-200.000	-0.038	0.179
-98.874	443.791	0.079	-0.170
-97.859	2.262	0.363	0.256
-96.845	800.000	-0.037	-0.111
-95.830	-55.410	0.037	0.016
-94.816	-15.602	0.085	0.053
-93.801	-200.000	0.011	-0.151
-92.786	119.148	0.166	-0.200
-91.772	55.005	0.247	0.233
-90.757	-144.223	0.236	0.022
-89.743	800.000	-0.017	0.049
-88.728	-200.000	-0.001	0.140
-87.713	-81.154	0.248	-0.080
-86.699	395.461	-0.047	-0.096
-85.684	-200.000	0.031	-0.225
-84.670	-200.000	-0.007	-0.426
-83.655	780.464	-0.013	-0.035
-82.640	693.427	0.085	-0.218
-81.626	800.000	0.066	-0.189
-80.611	79.066	-0.148	-0.154
-79.597	150.529	0.181	0.239
-78.582	-200.000	-0.040	-0.179
-77.567	-123.349	0.242	0.038
-76.553	-200.000	0.010	0.073
-75.538	800.000	0.034	-0.142
-74.524	-130.715	0.395	0.052
-73.509	-200.000	0.013	0.189
-72.494	159.686	-0.238	0.323
-71.480	-36.228	0.530	0.279
-70.465	453.890	0.048	-0.103
-69.451	125.809	0.236	0.291
-68.436	239.567	-0.141	0.229
-67.422	520.845	0.083	-0.189
-66.407	-200.000	0.023	-0.198
-65.392	-181.293	0.058	-0.001
-64.378	-78.371	-0.051	0.017
-63.363	131.913	0.110	0.139
-62.349	-112.429	-0.443	0.086
-61.334	37.720	-1.414	-1.224
-60.319	-17.311	0.892	0.548
-59.305	728.603	-0.565	-1.471
-58.290	115.147	0.929	1.105
-57.276	248.659	0.559	0.922
-56.261	-200.000	134.211	702.702
-55.246	364.461	1662.407	3260.034
-54.232	134.292	2800.319	3537.858
-53.217	92.902	2166.752	2385.167
-52.203	33.499	1595.181	1350.378
-51.188	25.306	1341.599	1086.327
-50.173	23.046	1304.199	1042.685
-49.159	51.561	1378.221	1276.456
-48.144	47.818	1387.481	1262.281
-47.130	25.497	1334.334	1081.422
-46.115	22.332	1314.811	1046.761
-45.100	22.094	1309.617	1041.169
-44.086	22.060	1307.094	1038.925
-43.071	21.909	1305.378	1036.625
-42.057	22.001	1302.842	1035.112
-41.042	21.880	1301.520	1033.312
-40.027	21.983	1299.899	1032.588
-39.013	21.922	1298.159	1030.804
-37.998	22.045	1295.727	1029.556
-36.984	22.030	1294.764	1028.662
-35.969	22.062	1292.699	1027.169
-34.954	22.160	1290.824	1026.210
-33.940	22.011	1289.814	1024.493
-32.925	22.236	1287.729	1024.109
-31.911	22.086	1287.182	1022.759
-30.896	22.197	1285.424	1021.966
-29.881	22.276	1284.331	1021.519
-28.867	22.150	1283.147	1019.804
-27.852	22.207	1281.545	1018.823
-26.838	22.289	1280.176	1018.169
-25.823	22.157	1279.008	1016.434
-24.809	22.180	1277.704	1015.488
-23.794	22.203	1276.508	1014.635
-22.779	22.213	1274.941	1013.405
-21.765	22.147	1274.495	1012.627
-20.750	22.267	1272.260	1011.504
-19.736	22.125	1271.134	1009.755
-18.721	22.107	1270.174	1008.845
-17.706	22.118	1268.805	1007.780
-16.692	22.082	1267.613	1006.587
-15.677	22.001	1266.924	1005.539
-14.663	21.890	1266.315	1004.379
-13.648	22.065	1264.302	1003.743
-12.633	21.998	1263.896	1003.000
-11.619	22.053	1262.602	1002.247
-10.604	22.069	1261.962	1001.789
-9.590	22.128	1261.198	1001.481
-8.575	21.908	1260.690	999.783
-7.560	21.963	1259.304	998.958
-6.546	22.046	1258.494	998.749
-5.531	22.011	1257.927	998.055
-4.517	21.979	1257.173	997.237
-3.502	21.986	1256.085	996.372
-2.487	22.070	1255.141	996.063
-1.473	22.030	1250.590	992.186
-0.458	20.172	1235.570	969.846
0.556	15.722	1219.816	932.340
1.571	12.046	1228.144	918.068
2.586	11.335	1243.617	925.516
3.600	11.389	1231.386	916.635
4.615	8.451	1160.060	847.896
5.629	3.185	1091.231	771.184
6.644	0.901	1074.621	748.096
7.659	0.685	1073.382	746.104
8.673	0.655	1071.735	744.744
9.688	0.659	1071.006	744.191
10.702	0.862	1068.175	743.153
11.717	3.884	1071.866	760.535
12.731	10.497	1080.144	799.016
13.746	15.655	1087.008	829.543
14.761	17.313	1088.426	838.735
15.775	16.552	1087.289	834.033
16.790	15.597	1085.059	827.551
17.804	14.981	1083.123	822.970
18.819	14.527	1082.480	820.179
19.834	14.397	1081.577	818.781
20.848	14.190	1080.692	817.024
21.863	13.907	1079.640	814.769
22.877	13.686	1078.997	813.127
23.892	13.709	1078.198	812.563
24.907	13.678	1077.845	812.075
25.921	13.760	1076.641	811.495
26.936	13.738	1075.691	810.602
27.950	13.793	1074.597	809.972
28.965	13.883	1073.876	809.798
29.980	13.977	1071.987	808.761
30.994	13.978	1071.412	808.259
32.009	13.971	1070.446	807.426
33.023	13.958	1069.182	806.339
34.038	13.925	1068.390	805.508
35.053	13.951	1067.554	804.934
36.067	13.909	1066.464	803.835
37.082	13.942	1066.145	803.684
38.096	13.806	1065.753	802.658
39.111	13.836	1064.691	801.935
40.126	13.863	1063.445	801.057
41.140	13.804	1061.781	799.448
42.155	13.661	1061.086	798.165
43.169	13.658	1060.544	797.672
44.184	13.738	1058.971	796.804
45.199	13.718	1058.391	796.199
46.213	13.847	1056.881	795.610
47.228	13.867	1056.006	794.978
48.242	13.817	1054.763	793.734
49.257	13.897	1053.644	793.202
50.271	13.901	1052.491	792.282
51.286	13.781	1052.112	791.358
52.301	13.759	1051.605	790.801
53.315	13.803	1050.096	789.802
54.330	13.774	1049.060	788.819
55.344	13.665	1048.456	787.773
56.359	13.747	1047.677	787.508
57.374	13.772	1046.526	786.694
58.388	13.650	1045.543	785.307
59.403	13.571	1044.698	784.230
60.417	13.725	1043.707	784.142
61.432	13.703	1043.063	783.488
62.447	13.551	1042.399	782.202
63.461	13.655	1041.635	782.049
64.476	13.615	1040.803	781.166
65.490	13.605	1040.011	780.456
66.505	13.656	1038.984	779.854
67.520	13.836	1038.127	779.990
68.534	13.653	1037.986	778.957
69.549	13.681	1037.412	778.584
70.563	13.671	1036.268	777.614
71.578	13.695	1035.566	777.131
72.593	13.583	1034.781	775.948
73.607	13.680	1033.783	775.586
74.622	13.600	1033.379	774.838
75.636	13.568	1032.551	773.997
76.651	13.614	1031.834	773.606
77.666	13.548	1031.457	772.949
78.680	13.646	1030.610	772.702
79.695	13.730	1029.744	772.377
80.709	13.620	1029.276	771.444
81.724	13.655	1028.783	771.168
82.739	13.758	1027.771	770.821
83.753	13.800	1026.853	770.259
84.768	13.855	1026.179	769.942
85.782	13.794	1025.434	769.032
86.797	13.772	1024.535	768.185
87.812	13.683	1023.336	766.810
88.826	13.815	1022.182	766.483
89.841	13.784	1021.400	765.690
90.855	13.858	1020.523	765.305
91.870	13.841	1019.876	764.672
92.884	13.817	1018.905	763.768
93.899	13.788	1018.222	763.052
94.914	13.982	1017.217	763.122
95.928	13.966	1016.422	762.386
96.943	13.925	1015.327	761.309
97.957	13.933	1014.516	760.674
98.972	14.074	1013.172	760.241
99.987	13.921	1012.515	758.983
101.001	13.897	1011.622	758.138
102.016	13.741	1011.331	757.140
103.030	14.045	1010.365	757.735
104.045	13.977	1009.336	756.585
105.060	13.782	1008.765	755.206
106.074	13.723	1007.869	754.197
107.089	13.740	1006.707	753.337
108.103	13.823	1005.605	752.823
109.118	13.787	1005.048	752.176
110.133	13.655	1003.858	750.622
111.147	13.837	1002.983	750.727
112.162	13.727	1002.152	749.538
113.176	13.833	1001.267	749.289
114.191	13.834	1001.035	749.054
115.206	13.859	1000.052	748.364
116.220	13.907	998.904	747.657
117.235	13.939	997.910	746.989
118.249	13.784	997.249	745.731
119.264	13.756	996.603	745.058
120.279	13.667	996.195	744.287
121.293	13.862	994.741	744.009
122.308	13.751	993.950	742.854
123.322	13.930	992.730	742.679
124.337	13.774	991.887	741.284
125.352	13.851	990.473	740.506
126.366	13.863	989.368	739.669
127.381	13.824	988.544	738.812
128.395	13.761	987.782	737.896
129.410	13.921	986.664	737.707
130.424	13.837	986.069	736.826
131.439	13.743	985.376	735.827
132.454	13.914	984.174	735.620
133.468	13.901	983.331	734.867
134.483	13.763	982.696	733.719
135.497	13.860	981.605	733.265
136.512	13.900	980.417	732.492
137.527	13.910	980.129	732.255
138.541	13.814	979.627	731.393
139.556	13.856	978.664	730.794
140.570	13.896	977.877	730.318
141.585	13.902	977.149	729.732
142.600	13.975	975.981	729.116
143.614	13.896	975.546	728.383
144.629	13.915	974.763	727.817
145.643	14.082	973.677	727.672
146.658	14.171	971.959	726.711
147.673	13.983	971.336	725.363
148.687	13.905	970.483	724.322
149.702	14.003	970.043	724.353
150.716	13.922	968.709	722.942
151.731	14.085	968.279	723.267
152.746	14.057	967.642	722.605
153.760	14.076	966.912	722.078
154.775	14.091	966.444	721.729
155.789	14.143	965.442	721.145
156.804	14.116	964.900	720.559
157.819	14.195	964.466	720.512
158.833	14.105	963.913	719.647
159.848	14.112	963.100	719.005
160.862	14.101	962.142	718.179
161.877	14.163	960.843	717.412
162.892	14.135	960.126	716.695
163.906	14.236	958.989	716.214
164.921	14.133	958.107	715.051
165.935	14.134	957.508	714.545
166.950	14.198	956.698	714.153
167.964	14.149	955.635	713.085
168.979	14.125	954.455	712.040
169.994	14.209	953.781	711.831
171.008	14.288	953.389	711.813
172.023	14.215	952.607	710.855
173.037	14.293	951.464	710.274
174.052	14.239	950.990	709.627
175.067	14.240	950.358	709.098
176.081	14.109	949.907	708.138
177.096	14.134	949.577	707.937
178.110	14.328	948.977	708.251
179.125	14.306	947.906	707.295
180.140	14.315	947.871	707.244
181.154	14.350	947.421	706.996
182.169	14.416	946.523	706.545
183.183	14.436	945.737	705.979
184.198	14.434	944.702	705.138
185.213	14.362	944.442	704.574
186.227	14.496	943.821	704.614
187.242	14.473	943.169	703.971
188.256	14.450	942.357	703.205
189.271	14.523	941.678	702.942
190.286	14.451	940.837	701.949
191.300	14.252	940.633	700.896
192.315	14.253	939.631	700.092
193.329	14.388	938.915	700.063
194.344	14.308	938.762	699.553
195.359	14.414	937.486	698.984
196.373	14.510	936.854	698.856
197.388	14.579	936.462	698.789
198.402	14.593	936.150	698.553
199.417	14.556	935.212	697.636
200.432	14.706	934.977	698.024
201.446	14.696	934.240	697.372
202.461	14.779	933.638	697.207
203.475	14.712	933.215	696.550
204.490	14.646	932.564	695.729
205.504	14.687	931.495	695.040
206.519	14.748	930.586	694.552
207.534	14.679	930.429	694.090
208.548	14.726	929.468	693.506
209.563	14.728	929.402	693.404
210.577	14.670	928.789	692.644
211.592	14.807	927.688	692.331
212.607	14.727	926.647	691.159
213.621	14.731	926.636	691.107
214.636	14.807	925.292	690.358
215.650	14.722	924.997	689.723
216.665	14.848	924.051	689.480
217.680	14.936	923.498	689.367
218.694	15.034	922.646	689.075
219.709	14.976	922.017	688.305
220.723	14.890	921.360	687.399
221.738	14.919	920.787	687.030
222.753	14.992	920.145	686.790
223.767	14.984	919.379	686.126
224.782	15.145	918.969	686.416
225.796	15.092	918.409	685.720
226.811	15.023	917.655	684.815
227.826	15.043	916.974	684.331
228.840	15.098	915.714	683.552
229.855	14.937	915.179	682.437
230.869	14.960	914.691	682.107
231.884	15.001	914.431	682.018
232.899	15.095	913.493	681.643
233.913	15.094	912.344	680.718
234.928	14.938	911.899	679.694
235.942	14.955	911.432	679.355
236.957	15.220	910.673	679.801
237.972	14.969	910.132	678.322
238.986	15.176	909.331	678.504
240.001	15.115	908.780	677.784
241.015	15.079	908.130	677.094
242.030	15.222	907.511	677.150
243.045	15.230	906.774	676.573
244.059	15.278	906.149	676.242
245.074	15.209	905.948	675.752
246.088	15.267	905.264	675.415
247.103	15.270	904.101	674.501
248.117	15.436	903.970	675.013
249.132	15.407	903.168	674.236
250.147	15.324	902.855	673.611
251.161	15.454	901.797	673.282
252.176	15.396	901.133	672.494
253.190	15.458	900.793	672.428
254.205	15.533	900.029	672.101
255.220	15.489	899.245	671.277
256.234	15.613	899.032	671.557
257.249	15.574	897.932	670.521
258.263	15.597	897.387	670.145
259.278	15.537	896.787	669.397
260.293	15.639	896.228	669.330
261.307	15.588	895.733	668.694
262.322	15.718	894.606	668.312
263.336	15.637	893.756	667.298
264.351	15.742	893.221	667.254
265.366	15.831	892.191	666.778
266.380	15.692	892.242	666.206
267.395	15.832	891.513	666.157
268.409	15.747	890.623	665.099
269.424	15.750	889.913	664.523
270.439	15.708	889.453	663.953
271.453	15.793	888.378	663.426
272.468	15.838	887.957	663.232
273.482	15.839	887.489	662.829
274.497	15.849	886.748	662.254
275.512	15.918	886.411	662.216
276.526	15.942	885.745	661.752
277.541	15.919	885.298	661.270
278.555	15.977	884.455	660.812
279.570	15.881	884.146	660.145
280.585	15.916	883.215	659.527
281.599	15.947	882.450	659.021
282.614	15.900	881.677	658.201
283.628	15.969	881.354	658.170
284.643	15.906	880.687	657.368
285.657	16.009	879.689	656.965
286.672	15.981	879.591	656.727
287.687	16.101	878.767	656.522
288.701	16.039	878.290	655.865
289.716	16.081	877.678	655.511
290.730	16.068	877.040	654.928
291.745	16.179	876.351	654.784
292.760	16.100	876.061	654.204
293.774	16.115	875.035	653.439
294.789	16.219	874.472	653.363
295.803	16.215	873.591	652.634
296.818	16.172	872.999	651.966
297.833	16.128	872.574	651.420
298.847	16.097	872.158	650.932
299.862	16.255	870.872	650.524
300.876	16.249	870.830	650.414
301.891	16.353	869.983	650.122
302.906	16.349	869.527	649.707
303.920	16.347	868.925	649.195
304.935	16.425	868.265	648.943
305.949	16.307	867.676	647.991
306.964	16.333	867.316	647.767
307.979	16.503	866.788	647.966
308.993	16.407	866.264	647.150
310.008	16.442	865.517	646.667
311.022	16.476	864.912	646.290
312.037	16.421	864.416	645.651
313.052	16.392	864.003	645.176
314.066	16.356	863.246	644.415
315.081	16.455	862.596	644.248
316.095	16.449	861.985	643.714
317.110	16.494	861.019	643.106
318.125	16.448	861.014	642.871
319.139	16.548	860.146	642.547
320.154	16.550	859.855	642.278
321.168	16.545	859.427	641.881
322.183	16.481	858.535	640.916
323.197	16.469	858.632	640.888
324.212	16.601	857.884	640.773
325.227	16.601	857.079	640.116
326.241	16.703	856.373	639.918
327.256	16.525	856.345	639.166
328.270	16.587	855.340	638.592
329.285	16.614	854.636	638.112
330.300	16.521	854.241	637.410
331.314	16.602	853.472	637.086
332.329	16.725	853.360	637.408
333.343	16.702	853.273	637.200
334.358	16.733	852.353	636.573
335.373	16.740	851.678	636.042
336.387	16.857	851.361	636.188
337.402	16.699	851.510	635.649
338.416	16.718	851.094	635.353
339.431	16.824	850.596	635.323
340.446	16.818	849.945	634.758
341.460	16.865	849.491	634.538
342.475	17.072	849.085	634.953
343.489	17.001	848.368	634.096
344.504	16.962	848.120	633.710
345.519	17.002	847.633	633.438
346.533	16.945	847.096	632.767
347.548	16.992	846.381	632.351
348.562	16.983	845.810	631.835
349.577	17.119	845.883	632.342
350.592	16.939	844.898	630.879
351.606	16.979	844.126	630.397
352.621	16.973	843.631	629.949
353.635	16.934	842.981	629.263
354.650	17.011	842.282	628.971
355.665	17.164	841.830	629.143
356.679	16.994	841.241	628.020
357.694	17.208	840.234	628.001
358.708	17.217	839.645	627.539
359.723	17.093	839.175	626.675
360.738	17.141	838.684	626.433
361.752	17.145	838.183	626.015
362.767	17.220	837.331	625.601
363.781	17.088	837.391	625.104
364.796	17.251	836.613	625.069
365.810	17.225	836.339	624.714
366.825	17.279	835.859	624.497
367.840	17.263	835.274	623.945
368.854	17.418	834.417	623.819
369.869	17.338	834.215	623.317
370.883	17.358	833.932	623.125
371.898	17.277	833.729	622.624
372.913	17.257	833.301	622.173
373.927	17.296	832.980	622.020
374.942	17.394	832.367	621.868
375.956	17.471	831.721	621.609
376.971	17.480	831.264	621.248
377.986	17.527	830.651	620.904
379.000	17.458	830.230	620.286
380.015	17.653	829.694	620.540
381.029	17.690	828.853	619.989
382.044	17.622	828.649	619.536
383.059	17.706	827.769	619.129
384.073	17.467	827.567	618.053
385.088	17.723	827.130	618.600
386.102	17.555	826.332	617.341
387.117	17.474	826.047	616.782
388.132	17.698	824.998	616.752
389.146	17.642	824.812	616.357
390.161	17.610	824.309	615.812
391.175	17.705	823.742	615.676
392.190	17.690	823.055	615.053
393.205	17.674	822.983	614.888
394.219	17.646	822.415	614.307
395.234	17.660	822.035	614.020
396.248	17.650	821.908	613.835
397.263	17.640	821.390	613.356
398.278	17.656	821.104	613.148
399.292	17.701	820.536	612.830
400.307	17.504	820.346	611.926
401.321	17.695	819.367	611.826
402.336	17.743	818.806	611.529
403.350	17.720	818.705	611.316
404.365	17.831	817.986	611.123
405.380	17.826	817.426	610.632
406.394	17.940	816.713	610.451
407.409	18.200	815.778	610.628
408.423	17.924	816.268	609.954
409.438	17.982	815.926	609.851
410.453	18.005	815.674	609.692
411.467	17.946	815.119	609.012
412.482	17.982	814.604	608.703
413.496	18.138	814.165	608.876
414.511	18.108	813.992	608.586
415.526	18.049	813.497	607.951
416.540	18.141	812.905	607.781
417.555	18.199	812.229	607.430
418.569	18.094	812.117	606.921
419.584	18.152	811.743	606.793
420.599	18.209	811.165	606.508
421.613	115.993	1299.805	1490.832
422.628	100.422	1370.935	1490.889
