DTS Sentinel unit serial number:	SN413079Multiplexer serial number:	ORYXHardware model number:	OX4-SRSoftware version number:	ORYX F/W v4.00 Oryx Data Collector v3.7.2.0data status	okinstallation	princeton_trtdifferential loss correction	single-endedforward channel	channel 1reverse channel	N/Adate	2019/09/15time	05:58:36forward acquisition time	60.00reverse acquisition time	0.00gamma	496.2192k internal	0.2324k external	0.2324temperature offset calibration	0.9997default loss term (dB/km)	0.3790temperature slope calibration	1.0000multiplexer offset coefficient	1.0000multiplexer slope coefficient	1.0000fibre end	0.00T internal ref (°C)	30.62T ext. ref 1 (°C)	4.87T ext. ref 2 (°C)	25.25length (m)	temperature (°C)	Stokes	anti-Stokes-747.200	-200.000	-0.026	0.311
-746.185	-32.887	0.396	0.222
-745.171	-32.953	-0.216	-0.121
-744.156	-85.623	-0.202	0.063
-743.142	800.000	-0.069	-0.196
-742.127	-58.170	0.281	0.123
-741.112	230.980	-0.230	0.379
-740.098	-200.000	-0.015	0.082
-739.083	-35.173	-0.192	0.106
-738.069	131.273	-0.238	0.309
-737.054	800.000	-0.065	-0.227
-736.039	203.075	-0.290	-0.452
-735.025	1.420	0.177	-0.128
-734.010	-108.694	-0.400	-0.086
-732.996	-130.460	-0.213	-0.029
-731.981	253.777	-0.212	-0.365
-730.966	16.119	-0.263	-0.209
-729.952	77.854	0.175	0.188
-728.937	41.331	-0.257	0.235
-727.923	-35.709	-0.312	-0.170
-726.908	262.099	0.121	-0.211
-725.894	-131.704	-0.109	0.014
-724.879	-74.529	-0.422	-0.153
-723.864	-200.000	0.076	-0.342
-722.850	91.003	0.183	-0.206
-721.835	12.766	-0.274	-0.214
-720.821	-149.759	0.046	-0.004
-719.806	-77.024	-0.263	-0.092
-718.791	-117.781	-0.312	0.057
-717.777	419.451	-0.039	-0.085
-716.762	-200.000	0.006	-0.188
-715.748	-200.000	-0.095	0.463
-714.733	453.235	0.165	0.369
-713.718	-28.294	0.121	-0.070
-712.704	-105.383	-0.067	0.015
-711.689	-81.828	0.150	-0.050
-710.675	69.995	0.182	-0.190
-709.660	223.581	-0.163	0.265
-708.645	-25.112	0.124	-0.074
-707.631	800.000	0.142	-0.426
-706.616	238.196	0.077	0.129
-705.602	-65.899	0.077	0.031
-704.587	357.472	0.052	-0.105
-703.572	-200.000	0.026	-0.263
-702.558	-61.725	0.176	-0.074
-701.543	132.079	-0.097	0.125
-700.529	-151.523	-0.250	-0.019
-699.514	800.000	0.075	0.214
-698.499	-41.488	-0.210	-0.109
-697.485	-28.521	0.139	0.081
-696.470	208.241	0.097	0.152
-695.456	-170.386	0.317	-0.011
-694.441	-90.518	-0.312	-0.091
-693.426	-158.253	0.163	0.010
-692.412	123.912	0.090	-0.114
-691.397	739.904	0.076	-0.206
-690.383	194.626	0.083	0.127
-689.368	-111.347	0.122	0.025
-688.354	-200.000	0.006	-0.185
-687.339	130.330	-0.084	0.109
-686.324	555.064	0.106	0.257
-685.310	-157.452	0.163	0.010
-684.295	-200.000	-0.021	-0.169
-683.281	58.982	-0.143	0.141
-682.266	48.802	-0.107	0.101
-681.251	800.000	-0.174	-0.576
-680.237	-132.489	0.391	0.051
-679.222	-200.000	0.002	0.036
-678.208	176.576	-0.421	-0.615
-677.193	800.000	-0.030	-0.109
-676.178	-200.000	0.039	-0.339
-675.164	-81.562	0.273	-0.090
-674.149	800.000	-0.090	0.278
-673.135	388.803	-0.095	-0.198
-672.120	-90.397	-0.284	0.083
-671.105	-73.810	-0.320	-0.117
-670.091	-163.966	0.411	-0.019
-669.076	-200.000	0.306	0.000
-668.062	671.781	-0.127	-0.330
-667.047	108.022	-0.081	0.097
-666.032	178.887	0.222	0.326
-665.018	59.985	0.190	-0.188
-664.003	201.224	0.135	-0.209
-662.989	-84.048	0.331	-0.106
-661.974	-82.547	-0.481	0.157
-660.959	-200.000	0.028	0.140
-659.945	1.090	0.366	0.264
-658.930	-200.000	-0.005	0.059
-657.916	-53.595	-0.105	0.048
-656.901	88.883	-0.109	-0.122
-655.886	15.781	0.157	0.124
-654.872	4.252	0.128	0.095
-653.857	800.000	-0.117	-0.328
-652.843	303.397	-0.106	0.197
-651.828	800.000	0.023	0.097
-650.814	-200.000	0.028	0.402
-649.799	-90.592	-0.462	0.134
-648.784	-48.093	-0.298	-0.145
-647.770	-60.463	-0.273	0.116
-646.755	-200.000	0.014	-0.204
-645.741	-132.482	0.101	0.013
-644.726	-200.000	-0.384	-0.001
-643.711	191.200	-0.114	-0.173
-642.697	532.754	0.133	0.318
-641.682	198.325	0.073	-0.112
-640.668	-31.107	-0.152	-0.086
-639.653	-10.734	-0.249	-0.166
-638.638	-175.068	0.146	-0.004
-637.624	299.455	0.211	-0.391
-636.609	-139.921	-0.156	0.017
-635.595	309.716	-0.044	0.082
-634.580	224.098	-0.136	-0.220
-633.565	-129.590	0.100	-0.014
-632.551	-200.000	-0.022	0.158
-631.536	-24.258	-0.131	0.078
-630.522	166.778	-0.129	0.184
-629.507	-71.633	-0.090	-0.034
-628.492	195.958	-0.125	-0.192
-627.478	800.000	0.133	-0.382
-626.463	-125.597	0.116	0.018
-625.449	-23.084	0.203	0.123
-624.434	139.442	0.159	0.210
-623.419	-3.917	0.185	-0.129
-622.405	-126.322	0.140	0.021
-621.390	-144.103	0.157	0.015
-620.376	-11.687	0.216	0.142
-619.361	472.933	0.129	-0.291
-618.346	651.624	-0.063	-0.163
-617.332	39.389	0.054	-0.049
-616.317	-88.196	0.074	0.022
-615.303	-200.000	0.038	0.436
-614.288	-124.910	0.308	0.048
-613.273	32.825	-0.285	-0.247
-612.259	-193.052	0.108	0.001
-611.244	119.598	-0.101	-0.126
-610.230	800.000	-0.011	0.036
-609.215	-74.473	-0.323	-0.117
-608.201	-95.975	-0.337	0.090
-607.186	77.266	-0.306	0.327
-606.171	667.389	-0.110	0.287
-605.157	56.454	0.249	0.243
-604.142	-19.626	0.203	-0.126
-603.128	-200.000	0.007	-0.156
-602.113	-41.440	-0.032	0.017
-601.098	800.000	0.074	-0.319
-600.084	-200.000	-0.011	-0.115
-599.069	131.360	0.190	-0.245
-598.055	-86.775	0.287	-0.088
-597.040	-136.439	-0.430	-0.050
-596.025	-3.010	0.225	0.157
-595.011	110.000	0.222	0.267
-593.996	86.881	-0.284	-0.315
-592.982	193.168	0.137	0.208
-591.967	-94.633	0.090	0.024
-590.952	-200.000	0.009	0.090
-589.938	-200.000	0.004	-0.099
-588.923	-148.295	-0.460	-0.038
-587.909	800.000	-0.090	-0.284
-586.894	94.127	0.238	-0.270
-585.879	172.682	0.061	0.089
-584.865	-200.000	-0.019	0.112
-583.850	-126.790	0.285	-0.042
-582.836	226.648	-0.038	-0.061
-581.821	-200.000	0.013	-0.122
-580.806	-200.000	-0.049	-0.310
-579.792	-200.000	-0.007	0.141
-578.777	1.494	0.109	0.079
-577.763	-60.961	0.159	0.067
-576.748	-200.000	0.092	0.566
-575.733	-200.000	-0.308	-0.001
-574.719	-6.043	0.076	-0.052
-573.704	63.166	0.112	0.113
-572.690	-153.032	-0.382	-0.027
-571.675	-200.000	0.038	0.230
-570.661	88.266	0.124	-0.138
-569.646	-110.703	0.492	0.102
-568.631	-104.947	-0.199	0.046
-567.617	94.240	-0.323	0.367
-566.602	143.974	0.043	0.058
-565.588	-151.647	0.162	-0.012
-564.573	-59.369	0.129	-0.056
-563.558	-28.317	-0.098	0.057
-562.544	602.218	-0.128	0.319
-561.529	242.743	0.092	0.154
-560.515	65.291	0.164	0.166
-559.500	-139.462	0.232	-0.025
-558.485	-99.450	0.202	-0.051
-557.471	-154.438	-0.344	0.023
-556.456	123.284	-0.134	0.168
-555.442	-52.739	-0.393	-0.182
-554.427	-52.835	0.249	0.115
-553.412	101.057	-0.237	-0.276
-552.398	-200.000	-0.013	-0.155
-551.383	-119.762	-0.142	-0.025
-550.369	7.606	-0.356	0.267
-549.354	800.000	-0.065	0.201
-548.339	-177.232	-0.362	-0.009
-547.325	228.540	0.335	-0.546
-546.310	-13.730	0.138	0.089
-545.296	-200.000	0.020	-0.094
-544.281	-150.016	0.173	-0.013
-543.266	678.107	-0.042	0.111
-542.252	110.734	0.074	0.089
-541.237	8.529	0.290	0.219
-540.223	800.000	-0.138	0.405
-539.208	140.436	0.361	0.477
-538.193	-11.525	0.272	-0.179
-537.179	-200.000	0.014	-0.226
-536.164	245.032	-0.093	0.157
-535.150	800.000	0.060	0.210
-534.135	-42.181	-0.046	0.023
-533.121	800.000	0.027	-0.101
-532.106	90.853	0.319	-0.358
-531.091	-84.278	-0.277	-0.088
-530.077	170.704	-0.114	0.163
-529.062	32.323	0.064	-0.055
-528.048	800.000	-0.009	0.027
-527.033	233.914	-0.117	-0.192
-526.018	-112.300	0.120	0.024
-525.004	-96.380	-0.313	0.083
-523.989	-200.000	-0.008	-0.196
-522.975	-200.000	0.016	0.081
-521.960	102.348	-0.109	0.127
-520.945	-200.000	-0.040	-0.261
-519.931	-126.318	-0.196	0.029
-518.916	-200.000	-0.018	-0.224
-517.902	-107.325	0.369	0.081
-516.887	-200.000	0.001	-0.121
-515.872	-121.277	-0.312	0.052
-514.858	-200.000	-0.032	-0.374
-513.843	-200.000	-0.018	0.135
-512.829	-122.862	0.167	0.027
-511.814	245.542	-0.029	-0.048
-510.799	275.110	-0.049	0.087
-509.785	14.816	0.186	0.145
-508.770	376.906	0.092	0.189
-507.756	-165.652	-0.276	-0.012
-506.741	784.595	0.053	-0.146
-505.726	-71.034	0.098	0.037
-504.712	358.072	0.065	-0.129
-503.697	-200.000	-0.029	-0.341
-502.683	148.674	0.149	-0.201
-501.668	-112.315	0.121	0.024
-500.653	-172.588	-0.389	-0.012
-499.639	-60.477	-0.286	0.122
-498.624	-23.571	0.131	-0.078
-497.610	-145.691	-0.287	-0.026
-496.595	800.000	-0.067	-0.189
-495.581	-200.000	-0.001	-0.008
-494.566	-41.742	-0.092	-0.047
-493.551	-114.560	0.278	-0.053
-492.537	194.429	0.140	0.213
-491.522	83.493	0.032	-0.035
-490.508	674.617	-0.116	0.301
-489.493	9.843	-0.131	0.099
-488.478	-59.480	-0.190	0.081
-487.464	180.626	0.268	0.393
-486.449	-113.578	0.043	-0.008
-485.435	575.900	-0.050	0.123
-484.420	415.578	0.080	0.171
-483.405	-200.000	0.096	0.504
-482.391	70.155	0.078	0.080
-481.376	-30.279	-0.044	0.025
-480.362	-40.698	0.176	-0.091
-479.347	-200.000	0.015	-0.169
-478.332	170.960	0.237	0.340
-477.318	-17.283	0.098	-0.062
-476.303	86.816	0.169	0.186
-475.289	-137.328	-0.011	0.001
-474.274	-84.829	0.118	0.037
-473.259	618.071	-0.081	-0.203
-472.245	612.221	-0.100	-0.249
-471.230	-200.000	-0.011	-0.213
-470.216	-107.323	-0.118	-0.026
-469.201	207.706	-0.236	-0.368
-468.186	-150.124	-0.202	0.016
-467.172	800.000	0.075	0.206
-466.157	-1.316	-0.195	-0.137
-465.143	430.769	-0.080	0.174
-464.128	205.912	-0.107	0.165
-463.113	-134.545	-0.089	0.011
-462.099	-1.621	0.084	-0.059
-461.084	-169.092	0.255	-0.009
-460.070	181.197	-0.024	-0.036
-459.055	215.516	0.058	-0.092
-458.040	556.554	-0.038	0.092
-457.026	800.000	0.133	0.431
-456.011	76.214	-0.162	0.171
-454.997	33.007	-0.196	-0.170
-453.982	589.513	-0.043	0.106
-452.968	-106.374	-0.225	0.050
-451.953	-200.000	-0.020	-0.238
-450.938	-87.952	-0.116	-0.035
-449.924	-200.000	-0.028	0.339
-448.909	800.000	0.026	-0.091
-447.895	184.817	-0.052	0.077
-446.880	-31.620	0.254	-0.142
-445.865	74.967	-0.142	0.149
-444.851	-200.000	0.022	-0.192
-443.836	-200.000	-0.027	-0.213
-442.822	-47.302	-0.407	0.198
-441.807	190.431	0.064	-0.097
-440.792	-87.372	0.084	-0.025
-439.778	444.844	-0.076	0.166
-438.763	-200.000	0.016	-0.082
-437.749	297.789	0.030	-0.055
-436.734	-61.384	-0.142	-0.060
-435.719	-200.000	-0.065	-0.391
-434.705	316.005	-0.056	-0.105
-433.690	-141.791	-0.066	-0.007
-432.676	-149.885	-0.094	0.007
-431.661	-95.677	0.157	-0.042
-430.646	-174.932	0.161	0.005
-429.632	199.677	0.166	0.254
-428.617	9.591	-0.109	-0.082
-427.603	98.224	0.046	-0.053
-426.588	-13.734	0.264	0.170
-425.573	74.620	-0.072	0.076
-424.559	201.069	0.076	-0.117
-423.544	103.294	-0.179	0.209
-422.530	800.000	0.049	0.156
-421.515	143.576	-0.144	-0.192
-420.500	-200.000	0.025	-0.247
-419.486	-26.750	-0.198	0.116
-418.471	-17.924	0.208	-0.130
-417.457	196.401	-0.103	0.157
-416.442	-200.000	0.025	0.327
-415.428	800.000	0.016	-0.059
-414.413	800.000	0.071	0.211
-413.398	318.143	-0.247	0.465
-412.384	-200.000	0.008	0.268
-411.369	246.698	-0.087	0.145
-410.355	-200.000	0.024	-0.238
-409.340	-157.532	0.178	0.011
-408.325	-21.629	-0.036	0.022
-407.311	-200.000	0.036	-0.201
-406.296	24.569	0.276	0.228
-405.282	48.855	-0.130	0.122
-404.267	-98.956	-0.186	0.047
-403.252	-116.262	0.092	-0.017
-402.238	-200.000	-0.001	0.397
-401.223	352.079	0.065	-0.127
-400.209	-200.000	0.017	-0.183
-399.194	167.929	-0.127	-0.180
-398.179	-58.423	0.360	-0.156
-397.165	131.316	-0.238	0.304
-396.150	-43.557	0.298	-0.150
-395.136	3.056	0.130	-0.094
-394.121	16.036	0.206	-0.161
-393.106	630.495	-0.061	-0.154
-392.092	-113.663	-0.291	-0.057
-391.077	-70.243	0.027	-0.010
-390.063	-73.603	0.424	-0.154
-389.048	-200.000	-0.046	0.415
-388.033	800.000	0.058	0.221
-387.019	-7.217	0.092	-0.062
-386.004	-122.329	-0.213	0.035
-384.990	644.333	-0.192	-0.487
-383.975	-19.469	-0.240	0.148
-382.960	415.676	0.175	-0.371
-381.946	-200.000	0.007	0.041
-380.931	445.863	0.082	0.180
-379.917	44.109	0.205	-0.187
-378.902	-86.068	-0.092	-0.028
-377.888	605.947	0.030	-0.073
-376.873	311.938	0.129	-0.241
-375.858	-117.901	-0.262	-0.047
-374.844	-167.377	-0.098	-0.004
-373.829	-110.320	0.140	-0.029
-372.815	-48.266	0.231	0.111
-371.800	-2.724	-0.125	-0.087
-370.785	122.289	-0.131	0.163
-369.771	-109.138	-0.072	-0.015
-368.756	-49.252	-0.086	0.041
-367.742	-60.917	-0.164	0.069
-366.727	-87.542	0.112	-0.034
-365.712	102.710	0.165	-0.192
-364.698	800.000	-0.050	-0.189
-363.683	-200.000	-0.011	0.113
-362.669	-182.146	-0.275	0.005
-361.654	46.221	0.130	0.120
-360.639	-121.026	-0.235	0.039
-359.625	45.520	0.176	0.162
-358.610	324.102	-0.229	-0.434
-357.596	-54.972	-0.139	-0.062
-356.581	800.000	-0.062	-0.199
-355.566	-200.000	0.002	0.344
-354.552	84.436	-0.174	-0.190
-353.537	230.890	-0.172	-0.280
-352.523	143.484	-0.127	-0.168
-351.508	80.016	0.216	0.231
-350.493	4.307	-0.086	0.063
-349.479	49.201	-0.193	-0.180
-348.464	-73.875	0.103	-0.037
-347.450	-155.223	-0.255	0.017
-346.435	-200.000	0.044	0.192
-345.420	-200.000	-0.063	0.294
-344.406	94.360	0.139	0.157
-343.391	-36.111	-0.326	-0.175
-342.377	-109.787	-0.144	-0.030
-341.362	-200.000	0.009	0.263
-340.348	-200.000	0.029	0.138
-339.333	25.211	0.217	0.179
-338.318	-200.000	-0.016	0.409
-337.304	-85.476	-0.378	0.117
-336.289	64.597	0.144	0.144
-335.275	56.361	-0.110	-0.107
-334.260	-200.000	0.035	-0.268
-333.245	119.822	-0.277	-0.340
-332.231	800.000	0.063	-0.252
-331.216	0.794	0.235	-0.167
-330.202	192.154	-0.190	0.284
-329.187	351.491	-0.075	-0.148
-328.172	38.808	-0.170	-0.150
-327.158	800.000	-0.094	-0.265
-326.143	-114.572	0.255	-0.048
-325.129	164.680	-0.115	-0.161
-324.114	488.519	-0.137	-0.310
-323.099	-200.000	-0.048	-0.246
-322.085	-200.000	-0.012	0.085
-321.070	7.679	0.135	-0.100
-320.056	-37.892	-0.123	-0.065
-319.041	-134.413	-0.209	0.025
-318.026	-83.455	-0.108	-0.034
-317.012	-36.612	-0.390	-0.208
-315.997	64.225	0.091	0.091
-314.983	278.940	0.086	0.152
-313.968	80.383	0.135	0.145
-312.953	-84.475	0.148	0.046
-311.939	237.728	-0.195	-0.321
-310.924	-127.851	-0.092	-0.013
-309.910	-88.072	0.196	-0.058
-308.895	-200.000	-0.020	-0.118
-307.880	800.000	-0.053	0.200
-306.866	800.000	0.071	-0.286
-305.851	-138.388	0.109	0.012
-304.837	-87.996	-0.410	-0.122
-303.822	-55.701	0.228	-0.101
-302.807	118.053	0.055	-0.068
-301.793	-200.000	0.020	-0.285
-300.778	568.114	-0.122	0.294
-299.764	-200.000	0.014	0.575
-298.749	-200.000	-0.017	0.100
-297.735	173.869	-0.209	-0.300
-296.720	-200.000	-0.009	-0.355
-295.705	-200.000	-0.009	0.207
-294.691	-75.566	0.153	0.054
-293.676	-116.420	-0.107	0.020
-292.662	-124.192	-0.108	-0.017
-291.647	-0.608	-0.213	-0.150
-290.632	222.696	0.067	0.108
-289.618	-200.000	0.014	0.064
-288.603	147.004	-0.092	-0.123
-287.589	10.761	-0.132	-0.100
-286.574	-138.771	0.212	0.023
-285.559	190.562	0.067	0.100
-284.545	407.911	0.104	-0.219
-283.530	800.000	0.079	0.269
-282.516	214.580	0.187	-0.294
-281.501	-200.000	0.009	-0.077
-280.486	128.230	0.284	-0.358
-279.472	790.524	0.132	0.360
-278.457	-136.831	0.078	-0.009
-277.443	-200.000	-0.019	-0.197
-276.428	-200.000	-0.055	0.250
-275.413	-58.234	0.069	0.030
-274.399	-200.000	0.027	-0.153
-273.384	-200.000	-0.024	-0.222
-272.370	-200.000	-0.020	0.235
-271.355	-200.000	-0.010	0.099
-270.340	-200.000	-0.006	0.071
-269.326	-200.000	0.044	-0.192
-268.311	54.467	0.052	-0.049
-267.297	-86.692	0.228	-0.069
-266.282	-70.110	-0.206	-0.077
-265.267	-200.000	0.087	0.000
-264.253	149.125	-0.097	-0.129
-263.238	-200.000	0.005	-0.200
-262.224	-50.666	0.190	0.089
-261.209	61.110	-0.048	-0.048
-260.195	99.715	-0.214	0.246
-259.180	-27.656	0.018	-0.010
-258.165	74.208	0.156	0.162
-257.151	-200.000	-0.008	-0.175
-256.136	-200.000	0.034	-0.206
-255.122	-200.000	-0.046	0.257
-254.107	800.000	0.089	0.330
-253.092	218.605	0.103	0.163
-252.078	131.549	-0.036	0.046
-251.063	-200.000	-0.009	-0.143
-250.049	591.647	-0.018	-0.045
-249.034	-91.955	-0.135	-0.038
-248.019	800.000	-0.102	0.376
-247.005	800.000	-0.100	-0.375
-245.990	-184.688	-0.339	0.005
-244.976	107.360	-0.093	0.109
-243.961	-115.073	0.257	-0.048
-242.946	187.381	0.067	0.098
-241.932	177.447	0.121	-0.175
-240.917	172.290	-0.184	0.262
-239.903	-90.407	0.177	0.051
-238.888	-200.000	-0.038	0.255
-237.873	488.732	-0.148	0.334
-236.859	-200.000	0.024	0.203
-235.844	27.274	-0.070	0.059
-234.830	-111.464	0.255	-0.051
-233.815	167.832	0.115	0.162
-232.800	-52.039	-0.240	0.110
-231.786	49.799	-0.272	-0.254
-230.771	43.784	-0.139	-0.126
-229.757	-162.597	0.178	0.009
-228.742	140.353	0.242	-0.316
-227.727	-200.000	0.018	-0.195
-226.713	-200.000	-0.012	-0.113
-225.698	-200.000	0.000	-0.140
-224.684	47.918	0.042	-0.039
-223.669	-200.000	-0.012	0.086
-222.655	187.265	-0.014	-0.021
-221.640	-43.984	0.147	0.073
-220.625	310.901	-0.091	0.168
-219.611	-57.508	0.205	-0.089
-218.596	-97.739	-0.150	-0.038
-217.582	-112.744	0.134	-0.026
-216.567	-31.358	0.443	-0.247
-215.552	-51.854	-0.101	-0.046
-214.538	288.843	0.066	0.118
-213.523	-91.712	0.077	0.022
-212.509	800.000	-0.046	0.185
-211.494	95.113	0.020	0.022
-210.479	-29.798	-0.289	-0.163
-209.465	-200.000	-0.021	-0.311
-208.450	800.000	-0.073	0.223
-207.436	136.819	0.041	-0.053
-206.421	324.478	-0.049	-0.093
-205.406	350.397	0.115	0.224
-204.392	443.627	-0.062	-0.134
-203.377	-200.000	0.017	-0.152
-202.363	3.076	0.090	-0.065
-201.348	-102.932	0.202	-0.047
-200.333	-200.000	0.001	-0.231
-199.319	-79.033	0.377	-0.127
-198.304	4.964	0.224	0.163
-197.290	146.902	-0.067	0.089
-196.275	-59.851	0.138	0.058
-195.260	-62.087	-0.155	-0.064
-194.246	-91.109	0.214	-0.061
-193.231	322.592	-0.095	0.178
-192.217	-52.755	0.272	0.124
-191.202	4.848	0.169	0.123
-190.187	800.000	-0.064	-0.209
-189.173	-200.000	-0.008	0.425
-188.158	-58.764	-0.060	0.026
-187.144	-79.082	0.306	-0.103
-186.129	-132.565	-0.105	0.013
-185.114	-200.000	-0.011	-0.158
-184.100	800.000	-0.010	0.040
-183.085	32.653	0.158	-0.135
-182.071	332.063	0.098	0.188
-181.056	-73.036	-0.238	0.086
-180.042	-157.004	0.397	-0.024
-179.027	-200.000	-0.026	-0.145
-178.012	-200.000	0.026	0.389
-176.998	76.567	0.122	-0.127
-175.983	-100.380	0.051	-0.012
-174.969	53.479	-0.308	-0.292
-173.954	-112.148	0.080	0.016
-172.939	178.084	0.146	-0.210
-171.925	-200.000	-0.013	0.081
-170.910	-200.000	-0.022	0.106
-169.896	12.505	0.215	-0.164
-168.881	800.000	0.015	-0.044
-167.866	-96.172	0.321	0.084
-166.852	232.043	0.277	0.448
-165.837	-200.000	-0.038	0.206
-164.823	-73.998	0.120	0.043
-163.808	-7.261	-0.299	-0.200
-162.793	-36.709	0.107	0.056
-161.779	-20.613	0.207	-0.126
-160.764	104.278	0.255	0.296
-159.750	-200.000	-0.011	0.306
-158.735	464.636	-0.102	-0.225
-157.720	-178.851	0.269	0.006
-156.706	-200.000	0.030	0.215
-155.691	184.976	0.033	-0.048
-154.677	-76.441	0.005	-0.002
-153.662	-156.824	0.089	0.005
-152.647	-75.736	-0.351	0.123
-151.633	-69.136	0.244	-0.092
-150.618	-200.000	0.029	-0.127
-149.604	11.354	-0.139	0.105
-148.589	-117.953	-0.181	-0.032
-147.574	-32.934	0.208	0.114
-146.560	-200.000	0.020	0.321
-145.545	-144.095	0.089	0.008
-144.531	-200.000	0.066	-0.358
-143.516	54.975	0.067	-0.064
-142.502	-200.000	-0.005	-0.054
-141.487	35.359	-0.298	-0.258
-140.472	-200.000	-0.013	-0.369
-139.458	453.332	-0.070	0.153
-138.443	144.242	-0.172	-0.227
-137.429	207.666	0.177	0.272
-136.414	-113.141	0.397	-0.077
-135.399	26.978	0.233	0.193
-134.385	-19.759	-0.579	0.353
-133.370	-190.994	-0.151	-0.002
-132.356	245.215	0.125	-0.207
-131.341	-71.906	0.189	0.069
-130.326	93.337	0.048	-0.054
-129.312	165.494	0.208	-0.290
-128.297	-200.000	0.035	0.152
-127.283	129.730	-0.118	0.149
-126.268	-130.559	-0.252	0.033
-125.253	123.152	0.253	-0.312
-124.239	142.233	-0.256	0.334
-123.224	-93.107	0.268	-0.073
-122.210	800.000	-0.061	-0.186
-121.195	-186.919	-0.418	0.006
-120.180	800.000	-0.081	0.247
-119.166	-119.445	0.211	-0.036
-118.151	106.318	0.141	0.165
-117.137	54.636	0.181	-0.172
-116.122	203.911	-0.171	0.261
-115.107	167.341	-0.167	0.233
-114.093	-142.168	0.241	0.024
-113.078	40.906	-0.294	-0.261
-112.064	800.000	-0.063	0.229
-111.049	-49.948	0.239	0.112
-110.034	190.137	0.074	0.110
-109.020	175.389	0.246	-0.351
-108.005	151.856	-0.229	-0.307
-106.991	38.293	0.153	-0.134
-105.976	373.791	-0.071	0.142
-104.962	-179.147	0.044	-0.001
-103.947	-200.000	-0.037	0.277
-102.932	157.489	-0.128	0.174
-101.918	97.153	0.115	0.130
-100.903	-16.015	0.200	-0.125
-99.889	-200.000	-0.048	-0.435
-98.874	-200.000	-0.024	-0.233
-97.859	-118.668	0.247	0.043
-96.845	-116.798	-0.310	0.056
-95.830	-41.940	0.092	0.046
-94.816	-59.763	-0.262	0.111
-93.801	-27.080	0.189	-0.108
-92.786	-200.000	0.038	0.166
-91.772	-87.562	-0.261	-0.078
-90.757	-200.000	0.000	0.150
-89.743	-200.000	0.030	-0.134
-88.728	19.973	-0.170	0.135
-87.713	-200.000	0.015	0.218
-86.699	-200.000	0.030	0.271
-85.684	-79.976	-0.104	0.034
-84.670	172.127	-0.096	-0.135
-83.655	702.829	0.089	0.230
-82.640	-124.528	0.170	0.026
-81.626	16.070	0.166	0.129
-80.611	-23.781	0.073	-0.043
-79.597	395.213	0.031	-0.063
-78.582	-200.000	0.051	-0.246
-77.567	800.000	-0.042	-0.156
-76.553	-78.682	-0.149	-0.050
-75.538	-200.000	0.004	-0.039
-74.524	32.203	-0.074	-0.063
-73.509	460.846	-0.064	-0.141
-72.494	-178.449	0.172	-0.004
-71.480	221.485	0.066	0.105
-70.465	-200.000	0.016	-0.096
-69.451	-77.434	0.241	-0.082
-68.436	-109.163	0.504	0.105
-67.422	-124.893	0.302	0.046
-66.407	-72.539	-0.382	0.139
-65.392	183.644	-0.126	0.184
-64.378	17.756	0.250	0.196
-63.363	2.758	0.241	0.172
-62.349	-41.732	0.248	-0.125
-61.334	46.874	-0.916	-0.837
-60.319	-53.486	0.735	0.331
-59.305	800.000	-0.376	-1.052
-58.290	416.211	0.550	1.153
-57.276	532.219	0.640	1.488
-56.261	-200.000	102.971	590.113
-55.246	550.216	1436.009	3383.373
-54.232	187.159	2623.338	3842.302
-53.217	116.347	2146.865	2584.690
-52.203	42.604	1593.604	1424.780
-51.188	34.222	1328.650	1138.017
-50.173	30.970	1287.325	1083.710
-49.159	54.765	1338.841	1268.695
-48.144	55.876	1354.890	1290.427
-47.130	34.373	1310.677	1123.334
-46.115	30.704	1293.588	1087.255
-45.100	30.572	1288.659	1082.301
-44.086	30.489	1286.560	1080.013
-43.071	30.446	1283.892	1077.478
-42.057	30.390	1282.454	1075.904
-41.042	30.529	1279.998	1074.606
-40.027	30.498	1278.586	1073.200
-39.013	30.514	1276.806	1071.754
-37.998	30.498	1275.213	1070.283
-36.984	30.777	1272.880	1069.885
-35.969	30.639	1271.460	1067.859
-34.954	30.519	1270.408	1066.244
-33.940	30.711	1268.678	1065.849
-32.925	30.693	1267.217	1064.476
-31.911	30.716	1265.733	1063.319
-30.896	30.677	1264.653	1062.145
-29.881	30.741	1262.575	1060.724
-28.867	30.720	1261.832	1059.938
-27.852	30.754	1260.622	1059.072
-26.838	30.894	1258.550	1058.088
-25.823	30.738	1257.301	1056.108
-24.809	30.732	1255.883	1054.843
-23.794	30.736	1254.808	1053.920
-22.779	30.636	1253.849	1052.505
-21.765	30.718	1252.193	1051.540
-20.750	30.625	1251.218	1050.155
-19.736	30.698	1249.717	1049.260
-18.721	30.524	1248.952	1047.599
-17.706	30.641	1247.271	1046.803
-16.692	30.575	1246.671	1045.886
-15.677	30.564	1245.493	1044.795
-14.663	30.558	1243.997	1043.465
-13.648	30.579	1243.306	1042.965
-12.633	30.710	1241.667	1042.281
-11.619	30.485	1241.648	1040.963
-10.604	30.538	1240.718	1040.442
-9.590	30.555	1239.365	1039.356
-8.575	30.529	1238.187	1038.181
-7.560	30.482	1237.619	1037.402
-6.546	30.458	1236.845	1036.578
-5.531	30.552	1235.778	1036.171
-4.517	30.564	1234.779	1035.355
-3.502	30.575	1234.103	1034.810
-2.487	30.657	1232.900	1034.216
-1.473	30.505	1229.299	1030.311
-0.458	29.088	1214.468	1010.074
0.556	24.569	1197.549	973.193
1.571	20.941	1202.425	957.186
2.586	19.996	1217.631	963.945
3.600	19.559	1206.836	952.906
4.615	15.172	1136.843	874.706
5.629	8.030	1065.824	784.916
6.644	5.100	1047.135	756.887
7.659	4.902	1044.855	754.213
8.673	4.747	1043.959	752.750
9.688	4.722	1042.417	751.449
10.702	5.001	1040.141	751.089
11.717	8.899	1045.881	774.017
12.731	15.619	1055.570	813.762
13.746	18.664	1058.391	830.627
14.761	18.014	1057.415	826.640
15.775	17.092	1055.119	820.319
16.790	15.995	1052.716	813.089
17.804	15.231	1051.577	808.453
18.819	14.932	1050.359	806.005
19.834	14.693	1049.481	804.108
20.848	14.530	1048.659	802.626
21.863	14.363	1047.466	800.837
22.877	14.065	1047.034	799.003
23.892	14.104	1046.501	798.715
24.907	14.009	1046.011	797.814
25.921	14.168	1044.297	797.196
26.936	14.140	1043.382	796.293
27.950	14.274	1041.921	795.747
28.965	14.294	1040.142	794.417
29.980	14.413	1038.833	793.912
30.994	14.407	1037.843	793.057
32.009	14.582	1036.569	792.843
33.023	14.516	1035.632	791.745
34.038	14.215	1034.847	789.646
35.053	14.217	1033.898	788.859
36.067	14.363	1033.056	788.843
37.082	14.213	1032.357	787.528
38.096	14.361	1031.455	787.470
39.111	14.330	1031.172	787.039
40.126	14.256	1029.365	785.239
41.140	14.105	1028.227	783.592
42.155	14.003	1027.499	782.485
43.169	13.888	1026.812	781.354
44.184	14.062	1024.973	780.699
45.199	14.054	1024.146	779.963
46.213	14.054	1023.419	779.343
47.228	14.199	1022.021	778.888
48.242	14.288	1020.867	778.354
49.257	14.330	1020.215	777.986
50.271	14.309	1019.211	777.053
51.286	14.147	1018.612	775.771
52.301	14.284	1017.593	775.565
53.315	14.173	1016.610	774.229
54.330	14.171	1015.157	773.045
55.344	14.145	1014.641	772.465
56.359	14.126	1014.105	771.900
57.374	14.155	1012.636	770.846
58.388	14.117	1012.107	770.202
59.403	13.994	1011.480	769.088
60.417	13.982	1010.506	768.222
61.432	13.994	1009.908	767.753
62.447	13.845	1008.949	766.269
63.461	13.962	1008.059	766.066
64.476	13.890	1007.307	765.097
65.490	13.853	1006.565	764.291
66.505	13.974	1005.794	764.197
67.520	14.052	1005.111	763.969
68.534	14.029	1004.383	763.241
69.549	13.929	1003.875	762.328
70.563	13.877	1003.280	761.571
71.578	13.956	1001.789	760.733
72.593	13.939	1001.246	760.178
73.607	13.743	1001.119	759.118
74.622	13.878	1000.148	758.931
75.636	13.870	999.697	758.483
76.651	13.846	998.857	757.669
77.666	13.981	998.031	757.591
78.680	13.878	997.935	756.985
79.695	13.876	997.152	756.315
80.709	13.939	996.721	756.208
81.724	14.087	996.078	756.324
82.739	14.112	995.444	755.889
83.753	14.227	994.271	755.455
84.768	14.313	993.490	755.185
85.782	14.360	992.796	754.801
86.797	14.335	991.622	753.730
87.812	14.151	991.081	752.420
88.826	14.237	989.823	751.788
89.841	14.232	989.034	751.098
90.855	14.424	987.980	751.097
91.870	14.394	987.586	750.598
92.884	14.230	987.044	749.380
93.899	14.367	985.797	748.980
94.914	14.381	985.275	748.583
95.928	14.505	983.999	748.101
96.943	14.450	983.227	747.203
97.957	14.432	982.496	746.502
98.972	14.308	981.462	745.097
99.987	14.389	980.658	744.778
101.001	14.435	979.745	744.225
102.016	14.329	979.280	743.336
103.030	14.433	978.319	743.001
104.045	14.299	977.829	741.970
105.060	14.374	976.482	741.213
106.074	14.117	975.765	739.461
107.089	14.065	974.581	738.266
108.103	14.098	973.428	737.477
109.118	14.186	972.401	737.022
110.133	14.040	971.848	735.892
111.147	14.017	971.238	735.261
112.162	14.092	970.486	734.962
113.176	14.208	969.347	734.544
114.191	14.133	969.362	734.158
115.206	14.151	968.211	733.302
116.220	14.225	966.879	732.554
117.235	14.187	966.435	731.985
118.249	14.017	965.937	730.796
119.264	14.177	964.765	730.546
120.279	14.088	964.188	729.656
121.293	14.128	963.212	729.028
122.308	13.963	962.563	727.751
123.322	14.082	961.174	727.155
124.337	14.066	960.379	726.418
125.352	13.968	959.637	725.365
126.366	14.114	958.209	724.859
127.381	14.005	957.392	723.702
128.395	14.110	956.810	723.656
129.410	14.121	955.479	722.630
130.424	14.156	954.908	722.289
131.439	14.240	954.103	721.982
132.454	14.096	953.551	720.874
133.468	14.192	953.095	720.882
134.483	14.213	952.074	720.136
135.497	14.247	950.878	719.316
136.512	14.229	950.110	718.594
137.527	14.295	949.238	718.157
138.541	14.336	948.407	717.641
139.556	14.293	948.042	717.113
140.570	14.383	947.559	717.072
141.585	14.420	946.362	716.262
142.600	14.499	945.881	716.173
143.614	14.539	944.894	715.534
144.629	14.530	944.417	715.071
145.643	14.551	943.073	714.083
146.658	14.314	942.168	712.320
147.673	14.362	940.776	711.408
148.687	14.322	940.404	710.896
149.702	14.277	939.738	710.135
150.716	14.273	938.936	709.451
151.731	14.341	938.116	709.056
152.746	14.355	937.627	708.684
153.760	14.402	936.778	708.179
154.775	14.335	936.969	707.977
155.789	14.466	936.103	707.817
156.804	14.492	935.095	707.102
157.819	14.417	934.497	706.269
158.833	14.605	933.959	706.597
159.848	14.708	933.099	706.319
160.862	14.479	931.964	704.429
161.877	14.491	930.866	703.588
162.892	14.406	930.343	702.770
163.906	14.259	929.682	701.591
164.921	14.287	928.812	700.988
165.935	14.325	928.111	700.559
166.950	14.581	926.564	700.403
167.964	14.479	926.394	699.786
168.979	14.304	925.365	698.211
169.994	14.492	923.860	697.800
171.008	14.413	923.841	697.396
172.023	14.605	923.203	697.656
173.037	14.607	922.246	696.877
174.052	14.613	921.563	696.323
175.067	14.541	920.821	695.403
176.081	14.257	920.407	693.845
177.096	14.435	919.769	694.043
178.110	14.554	919.364	694.172
179.125	14.501	918.985	693.603
180.140	14.537	918.651	693.439
181.154	14.566	917.873	692.914
182.169	14.600	917.325	692.578
183.183	14.725	916.753	692.605
184.198	14.631	915.703	691.359
185.213	14.682	915.436	691.310
186.227	14.622	914.441	690.249
187.242	14.764	914.013	690.452
188.256	14.782	913.569	690.128
189.271	14.756	912.603	689.229
190.286	14.564	911.505	687.549
191.300	14.491	910.781	686.640
192.315	14.317	910.446	685.611
193.329	14.568	909.715	686.031
194.344	14.587	908.826	685.379
195.359	14.593	908.751	685.285
196.373	14.799	907.989	685.495
197.388	14.764	907.802	685.150
198.402	14.871	907.288	685.140
199.417	14.891	906.642	684.676
200.432	15.120	905.652	684.805
201.446	14.973	905.325	683.894
202.461	14.971	905.561	684.004
203.475	14.980	904.500	683.181
204.490	14.997	903.187	682.198
205.504	15.024	902.431	681.673
206.519	15.002	901.772	681.027
207.534	14.933	901.579	680.541
208.548	14.895	900.919	679.828
209.563	14.814	900.587	679.186
210.577	14.782	899.911	678.486
211.592	15.144	898.741	679.012
212.607	15.248	897.852	678.705
213.621	15.161	897.140	677.751
214.636	15.166	896.534	677.253
215.650	15.094	895.890	676.418
216.665	15.234	895.016	676.263
217.680	15.289	894.584	676.099
218.694	15.250	894.309	675.672
219.709	15.389	893.093	675.254
220.723	15.215	893.008	674.431
221.738	15.212	892.343	673.858
222.753	15.209	891.800	673.376
223.767	15.284	891.047	673.049
224.782	15.350	890.431	672.787
225.796	15.360	890.118	672.532
226.811	15.336	889.466	671.885
227.826	15.187	888.658	670.615
228.840	15.332	887.353	670.154
229.855	15.184	887.092	669.306
230.869	15.137	886.309	668.468
231.884	15.251	885.614	668.337
232.899	15.159	885.091	667.517
233.913	15.023	884.583	666.534
234.928	15.170	883.717	666.407
235.942	15.097	883.164	665.642
236.957	15.268	882.632	665.862
237.972	15.222	882.115	665.228
238.986	15.280	881.287	664.777
240.001	15.368	880.501	664.471
241.015	15.037	880.234	662.903
242.030	15.286	879.594	663.345
243.045	15.275	879.017	662.807
244.059	15.293	878.309	662.289
245.074	15.309	878.022	662.075
246.088	15.432	876.848	661.615
247.103	15.459	876.431	661.350
248.117	15.506	876.412	661.464
249.132	15.783	875.774	662.013
250.147	15.742	874.962	661.178
251.161	15.883	873.990	660.938
252.176	15.746	873.726	660.143
253.190	15.740	873.426	659.835
254.205	15.829	872.299	659.275
255.220	15.960	871.380	659.034
256.234	15.887	871.184	658.543
257.249	15.873	870.608	657.993
258.263	16.023	869.460	657.651
259.278	15.930	869.137	656.986
260.293	15.794	868.928	656.241
261.307	15.999	868.131	656.379
262.322	16.009	867.295	655.730
263.336	16.078	866.549	655.374
264.351	16.232	865.521	655.138
265.366	16.043	865.495	654.326
266.380	16.103	864.710	653.906
267.395	15.920	864.033	652.628
268.409	16.038	863.445	652.583
269.424	16.054	862.447	651.831
270.439	16.092	861.584	651.268
271.453	15.922	861.173	650.247
272.468	15.938	860.839	649.996
273.482	16.004	860.024	649.579
274.497	15.930	859.523	648.859
275.512	16.036	859.122	648.904
276.526	16.087	858.099	648.273
277.541	16.109	857.805	648.075
278.555	16.109	857.760	647.986
279.570	16.141	857.141	647.583
280.585	16.167	856.126	646.860
281.599	15.990	855.149	645.384
282.614	16.123	854.657	645.464
283.628	16.099	853.937	644.773
284.643	16.180	853.676	644.830
285.657	16.179	853.114	644.345
286.672	16.301	851.971	643.891
287.687	16.171	851.704	643.135
288.701	16.414	850.730	643.268
289.716	16.321	850.226	642.475
290.730	16.171	850.377	641.964
291.745	16.280	849.657	641.775
292.760	16.442	848.738	641.642
293.774	16.355	848.374	640.979
294.789	16.515	847.285	640.704
295.803	16.302	846.793	639.472
296.818	16.260	846.185	638.794
297.833	16.284	845.752	638.501
298.847	16.351	845.285	638.348
299.862	16.401	844.468	637.863
300.876	16.472	844.031	637.743
301.891	16.466	843.269	637.090
302.906	16.524	842.597	636.743
303.920	16.653	842.298	636.946
304.935	16.716	841.752	636.714
305.949	16.678	841.311	636.180
306.964	16.602	840.720	635.391
307.979	16.510	840.170	634.575
308.993	16.567	839.146	633.957
310.008	16.701	838.893	634.214
311.022	16.687	838.067	633.481
312.037	16.694	837.538	633.051
313.052	16.587	836.942	632.143
314.066	16.580	836.709	631.887
315.081	16.549	836.354	631.448
316.095	16.566	835.714	630.973
317.110	16.581	834.819	630.294
318.125	16.425	834.360	629.314
319.139	16.526	834.241	629.542
320.154	16.646	833.720	629.540
321.168	16.606	833.110	628.874
322.183	16.564	832.217	627.992
323.197	16.785	831.568	628.265
324.212	16.644	831.360	627.529
325.227	16.592	830.748	626.818
326.241	16.652	830.326	626.666
327.256	16.639	830.048	626.355
328.270	16.640	829.053	625.550
329.285	16.620	828.675	625.137
330.300	16.632	828.070	624.671
331.314	16.641	827.418	624.155
332.329	16.861	827.042	624.627
333.343	16.850	826.361	624.016
334.358	16.794	825.867	623.384
335.373	16.969	825.628	623.790
336.387	16.868	825.445	623.227
337.402	16.936	825.292	623.307
338.416	17.102	824.778	623.472
339.431	17.037	824.514	622.977
340.446	17.207	824.004	623.162
341.460	17.038	823.874	622.388
342.475	17.315	823.337	622.941
343.489	17.220	822.494	621.901
344.504	17.175	822.365	621.584
345.519	17.265	822.190	621.725
346.533	17.253	821.096	620.800
347.548	17.152	820.720	620.093
348.562	17.092	820.417	619.591
349.577	17.073	819.639	618.878
350.592	17.107	819.035	618.490
351.606	16.949	818.162	617.201
352.621	17.135	817.700	617.475
353.635	17.027	817.405	616.807
354.650	17.131	816.476	616.428
355.665	17.179	816.113	616.272
356.679	17.202	815.250	615.649
357.694	17.203	815.023	615.427
358.708	17.198	814.393	614.880
359.723	17.152	813.873	614.268
360.738	17.166	813.107	613.682
361.752	17.280	812.563	613.630
362.767	17.388	811.983	613.529
363.781	17.436	811.366	613.180
364.796	17.534	810.937	613.154
365.810	17.534	810.832	613.022
366.825	17.699	810.289	613.152
367.840	17.488	810.166	612.246
368.854	17.454	809.678	611.698
369.869	17.478	808.912	611.153
370.883	17.619	808.323	611.160
371.898	17.518	808.414	610.812
372.913	17.649	807.509	610.544
373.927	17.603	807.169	610.067
374.942	17.559	806.901	609.652
375.956	17.546	806.423	609.191
376.971	17.692	806.135	609.443
377.986	17.793	805.638	609.373
379.000	17.792	805.062	608.879
380.015	17.831	804.235	608.339
381.029	17.725	804.013	607.740
382.044	17.878	803.452	607.809
383.059	17.742	803.110	607.012
384.073	17.703	802.507	606.364
385.088	17.853	801.721	606.247
386.102	17.827	801.203	605.710
387.117	17.661	800.387	604.451
388.132	17.754	799.785	604.273
389.146	17.716	799.688	604.011
390.161	17.885	798.932	603.985
391.175	17.681	799.153	603.375
392.190	17.774	797.926	602.726
393.205	17.825	797.506	602.534
394.219	17.739	797.244	601.981
395.234	17.839	796.863	601.992
396.248	17.762	796.711	601.552
397.263	17.552	795.871	600.123
398.278	17.712	795.288	600.195
399.292	17.900	794.811	600.443
400.307	17.634	795.215	599.760
401.321	17.593	794.480	599.007
402.336	17.794	793.500	598.923
403.350	17.855	793.461	599.053
404.365	17.919	792.925	598.821
405.380	18.013	792.635	598.877
406.394	18.174	791.776	598.740
407.409	18.114	791.854	598.534
408.423	18.118	791.402	598.155
409.438	18.146	790.968	597.873
410.453	18.227	790.344	597.630
411.467	18.200	789.776	597.054
412.482	18.262	789.626	597.103
413.496	18.226	789.406	596.760
414.511	18.186	789.200	596.410
415.526	18.292	788.761	596.395
416.540	18.329	787.983	595.884
417.555	18.364	787.307	595.442
418.569	18.290	787.187	595.040
419.584	18.406	786.337	594.749
420.599	18.440	786.166	594.684
421.613	157.297	1370.861	1795.319
422.628	135.951	1456.046	1795.405
