DTS Sentinel unit serial number:	SN413079Multiplexer serial number:	ORYXHardware model number:	OX4-SRSoftware version number:	ORYX F/W v4.00 Oryx Data Collector v3.7.2.0data status	okinstallation	princeton_trtdifferential loss correction	single-endedforward channel	channel 1reverse channel	N/Adate	2019/09/12time	12:52:11forward acquisition time	60.00reverse acquisition time	0.00gamma	496.2192k internal	0.2291k external	0.2291temperature offset calibration	1.0044default loss term (dB/km)	0.3790temperature slope calibration	1.0000multiplexer offset coefficient	1.0000multiplexer slope coefficient	1.0000fibre end	0.00T internal ref (°C)	40.73T ext. ref 1 (°C)	2.06T ext. ref 2 (°C)	37.67length (m)	temperature (°C)	Stokes	anti-Stokes-747.200	-200.000	0.021	0.170
-746.185	12.432	0.170	0.134
-745.171	93.063	-0.109	-0.126
-744.156	434.189	0.165	0.367
-743.142	-52.943	-0.144	0.068
-742.127	-48.308	-0.221	0.109
-741.112	-2.797	-0.160	-0.115
-740.098	253.438	0.073	0.128
-739.083	-185.406	-0.365	0.006
-738.069	-132.750	0.238	0.031
-737.054	104.992	0.303	-0.366
-736.039	-21.559	0.240	0.150
-735.025	-115.056	0.252	0.049
-734.010	800.000	-0.159	0.482
-732.996	715.835	-0.108	-0.295
-731.981	-200.000	0.030	-0.329
-730.966	800.000	0.093	-0.363
-729.952	-166.567	-0.153	-0.007
-728.937	-200.000	0.014	-0.138
-727.923	800.000	0.087	-0.311
-726.908	-200.000	-0.012	0.080
-725.894	26.694	0.032	-0.027
-724.879	-41.077	-0.321	0.170
-723.864	800.000	0.049	0.188
-722.850	-200.000	-0.028	-0.306
-721.835	-200.000	0.014	-0.294
-720.821	800.000	0.030	-0.087
-719.806	-200.000	-0.006	-0.429
-718.791	-151.948	-0.384	-0.029
-717.777	-200.000	-0.028	-0.170
-716.762	184.159	0.019	0.029
-715.748	-29.167	0.114	0.067
-714.733	322.487	-0.088	0.171
-713.718	51.801	0.155	-0.150
-712.704	655.765	0.062	0.162
-711.689	-60.998	0.018	0.008
-710.675	719.035	-0.099	-0.270
-709.660	-200.000	-0.058	-0.389
-708.645	800.000	0.091	-0.296
-707.631	6.190	0.047	0.036
-706.616	339.096	0.076	0.151
-705.602	-200.000	0.008	-0.210
-704.587	377.558	-0.099	-0.208
-703.572	-36.962	0.138	0.076
-702.558	-200.000	0.021	-0.277
-701.543	800.000	-0.079	0.274
-700.529	-200.000	-0.003	0.132
-699.514	-28.865	0.248	-0.146
-698.499	-22.531	-0.277	-0.171
-697.485	-112.440	0.310	-0.063
-696.470	-200.000	0.005	0.571
-695.456	-53.528	-0.260	-0.121
-694.441	-200.000	-0.020	-0.095
-693.426	800.000	0.034	-0.123
-692.412	751.344	0.100	-0.277
-691.397	800.000	0.021	0.084
-690.383	800.000	-0.055	0.158
-689.368	-149.373	-0.564	0.046
-688.354	-41.017	0.134	0.071
-687.339	800.000	-0.025	0.077
-686.324	386.221	0.046	-0.097
-685.310	-29.889	0.269	-0.157
-684.295	46.089	0.522	0.493
-683.281	-57.655	-0.214	-0.096
-682.266	22.194	0.186	0.155
-681.251	207.911	-0.286	-0.456
-680.237	-2.357	-0.107	0.077
-679.222	-200.000	0.018	0.130
-678.208	215.992	0.078	-0.126
-677.193	-136.516	-0.187	0.022
-676.178	-143.091	0.049	0.005
-675.164	-200.000	-0.158	-0.000
-674.149	800.000	0.083	-0.274
-673.135	80.130	0.063	0.069
-672.120	25.829	0.166	0.142
-671.105	488.656	-0.073	-0.170
-670.091	-48.371	0.286	-0.141
-669.076	-31.603	-0.051	-0.029
-668.062	-200.000	0.019	-0.124
-667.047	141.288	0.230	0.310
-666.032	-127.661	0.131	-0.019
-665.018	54.415	-0.164	-0.161
-664.003	368.209	0.077	0.159
-662.989	-37.907	0.072	0.039
-661.974	-58.476	-0.420	-0.186
-660.959	-84.104	-0.253	-0.082
-659.945	-200.000	0.054	-0.267
-658.930	-58.068	-0.173	-0.077
-657.916	-34.667	-0.109	-0.061
-656.901	41.396	-0.260	-0.240
-655.886	800.000	-0.047	0.175
-654.872	172.578	0.127	0.187
-653.857	-114.639	0.145	0.028
-652.843	-147.158	0.123	0.011
-651.828	-200.000	0.071	-0.344
-650.814	-142.857	-0.404	-0.040
-649.799	585.351	0.062	-0.157
-648.784	25.707	-0.346	0.294
-647.770	16.275	-0.305	0.246
-646.755	-106.750	0.225	0.051
-645.741	540.081	0.076	0.185
-644.726	-129.520	0.313	0.044
-643.711	118.728	0.043	-0.054
-642.697	800.000	0.036	0.104
-641.682	-104.445	0.264	0.062
-640.668	-200.000	0.004	-0.363
-639.653	67.300	-0.288	-0.300
-638.638	-161.163	0.131	-0.007
-637.624	144.883	-0.192	0.261
-636.609	-13.763	-0.252	0.166
-635.595	569.204	0.133	0.329
-634.580	401.782	-0.169	0.362
-633.565	44.782	-0.221	0.208
-632.551	-167.045	-0.171	-0.007
-631.536	-0.813	-0.175	-0.126
-630.522	-136.078	0.187	0.022
-629.507	707.458	0.100	0.270
-628.492	508.154	-0.099	-0.234
-627.478	-147.340	0.081	-0.007
-626.463	508.885	-0.088	0.209
-625.449	324.953	0.052	-0.102
-624.434	-73.335	-0.082	-0.031
-623.419	437.486	-0.034	-0.075
-622.405	-65.744	-0.170	-0.069
-621.390	244.965	-0.077	0.132
-620.376	-146.009	-0.060	0.005
-619.361	-21.425	-0.128	-0.080
-618.346	-108.069	-0.158	-0.035
-617.332	-103.557	-0.197	-0.047
-616.317	-200.000	0.052	-0.264
-615.303	-0.069	0.190	-0.138
-614.288	-200.000	-0.016	0.125
-613.273	800.000	-0.093	-0.352
-612.259	152.008	0.170	0.236
-611.244	22.435	0.251	0.209
-610.230	800.000	-0.100	0.295
-609.215	309.559	0.023	0.045
-608.201	-133.645	-0.318	-0.040
-607.186	-128.405	0.466	0.067
-606.171	-28.315	0.273	0.160
-605.157	307.175	0.080	0.151
-604.142	11.148	-0.215	0.167
-603.128	-200.000	0.011	0.355
-602.113	-114.964	0.108	0.021
-601.098	209.687	0.224	0.358
-600.084	-146.773	0.357	-0.031
-599.069	326.560	0.230	0.449
-598.055	-118.966	-0.297	-0.053
-597.040	9.799	0.185	-0.143
-596.025	6.896	0.100	0.076
-595.011	-59.202	0.437	0.192
-593.996	279.774	0.112	0.204
-592.982	-119.567	0.254	-0.045
-591.967	800.000	-0.045	0.138
-590.952	78.768	0.325	-0.354
-589.938	448.606	0.040	-0.090
-588.923	-37.473	0.133	0.072
-587.909	-200.000	0.029	-0.133
-586.894	-9.007	-0.030	-0.020
-585.879	303.300	0.027	-0.050
-584.865	-77.690	-0.221	-0.078
-583.850	254.575	-0.090	-0.157
-582.836	800.000	-0.074	-0.279
-581.821	-200.000	-0.007	-0.190
-580.806	-200.000	-0.239	0.000
-579.792	664.907	-0.086	0.226
-578.777	115.675	0.163	0.202
-577.763	605.658	-0.029	-0.073
-576.748	198.456	-0.181	-0.281
-575.733	-36.822	-0.247	-0.135
-574.719	328.017	-0.127	0.248
-573.704	335.632	0.110	0.216
-572.690	293.698	0.058	-0.108
-571.675	-200.000	0.004	0.224
-570.661	250.585	-0.090	0.155
-569.646	-81.535	0.218	0.073
-568.631	166.460	0.179	0.259
-567.617	-151.987	-0.160	-0.012
-566.602	-165.408	0.311	-0.014
-565.588	-46.790	0.153	-0.076
-564.573	-62.271	-0.183	0.078
-563.558	105.536	0.107	-0.128
-562.544	-131.968	-0.345	0.046
-561.529	800.000	-0.026	0.114
-560.515	669.063	0.117	0.307
-559.500	-1.203	-0.025	0.018
-558.485	214.633	-0.024	-0.039
-557.471	231.471	-0.150	-0.251
-556.456	160.767	0.210	-0.299
-555.442	-42.959	0.307	0.158
-554.427	-151.185	0.344	0.026
-553.412	-88.699	0.429	-0.130
-552.398	-35.106	-0.256	-0.142
-551.383	-49.879	0.221	0.107
-550.369	-149.301	-0.228	0.018
-549.354	8.054	-0.127	0.097
-548.339	32.328	-0.072	0.063
-547.325	-126.184	-0.344	-0.052
-546.310	800.000	-0.098	-0.386
-545.296	721.980	0.026	-0.071
-544.281	-10.740	0.078	0.052
-543.266	-175.897	-0.472	0.013
-542.252	40.680	-0.102	-0.093
-541.237	-80.479	0.151	-0.051
-540.223	-200.000	0.064	0.387
-539.208	800.000	0.014	-0.040
-538.193	49.146	-0.214	0.204
-537.179	364.226	0.150	0.307
-536.164	-173.226	0.209	0.006
-535.150	-200.000	0.040	0.330
-534.135	-128.287	0.274	-0.040
-533.121	-200.000	0.007	-0.176
-532.106	-147.742	0.048	-0.004
-531.091	115.152	-0.086	-0.107
-530.077	-11.836	-0.250	0.167
-529.062	-77.318	-0.206	0.073
-528.048	236.152	0.137	-0.231
-527.033	552.749	-0.142	-0.346
-526.018	347.272	0.056	-0.113
-525.004	-200.000	0.020	-0.170
-523.989	-126.096	-0.157	0.024
-522.975	2.766	0.160	0.118
-521.960	-123.133	0.156	-0.025
-520.945	-84.235	-0.244	0.079
-519.931	-156.296	-0.271	-0.017
-518.916	18.063	-0.439	0.356
-517.902	-12.863	0.304	-0.201
-516.887	800.000	-0.085	0.247
-515.872	-200.000	0.013	0.107
-514.858	4.911	-0.287	-0.214
-513.843	-200.000	-0.028	-0.420
-512.829	800.000	0.111	-0.410
-511.814	73.311	-0.030	0.032
-510.799	274.392	-0.185	-0.333
-509.785	-200.000	0.024	-0.297
-508.770	-44.007	0.180	-0.092
-507.756	-184.399	-0.131	0.002
-506.741	800.000	-0.025	0.096
-505.726	-59.616	-0.289	0.126
-504.712	-30.181	-0.215	-0.124
-503.697	-132.497	-0.437	-0.057
-502.683	-141.830	0.214	-0.022
-501.668	-200.000	-0.029	-0.179
-500.653	-74.188	-0.081	-0.030
-499.639	148.298	0.213	-0.291
-498.624	491.246	0.037	0.085
-497.610	-125.209	-0.135	0.021
-496.595	-200.000	-0.096	0.465
-495.581	-80.666	0.446	-0.150
-494.566	386.979	0.040	-0.083
-493.551	800.000	0.069	-0.229
-492.537	-124.459	0.025	0.004
-491.522	18.552	-0.265	0.215
-490.508	-11.589	-0.308	-0.205
-489.493	-159.296	0.254	-0.014
-488.478	-105.707	-0.161	0.037
-487.464	538.775	-0.089	0.215
-486.449	21.217	-0.240	0.197
-485.435	30.344	-0.041	-0.035
-484.420	-200.000	0.010	-0.284
-483.405	692.540	0.111	-0.295
-482.391	-198.624	-0.152	-0.001
-481.376	87.941	-0.103	-0.116
-480.362	384.348	0.087	-0.181
-479.347	-200.000	0.015	0.272
-478.332	202.151	0.105	-0.164
-477.318	-120.864	0.115	0.020
-476.303	-39.158	-0.257	0.137
-475.289	-200.000	-0.017	0.098
-474.274	183.542	-0.085	0.127
-473.259	800.000	-0.033	0.096
-472.245	-200.000	0.015	-0.168
-471.230	330.322	-0.149	0.291
-470.216	-142.722	0.285	0.028
-469.201	-105.453	-0.348	-0.080
-468.186	800.000	0.082	0.238
-467.172	-7.741	-0.300	-0.205
-466.157	-200.000	0.087	-0.536
-465.143	153.063	-0.271	-0.376
-464.128	-87.367	0.375	0.115
-463.113	-165.475	0.172	-0.008
-462.099	-102.293	-0.204	-0.050
-461.084	-191.299	0.310	0.003
-460.070	-109.448	0.181	0.039
-459.055	264.098	0.049	-0.087
-458.040	-50.817	-0.133	-0.063
-457.026	85.951	-0.171	0.190
-456.011	-22.598	0.299	-0.183
-454.997	23.214	-0.134	0.112
-453.982	-200.000	0.016	-0.305
-452.968	585.179	-0.042	0.104
-451.953	-200.000	0.021	-0.182
-450.938	536.249	0.190	-0.456
-449.924	-82.163	0.153	-0.050
-448.909	-2.832	-0.343	-0.243
-447.895	-178.212	0.161	-0.004
-446.880	209.888	0.104	0.165
-445.865	97.658	0.138	-0.161
-444.851	-30.057	0.231	-0.133
-443.836	-81.556	0.315	-0.105
-442.822	34.392	-0.031	-0.028
-441.807	-121.529	0.165	0.028
-440.792	-86.022	0.282	-0.088
-439.778	-200.000	0.021	0.166
-438.763	194.311	0.096	0.148
-437.749	800.000	-0.038	0.132
-436.734	-41.828	0.129	-0.067
-435.719	-200.000	0.010	0.074
-434.705	-76.521	0.302	-0.107
-433.690	345.204	-0.149	0.297
-432.676	-195.036	-0.372	-0.003
-431.661	-132.130	-0.363	-0.048
-430.646	92.214	-0.187	-0.213
-429.632	-66.856	-0.184	0.073
-428.617	-55.085	-0.265	0.121
-427.603	-43.387	0.322	0.164
-426.588	800.000	-0.088	0.261
-425.573	-128.328	0.153	0.022
-424.559	139.714	-0.172	-0.229
-423.544	214.462	0.110	-0.176
-422.530	-19.817	-0.217	-0.135
-421.515	-76.795	-0.289	-0.102
-420.500	-23.497	0.438	0.266
-419.486	-24.242	-0.160	-0.097
-418.471	800.000	-0.130	-0.545
-417.457	-73.871	-0.111	0.041
-416.442	-200.000	0.012	0.284
-415.428	-200.000	-0.019	-0.185
-414.413	424.924	0.088	-0.192
-413.398	-100.393	0.417	0.104
-412.384	443.509	0.137	0.303
-411.369	-200.000	0.027	0.223
-410.355	502.695	0.090	0.211
-409.340	-73.948	0.355	-0.130
-408.325	68.930	0.280	0.290
-407.311	-91.796	-0.207	0.059
-406.296	-35.928	0.229	0.125
-405.282	800.000	-0.092	0.342
-404.267	-151.973	-0.015	-0.001
-403.252	-52.148	-0.192	-0.090
-402.238	-200.000	0.041	-0.250
-401.223	800.000	0.039	-0.150
-400.209	155.248	-0.120	-0.167
-399.194	-137.215	0.215	-0.025
-398.179	101.768	0.097	-0.114
-397.165	-144.372	0.073	0.007
-396.150	-109.631	0.097	-0.021
-395.136	-200.000	0.074	0.417
-394.121	152.662	0.133	0.184
-393.106	-200.000	0.029	-0.209
-392.092	542.571	-0.133	0.319
-391.077	-40.303	-0.135	0.071
-390.063	-13.925	-0.037	0.024
-389.048	227.954	-0.256	0.421
-388.033	-54.723	-0.176	0.080
-387.019	-200.000	0.037	0.289
-386.004	-116.375	-0.201	0.038
-384.990	99.164	0.179	0.209
-383.975	-200.000	0.016	0.278
-382.960	-200.000	-0.066	-0.298
-381.946	-115.108	0.150	-0.029
-380.931	-84.673	0.328	-0.104
-379.917	-89.489	-0.066	-0.020
-378.902	-151.819	-0.040	0.003
-377.888	-72.498	-0.188	0.070
-376.873	-200.000	0.051	0.235
-375.858	-161.203	0.117	0.006
-374.844	-56.117	-0.393	-0.176
-373.829	136.111	0.106	0.140
-372.815	183.969	-0.174	0.259
-371.800	300.037	-0.125	-0.233
-370.785	-200.000	0.030	0.133
-369.771	-142.121	-0.227	0.023
-368.756	168.580	0.110	-0.158
-367.742	800.000	-0.017	-0.064
-366.727	-119.158	-0.312	0.055
-365.712	139.736	-0.156	-0.207
-364.698	152.189	0.217	-0.298
-363.683	-70.942	-0.258	0.098
-362.669	-200.000	-0.035	-0.187
-361.654	-39.162	0.150	-0.079
-360.639	66.112	0.144	-0.148
-359.625	800.000	-0.041	-0.141
-358.610	71.997	-0.114	0.119
-357.596	25.792	-0.236	0.198
-356.581	-40.082	-0.159	0.084
-355.566	61.824	-0.178	0.179
-354.552	-16.141	0.226	-0.145
-353.537	-58.786	0.196	-0.086
-352.523	-17.480	-0.049	0.031
-351.508	61.048	-0.229	0.229
-350.493	800.000	-0.140	0.600
-349.479	495.919	0.036	-0.084
-348.464	800.000	0.050	-0.179
-347.450	-125.269	-0.307	-0.047
-346.435	-96.715	0.499	-0.132
-345.420	800.000	0.019	-0.077
-344.406	-137.426	0.076	0.009
-343.391	259.578	0.125	-0.218
-342.377	-200.000	-0.006	-0.054
-341.362	-41.918	0.332	-0.171
-340.348	-200.000	0.007	0.123
-339.333	-200.000	-0.007	0.137
-338.318	-140.967	-0.045	0.005
-337.304	-200.000	0.063	0.287
-336.289	48.745	-0.039	-0.037
-335.275	800.000	0.084	0.316
-334.260	60.880	0.273	-0.273
-333.245	-17.904	-0.165	-0.104
-332.231	-76.371	0.385	-0.137
-331.216	-152.566	0.129	0.009
-330.202	27.825	0.158	0.134
-329.187	-45.938	-0.135	-0.067
-328.172	-76.424	-0.250	-0.089
-327.158	800.000	-0.053	0.209
-326.143	271.671	0.093	-0.165
-325.129	-200.000	-0.045	0.211
-324.114	-200.000	-0.023	-0.315
-323.099	227.433	-0.130	0.213
-322.085	-1.650	-0.217	0.154
-321.070	9.513	-0.278	0.212
-320.056	-116.877	-0.220	-0.041
-319.041	-171.954	-0.323	-0.011
-318.026	-114.861	0.212	-0.041
-317.012	31.910	-0.166	-0.144
-315.997	389.223	-0.034	0.071
-314.983	-200.000	-0.018	0.209
-313.968	-161.587	0.021	0.001
-312.953	-42.132	0.089	-0.046
-311.939	11.740	-0.144	0.111
-310.924	-129.973	0.277	0.038
-309.910	-85.604	-0.147	-0.046
-308.895	-117.351	0.098	0.018
-307.880	-35.047	-0.095	-0.052
-306.866	-200.000	0.035	-0.379
-305.851	181.987	-0.235	0.348
-304.837	-67.079	0.092	0.036
-303.822	-110.200	-0.221	0.046
-302.807	-178.673	0.170	-0.004
-301.793	-200.000	0.007	-0.360
-300.778	-147.750	-0.168	0.014
-299.764	-128.683	-0.355	-0.050
-298.749	-200.000	-0.027	-0.279
-297.735	-7.833	0.110	-0.074
-296.720	1.404	-0.109	-0.079
-295.705	161.740	-0.059	0.083
-294.691	-200.000	0.007	-0.153
-293.676	188.170	0.261	-0.392
-292.662	59.610	-0.149	-0.148
-291.647	-107.561	-0.195	0.043
-290.632	150.367	0.235	-0.320
-289.618	704.159	0.061	-0.162
-288.603	18.616	0.389	0.313
-287.589	-200.000	-0.055	0.368
-286.574	-108.186	-0.129	0.028
-285.559	-23.185	-0.312	0.189
-284.545	243.109	0.090	-0.152
-283.530	-200.000	0.001	-0.268
-282.516	-74.268	0.199	-0.072
-281.501	-200.000	0.001	0.079
-280.486	-50.816	-0.175	0.083
-279.472	22.609	0.111	0.091
-278.457	-199.729	-0.272	-0.001
-277.443	509.361	0.111	0.260
-276.428	-162.932	-0.412	0.020
-275.413	-189.590	-0.245	0.003
-274.399	-148.346	0.026	0.002
-273.384	-15.993	0.204	0.131
-272.370	10.971	-0.076	0.058
-271.355	191.796	-0.074	-0.112
-270.340	19.638	-0.140	0.113
-269.326	93.354	-0.243	-0.276
-268.311	-200.000	0.029	0.194
-267.297	-48.095	0.149	-0.073
-266.282	342.387	-0.146	-0.287
-265.267	-200.000	0.013	-0.091
-264.253	-200.000	-0.010	0.302
-263.238	116.170	0.171	-0.210
-262.224	-152.484	0.272	-0.020
-261.209	-43.157	-0.152	-0.077
-260.195	57.858	0.260	-0.256
-259.180	553.702	0.065	-0.157
-258.165	-101.136	0.259	0.064
-257.151	163.094	0.083	0.117
-256.136	95.597	0.077	0.088
-255.122	466.810	-0.044	0.098
-254.107	-23.316	0.198	-0.120
-253.092	110.887	-0.124	-0.150
-252.078	-86.916	-0.127	-0.039
-251.063	800.000	-0.013	-0.050
-250.049	23.963	0.113	-0.093
-249.034	397.774	0.043	-0.091
-248.019	-36.665	0.132	-0.071
-247.005	253.845	0.154	-0.264
-245.990	-8.481	-0.154	0.104
-244.976	284.405	-0.127	0.229
-243.961	-22.120	0.215	-0.131
-242.946	3.689	0.076	0.056
-241.932	-200.000	0.048	0.326
-240.917	800.000	-0.110	0.473
-239.903	-66.764	-0.170	0.068
-238.888	-76.255	-0.169	-0.060
-237.873	-54.410	0.195	-0.089
-236.859	86.859	-0.183	0.203
-235.844	-28.902	-0.149	-0.086
-234.830	134.387	0.254	-0.331
-233.815	-200.000	-0.039	0.194
-232.800	46.377	0.245	0.228
-231.786	800.000	-0.114	-0.375
-230.771	528.849	-0.071	-0.168
-229.757	-99.862	0.546	-0.137
-228.742	-150.417	-0.350	-0.027
-227.727	5.853	0.135	0.100
-226.713	800.000	0.083	0.321
-225.698	-2.232	0.271	0.191
-224.684	800.000	-0.064	-0.203
-223.669	-61.768	-0.060	0.025
-222.655	532.504	-0.034	0.081
-221.640	-49.741	-0.083	0.040
-220.625	-200.000	-0.069	-0.340
-219.611	-188.831	0.359	0.004
-218.596	6.703	0.170	-0.127
-217.582	-127.092	-0.273	0.040
-216.567	91.075	0.103	0.116
-215.552	-200.000	0.013	0.204
-214.538	46.488	-0.112	-0.104
-213.523	723.435	0.133	-0.355
-212.509	-33.480	0.142	0.078
-211.494	72.764	0.180	0.188
-210.479	-116.371	0.154	-0.029
-209.465	800.000	0.062	-0.179
-208.450	-85.315	0.294	0.092
-207.436	-97.995	0.335	0.087
-206.421	29.943	0.246	-0.210
-205.406	-119.783	-0.426	-0.074
-204.392	-200.000	-0.009	-0.052
-203.377	135.361	-0.051	0.067
-202.363	54.305	0.160	0.154
-201.348	-54.828	0.310	0.140
-200.333	-14.389	0.100	-0.065
-199.319	94.735	-0.237	0.270
-198.304	800.000	0.097	0.291
-197.290	464.835	-0.141	-0.316
-196.275	-200.000	-0.020	0.102
-195.260	-63.447	0.124	-0.051
-194.246	-200.000	-0.002	-0.183
-193.231	20.360	-0.132	-0.107
-192.217	-200.000	-0.087	-0.404
-191.202	-117.175	-0.234	-0.043
-190.187	-200.000	0.020	0.175
-189.173	-89.943	0.210	0.061
-188.158	-150.002	0.054	0.004
-187.144	71.173	-0.111	-0.116
-186.129	301.070	-0.158	0.293
-185.114	67.515	-0.203	-0.207
-184.100	111.337	0.117	-0.142
-183.085	-200.000	-0.021	0.118
-182.071	285.622	0.144	-0.260
-181.056	-38.086	-0.230	0.122
-180.042	-158.261	0.346	0.020
-179.027	-146.949	-0.368	-0.032
-178.012	-200.000	-0.023	-0.228
-176.998	-34.566	-0.357	-0.196
-175.983	800.000	0.083	0.233
-174.969	-200.000	-0.002	-0.180
-173.954	-170.166	-0.335	0.012
-172.939	-200.000	-0.022	-0.132
-171.925	13.991	0.184	-0.143
-170.910	16.101	0.154	-0.121
-169.896	629.569	-0.171	-0.432
-168.881	-200.000	0.026	-0.197
-167.866	-200.000	0.080	0.508
-166.852	76.658	0.112	0.119
-165.837	-51.677	0.145	-0.068
-164.823	-109.802	0.232	0.049
-163.808	90.301	-0.223	0.250
-162.793	-79.087	-0.132	-0.045
-161.779	-200.000	0.067	0.613
-160.764	37.943	0.147	-0.131
-159.750	-172.105	0.143	0.005
-158.735	75.877	0.275	0.291
-157.720	-200.000	-0.012	-0.425
-156.706	17.681	-0.148	-0.118
-155.691	-57.276	-0.095	-0.042
-154.677	97.913	-0.154	0.177
-153.662	-100.733	0.244	-0.060
-152.647	20.543	-0.046	-0.037
-151.633	-200.000	0.009	0.109
-150.618	-80.324	0.159	-0.053
-149.604	800.000	-0.079	0.228
-148.589	114.533	0.218	0.266
-147.574	93.772	-0.156	-0.177
-146.560	140.397	0.217	0.287
-145.545	-59.115	0.088	-0.038
-144.531	89.712	0.202	-0.226
-143.516	-18.959	0.244	0.152
-142.502	-55.968	0.143	0.064
-141.487	-71.634	-0.359	0.134
-140.472	-62.933	-0.170	-0.070
-139.458	-116.815	0.085	0.016
-138.443	-200.000	0.002	-0.082
-137.429	800.000	-0.060	0.208
-136.414	219.827	-0.094	0.150
-135.399	-132.530	-0.128	-0.016
-134.385	-26.981	0.202	0.118
-133.370	-200.000	-0.013	0.213
-132.356	-81.461	0.127	0.042
-131.341	40.267	-0.233	0.209
-130.326	-146.160	0.243	-0.021
-129.312	493.401	0.145	0.333
-128.297	-200.000	0.024	0.239
-127.283	47.736	0.160	0.150
-126.268	71.752	-0.245	-0.254
-125.253	81.528	-0.131	-0.142
-124.239	800.000	0.026	-0.110
-123.224	-69.958	0.114	0.043
-122.210	195.701	0.056	0.085
-121.195	-28.775	0.245	0.141
-120.180	-62.694	-0.190	-0.079
-119.166	-37.765	0.197	0.105
-118.151	-5.342	-0.119	0.082
-117.137	151.772	0.116	0.158
-116.122	800.000	-0.064	0.206
-115.107	116.327	0.135	-0.165
-114.093	-166.217	0.114	0.005
-113.078	232.395	-0.082	0.135
-112.064	39.141	0.313	-0.279
-111.049	-168.179	0.154	0.006
-110.034	26.754	-0.190	0.159
-109.020	-84.572	-0.140	-0.044
-108.005	-139.212	0.395	0.043
-106.991	-200.000	-0.012	0.214
-105.976	800.000	0.056	0.203
-104.962	800.000	0.036	-0.150
-103.947	183.439	0.118	0.174
-102.932	243.966	-0.090	0.151
-101.918	22.397	0.238	0.195
-100.903	-179.614	0.356	0.008
-99.889	-103.909	-0.373	0.087
-98.874	-200.000	0.021	-0.136
-97.859	203.379	-0.085	0.132
-96.845	800.000	-0.024	0.075
-95.830	318.978	-0.085	0.161
-94.816	18.189	0.280	0.223
-93.801	40.661	-0.022	0.019
-92.786	43.058	-0.252	0.230
-91.772	800.000	0.085	0.236
-90.757	167.603	0.105	-0.149
-89.743	-13.333	0.275	0.178
-88.728	800.000	-0.083	0.316
-87.713	17.900	0.218	0.173
-86.699	68.764	-0.058	-0.060
-85.684	-32.692	-0.074	0.041
-84.670	47.165	-0.217	0.201
-83.655	-200.000	0.039	0.217
-82.640	-70.558	0.318	0.120
-81.626	-84.314	0.195	0.062
-80.611	800.000	-0.080	0.262
-79.597	111.098	0.034	-0.041
-78.582	-200.000	-0.006	0.120
-77.567	-200.000	-0.055	0.382
-76.553	-141.000	-0.403	-0.041
-75.538	-106.207	-0.291	-0.065
-74.524	-48.662	-0.182	0.087
-73.509	18.748	-0.146	-0.116
-72.494	-17.578	0.083	-0.052
-71.480	-200.000	0.006	-0.113
-70.465	-200.000	-0.008	0.290
-69.451	-63.225	0.146	-0.060
-68.436	6.218	0.257	0.190
-67.422	226.860	-0.146	0.237
-66.407	120.521	0.105	0.130
-65.392	-99.661	0.175	-0.044
-64.378	51.275	-0.300	0.283
-63.363	800.000	-0.026	-0.075
-62.349	800.000	0.137	0.520
-61.334	-45.893	-1.079	-0.531
-60.319	-112.326	0.604	0.121
-59.305	800.000	0.213	-0.849
-58.290	20.982	0.428	0.346
-57.276	577.086	0.657	1.602
-56.261	-200.000	76.325	509.265
-55.246	519.306	1329.232	3103.628
-54.232	145.924	2561.250	3423.007
-53.217	117.334	2228.893	2731.345
-52.203	52.606	1671.267	1590.940
-51.188	44.353	1394.752	1276.124
-50.173	40.872	1348.949	1212.972
-49.159	59.520	1383.790	1359.492
-48.144	66.121	1402.571	1418.466
-47.130	44.972	1365.328	1252.806
-46.115	40.857	1348.979	1212.710
-45.100	40.602	1344.658	1207.226
-44.086	40.486	1342.215	1204.285
-43.071	40.550	1339.780	1202.440
-42.057	40.497	1337.219	1199.768
-41.042	40.601	1335.616	1198.912
-40.027	40.650	1334.462	1198.128
-39.013	40.603	1332.737	1196.244
-37.998	40.587	1330.426	1194.030
-36.984	40.752	1328.462	1193.212
-35.969	40.744	1326.961	1191.769
-34.954	40.808	1325.018	1190.355
-33.940	40.792	1324.083	1189.376
-32.925	40.873	1322.721	1188.587
-31.911	40.832	1321.344	1187.060
-30.896	40.865	1319.850	1185.864
-29.881	40.806	1318.446	1184.203
-28.867	40.846	1316.715	1182.840
-27.852	40.846	1315.464	1181.673
-26.838	40.719	1314.482	1179.989
-25.823	40.848	1312.478	1178.904
-24.809	40.830	1310.962	1177.394
-23.794	40.805	1309.829	1176.181
-22.779	40.882	1308.113	1175.050
-21.765	40.969	1306.794	1174.332
-20.750	40.954	1305.357	1172.906
-19.736	40.698	1304.459	1170.544
-18.721	40.768	1303.495	1170.041
-17.706	40.797	1301.982	1168.810
-16.692	40.563	1301.238	1166.718
-15.677	40.616	1300.111	1165.974
-14.663	40.675	1298.690	1164.997
-13.648	40.592	1297.981	1163.827
-12.633	40.623	1296.889	1162.988
-11.619	40.633	1295.824	1162.042
-10.604	40.661	1294.960	1161.384
-9.590	40.612	1294.279	1160.439
-8.575	40.627	1292.631	1159.004
-7.560	40.724	1291.752	1158.739
-6.546	40.666	1291.009	1157.686
-5.531	40.599	1290.295	1156.609
-4.517	40.661	1288.961	1155.728
-3.502	40.622	1288.542	1155.080
-2.487	40.736	1287.082	1154.391
-1.473	40.809	1283.423	1151.486
-0.458	39.797	1269.103	1132.790
0.556	36.298	1249.202	1092.058
1.571	32.315	1252.533	1072.219
2.586	31.204	1266.903	1078.016
3.600	29.374	1256.067	1058.212
4.615	21.127	1177.173	947.106
5.629	8.408	1092.522	814.454
6.644	2.528	1068.884	767.367
7.659	2.072	1065.768	762.786
8.673	1.929	1064.262	760.926
9.688	1.704	1063.357	759.088
10.702	2.193	1061.635	760.229
11.717	9.122	1072.308	802.532
12.731	20.400	1088.831	871.757
13.746	25.319	1093.992	900.557
14.761	25.333	1094.190	900.707
15.775	25.478	1093.331	900.647
16.790	25.244	1092.708	898.884
17.804	25.078	1092.498	897.798
18.819	25.231	1091.597	897.746
19.834	25.257	1091.030	897.329
20.848	25.343	1090.777	897.471
21.863	25.372	1089.885	896.804
22.877	25.250	1089.598	895.881
23.892	25.236	1088.850	895.117
24.907	25.274	1088.220	894.709
25.921	25.292	1086.972	893.694
26.936	25.120	1085.552	891.590
27.950	25.215	1084.082	890.778
28.965	25.178	1082.435	889.159
29.980	25.280	1080.555	888.041
30.994	25.412	1079.921	888.095
32.009	25.390	1078.255	886.538
33.023	25.189	1077.516	884.860
34.038	25.203	1076.824	884.282
35.053	25.190	1076.530	883.901
36.067	25.382	1075.557	883.965
37.082	25.415	1074.822	883.450
38.096	25.662	1073.678	883.644
39.111	25.563	1073.420	882.868
40.126	25.433	1072.053	881.025
41.140	25.107	1070.564	878.126
42.155	24.853	1069.200	875.689
43.169	24.967	1068.453	875.555
44.184	24.970	1067.149	874.426
45.199	24.719	1066.639	872.706
46.213	24.897	1065.539	872.593
47.228	25.067	1064.757	872.705
48.242	25.238	1063.954	872.801
49.257	25.177	1063.440	872.006
50.271	25.243	1062.742	871.677
51.286	25.356	1061.711	871.302
52.301	25.452	1060.967	871.080
53.315	25.343	1060.185	869.832
54.330	25.140	1059.635	868.321
55.344	25.309	1058.138	867.839
56.359	25.285	1057.399	867.039
57.374	25.041	1056.502	865.046
58.388	25.036	1055.950	864.494
59.403	24.895	1055.182	863.108
60.417	24.781	1054.218	861.694
61.432	24.884	1053.673	861.671
62.447	24.965	1053.024	861.453
63.461	25.000	1052.246	860.907
64.476	24.992	1051.050	859.817
65.490	24.984	1050.248	859.046
66.505	24.945	1049.843	858.452
67.520	25.119	1048.919	858.453
68.534	24.762	1048.144	856.034
69.549	24.538	1046.928	853.892
70.563	24.536	1046.376	853.357
71.578	24.586	1045.079	852.462
72.593	24.401	1044.085	850.696
73.607	24.359	1043.681	850.091
74.622	24.806	1043.282	851.820
75.636	24.859	1042.513	851.370
76.651	24.685	1041.829	849.908
77.666	24.645	1040.970	848.943
78.680	24.544	1040.789	848.238
79.695	24.670	1040.046	848.156
80.709	24.932	1039.085	848.537
81.724	24.794	1038.572	847.393
82.739	24.959	1037.733	847.415
83.753	25.230	1037.284	848.251
84.768	25.573	1036.531	849.180
85.782	25.546	1035.555	848.179
86.797	25.519	1034.464	847.083
87.812	25.515	1033.111	845.883
88.826	25.477	1032.461	845.096
89.841	25.659	1031.158	844.812
90.855	25.444	1030.800	843.431
91.870	25.544	1029.774	842.987
92.884	25.403	1028.573	841.269
93.899	25.360	1027.814	840.371
94.914	25.417	1026.915	839.831
95.928	25.320	1025.996	838.554
96.943	25.116	1024.626	836.405
97.957	24.808	1023.850	834.263
98.972	24.779	1022.367	832.845
99.987	25.052	1021.657	833.462
101.001	25.267	1020.922	833.790
102.016	25.231	1020.167	832.934
103.030	25.065	1019.440	831.493
104.045	24.996	1018.299	830.169
105.060	24.804	1017.205	828.317
106.074	24.991	1016.973	828.921
107.089	25.283	1016.144	829.522
108.103	25.316	1014.886	828.571
109.118	24.943	1014.068	826.112
110.133	24.897	1013.216	825.130
111.147	24.909	1011.684	823.866
112.162	24.754	1010.948	822.482
113.176	24.925	1010.577	822.895
114.191	24.830	1009.719	821.683
115.206	24.619	1008.468	819.624
116.220	24.432	1007.897	818.233
117.235	24.598	1006.719	817.964
118.249	24.564	1006.312	817.403
119.264	24.508	1005.295	816.248
120.279	24.587	1004.477	815.875
121.293	24.620	1004.281	815.796
122.308	24.727	1003.060	815.216
123.322	24.606	1001.890	813.644
124.337	24.485	1000.456	811.859
125.352	24.079	998.331	808.221
126.366	23.869	997.931	806.873
127.381	24.677	998.162	810.652
128.395	25.095	997.866	812.234
129.410	25.277	996.771	812.094
130.424	25.277	995.756	811.194
131.439	25.269	995.077	810.534
132.454	25.171	994.309	809.396
133.468	25.054	993.482	808.124
134.483	25.289	992.791	808.549
135.497	25.500	991.961	808.750
136.512	25.596	990.788	808.155
137.527	25.538	989.991	807.171
138.541	25.426	989.698	806.361
139.556	25.506	988.904	805.997
140.570	25.581	987.759	805.330
141.585	25.556	987.207	804.696
142.600	25.455	985.912	803.121
143.614	25.562	985.732	803.380
144.629	25.815	984.835	803.707
145.643	25.733	983.546	802.219
146.658	25.451	982.075	799.694
147.673	25.236	981.033	797.819
148.687	25.248	979.749	796.757
149.702	25.297	978.813	796.142
150.716	25.164	978.117	794.917
151.731	25.328	977.266	794.881
152.746	25.589	976.708	795.509
153.760	25.592	976.005	794.880
154.775	25.623	975.627	794.637
155.789	25.612	974.478	793.585
156.804	25.723	973.354	793.087
157.819	25.700	972.940	792.579
158.833	25.729	972.073	791.932
159.848	25.728	971.004	790.985
160.862	25.665	969.763	789.630
161.877	25.678	968.959	788.960
162.892	25.622	967.967	787.835
163.906	25.602	967.040	786.928
164.921	25.542	966.327	786.013
165.935	25.452	965.365	784.766
166.950	25.627	964.250	784.556
167.964	25.546	963.534	783.552
168.979	25.409	962.235	781.830
169.994	25.374	961.385	780.919
171.008	25.523	961.011	781.192
172.023	25.731	960.419	781.545
173.037	25.440	959.053	779.104
174.052	25.391	958.146	778.086
175.067	25.369	957.675	777.537
176.081	25.388	957.504	777.413
177.096	25.310	956.622	776.290
178.110	25.316	955.034	774.961
179.125	24.933	954.726	772.986
180.140	24.977	954.224	772.702
181.154	25.027	953.913	772.599
182.169	25.340	953.709	773.714
183.183	25.604	953.516	774.623
184.198	25.362	952.413	772.619
185.213	25.437	951.689	772.284
186.227	25.467	951.078	771.852
187.242	25.697	950.426	772.239
188.256	25.674	949.763	771.536
189.271	25.632	949.240	770.861
190.286	25.293	947.503	767.934
191.300	24.724	946.154	764.338
192.315	23.930	944.768	759.761
193.329	23.840	944.076	758.755
194.344	24.954	944.559	763.830
195.359	25.424	944.504	765.723
196.373	25.560	944.395	766.146
197.388	25.281	943.594	764.242
198.402	25.446	943.091	764.466
199.417	25.469	942.730	764.205
200.432	25.293	941.183	762.134
201.446	25.091	940.616	760.751
202.461	25.227	939.894	760.677
203.475	24.188	938.238	754.870
204.490	23.439	936.903	750.560
205.504	24.363	937.314	754.732
206.519	25.100	937.143	757.644
207.534	25.114	936.495	757.112
208.548	25.617	936.447	759.133
209.563	25.261	935.613	756.884
210.577	25.279	934.848	756.275
211.592	25.587	934.979	757.613
212.607	25.688	933.847	757.055
213.621	25.717	932.824	756.281
214.636	25.578	932.500	755.365
215.650	25.755	931.342	755.103
216.665	25.666	931.196	754.546
217.680	25.603	930.323	753.507
218.694	25.170	928.997	750.555
219.709	25.146	928.538	750.019
220.723	25.387	928.311	750.775
221.738	25.443	927.933	750.636
222.753	25.491	926.989	750.006
223.767	25.563	926.654	749.972
224.782	25.827	925.891	750.386
225.796	25.817	925.854	750.250
226.811	25.086	924.194	745.796
227.826	24.420	923.118	742.092
228.840	24.691	922.248	742.454
229.855	24.775	921.516	742.150
230.869	24.318	920.681	739.513
231.884	24.703	920.821	741.157
232.899	25.557	920.777	744.593
233.913	25.329	920.087	743.027
234.928	25.425	919.060	742.532
235.942	25.352	918.952	742.074
236.957	24.935	918.174	739.659
237.972	25.004	917.513	739.347
238.986	25.059	916.963	739.063
240.001	25.054	916.331	738.468
241.015	25.120	915.992	738.400
242.030	25.397	915.564	739.131
243.045	25.512	914.208	738.442
244.059	25.566	914.483	738.821
245.074	25.405	913.668	737.440
246.088	25.153	912.397	735.314
247.103	25.298	912.536	735.953
248.117	25.937	912.240	738.267
249.132	26.117	912.078	738.809
250.147	26.244	911.449	738.754
251.161	26.334	910.957	738.658
252.176	26.308	910.294	737.950
253.190	26.467	909.815	738.144
254.205	26.465	909.225	737.591
255.220	26.460	908.600	736.998
256.234	26.526	907.588	736.380
257.249	26.344	907.228	735.283
258.263	26.321	906.294	734.367
259.278	26.449	905.851	734.466
260.293	26.394	905.183	733.633
261.307	26.461	904.266	733.097
262.322	26.246	903.361	731.429
263.336	25.532	902.082	727.441
264.351	24.533	900.148	721.781
265.366	24.473	899.497	720.953
266.380	25.642	900.476	726.398
267.395	26.070	900.040	727.707
268.409	25.827	899.572	726.285
269.424	26.170	898.463	726.708
270.439	26.234	897.775	726.342
271.453	26.262	897.729	726.354
272.468	26.328	897.522	726.389
273.482	26.422	896.807	726.121
274.497	25.989	895.742	723.460
275.512	25.605	894.684	721.000
276.526	26.030	894.678	722.637
277.541	26.211	894.595	723.231
278.555	26.002	893.440	721.395
279.570	25.970	892.843	720.723
280.585	26.255	891.908	721.040
281.599	25.985	890.986	719.157
282.614	25.411	890.250	716.210
283.628	25.281	889.703	715.190
284.643	25.863	889.368	717.174
285.657	25.584	887.846	714.773
286.672	25.186	887.229	712.632
287.687	25.659	887.326	714.527
288.701	25.764	886.840	714.490
289.716	25.565	885.615	712.649
290.730	25.333	885.429	711.518
291.745	25.145	884.343	709.838
292.760	25.518	884.026	710.997
293.774	26.336	884.653	714.673
294.789	26.775	884.406	716.147
295.803	26.722	883.947	715.503
296.818	26.724	883.001	714.682
297.833	26.216	882.258	712.016
298.847	26.218	881.268	711.159
299.862	26.476	881.251	712.098
300.876	26.730	880.956	712.798
301.891	26.661	880.053	711.731
302.906	26.269	879.103	709.363
303.920	26.341	878.974	709.478
304.935	26.778	878.535	710.774
305.949	26.725	877.537	709.696
306.964	26.415	876.800	707.826
307.979	26.459	876.278	707.514
308.993	26.774	876.626	708.965
310.008	26.768	875.986	708.359
311.022	26.493	875.032	706.454
312.037	26.455	873.932	705.352
313.052	26.084	873.121	703.192
314.066	25.306	871.900	699.118
315.081	24.981	870.859	696.955
316.095	25.793	871.319	700.421
317.110	26.389	871.273	702.638
318.125	25.481	869.632	697.729
319.139	24.392	868.206	692.300
320.154	24.482	867.620	692.122
321.168	25.332	868.108	695.746
322.183	26.083	868.647	699.026
323.197	26.200	868.044	698.932
324.212	26.384	867.738	699.337
325.227	26.334	867.058	698.533
326.241	26.294	866.357	697.752
327.256	26.201	865.864	696.932
328.270	26.123	865.143	695.989
329.285	25.937	864.312	694.544
330.300	25.711	863.352	692.842
331.314	25.966	863.450	693.839
332.329	26.276	863.509	695.020
333.343	26.644	862.763	695.772
334.358	26.556	862.232	694.942
335.373	26.612	861.967	694.884
336.387	26.742	862.491	695.743
337.402	26.956	861.917	696.041
338.416	26.984	861.510	695.757
339.431	27.088	861.062	695.732
340.446	27.143	861.045	695.865
341.460	26.971	860.394	694.620
342.475	26.830	859.854	693.585
343.489	27.017	859.249	693.749
344.504	27.212	859.367	694.530
345.519	27.424	858.838	694.848
346.533	27.494	858.321	694.637
347.548	27.508	857.619	694.059
348.562	27.253	857.324	692.786
349.577	27.363	856.578	692.543
350.592	27.281	855.756	691.506
351.606	27.224	855.095	690.694
352.621	27.265	854.137	690.016
353.635	27.146	853.303	688.828
354.650	26.519	851.590	685.010
355.665	25.491	850.347	680.063
356.679	25.879	850.471	681.573
357.694	26.429	849.707	682.975
358.708	26.319	848.984	681.918
359.723	26.579	849.342	683.129
360.738	27.104	848.680	684.515
361.752	26.884	848.640	683.592
362.767	27.391	848.049	684.965
363.781	27.655	847.989	685.846
364.796	27.715	847.328	685.477
365.810	27.822	846.906	685.475
366.825	27.774	846.458	684.873
367.840	27.415	845.720	682.871
368.854	26.966	844.907	680.470
369.869	27.005	844.665	680.359
370.883	27.081	844.008	680.056
371.898	26.954	843.604	679.197
372.913	27.121	843.255	679.479
373.927	27.338	842.119	679.315
374.942	27.355	842.305	679.466
375.956	27.377	842.275	679.466
376.971	27.499	841.950	679.597
377.986	27.728	841.379	679.931
379.000	27.665	840.802	679.170
380.015	27.530	839.712	677.726
381.029	27.573	839.354	677.536
382.044	27.743	838.978	677.807
383.059	27.785	838.423	677.455
384.073	27.792	837.661	676.804
385.088	27.840	837.081	676.452
386.102	27.689	835.685	674.707
387.117	27.362	835.849	673.570
388.132	27.113	834.515	671.513
389.146	26.523	833.906	668.786
390.161	27.003	833.449	670.133
391.175	27.453	833.634	671.883
392.190	27.209	832.248	669.806
393.205	25.864	830.059	663.039
394.219	24.173	828.123	655.223
395.234	24.128	828.215	655.071
396.248	25.541	830.016	661.642
397.263	27.171	830.546	668.000
398.278	27.269	829.950	667.822
399.292	26.931	829.526	666.181
400.307	26.965	828.979	665.807
401.321	27.115	828.790	666.149
402.336	27.253	828.964	666.736
403.350	27.823	828.688	668.541
404.365	28.121	828.362	669.309
405.380	28.355	828.152	669.937
406.394	28.379	827.418	669.373
407.409	28.421	826.845	669.000
408.423	28.358	826.332	668.298
409.438	28.407	826.300	668.394
410.453	28.484	825.717	668.140
411.467	28.330	825.455	667.308
412.482	28.191	824.862	666.265
413.496	28.419	824.438	666.693
414.511	28.332	824.086	666.032
415.526	28.429	823.357	665.739
416.540	28.226	822.747	664.447
417.555	28.152	822.029	663.541
418.569	28.095	821.813	663.101
419.584	28.016	821.311	662.350
420.599	27.901	820.436	661.170
421.613	94.658	1265.097	1374.927
422.628	81.568	1329.920	1375.056
