DTS Sentinel unit serial number:	SN413079Multiplexer serial number:	ORYXHardware model number:	OX4-SRSoftware version number:	ORYX F/W v4.00 Oryx Data Collector v3.7.2.0data status	okinstallation	princeton_trtdifferential loss correction	single-endedforward channel	channel 1reverse channel	N/Adate	2019/09/14time	00:54:35forward acquisition time	60.00reverse acquisition time	0.00gamma	496.2192k internal	0.2337k external	0.2337temperature offset calibration	1.0077default loss term (dB/km)	0.3790temperature slope calibration	1.0000multiplexer offset coefficient	1.0000multiplexer slope coefficient	1.0000fibre end	0.00T internal ref (°C)	26.39T ext. ref 1 (°C)	3.17T ext. ref 2 (°C)	21.23length (m)	temperature (°C)	Stokes	anti-Stokes-747.200	180.061	-0.115	0.170
-746.185	432.567	0.097	0.211
-745.171	-144.052	0.294	0.028
-744.156	96.587	0.070	-0.080
-743.142	429.475	0.119	0.259
-742.127	-81.763	0.224	-0.074
-741.112	64.304	0.188	-0.190
-740.098	58.150	-0.169	0.166
-739.083	741.253	0.093	0.250
-738.069	248.773	-0.047	-0.080
-737.054	800.000	-0.070	-0.206
-736.039	-94.089	-0.373	-0.103
-735.025	67.961	0.273	0.280
-734.010	-82.984	0.199	-0.064
-732.996	37.485	-0.064	0.057
-731.981	716.782	-0.053	-0.141
-730.966	5.140	-0.306	-0.226
-729.952	-200.000	-0.037	-0.535
-728.937	-200.000	-0.007	-0.178
-727.923	-46.095	0.137	-0.068
-726.908	-174.925	-0.404	-0.011
-725.894	339.195	-0.127	-0.248
-724.879	-42.600	-0.118	0.060
-723.864	42.861	-0.275	-0.252
-722.850	9.901	-0.157	-0.119
-721.835	79.144	0.102	0.110
-720.821	-26.660	-0.148	-0.087
-719.806	-200.000	0.016	0.107
-718.791	-200.000	-0.034	-0.220
-717.777	-82.629	0.235	0.076
-716.762	284.135	-0.075	-0.136
-715.748	182.728	0.027	-0.040
-714.733	175.388	0.068	0.098
-713.718	80.841	-0.185	0.200
-712.704	31.404	0.234	0.201
-711.689	225.029	0.094	0.152
-710.675	-169.184	0.030	-0.001
-709.660	-87.813	0.152	-0.046
-708.645	-171.539	-0.131	-0.004
-707.631	84.096	0.129	0.141
-706.616	5.145	0.378	0.279
-705.602	-99.830	-0.381	-0.096
-704.587	-44.384	0.129	0.065
-703.572	-145.276	-0.290	0.026
-702.558	-131.347	0.221	-0.029
-701.543	-200.000	0.040	-0.240
-700.529	-83.488	-0.225	-0.072
-699.514	800.000	-0.099	0.309
-698.499	-159.652	0.173	0.010
-697.485	39.370	-0.056	0.050
-696.470	190.254	0.162	-0.244
-695.456	-69.780	-0.270	0.103
-694.441	-200.000	-0.012	-0.144
-693.426	38.942	-0.182	-0.163
-692.412	-146.315	-0.070	-0.006
-691.397	-29.798	0.258	-0.147
-690.383	-167.825	0.205	-0.008
-689.368	159.127	-0.270	-0.376
-688.354	162.552	0.078	-0.110
-687.339	-200.000	-0.028	-0.358
-686.324	-134.005	-0.142	0.018
-685.310	-37.886	-0.614	0.327
-684.295	-200.000	0.006	0.181
-683.281	800.000	0.025	-0.090
-682.266	-118.498	-0.199	-0.035
-681.251	-176.509	-0.188	0.005
-680.237	510.031	-0.093	0.216
-679.222	-62.327	-0.327	0.136
-678.208	-200.000	-0.017	0.198
-677.193	-39.954	-0.322	-0.168
-676.178	-200.000	-0.009	0.066
-675.164	-107.489	0.403	-0.088
-674.149	17.702	0.066	0.053
-673.135	268.886	0.041	-0.072
-672.120	-200.000	0.011	-0.210
-671.105	85.114	-0.064	0.070
-670.091	87.451	-0.110	0.122
-669.076	-14.754	0.381	0.245
-668.062	94.593	-0.085	0.097
-667.047	-200.000	0.051	0.268
-666.032	-10.316	0.157	0.104
-665.018	288.388	0.099	-0.180
-664.003	-111.537	0.241	0.049
-662.989	-200.000	0.006	-0.317
-661.974	-35.402	0.090	-0.049
-660.959	-200.000	-0.035	-0.255
-659.945	-200.000	-0.081	0.368
-658.930	275.986	-0.065	-0.115
-657.916	-27.910	-0.346	-0.201
-656.901	-200.000	-0.013	-0.087
-655.886	-200.000	-0.038	0.295
-654.872	106.583	-0.186	-0.221
-653.857	-60.767	0.364	0.154
-652.843	-15.833	-0.146	-0.093
-651.828	-200.000	-0.040	0.277
-650.814	31.446	-0.292	-0.251
-649.799	800.000	0.099	0.376
-648.784	800.000	-0.121	0.446
-647.770	-200.000	-0.009	0.299
-646.755	-100.704	-0.225	0.055
-645.741	-102.190	-0.122	-0.029
-644.726	-46.257	-0.099	-0.049
-643.711	214.710	0.092	-0.145
-642.697	-79.849	-0.123	-0.041
-641.682	686.606	-0.038	-0.100
-640.668	345.799	-0.118	-0.232
-639.653	800.000	0.084	0.255
-638.638	-35.709	0.116	-0.063
-637.624	205.244	-0.105	0.163
-636.609	800.000	-0.091	0.275
-635.595	-181.734	-0.328	-0.006
-634.580	-58.194	-0.409	0.178
-633.565	-200.000	0.020	0.124
-632.551	800.000	-0.039	0.111
-631.536	-1.613	0.078	0.055
-630.522	-110.312	-0.225	-0.047
-629.507	-0.325	-0.091	-0.065
-628.492	358.551	0.018	-0.036
-627.478	-40.022	-0.286	0.149
-626.463	-200.000	-0.009	-0.063
-625.449	-8.944	0.188	0.126
-624.434	-4.563	0.038	-0.026
-623.419	-170.209	0.254	-0.009
-622.405	405.275	-0.107	0.225
-621.390	183.452	-0.048	-0.071
-620.376	13.043	-0.113	0.087
-619.361	157.373	-0.107	-0.148
-618.346	191.954	-0.213	-0.320
-617.332	24.210	0.103	-0.085
-616.317	731.179	-0.044	-0.118
-615.303	800.000	0.069	-0.287
-614.288	-80.654	-0.178	-0.059
-613.273	363.105	-0.107	-0.214
-612.259	-187.161	-0.058	-0.001
-611.244	800.000	0.030	-0.109
-610.230	153.218	-0.084	0.114
-609.215	-137.586	0.118	0.013
-608.201	-60.769	-0.172	-0.073
-607.186	800.000	-0.124	-0.359
-606.171	49.716	-0.015	0.014
-605.157	-200.000	-0.010	-0.207
-604.142	-85.634	0.129	-0.040
-603.128	-200.000	-0.084	0.390
-602.113	-200.000	0.016	0.207
-601.098	-200.000	-0.013	-0.402
-600.084	800.000	0.052	-0.176
-599.069	250.419	-0.055	0.093
-598.055	-200.000	0.012	-0.173
-597.040	-66.052	-0.171	-0.068
-596.025	-95.244	0.233	-0.063
-595.011	800.000	-0.092	-0.253
-593.996	80.161	0.290	0.311
-592.982	-200.000	0.011	-0.105
-591.967	-57.011	0.005	0.002
-590.952	23.718	0.200	0.164
-589.938	-200.000	-0.017	0.134
-588.923	-200.000	-0.010	-0.174
-587.909	-200.000	-0.001	0.034
-586.894	800.000	0.029	-0.096
-585.879	-41.713	0.134	0.069
-584.865	-200.000	0.009	0.120
-583.850	-149.890	-0.140	-0.011
-582.836	-43.600	-0.354	0.178
-581.821	-153.995	-0.159	0.011
-580.806	19.917	-0.210	-0.169
-579.792	559.057	-0.132	0.317
-578.777	268.392	0.095	0.166
-577.763	800.000	-0.048	-0.133
-576.748	-200.000	0.005	0.395
-575.733	-39.240	0.220	-0.115
-574.719	97.901	-0.269	-0.309
-573.704	237.336	0.053	0.088
-572.690	133.234	0.066	-0.085
-571.675	-176.742	0.150	0.004
-570.661	-160.631	-0.018	-0.001
-569.646	-200.000	-0.015	0.207
-568.631	697.485	-0.034	-0.089
-567.617	-193.735	-0.304	-0.003
-566.602	117.826	-0.127	-0.156
-565.588	-200.000	-0.006	0.422
-564.573	192.871	0.118	0.177
-563.558	-172.017	-0.167	-0.005
-562.544	-30.542	0.083	0.047
-561.529	-81.593	0.213	0.070
-560.515	-200.000	-0.010	-0.188
-559.500	272.168	0.041	-0.072
-558.485	202.271	-0.079	0.122
-557.471	-200.000	0.008	-0.092
-556.456	468.135	-0.147	-0.329
-555.442	800.000	0.020	0.064
-554.427	-160.803	0.235	-0.012
-553.412	-200.000	0.043	-0.212
-552.398	605.399	-0.086	-0.213
-551.383	800.000	0.063	0.264
-550.369	800.000	-0.040	0.157
-549.354	-200.000	-0.028	-0.265
-548.339	80.506	-0.058	0.062
-547.325	-156.556	-0.284	-0.018
-546.310	55.862	-0.051	-0.049
-545.296	412.720	-0.093	-0.197
-544.281	325.962	0.172	0.327
-543.266	167.433	0.211	0.299
-542.252	-124.522	0.248	0.038
-541.237	-130.406	0.054	-0.007
-540.223	-150.723	0.422	-0.032
-539.208	800.000	0.025	0.093
-538.193	-14.060	0.153	0.098
-537.179	256.322	-0.081	-0.138
-536.164	-48.074	-0.141	0.068
-535.150	-191.909	0.225	0.002
-534.135	110.653	-0.134	-0.160
-533.121	800.000	-0.027	0.118
-532.106	-200.000	-0.013	-0.217
-531.091	212.219	0.195	0.306
-530.077	-200.000	-0.046	-0.366
-529.062	-69.378	0.174	-0.066
-528.048	-83.072	-0.265	-0.085
-527.033	6.609	0.235	-0.174
-526.018	-200.000	0.007	-0.033
-525.004	433.796	-0.051	-0.110
-523.989	0.054	0.172	-0.122
-522.975	-164.502	-0.244	-0.011
-521.960	-200.000	-0.006	-0.124
-520.945	649.269	0.073	0.187
-519.931	443.220	-0.150	-0.327
-518.916	207.059	0.060	-0.093
-517.902	166.348	-0.130	-0.183
-516.887	-160.819	-0.265	0.014
-515.872	-200.000	0.041	-0.312
-514.858	-33.198	0.174	0.096
-513.843	-200.000	0.011	0.311
-512.829	-70.050	0.077	-0.029
-511.814	29.480	-0.125	-0.106
-510.799	-162.903	-0.057	0.003
-509.785	-21.634	0.203	0.123
-508.770	-38.195	-0.278	-0.146
-507.756	-200.000	0.003	0.024
-506.741	800.000	-0.048	-0.133
-505.726	-21.157	0.139	-0.085
-504.712	470.813	0.044	-0.099
-503.697	-11.148	-0.316	0.207
-502.683	-70.948	-0.271	0.101
-501.668	800.000	0.182	0.502
-500.653	205.845	0.091	0.140
-499.639	149.108	-0.089	-0.120
-498.624	-17.004	0.387	0.243
-497.610	51.478	-0.111	0.105
-496.595	800.000	-0.061	-0.182
-495.581	-200.000	-0.005	0.031
-494.566	800.000	0.049	-0.152
-493.551	-29.176	-0.195	-0.111
-492.537	800.000	-0.014	-0.061
-491.522	164.429	0.160	0.224
-490.508	800.000	0.037	0.122
-489.493	800.000	-0.103	-0.342
-488.478	-196.493	-0.095	-0.001
-487.464	-90.362	0.130	-0.037
-486.449	-200.000	-0.059	-0.257
-485.435	282.752	0.093	0.167
-484.420	76.267	0.177	0.187
-483.405	-37.393	0.129	0.069
-482.391	-200.000	0.008	0.196
-481.376	45.332	0.054	0.050
-480.362	-110.434	0.148	0.031
-479.347	52.019	-0.043	0.040
-478.332	59.801	-0.099	0.097
-477.318	-32.500	-0.190	0.105
-476.303	-200.000	0.049	0.268
-475.289	800.000	-0.101	-0.302
-474.274	126.973	0.232	-0.292
-473.259	-200.000	0.048	0.236
-472.245	-119.526	0.153	0.026
-471.230	166.137	0.120	0.169
-470.216	13.039	0.254	-0.195
-469.201	-64.797	0.134	-0.054
-468.186	-7.082	-0.333	0.224
-467.172	-97.283	-0.294	-0.076
-466.157	690.133	-0.184	0.478
-465.143	-72.993	-0.116	-0.042
-464.128	-94.041	0.552	-0.150
-463.113	306.195	-0.080	0.148
-462.099	94.829	0.085	0.096
-461.084	-133.816	-0.170	0.021
-460.070	81.155	-0.094	-0.101
-459.055	0.685	0.068	0.048
-458.040	547.875	0.118	0.279
-457.026	-200.000	-0.011	-0.201
-456.011	49.122	0.038	-0.035
-454.997	-200.000	0.005	-0.425
-453.982	-78.327	0.072	-0.025
-452.968	-200.000	-0.058	-0.295
-451.953	193.029	-0.071	-0.106
-450.938	-200.000	-0.045	-0.252
-449.924	423.608	-0.141	-0.301
-448.909	260.034	0.171	0.293
-447.895	-50.617	-0.105	-0.049
-446.880	4.011	-0.084	-0.061
-445.865	-7.015	0.135	-0.091
-444.851	-35.503	-0.326	0.176
-443.836	-125.326	0.187	-0.028
-442.822	-45.463	0.285	-0.140
-441.807	-195.814	-0.517	0.004
-440.792	-70.212	-0.054	0.020
-439.778	295.912	-0.019	0.035
-438.763	29.364	-0.245	-0.207
-437.749	-87.250	-0.155	0.047
-436.734	800.000	0.063	-0.257
-435.719	-129.827	0.127	0.017
-434.705	-200.000	-0.017	0.116
-433.690	36.739	-0.233	-0.204
-432.676	133.233	0.125	-0.161
-431.661	-172.924	-0.330	-0.010
-430.646	183.478	-0.090	0.133
-429.632	-52.224	0.114	-0.052
-428.617	-69.611	0.150	0.057
-427.603	-1.326	-0.127	-0.089
-426.588	-147.852	-0.335	-0.028
-425.573	-200.000	0.009	0.073
-424.559	-200.000	0.022	-0.125
-423.544	8.032	0.147	-0.110
-422.530	-31.517	-0.148	0.083
-421.515	-152.966	-0.069	0.005
-420.500	-141.078	0.326	0.033
-419.486	-200.000	-0.093	-0.520
-418.471	800.000	-0.041	-0.177
-417.457	54.686	0.175	-0.167
-416.442	67.503	-0.270	-0.273
-415.428	-200.000	-0.039	0.208
-414.413	748.818	-0.097	-0.258
-413.398	18.237	-0.345	-0.273
-412.384	-200.000	-0.025	0.214
-411.369	13.935	-0.295	-0.228
-410.355	22.151	0.049	-0.039
-409.340	193.775	-0.091	-0.137
-408.325	586.011	0.024	0.059
-407.311	800.000	-0.043	-0.152
-406.296	167.878	-0.079	-0.112
-405.282	75.522	0.111	0.116
-404.267	166.025	-0.164	-0.230
-403.252	-161.772	0.099	0.005
-402.238	155.801	0.201	0.275
-401.223	-89.701	-0.364	-0.106
-400.209	673.968	-0.123	-0.317
-399.194	47.350	0.065	-0.060
-398.179	-71.422	-0.112	0.042
-397.165	56.347	-0.175	-0.168
-396.150	-61.319	0.194	-0.081
-395.136	75.246	-0.088	0.092
-394.121	304.553	-0.163	0.299
-393.106	800.000	0.013	-0.045
-392.092	36.417	0.107	0.094
-391.077	-200.000	-0.001	-0.086
-390.063	144.988	-0.073	-0.097
-389.048	143.852	0.095	0.126
-388.033	120.881	0.209	0.258
-387.019	-39.717	0.440	-0.228
-386.004	-80.976	0.405	0.133
-384.990	-66.477	-0.140	-0.055
-383.975	800.000	0.051	-0.205
-382.960	39.526	0.239	0.212
-381.946	-50.969	-0.110	-0.051
-380.931	800.000	0.144	0.464
-379.917	61.070	0.282	0.277
-378.902	488.760	-0.029	0.066
-377.888	-182.012	-0.131	0.002
-376.873	71.463	-0.251	0.258
-375.858	7.433	-0.205	0.152
-374.844	-22.339	0.204	-0.122
-373.829	396.548	-0.163	0.336
-372.815	-38.885	-0.199	-0.104
-371.800	-124.446	0.237	-0.036
-370.785	706.001	-0.023	0.060
-369.771	-29.384	0.082	-0.046
-368.756	800.000	-0.080	0.225
-367.742	-27.577	0.371	-0.213
-366.727	-189.291	-0.238	0.003
-365.712	262.427	-0.078	-0.133
-364.698	-200.000	-0.001	0.240
-363.683	-200.000	0.025	0.123
-362.669	-172.332	0.312	-0.010
-361.654	-24.841	-0.232	-0.136
-360.639	-158.056	0.463	-0.027
-359.625	548.243	-0.080	-0.190
-358.610	-48.829	-0.193	-0.092
-357.596	-90.639	-0.284	0.081
-356.581	-200.000	-0.034	-0.325
-355.566	371.840	-0.138	0.276
-354.552	-156.532	0.141	-0.009
-353.537	-84.674	-0.099	-0.031
-352.523	-78.497	0.189	-0.064
-351.508	-91.792	0.196	0.055
-350.493	100.975	-0.217	-0.250
-349.479	1.036	0.259	0.184
-348.464	-200.000	0.008	0.104
-347.450	376.103	-0.129	-0.260
-346.435	-200.000	0.003	0.058
-345.420	-200.000	0.000	0.149
-344.406	413.377	0.102	0.215
-343.391	251.271	-0.158	-0.265
-342.377	-112.120	-0.137	0.027
-341.362	-188.909	0.253	-0.003
-340.348	-94.878	-0.255	0.068
-339.333	-200.000	0.013	-0.277
-338.318	800.000	0.038	0.154
-337.304	-98.895	0.219	-0.055
-336.289	135.198	0.138	0.178
-335.275	-200.000	0.017	-0.204
-334.260	-132.144	-0.350	-0.045
-333.245	66.016	0.251	-0.252
-332.231	-47.528	-0.273	-0.131
-331.216	-200.000	0.011	0.297
-330.202	-60.226	0.159	-0.067
-329.187	-58.127	-0.372	0.160
-328.172	-151.052	0.257	0.019
-327.158	83.004	-0.043	0.046
-326.143	248.044	-0.168	-0.280
-325.129	37.417	-0.129	0.113
-324.114	-44.218	0.170	0.084
-323.099	67.930	-0.201	-0.203
-322.085	-102.984	0.111	-0.026
-321.070	-200.000	0.003	-0.058
-320.056	-200.000	-0.010	-0.337
-319.041	-49.769	0.135	-0.063
-318.026	-170.753	0.259	-0.009
-317.012	-76.412	-0.104	-0.036
-315.997	-154.065	-0.210	0.014
-314.983	2.178	0.162	0.116
-313.968	336.740	0.114	-0.218
-312.953	-17.726	-0.261	0.162
-311.939	-60.996	0.250	-0.104
-310.924	-95.556	-0.172	0.046
-309.910	36.909	0.098	-0.086
-308.895	-167.042	0.146	0.006
-307.880	800.000	-0.070	0.233
-306.866	-200.000	-0.001	-0.115
-305.851	-200.000	-0.042	-0.268
-304.837	-200.000	0.004	-0.195
-303.822	-200.000	-0.013	0.172
-302.807	-7.159	-0.109	0.073
-301.793	180.985	-0.137	-0.199
-300.778	-200.000	0.026	-0.402
-299.764	-115.141	0.322	-0.060
-298.749	-147.202	-0.300	0.025
-297.735	-153.991	0.519	0.035
-296.720	117.328	0.056	0.068
-295.705	-83.669	-0.404	-0.127
-294.691	800.000	0.009	-0.032
-293.676	-112.675	0.179	-0.035
-292.662	800.000	0.019	0.081
-291.647	60.269	0.041	0.040
-290.632	800.000	0.017	0.063
-289.618	-134.855	0.352	-0.042
-288.603	800.000	0.050	0.208
-287.589	-91.198	0.206	-0.058
-286.574	-148.971	0.442	0.035
-285.559	-200.000	-0.012	0.329
-284.545	668.308	0.073	-0.186
-283.530	-200.000	-0.058	0.416
-282.516	-200.000	-0.016	0.186
-281.501	-21.860	0.170	-0.102
-280.486	663.676	0.070	0.177
-279.472	163.205	0.229	-0.317
-278.457	310.689	-0.058	0.108
-277.443	-97.235	0.311	0.080
-276.428	-29.547	0.320	-0.180
-275.413	-108.383	0.121	0.026
-274.399	382.622	-0.100	0.202
-273.384	177.817	-0.121	-0.174
-272.370	180.282	-0.094	-0.136
-271.355	-90.502	-0.182	0.052
-270.340	-28.492	-0.251	0.143
-269.326	18.226	0.026	0.021
-268.311	107.889	0.061	0.072
-267.297	116.100	0.133	0.161
-266.282	254.115	-0.045	-0.076
-265.267	-136.625	0.096	-0.011
-264.253	-175.380	-0.350	0.009
-263.238	180.985	0.117	0.169
-262.224	800.000	0.052	-0.142
-261.209	69.741	0.087	-0.088
-260.195	800.000	-0.103	0.294
-259.180	416.063	0.163	-0.343
-258.165	800.000	-0.082	-0.245
-257.151	-200.000	-0.017	0.085
-256.136	-200.000	-0.040	0.427
-255.122	25.278	-0.225	0.184
-254.107	170.069	-0.194	0.273
-253.092	800.000	0.044	0.160
-252.078	800.000	0.016	0.058
-251.063	411.607	-0.132	-0.276
-250.049	108.822	0.132	-0.156
-249.034	118.937	-0.175	0.213
-248.019	120.471	0.261	0.319
-247.005	-200.000	-0.091	-0.470
-245.990	310.508	-0.138	0.254
-244.976	145.313	-0.064	0.084
-243.961	-90.969	0.404	-0.114
-242.946	-200.000	-0.056	-0.248
-241.932	800.000	-0.040	0.125
-240.917	403.709	-0.047	0.097
-239.903	-52.498	0.170	-0.077
-238.888	-200.000	0.003	0.223
-237.873	333.719	0.007	0.013
-236.859	-126.687	-0.119	-0.017
-235.844	-55.293	-0.115	0.051
-234.830	-117.648	-0.024	-0.004
-233.815	37.978	-0.098	0.086
-232.800	-129.611	0.547	0.074
-231.786	-178.306	0.113	0.003
-230.771	800.000	0.103	-0.314
-229.757	-15.352	0.218	0.137
-228.742	-200.000	0.006	-0.069
-227.727	-84.076	-0.210	-0.066
-226.713	353.570	0.110	0.215
-225.698	133.541	0.081	0.103
-224.684	-9.776	-0.384	0.252
-223.669	24.928	-0.187	-0.153
-222.655	-200.000	0.004	-0.062
-221.640	-200.000	-0.063	0.395
-220.625	240.655	0.100	0.163
-219.611	-97.268	0.271	0.069
-218.596	-25.888	-0.134	-0.078
-217.582	-97.174	0.126	0.032
-216.567	800.000	-0.123	-0.375
-215.552	-200.000	0.008	-0.342
-214.538	-90.966	-0.251	0.071
-213.523	800.000	0.042	-0.149
-212.509	19.831	0.173	-0.137
-211.494	-61.678	0.223	0.092
-210.479	-200.000	0.061	0.278
-209.465	-37.268	0.187	0.098
-208.450	50.876	0.159	0.148
-207.436	530.438	0.129	0.299
-206.421	800.000	-0.087	-0.268
-205.406	-200.000	0.046	0.401
-204.392	54.072	0.113	0.107
-203.377	-157.122	0.230	0.014
-202.363	-91.601	0.234	0.065
-201.348	-127.770	0.281	-0.040
-200.333	-34.500	-0.201	0.108
-199.319	-63.109	-0.339	0.137
-198.304	-200.000	0.006	-0.046
-197.290	71.655	0.147	0.150
-196.275	-45.765	0.241	0.117
-195.260	800.000	0.052	-0.144
-194.246	-93.392	-0.262	0.071
-193.231	-44.007	-0.143	-0.070
-192.217	-56.338	-0.117	-0.051
-191.202	157.591	0.076	0.103
-190.187	317.007	0.161	-0.299
-189.173	92.924	-0.070	-0.077
-188.158	-118.281	0.243	0.042
-187.144	55.119	0.121	-0.115
-186.129	-22.559	-0.205	0.122
-185.114	-153.894	0.264	-0.018
-184.100	-129.796	0.074	-0.010
-183.085	800.000	-0.071	-0.279
-182.071	-200.000	-0.045	0.462
-181.056	171.380	-0.051	0.072
-180.042	-176.750	-0.111	0.003
-179.027	-153.478	-0.224	-0.015
-178.012	-200.000	-0.025	0.223
-176.998	800.000	0.097	0.286
-175.983	-200.000	-0.008	0.175
-174.969	203.699	0.204	0.311
-173.954	360.814	-0.180	-0.355
-172.939	460.312	-0.085	0.186
-171.925	-200.000	-0.005	0.240
-170.910	-79.566	0.306	0.101
-169.896	800.000	-0.052	-0.224
-168.881	-82.537	0.159	0.051
-167.866	-152.127	0.249	-0.018
-166.852	-37.039	-0.479	-0.252
-165.837	107.790	0.155	-0.181
-164.823	57.978	0.149	0.143
-163.808	-31.791	0.170	-0.094
-162.793	-114.835	0.152	-0.028
-161.779	13.614	-0.268	-0.204
-160.764	244.177	-0.047	0.078
-159.750	-122.959	0.488	0.077
-158.735	-100.259	-0.084	-0.021
-157.720	-17.621	-0.082	-0.051
-156.706	-115.014	0.110	0.020
-155.691	-81.799	-0.645	0.207
-154.677	800.000	0.108	-0.306
-153.662	-200.000	-0.012	0.273
-152.647	50.386	0.125	0.116
-151.633	800.000	-0.093	-0.360
-150.618	-200.000	0.023	0.103
-149.604	-200.000	0.052	-0.299
-148.589	107.989	-0.132	0.154
-147.574	9.495	-0.291	0.216
-146.560	-187.391	0.232	0.003
-145.545	-197.015	-0.265	-0.002
-144.531	115.985	-0.184	0.220
-143.516	32.565	0.091	0.077
-142.502	633.842	0.153	0.381
-141.487	109.796	-0.021	-0.025
-140.472	-97.045	-0.301	-0.077
-139.458	26.245	-0.144	-0.118
-138.443	-99.765	0.266	-0.065
-137.429	-200.000	-0.023	0.121
-136.414	152.583	-0.148	0.198
-135.399	-105.734	0.247	0.055
-134.385	-200.000	0.009	-0.203
-133.370	77.499	-0.068	-0.071
-132.356	113.447	0.258	-0.307
-131.341	-57.631	0.041	0.018
-130.326	155.951	0.092	-0.124
-129.312	-85.577	0.279	0.085
-128.297	56.174	0.124	0.118
-127.283	157.815	0.054	-0.073
-126.268	-47.074	-0.197	-0.094
-125.253	262.120	-0.251	-0.426
-124.239	288.971	-0.224	-0.397
-123.224	75.340	0.281	0.290
-122.210	-74.540	-0.153	-0.054
-121.195	-106.047	0.315	0.069
-120.180	-103.759	-0.312	0.072
-119.166	102.797	0.118	-0.136
-118.151	-38.772	-0.107	-0.055
-117.137	-200.000	0.000	-0.080
-116.122	-63.219	0.340	-0.137
-115.107	-137.768	0.203	-0.022
-114.093	-200.000	0.003	-0.090
-113.078	29.687	-0.020	0.017
-112.064	83.663	-0.106	0.113
-111.049	-190.591	-0.165	0.002
-110.034	-48.121	0.359	0.170
-109.020	800.000	-0.024	-0.070
-108.005	-200.000	0.014	0.062
-106.991	-27.889	0.150	0.085
-105.976	131.687	-0.111	-0.140
-104.962	-200.000	0.031	-0.273
-103.947	-99.934	0.112	0.027
-102.932	-96.847	0.320	-0.082
-101.918	90.024	0.082	0.089
-100.903	17.427	0.252	0.196
-99.889	-200.000	-0.070	-0.305
-98.874	800.000	0.035	0.113
-97.859	-200.000	-0.004	0.163
-96.845	119.555	-0.176	-0.213
-95.830	124.665	0.241	0.297
-94.816	-200.000	-0.066	0.321
-93.801	412.443	0.138	-0.287
-92.786	800.000	0.006	-0.017
-91.772	2.777	0.080	0.057
-90.757	13.012	-0.194	-0.147
-89.743	-29.067	0.103	-0.058
-88.728	-158.627	-0.102	0.006
-87.713	-3.343	0.084	0.057
-86.699	144.219	0.180	0.235
-85.684	-13.389	0.338	-0.215
-84.670	-200.000	0.021	-0.096
-83.655	-141.318	-0.385	-0.038
-82.640	-200.000	-0.035	0.184
-81.626	-15.899	0.327	-0.204
-80.611	380.555	-0.012	0.024
-79.597	-200.000	0.025	-0.239
-78.582	800.000	-0.030	0.102
-77.567	-200.000	0.043	0.305
-76.553	-138.583	0.187	-0.020
-75.538	296.023	-0.023	-0.040
-74.524	-192.654	-0.094	0.001
-73.509	800.000	-0.032	0.129
-72.494	265.603	0.166	0.283
-71.480	109.346	-0.164	-0.192
-70.465	35.349	0.142	-0.122
-69.451	-200.000	0.017	-0.332
-68.436	11.135	-0.097	0.073
-67.422	-85.014	0.384	-0.118
-66.407	-200.000	-0.028	0.167
-65.392	2.057	-0.110	-0.078
-64.378	-135.413	0.322	-0.038
-63.363	26.572	0.297	-0.243
-62.349	-71.212	-0.243	-0.089
-61.334	53.861	-1.000	-0.939
-60.319	2.883	0.849	0.602
-59.305	800.000	-0.324	-0.949
-58.290	316.880	0.624	1.152
-57.276	800.000	0.420	1.673
-56.261	-200.000	115.809	641.733
-55.246	496.268	1540.286	3459.990
-54.232	175.883	2709.577	3841.625
-53.217	104.811	2150.275	2476.528
-52.203	37.970	1584.853	1376.648
-51.188	29.809	1327.637	1104.681
-50.173	26.868	1289.173	1055.550
-49.159	52.117	1347.987	1254.864
-48.144	50.708	1361.261	1258.785
-47.130	29.827	1315.487	1094.508
-46.115	26.609	1296.717	1060.042
-45.100	26.366	1292.001	1054.730
-44.086	26.330	1289.349	1052.310
-43.071	26.126	1287.275	1049.394
-42.057	26.205	1285.094	1048.033
-41.042	26.202	1283.527	1046.694
-40.027	26.218	1281.962	1045.469
-39.013	26.423	1279.477	1044.585
-37.998	26.199	1278.353	1042.335
-36.984	26.382	1276.279	1041.656
-35.969	26.353	1274.435	1039.940
-34.954	26.248	1273.068	1038.180
-33.940	26.417	1271.672	1037.974
-32.925	26.325	1270.666	1036.583
-31.911	26.558	1268.505	1036.114
-30.896	26.479	1267.365	1034.687
-29.881	26.518	1265.876	1033.657
-28.867	26.553	1264.878	1033.001
-27.852	26.462	1263.184	1031.056
-26.838	26.461	1262.067	1030.099
-25.823	26.447	1260.591	1028.771
-24.809	26.556	1258.914	1027.979
-23.794	26.472	1257.962	1026.686
-22.779	26.502	1256.654	1025.746
-21.765	26.462	1255.649	1024.661
-20.750	26.480	1254.307	1023.624
-19.736	26.361	1252.734	1021.629
-18.721	26.284	1251.899	1020.477
-17.706	26.419	1250.594	1020.131
-16.692	26.298	1249.460	1018.483
-15.677	26.397	1248.090	1017.882
-14.663	26.303	1247.410	1016.759
-13.648	26.317	1245.977	1015.631
-12.633	26.285	1245.369	1014.913
-11.619	26.315	1244.480	1014.319
-10.604	26.343	1243.418	1013.572
-9.590	26.352	1242.368	1012.721
-8.575	26.424	1241.103	1012.057
-7.560	26.351	1240.618	1011.213
-6.546	26.318	1239.965	1010.452
-5.531	26.449	1238.572	1010.009
-4.517	26.367	1238.033	1009.074
-3.502	26.445	1236.996	1008.625
-2.487	26.366	1236.072	1007.390
-1.473	26.366	1232.170	1004.167
-0.458	24.866	1217.384	983.841
0.556	21.737	1201.088	947.843
1.571	18.194	1207.168	933.260
2.586	17.354	1221.900	939.924
3.600	16.892	1210.260	928.362
4.615	12.823	1139.338	852.863
5.629	6.068	1069.220	767.406
6.644	3.284	1051.108	740.958
7.659	3.052	1049.411	738.579
8.673	3.164	1048.377	738.326
9.688	3.170	1046.865	737.226
10.702	3.297	1044.622	736.188
11.717	7.116	1049.944	758.192
12.731	14.425	1060.150	800.727
13.746	19.016	1065.494	826.812
14.761	19.613	1066.200	830.157
15.775	18.998	1064.212	825.585
16.790	17.767	1062.317	818.138
17.804	17.121	1061.203	814.113
18.819	16.956	1059.465	811.916
19.834	16.800	1059.415	811.059
20.848	16.664	1058.004	809.258
21.863	16.461	1057.267	807.650
22.877	16.326	1056.886	806.644
23.892	16.151	1056.074	805.121
24.907	16.098	1055.377	804.262
25.921	16.269	1053.672	803.705
26.936	16.266	1052.917	803.046
27.950	16.290	1051.621	802.102
28.965	16.401	1049.908	801.248
29.980	16.426	1048.943	800.561
30.994	16.667	1047.463	800.500
32.009	16.642	1046.571	799.629
33.023	16.585	1045.319	798.334
34.038	16.491	1044.304	797.046
35.053	16.306	1043.583	795.552
36.067	16.405	1042.440	795.078
37.082	16.362	1042.246	794.655
38.096	16.502	1041.326	794.543
39.111	16.621	1040.327	794.268
40.126	16.305	1039.263	791.905
41.140	16.072	1037.949	789.741
42.155	15.975	1036.964	788.469
43.169	15.973	1035.854	787.544
44.184	16.063	1034.423	786.807
45.199	16.093	1033.558	786.221
46.213	16.104	1032.710	785.555
47.228	16.359	1031.366	785.649
48.242	16.290	1030.622	784.692
49.257	16.250	1029.615	783.671
50.271	16.387	1028.873	783.671
51.286	16.310	1028.022	782.598
52.301	16.376	1027.468	782.412
53.315	16.335	1026.018	781.051
54.330	16.090	1025.432	779.402
55.344	16.243	1024.148	779.061
56.359	16.193	1023.278	778.103
57.374	16.191	1022.212	777.215
58.388	16.010	1021.637	775.873
59.403	16.045	1020.615	775.189
60.417	16.013	1019.967	774.485
61.432	16.090	1018.511	773.661
62.447	15.803	1018.647	772.379
63.461	15.765	1017.806	771.501
64.476	15.969	1016.452	771.341
65.490	15.996	1015.691	770.816
66.505	15.897	1015.125	769.866
67.520	15.947	1014.289	769.392
68.534	15.868	1013.983	768.730
69.549	15.949	1013.021	768.306
70.563	15.889	1012.176	767.321
71.578	15.790	1011.067	765.962
72.593	15.712	1010.609	765.191
73.607	15.738	1010.060	764.829
74.622	15.808	1009.183	764.415
75.636	15.734	1008.933	763.818
76.651	15.836	1008.054	763.550
77.666	15.909	1007.109	763.098
78.680	15.966	1006.552	762.867
79.695	15.887	1005.825	761.892
80.709	15.888	1006.038	761.988
81.724	15.864	1005.567	761.458
82.739	16.159	1004.178	761.668
83.753	16.288	1003.416	761.604
84.768	16.499	1002.732	761.968
85.782	16.566	1001.887	761.563
86.797	16.547	1000.920	760.674
87.812	16.372	1000.004	759.126
88.826	16.385	999.105	758.433
89.841	16.500	997.939	757.995
90.855	16.563	996.789	757.339
91.870	16.577	996.497	757.112
92.884	16.495	995.665	756.048
93.899	16.460	995.195	755.466
94.914	16.638	993.709	755.065
95.928	16.597	993.327	754.527
96.943	16.486	991.997	752.954
97.957	16.546	991.412	752.711
98.972	16.509	990.390	751.702
99.987	16.496	989.512	750.913
101.001	16.561	988.239	750.168
102.016	16.431	988.250	749.534
103.030	16.563	987.223	749.274
104.045	16.438	986.389	748.019
105.060	16.380	985.714	747.186
106.074	16.240	984.222	745.372
107.089	16.054	983.245	743.747
108.103	16.034	982.355	742.917
109.118	16.041	981.352	742.127
110.133	15.901	980.403	740.724
111.147	15.998	979.828	740.651
112.162	16.037	979.217	740.294
113.176	16.165	978.463	740.220
114.191	16.178	977.370	739.386
115.206	16.255	976.860	739.274
116.220	16.055	976.287	737.898
117.235	16.134	974.797	737.051
118.249	16.159	973.677	736.250
119.264	16.061	973.274	735.453
120.279	16.092	972.250	734.749
121.293	15.888	971.470	733.204
122.308	15.796	971.103	732.465
123.322	15.935	969.381	731.703
124.337	15.926	968.482	730.919
125.352	15.968	967.311	730.157
126.366	15.833	966.714	729.053
127.381	16.026	965.376	728.818
128.395	15.852	964.953	727.681
129.410	16.034	963.775	727.512
130.424	15.965	963.004	726.567
131.439	16.067	962.518	726.577
132.454	16.225	961.800	726.652
133.468	16.253	960.981	726.088
134.483	16.286	959.964	725.400
135.497	16.129	959.463	724.279
136.512	16.236	958.440	723.906
137.527	16.177	957.558	722.920
138.541	16.273	956.651	722.583
139.556	16.182	956.489	722.007
140.570	16.405	955.862	722.425
141.585	16.451	954.718	721.690
142.600	16.545	953.908	721.418
143.614	16.679	952.964	721.208
144.629	16.616	952.644	720.634
145.643	16.566	951.740	719.676
146.658	16.425	950.373	717.979
147.673	16.392	949.318	716.979
148.687	16.289	948.427	715.804
149.702	16.305	947.839	715.366
150.716	16.189	947.224	714.347
151.731	16.307	946.316	714.099
152.746	16.294	946.012	713.751
153.760	16.495	944.761	713.593
154.775	16.477	944.571	713.308
155.789	16.417	944.050	712.601
156.804	16.523	943.003	712.192
157.819	16.547	942.343	711.734
158.833	16.679	941.430	711.536
159.848	16.660	940.967	711.042
160.862	16.654	940.141	710.331
161.877	16.437	939.055	708.536
162.892	16.333	937.925	707.185
163.906	16.307	937.015	706.330
164.921	16.370	936.172	705.895
165.935	16.437	935.404	705.531
166.950	16.377	934.711	704.695
167.964	16.443	933.914	704.310
168.979	16.407	932.807	703.263
169.994	16.560	931.633	702.950
171.008	16.489	931.561	702.537
172.023	16.643	930.928	702.640
173.037	16.705	930.253	702.326
174.052	16.746	928.962	701.458
175.067	16.404	928.631	699.728
176.081	16.345	928.471	699.304
177.096	16.180	927.834	698.079
178.110	16.351	927.110	698.177
179.125	16.431	926.033	697.638
180.140	16.476	925.685	697.497
181.154	16.488	925.825	697.589
182.169	16.678	925.392	697.987
183.183	16.675	924.740	697.419
184.198	16.768	923.527	696.826
185.213	16.632	922.973	695.788
186.227	16.693	922.367	695.520
187.242	16.906	921.832	695.927
188.256	16.998	921.042	695.649
189.271	16.996	920.341	695.048
190.286	16.672	919.635	693.130
191.300	16.286	918.941	690.966
192.315	16.275	918.147	690.263
193.329	16.381	917.537	690.173
194.344	16.402	917.383	690.083
195.359	16.421	917.152	689.926
196.373	16.620	916.031	689.833
197.388	16.832	915.249	690.045
198.402	17.004	914.997	690.496
199.417	17.116	914.311	690.372
200.432	17.317	913.526	690.534
201.446	17.104	913.842	689.848
202.461	17.125	913.335	689.488
203.475	17.236	912.510	689.255
204.490	17.097	911.356	687.761
205.504	16.964	910.752	686.705
206.519	16.903	909.826	685.701
207.534	16.968	909.136	685.380
208.548	16.799	908.863	684.431
209.563	16.867	908.401	684.296
210.577	16.881	907.921	683.934
211.592	17.056	907.323	684.128
212.607	17.333	905.903	684.109
213.621	17.121	905.603	682.969
214.636	17.026	905.085	682.138
215.650	17.152	903.753	681.578
216.665	17.267	903.420	681.727
217.680	17.337	902.659	681.373
218.694	17.232	902.315	680.635
219.709	17.191	901.640	679.900
220.723	17.111	901.117	679.126
221.738	17.236	900.043	678.757
222.753	17.293	899.280	678.350
223.767	17.414	898.633	678.283
224.782	17.294	898.833	677.895
225.796	17.381	897.947	677.511
226.811	17.378	897.109	676.809
227.826	17.298	896.352	675.861
228.840	17.163	896.138	675.101
229.855	17.211	895.129	674.473
230.869	17.351	893.847	674.001
231.884	17.240	893.542	673.275
232.899	17.120	892.664	672.078
233.913	17.087	891.789	671.230
234.928	16.989	891.652	670.680
235.942	17.035	891.237	670.489
236.957	17.121	890.538	670.242
237.972	17.137	889.907	669.771
238.986	17.029	889.355	668.869
240.001	17.110	888.627	668.583
241.015	17.274	887.744	668.505
242.030	17.265	887.769	668.429
243.045	17.282	886.838	667.735
244.059	17.285	885.950	667.019
245.074	17.308	885.947	667.048
246.088	17.481	885.069	667.006
247.103	17.518	884.896	666.964
248.117	17.551	884.527	666.753
249.132	17.909	883.803	667.551
250.147	17.955	883.258	667.260
251.161	17.853	882.588	666.297
252.176	17.952	882.044	666.212
253.190	18.145	881.234	666.292
254.205	18.008	881.011	665.531
255.220	17.964	880.281	664.749
256.234	18.033	879.806	664.600
257.249	18.091	878.545	663.817
258.263	17.991	878.047	662.993
259.278	18.087	877.425	662.835
260.293	18.094	876.780	662.317
261.307	18.247	876.146	662.371
262.322	18.129	876.109	661.828
263.336	18.026	875.086	660.598
264.351	18.288	873.969	660.709
265.366	18.280	873.611	660.351
266.380	18.321	872.816	659.847
267.395	18.051	872.466	658.486
268.409	18.166	871.758	658.334
269.424	18.101	870.496	657.074
270.439	18.036	870.234	656.566
271.453	18.034	869.520	655.964
272.468	18.030	868.815	655.357
273.482	18.013	868.523	655.014
274.497	17.966	868.058	654.424
275.512	18.024	867.401	654.094
276.526	18.005	867.163	653.785
277.541	18.117	866.685	653.796
278.555	18.240	866.045	653.723
279.570	18.350	865.294	653.520
280.585	18.294	864.910	652.959
281.599	18.221	863.802	651.786
282.614	18.295	863.070	651.459
283.628	18.245	862.314	650.638
284.643	18.154	862.066	650.048
285.657	18.148	861.290	649.383
286.672	18.191	860.854	649.159
287.687	18.206	859.944	648.472
288.701	18.176	859.583	648.031
289.716	18.134	859.056	647.417
290.730	18.183	858.290	646.968
291.745	18.344	857.472	646.900
292.760	18.455	856.764	646.730
293.774	18.564	856.403	646.812
294.789	18.517	855.800	646.123
295.803	18.417	854.997	645.079
296.818	18.345	854.485	644.367
297.833	18.360	853.593	643.694
298.847	18.336	853.281	643.309
299.862	18.326	852.779	642.839
300.876	18.404	852.188	642.629
301.891	18.675	851.355	642.959
302.906	18.658	851.222	642.738
303.920	18.774	850.694	642.716
304.935	18.687	850.492	642.180
305.949	18.831	849.457	641.879
306.964	18.699	848.616	640.696
307.979	18.566	848.690	640.197
308.993	18.663	847.701	639.759
310.008	18.834	846.870	639.709
311.022	18.675	846.812	639.020
312.037	18.680	845.985	638.357
313.052	18.547	845.152	637.176
314.066	18.356	844.809	636.151
315.081	18.433	844.221	635.939
316.095	18.567	843.366	635.734
317.110	18.396	843.065	634.821
318.125	18.384	842.730	634.465
319.139	18.425	841.830	633.884
320.154	18.458	841.559	633.747
321.168	18.652	840.686	633.749
322.183	18.726	840.131	633.546
323.197	18.581	839.940	632.811
324.212	18.583	839.543	632.465
325.227	18.654	838.781	632.095
326.241	18.500	838.559	631.307
327.256	18.502	837.669	630.589
328.270	18.637	837.114	630.609
329.285	18.541	836.516	629.751
330.300	18.496	836.059	629.187
331.314	18.746	835.084	629.312
332.329	18.663	835.371	629.168
333.343	18.867	834.769	629.407
334.358	18.773	834.269	628.631
335.373	18.806	833.777	628.324
336.387	18.819	833.596	628.180
337.402	18.921	833.132	628.150
338.416	18.921	833.207	628.147
339.431	19.101	832.832	628.467
340.446	19.120	832.537	628.258
341.460	19.068	832.105	627.689
342.475	19.248	831.614	627.918
343.489	19.337	830.580	627.407
344.504	19.241	830.480	626.924
345.519	19.208	830.291	626.606
346.533	19.061	830.106	625.877
347.548	19.066	828.745	624.814
348.562	19.034	827.985	624.069
349.577	19.071	827.426	623.726
350.592	18.853	827.226	622.730
351.606	18.946	826.315	622.327
352.621	19.086	825.343	622.045
353.635	19.080	825.109	621.792
354.650	18.928	824.676	620.863
355.665	19.139	823.845	620.945
356.679	19.214	823.114	620.607
357.694	19.131	822.547	619.826
358.708	19.161	822.005	619.473
359.723	19.162	821.625	619.134
360.738	19.082	820.770	618.148
361.752	19.193	820.517	618.299
362.767	19.466	819.833	618.709
363.781	19.489	819.668	618.611
364.796	19.540	818.958	618.205
365.810	19.615	818.516	618.086
366.825	19.654	818.550	618.196
367.840	19.547	818.107	617.423
368.854	19.567	817.100	616.679
369.869	19.516	816.681	616.125
370.883	19.478	816.450	615.763
371.898	19.495	816.302	615.657
372.913	19.671	815.853	615.890
373.927	19.607	814.816	614.828
374.942	19.717	814.515	614.938
375.956	19.765	814.163	614.785
376.971	19.961	813.499	614.928
377.986	19.795	813.572	614.338
379.000	19.867	812.822	613.973
380.015	19.755	812.638	613.383
381.029	19.908	811.574	613.067
382.044	19.941	810.999	612.696
383.059	19.769	810.695	611.804
384.073	19.743	809.836	611.010
385.088	19.706	808.873	610.096
386.102	19.659	808.403	609.524
387.117	19.574	808.090	608.933
388.132	19.616	807.431	608.532
389.146	19.778	806.877	608.628
390.161	19.858	806.505	608.577
391.175	19.847	806.155	608.218
392.190	19.796	805.847	607.754
393.205	19.629	805.307	606.706
394.219	19.642	804.934	606.417
395.234	19.535	804.559	605.708
396.248	19.610	803.848	605.380
397.263	19.499	803.214	604.461
398.278	19.448	803.033	604.092
399.292	19.559	802.451	603.988
400.307	19.519	802.265	603.656
401.321	19.672	801.812	603.795
402.336	19.624	801.175	603.096
403.350	19.648	800.913	602.928
404.365	19.865	800.449	603.284
405.380	20.009	800.229	603.565
406.394	19.926	799.843	602.932
407.409	19.961	799.157	602.485
408.423	20.169	798.945	602.994
409.438	20.190	798.552	602.716
410.453	20.273	798.250	602.724
411.467	20.352	797.595	602.451
412.482	20.229	797.456	601.865
413.496	20.292	797.249	601.874
414.511	20.329	796.827	601.631
415.526	20.370	796.138	601.197
416.540	20.189	795.690	600.181
417.555	20.258	795.206	600.000
418.569	20.220	794.733	599.460
419.584	20.364	794.453	599.695
420.599	20.260	794.093	599.009
421.613	162.217	1372.764	1797.250
422.628	140.625	1457.059	1797.302
