DTS Sentinel unit serial number:	SN413079Multiplexer serial number:	ORYXHardware model number:	OX4-SRSoftware version number:	ORYX F/W v4.00 Oryx Data Collector v3.7.2.0data status	okinstallation	princeton_trtdifferential loss correction	single-endedforward channel	channel 1reverse channel	N/Adate	2019/09/16time	01:58:35forward acquisition time	60.00reverse acquisition time	0.00gamma	496.2192k internal	0.2332k external	0.2332temperature offset calibration	0.9976default loss term (dB/km)	0.3790temperature slope calibration	1.0000multiplexer offset coefficient	1.0000multiplexer slope coefficient	1.0000fibre end	0.00T internal ref (°C)	27.44T ext. ref 1 (°C)	10.08T ext. ref 2 (°C)	22.40length (m)	temperature (°C)	Stokes	anti-Stokes-747.200	152.450	0.201	0.277
-746.185	49.717	-0.098	0.093
-745.171	-82.243	0.145	-0.047
-744.156	-83.137	-0.285	-0.092
-743.142	-18.903	0.153	0.096
-742.127	-70.307	0.304	0.116
-741.112	-0.366	-0.267	-0.191
-740.098	53.879	-0.138	-0.133
-739.083	800.000	-0.103	-0.357
-738.069	-64.513	-0.498	0.203
-737.054	-64.013	0.354	-0.145
-736.039	518.289	-0.116	-0.274
-735.025	466.904	-0.136	0.306
-734.010	800.000	-0.043	0.186
-732.996	-76.265	-0.365	-0.129
-731.981	-200.000	0.012	0.098
-730.966	-45.025	0.444	0.222
-729.952	-108.337	0.101	-0.022
-728.937	-200.000	0.006	0.044
-727.923	-69.470	0.150	-0.058
-726.908	146.476	0.179	0.242
-725.894	454.200	-0.059	0.130
-724.879	-72.864	-0.401	-0.148
-723.864	164.950	0.085	0.120
-722.850	-107.388	-0.151	-0.033
-721.835	-200.000	-0.008	-0.172
-720.821	425.981	-0.037	-0.080
-719.806	-177.128	-0.178	-0.004
-718.791	185.184	0.200	-0.298
-717.777	800.000	-0.019	-0.069
-716.762	5.854	-0.059	0.044
-715.748	-108.792	0.079	-0.017
-714.733	800.000	-0.032	0.124
-713.718	800.000	-0.071	0.243
-712.704	-150.287	-0.211	0.016
-711.689	140.954	-0.238	-0.317
-710.675	-124.873	0.209	0.032
-709.660	109.971	-0.142	-0.172
-708.645	800.000	0.159	-0.472
-707.631	104.790	0.064	0.076
-706.616	-164.270	-0.391	-0.018
-705.602	-62.734	-0.345	-0.144
-704.587	-200.000	0.032	0.184
-703.572	-200.000	0.030	0.213
-702.558	-30.679	0.142	0.081
-701.543	652.227	0.102	0.263
-700.529	48.704	-0.278	-0.262
-699.514	-200.000	0.008	-0.120
-698.499	441.857	0.129	0.284
-697.485	800.000	0.004	-0.015
-696.470	-200.000	0.015	0.189
-695.456	297.934	-0.092	-0.169
-694.441	-98.236	-0.176	0.045
-693.426	-200.000	-0.032	0.148
-692.412	22.253	-0.116	-0.095
-691.397	35.800	0.244	0.215
-690.383	123.701	0.154	-0.194
-689.368	-31.595	0.159	-0.090
-688.354	800.000	-0.108	-0.344
-687.339	-200.000	-0.026	0.160
-686.324	187.621	0.091	0.136
-685.310	245.914	-0.087	0.147
-684.295	800.000	0.031	-0.110
-683.281	-200.000	-0.033	-0.247
-682.266	-86.235	-0.145	-0.045
-681.251	-200.000	0.021	-0.102
-680.237	-152.999	-0.381	-0.027
-679.222	-200.000	-0.004	-0.111
-678.208	737.490	0.007	-0.020
-677.193	-95.050	0.273	-0.074
-676.178	800.000	0.161	0.535
-675.164	-110.328	-0.384	-0.080
-674.149	-200.000	-0.004	-0.213
-673.135	-117.196	0.085	-0.015
-672.120	800.000	0.113	-0.372
-671.105	1.839	0.133	-0.096
-670.091	-200.000	-0.032	0.402
-669.076	-93.786	0.296	-0.082
-668.062	-40.339	-0.108	0.056
-667.047	487.147	0.092	-0.210
-666.032	14.842	-0.112	-0.088
-665.018	-36.525	-0.237	0.128
-664.003	-114.521	-0.155	0.030
-662.989	-200.000	-0.009	-0.156
-661.974	800.000	-0.055	-0.196
-660.959	-200.000	0.004	0.113
-659.945	-200.000	-0.005	0.179
-658.930	-93.435	0.240	0.067
-657.916	-158.164	-0.360	0.021
-656.901	-39.414	-0.465	-0.244
-655.886	-80.629	0.048	-0.016
-654.872	-154.134	-0.022	-0.002
-653.857	-74.650	-0.147	-0.053
-652.843	800.000	0.049	-0.164
-651.828	800.000	-0.021	0.067
-650.814	-35.607	-0.130	0.071
-649.799	250.132	-0.140	0.238
-648.784	-200.000	-0.045	-0.430
-647.770	52.457	0.287	0.275
-646.755	-52.737	0.132	0.061
-645.741	-161.030	0.118	-0.006
-644.726	-16.322	-0.153	0.097
-643.711	16.076	-0.158	0.125
-642.697	139.306	-0.120	0.158
-641.682	23.089	0.218	0.179
-640.668	-2.615	0.076	0.053
-639.653	37.985	0.306	0.273
-638.638	740.592	-0.063	0.169
-637.624	224.516	0.084	0.135
-636.609	5.964	0.148	-0.110
-635.595	35.301	-0.050	-0.044
-634.580	-125.651	-0.333	0.051
-633.565	-121.717	-0.325	0.054
-632.551	85.415	-0.117	-0.129
-631.536	684.467	-0.112	0.293
-630.522	-200.000	0.002	0.364
-629.507	-70.925	-0.156	-0.059
-628.492	45.196	0.142	-0.131
-627.478	-128.658	0.133	0.019
-626.463	-10.398	0.328	0.218
-625.449	-97.449	-0.214	0.056
-624.434	-69.658	-0.322	-0.123
-623.419	9.128	0.073	0.055
-622.405	-200.000	0.011	-0.270
-621.390	-25.416	0.029	0.017
-620.376	86.479	-0.112	0.124
-619.361	800.000	0.030	-0.103
-618.346	-169.879	-0.120	-0.004
-617.332	-23.072	0.187	0.113
-616.317	43.776	-0.224	-0.205
-615.303	220.447	0.195	0.313
-614.288	800.000	0.008	-0.026
-613.273	510.021	0.089	-0.207
-612.259	800.000	-0.018	0.074
-611.244	8.656	0.329	0.248
-610.230	-200.000	0.092	-0.000
-609.215	0.753	-0.303	0.217
-608.201	800.000	0.036	-0.102
-607.186	480.039	-0.013	-0.031
-606.171	-19.300	0.156	-0.097
-605.157	800.000	-0.059	-0.162
-604.142	-129.160	0.166	0.023
-603.128	800.000	0.093	-0.301
-602.113	-152.279	0.107	0.008
-601.098	-200.000	0.084	-0.393
-600.084	-96.904	-0.293	0.077
-599.069	-33.416	-0.381	-0.211
-598.055	482.245	-0.067	0.152
-597.040	-60.841	0.199	0.084
-596.025	31.125	-0.169	-0.145
-595.011	-134.115	-0.152	0.019
-593.996	-98.222	0.258	0.066
-592.982	519.350	-0.008	-0.018
-591.967	-80.071	0.095	0.032
-590.952	-200.000	0.071	-0.486
-589.938	-200.000	0.010	0.291
-588.923	153.182	-0.196	0.269
-587.909	-200.000	0.027	0.190
-586.894	-178.754	0.198	0.005
-585.879	-65.727	-0.172	0.069
-584.865	206.548	-0.090	-0.141
-583.850	68.934	-0.108	0.111
-582.836	468.226	0.053	-0.119
-581.821	667.143	-0.148	-0.381
-580.806	99.146	0.092	-0.106
-579.792	59.289	-0.087	-0.086
-578.777	-200.000	0.067	-0.302
-577.763	-140.278	-0.256	-0.027
-576.748	185.908	0.192	-0.286
-575.733	797.843	0.039	-0.109
-574.719	92.876	-0.231	-0.260
-573.704	-143.967	0.139	0.013
-572.690	551.932	-0.141	0.339
-571.675	-23.169	-0.232	0.140
-570.661	7.787	-0.309	-0.231
-569.646	-120.005	-0.312	0.053
-568.631	-104.300	0.004	-0.001
-567.617	23.166	0.208	-0.170
-566.602	-78.430	-0.286	-0.098
-565.588	-113.242	-0.649	0.128
-564.573	270.709	0.044	0.077
-563.558	-200.000	-0.029	0.265
-562.544	-200.000	0.066	-0.308
-561.529	800.000	-0.084	0.339
-560.515	-120.482	-0.049	0.008
-559.500	51.108	-0.121	-0.115
-558.485	321.741	-0.193	0.367
-557.471	119.623	-0.280	0.347
-556.456	-44.560	0.427	0.213
-555.442	484.222	-0.125	-0.283
-554.427	48.380	0.346	-0.324
-553.412	800.000	0.055	-0.191
-552.398	22.187	0.223	0.182
-551.383	-27.193	-0.338	-0.196
-550.369	111.860	-0.236	0.285
-549.354	351.323	0.108	-0.213
-548.339	371.372	-0.142	-0.287
-547.325	182.561	0.270	-0.398
-546.310	-115.958	0.222	-0.041
-545.296	-21.281	0.253	0.155
-544.281	-39.749	-0.186	-0.097
-543.266	94.186	0.225	0.255
-542.252	81.030	-0.177	-0.190
-541.237	-139.985	0.220	-0.023
-540.223	248.065	-0.095	0.160
-539.208	-167.832	0.261	-0.010
-538.193	38.273	-0.144	0.128
-537.179	292.278	-0.157	0.286
-536.164	-153.640	-0.150	-0.010
-535.150	-200.000	-0.009	0.086
-534.135	458.676	-0.115	0.256
-533.121	-130.881	-0.191	-0.026
-532.106	0.503	-0.137	-0.098
-531.091	-60.757	0.186	0.079
-530.077	-68.611	-0.372	0.144
-529.062	318.008	-0.071	-0.134
-528.048	-37.539	0.171	-0.091
-527.033	-164.561	0.190	0.009
-526.018	-197.260	-0.178	-0.001
-525.004	-86.262	-0.138	-0.042
-523.989	-27.605	-0.130	-0.075
-522.975	-128.941	0.182	0.026
-521.960	98.209	0.138	0.158
-520.945	-49.314	0.267	0.127
-519.931	-200.000	0.021	-0.449
-518.916	665.515	-0.140	-0.361
-517.902	-200.000	-0.088	0.490
-516.887	271.787	-0.087	-0.153
-515.872	800.000	-0.034	0.106
-514.858	30.940	-0.249	0.213
-513.843	56.764	-0.123	0.119
-512.829	85.753	-0.191	0.209
-511.814	-200.000	0.025	0.121
-510.799	-33.894	0.371	-0.204
-509.785	259.491	-0.088	0.151
-508.770	10.170	-0.093	-0.071
-507.756	-40.226	-0.354	-0.183
-506.741	60.268	0.294	0.290
-505.726	-11.080	0.102	-0.067
-504.712	800.000	-0.023	-0.069
-503.697	572.515	0.048	-0.118
-502.683	48.429	-0.068	0.063
-501.668	-200.000	0.029	-0.197
-500.653	174.667	0.116	0.168
-499.639	-34.749	-0.106	-0.058
-498.624	474.552	0.063	-0.141
-497.610	-39.704	-0.097	-0.051
-496.595	81.872	0.230	0.248
-495.581	-52.193	-0.291	0.134
-494.566	83.281	-0.040	0.043
-493.551	-2.301	0.110	0.077
-492.537	-200.000	0.031	0.240
-491.522	287.888	0.097	-0.175
-490.508	-8.635	0.103	0.069
-489.493	800.000	0.106	-0.415
-488.478	-200.000	-0.044	0.332
-487.464	24.783	0.198	0.163
-486.449	120.779	-0.072	-0.089
-485.435	259.481	-0.054	0.093
-484.420	-93.032	0.230	-0.064
-483.405	-56.239	-0.181	-0.080
-482.391	800.000	0.078	-0.307
-481.376	45.995	0.104	0.096
-480.362	-86.470	0.332	-0.102
-479.347	223.631	-0.077	0.123
-478.332	-64.201	-0.152	0.062
-477.318	-95.264	0.173	-0.046
-476.303	-200.000	-0.064	-0.312
-475.289	-16.720	0.173	0.109
-474.274	80.093	-0.239	0.256
-473.259	-125.491	0.165	-0.025
-472.245	105.700	-0.039	0.046
-471.230	2.937	0.289	0.209
-470.216	-142.822	-0.500	0.048
-469.201	-200.000	0.015	0.098
-468.186	4.555	-0.240	-0.175
-467.172	-200.000	-0.010	0.069
-466.157	86.839	-0.150	-0.165
-465.143	-200.000	0.002	-0.130
-464.128	222.986	0.097	-0.155
-463.113	-200.000	0.027	-0.338
-462.099	273.434	0.036	-0.064
-461.084	-51.515	0.340	-0.158
-460.070	-200.000	-0.003	0.024
-459.055	-2.394	-0.131	-0.092
-458.040	278.367	0.260	0.460
-457.026	-153.687	0.055	0.004
-456.011	-147.988	0.178	-0.015
-454.997	-200.000	0.037	-0.178
-453.982	363.589	-0.120	0.240
-452.968	90.296	-0.034	-0.038
-451.953	157.434	-0.052	-0.072
-450.938	148.561	-0.185	0.248
-449.924	-144.469	-0.067	0.006
-448.909	163.301	0.211	0.295
-447.895	-89.543	-0.470	-0.137
-446.880	18.394	0.092	-0.073
-445.865	383.414	-0.101	0.206
-444.851	-57.262	0.220	-0.096
-443.836	30.244	0.111	-0.094
-442.822	-200.000	0.009	0.041
-441.807	519.978	-0.112	0.261
-440.792	-31.031	0.342	0.192
-439.778	749.820	-0.114	0.306
-438.763	-200.000	0.024	0.161
-437.749	60.252	0.176	0.173
-436.734	-30.638	-0.430	-0.242
-435.719	-60.982	0.243	0.102
-434.705	85.723	-0.073	0.080
-433.690	-200.000	0.008	-0.043
-432.676	450.549	-0.045	0.098
-431.661	-181.349	-0.143	0.003
-430.646	246.406	0.107	-0.179
-429.632	32.693	-0.146	0.126
-428.617	-18.146	-0.229	-0.142
-427.603	122.593	0.228	0.284
-426.588	-129.084	0.084	-0.012
-425.573	242.240	-0.032	-0.054
-424.559	174.923	-0.122	-0.176
-423.544	-68.781	0.244	-0.094
-422.530	-43.719	0.191	0.095
-421.515	-58.976	0.162	0.070
-420.500	-96.677	0.232	0.061
-419.486	225.180	-0.055	-0.088
-418.471	336.839	-0.048	0.092
-417.457	105.474	-0.036	-0.042
-416.442	-107.209	0.267	0.058
-415.428	800.000	0.073	0.254
-414.413	-100.551	0.207	-0.051
-413.398	511.732	-0.072	-0.166
-412.384	466.038	0.099	0.221
-411.369	99.864	-0.206	0.237
-410.355	42.095	-0.312	0.281
-409.340	800.000	0.055	0.183
-408.325	103.035	-0.170	-0.198
-407.311	326.839	-0.043	-0.082
-406.296	-115.607	-0.036	0.007
-405.282	800.000	-0.043	0.183
-404.267	494.569	-0.117	0.266
-403.252	327.572	0.081	-0.154
-402.238	-44.099	-0.172	0.086
-401.223	-200.000	-0.023	0.330
-400.209	-14.800	-0.290	0.185
-399.194	-113.934	0.061	-0.012
-398.179	-200.000	0.000	-0.231
-397.165	185.745	0.038	-0.056
-396.150	-200.000	0.023	0.172
-395.136	-5.581	0.092	-0.063
-394.121	273.096	-0.191	-0.335
-393.106	473.631	-0.104	0.232
-392.092	800.000	-0.028	-0.078
-391.077	-3.031	0.262	-0.182
-390.063	214.612	0.106	0.167
-389.048	-200.000	-0.016	0.182
-388.033	290.328	0.229	-0.412
-387.019	421.758	0.053	0.112
-386.004	-169.202	-0.334	-0.012
-384.990	-200.000	0.003	-0.095
-383.975	-60.228	-0.143	0.060
-382.960	7.571	-0.271	-0.201
-381.946	55.604	-0.121	-0.116
-380.931	51.984	-0.119	0.112
-379.917	-78.781	0.168	0.057
-378.902	-92.950	-0.177	-0.049
-377.888	-84.347	0.326	0.102
-376.873	32.359	0.127	-0.108
-375.858	162.596	-0.046	-0.063
-374.844	-200.000	0.002	-0.286
-373.829	-131.084	0.299	0.040
-372.815	-200.000	0.035	-0.182
-371.800	417.390	0.149	0.315
-370.785	87.281	0.115	-0.126
-369.771	-123.090	0.183	0.029
-368.756	214.298	-0.190	0.299
-367.742	-200.000	0.022	-0.305
-366.727	-200.000	0.004	0.294
-365.712	24.009	0.190	-0.156
-364.698	-200.000	-0.008	0.191
-363.683	-200.000	-0.012	0.104
-362.669	-200.000	-0.012	0.137
-361.654	-0.898	0.116	0.082
-360.639	3.165	-0.146	-0.105
-359.625	341.385	-0.247	-0.478
-358.610	412.981	0.110	-0.231
-357.596	118.551	-0.131	-0.160
-356.581	631.276	-0.144	-0.361
-355.566	452.758	-0.112	-0.245
-354.552	-66.966	-0.099	0.039
-353.537	-200.000	-0.026	0.198
-352.523	-81.899	0.207	-0.067
-351.508	12.826	0.070	-0.053
-350.493	334.792	0.186	-0.356
-349.479	521.864	0.145	-0.337
-348.464	-134.558	0.346	0.042
-347.450	598.433	0.085	0.208
-346.435	72.614	0.041	0.042
-345.420	-109.591	0.143	0.030
-344.406	-89.853	-0.301	0.087
-343.391	-129.012	0.453	-0.063
-342.377	-200.000	0.013	-0.183
-341.362	-200.000	0.000	-0.193
-340.348	176.654	-0.071	0.103
-339.333	116.252	-0.091	0.111
-338.318	565.992	0.034	-0.080
-337.304	800.000	-0.012	-0.050
-336.289	60.355	0.116	0.114
-335.275	-96.044	-0.151	0.040
-334.260	-151.006	0.067	0.005
-333.245	151.836	-0.070	0.094
-332.231	-3.040	-0.088	0.061
-331.216	-109.288	-0.211	0.044
-330.202	800.000	0.021	0.082
-329.187	-135.959	0.081	0.009
-328.172	-57.675	0.264	-0.114
-327.158	-200.000	0.020	-0.160
-326.143	-200.000	-0.038	-0.230
-325.129	584.724	-0.046	-0.111
-324.114	141.738	-0.214	-0.280
-323.099	59.903	0.235	0.230
-322.085	136.223	0.132	0.170
-321.070	-29.613	-0.257	-0.145
-320.056	146.943	-0.083	-0.110
-319.041	-39.207	0.148	0.077
-318.026	-134.314	-0.190	0.023
-317.012	-200.000	-0.006	0.084
-315.997	272.409	-0.062	0.109
-314.983	-200.000	-0.002	-0.027
-313.968	116.501	-0.052	0.063
-312.953	-200.000	-0.023	-0.202
-311.939	800.000	-0.068	0.196
-310.924	687.558	0.039	-0.101
-309.910	800.000	-0.051	-0.180
-308.895	800.000	-0.162	-0.693
-307.880	317.908	0.065	0.122
-306.866	800.000	0.035	-0.150
-305.851	180.922	-0.108	0.158
-304.837	8.576	0.245	-0.182
-303.822	-52.409	0.186	-0.085
-302.807	-52.628	-0.110	-0.050
-301.793	-118.665	-0.129	-0.022
-300.778	800.000	-0.054	0.206
-299.764	-145.220	-0.028	0.003
-298.749	-181.986	-0.178	0.003
-297.735	800.000	-0.037	0.114
-296.720	-200.000	0.034	0.154
-295.705	800.000	-0.133	-0.382
-294.691	470.287	0.085	0.190
-293.676	62.613	0.242	-0.239
-292.662	-200.000	-0.038	-0.185
-291.647	16.065	0.171	-0.133
-290.632	86.382	0.227	-0.247
-289.618	-200.000	0.016	0.187
-288.603	-200.000	0.547	-0.002
-287.589	463.590	0.075	-0.165
-286.574	700.876	-0.068	0.177
-285.559	-38.589	-0.169	-0.088
-284.545	345.859	0.029	-0.056
-283.530	179.671	-0.106	-0.153
-282.516	-91.471	-0.103	-0.029
-281.501	49.098	0.235	-0.218
-280.486	-200.000	-0.010	0.220
-279.472	165.041	-0.159	0.222
-278.457	-200.000	0.016	0.200
-277.443	-200.000	-0.013	0.098
-276.428	-87.849	-0.251	0.075
-275.413	330.260	-0.033	0.062
-274.399	212.867	-0.158	-0.246
-273.384	560.806	0.063	-0.151
-272.370	65.324	-0.138	-0.138
-271.355	-80.667	0.292	-0.096
-270.340	45.293	-0.363	0.331
-269.326	-200.000	-0.002	-0.144
-268.311	-56.177	0.203	-0.089
-267.297	800.000	0.035	-0.133
-266.282	118.428	0.249	-0.303
-265.267	143.951	-0.211	-0.277
-264.253	-3.675	0.204	-0.140
-263.238	35.586	0.070	-0.061
-262.224	-104.536	-0.150	0.034
-261.209	800.000	0.072	0.265
-260.195	221.150	0.140	0.222
-259.180	-200.000	-0.055	0.382
-258.165	-39.745	0.138	-0.071
-257.151	-17.896	-0.062	-0.039
-256.136	-141.520	0.315	0.031
-255.122	-7.489	0.078	-0.052
-254.107	-200.000	-0.008	0.088
-253.092	22.341	0.306	0.247
-252.078	-100.443	-0.471	-0.115
-251.063	241.649	0.119	-0.196
-250.049	-128.935	-0.125	-0.017
-249.034	-200.000	0.000	0.092
-248.019	-200.000	-0.044	0.262
-247.005	-200.000	0.017	0.121
-245.990	-81.068	-0.197	0.064
-244.976	-200.000	0.006	0.208
-243.961	49.779	0.330	0.307
-242.946	-30.441	-0.203	0.113
-241.932	194.620	-0.150	-0.224
-240.917	416.902	-0.157	0.330
-239.903	-97.745	0.070	-0.018
-238.888	-59.175	0.148	-0.063
-237.873	-87.555	-0.395	0.118
-236.859	-119.659	0.173	0.030
-235.844	-154.823	-0.199	0.013
-234.830	-112.711	0.206	0.040
-233.815	511.884	0.125	0.287
-232.800	-37.261	-0.191	-0.101
-231.786	-200.000	0.045	0.312
-230.771	800.000	0.080	-0.342
-229.757	800.000	0.142	0.406
-228.742	-200.000	0.033	-0.146
-227.727	17.362	0.124	-0.097
-226.713	-200.000	-0.035	0.154
-225.698	-55.869	0.135	-0.060
-224.684	324.787	-0.099	0.187
-223.669	-23.077	0.324	0.192
-222.655	-200.000	-0.014	0.176
-221.640	93.552	-0.233	-0.260
-220.625	394.177	0.041	-0.084
-219.611	-65.419	-0.203	0.080
-218.596	625.236	0.130	-0.324
-217.582	-113.356	0.083	0.016
-216.567	13.051	0.175	0.133
-215.552	7.570	-0.108	-0.080
-214.538	-37.600	0.168	0.088
-213.523	-200.000	0.076	-0.381
-212.509	-102.216	0.178	-0.042
-211.494	-200.000	-0.035	0.372
-210.479	-42.713	0.326	0.163
-209.465	242.031	-0.104	-0.172
-208.450	-95.585	-0.262	-0.069
-207.436	-23.891	-0.093	0.055
-206.421	18.174	-0.151	0.118
-205.406	36.042	-0.232	-0.202
-204.392	-39.529	0.051	0.026
-203.377	-87.124	-0.238	-0.071
-202.363	96.519	0.052	-0.058
-201.348	234.140	0.122	-0.199
-200.333	-24.624	0.124	0.073
-199.319	-121.027	0.107	0.018
-198.304	199.082	0.235	0.355
-197.290	-200.000	-0.015	0.117
-196.275	448.168	0.046	-0.099
-195.260	-55.288	-0.090	0.040
-194.246	-200.000	0.043	-0.222
-193.231	-91.231	0.198	-0.056
-192.217	-200.000	0.036	-0.202
-191.202	-86.737	0.262	0.079
-190.187	800.000	0.016	0.066
-189.173	3.501	0.179	0.128
-188.158	-92.885	-0.191	-0.052
-187.144	8.993	0.213	0.158
-186.129	800.000	0.040	-0.172
-185.114	-101.216	0.060	-0.014
-184.100	342.557	0.150	0.289
-183.085	-66.342	0.296	0.116
-182.071	-200.000	0.030	-0.283
-181.056	234.341	-0.239	0.388
-180.042	-111.933	-0.268	0.053
-179.027	-57.397	-0.127	-0.055
-178.012	289.281	-0.081	0.144
-176.998	-176.923	-0.213	-0.005
-175.983	-148.378	0.127	-0.010
-174.969	98.611	-0.207	0.235
-173.954	58.875	0.085	0.082
-172.939	-31.272	-0.091	0.050
-171.925	281.047	0.192	-0.338
-170.910	458.092	0.105	0.229
-169.896	800.000	0.024	0.084
-168.881	-59.990	0.183	0.077
-167.866	-200.000	-0.022	-0.322
-166.852	263.560	-0.222	-0.380
-165.837	149.413	-0.081	-0.107
-164.823	-28.886	-0.219	0.124
-163.808	-111.705	-0.238	-0.047
-162.793	-39.642	-0.151	-0.077
-161.779	800.000	0.104	-0.419
-160.764	39.976	-0.125	-0.110
-159.750	-200.000	0.005	-0.125
-158.735	800.000	0.078	-0.225
-157.720	85.660	-0.044	-0.048
-156.706	-57.375	0.177	0.077
-155.691	444.203	0.024	-0.052
-154.677	117.934	0.133	-0.161
-153.662	-200.000	-0.037	-0.223
-152.647	207.008	-0.138	0.211
-151.633	429.923	0.103	-0.219
-150.618	-91.108	-0.192	0.054
-149.604	-200.000	-0.002	0.143
-148.589	-111.431	-0.434	-0.087
-147.574	-200.000	0.009	0.053
-146.560	-126.897	0.132	-0.019
-145.545	-95.057	0.048	-0.013
-144.531	-40.142	-0.039	0.020
-143.516	-46.229	0.067	0.032
-142.502	352.708	-0.066	0.128
-141.487	-200.000	-0.006	0.119
-140.472	55.151	0.129	-0.123
-139.458	792.158	0.037	-0.101
-138.443	-129.887	0.230	-0.031
-137.429	-105.134	-0.259	0.058
-136.414	800.000	-0.054	0.175
-135.399	-200.000	0.032	0.193
-134.385	497.632	-0.144	0.326
-133.370	-200.000	0.021	0.241
-132.356	-90.201	-0.115	-0.033
-131.341	-200.000	0.007	0.068
-130.326	-200.000	-0.004	-0.107
-129.312	-45.832	-0.153	-0.074
-128.297	-200.000	0.089	0.411
-127.283	-200.000	-0.047	-0.456
-126.268	-12.805	-0.079	0.050
-125.253	-200.000	0.035	-0.260
-124.239	-97.824	0.155	-0.039
-123.224	-100.034	-0.112	-0.027
-122.210	-200.000	-0.013	-0.122
-121.195	-71.598	-0.199	0.073
-120.180	-32.202	-0.042	-0.023
-119.166	-61.683	0.315	-0.129
-118.151	8.641	-0.011	0.008
-117.137	-176.563	0.301	-0.008
-116.122	155.869	-0.085	-0.114
-115.107	-158.258	0.164	-0.009
-114.093	-155.243	-0.152	-0.010
-113.078	109.261	0.088	0.104
-112.064	-194.323	0.251	0.002
-111.049	-136.411	-0.180	-0.021
-110.034	-5.926	-0.053	0.035
-109.020	-200.000	-0.013	0.199
-108.005	-51.735	0.187	0.085
-106.991	-60.999	-0.012	0.005
-105.976	381.676	0.026	0.053
-104.962	196.148	0.150	0.224
-103.947	-107.760	0.365	-0.078
-102.932	256.088	-0.177	0.299
-101.918	233.979	-0.197	0.318
-100.903	339.175	0.083	-0.158
-99.889	-200.000	0.012	-0.416
-98.874	-141.726	-0.176	0.017
-97.859	48.155	-0.210	0.193
-96.845	198.359	0.136	0.204
-95.830	800.000	-0.083	-0.337
-94.816	-200.000	-0.021	0.229
-93.801	207.326	0.112	-0.171
-92.786	-109.392	-0.240	0.050
-91.772	-27.961	0.197	-0.112
-90.757	161.641	-0.163	0.224
-89.743	800.000	0.090	-0.297
-88.728	305.509	-0.185	0.336
-87.713	381.339	0.066	0.132
-86.699	-113.749	-0.101	-0.019
-85.684	-22.627	0.150	0.089
-84.670	-200.000	-0.032	0.252
-83.655	63.425	-0.188	-0.185
-82.640	-103.141	0.186	0.043
-81.626	800.000	0.048	-0.185
-80.611	169.785	0.135	0.189
-79.597	-96.972	0.088	0.023
-78.582	800.000	-0.068	-0.217
-77.567	-92.889	0.058	0.016
-76.553	-31.214	0.062	-0.034
-75.538	106.798	-0.150	0.174
-74.524	800.000	0.141	-0.402
-73.509	-72.706	0.293	0.106
-72.494	-200.000	-0.091	0.436
-71.480	-58.714	0.314	0.133
-70.465	-125.756	-0.296	-0.044
-69.451	-200.000	-0.025	-0.195
-68.436	617.472	0.124	-0.305
-67.422	192.718	0.113	-0.167
-66.407	554.297	-0.061	0.145
-65.392	11.189	0.064	-0.048
-64.378	497.836	-0.096	-0.217
-63.363	-200.000	0.009	0.071
-62.349	-27.972	0.083	0.047
-61.334	3.182	-1.217	-0.867
-60.319	194.402	0.620	0.921
-59.305	800.000	-0.399	-1.135
-58.290	314.659	0.760	1.402
-57.276	426.609	0.705	1.490
-56.261	-200.000	113.123	641.518
-55.246	472.938	1501.724	3313.330
-54.232	148.557	2664.183	3524.010
-53.217	103.593	2147.222	2467.983
-52.203	38.731	1597.008	1395.698
-51.188	30.642	1344.266	1126.041
-50.173	27.744	1306.468	1077.254
-49.159	55.428	1361.721	1290.134
-48.144	54.340	1376.263	1297.330
-47.130	31.119	1332.195	1118.612
-46.115	27.500	1314.753	1082.463
-45.100	27.366	1310.340	1077.993
-44.086	27.368	1307.277	1075.442
-43.071	27.269	1305.232	1073.131
-42.057	27.293	1302.862	1071.281
-41.042	27.273	1301.477	1069.986
-40.027	27.250	1300.130	1068.697
-39.013	27.364	1297.426	1067.101
-37.998	27.353	1295.780	1065.643
-36.984	27.394	1294.203	1064.541
-35.969	27.402	1292.514	1063.157
-34.954	27.378	1290.889	1061.640
-33.940	27.470	1289.449	1060.951
-32.925	27.391	1287.908	1059.176
-31.911	27.468	1286.698	1058.591
-30.896	27.436	1285.417	1057.305
-29.881	27.430	1283.885	1055.971
-28.867	27.490	1282.909	1055.472
-27.852	27.529	1281.086	1054.159
-26.838	27.522	1279.890	1053.093
-25.823	27.548	1278.180	1051.790
-24.809	27.644	1276.743	1051.122
-23.794	27.528	1275.353	1049.266
-22.779	27.398	1274.664	1047.913
-21.765	27.470	1273.283	1047.146
-20.750	27.503	1272.043	1046.277
-19.736	27.476	1270.720	1044.994
-18.721	27.416	1269.779	1043.833
-17.706	27.507	1268.323	1043.114
-16.692	27.404	1267.044	1041.435
-15.677	27.444	1265.957	1040.726
-14.663	27.436	1264.830	1039.713
-13.648	27.452	1263.609	1038.757
-12.633	27.264	1263.077	1037.210
-11.619	27.442	1262.381	1037.610
-10.604	27.476	1261.277	1036.853
-9.590	27.441	1260.406	1035.896
-8.575	27.421	1259.169	1034.728
-7.560	27.396	1258.665	1034.131
-6.546	27.380	1257.147	1032.751
-5.531	27.423	1256.543	1032.459
-4.517	27.425	1255.508	1031.579
-3.502	27.345	1255.129	1030.773
-2.487	27.420	1254.158	1030.355
-1.473	27.398	1249.715	1026.543
-0.458	26.047	1235.040	1006.912
0.556	21.369	1218.893	971.649
1.571	17.996	1225.770	958.164
2.586	17.155	1240.892	965.117
3.600	17.338	1229.721	957.376
4.615	15.491	1163.154	895.629
5.629	11.862	1095.916	825.511
6.644	10.209	1079.203	804.636
7.659	10.123	1077.016	802.507
8.673	9.940	1075.780	800.608
9.688	10.058	1074.321	800.036
10.702	10.275	1072.001	799.308
11.717	12.422	1074.615	811.804
12.731	15.830	1079.067	831.967
13.746	17.673	1081.283	842.725
14.761	17.566	1080.434	841.461
15.775	16.565	1078.560	834.988
16.790	15.581	1075.944	828.041
17.804	14.796	1074.914	823.306
18.819	14.403	1072.994	819.830
19.834	14.049	1072.595	817.712
20.848	13.952	1071.300	816.175
21.863	13.603	1070.906	814.092
22.877	13.519	1069.858	812.810
23.892	13.430	1069.635	812.131
24.907	13.563	1068.469	811.824
25.921	13.541	1067.494	810.904
26.936	13.562	1066.330	810.052
27.950	13.598	1065.017	809.158
28.965	13.713	1063.180	808.253
29.980	13.796	1061.630	807.405
30.994	13.691	1060.458	805.934
32.009	13.849	1059.702	806.057
33.023	13.774	1057.971	804.303
34.038	13.642	1057.486	803.225
35.053	13.718	1056.292	802.611
36.067	13.737	1055.838	802.289
37.082	13.667	1054.951	801.207
38.096	13.727	1054.208	800.859
39.111	13.676	1053.871	800.286
40.126	13.670	1052.457	799.116
41.140	13.542	1051.291	797.539
42.155	13.516	1049.742	796.172
43.169	13.469	1049.244	795.499
44.184	13.457	1047.795	794.270
45.199	13.345	1047.066	793.108
46.213	13.566	1045.632	793.013
47.228	13.629	1044.555	792.426
48.242	13.583	1043.443	791.293
49.257	13.639	1042.697	790.925
50.271	13.681	1042.157	790.647
51.286	13.547	1041.240	789.243
52.301	13.667	1040.171	788.931
53.315	13.599	1039.042	787.682
54.330	13.430	1038.309	786.255
55.344	13.556	1036.929	785.739
56.359	13.627	1036.137	785.403
57.374	13.495	1035.470	784.206
58.388	13.511	1034.514	783.488
59.403	13.351	1033.576	781.951
60.417	13.425	1032.809	781.652
61.432	13.445	1032.290	781.286
62.447	13.421	1031.228	780.299
63.461	13.486	1029.910	779.536
64.476	13.408	1029.329	778.663
65.490	13.521	1028.615	778.583
66.505	13.382	1028.038	777.424
67.520	13.506	1026.803	777.003
68.534	13.512	1026.437	776.686
69.549	13.432	1026.188	776.055
70.563	13.398	1024.958	774.897
71.578	13.328	1024.272	773.982
72.593	13.247	1023.345	772.834
73.607	13.406	1022.642	772.978
74.622	13.355	1022.598	772.636
75.636	13.274	1021.309	771.218
76.651	13.192	1020.940	770.490
77.666	13.309	1020.453	770.596
78.680	13.408	1019.400	770.196
79.695	13.414	1018.651	769.587
80.709	13.467	1018.188	769.419
81.724	13.477	1017.529	768.898
82.739	13.480	1017.142	768.554
83.753	13.631	1015.900	768.245
84.768	13.781	1014.961	768.163
85.782	13.847	1014.150	767.783
86.797	13.739	1013.469	766.702
87.812	13.775	1012.151	765.804
88.826	13.576	1011.526	764.346
89.841	13.661	1010.547	763.931
90.855	13.698	1009.920	763.558
91.870	13.809	1008.946	763.264
92.884	13.736	1008.076	762.205
93.899	13.752	1007.449	761.736
94.914	13.773	1006.439	761.000
95.928	13.781	1005.685	760.401
96.943	13.728	1004.626	759.289
97.957	13.733	1003.780	758.603
98.972	13.752	1002.886	757.950
99.987	13.845	1001.786	757.474
101.001	13.723	1000.697	756.029
102.016	13.701	1000.230	755.510
103.030	13.831	999.346	755.365
104.045	13.798	998.774	754.717
105.060	13.583	998.086	753.155
106.074	13.628	996.399	752.019
107.089	13.590	995.274	750.929
108.103	13.369	994.849	749.540
109.118	13.365	994.084	748.878
110.133	13.384	993.077	748.141
111.147	13.519	991.914	747.810
112.162	13.547	990.974	747.163
113.176	13.558	990.316	746.647
114.191	13.790	989.424	746.953
115.206	13.652	988.808	745.804
116.220	13.607	987.654	744.666
117.235	13.637	986.537	743.889
118.249	13.620	986.487	743.711
119.264	13.526	985.565	742.529
120.279	13.515	984.857	741.880
121.293	13.436	983.974	740.796
122.308	13.572	982.559	740.273
123.322	13.559	981.737	739.529
124.337	13.545	980.564	738.519
125.352	13.525	979.314	737.424
126.366	13.415	978.671	736.382
127.381	13.515	977.451	735.845
128.395	13.424	976.884	734.949
129.410	13.608	975.432	734.605
130.424	13.659	974.787	734.282
131.439	13.646	974.146	733.675
132.454	13.669	973.074	732.907
133.468	13.642	972.670	732.420
134.483	13.533	971.892	731.287
135.497	13.551	970.770	730.456
136.512	13.663	969.671	730.060
137.527	13.566	969.155	729.176
138.541	13.736	968.302	729.218
139.556	13.776	967.616	728.813
140.570	13.737	967.157	728.232
141.585	13.877	965.945	727.870
142.600	13.941	965.340	727.630
143.614	13.754	964.825	726.357
144.629	13.762	964.085	725.770
145.643	13.902	963.070	725.555
146.658	13.676	961.941	723.653
147.673	13.851	960.698	723.419
148.687	13.652	960.213	722.120
149.702	13.740	959.199	721.677
150.716	13.627	958.606	720.675
151.731	13.756	957.762	720.538
152.746	13.757	957.338	720.160
153.760	13.622	956.839	719.133
154.775	13.767	956.326	719.315
155.789	13.877	955.141	718.836
156.804	13.914	954.469	718.428
157.819	13.935	954.062	718.146
158.833	13.903	953.320	717.387
159.848	13.857	952.478	716.492
160.862	13.978	951.214	715.999
161.877	13.834	950.521	714.795
162.892	13.914	949.626	714.402
163.906	13.871	948.655	713.424
164.921	13.725	948.034	712.267
165.935	13.904	946.950	712.159
166.950	13.941	945.914	711.474
167.964	13.864	945.289	710.609
168.979	13.844	944.532	709.892
169.994	13.796	943.472	708.827
171.008	13.930	942.689	708.751
172.023	13.895	942.321	708.259
173.037	13.998	941.206	707.797
174.052	13.945	940.323	706.847
175.067	13.951	939.770	706.396
176.081	13.888	939.261	705.679
177.096	13.933	938.742	705.419
178.110	13.905	938.014	704.691
179.125	14.034	937.189	704.557
180.140	14.023	936.741	704.111
181.154	14.044	936.250	703.767
182.169	13.992	936.202	703.450
183.183	14.183	935.366	703.566
184.198	14.223	934.398	702.947
185.213	14.111	934.425	702.432
186.227	14.113	933.134	701.406
187.242	14.192	932.744	701.386
188.256	14.351	932.148	701.542
189.271	14.253	931.542	700.613
190.286	13.977	930.598	698.680
191.300	14.005	929.907	698.216
192.315	14.110	928.873	697.820
193.329	13.970	928.524	696.907
194.344	14.024	928.139	696.783
195.359	14.145	927.252	696.566
196.373	14.159	927.127	696.469
197.388	14.294	926.547	696.536
198.402	14.363	926.013	696.359
199.417	14.407	925.247	695.907
200.432	14.610	924.376	696.035
201.446	14.508	924.471	695.622
202.461	14.550	923.586	695.068
203.475	14.490	923.060	694.360
204.490	14.390	922.493	693.455
205.504	14.398	921.384	692.596
206.519	14.316	920.904	691.833
207.534	14.269	920.336	691.149
208.548	14.304	919.640	690.711
209.563	14.451	918.893	690.698
210.577	14.466	917.989	690.017
211.592	14.452	917.453	689.498
212.607	14.627	916.549	689.480
213.621	14.568	915.499	688.386
214.636	14.705	915.158	688.632
215.650	14.633	914.410	687.712
216.665	14.746	913.571	687.485
217.680	14.621	913.338	686.733
218.694	14.767	912.173	686.398
219.709	14.678	911.922	685.783
220.723	14.721	911.433	685.533
221.738	14.601	910.721	684.442
222.753	14.656	909.560	683.733
223.767	14.778	909.353	684.021
224.782	14.818	908.599	683.556
225.796	14.777	908.360	683.148
226.811	14.763	907.936	682.709
227.826	14.737	907.184	681.977
228.840	14.841	906.037	681.479
229.855	14.724	905.254	680.355
230.869	14.732	904.419	679.700
231.884	14.780	903.785	679.359
232.899	14.630	903.484	678.462
233.913	14.581	902.957	677.809
234.928	14.696	901.725	677.287
235.942	14.825	900.769	677.033
236.957	14.702	900.931	676.598
237.972	14.757	900.030	676.082
238.986	14.700	899.224	675.185
240.001	14.671	898.742	674.646
241.015	14.798	898.201	674.695
242.030	14.964	897.470	674.755
243.045	14.906	896.832	673.984
244.059	14.932	896.362	673.675
245.074	14.921	895.606	673.003
246.088	14.947	895.181	672.726
247.103	15.067	894.551	672.676
248.117	15.046	893.908	672.051
249.132	15.118	893.639	672.077
250.147	15.212	892.815	671.776
251.161	15.342	892.222	671.789
252.176	15.260	891.522	670.876
253.190	15.185	891.375	670.408
254.205	15.315	890.209	669.989
255.220	15.310	889.372	669.279
256.234	15.397	888.596	668.984
257.249	15.464	887.802	668.592
258.263	15.248	887.212	667.231
259.278	15.309	886.618	666.965
260.293	15.404	886.499	667.197
261.307	15.546	885.765	667.148
262.322	15.499	885.137	666.430
263.336	15.477	884.453	665.768
264.351	15.556	883.768	665.508
265.366	15.550	883.007	664.850
266.380	15.511	882.205	664.034
267.395	15.556	881.219	663.410
268.409	15.508	880.839	662.876
269.424	15.572	880.284	662.653
270.439	15.566	879.121	661.697
271.453	15.507	878.469	660.914
272.468	15.500	878.396	660.772
273.482	15.525	877.597	660.213
274.497	15.386	877.275	659.367
275.512	15.370	876.982	659.023
276.526	15.521	876.248	659.006
277.541	15.571	875.587	658.649
278.555	15.653	874.808	658.324
279.570	15.691	874.166	657.932
280.585	15.639	873.520	657.184
281.599	15.690	872.456	656.526
282.614	15.700	871.903	656.091
283.628	15.616	871.815	655.638
284.643	15.633	870.888	654.946
285.657	15.799	869.987	654.859
286.672	15.716	869.585	654.174
287.687	15.699	869.297	653.833
288.701	15.814	868.532	653.647
289.716	15.774	867.880	652.943
290.730	15.833	866.780	652.286
291.745	15.779	866.755	652.000
292.760	15.862	865.971	651.675
293.774	15.992	865.258	651.584
294.789	15.959	864.882	651.114
295.803	15.724	864.076	649.545
296.818	15.880	863.344	649.539
297.833	15.901	862.772	649.132
298.847	15.853	862.601	648.760
299.862	15.906	861.530	648.100
300.876	15.973	861.288	648.120
301.891	16.007	860.540	647.630
302.906	16.087	860.125	647.570
303.920	16.158	859.307	647.167
304.935	16.066	859.321	646.768
305.949	16.134	858.476	646.335
306.964	16.152	857.754	645.804
307.979	16.089	857.304	645.166
308.993	16.216	856.645	645.097
310.008	16.166	856.126	644.460
311.022	16.313	855.294	644.336
312.037	16.211	854.569	643.343
313.052	16.135	853.998	642.569
314.066	16.017	853.884	641.977
315.081	15.943	853.589	641.415
316.095	16.077	852.439	641.004
317.110	16.269	851.580	641.032
318.125	16.169	851.117	640.248
319.139	16.037	851.269	639.803
320.154	16.027	850.873	639.411
321.168	16.211	850.238	639.576
322.183	16.170	849.644	638.917
323.197	16.219	849.142	638.668
324.212	16.159	848.558	637.946
325.227	16.283	847.958	637.906
326.241	16.107	847.296	636.686
327.256	16.214	846.721	636.602
328.270	16.355	846.267	636.737
329.285	16.233	845.575	635.700
330.300	16.059	845.164	634.679
331.314	16.188	844.373	634.514
332.329	16.283	844.317	634.775
333.343	16.388	843.743	634.680
334.358	16.393	843.379	634.369
335.373	16.357	842.828	633.764
336.387	16.435	842.562	633.798
337.402	16.446	842.374	633.644
338.416	16.636	841.942	633.975
339.431	16.456	841.928	633.232
340.446	16.665	841.113	633.348
341.460	16.526	840.692	632.453
342.475	16.648	840.210	632.490
343.489	16.680	839.889	632.313
344.504	16.639	839.338	631.688
345.519	16.797	838.896	631.890
346.533	16.708	838.480	631.191
347.548	16.688	837.486	630.308
348.562	16.615	837.181	629.754
349.577	16.676	836.465	629.387
350.592	16.634	835.661	628.568
351.606	16.610	835.188	628.067
352.621	16.525	834.521	627.196
353.635	16.606	833.962	627.021
354.650	16.386	833.730	625.977
355.665	16.780	832.726	626.625
356.679	16.723	832.104	625.889
357.694	16.792	831.286	625.474
358.708	16.844	830.606	625.097
359.723	16.811	829.774	624.297
360.738	16.827	829.880	624.380
361.752	16.861	828.980	623.772
362.767	16.951	828.220	623.475
363.781	16.995	828.051	623.457
364.796	17.036	827.690	623.280
365.810	16.996	827.297	622.780
366.825	17.031	826.944	622.587
367.840	17.156	826.403	622.583
368.854	16.879	826.179	621.346
369.869	17.040	825.327	621.239
370.883	17.018	824.963	620.831
371.898	17.085	824.561	620.718
372.913	17.133	824.120	620.504
373.927	17.095	823.692	619.989
374.942	17.222	823.033	619.901
375.956	17.307	822.692	619.901
376.971	17.073	822.539	618.879
377.986	17.241	822.116	619.117
379.000	17.340	821.205	618.737
380.015	17.402	820.727	618.547
381.029	17.391	820.533	618.303
382.044	17.207	819.958	617.149
383.059	17.225	819.321	616.678
384.073	17.325	818.740	616.551
385.088	17.363	818.082	616.138
386.102	17.125	817.415	614.721
387.117	17.240	816.921	614.711
388.132	17.202	816.390	614.121
389.146	17.265	815.869	613.902
390.161	17.457	815.244	614.070
391.175	17.452	814.797	613.658
392.190	17.384	813.989	612.750
393.205	17.287	813.821	612.222
394.219	17.475	813.297	612.450
395.234	17.259	813.103	611.472
396.248	17.253	813.021	611.336
397.263	17.094	812.506	610.323
398.278	17.331	811.852	610.630
399.292	17.229	811.497	609.940
400.307	17.248	810.965	609.557
401.321	17.276	810.963	609.599
402.336	17.451	809.785	609.288
403.350	17.480	809.727	609.295
404.365	17.500	809.477	609.123
405.380	17.402	808.788	608.199
406.394	17.539	808.314	608.278
407.409	17.657	807.716	608.196
408.423	17.738	807.392	608.188
409.438	17.688	807.190	607.803
410.453	17.611	806.432	606.906
411.467	17.664	805.950	606.678
412.482	17.757	805.467	606.592
413.496	17.846	805.375	606.784
414.511	17.782	805.014	606.230
415.526	17.799	804.439	605.803
416.540	17.792	804.220	605.560
417.555	17.842	803.505	605.148
418.569	17.897	803.090	604.977
419.584	17.912	802.801	604.756
420.599	17.905	802.373	604.358
421.613	111.469	1294.752	1476.332
422.628	96.087	1366.462	1476.437
