DTS Sentinel unit serial number:	SN413079Multiplexer serial number:	ORYXHardware model number:	OX4-SRSoftware version number:	ORYX F/W v4.00 Oryx Data Collector v3.7.2.0data status	okinstallation	princeton_trtdifferential loss correction	single-endedforward channel	channel 1reverse channel	N/Adate	2019/09/12time	20:46:36forward acquisition time	60.00reverse acquisition time	0.00gamma	496.2192k internal	0.2324k external	0.2324temperature offset calibration	1.0145default loss term (dB/km)	0.3790temperature slope calibration	1.0000multiplexer offset coefficient	1.0000multiplexer slope coefficient	1.0000fibre end	0.00T internal ref (°C)	31.05T ext. ref 1 (°C)	3.63T ext. ref 2 (°C)	25.58length (m)	temperature (°C)	Stokes	anti-Stokes-747.200	-200.000	0.005	0.321
-746.185	-200.000	0.046	0.254
-745.171	-200.000	-0.003	0.144
-744.156	57.618	0.133	0.131
-743.142	43.496	-0.174	0.161
-742.127	-67.828	-0.405	0.160
-741.112	-58.654	-0.110	0.048
-740.098	242.624	-0.188	0.317
-739.083	50.784	-0.180	0.172
-738.069	262.042	-0.132	0.231
-737.054	-200.000	-0.005	0.117
-736.039	800.000	-0.059	-0.207
-735.025	-70.594	-0.328	0.125
-734.010	232.828	-0.206	-0.341
-732.996	-161.715	0.485	-0.025
-731.981	-200.000	0.040	-0.256
-730.966	75.130	-0.122	-0.130
-729.952	-156.973	0.095	0.006
-728.937	-200.000	0.070	-0.389
-727.923	-161.482	-0.391	0.020
-726.908	166.017	-0.145	0.207
-725.894	-47.854	-0.151	-0.074
-724.879	-80.668	-0.342	-0.115
-723.864	235.899	-0.071	-0.118
-722.850	-13.116	0.125	0.082
-721.835	-169.038	-0.207	-0.008
-720.821	65.488	0.113	-0.116
-719.806	-132.175	-0.380	-0.050
-718.791	-13.580	0.118	0.077
-717.777	-6.912	0.208	-0.143
-716.762	109.555	0.113	-0.137
-715.748	39.404	-0.139	-0.126
-714.733	-200.000	0.007	0.115
-713.718	-32.356	-0.254	0.143
-712.704	-200.000	-0.055	-0.251
-711.689	200.055	0.038	-0.059
-710.675	113.838	-0.042	0.051
-709.660	-200.000	0.028	-0.167
-708.645	77.121	-0.301	-0.323
-707.631	-7.070	0.158	0.108
-706.616	389.831	-0.232	0.485
-705.602	-74.665	0.344	-0.125
-704.587	-16.559	-0.138	-0.088
-703.572	-144.343	0.386	0.036
-702.558	-200.000	-0.029	-0.309
-701.543	40.098	-0.135	0.122
-700.529	15.432	0.173	-0.137
-699.514	399.839	-0.057	-0.120
-698.499	16.777	0.244	-0.195
-697.485	-199.545	-0.304	0.002
-696.470	-200.000	0.011	0.150
-695.456	409.994	-0.081	0.172
-694.441	-29.126	-0.446	0.257
-693.426	-79.002	0.135	0.046
-692.412	42.114	-0.177	0.162
-691.397	109.988	-0.021	-0.025
-690.383	800.000	0.111	0.402
-689.368	-74.339	0.286	0.104
-688.354	-169.515	-0.032	0.001
-687.339	20.535	0.136	0.111
-686.324	-45.917	0.099	0.049
-685.310	800.000	-0.026	-0.101
-684.295	209.832	-0.170	0.269
-683.281	-132.910	-0.262	-0.034
-682.266	380.094	0.101	-0.209
-681.251	120.532	0.247	0.309
-680.237	85.771	-0.195	0.215
-679.222	24.304	0.228	0.190
-678.208	195.661	-0.064	-0.099
-677.193	122.691	0.286	-0.360
-676.178	-200.000	0.026	-0.147
-675.164	218.362	-0.190	0.306
-674.149	-200.000	-0.033	0.344
-673.135	-107.347	0.144	0.032
-672.120	86.169	-0.174	-0.193
-671.105	40.065	0.140	-0.127
-670.091	-53.403	0.076	0.035
-669.076	-42.044	-0.415	-0.214
-668.062	246.836	-0.102	0.172
-667.047	-200.000	0.008	-0.199
-666.032	-200.000	-0.029	-0.194
-665.018	-200.000	0.004	0.037
-664.003	-70.571	-0.344	0.131
-662.989	58.347	-0.152	0.150
-661.974	-133.789	0.165	-0.021
-660.959	-200.000	0.012	-0.098
-659.945	-54.261	0.095	0.043
-658.930	800.000	0.051	0.167
-657.916	-83.689	0.392	-0.126
-656.901	370.057	0.060	0.122
-655.886	-171.604	-0.201	-0.007
-654.872	-12.163	-0.310	-0.204
-653.857	-15.084	-0.280	-0.180
-652.843	800.000	-0.040	0.138
-651.828	-90.574	-0.148	-0.043
-650.814	38.420	-0.104	0.093
-649.799	12.197	0.095	0.073
-648.784	55.548	0.299	0.291
-647.770	-116.331	-0.401	0.075
-646.755	-200.000	-0.003	0.113
-645.741	-58.647	-0.162	-0.071
-644.726	551.110	0.107	-0.259
-643.711	-200.000	-0.034	-0.415
-642.697	-61.553	0.302	0.127
-641.682	-94.630	-0.086	0.024
-640.668	-200.000	-0.002	0.031
-639.653	71.052	0.116	-0.121
-638.638	-15.887	0.285	-0.182
-637.624	164.438	-0.119	-0.169
-636.609	48.142	-0.041	0.039
-635.595	-161.466	0.129	-0.007
-634.580	-107.022	0.361	-0.080
-633.565	-37.994	-0.100	0.053
-632.551	-200.000	0.030	0.234
-631.536	800.000	0.084	-0.298
-630.522	800.000	0.062	-0.202
-629.507	-78.561	0.308	-0.106
-628.492	4.487	-0.040	0.030
-627.478	798.150	0.127	0.352
-626.463	-143.517	0.302	0.029
-625.449	-124.590	0.233	0.036
-624.434	-65.392	-0.224	0.091
-623.419	-200.000	0.001	-0.061
-622.405	64.467	0.105	-0.106
-621.390	-119.007	0.197	0.035
-620.376	-110.489	0.382	0.080
-619.361	192.132	-0.143	-0.216
-618.346	-182.156	0.486	0.009
-617.332	-22.250	0.200	-0.122
-616.317	-87.140	-0.201	-0.061
-615.303	-9.473	-0.050	0.034
-614.288	337.205	-0.174	0.340
-613.273	64.074	0.246	-0.249
-612.259	71.657	-0.038	-0.040
-611.244	800.000	-0.022	-0.072
-610.230	111.102	-0.109	-0.131
-609.215	-24.604	0.167	0.100
-608.201	-26.673	0.337	0.198
-607.186	-144.765	0.097	0.009
-606.171	-184.492	-0.134	0.002
-605.157	8.382	-0.387	0.292
-604.142	-140.987	0.259	-0.027
-603.128	-152.525	0.188	-0.014
-602.113	-132.661	-0.202	-0.026
-601.098	-11.070	0.245	-0.162
-600.084	-58.320	-0.359	-0.157
-599.069	148.422	-0.095	0.129
-598.055	-200.000	0.001	-0.116
-597.040	454.041	-0.148	-0.329
-596.025	89.673	-0.159	-0.178
-595.011	70.994	-0.240	0.250
-593.996	-24.113	-0.221	-0.133
-592.982	-66.292	0.091	0.036
-591.967	-177.234	-0.171	0.004
-590.952	-200.000	0.036	0.259
-589.938	-200.000	-0.008	-0.413
-588.923	-10.146	0.250	0.166
-587.909	431.912	-0.008	0.017
-586.894	337.704	0.137	-0.267
-585.879	800.000	0.023	-0.088
-584.865	-1.952	0.347	0.244
-583.850	-200.000	-0.003	-0.135
-582.836	302.343	-0.088	0.163
-581.821	-78.329	-0.274	-0.094
-580.806	491.880	-0.061	-0.140
-579.792	-117.888	0.236	-0.042
-578.777	-149.825	-0.197	0.015
-577.763	-63.279	-0.508	0.210
-576.748	800.000	-0.075	-0.241
-575.733	470.157	-0.093	-0.210
-574.719	57.577	-0.316	-0.309
-573.704	800.000	-0.049	-0.210
-572.690	-200.000	0.011	0.076
-571.675	-200.000	-0.001	0.175
-570.661	-105.476	0.189	-0.043
-569.646	800.000	0.034	-0.146
-568.631	211.272	-0.118	0.187
-567.617	-200.000	0.024	0.279
-566.602	665.815	0.151	0.391
-565.588	347.811	-0.011	0.022
-564.573	-87.855	0.316	-0.095
-563.558	-146.246	-0.377	-0.033
-562.544	136.763	-0.161	0.210
-561.529	-70.045	-0.099	-0.038
-560.515	-62.496	0.291	0.121
-559.500	-59.903	-0.334	-0.143
-558.485	-200.000	-0.015	0.220
-557.471	-86.383	0.178	-0.055
-556.456	-50.142	-0.347	-0.165
-555.442	518.620	0.076	0.179
-554.427	39.868	0.177	-0.160
-553.412	800.000	0.075	-0.272
-552.398	-105.964	0.249	-0.056
-551.383	-200.000	0.051	0.386
-550.369	-61.630	-0.105	0.044
-549.354	651.985	0.036	-0.091
-548.339	-200.000	-0.082	-0.669
-547.325	-200.000	-0.100	0.515
-546.310	-94.505	-0.190	0.052
-545.296	-123.978	0.275	-0.043
-544.281	552.566	-0.105	0.252
-543.266	-38.574	-0.368	0.194
-542.252	800.000	-0.097	0.278
-541.237	539.606	-0.069	-0.165
-540.223	136.677	0.182	-0.237
-539.208	132.697	0.056	-0.072
-538.193	800.000	0.045	0.140
-537.179	-200.000	0.013	-0.326
-536.164	-123.069	0.079	0.013
-535.150	-23.483	0.198	0.119
-534.135	-124.669	0.341	0.053
-533.121	-200.000	-0.031	-0.198
-532.106	-52.993	-0.191	0.088
-531.091	101.323	-0.340	-0.396
-530.077	439.345	0.047	0.103
-529.062	-104.000	0.350	-0.082
-528.048	-137.212	-0.092	-0.011
-527.033	50.072	0.135	-0.127
-526.018	-50.142	-0.260	0.123
-525.004	-59.037	-0.144	0.062
-523.989	101.932	-0.104	0.121
-522.975	-89.884	0.168	-0.049
-521.960	-0.819	-0.017	-0.012
-520.945	-22.073	0.280	-0.170
-519.931	-51.971	0.102	0.048
-518.916	-66.913	-0.196	0.077
-517.902	-178.783	-0.248	0.006
-516.887	-200.000	0.022	-0.205
-515.872	-200.000	0.007	0.139
-514.858	38.894	0.141	-0.126
-513.843	-59.587	0.128	0.055
-512.829	-96.298	-0.133	0.035
-511.814	19.819	-0.024	-0.020
-510.799	452.368	0.039	-0.085
-509.785	-125.409	-0.104	-0.016
-508.770	-9.421	0.138	0.092
-507.756	27.348	-0.143	-0.120
-506.741	60.962	0.275	-0.273
-505.726	-10.078	0.135	0.090
-504.712	59.816	-0.287	-0.283
-503.697	800.000	-0.042	-0.152
-502.683	699.970	-0.108	-0.284
-501.668	-138.499	-0.016	-0.002
-500.653	-90.155	-0.097	0.028
-499.639	201.167	-0.128	0.197
-498.624	15.441	-0.062	0.049
-497.610	-65.611	-0.177	0.071
-496.595	305.132	-0.098	-0.182
-495.581	-55.764	-0.150	0.067
-494.566	-134.483	0.138	0.017
-493.551	800.000	-0.024	0.094
-492.537	-178.241	0.124	0.003
-491.522	-171.010	0.201	0.007
-490.508	-200.000	-0.030	0.140
-489.493	133.459	-0.149	-0.193
-488.478	-91.292	-0.284	0.081
-487.464	341.345	0.083	-0.161
-486.449	135.756	0.081	-0.105
-485.435	10.862	0.093	-0.071
-484.420	175.731	-0.084	-0.121
-483.405	800.000	-0.082	0.245
-482.391	-200.000	-0.002	-0.120
-481.376	56.518	0.132	-0.128
-480.362	280.526	-0.073	-0.131
-479.347	-154.902	0.428	0.028
-478.332	800.000	0.154	0.629
-477.318	5.999	-0.197	0.146
-476.303	384.358	0.125	0.256
-475.289	4.231	-0.115	-0.084
-474.274	-200.000	-0.053	-0.340
-473.259	-200.000	0.015	-0.086
-472.245	72.425	0.058	0.060
-471.230	-2.306	-0.155	-0.108
-470.216	-91.728	-0.233	-0.066
-469.201	-28.668	-0.339	-0.195
-468.186	-110.192	0.188	-0.039
-467.172	-153.363	-0.111	-0.008
-466.157	-42.935	0.182	0.092
-465.143	-172.503	-0.230	0.007
-464.128	236.283	0.035	-0.057
-463.113	-90.769	-0.223	-0.064
-462.099	-200.000	0.114	0.511
-461.084	-200.000	0.001	0.207
-460.070	73.905	-0.054	-0.057
-459.055	59.207	0.036	0.035
-458.040	165.451	-0.178	0.252
-457.026	156.632	-0.123	-0.169
-456.011	800.000	0.069	0.213
-454.997	94.589	0.217	-0.246
-453.982	-169.018	0.186	0.007
-452.968	-115.427	0.304	0.057
-451.953	67.976	0.021	0.021
-450.938	-79.543	-0.169	0.057
-449.924	34.876	-0.229	0.200
-448.909	-25.159	0.252	-0.149
-447.895	277.690	0.046	0.081
-446.880	752.367	0.076	0.205
-445.865	122.113	0.153	-0.190
-444.851	486.802	-0.131	-0.299
-443.836	-129.363	-0.164	-0.023
-442.822	-66.260	-0.304	-0.121
-441.807	440.693	-0.071	0.154
-440.792	-200.000	-0.018	-0.081
-439.778	230.341	-0.142	-0.232
-438.763	-100.861	0.157	0.038
-437.749	-128.397	-0.140	-0.020
-436.734	-64.700	0.212	0.086
-435.719	326.364	0.143	-0.273
-434.705	-19.629	-0.235	-0.145
-433.690	-200.000	0.018	-0.258
-432.676	94.540	-0.264	-0.299
-431.661	-76.355	0.141	0.050
-430.646	-138.187	-0.101	0.011
-429.632	800.000	0.046	-0.142
-428.617	-78.609	0.383	0.131
-427.603	-58.144	-0.226	0.098
-426.588	-51.648	-0.418	0.194
-425.573	451.087	-0.176	-0.388
-424.559	800.000	-0.054	0.186
-423.544	182.376	-0.112	0.165
-422.530	-200.000	-0.021	-0.461
-421.515	-5.345	-0.177	-0.122
-420.500	503.088	-0.078	-0.179
-419.486	-200.000	0.003	0.026
-418.471	-76.698	-0.234	0.082
-417.457	-200.000	-0.020	0.316
-416.442	-21.645	-0.235	0.143
-415.428	26.224	0.183	-0.153
-414.413	800.000	-0.062	-0.201
-413.398	-2.236	-0.123	0.086
-412.384	-47.028	0.267	0.130
-411.369	-85.565	0.322	0.100
-410.355	-117.068	-0.091	-0.016
-409.340	294.427	0.071	0.129
-408.325	-22.873	-0.189	-0.114
-407.311	-200.000	-0.074	0.366
-406.296	518.118	-0.230	0.536
-405.282	800.000	0.019	-0.058
-404.267	-54.186	0.268	0.121
-403.252	483.929	0.109	0.247
-402.238	-200.000	-0.030	0.170
-401.223	98.410	-0.195	0.224
-400.209	498.456	0.046	0.106
-399.194	-119.421	0.198	-0.034
-398.179	50.826	0.314	-0.296
-397.165	112.196	-0.195	-0.234
-396.150	-122.892	-0.149	-0.024
-395.136	-200.000	-0.063	-0.280
-394.121	-147.633	-0.089	0.007
-393.106	197.323	-0.068	0.103
-392.092	-62.273	-0.110	-0.045
-391.077	-52.142	0.187	-0.086
-390.063	-83.879	0.109	0.035
-389.048	397.022	-0.054	0.113
-388.033	744.775	-0.090	-0.241
-387.019	381.892	-0.079	-0.162
-386.004	-200.000	0.020	0.088
-384.990	21.984	0.144	0.117
-383.975	-87.941	0.276	-0.083
-382.960	-103.407	0.100	0.023
-381.946	41.479	0.039	0.035
-380.931	390.123	0.004	-0.009
-379.917	70.299	-0.234	-0.241
-378.902	41.527	0.096	-0.087
-377.888	800.000	-0.059	0.226
-376.873	-200.000	-0.018	-0.165
-375.858	200.180	-0.206	-0.315
-374.844	146.462	0.115	0.154
-373.829	140.452	0.076	-0.099
-372.815	800.000	-0.064	-0.253
-371.800	-200.000	-0.018	-0.311
-370.785	-149.524	-0.339	0.027
-369.771	-200.000	0.023	-0.116
-368.756	-17.530	0.121	-0.075
-367.742	10.044	-0.203	-0.153
-366.727	121.607	0.185	-0.229
-365.712	-72.974	0.055	-0.020
-364.698	133.662	-0.186	0.239
-363.683	59.242	0.165	-0.162
-362.669	-200.000	-0.052	0.240
-361.654	-154.648	-0.198	0.013
-360.639	78.455	-0.230	0.244
-359.625	-137.026	0.121	-0.014
-358.610	-200.000	-0.040	0.306
-357.596	59.727	-0.202	0.198
-356.581	230.440	0.186	-0.302
-355.566	-140.095	0.141	0.015
-354.552	800.000	0.086	-0.370
-353.537	800.000	0.009	0.025
-352.523	800.000	-0.034	0.138
-351.508	11.997	-0.176	-0.135
-350.493	-200.000	-0.017	-0.251
-349.479	800.000	0.040	0.120
-348.464	-86.165	0.256	0.078
-347.450	51.035	-0.164	-0.155
-346.435	142.876	-0.108	-0.143
-345.420	13.465	0.298	-0.229
-344.406	313.186	-0.107	0.199
-343.391	-155.616	-0.553	-0.035
-342.377	800.000	0.071	-0.241
-341.362	233.504	-0.127	0.208
-340.348	-77.855	-0.091	-0.031
-339.333	56.651	-0.142	-0.138
-338.318	-200.000	0.116	-0.000
-337.304	-110.128	-0.092	-0.019
-336.289	-90.146	0.150	0.043
-335.275	800.000	-0.077	0.253
-334.260	189.437	-0.014	-0.021
-333.245	-102.036	0.290	-0.069
-332.231	-96.256	-0.192	0.050
-331.216	300.939	0.105	0.193
-330.202	-75.559	-0.212	-0.075
-329.187	-36.839	-0.183	-0.098
-328.172	-130.097	-0.292	0.040
-327.158	297.621	-0.160	-0.292
-326.143	-200.000	0.058	-0.448
-325.129	147.862	-0.109	-0.146
-324.114	188.871	-0.282	0.419
-323.099	-100.965	-0.035	-0.009
-322.085	159.393	-0.122	-0.168
-321.070	375.777	-0.038	-0.077
-320.056	-200.000	0.005	0.026
-319.041	168.138	0.136	-0.192
-318.026	-200.000	-0.001	0.007
-317.012	-74.234	0.201	0.072
-315.997	-200.000	0.033	0.171
-314.983	-81.594	-0.211	-0.069
-313.968	-200.000	-0.003	0.041
-312.953	-103.708	0.402	-0.094
-311.939	-5.293	-0.286	0.195
-310.924	689.748	0.134	0.348
-309.910	800.000	-0.041	-0.172
-308.895	-200.000	0.001	0.239
-307.880	-108.755	0.246	0.052
-306.866	-89.288	-0.212	0.062
-305.851	87.065	0.214	0.235
-304.837	-189.502	-0.271	0.003
-303.822	-200.000	-0.056	0.353
-302.807	-54.398	-0.208	0.094
-301.793	-200.000	-0.028	0.129
-300.778	800.000	-0.042	-0.151
-299.764	-23.762	-0.116	0.069
-298.749	47.167	-0.177	0.164
-297.735	166.805	0.128	0.180
-296.720	800.000	0.080	0.268
-295.705	-59.675	0.202	-0.086
-294.691	-59.843	0.094	-0.040
-293.676	514.833	-0.109	0.252
-292.662	-200.000	-0.023	0.142
-291.647	-53.343	0.333	0.152
-290.632	30.985	0.160	0.136
-289.618	-6.125	0.274	0.186
-288.603	-105.843	0.193	-0.043
-287.589	108.431	-0.191	-0.226
-286.574	142.606	-0.076	-0.100
-285.559	800.000	-0.047	-0.160
-284.545	382.554	0.042	0.085
-283.530	-51.129	-0.145	0.067
-282.516	-67.696	0.128	-0.050
-281.501	79.470	-0.299	0.318
-280.486	192.971	0.049	0.074
-279.472	-130.570	0.398	0.053
-278.457	-122.570	-0.228	-0.037
-277.443	800.000	0.052	0.143
-276.428	-170.768	0.261	-0.009
-275.413	-17.711	-0.305	0.190
-274.399	49.410	0.147	-0.137
-273.384	32.817	0.099	0.085
-272.370	61.307	0.098	0.097
-271.355	758.219	0.030	-0.082
-270.340	800.000	0.088	-0.273
-269.326	-200.000	-0.002	-0.016
-268.311	149.516	-0.237	-0.318
-267.297	-80.568	0.204	0.067
-266.282	296.723	-0.149	-0.271
-265.267	-26.343	0.018	-0.011
-264.253	29.476	0.246	0.207
-263.238	-52.818	-0.108	-0.049
-262.224	89.653	0.176	0.195
-261.209	-152.886	0.196	-0.014
-260.195	130.465	0.275	0.349
-259.180	-88.753	-0.084	-0.025
-258.165	-13.061	-0.301	-0.194
-257.151	-8.373	-0.401	0.267
-256.136	400.761	0.066	0.138
-255.122	-200.000	0.010	-0.308
-254.107	6.276	-0.134	0.098
-253.092	-200.000	-0.016	0.081
-252.078	-137.454	-0.130	-0.015
-251.063	-63.471	0.279	0.114
-250.049	-107.267	0.162	0.035
-249.034	-69.088	0.286	-0.109
-248.019	-24.532	0.217	0.128
-247.005	-200.000	-0.025	-0.122
-245.990	-164.316	0.164	0.007
-244.976	181.593	0.264	-0.385
-243.961	-179.698	-0.063	0.001
-242.946	122.345	0.109	-0.135
-241.932	-124.342	-0.423	-0.065
-240.917	12.512	-0.130	-0.099
-239.903	-16.456	0.057	0.036
-238.888	538.670	0.126	0.297
-237.873	194.323	0.240	0.359
-236.859	135.789	-0.089	0.115
-235.844	47.817	0.141	-0.130
-234.830	47.209	-0.143	-0.132
-233.815	1.386	0.064	-0.045
-232.800	323.561	-0.054	-0.102
-231.786	-83.584	0.167	-0.053
-230.771	800.000	-0.083	0.337
-229.757	-200.000	0.007	-0.122
-228.742	6.294	-0.161	-0.118
-227.727	-200.000	0.025	-0.136
-226.713	25.089	0.182	0.149
-225.698	800.000	-0.088	0.280
-224.684	-126.855	-0.239	-0.035
-223.669	52.210	-0.163	-0.154
-222.655	147.410	-0.087	-0.116
-221.640	58.894	-0.399	-0.388
-220.625	800.000	0.017	-0.069
-219.611	210.649	0.088	0.137
-218.596	-172.816	-0.083	-0.003
-217.582	-125.233	0.382	-0.058
-216.567	800.000	0.097	0.311
-215.552	-1.450	0.062	-0.043
-214.538	-62.815	-0.382	0.156
-213.523	-88.427	0.286	0.084
-212.509	126.205	-0.167	-0.209
-211.494	-200.000	-0.047	0.214
-210.479	-143.083	0.307	-0.029
-209.465	-200.000	0.439	0.002
-208.450	21.036	0.239	0.192
-207.436	-200.000	0.010	0.113
-206.421	800.000	0.084	-0.243
-205.406	-171.029	-0.155	-0.005
-204.392	47.375	0.162	-0.149
-203.377	-200.000	-0.061	0.357
-202.363	-156.376	-0.139	0.009
-201.348	287.633	0.070	0.125
-200.333	-1.100	0.194	-0.136
-199.319	-200.000	-0.035	0.161
-198.304	-47.133	-0.433	0.208
-197.290	-56.120	-0.408	-0.179
-196.275	-116.017	-0.331	0.061
-195.260	-19.017	0.108	0.066
-194.246	-16.822	-0.236	-0.147
-193.231	-116.130	0.246	0.045
-192.217	-200.000	-0.018	0.407
-191.202	800.000	-0.039	0.130
-190.187	293.747	0.159	-0.288
-189.173	-95.528	0.273	0.072
-188.158	179.955	-0.109	-0.158
-187.144	132.771	0.260	0.331
-186.129	-4.968	0.142	-0.096
-185.114	-87.030	0.226	-0.068
-184.100	6.727	0.191	0.140
-183.085	-81.854	0.330	0.107
-182.071	84.312	-0.179	-0.194
-181.056	115.261	-0.189	0.228
-180.042	249.693	0.034	0.057
-179.027	-110.783	0.269	-0.055
-178.012	800.000	-0.023	0.098
-176.998	52.540	-0.225	-0.212
-175.983	209.539	-0.080	-0.124
-174.969	-151.294	-0.054	-0.004
-173.954	93.452	0.256	0.286
-172.939	-200.000	-0.013	-0.142
-171.925	-200.000	-0.025	-0.167
-170.910	79.085	0.140	0.148
-169.896	395.876	-0.033	0.067
-168.881	-200.000	-0.001	-0.046
-167.866	-64.664	0.226	0.091
-166.852	-94.423	0.191	0.052
-165.837	-125.022	-0.113	-0.017
-164.823	-160.383	0.176	0.009
-163.808	137.119	-0.122	0.157
-162.793	800.000	-0.101	-0.342
-161.779	148.411	0.159	0.212
-160.764	61.328	-0.196	0.192
-159.750	-200.000	0.018	0.204
-158.735	-200.000	0.000	0.247
-157.720	800.000	-0.049	-0.197
-156.706	-33.539	-0.116	-0.063
-155.691	187.116	0.232	-0.341
-154.677	-165.545	-0.166	-0.007
-153.662	-112.689	0.303	0.059
-152.647	0.605	0.238	0.168
-151.633	339.584	-0.105	0.202
-150.618	-35.254	0.300	0.161
-149.604	-48.900	-0.263	0.124
-148.589	18.711	-0.064	-0.050
-147.574	-53.591	-0.301	-0.136
-146.560	94.922	-0.084	-0.094
-145.545	92.135	-0.126	-0.140
-144.531	800.000	0.117	-0.364
-143.516	715.868	-0.071	0.185
-142.502	470.790	0.039	0.086
-141.487	-9.945	-0.186	0.122
-140.472	-200.000	-0.025	0.167
-139.458	800.000	0.049	-0.171
-138.443	-178.241	0.193	0.004
-137.429	195.058	0.220	-0.329
-136.414	66.326	-0.020	-0.020
-135.399	407.304	0.034	-0.071
-134.385	-0.998	-0.183	-0.128
-133.370	-200.000	0.010	-0.268
-132.356	349.154	0.201	0.391
-131.341	260.483	0.129	-0.220
-130.326	-108.086	-0.364	-0.078
-129.312	-35.406	0.125	-0.067
-128.297	-200.000	0.043	0.220
-127.283	-82.973	0.163	0.052
-126.268	-200.000	0.060	0.385
-125.253	4.545	-0.355	0.257
-124.239	325.694	-0.148	0.278
-123.224	-69.151	0.148	0.056
-122.210	187.301	-0.092	-0.136
-121.195	-24.681	-0.061	-0.036
-120.180	14.329	-0.254	0.195
-119.166	76.895	0.198	0.207
-118.151	-112.544	0.111	-0.022
-117.137	27.528	0.049	-0.040
-116.122	-200.000	0.017	0.287
-115.107	254.435	0.048	-0.081
-114.093	-22.216	0.083	-0.050
-113.078	-200.000	-0.005	0.082
-112.064	362.003	0.092	-0.182
-111.049	-200.000	-0.017	0.081
-110.034	19.140	0.097	-0.077
-109.020	-56.722	-0.197	-0.086
-108.005	-149.557	0.292	-0.023
-106.991	-78.015	-0.116	0.039
-105.976	-99.177	0.186	-0.046
-104.962	800.000	-0.065	0.201
-103.947	306.453	0.141	0.258
-102.932	511.236	-0.050	0.115
-101.918	800.000	-0.024	-0.081
-100.903	-200.000	-0.021	-0.109
-99.889	-73.727	0.111	-0.040
-98.874	193.372	-0.046	-0.069
-97.859	158.125	-0.116	0.158
-96.845	162.843	-0.290	0.401
-95.830	147.754	0.160	-0.212
-94.816	233.319	-0.029	0.047
-93.801	-41.562	0.363	-0.184
-92.786	-200.000	-0.073	0.350
-91.772	-129.323	0.336	-0.046
-90.757	-200.000	-0.038	0.252
-89.743	91.466	0.026	-0.029
-88.728	-138.286	0.154	0.017
-87.713	295.107	-0.016	0.029
-86.699	-175.436	-0.234	-0.006
-85.684	-200.000	0.003	0.171
-84.670	-82.234	0.407	0.130
-83.655	-100.456	-0.152	0.037
-82.640	-200.000	-0.055	-0.299
-81.626	-51.579	-0.112	-0.051
-80.611	44.466	0.252	0.228
-79.597	133.376	0.160	-0.204
-78.582	-44.798	0.384	0.188
-77.567	-200.000	-0.004	0.271
-76.553	167.483	0.055	-0.077
-75.538	78.656	0.353	0.371
-74.524	-200.000	-0.006	-0.113
-73.509	800.000	-0.096	0.342
-72.494	-99.498	0.138	0.034
-71.480	-118.169	0.230	0.040
-70.465	33.929	0.134	-0.115
-69.451	71.968	0.051	-0.052
-68.436	-34.732	-0.174	-0.093
-67.422	-52.318	-0.101	0.046
-66.407	-200.000	0.007	-0.273
-65.392	-34.436	0.105	-0.057
-64.378	797.392	0.065	-0.175
-63.363	-72.703	0.060	0.022
-62.349	800.000	0.107	0.389
-61.334	71.110	-0.985	-1.004
-60.319	800.000	0.223	0.638
-59.305	-200.000	-0.193	-1.151
-58.290	169.200	0.678	0.950
-57.276	421.517	0.861	1.814
-56.261	-200.000	100.869	600.342
-55.246	587.889	1407.916	3405.911
-54.232	193.307	2586.355	3842.450
-53.217	118.330	2130.363	2581.499
-52.203	43.008	1586.072	1420.940
-51.188	34.668	1322.623	1135.540
-50.173	31.389	1281.126	1080.943
-49.159	55.009	1331.832	1263.506
-48.144	56.718	1348.798	1289.614
-47.130	34.756	1305.388	1121.081
-46.115	31.243	1287.165	1085.019
-45.100	30.997	1282.693	1079.780
-44.086	30.968	1280.277	1077.535
-43.071	30.991	1277.712	1075.469
-42.057	30.961	1275.904	1073.730
-41.042	30.975	1274.501	1072.589
-40.027	31.043	1272.778	1071.489
-39.013	31.005	1271.108	1069.822
-37.998	30.925	1269.562	1068.017
-36.984	31.128	1267.104	1067.071
-35.969	31.028	1265.777	1065.336
-34.954	31.028	1264.271	1064.025
-33.940	31.029	1263.004	1062.923
-32.925	31.088	1261.720	1062.136
-31.911	31.088	1260.413	1060.994
-30.896	31.133	1258.984	1060.008
-29.881	31.243	1257.379	1059.234
-28.867	31.170	1256.148	1057.747
-27.852	31.086	1254.996	1056.259
-26.838	31.174	1253.234	1055.228
-25.823	31.233	1251.697	1054.228
-24.809	31.147	1250.478	1052.672
-23.794	31.056	1249.478	1051.278
-22.779	31.148	1247.968	1050.479
-21.765	31.059	1246.942	1049.078
-20.750	31.040	1245.581	1047.781
-19.736	31.061	1243.969	1046.505
-18.721	31.007	1242.765	1045.145
-17.706	31.018	1242.086	1044.596
-16.692	31.044	1240.244	1043.152
-15.677	30.987	1239.561	1042.213
-14.663	31.001	1238.209	1041.117
-13.648	30.915	1237.668	1040.140
-12.633	31.043	1236.414	1039.760
-11.619	30.970	1235.779	1038.775
-10.604	30.951	1234.992	1037.965
-9.590	31.045	1233.858	1037.495
-8.575	31.086	1232.555	1036.586
-7.560	31.032	1231.973	1035.756
-6.546	30.956	1231.323	1034.747
-5.531	30.895	1230.759	1033.892
-4.517	31.012	1229.240	1033.224
-3.502	30.958	1228.583	1032.333
-2.487	31.068	1227.595	1032.072
-1.473	30.842	1223.954	1027.721
-0.458	29.309	1208.790	1006.587
0.556	27.322	1191.027	968.553
1.571	23.475	1195.545	951.542
2.586	22.412	1209.912	957.117
3.600	21.863	1198.911	945.372
4.615	16.542	1128.735	862.883
5.629	7.793	1055.123	764.643
6.644	3.942	1036.016	732.523
7.659	3.639	1033.442	729.207
8.673	3.495	1031.660	727.206
9.688	3.446	1030.751	726.270
10.702	3.814	1029.166	726.822
11.717	9.468	1036.609	758.726
12.731	18.434	1049.124	810.410
13.746	23.320	1055.181	838.199
14.761	24.164	1055.830	842.634
15.775	23.511	1054.479	838.395
16.790	22.952	1053.021	834.526
17.804	22.497	1052.134	831.599
18.819	22.539	1051.400	831.144
19.834	22.562	1051.090	830.935
20.848	22.668	1050.745	831.089
21.863	22.561	1049.652	829.645
22.877	22.380	1049.081	828.271
23.892	22.273	1048.914	827.562
24.907	22.317	1047.279	826.406
25.921	22.232	1046.406	825.243
26.936	22.091	1045.211	823.565
27.950	22.133	1043.788	822.571
28.965	22.149	1042.160	821.291
29.980	22.378	1040.848	821.251
30.994	22.518	1039.983	821.150
32.009	22.515	1039.135	820.392
33.023	22.460	1038.397	819.482
34.038	22.367	1037.556	818.311
35.053	22.284	1036.391	816.935
36.067	22.166	1035.752	815.812
37.082	22.211	1035.165	815.485
38.096	22.403	1033.939	815.337
39.111	22.453	1033.671	815.286
40.126	22.162	1032.326	812.809
41.140	21.777	1030.666	809.652
42.155	21.773	1028.778	808.076
43.169	21.616	1028.190	806.820
44.184	21.645	1027.225	806.127
45.199	21.511	1026.525	804.887
46.213	21.914	1025.412	805.797
47.228	22.168	1025.514	806.970
48.242	22.403	1024.965	807.544
49.257	22.308	1023.538	805.913
50.271	22.469	1023.122	806.254
51.286	22.551	1022.246	805.866
52.301	22.461	1021.356	804.680
53.315	22.329	1020.459	803.302
54.330	22.164	1018.991	801.324
55.344	21.956	1018.425	799.861
56.359	21.923	1017.527	798.933
57.374	21.863	1016.920	798.112
58.388	21.848	1015.283	796.688
59.403	21.581	1015.250	795.378
60.417	21.601	1014.380	794.717
61.432	21.636	1013.812	794.360
62.447	21.559	1012.414	792.846
63.461	21.425	1012.271	792.056
64.476	21.436	1010.864	790.938
65.490	21.485	1009.857	790.302
66.505	21.492	1009.644	790.096
67.520	21.565	1009.041	789.884
68.534	21.400	1007.964	788.228
69.549	21.308	1007.373	787.281
70.563	21.101	1006.403	785.522
71.578	20.977	1005.620	784.280
72.593	20.833	1004.646	782.808
73.607	20.843	1004.085	782.343
74.622	21.090	1003.516	782.943
75.636	21.096	1002.703	782.262
76.651	21.222	1002.052	782.251
77.666	21.136	1002.090	781.827
78.680	21.223	1001.083	781.360
79.695	21.121	1000.860	780.662
80.709	21.439	1000.098	781.421
81.724	21.550	999.338	781.249
82.739	21.635	999.159	781.421
83.753	22.252	999.138	784.087
84.768	22.637	998.447	785.191
85.782	22.922	997.630	785.747
86.797	22.734	997.008	784.352
87.812	22.517	995.760	782.339
88.826	22.574	994.907	781.849
89.841	22.610	994.735	781.807
90.855	22.736	993.111	781.018
91.870	22.719	992.526	780.414
92.884	22.676	991.415	779.280
93.899	22.581	990.805	778.314
94.914	22.581	989.979	777.596
95.928	22.541	988.890	776.495
96.943	22.389	987.784	774.890
97.957	22.250	987.234	773.776
98.972	22.417	986.029	773.499
99.987	22.534	985.062	773.185
101.001	22.325	984.105	771.447
102.016	22.358	983.722	771.224
103.030	22.508	982.781	771.075
104.045	22.598	982.088	770.855
105.060	22.331	981.047	768.807
106.074	22.086	979.638	766.566
107.089	21.871	978.884	764.971
108.103	21.725	977.689	763.331
109.118	21.494	976.055	760.982
110.133	21.318	975.529	759.743
111.147	21.398	974.420	759.160
112.162	21.396	973.673	758.501
113.176	21.661	973.156	759.179
114.191	21.717	972.690	758.992
115.206	21.557	972.187	757.839
116.220	21.569	971.067	756.950
117.235	21.552	970.042	756.010
118.249	21.382	969.358	754.678
119.264	21.113	968.608	752.864
120.279	21.164	967.405	752.085
121.293	21.152	966.403	751.186
122.308	20.900	966.059	749.771
123.322	20.945	964.630	748.789
124.337	20.953	963.203	747.648
125.352	20.930	962.677	747.076
126.366	20.988	961.494	746.337
127.381	21.179	961.187	746.850
128.395	21.305	960.630	746.893
129.410	21.358	959.484	746.161
130.424	21.527	959.084	746.505
131.439	21.708	958.283	746.588
132.454	21.729	958.159	746.513
133.468	21.699	956.725	745.200
134.483	21.716	955.843	744.522
135.497	21.691	955.340	743.959
136.512	21.763	954.414	743.475
137.527	21.749	953.274	742.462
138.541	21.889	953.007	742.782
139.556	21.937	952.242	742.325
140.570	22.056	952.105	742.654
141.585	22.356	951.224	743.170
142.600	22.481	950.549	743.101
143.614	22.453	950.328	742.748
144.629	22.699	949.319	742.928
145.643	22.497	948.270	741.190
146.658	22.257	946.651	738.854
147.673	22.076	945.384	737.038
148.687	21.930	944.217	735.453
149.702	21.803	943.274	734.120
150.716	21.850	942.206	733.419
151.731	21.973	942.036	733.738
152.746	22.075	941.333	733.551
153.760	22.020	941.110	733.082
154.775	22.140	941.079	733.495
155.789	22.166	940.040	732.728
156.804	22.274	938.653	732.033
157.819	22.272	938.476	731.822
158.833	22.465	937.874	732.088
159.848	22.592	937.480	732.243
160.862	22.395	936.188	730.352
161.877	22.144	934.230	727.723
162.892	21.675	933.296	724.988
163.906	21.804	932.023	724.472
164.921	21.727	931.484	723.667
165.935	21.745	930.923	723.243
166.950	21.846	930.050	722.918
167.964	22.141	928.995	723.247
168.979	21.730	928.315	720.966
169.994	21.844	927.162	720.474
171.008	22.105	926.669	721.099
172.023	22.359	926.699	722.100
173.037	22.501	925.954	722.037
174.052	22.306	924.700	720.199
175.067	21.716	923.742	716.974
176.081	21.553	922.823	715.532
177.096	21.596	922.024	715.025
178.110	21.570	921.032	714.083
179.125	21.563	921.309	714.208
180.140	21.815	920.851	714.815
181.154	22.032	921.013	715.763
182.169	22.176	920.941	716.231
183.183	22.321	920.195	716.179
184.198	22.186	919.332	714.896
185.213	22.267	918.281	714.341
186.227	22.201	917.760	713.607
187.242	22.259	917.626	713.674
188.256	22.445	916.925	713.821
189.271	22.472	916.008	713.151
190.286	22.220	914.811	711.138
191.300	21.596	913.620	707.629
192.315	21.203	913.276	705.712
193.329	21.374	912.439	705.692
194.344	21.649	911.891	706.315
195.359	21.793	912.066	706.969
196.373	22.062	911.215	707.332
197.388	22.438	910.958	708.581
198.402	22.601	911.012	709.219
199.417	22.845	910.384	709.648
200.432	22.809	910.493	709.525
201.446	22.896	909.834	709.296
202.461	23.099	909.361	709.680
203.475	22.715	908.241	707.202
204.490	22.249	907.144	704.420
205.504	22.255	906.163	703.623
206.519	22.314	905.498	703.277
207.534	22.317	904.632	702.554
208.548	22.208	904.658	702.080
209.563	22.353	903.582	701.759
210.577	22.271	903.453	701.272
211.592	22.748	902.686	702.513
212.607	22.865	902.075	702.439
213.621	22.729	901.309	701.240
214.636	22.623	901.458	700.875
215.650	22.548	900.159	699.504
216.665	22.662	899.458	699.348
217.680	22.743	899.277	699.467
218.694	22.828	898.313	698.993
219.709	22.754	897.537	698.035
220.723	22.565	896.614	696.507
221.738	22.497	895.606	695.394
222.753	22.450	895.217	694.845
223.767	22.511	895.113	694.943
224.782	22.916	894.618	696.094
225.796	22.880	894.097	695.485
226.811	22.705	893.112	693.969
227.826	22.299	891.950	691.408
228.840	22.363	891.499	691.251
229.855	22.332	890.858	690.570
230.869	22.203	890.303	689.573
231.884	22.188	889.543	688.866
232.899	22.184	888.871	688.266
233.913	21.993	888.182	686.925
234.928	21.812	887.285	685.466
235.942	21.811	886.777	685.007
236.957	21.829	886.212	684.581
237.972	21.946	885.635	684.529
238.986	21.965	885.017	684.066
240.001	21.865	884.412	683.148
241.015	22.073	883.953	683.544
242.030	22.036	884.021	683.389
243.045	22.252	883.017	683.395
244.059	22.316	882.604	683.262
245.074	22.440	882.241	683.401
246.088	22.534	881.986	683.507
247.103	22.802	881.206	683.884
248.117	23.081	881.025	684.760
249.132	23.453	881.368	686.409
250.147	23.851	880.940	687.555
251.161	23.979	879.988	687.245
252.176	23.861	879.590	686.417
253.190	23.848	879.037	685.877
254.205	23.921	878.154	685.407
255.220	23.786	877.103	684.007
256.234	23.497	876.730	682.542
257.249	23.606	876.589	682.790
258.263	23.394	875.976	681.439
259.278	23.499	875.004	681.025
260.293	23.675	874.387	681.161
261.307	23.709	874.126	681.029
262.322	23.679	873.476	680.344
263.336	23.694	872.624	679.678
264.351	23.455	871.781	678.049
265.366	23.592	871.481	678.279
266.380	23.720	870.932	678.282
267.395	23.550	870.159	676.972
268.409	23.528	869.118	676.016
269.424	23.371	868.368	674.775
270.439	23.413	867.712	674.366
271.453	23.259	867.084	673.235
272.468	23.193	866.656	672.589
273.482	23.247	866.109	672.311
274.497	23.289	865.344	671.818
275.512	23.271	865.134	671.525
276.526	23.386	864.412	671.343
277.541	23.412	864.385	671.361
278.555	23.751	864.197	672.440
279.570	23.966	863.262	672.463
280.585	23.736	862.527	670.965
281.599	23.416	861.814	669.143
282.614	23.124	860.446	666.920
283.628	23.046	860.194	666.371
284.643	23.205	859.332	666.245
285.657	23.187	858.659	665.595
286.672	23.232	858.448	665.540
287.687	23.305	858.009	665.418
288.701	23.352	857.302	664.987
289.716	23.327	856.934	664.549
290.730	23.447	856.137	664.319
291.745	23.469	855.692	663.998
292.760	23.579	855.155	663.936
293.774	23.941	855.279	665.327
294.789	23.867	854.486	664.375
295.803	23.518	853.583	662.310
296.818	23.317	852.392	660.578
297.833	23.319	851.956	660.188
298.847	23.393	850.999	659.666
299.862	23.511	850.820	659.908
300.876	23.691	850.699	660.425
301.891	24.095	850.083	661.390
302.906	23.979	849.892	660.751
303.920	24.162	849.681	661.208
304.935	24.365	849.080	661.433
305.949	24.175	847.963	659.801
306.964	23.797	847.323	657.844
307.979	23.686	846.809	656.977
308.993	23.813	846.356	657.038
310.008	24.086	845.864	657.608
311.022	23.868	845.139	656.179
312.037	23.653	844.401	654.757
313.052	23.384	843.395	652.927
314.066	23.052	842.726	651.131
315.081	23.170	842.192	651.092
316.095	23.250	841.836	651.053
317.110	23.286	841.010	650.489
318.125	23.095	840.478	649.320
319.139	22.838	840.116	648.040
320.154	23.020	839.444	648.130
321.168	22.998	839.510	648.046
322.183	23.251	838.655	648.254
323.197	23.295	838.422	648.178
324.212	23.327	837.515	647.538
325.227	23.352	836.787	647.006
326.241	23.083	836.597	645.820
327.256	23.089	836.115	645.412
328.270	23.116	835.536	645.006
329.285	22.998	834.724	643.896
330.300	22.933	833.876	642.946
331.314	23.103	833.651	643.335
332.329	23.449	833.342	644.295
333.343	23.579	833.319	644.694
334.358	23.766	832.486	644.670
335.373	23.636	832.270	643.977
336.387	23.825	832.077	644.454
337.402	23.839	832.287	644.611
338.416	24.175	831.812	645.403
339.431	24.312	831.707	645.760
340.446	24.466	831.518	646.113
341.460	24.570	831.129	646.131
342.475	24.577	831.015	646.012
343.489	24.794	830.446	646.295
344.504	24.735	830.092	645.750
345.519	24.742	829.967	645.621
346.533	24.624	828.976	644.368
347.548	24.421	828.044	642.856
348.562	24.031	827.295	640.812
349.577	23.873	826.679	639.708
350.592	23.813	825.484	638.514
351.606	23.598	824.939	637.264
352.621	23.625	824.545	636.998
353.635	23.726	824.083	636.947
354.650	23.858	822.940	636.481
355.665	23.883	822.699	636.328
356.679	23.965	822.286	636.244
357.694	23.921	821.880	635.717
358.708	23.854	821.011	634.750
359.723	23.732	820.558	633.908
360.738	23.788	820.107	633.703
361.752	24.013	819.547	634.015
362.767	24.379	819.170	634.970
363.781	24.580	818.995	635.494
364.796	24.888	818.346	636.031
365.810	24.868	818.063	635.683
366.825	24.868	817.939	635.531
367.840	24.808	817.519	634.934
368.854	24.394	816.647	632.733
369.869	24.228	815.896	631.508
370.883	24.289	815.729	631.538
371.898	24.731	815.344	632.748
372.913	24.827	814.856	632.655
373.927	24.607	813.995	631.151
374.942	24.407	813.868	630.290
375.956	24.715	813.565	631.086
376.971	24.915	812.962	631.269
377.986	24.987	812.823	631.358
379.000	24.979	812.599	631.101
380.015	24.861	811.809	630.017
381.029	24.757	810.964	628.939
382.044	25.078	810.234	629.444
383.059	25.131	809.959	629.360
384.073	24.750	809.117	627.315
385.088	24.299	808.291	625.040
386.102	24.245	807.702	624.338
387.117	24.151	806.754	623.221
388.132	24.107	806.023	622.447
389.146	24.319	805.571	622.785
390.161	24.613	805.723	623.874
391.175	24.785	805.564	624.296
392.190	24.592	804.635	622.847
393.205	24.244	803.755	620.901
394.219	24.084	803.161	619.828
395.234	23.835	802.902	618.708
396.248	23.939	802.767	618.912
397.263	24.055	801.874	618.570
398.278	23.956	801.201	617.653
399.292	23.717	800.925	616.557
400.307	23.889	800.272	616.594
401.321	23.904	799.898	616.305
402.336	24.208	800.133	617.485
403.350	24.474	799.822	618.112
404.365	24.699	799.751	618.781
405.380	25.201	799.014	619.890
406.394	25.169	798.884	619.625
407.409	25.188	798.830	619.594
408.423	25.251	798.400	619.424
409.438	25.313	798.162	619.398
410.453	25.303	797.314	618.651
411.467	25.272	796.490	617.850
412.482	25.329	796.470	617.974
413.496	25.514	796.041	618.223
414.511	25.382	795.789	617.520
415.526	25.405	794.767	616.751
416.540	25.166	794.566	615.720
417.555	25.060	794.192	615.012
418.569	25.321	793.476	615.298
419.584	25.153	793.190	614.445
420.599	25.209	792.582	614.113
421.613	162.951	1370.405	1795.365
422.628	141.287	1454.606	1795.468
