DTS Sentinel unit serial number:	SN413079Multiplexer serial number:	ORYXHardware model number:	OX4-SRSoftware version number:	ORYX F/W v4.00 Oryx Data Collector v3.7.2.0data status	okinstallation	princeton_trtdifferential loss correction	single-endedforward channel	channel 1reverse channel	N/Adate	2019/09/19time	01:54:35forward acquisition time	60.00reverse acquisition time	0.00gamma	496.2192k internal	0.2344k external	0.2344temperature offset calibration	1.0022default loss term (dB/km)	0.3790temperature slope calibration	1.0000multiplexer offset coefficient	1.0000multiplexer slope coefficient	1.0000fibre end	0.00T internal ref (°C)	21.31T ext. ref 1 (°C)	0.69T ext. ref 2 (°C)	14.77length (m)	temperature (°C)	Stokes	anti-Stokes-747.200	14.224	-0.058	-0.045
-746.185	169.188	-0.269	0.384
-745.171	-200.000	-0.032	0.295
-744.156	-88.301	-0.317	-0.095
-743.142	-111.528	-0.253	0.051
-742.127	-75.877	-0.028	-0.010
-741.112	235.692	-0.037	-0.061
-740.098	200.579	0.164	0.252
-739.083	-7.515	-0.103	-0.070
-738.069	152.332	-0.135	0.185
-737.054	52.707	-0.233	-0.222
-736.039	249.188	0.143	-0.242
-735.025	80.632	-0.044	-0.048
-734.010	124.029	-0.138	-0.173
-732.996	44.153	-0.264	-0.242
-731.981	800.000	-0.099	-0.358
-730.966	-200.000	0.003	-0.044
-729.952	-169.912	0.342	0.012
-728.937	51.113	0.033	0.031
-727.923	129.928	-0.105	-0.135
-726.908	235.822	-0.179	0.295
-725.894	-39.201	-0.107	-0.056
-724.879	-200.000	-0.009	0.155
-723.864	191.649	0.084	0.126
-722.850	741.363	0.059	0.159
-721.835	576.478	-0.119	-0.290
-720.821	-182.371	-0.105	-0.002
-719.806	-69.735	-0.137	-0.052
-718.791	-200.000	-0.015	0.271
-717.777	-127.820	-0.117	0.017
-716.762	57.222	-0.119	-0.116
-715.748	402.397	0.131	-0.275
-714.733	-100.827	0.268	-0.066
-713.718	-93.281	-0.094	0.026
-712.704	-82.688	-0.309	0.100
-711.689	-63.927	-0.304	0.124
-710.675	-200.000	-0.008	-0.164
-709.660	800.000	0.084	-0.299
-708.645	6.821	0.244	-0.182
-707.631	-121.372	0.528	0.088
-706.616	85.284	-0.296	-0.325
-705.602	-200.000	0.004	-0.247
-704.587	-200.000	0.060	-0.322
-703.572	-8.725	-0.184	-0.123
-702.558	-69.626	0.177	-0.068
-701.543	204.795	-0.046	0.072
-700.529	-200.000	-0.057	0.302
-699.514	103.104	-0.233	0.273
-698.499	800.000	-0.022	-0.071
-697.485	-21.290	0.114	0.070
-696.470	136.801	0.087	0.113
-695.456	51.986	-0.076	-0.072
-694.441	623.838	-0.062	-0.156
-693.426	115.417	-0.111	-0.135
-692.412	335.070	-0.165	0.319
-691.397	-114.898	-0.187	-0.036
-690.383	176.784	-0.171	-0.248
-689.368	800.000	0.039	0.170
-688.354	800.000	-0.029	-0.123
-687.339	673.787	-0.095	-0.246
-686.324	235.146	-0.139	-0.230
-685.310	-53.915	0.057	0.026
-684.295	-93.909	0.173	0.047
-683.281	-72.038	-0.175	0.065
-682.266	-200.000	0.004	0.196
-681.251	-198.493	-0.254	0.001
-680.237	-137.842	-0.020	0.002
-679.222	-97.507	-0.165	0.043
-678.208	190.630	0.070	-0.105
-677.193	215.761	-0.086	-0.136
-676.178	-28.952	0.054	0.031
-675.164	-62.338	-0.345	-0.143
-674.149	-26.345	-0.224	0.131
-673.135	249.629	0.181	-0.306
-672.120	42.875	-0.024	-0.022
-671.105	-75.468	0.392	0.139
-670.091	426.505	-0.103	-0.222
-669.076	-200.000	-0.002	-0.128
-668.062	15.530	-0.132	0.104
-667.047	93.352	-0.233	-0.263
-666.032	251.938	-0.151	-0.256
-665.018	-16.731	0.078	-0.049
-664.003	102.433	0.197	0.229
-662.989	151.882	0.131	0.179
-661.974	-200.000	0.020	-0.170
-660.959	-65.845	0.328	0.131
-659.945	800.000	-0.066	-0.183
-658.930	127.605	0.185	-0.235
-657.916	-168.963	0.397	0.015
-656.901	97.969	-0.178	-0.204
-655.886	-26.623	-0.281	0.164
-654.872	-200.000	0.003	-0.339
-653.857	-173.247	0.175	0.005
-652.843	800.000	-0.046	-0.172
-651.828	35.154	-0.093	0.081
-650.814	-200.000	-0.026	0.253
-649.799	111.013	0.100	0.120
-648.784	-130.521	0.039	-0.005
-647.770	420.045	-0.125	-0.268
-646.755	-149.359	-0.048	0.004
-645.741	-29.751	-0.107	0.061
-644.726	-32.903	0.056	-0.031
-643.711	-200.000	-0.005	0.216
-642.697	-73.998	-0.058	-0.021
-641.682	327.095	-0.199	-0.380
-640.668	34.272	-0.222	0.193
-639.653	-18.313	-0.239	0.149
-638.638	800.000	-0.111	0.358
-637.624	-200.000	0.061	-0.419
-636.609	44.699	0.282	-0.259
-635.595	800.000	-0.067	-0.215
-634.580	-73.319	0.331	-0.121
-633.565	-170.028	0.276	-0.010
-632.551	800.000	0.019	0.071
-631.536	17.018	0.166	0.131
-630.522	-200.000	-0.016	-0.177
-629.507	25.134	-0.233	-0.193
-628.492	120.278	0.059	0.073
-627.478	608.898	-0.091	-0.225
-626.463	-200.000	0.010	-0.066
-625.449	800.000	0.028	-0.120
-624.434	538.091	0.084	-0.198
-623.419	-200.000	0.017	0.154
-622.405	-74.172	-0.324	-0.117
-621.390	-162.143	0.333	-0.017
-620.376	41.081	-0.145	0.131
-619.361	-59.765	-0.121	0.052
-618.346	-20.071	-0.343	-0.210
-617.332	297.623	0.165	0.301
-616.317	800.000	-0.079	0.314
-615.303	191.331	0.071	0.107
-614.288	183.050	0.096	0.141
-613.273	-157.252	-0.138	0.008
-612.259	-200.000	0.015	0.137
-611.244	800.000	0.040	0.160
-610.230	-10.438	-0.245	0.161
-609.215	238.998	-0.225	0.373
-608.201	800.000	-0.037	-0.151
-607.186	-157.251	0.354	-0.021
-606.171	126.754	0.038	-0.048
-605.157	382.786	0.040	-0.081
-604.142	-165.113	-0.142	-0.006
-603.128	-101.864	-0.205	-0.049
-602.113	-180.863	-0.403	0.008
-601.098	-200.000	-0.044	-0.221
-600.084	69.884	-0.108	-0.111
-599.069	-200.000	0.018	0.180
-598.055	-151.591	0.193	0.014
-597.040	-68.465	-0.219	0.084
-596.025	111.621	0.231	0.277
-595.011	-200.000	-0.009	-0.132
-593.996	550.388	0.146	-0.348
-592.982	800.000	0.068	-0.211
-591.967	21.987	0.220	0.179
-590.952	-48.666	0.173	0.083
-589.938	25.018	-0.203	0.168
-588.923	499.323	-0.048	0.111
-587.909	-2.674	-0.170	-0.118
-586.894	96.118	-0.237	0.270
-585.879	-200.000	0.037	0.230
-584.865	-9.735	-0.126	0.084
-583.850	-200.000	-0.027	0.155
-582.836	347.105	0.087	0.170
-581.821	-164.670	-0.230	0.010
-580.806	-200.000	-0.016	-0.406
-579.792	39.661	0.134	-0.119
-578.777	411.213	0.079	-0.167
-577.763	96.826	0.117	0.133
-576.748	800.000	-0.054	0.214
-575.733	593.099	-0.130	-0.319
-574.719	-14.370	0.162	0.104
-573.704	-166.702	0.199	-0.008
-572.690	-200.000	-0.007	0.065
-571.675	22.780	0.125	0.102
-570.661	-67.912	0.285	0.111
-569.646	-14.684	0.127	-0.081
-568.631	-70.998	0.329	-0.123
-567.617	800.000	-0.028	-0.078
-566.602	-55.729	-0.464	0.206
-565.588	-132.772	-0.226	-0.029
-564.573	-118.544	-0.281	0.049
-563.558	-200.000	0.071	-0.327
-562.544	-44.195	0.115	0.058
-561.529	-197.679	-0.227	-0.001
-560.515	-22.496	-0.155	-0.093
-559.500	-200.000	0.052	-0.228
-558.485	800.000	0.084	-0.357
-557.471	-117.934	0.098	-0.017
-556.456	-152.428	-0.347	-0.025
-555.442	800.000	0.070	-0.221
-554.427	-47.335	0.307	-0.148
-553.412	-143.455	-0.387	0.037
-552.398	-87.334	0.136	0.041
-551.383	-85.414	0.335	0.104
-550.369	800.000	-0.082	0.244
-549.354	-63.843	-0.120	-0.049
-548.339	-196.739	0.292	0.002
-547.325	-3.920	0.204	0.141
-546.310	290.971	0.061	0.111
-545.296	368.068	0.114	-0.229
-544.281	-200.000	-0.020	-0.086
-543.266	-136.169	-0.211	-0.025
-542.252	33.098	-0.239	-0.206
-541.237	147.344	0.130	-0.174
-540.223	71.797	0.105	-0.108
-539.208	13.072	-0.188	-0.144
-538.193	800.000	-0.068	0.273
-537.179	-164.226	0.225	-0.010
-536.164	800.000	0.049	-0.154
-535.150	-32.894	0.080	-0.044
-534.135	775.933	-0.105	0.285
-533.121	-80.805	0.078	0.026
-532.106	20.157	0.066	-0.053
-531.091	800.000	0.032	-0.140
-530.077	-26.512	-0.181	0.105
-529.062	161.055	0.280	0.389
-528.048	-82.764	0.267	-0.086
-527.033	69.231	0.117	-0.120
-526.018	-7.318	0.176	0.119
-525.004	145.171	0.042	0.056
-523.989	800.000	-0.075	0.290
-522.975	-129.309	-0.278	-0.038
-521.960	-138.056	-0.054	-0.006
-520.945	800.000	-0.066	0.250
-519.931	-90.969	-0.253	-0.072
-518.916	340.377	-0.197	-0.381
-517.902	-200.000	0.082	-0.384
-516.887	800.000	0.042	0.125
-515.872	45.489	-0.362	-0.332
-514.858	-200.000	-0.010	-0.236
-513.843	93.437	0.243	0.273
-512.829	-143.940	-0.094	-0.009
-511.814	54.810	0.260	0.249
-510.799	-200.000	0.026	0.257
-509.785	-200.000	0.011	-0.106
-508.770	-27.068	-0.121	-0.070
-507.756	-200.000	-0.004	0.017
-506.741	800.000	-0.089	0.290
-505.726	-57.129	0.242	-0.106
-504.712	90.472	0.094	-0.104
-503.697	-131.680	-0.414	0.054
-502.683	-200.000	0.059	0.386
-501.668	-146.708	-0.265	-0.023
-500.653	-13.453	0.072	0.046
-499.639	-170.037	-0.029	0.001
-498.624	-86.621	0.036	0.011
-497.610	-200.000	-0.014	-0.075
-496.595	-48.004	0.417	-0.200
-495.581	56.929	0.105	-0.101
-494.566	-200.000	-0.034	-0.267
-493.551	153.445	0.259	0.352
-492.537	3.028	-0.115	-0.083
-491.522	-82.696	-0.326	0.105
-490.508	56.714	0.125	-0.120
-489.493	54.207	-0.086	0.082
-488.478	200.603	-0.250	-0.381
-487.464	299.108	0.111	-0.202
-486.449	-147.646	-0.113	0.009
-485.435	12.505	-0.077	0.059
-484.420	-4.817	-0.103	0.070
-483.405	26.499	0.259	-0.215
-482.391	-1.296	-0.219	-0.153
-481.376	195.095	0.202	-0.304
-480.362	-79.730	0.128	-0.043
-479.347	94.515	0.050	0.057
-478.332	-200.000	-0.017	-0.098
-477.318	17.240	0.155	-0.121
-476.303	390.764	0.036	-0.074
-475.289	-173.131	-0.024	0.001
-474.274	-200.000	-0.090	0.564
-473.259	-62.654	-0.233	-0.096
-472.245	-200.000	-0.031	-0.182
-471.230	-200.000	0.044	-0.420
-470.216	315.026	-0.133	-0.248
-469.201	-200.000	-0.010	0.281
-468.186	326.952	-0.078	-0.148
-467.172	259.003	0.041	-0.070
-466.157	427.125	-0.158	0.338
-465.143	46.887	-0.115	0.106
-464.128	30.483	0.219	0.186
-463.113	-97.294	-0.495	0.128
-462.099	-159.534	0.176	-0.010
-461.084	-71.442	-0.366	-0.136
-460.070	-200.000	-0.032	-0.171
-459.055	285.992	0.181	-0.323
-458.040	-42.102	-0.122	0.062
-457.026	-188.241	0.106	0.001
-456.011	19.324	-0.216	-0.172
-454.997	287.824	0.159	-0.284
-453.982	-2.816	-0.107	0.074
-452.968	25.768	0.224	0.185
-451.953	468.607	0.125	0.279
-450.938	800.000	0.018	-0.075
-449.924	800.000	0.009	0.026
-448.909	-200.000	0.448	0.000
-447.895	138.146	-0.129	0.167
-446.880	133.041	0.124	0.159
-445.865	-200.000	0.050	-0.226
-444.851	-62.723	0.205	0.084
-443.836	164.971	-0.147	-0.205
-442.822	772.245	-0.126	-0.340
-441.807	39.106	-0.199	-0.176
-440.792	-37.813	0.170	-0.089
-439.778	187.267	0.060	-0.089
-438.763	-141.440	-0.075	0.008
-437.749	800.000	-0.059	0.232
-436.734	-127.500	0.210	0.030
-435.719	-4.937	0.416	0.283
-434.705	27.739	0.123	-0.102
-433.690	-200.000	-0.020	-0.115
-432.676	38.936	0.140	0.124
-431.661	-4.659	-0.103	-0.070
-430.646	71.057	-0.163	0.167
-429.632	800.000	-0.035	0.120
-428.617	-113.528	0.294	-0.057
-427.603	-200.000	0.007	-0.092
-426.588	685.279	-0.015	-0.039
-425.573	-110.997	0.162	0.033
-424.559	-161.393	0.157	-0.008
-423.544	-5.540	-0.139	0.094
-422.530	800.000	0.052	-0.162
-421.515	42.558	-0.266	0.239
-420.500	236.160	0.111	-0.181
-419.486	-200.000	-0.042	-0.192
-418.471	-89.154	-0.521	-0.152
-417.457	800.000	-0.053	-0.180
-416.442	-200.000	-0.057	0.326
-415.428	109.326	0.168	0.198
-414.413	304.434	-0.167	0.306
-413.398	-142.527	-0.161	-0.016
-412.384	-200.000	-0.009	0.120
-411.369	134.570	0.109	-0.140
-410.355	-2.037	0.079	-0.055
-409.340	482.270	0.174	0.391
-408.325	287.115	-0.164	-0.293
-407.311	-8.188	0.358	0.238
-406.296	42.543	-0.200	-0.180
-405.282	134.098	0.155	-0.198
-404.267	-14.662	-0.038	0.024
-403.252	424.912	-0.051	-0.108
-402.238	-101.933	0.049	-0.012
-401.223	-200.000	0.005	0.214
-400.209	73.949	0.086	0.089
-399.194	-30.048	-0.165	-0.093
-398.179	-200.000	0.040	-0.296
-397.165	-173.286	0.179	-0.005
-396.150	-7.045	-0.147	-0.098
-395.136	88.820	0.184	0.202
-394.121	255.313	-0.060	0.101
-393.106	-133.710	-0.268	0.033
-392.092	-200.000	0.008	-0.094
-391.077	8.448	-0.393	0.292
-390.063	-200.000	-0.014	-0.249
-389.048	800.000	0.132	0.369
-388.033	-163.522	0.146	-0.007
-387.019	-200.000	0.050	-0.327
-386.004	247.480	0.185	-0.309
-384.990	-200.000	0.037	0.162
-383.975	93.897	-0.171	0.192
-382.960	66.545	0.235	-0.236
-381.946	-72.668	0.097	0.035
-380.931	-82.758	0.261	-0.083
-379.917	-200.000	-0.029	-0.177
-378.902	65.859	-0.158	-0.158
-377.888	533.721	-0.071	0.165
-376.873	-111.001	-0.050	-0.010
-375.858	506.548	-0.128	0.292
-374.844	-11.949	-0.180	0.117
-373.829	254.182	-0.174	-0.293
-372.815	-5.767	0.210	0.142
-371.800	-41.226	-0.180	0.092
-370.785	414.979	0.044	0.092
-369.771	314.073	-0.110	0.204
-368.756	494.769	0.054	0.122
-367.742	34.278	-0.205	-0.176
-366.727	7.925	0.156	-0.116
-365.712	106.954	-0.022	-0.026
-364.698	-54.236	-0.094	-0.042
-363.683	68.346	-0.190	-0.192
-362.669	800.000	-0.016	-0.067
-361.654	91.602	0.023	0.025
-360.639	-76.980	-0.434	0.149
-359.625	135.847	0.348	0.446
-358.610	308.155	0.063	-0.117
-357.596	70.871	0.260	0.265
-356.581	228.677	-0.196	0.315
-355.566	46.540	0.206	0.188
-354.552	135.316	0.141	-0.180
-353.537	-95.719	-0.510	-0.134
-352.523	112.885	-0.169	-0.202
-351.508	364.926	0.126	-0.250
-350.493	-79.161	-0.215	0.072
-349.479	800.000	0.020	-0.061
-348.464	-135.862	0.199	-0.023
-347.450	-122.029	0.298	0.048
-346.435	156.528	0.151	-0.206
-345.420	-41.863	-0.244	0.123
-344.406	27.471	0.254	0.210
-343.391	800.000	-0.038	0.118
-342.377	-63.097	-0.185	-0.075
-341.362	123.594	-0.028	-0.034
-340.348	-200.000	-0.190	0.000
-339.333	50.107	0.056	0.052
-338.318	-162.079	0.218	0.011
-337.304	-116.342	-0.202	-0.037
-336.289	28.483	-0.210	-0.175
-335.275	-54.874	0.099	0.044
-334.260	-99.003	0.460	-0.115
-333.245	79.184	-0.199	0.210
-332.231	-89.729	0.317	-0.092
-331.216	-15.672	-0.082	-0.052
-330.202	47.994	-0.080	-0.073
-329.187	-32.828	0.221	0.121
-328.172	6.596	-0.280	0.205
-327.158	-97.544	0.502	-0.128
-326.143	304.971	-0.209	-0.383
-325.129	-200.000	-0.006	0.282
-324.114	-18.841	-0.076	0.047
-323.099	731.809	0.076	0.200
-322.085	800.000	0.085	0.283
-321.070	-19.512	-0.131	-0.080
-320.056	-42.245	-0.264	0.133
-319.041	-200.000	-0.007	-0.053
-318.026	-3.359	-0.308	0.211
-317.012	-102.835	0.241	0.057
-315.997	545.950	-0.165	0.389
-314.983	800.000	-0.021	-0.070
-313.968	-200.000	0.018	-0.281
-312.953	-132.742	0.227	0.029
-311.939	149.642	0.097	-0.129
-310.924	76.786	0.217	-0.227
-309.910	800.000	-0.039	0.127
-308.895	800.000	0.054	-0.230
-307.880	86.820	0.051	0.056
-306.866	18.631	-0.266	0.209
-305.851	28.513	-0.166	-0.138
-304.837	792.529	0.013	-0.035
-303.822	-61.219	-0.252	-0.105
-302.807	-158.747	-0.129	-0.007
-301.793	-133.297	-0.219	0.027
-300.778	-34.857	-0.206	-0.111
-299.764	-101.981	0.320	-0.076
-298.749	43.993	-0.156	-0.141
-297.735	396.697	-0.152	0.311
-296.720	-124.524	0.300	-0.046
-295.705	-63.192	-0.154	0.063
-294.691	73.698	-0.318	-0.327
-293.676	187.746	0.076	0.111
-292.662	-101.054	0.153	-0.037
-291.647	117.552	-0.197	-0.238
-290.632	367.326	0.115	-0.228
-289.618	-75.129	0.005	-0.002
-288.603	-10.014	0.289	0.189
-287.589	-133.537	0.190	0.023
-286.574	-30.448	-0.286	0.160
-285.559	800.000	0.011	-0.032
-284.545	800.000	-0.085	-0.351
-283.530	419.898	0.158	-0.332
-282.516	-200.000	-0.031	0.160
-281.501	-130.431	0.184	-0.025
-280.486	800.000	0.095	-0.390
-279.472	57.032	0.272	-0.260
-278.457	-50.999	0.092	-0.043
-277.443	-200.000	-0.021	-0.186
-276.428	-3.779	-0.162	0.110
-275.413	16.874	-0.161	0.125
-274.399	26.488	-0.167	-0.137
-273.384	-13.752	-0.300	-0.191
-272.370	-17.227	0.361	0.224
-271.355	33.485	0.164	0.140
-270.340	-138.125	-0.300	0.033
-269.326	-80.730	-0.184	-0.060
-268.311	-138.545	0.232	0.025
-267.297	-37.711	-0.371	0.194
-266.282	-200.000	-0.013	0.095
-265.267	133.532	0.220	-0.280
-264.253	-161.596	-0.365	-0.018
-263.238	-200.000	0.025	0.222
-262.224	800.000	0.223	0.656
-261.209	-25.391	-0.280	0.162
-260.195	-149.201	-0.032	0.003
-259.180	-200.000	0.075	-0.416
-258.165	-200.000	0.014	-0.081
-257.151	344.143	-0.077	0.148
-256.136	346.431	-0.116	0.224
-255.122	328.275	-0.090	-0.170
-254.107	258.542	0.045	0.075
-253.092	-78.865	0.203	-0.068
-252.078	-105.587	-0.173	-0.038
-251.063	379.224	0.139	0.280
-250.049	29.704	0.208	0.174
-249.034	187.189	0.068	0.100
-248.019	18.197	0.006	0.004
-247.005	-49.367	-0.020	0.009
-245.990	211.974	0.274	0.424
-244.976	-18.745	-0.209	-0.128
-243.961	9.004	-0.148	0.109
-242.946	122.701	-0.188	0.231
-241.932	-49.975	0.177	0.082
-240.917	-200.000	0.053	-0.311
-239.903	560.584	0.077	-0.182
-238.888	-110.352	0.322	-0.066
-237.873	221.464	0.045	-0.071
-236.859	-76.121	0.377	-0.131
-235.844	70.433	-0.075	0.076
-234.830	30.266	0.161	0.135
-233.815	218.990	-0.130	-0.204
-232.800	800.000	-0.118	-0.394
-231.786	-49.501	0.146	-0.068
-230.771	-114.718	0.220	0.041
-229.757	-29.887	0.264	-0.148
-228.742	17.847	-0.218	0.171
-227.727	-32.337	-0.288	-0.158
-226.713	-110.831	0.234	-0.047
-225.698	800.000	-0.060	0.194
-224.684	54.721	-0.166	0.157
-223.669	-90.654	-0.170	-0.048
-222.655	174.489	-0.118	-0.168
-221.640	-107.122	-0.207	0.045
-220.625	800.000	-0.064	-0.249
-219.611	-138.917	0.242	-0.026
-218.596	68.637	0.120	0.120
-217.582	327.861	-0.153	-0.288
-216.567	75.176	0.100	0.104
-215.552	800.000	-0.043	0.178
-214.538	-144.983	0.112	0.010
-213.523	-94.285	0.080	-0.022
-212.509	800.000	0.031	0.110
-211.494	74.300	0.204	-0.210
-210.479	-1.328	-0.019	-0.013
-209.465	231.446	-0.134	0.216
-208.450	-200.000	-0.021	-0.181
-207.436	337.594	0.032	-0.061
-206.421	797.312	0.065	0.176
-205.406	800.000	0.086	-0.249
-204.392	-144.728	0.437	0.039
-203.377	800.000	0.057	0.175
-202.363	-6.561	-0.115	-0.077
-201.348	-34.791	-0.093	0.050
-200.333	-200.000	-0.009	0.482
-199.319	53.407	0.154	-0.145
-198.304	800.000	0.132	-0.431
-197.290	-121.231	-0.288	0.047
-196.275	-17.787	0.173	-0.106
-195.260	-111.354	0.200	-0.040
-194.246	76.674	0.045	0.046
-193.231	800.000	-0.074	0.309
-192.217	592.441	0.088	0.214
-191.202	-200.000	-0.030	-0.263
-190.187	106.050	-0.164	-0.190
-189.173	37.760	0.179	0.156
-188.158	170.256	0.129	-0.181
-187.144	80.196	-0.228	-0.240
-186.129	-37.252	0.307	0.161
-185.114	-48.267	0.140	0.066
-184.100	35.651	-0.081	0.070
-183.085	151.793	0.078	0.105
-182.071	-23.849	-0.198	0.116
-181.056	187.149	-0.080	0.116
-180.042	241.029	0.254	0.414
-179.027	204.067	0.060	0.090
-178.012	36.189	-0.083	0.072
-176.998	-157.740	-0.301	-0.018
-175.983	-63.008	0.205	-0.083
-174.969	678.860	-0.094	0.239
-173.954	-200.000	0.048	0.238
-172.939	-117.461	0.218	0.039
-171.925	29.020	-0.178	0.148
-170.910	76.021	-0.232	0.240
-169.896	800.000	-0.079	0.315
-168.881	-65.444	-0.199	-0.078
-167.866	-200.000	0.016	0.093
-166.852	-200.000	-0.008	0.129
-165.837	-57.330	0.162	-0.070
-164.823	47.844	-0.135	-0.124
-163.808	33.382	0.250	0.213
-162.793	362.237	0.095	0.186
-161.779	410.648	0.131	0.271
-160.764	800.000	0.027	0.088
-159.750	55.935	-0.243	-0.231
-158.735	769.449	-0.122	0.324
-157.720	-58.749	0.349	0.148
-156.706	28.825	0.140	0.116
-155.691	97.072	0.192	-0.215
-154.677	-200.000	0.045	-0.314
-153.662	-200.000	-0.020	-0.142
-152.647	-161.832	0.137	0.007
-151.633	-14.095	-0.348	-0.220
-150.618	-200.000	-0.016	-0.099
-149.604	-52.990	0.162	-0.073
-148.589	-200.000	-0.036	0.267
-147.574	800.000	-0.018	0.054
-146.560	277.957	-0.031	0.054
-145.545	-2.954	-0.308	-0.210
-144.531	441.751	0.123	0.262
-143.516	544.414	-0.037	0.086
-142.502	-71.534	-0.466	-0.170
-141.487	-122.234	-0.227	-0.036
-140.472	-53.505	-0.101	-0.045
-139.458	390.142	-0.103	0.209
-138.443	-200.000	-0.087	0.454
-137.429	-83.386	-0.092	-0.029
-136.414	-102.438	0.054	0.013
-135.399	99.565	0.269	-0.304
-134.385	-103.038	-0.067	0.015
-133.370	-146.298	0.296	0.025
-132.356	-163.066	-0.336	0.016
-131.341	-145.527	0.444	-0.039
-130.326	-95.069	-0.195	0.051
-129.312	101.656	0.244	0.278
-128.297	4.822	0.130	-0.093
-127.283	47.771	-0.180	-0.164
-126.268	269.851	0.147	0.252
-125.253	-141.852	-0.330	0.032
-124.239	-200.000	-0.050	0.217
-123.224	7.015	-0.347	0.253
-122.210	419.253	0.155	0.325
-121.195	335.356	-0.204	0.386
-120.180	-200.000	0.005	-0.264
-119.166	-9.190	0.316	-0.207
-118.151	800.000	-0.141	-0.439
-117.137	252.259	-0.256	-0.427
-116.122	-200.000	-0.011	-0.090
-115.107	-200.000	0.015	-0.067
-114.093	113.067	-0.062	0.074
-113.078	-96.736	0.486	0.125
-112.064	608.583	-0.069	-0.168
-111.049	-200.000	0.034	0.215
-110.034	5.286	0.177	0.127
-109.020	-200.000	-0.077	-0.390
-108.005	51.210	-0.136	-0.126
-106.991	99.819	0.064	0.073
-105.976	296.984	0.090	0.161
-104.962	397.329	0.111	-0.227
-103.947	12.895	0.201	0.152
-102.932	800.000	0.113	0.329
-101.918	113.977	-0.142	0.169
-100.903	-20.715	0.204	-0.122
-99.889	-200.000	-0.018	-0.181
-98.874	-158.359	-0.273	-0.015
-97.859	87.781	-0.008	-0.008
-96.845	800.000	-0.117	-0.343
-95.830	-94.385	-0.296	-0.079
-94.816	61.207	-0.252	0.245
-93.801	166.505	0.111	0.153
-92.786	-200.000	-0.009	-0.124
-91.772	23.394	-0.243	0.195
-90.757	-20.067	-0.304	-0.183
-89.743	-88.227	0.203	-0.059
-88.728	-15.218	0.110	-0.068
-87.713	-34.679	0.048	-0.026
-86.699	-84.201	-0.050	-0.015
-85.684	124.062	-0.225	-0.276
-84.670	-38.098	0.196	0.102
-83.655	188.360	0.051	-0.074
-82.640	-95.151	-0.046	-0.012
-81.626	-58.718	0.328	-0.139
-80.611	23.604	-0.218	-0.175
-79.597	154.558	0.061	-0.081
-78.582	6.576	0.048	-0.035
-77.567	-55.485	0.188	-0.082
-76.553	-76.235	-0.166	0.057
-75.538	-69.588	0.189	0.071
-74.524	107.898	-0.115	-0.134
-73.509	147.369	-0.206	0.270
-72.494	-53.361	0.382	-0.171
-71.480	-2.407	-0.291	-0.199
-70.465	-49.534	-0.097	-0.045
-69.451	-75.236	0.442	0.154
-68.436	-56.521	0.157	0.068
-67.422	-22.463	-0.255	-0.150
-66.407	-64.833	0.381	-0.150
-65.392	141.045	0.192	0.247
-64.378	236.362	-0.217	-0.350
-63.363	-83.715	-0.279	-0.087
-62.349	44.910	-0.130	0.117
-61.334	21.934	-1.229	-0.976
-60.319	17.423	0.716	0.554
-59.305	482.357	-0.719	-1.591
-58.290	570.889	0.626	1.486
-57.276	800.000	0.520	1.468
-56.261	-200.000	135.247	686.420
-55.246	340.207	1676.735	3187.173
-54.232	133.887	2804.091	3536.885
-53.217	88.842	2170.651	2352.444
-52.203	32.495	1599.658	1346.437
-51.188	24.569	1347.325	1086.032
-50.173	22.240	1311.066	1042.968
-49.159	50.489	1383.706	1274.543
-48.144	46.805	1393.385	1260.946
-47.130	24.685	1340.426	1081.001
-46.115	21.598	1321.356	1047.151
-45.100	21.354	1316.236	1041.599
-44.086	21.156	1313.694	1038.366
-43.071	21.119	1311.578	1036.433
-42.057	21.141	1309.817	1035.133
-41.042	21.263	1307.626	1034.082
-40.027	21.193	1306.620	1032.829
-39.013	21.222	1304.534	1031.310
-37.998	21.135	1303.324	1029.800
-36.984	21.356	1300.871	1029.121
-35.969	21.362	1299.478	1028.012
-34.954	21.325	1297.410	1026.120
-33.940	21.320	1296.603	1025.414
-32.925	21.432	1294.972	1024.739
-31.911	21.487	1293.113	1023.548
-30.896	21.389	1291.894	1021.972
-29.881	21.410	1290.547	1020.985
-28.867	21.412	1289.177	1019.876
-27.852	21.443	1288.089	1019.154
-26.838	21.438	1286.623	1017.925
-25.823	21.435	1284.960	1016.549
-24.809	21.329	1284.039	1015.168
-23.794	21.307	1282.688	1013.930
-22.779	21.226	1281.962	1012.843
-21.765	21.392	1280.613	1012.700
-20.750	21.326	1279.063	1011.053
-19.736	21.301	1277.428	1009.579
-18.721	21.284	1276.485	1008.692
-17.706	21.249	1275.618	1007.767
-16.692	21.361	1274.565	1007.541
-15.677	21.248	1273.336	1005.877
-14.663	21.211	1272.282	1004.795
-13.648	21.265	1270.978	1004.032
-12.633	21.323	1269.951	1003.512
-11.619	21.251	1269.253	1002.509
-10.604	21.359	1267.976	1002.081
-9.590	21.294	1267.458	1001.259
-8.575	21.233	1266.547	1000.153
-7.560	21.200	1265.964	999.463
-6.546	21.203	1264.936	998.631
-5.531	21.305	1263.610	998.123
-4.517	21.289	1262.979	997.492
-3.502	21.407	1261.838	997.226
-2.487	21.216	1261.474	995.812
-1.473	21.229	1257.064	992.362
-0.458	19.557	1242.196	971.192
0.556	15.195	1226.567	934.019
1.571	11.673	1235.236	920.736
2.586	10.993	1251.308	928.750
3.600	11.016	1239.119	919.754
4.615	8.443	1166.984	852.426
5.629	3.205	1097.822	775.492
6.644	0.920	1081.609	752.621
7.659	0.619	1080.336	750.174
8.673	0.568	1079.491	749.266
9.688	0.644	1077.524	748.214
10.702	0.674	1075.562	746.935
11.717	4.066	1078.160	765.458
12.731	10.507	1087.248	803.862
13.746	15.656	1093.955	834.367
14.761	17.303	1095.759	843.853
15.775	16.717	1093.888	839.434
16.790	15.668	1091.806	832.568
17.804	14.861	1090.612	827.591
18.819	14.618	1089.606	825.551
19.834	14.491	1088.187	823.773
20.848	14.120	1087.802	821.581
21.863	14.024	1086.774	820.256
22.877	13.857	1085.773	818.603
23.892	13.750	1084.951	817.385
24.907	13.753	1084.705	817.140
25.921	13.832	1083.751	816.738
26.936	13.810	1082.834	815.867
27.950	13.835	1081.758	815.106
28.965	13.858	1080.760	814.397
29.980	13.917	1079.605	813.745
30.994	14.002	1078.825	813.498
32.009	13.981	1077.505	812.331
33.023	13.962	1076.475	811.389
34.038	13.959	1075.644	810.674
35.053	13.881	1074.841	809.616
36.067	13.819	1074.314	808.846
37.082	13.829	1073.209	807.991
38.096	14.090	1072.044	808.312
39.111	13.889	1071.758	807.049
40.126	13.908	1070.520	806.136
41.140	13.848	1069.249	804.817
42.155	13.702	1068.550	803.512
43.169	13.658	1067.450	802.401
44.184	13.808	1066.353	802.231
45.199	13.818	1065.153	801.309
46.213	13.776	1064.105	800.246
47.228	13.860	1062.832	799.619
48.242	13.818	1061.838	798.601
49.257	13.776	1061.139	797.802
50.271	13.787	1060.473	797.284
51.286	13.777	1059.416	796.370
52.301	13.863	1058.190	795.791
53.315	13.841	1056.948	794.682
54.330	13.926	1056.101	794.383
55.344	13.792	1055.677	793.353
56.359	13.808	1054.772	792.676
57.374	13.765	1053.746	791.633
58.388	13.681	1053.110	790.681
59.403	13.805	1051.903	790.297
60.417	13.753	1051.167	789.428
61.432	13.684	1050.193	788.298
62.447	13.682	1049.420	787.638
63.461	13.591	1048.861	786.717
64.476	13.600	1047.906	785.972
65.490	13.654	1047.184	785.617
66.505	13.668	1046.098	784.801
67.520	13.707	1045.622	784.558
68.534	13.747	1045.148	784.322
69.549	13.663	1044.258	783.187
70.563	13.681	1043.035	782.286
71.578	13.679	1042.369	781.711
72.593	13.652	1041.497	780.857
73.607	13.624	1040.887	780.198
74.622	13.703	1040.344	780.094
75.636	13.778	1039.268	779.571
76.651	13.497	1039.043	778.015
77.666	13.537	1038.284	777.563
78.680	13.481	1037.860	776.916
79.695	13.668	1037.042	777.111
80.709	13.738	1036.634	777.062
81.724	13.738	1036.011	776.531
82.739	13.829	1035.244	776.313
83.753	13.855	1033.891	775.349
84.768	13.994	1032.725	775.057
85.782	14.005	1032.068	774.546
86.797	13.812	1031.574	773.205
87.812	13.856	1030.670	772.662
88.826	13.775	1029.538	771.369
89.841	13.736	1029.077	770.774
90.855	13.907	1027.702	770.474
91.870	13.909	1027.039	769.914
92.884	13.985	1026.041	769.452
93.899	13.925	1025.018	768.339
94.914	13.962	1024.207	767.834
95.928	13.910	1023.822	767.236
96.943	13.926	1022.597	766.325
97.957	13.932	1021.826	765.706
98.972	14.059	1021.052	765.643
99.987	13.949	1019.986	764.270
101.001	14.012	1018.947	763.716
102.016	13.872	1018.438	762.624
103.030	14.106	1017.167	762.678
104.045	13.909	1016.583	761.269
105.060	13.954	1016.160	761.091
106.074	13.913	1014.945	759.925
107.089	13.865	1013.953	758.897
108.103	13.856	1013.163	758.194
109.118	13.888	1012.173	757.534
110.133	13.947	1011.192	757.002
111.147	13.930	1010.344	756.225
112.162	13.766	1009.656	754.896
113.176	13.959	1008.574	754.897
114.191	13.881	1008.296	754.268
115.206	13.866	1006.942	753.120
116.220	13.864	1006.409	752.644
117.235	13.991	1005.475	752.456
118.249	13.838	1004.591	751.036
119.264	13.923	1003.803	750.763
120.279	13.955	1002.826	750.110
121.293	13.880	1002.320	749.328
122.308	13.995	1000.876	748.702
123.322	13.913	1000.179	747.742
124.337	13.897	999.071	746.779
125.352	13.845	998.083	745.736
126.366	13.776	996.931	744.501
127.381	13.747	995.811	743.469
128.395	13.803	995.242	743.232
129.410	13.902	994.162	742.802
130.424	13.998	993.564	742.717
131.439	13.944	992.125	741.335
132.454	13.932	991.542	740.782
133.468	13.860	991.077	740.044
134.483	14.004	989.613	739.531
135.497	14.035	988.488	738.759
136.512	13.870	988.306	737.827
137.527	13.848	987.311	736.921
138.541	13.843	987.208	736.756
139.556	14.089	985.333	736.381
140.570	14.027	985.040	735.822
141.585	14.087	984.087	735.312
142.600	14.036	983.481	734.567
143.614	14.061	982.597	733.951
144.629	14.277	981.295	733.868
145.643	14.084	980.938	732.684
146.658	14.022	979.749	731.460
147.673	14.116	978.770	731.078
148.687	14.014	978.254	730.179
149.702	13.978	977.088	729.084
150.716	14.043	976.081	728.552
151.731	13.957	975.949	728.015
152.746	13.948	975.353	727.467
153.760	14.049	974.921	727.523
154.775	14.136	974.069	727.202
155.789	14.081	973.394	726.393
156.804	14.098	972.640	725.841
157.819	14.209	971.991	725.777
158.833	14.260	971.135	725.296
159.848	14.260	970.145	724.489
160.862	14.115	969.537	723.344
161.877	14.169	968.393	722.660
162.892	14.072	967.407	721.440
163.906	14.170	966.831	721.371
164.921	14.239	965.730	720.783
165.935	14.224	964.556	719.781
166.950	14.268	963.312	718.976
167.964	14.289	962.883	718.683
168.979	14.242	961.583	717.446
169.994	14.259	961.131	717.121
171.008	14.342	960.028	716.592
172.023	14.375	959.909	716.583
173.037	14.384	959.157	715.993
174.052	14.348	958.341	715.168
175.067	14.287	957.587	714.278
176.081	14.318	957.538	714.312
177.096	14.423	956.273	713.755
178.110	14.264	956.148	712.917
179.125	14.354	955.535	712.783
180.140	14.290	955.421	712.360
181.154	14.338	954.471	711.793
182.169	14.260	953.693	710.819
183.183	14.464	952.927	711.056
184.198	14.477	952.065	710.406
185.213	14.386	951.646	709.641
186.227	14.469	950.871	709.357
187.242	14.504	950.161	708.912
188.256	14.634	949.728	709.078
189.271	14.511	949.029	707.970
190.286	14.403	948.104	706.762
191.300	14.408	947.166	706.018
192.315	14.483	946.833	706.026
193.329	14.312	946.584	705.054
194.344	14.578	945.662	705.431
195.359	14.477	944.957	704.415
196.373	14.636	943.871	704.214
197.388	14.615	943.986	704.149
198.402	14.716	943.220	703.942
199.417	14.657	942.430	703.042
200.432	14.755	941.869	702.973
201.446	14.828	941.495	702.940
202.461	14.827	940.675	702.258
203.475	14.710	940.486	701.563
204.490	14.743	939.431	700.855
205.504	14.698	938.854	700.173
206.519	14.713	938.075	699.595
207.534	14.830	937.285	699.432
208.548	14.743	937.062	698.839
209.563	14.708	936.416	698.150
210.577	14.828	935.106	697.611
211.592	14.849	934.731	697.357
212.607	14.956	933.930	697.143
213.621	14.789	933.492	696.060
214.636	14.832	932.316	695.302
215.650	14.866	931.576	694.829
216.665	14.873	931.136	694.467
217.680	14.883	930.519	693.990
218.694	14.934	929.664	693.500
219.709	14.982	928.993	693.139
220.723	15.006	928.290	692.652
221.738	15.061	927.642	692.334
222.753	15.151	926.468	691.766
223.767	14.955	926.652	691.036
224.782	15.129	925.859	691.101
225.796	15.160	924.802	690.377
226.811	15.186	924.373	690.103
227.826	15.041	923.743	688.976
228.840	15.204	922.315	688.518
229.855	15.249	921.874	688.313
230.869	15.063	920.962	686.809
231.884	15.110	920.400	686.521
232.899	15.096	919.695	685.877
233.913	15.270	918.940	685.965
234.928	15.156	918.755	685.300
235.942	15.057	918.312	684.503
236.957	15.150	917.684	684.357
237.972	15.170	916.663	683.617
238.986	15.089	916.358	682.999
240.001	15.287	915.195	682.877
241.015	15.182	914.766	682.068
242.030	15.271	914.178	681.933
243.045	15.262	913.742	681.508
244.059	15.178	913.061	680.599
245.074	15.246	912.453	680.362
246.088	15.399	911.402	680.140
247.103	15.385	910.683	679.485
248.117	15.440	910.280	679.347
249.132	15.376	909.689	678.589
250.147	15.412	909.085	678.222
251.161	15.460	908.589	677.985
252.176	15.422	907.846	677.217
253.190	15.483	907.093	676.842
254.205	15.644	906.133	676.716
255.220	15.468	905.934	675.796
256.234	15.608	904.717	675.394
257.249	15.609	904.409	675.107
258.263	15.695	903.358	674.608
259.278	15.644	902.963	674.048
260.293	15.753	902.122	673.797
261.307	15.665	901.714	673.081
262.322	15.729	901.507	673.124
263.336	15.692	900.792	672.384
264.351	15.767	899.482	671.644
265.366	15.844	898.861	671.427
266.380	15.789	898.536	670.909
267.395	15.828	897.608	670.310
268.409	15.736	897.292	669.649
269.424	15.782	896.124	668.899
270.439	15.887	895.054	668.460
271.453	15.823	894.775	667.937
272.468	15.777	894.241	667.298
273.482	15.850	893.961	667.318
274.497	15.842	893.006	666.516
275.512	15.851	892.847	666.372
276.526	15.875	892.234	665.951
277.541	15.876	891.359	665.246
278.555	15.889	891.046	665.003
279.570	15.846	890.316	664.231
280.585	15.916	889.319	663.702
281.599	16.121	888.297	663.690
282.614	15.969	887.984	662.798
283.628	16.006	887.284	662.361
284.643	16.041	886.765	662.053
285.657	16.071	885.658	661.286
286.672	15.976	885.561	660.781
287.687	16.210	884.526	660.870
288.701	16.104	884.329	660.248
289.716	16.121	883.936	659.964
290.730	16.330	882.963	659.995
291.745	16.252	882.320	659.149
292.760	16.220	881.916	658.665
293.774	16.119	881.476	657.883
294.789	16.281	880.726	657.900
295.803	16.318	880.165	657.563
296.818	16.263	879.305	656.649
297.833	16.315	878.354	656.084
298.847	16.314	877.774	655.588
299.862	16.250	877.411	655.010
300.876	16.321	876.556	654.589
301.891	16.318	875.985	654.094
302.906	16.454	875.453	654.166
303.920	16.491	875.196	654.059
304.935	16.364	874.594	653.062
305.949	16.368	874.147	652.686
306.964	16.358	873.459	652.072
307.979	16.563	872.512	652.100
308.993	16.312	872.248	650.877
310.008	16.440	871.498	650.754
311.022	16.524	870.867	650.549
312.037	16.445	870.491	649.907
313.052	16.544	869.640	649.592
314.066	16.506	869.176	649.045
315.081	16.559	868.656	648.800
316.095	16.481	868.045	647.987
317.110	16.368	867.714	647.251
318.125	16.572	866.879	647.351
319.139	16.511	866.465	646.753
320.154	16.612	865.546	646.396
321.168	16.552	865.360	645.968
322.183	16.657	864.961	646.015
323.197	16.533	864.447	645.100
324.212	16.579	863.731	644.686
325.227	16.575	863.299	644.289
326.241	16.622	862.576	643.874
327.256	16.748	861.515	643.504
328.270	16.680	861.062	642.848
329.285	16.541	860.800	642.069
330.300	16.501	860.200	641.410
331.314	16.714	859.593	641.708
332.329	16.643	858.855	640.833
333.343	16.600	858.896	640.646
334.358	16.679	858.584	640.655
335.373	16.677	857.991	640.149
336.387	16.684	858.040	640.153
337.402	16.902	857.295	640.366
338.416	16.756	856.974	639.518
339.431	16.768	856.534	639.177
340.446	16.928	856.166	639.450
341.460	17.086	855.324	639.361
342.475	16.861	855.400	638.511
343.489	16.950	854.802	638.343
344.504	16.748	854.314	637.166
345.519	16.910	853.803	637.335
346.533	17.069	853.382	637.562
347.548	17.033	852.725	636.878
348.562	16.966	852.174	636.160
349.577	17.035	851.726	636.029
350.592	16.957	850.866	635.036
351.606	16.994	849.849	634.359
352.621	16.923	849.682	633.916
353.635	16.813	849.280	633.147
354.650	17.040	848.349	633.244
355.665	17.023	847.621	632.583
356.679	17.088	846.797	632.152
357.694	17.105	846.578	631.998
358.708	17.186	845.725	631.606
359.723	17.107	845.026	630.734
360.738	17.155	844.864	630.735
361.752	17.022	844.007	629.547
362.767	17.054	843.625	629.324
363.781	17.242	842.836	629.376
364.796	17.329	842.473	629.373
365.810	17.268	842.184	628.875
366.825	17.323	841.833	628.760
367.840	17.282	840.944	627.889
368.854	17.268	840.962	627.796
369.869	17.311	840.365	627.452
370.883	17.409	839.694	627.258
371.898	17.421	839.714	627.262
372.913	17.481	839.028	626.914
373.927	17.544	838.629	626.794
374.942	17.622	837.901	626.479
375.956	17.529	837.776	625.989
376.971	17.580	837.133	625.640
377.986	17.494	837.200	625.320
379.000	17.610	835.913	624.729
380.015	17.718	835.310	624.616
381.029	17.679	835.156	624.304
382.044	17.682	834.373	623.675
383.059	17.679	834.002	623.330
384.073	17.589	833.534	622.597
385.088	17.666	832.679	622.184
386.102	17.648	832.354	621.822
387.117	17.660	831.841	621.427
388.132	17.755	831.095	621.162
389.146	17.699	830.565	620.506
390.161	17.687	830.166	620.110
391.175	17.795	829.814	620.184
392.190	17.596	829.355	619.064
393.205	17.690	828.719	618.875
394.219	17.747	828.279	618.696
395.234	17.790	828.019	618.607
396.248	17.746	827.465	617.977
397.263	17.702	826.898	617.339
398.278	17.679	826.821	617.142
399.292	17.666	826.031	616.452
400.307	17.681	825.855	616.322
401.321	17.761	825.325	616.160
402.336	17.849	824.883	616.093
403.350	17.828	824.278	615.510
404.365	17.872	823.705	615.187
405.380	18.123	823.173	615.640
406.394	18.016	822.508	614.701
407.409	17.998	822.445	614.537
408.423	17.948	822.296	614.190
409.438	18.056	821.636	614.032
410.453	18.182	820.950	613.915
411.467	17.996	821.000	613.231
412.482	18.131	820.351	613.177
413.496	18.116	820.004	612.809
414.511	18.086	819.794	612.493
415.526	18.070	819.150	611.899
416.540	17.972	818.779	611.217
417.555	18.130	818.117	611.232
418.569	18.087	817.987	610.928
419.584	18.321	817.434	611.298
420.599	18.230	816.783	610.433
421.613	115.850	1301.016	1490.660
422.628	100.434	1371.509	1490.718
