DTS Sentinel unit serial number:	SN413079Multiplexer serial number:	ORYXHardware model number:	OX4-SRSoftware version number:	ORYX F/W v4.00 Oryx Data Collector v3.7.2.0data status	okinstallation	princeton_trtdifferential loss correction	single-endedforward channel	channel 1reverse channel	N/Adate	2019/09/16time	03:10:35forward acquisition time	60.00reverse acquisition time	0.00gamma	496.2192k internal	0.2330k external	0.2330temperature offset calibration	0.9980default loss term (dB/km)	0.3790temperature slope calibration	1.0000multiplexer offset coefficient	1.0000multiplexer slope coefficient	1.0000fibre end	0.00T internal ref (°C)	27.75T ext. ref 1 (°C)	10.47T ext. ref 2 (°C)	22.09length (m)	temperature (°C)	Stokes	anti-Stokes-747.200	24.265	0.184	0.153
-746.185	-88.000	-0.257	-0.078
-745.171	-95.453	-0.278	-0.075
-744.156	134.844	-0.085	0.112
-743.142	-56.400	0.190	-0.085
-742.127	10.067	-0.257	0.197
-741.112	142.856	0.031	-0.041
-740.098	-76.025	-0.316	-0.112
-739.083	301.927	0.031	0.057
-738.069	49.979	0.282	0.268
-737.054	20.119	-0.104	-0.085
-736.039	-125.053	-0.177	-0.027
-735.025	-200.000	0.032	0.141
-734.010	-132.163	-0.320	-0.042
-732.996	-101.983	-0.458	0.111
-731.981	94.463	0.268	-0.306
-730.966	-74.613	-0.201	-0.073
-729.952	-9.009	-0.083	-0.056
-728.937	-54.171	-0.313	-0.143
-727.923	347.733	-0.115	-0.229
-726.908	197.589	0.079	-0.121
-725.894	-72.716	-0.330	-0.122
-724.879	-66.543	-0.337	-0.134
-723.864	-200.000	-0.014	0.266
-722.850	-63.957	-0.166	-0.068
-721.835	-2.214	-0.088	-0.062
-720.821	59.344	0.284	0.282
-719.806	800.000	-0.071	0.200
-718.791	-90.025	0.209	-0.061
-717.777	35.453	-0.190	-0.167
-716.762	-125.373	-0.279	-0.043
-715.748	-200.000	-0.022	0.155
-714.733	-176.818	0.066	0.002
-713.718	296.314	0.140	-0.258
-712.704	23.889	-0.092	0.077
-711.689	-1.035	-0.227	-0.162
-710.675	-3.033	0.280	0.196
-709.660	-49.918	0.300	-0.143
-708.645	-19.643	-0.101	0.063
-707.631	44.530	-0.241	-0.223
-706.616	274.930	-0.093	0.165
-705.602	140.668	-0.209	-0.278
-704.587	-200.000	0.019	-0.109
-703.572	800.000	-0.082	-0.277
-702.558	-200.000	0.009	0.053
-701.543	-69.165	0.276	-0.107
-700.529	-137.825	0.084	0.009
-699.514	269.183	0.064	0.113
-698.499	800.000	-0.109	0.314
-697.485	-200.000	0.010	0.332
-696.470	-200.000	-0.028	-0.150
-695.456	800.000	-0.086	-0.351
-694.441	-35.044	-0.445	-0.244
-693.426	800.000	0.063	0.255
-692.412	-77.179	0.355	0.124
-691.397	147.633	-0.096	-0.130
-690.383	13.391	-0.061	0.047
-689.368	530.630	-0.141	-0.335
-688.354	-200.000	0.047	-0.323
-687.339	255.301	0.113	-0.195
-686.324	-128.046	-0.362	0.052
-685.310	230.724	-0.105	-0.172
-684.295	-0.534	0.141	0.101
-683.281	222.091	-0.086	0.139
-682.266	-84.620	0.126	0.040
-681.251	-92.260	-0.257	0.073
-680.237	-200.000	-0.041	0.184
-679.222	-200.000	0.000	-0.088
-678.208	153.082	0.128	-0.176
-677.193	47.292	0.058	-0.055
-676.178	-21.390	-0.087	0.053
-675.164	-115.673	-0.267	0.050
-674.149	-0.924	-0.085	-0.061
-673.135	274.927	-0.091	0.163
-672.120	45.990	0.133	0.124
-671.105	126.016	-0.126	-0.160
-670.091	-47.890	0.325	-0.158
-669.076	-92.860	-0.359	0.101
-668.062	-141.868	-0.252	0.025
-667.047	242.993	0.186	0.314
-666.032	-200.000	-0.032	0.467
-665.018	-26.963	-0.365	0.214
-664.003	-125.385	0.105	-0.016
-662.989	-200.000	-0.008	-0.178
-661.974	-200.000	-0.022	-0.140
-660.959	-200.000	0.021	-0.209
-659.945	33.241	0.125	-0.109
-658.930	-200.000	0.015	0.218
-657.916	110.177	0.126	0.151
-656.901	720.715	0.009	-0.024
-655.886	287.144	0.022	0.040
-654.872	-200.000	0.055	-0.263
-653.857	213.355	0.146	-0.231
-652.843	-28.713	-0.363	0.210
-651.828	208.320	-0.239	0.374
-650.814	34.722	0.108	-0.095
-649.799	-200.000	0.020	-0.396
-648.784	-176.021	-0.164	0.004
-647.770	-78.329	-0.207	0.071
-646.755	-123.957	-0.284	-0.045
-645.741	-200.000	0.079	-0.445
-644.726	96.273	-0.097	-0.111
-643.711	162.623	0.182	0.256
-642.697	-200.000	-0.013	-0.198
-641.682	-200.000	0.114	-0.001
-640.668	800.000	0.069	0.243
-639.653	-186.624	-0.161	0.002
-638.638	-136.765	0.275	-0.032
-637.624	11.031	0.218	-0.167
-636.609	519.245	-0.025	0.059
-635.595	-50.478	0.210	0.099
-634.580	-120.564	-0.173	0.029
-633.565	-86.885	0.287	-0.088
-632.551	-42.315	-0.201	0.103
-631.536	-200.000	0.076	-0.335
-630.522	-200.000	0.033	-0.272
-629.507	80.417	-0.119	-0.129
-628.492	-25.454	0.227	-0.134
-627.478	153.986	-0.233	0.321
-626.463	155.361	0.061	0.085
-625.449	-127.541	-0.148	-0.021
-624.434	800.000	0.085	0.355
-623.419	-97.204	0.095	-0.025
-622.405	800.000	-0.108	-0.465
-621.390	-200.000	0.008	-0.074
-620.376	24.841	0.080	-0.066
-619.361	27.688	-0.236	0.199
-618.346	785.178	-0.066	-0.183
-617.332	-39.366	0.022	0.012
-616.317	-42.481	-0.286	0.146
-615.303	207.180	-0.211	-0.330
-614.288	63.077	-0.092	-0.092
-613.273	-0.990	-0.264	-0.187
-612.259	25.428	-0.146	-0.122
-611.244	156.890	0.239	-0.331
-610.230	226.476	-0.066	-0.108
-609.215	-63.083	-0.147	-0.061
-608.201	231.211	-0.311	-0.510
-607.186	280.087	0.212	-0.378
-606.171	-67.548	0.169	-0.066
-605.157	-41.940	-0.147	0.076
-604.142	800.000	0.010	0.031
-603.128	-67.445	-0.314	0.123
-602.113	-200.000	0.000	0.182
-601.098	-200.000	0.014	-0.178
-600.084	-53.573	0.265	-0.121
-599.069	246.329	-0.177	0.299
-598.055	-49.357	0.247	0.118
-597.040	55.827	-0.267	-0.259
-596.025	-17.937	0.162	-0.102
-595.011	800.000	-0.032	-0.126
-593.996	-73.907	0.192	0.070
-592.982	38.971	0.041	-0.037
-591.967	-167.528	0.185	-0.007
-590.952	-94.012	-0.047	0.013
-589.938	-180.529	-0.074	0.002
-588.923	171.938	-0.068	0.098
-587.909	501.699	0.180	-0.416
-586.894	118.191	-0.195	0.241
-585.879	71.219	-0.047	-0.049
-584.865	-145.965	-0.064	0.006
-583.850	210.185	-0.213	-0.334
-582.836	-84.309	-0.026	0.008
-581.821	57.309	0.148	-0.144
-580.806	-54.177	-0.162	0.074
-579.792	56.504	-0.275	0.267
-578.777	-200.000	-0.013	-0.060
-577.763	800.000	-0.069	0.202
-576.748	-153.505	0.357	0.025
-575.733	-137.349	-0.254	0.029
-574.719	103.315	0.244	-0.286
-573.704	363.468	0.121	0.243
-572.690	-200.000	0.041	-0.366
-571.675	-200.000	0.014	-0.065
-570.661	-200.000	0.034	0.266
-569.646	63.386	-0.136	0.136
-568.631	127.001	0.142	-0.180
-567.617	-200.000	0.035	-0.272
-566.602	-34.819	0.165	-0.090
-565.588	-47.304	-0.276	-0.134
-564.573	272.067	-0.034	0.059
-563.558	-126.404	-0.317	-0.047
-562.544	-7.989	-0.215	0.145
-561.529	-127.885	0.296	0.043
-560.515	-5.956	0.314	0.215
-559.500	-200.000	0.012	-0.124
-558.485	-59.356	0.023	-0.010
-557.471	-70.877	-0.185	-0.070
-556.456	-6.863	0.252	0.171
-555.442	171.372	-0.069	-0.100
-554.427	-56.880	-0.196	-0.086
-553.412	-200.000	0.051	-0.224
-552.398	134.470	0.046	-0.060
-551.383	202.373	-0.117	-0.181
-550.369	520.509	0.048	0.112
-549.354	800.000	0.049	-0.182
-548.339	800.000	-0.032	-0.091
-547.325	62.165	0.125	0.125
-546.310	-192.249	0.292	-0.003
-545.296	702.944	-0.176	-0.464
-544.281	244.053	-0.188	-0.315
-543.266	-140.169	0.094	0.010
-542.252	458.045	-0.101	0.224
-541.237	0.834	0.218	-0.156
-540.223	-124.736	-0.141	-0.022
-539.208	-200.000	-0.020	0.103
-538.193	374.444	-0.047	-0.096
-537.179	187.252	0.205	0.305
-536.164	-28.904	0.080	-0.046
-535.150	800.000	0.019	0.074
-534.135	384.641	-0.053	0.108
-533.121	-200.000	-0.040	0.401
-532.106	130.284	0.148	-0.190
-531.091	-200.000	-0.014	-0.306
-530.077	-200.000	0.049	0.331
-529.062	-185.490	0.373	0.006
-528.048	56.795	0.046	0.045
-527.033	291.814	0.058	0.105
-526.018	2.480	-0.264	-0.191
-525.004	112.760	-0.147	0.178
-523.989	-200.000	0.001	0.226
-522.975	-200.000	0.017	0.193
-521.960	-182.494	0.060	0.001
-520.945	49.605	0.171	-0.161
-519.931	-200.000	0.061	0.307
-518.916	66.170	-0.270	0.273
-517.902	36.881	0.137	-0.120
-516.887	-53.393	-0.198	0.090
-515.872	-200.000	0.012	0.305
-514.858	89.510	0.256	-0.285
-513.843	194.931	0.323	-0.490
-512.829	-61.640	0.157	-0.066
-511.814	59.573	-0.088	0.086
-510.799	-92.340	-0.181	0.051
-509.785	-200.000	0.064	-0.360
-508.770	-39.621	-0.117	0.061
-507.756	800.000	-0.061	-0.196
-506.741	-200.000	0.023	-0.109
-505.726	221.091	0.052	-0.084
-504.712	-187.625	-0.244	-0.003
-503.697	75.381	0.109	0.115
-502.683	-123.769	-0.102	0.016
-501.668	663.236	0.051	0.132
-500.653	132.036	-0.067	-0.086
-499.639	800.000	0.096	0.318
-498.624	-124.293	0.271	-0.042
-497.610	-24.320	0.182	-0.108
-496.595	800.000	0.051	0.204
-495.581	-107.367	0.204	-0.045
-494.566	144.485	-0.094	-0.125
-493.551	245.324	-0.071	0.118
-492.537	84.651	-0.167	-0.183
-491.522	-51.121	0.190	-0.089
-490.508	266.274	0.176	0.306
-489.493	569.187	-0.088	0.213
-488.478	-200.000	0.066	0.364
-487.464	800.000	-0.040	-0.112
-486.449	336.361	0.046	0.089
-485.435	-84.903	0.358	-0.112
-484.420	-34.898	0.267	0.145
-483.405	800.000	0.075	-0.226
-482.391	-177.841	-0.182	0.004
-481.376	267.935	-0.126	-0.220
-480.362	748.280	0.023	0.063
-479.347	379.958	0.150	0.306
-478.332	-200.000	0.040	0.209
-477.318	-111.364	0.159	-0.032
-476.303	-72.956	-0.149	0.054
-475.289	256.010	0.049	0.084
-474.274	385.371	0.060	0.122
-473.259	217.206	-0.026	0.042
-472.245	-200.000	0.069	0.302
-471.230	-22.118	-0.223	0.135
-470.216	800.000	0.036	0.101
-469.201	42.680	-0.045	-0.041
-468.186	-200.000	0.057	-0.255
-467.172	335.003	0.071	0.137
-466.157	-76.541	-0.088	0.031
-465.143	800.000	0.029	-0.115
-464.128	-159.083	-0.138	0.008
-463.113	-165.244	-0.272	0.012
-462.099	-161.616	0.194	-0.010
-461.084	-12.102	0.157	0.102
-460.070	-54.150	-0.248	-0.112
-459.055	-200.000	-0.002	0.103
-458.040	-85.747	-0.165	-0.051
-457.026	34.872	-0.216	0.188
-456.011	319.402	-0.131	0.248
-454.997	10.523	-0.081	0.062
-453.982	79.530	0.150	-0.160
-452.968	800.000	-0.026	-0.080
-451.953	371.900	0.042	0.085
-450.938	-3.966	-0.061	-0.042
-449.924	800.000	-0.044	-0.149
-448.909	97.726	-0.104	-0.119
-447.895	-108.793	-0.169	-0.036
-446.880	320.144	0.062	-0.117
-445.865	157.442	-0.149	0.205
-444.851	800.000	-0.037	0.157
-443.836	333.081	0.048	0.093
-442.822	60.703	0.018	0.017
-441.807	31.773	0.137	-0.117
-440.792	-182.317	0.388	0.007
-439.778	-117.744	0.188	-0.034
-438.763	-48.406	-0.152	-0.073
-437.749	607.084	0.167	0.415
-436.734	89.764	0.079	-0.088
-435.719	50.791	-0.289	-0.272
-434.705	-85.065	0.449	-0.140
-433.690	-21.453	0.327	-0.199
-432.676	-200.000	-0.002	-0.101
-431.661	177.193	-0.258	0.373
-430.646	620.309	0.048	-0.120
-429.632	800.000	0.060	0.257
-428.617	-200.000	-0.030	0.136
-427.603	-66.181	-0.195	0.077
-426.588	-32.719	-0.101	-0.056
-425.573	512.618	-0.158	0.366
-424.559	457.094	0.090	-0.200
-423.544	-115.208	0.143	-0.027
-422.530	70.973	-0.147	-0.151
-421.515	-115.440	-0.143	-0.027
-420.500	234.961	0.140	0.230
-419.486	394.596	-0.151	0.313
-418.471	800.000	-0.056	-0.230
-417.457	190.831	0.058	-0.086
-416.442	-200.000	-0.015	-0.213
-415.428	135.308	0.065	0.084
-414.413	8.867	-0.179	0.134
-413.398	-10.746	0.193	-0.127
-412.384	-200.000	-0.022	0.436
-411.369	8.937	-0.056	-0.042
-410.355	110.201	0.168	-0.200
-409.340	-92.728	0.145	-0.040
-408.325	172.973	0.108	0.155
-407.311	-8.225	0.099	0.066
-406.296	800.000	0.104	-0.364
-405.282	306.337	0.194	-0.359
-404.267	-13.526	-0.269	0.173
-403.252	800.000	0.081	0.314
-402.238	216.714	0.076	-0.120
-401.223	545.902	0.125	0.297
-400.209	-160.472	-0.267	-0.014
-399.194	115.100	0.145	0.176
-398.179	719.334	-0.190	-0.502
-397.165	-200.000	0.026	0.147
-396.150	-200.000	0.023	0.106
-395.136	-178.468	-0.514	-0.012
-394.121	-4.825	0.320	-0.219
-393.106	800.000	0.022	-0.085
-392.092	165.056	0.233	0.326
-391.077	800.000	0.045	-0.192
-390.063	800.000	-0.072	-0.262
-389.048	-152.207	0.253	-0.018
-388.033	-146.690	-0.194	0.017
-387.019	-121.842	0.233	0.038
-386.004	-33.866	-0.329	-0.180
-384.990	-77.655	-0.232	0.080
-383.975	-71.061	-0.449	0.167
-382.960	-45.300	0.179	0.088
-381.946	-54.768	-0.247	0.111
-380.931	800.000	0.025	-0.084
-379.917	49.649	0.218	0.204
-378.902	-36.193	0.220	0.118
-377.888	-63.892	0.249	0.101
-376.873	800.000	-0.075	0.253
-375.858	225.012	0.003	0.005
-374.844	20.577	0.314	0.252
-373.829	-79.741	-0.172	-0.058
-372.815	429.095	0.044	-0.095
-371.800	81.940	0.128	-0.138
-370.785	-88.844	0.092	0.027
-369.771	354.223	-0.059	0.116
-368.756	-200.000	0.011	-0.116
-367.742	-182.509	0.117	0.002
-366.727	-200.000	0.007	0.155
-365.712	1.962	0.152	0.109
-364.698	800.000	0.079	0.315
-363.683	351.301	0.063	0.124
-362.669	323.433	0.110	-0.209
-361.654	-200.000	0.039	0.244
-360.639	-122.557	0.277	-0.045
-359.625	-122.876	0.147	-0.024
-358.610	-56.654	-0.260	0.114
-357.596	-79.822	-0.169	-0.056
-356.581	283.551	-0.167	-0.298
-355.566	-200.000	0.030	-0.188
-354.552	-140.188	0.132	0.014
-353.537	139.351	-0.075	0.098
-352.523	800.000	-0.047	0.130
-351.508	91.707	0.065	-0.073
-350.493	249.872	-0.066	-0.111
-349.479	187.120	-0.297	0.440
-348.464	96.019	0.098	-0.111
-347.450	800.000	-0.064	-0.212
-346.435	-16.085	-0.107	0.067
-345.420	-200.000	0.248	0.000
-344.406	45.761	-0.143	-0.131
-343.391	159.246	-0.082	0.113
-342.377	-200.000	-0.013	-0.148
-341.362	747.502	-0.073	-0.195
-340.348	-162.591	0.226	0.011
-339.333	-88.249	-0.214	-0.063
-338.318	-16.750	-0.223	0.140
-337.304	89.842	0.277	0.306
-336.289	-200.000	-0.027	-0.177
-335.275	-66.668	0.084	0.033
-334.260	326.718	0.109	0.208
-333.245	332.656	0.118	0.225
-332.231	322.490	0.034	0.065
-331.216	157.675	0.077	0.106
-330.202	-33.012	-0.131	0.072
-329.187	209.251	-0.170	0.264
-328.172	-28.029	0.173	-0.099
-327.158	-29.122	0.132	0.075
-326.143	-200.000	-0.046	0.387
-325.129	-71.757	-0.581	0.215
-324.114	-158.208	-0.165	0.010
-323.099	-200.000	-0.005	0.163
-322.085	-50.612	-0.101	-0.047
-321.070	10.245	-0.078	-0.059
-320.056	-74.659	-0.112	-0.040
-319.041	221.938	-0.136	-0.217
-318.026	653.679	-0.063	-0.160
-317.012	135.049	-0.110	-0.142
-315.997	-200.000	-0.052	-0.259
-314.983	87.999	-0.067	0.074
-313.968	127.269	0.135	0.169
-312.953	-148.436	0.288	-0.023
-311.939	-200.000	0.001	-0.159
-310.924	-120.873	0.088	0.015
-309.910	69.381	0.112	0.114
-308.895	105.967	-0.171	0.200
-307.880	129.795	0.202	-0.256
-306.866	49.729	0.089	-0.083
-305.851	-48.359	0.115	-0.055
-304.837	-200.000	0.042	-0.262
-303.822	-191.395	0.197	0.002
-302.807	-6.051	0.398	0.269
-301.793	-170.820	-0.257	-0.009
-300.778	-61.878	0.207	-0.086
-299.764	800.000	-0.044	0.178
-298.749	-103.983	0.209	0.048
-297.735	-200.000	-0.006	0.048
-296.720	-200.000	-0.057	-0.292
-295.705	266.128	-0.058	0.101
-294.691	-29.412	0.429	0.243
-293.676	-18.774	-0.218	-0.134
-292.662	-76.288	0.458	-0.160
-291.647	800.000	0.096	-0.349
-290.632	-200.000	-0.010	0.047
-289.618	235.618	0.104	-0.170
-288.603	-91.365	0.262	0.074
-287.589	346.507	0.127	-0.247
-286.574	-200.000	0.025	-0.161
-285.559	-200.000	0.008	-0.300
-284.545	-53.902	-0.106	0.048
-283.530	13.432	0.139	-0.107
-282.516	-12.106	0.125	0.081
-281.501	-135.092	0.048	-0.006
-280.486	277.835	-0.177	-0.312
-279.472	-75.027	-0.392	0.139
-278.457	-42.028	-0.152	-0.077
-277.443	152.129	0.196	0.264
-276.428	-200.000	0.025	0.236
-275.413	784.761	0.010	0.028
-274.399	-200.000	-0.009	-0.407
-273.384	-144.540	-0.116	-0.011
-272.370	-140.764	0.062	-0.006
-271.355	-200.000	-0.018	-0.324
-270.340	-200.000	0.038	0.286
-269.326	78.042	-0.074	-0.078
-268.311	-200.000	0.071	0.327
-267.297	-102.476	0.250	-0.059
-266.282	79.055	-0.162	0.171
-265.267	-200.000	0.002	-0.074
-264.253	534.548	-0.035	-0.083
-263.238	-117.221	0.056	0.010
-262.224	800.000	-0.073	-0.244
-261.209	-200.000	-0.006	-0.176
-260.195	-103.476	0.125	0.029
-259.180	-200.000	0.009	-0.169
-258.165	243.958	0.122	0.202
-257.151	-17.078	0.079	-0.049
-256.136	64.076	-0.236	-0.235
-255.122	374.273	-0.094	0.189
-254.107	71.874	0.108	-0.111
-253.092	210.306	-0.192	-0.298
-252.078	-105.016	-0.439	-0.099
-251.063	-200.000	-0.024	-0.306
-250.049	800.000	-0.136	0.374
-249.034	-105.179	0.258	-0.058
-248.019	-200.000	-0.001	0.208
-247.005	-12.896	-0.203	-0.131
-245.990	-22.615	0.273	-0.163
-244.976	160.530	-0.226	-0.311
-243.961	-9.436	-0.281	-0.185
-242.946	-38.196	0.172	-0.090
-241.932	-143.082	0.046	-0.004
-240.917	431.902	0.154	0.330
-239.903	800.000	-0.012	-0.043
-238.888	-121.506	0.189	0.031
-237.873	-49.266	-0.035	-0.017
-236.859	-36.055	-0.171	0.091
-235.844	800.000	0.024	0.071
-234.830	581.994	-0.053	0.129
-233.815	-80.601	-0.177	-0.058
-232.800	-200.000	-0.065	0.288
-231.786	12.231	-0.284	-0.216
-230.771	-148.380	0.201	-0.016
-229.757	-46.366	-0.320	-0.155
-228.742	-136.471	-0.123	-0.014
-227.727	100.705	0.033	0.038
-226.713	-200.000	0.039	-0.297
-225.698	185.590	-0.097	0.142
-224.684	-80.009	-0.296	-0.098
-223.669	-52.913	-0.365	-0.166
-222.655	-34.871	0.362	0.195
-221.640	-200.000	0.015	-0.065
-220.625	534.858	0.113	-0.265
-219.611	-200.000	0.004	-0.141
-218.596	285.634	-0.128	0.228
-217.582	800.000	-0.039	-0.147
-216.567	34.142	-0.103	-0.088
-215.552	612.229	0.073	-0.181
-214.538	18.953	-0.230	0.181
-213.523	68.641	-0.069	0.070
-212.509	-200.000	0.005	0.147
-211.494	211.204	0.201	0.312
-210.479	-78.573	0.139	-0.047
-209.465	-104.031	-0.131	0.030
-208.450	437.679	0.143	-0.307
-207.436	-37.961	0.121	0.063
-206.421	800.000	-0.064	0.207
-205.406	76.220	0.084	-0.088
-204.392	-200.000	-0.010	-0.047
-203.377	-149.499	-0.246	0.019
-202.363	800.000	0.018	-0.062
-201.348	288.664	0.182	0.325
-200.333	-86.911	-0.415	0.125
-199.319	-50.910	-0.450	0.208
-198.304	4.996	0.089	0.065
-197.290	7.911	-0.248	0.183
-196.275	-29.290	-0.240	-0.135
-195.260	-53.340	-0.244	0.110
-194.246	615.838	-0.081	0.199
-193.231	-33.935	-0.190	-0.103
-192.217	-168.125	0.235	-0.009
-191.202	39.559	0.289	0.255
-190.187	457.126	-0.089	-0.196
-189.173	800.000	-0.040	-0.161
-188.158	256.106	-0.111	-0.188
-187.144	793.341	0.095	-0.259
-186.129	800.000	0.078	0.327
-185.114	-64.191	0.113	0.045
-184.100	-44.730	-0.142	0.070
-183.085	120.811	0.390	0.477
-182.071	227.640	-0.208	0.333
-181.056	48.806	-0.055	-0.051
-180.042	216.476	-0.084	0.131
-179.027	-198.325	-0.218	0.001
-178.012	191.618	-0.087	0.130
-176.998	800.000	0.044	0.182
-175.983	749.826	0.044	-0.118
-174.969	653.411	-0.105	-0.265
-173.954	111.392	0.061	-0.072
-172.939	-17.038	-0.175	0.109
-171.925	-59.475	0.253	0.107
-170.910	402.299	0.055	-0.114
-169.896	-133.150	0.525	0.065
-168.881	-121.284	-0.188	0.031
-167.866	130.299	0.224	0.283
-166.852	197.096	-0.114	0.171
-165.837	-200.000	-0.066	0.320
-164.823	800.000	0.093	-0.320
-163.808	145.814	-0.201	-0.266
-162.793	666.886	-0.014	-0.037
-161.779	36.126	0.109	0.094
-160.764	800.000	-0.070	0.287
-159.750	-200.000	-0.090	-0.480
-158.735	1.495	0.439	0.311
-157.720	225.737	-0.056	0.089
-156.706	341.129	-0.151	0.290
-155.691	91.099	0.085	-0.094
-154.677	-175.039	0.273	0.007
-153.662	-200.000	-0.017	0.313
-152.647	800.000	0.079	0.225
-151.633	-73.323	-0.291	0.105
-150.618	38.765	-0.044	-0.039
-149.604	281.537	-0.191	-0.336
-148.589	-139.339	0.445	-0.047
-147.574	-7.348	-0.147	-0.098
-146.560	-187.445	-0.266	-0.004
-145.545	-50.462	-0.263	-0.122
-144.531	-200.000	0.062	0.282
-143.516	114.846	0.178	0.214
-142.502	-41.743	0.154	0.078
-141.487	306.740	-0.119	-0.218
-140.472	-113.993	0.277	0.053
-139.458	-155.227	0.324	-0.021
-138.443	3.146	0.152	-0.108
-137.429	-50.815	-0.264	-0.122
-136.414	-64.974	0.040	-0.016
-135.399	-97.837	-0.148	-0.038
-134.385	-200.000	0.029	0.250
-133.370	-184.922	-0.255	-0.004
-132.356	-117.309	0.097	-0.017
-131.341	-27.195	0.086	0.049
-130.326	-171.441	-0.338	-0.011
-129.312	-86.466	0.146	-0.044
-128.297	-200.000	-0.005	0.041
-127.283	-3.140	-0.124	-0.085
-126.268	23.028	0.164	0.132
-125.253	-159.386	0.387	0.021
-124.239	276.796	0.056	-0.097
-123.224	-12.349	0.017	0.011
-122.210	-118.543	0.135	-0.023
-121.195	-200.000	0.016	-0.255
-120.180	17.011	-0.298	0.232
-119.166	800.000	0.094	-0.280
-118.151	-200.000	-0.012	0.221
-117.137	8.248	-0.231	0.171
-116.122	105.489	-0.044	0.051
-115.107	378.432	0.129	-0.259
-114.093	55.935	0.303	0.289
-113.078	800.000	0.064	-0.192
-112.064	311.927	-0.081	0.149
-111.049	-73.896	-0.218	-0.078
-110.034	42.381	-0.207	-0.185
-109.020	241.992	-0.098	-0.161
-108.005	800.000	-0.082	-0.247
-106.991	198.139	0.176	-0.265
-105.976	800.000	0.080	0.330
-104.962	175.272	-0.150	-0.214
-103.947	20.345	0.165	-0.131
-102.932	288.939	-0.145	0.257
-101.918	288.335	0.118	-0.210
-100.903	89.599	-0.143	-0.157
-99.889	-200.000	0.033	-0.143
-98.874	654.717	-0.098	-0.247
-97.859	21.188	-0.044	-0.035
-96.845	-93.674	0.232	-0.063
-95.830	-120.174	0.069	0.012
-94.816	1.256	-0.305	-0.215
-93.801	-48.963	-0.195	-0.092
-92.786	43.907	0.129	-0.116
-91.772	211.758	0.185	0.285
-90.757	800.000	-0.030	0.097
-89.743	117.134	-0.196	-0.236
-88.728	90.059	0.202	-0.222
-87.713	800.000	-0.054	-0.197
-86.699	-200.000	0.022	-0.176
-85.684	483.975	-0.058	0.131
-84.670	31.117	-0.240	0.202
-83.655	-3.498	0.309	-0.211
-82.640	-6.522	0.303	0.202
-81.626	-200.000	-0.023	0.119
-80.611	-200.000	0.027	-0.185
-79.597	800.000	-0.023	0.077
-78.582	-85.231	-0.155	0.047
-77.567	-30.971	-0.075	-0.042
-76.553	-84.710	0.212	0.065
-75.538	96.393	0.070	0.078
-74.524	-72.681	-0.337	0.122
-73.509	-194.560	-0.293	0.002
-72.494	291.591	0.242	0.432
-71.480	-200.000	-0.020	-0.191
-70.465	-13.648	0.142	-0.090
-69.451	-57.425	0.277	-0.119
-68.436	-53.196	0.372	0.168
-67.422	-163.148	0.210	-0.010
-66.407	-200.000	-0.000	-0.130
-65.392	-87.138	0.357	-0.107
-64.378	63.996	0.145	0.143
-63.363	97.626	0.185	0.208
-62.349	68.806	-0.201	0.203
-61.334	171.295	-0.761	-1.070
-60.319	63.113	0.505	0.495
-59.305	-200.000	-0.245	-1.061
-58.290	89.394	0.747	0.817
-57.276	527.318	0.640	1.478
-56.261	-200.000	112.947	637.933
-55.246	470.949	1500.962	3307.968
-54.232	147.982	2665.929	3523.004
-53.217	104.120	2152.493	2480.249
-52.203	38.925	1604.302	1404.395
-51.188	30.946	1351.535	1134.735
-50.173	28.125	1313.350	1085.909
-49.159	55.515	1369.132	1298.535
-48.144	54.267	1383.951	1305.004
-47.130	31.280	1339.477	1126.446
-46.115	27.938	1321.633	1091.469
-45.100	27.698	1316.754	1085.967
-44.086	27.638	1314.801	1083.957
-43.071	27.616	1312.131	1081.582
-42.057	27.576	1310.195	1079.704
-41.042	27.541	1309.005	1078.474
-40.027	27.640	1307.486	1077.766
-39.013	27.643	1304.992	1075.686
-37.998	27.694	1303.128	1074.410
-36.984	27.868	1300.991	1073.624
-35.969	27.677	1299.922	1071.580
-34.954	27.758	1297.956	1070.389
-33.940	27.777	1296.608	1069.348
-32.925	27.849	1295.346	1068.689
-31.911	27.828	1293.856	1067.290
-30.896	27.826	1292.632	1066.228
-29.881	27.840	1291.813	1065.593
-28.867	27.829	1289.937	1063.937
-27.852	27.850	1288.289	1062.657
-26.838	27.849	1286.949	1061.506
-25.823	27.752	1286.098	1060.201
-24.809	27.860	1284.227	1059.242
-23.794	27.847	1283.115	1058.206
-22.779	27.782	1282.083	1056.937
-21.765	27.821	1280.616	1055.912
-20.750	27.779	1278.916	1054.227
-19.736	27.807	1277.666	1053.314
-18.721	27.714	1276.589	1051.848
-17.706	27.721	1275.425	1050.888
-16.692	27.773	1274.238	1050.165
-15.677	27.821	1273.194	1049.540
-14.663	27.730	1272.205	1048.162
-13.648	27.656	1271.034	1046.732
-12.633	27.746	1269.913	1046.281
-11.619	27.677	1269.228	1045.281
-10.604	27.639	1268.509	1044.430
-9.590	27.633	1267.376	1043.419
-8.575	27.658	1266.497	1042.800
-7.560	27.575	1266.022	1041.888
-6.546	27.736	1264.994	1041.921
-5.531	27.715	1263.792	1040.775
-4.517	27.723	1263.195	1040.285
-3.502	27.819	1261.775	1039.618
-2.487	27.714	1261.104	1038.430
-1.473	27.687	1256.755	1034.651
-0.458	26.188	1241.691	1013.801
0.556	21.363	1224.905	976.737
1.571	17.783	1231.494	961.758
2.586	16.956	1246.430	968.613
3.600	17.098	1235.335	960.710
4.615	15.374	1168.856	899.693
5.629	12.345	1101.656	832.559
6.644	10.539	1085.083	810.938
7.659	10.432	1082.795	808.623
8.673	10.414	1081.337	807.374
9.688	10.486	1080.239	806.839
10.702	10.626	1077.794	805.637
11.717	12.704	1079.324	817.032
12.731	15.832	1084.053	836.102
13.746	17.761	1086.110	847.206
14.761	17.795	1085.579	846.885
15.775	16.660	1083.407	839.487
16.790	15.550	1082.005	832.828
17.804	14.768	1080.132	827.443
18.819	14.361	1078.864	824.384
19.834	14.142	1077.726	822.357
20.848	13.956	1076.881	820.723
21.863	13.771	1076.173	819.194
22.877	13.558	1075.090	817.249
23.892	13.470	1074.575	816.350
24.907	13.563	1073.881	816.209
25.921	13.623	1072.801	815.611
26.936	13.557	1071.449	814.188
27.950	13.626	1070.138	813.460
28.965	13.637	1068.600	812.269
29.980	13.742	1066.831	811.367
30.994	13.772	1065.730	810.604
32.009	13.806	1064.880	810.055
33.023	13.821	1063.461	808.973
34.038	13.652	1063.068	807.781
35.053	13.705	1061.725	806.947
36.067	13.567	1061.254	805.844
37.082	13.636	1060.536	805.565
38.096	13.694	1059.899	805.294
39.111	13.765	1058.316	804.363
40.126	13.611	1057.285	802.759
41.140	13.536	1056.179	801.488
42.155	13.442	1054.900	799.991
43.169	13.508	1053.377	799.087
44.184	13.462	1052.588	798.194
45.199	13.479	1051.550	797.420
46.213	13.513	1050.684	796.855
47.228	13.711	1049.332	796.712
48.242	13.654	1048.078	795.413
49.257	13.626	1047.362	794.666
50.271	13.652	1046.437	794.016
51.286	13.582	1045.860	793.175
52.301	13.642	1044.543	792.392
53.315	13.581	1043.823	791.485
54.330	13.537	1042.715	790.366
55.344	13.531	1042.081	789.788
56.359	13.647	1040.953	789.412
57.374	13.628	1039.730	788.326
58.388	13.509	1039.206	787.293
59.403	13.368	1038.825	786.264
60.417	13.456	1038.201	786.143
61.432	13.510	1036.680	785.174
62.447	13.411	1035.785	783.962
63.461	13.479	1034.993	783.611
64.476	13.449	1033.950	782.613
65.490	13.440	1033.236	781.958
66.505	13.327	1032.786	781.017
67.520	13.431	1031.904	780.769
68.534	13.506	1031.391	780.666
69.549	13.445	1030.563	779.685
70.563	13.471	1029.730	779.106
71.578	13.516	1028.630	778.419
72.593	13.266	1028.151	776.812
73.607	13.281	1027.322	776.185
74.622	13.258	1027.013	775.778
75.636	13.399	1025.468	775.202
76.651	13.314	1025.638	774.865
77.666	13.358	1024.491	774.134
78.680	13.331	1024.110	773.653
79.695	13.335	1023.186	772.901
80.709	13.533	1022.474	773.222
81.724	13.400	1022.440	772.504
82.739	13.571	1021.440	772.482
83.753	13.583	1020.373	771.662
84.768	13.692	1019.451	771.402
85.782	13.750	1018.608	770.967
86.797	13.785	1017.364	770.118
87.812	13.597	1016.828	768.771
88.826	13.700	1015.359	768.070
89.841	13.739	1014.906	767.841
90.855	13.702	1014.344	767.178
91.870	13.780	1013.059	766.496
92.884	13.753	1012.440	765.836
93.899	13.740	1011.872	765.281
94.914	13.849	1010.537	764.705
95.928	13.766	1009.947	763.806
96.943	13.802	1009.077	763.248
97.957	13.725	1008.269	762.216
98.972	13.760	1007.059	761.393
99.987	13.811	1006.202	760.913
101.001	13.819	1005.029	759.992
102.016	13.758	1004.619	759.339
103.030	13.751	1003.594	758.465
104.045	13.750	1003.123	758.038
105.060	13.724	1002.472	757.358
106.074	13.679	1000.904	755.900
107.089	13.602	1000.247	754.991
108.103	13.494	999.232	753.662
109.118	13.510	998.190	752.884
110.133	13.517	997.287	752.166
111.147	13.489	996.488	751.372
112.162	13.525	995.784	750.935
113.176	13.571	995.216	750.652
114.191	13.623	994.651	750.393
115.206	13.554	993.604	749.227
116.220	13.618	992.316	748.476
117.235	13.673	991.649	748.156
118.249	13.616	990.527	746.989
119.264	13.675	990.027	746.810
120.279	13.683	988.841	745.886
121.293	13.580	988.589	745.165
122.308	13.408	987.738	743.688
123.322	13.559	986.372	743.270
124.337	13.512	985.497	742.334
125.352	13.537	984.475	741.611
126.366	13.572	983.403	740.892
127.381	13.481	982.662	739.861
128.395	13.508	981.512	739.051
129.410	13.565	980.553	738.519
130.424	13.634	979.457	737.936
131.439	13.691	979.174	737.910
132.454	13.628	978.673	737.185
133.468	13.649	977.379	736.239
134.483	13.772	976.008	735.689
135.497	13.656	975.647	734.834
136.512	13.562	975.136	733.970
137.527	13.635	974.063	733.419
138.541	13.622	973.388	732.788
139.556	13.641	972.965	732.490
140.570	13.812	971.757	732.272
141.585	13.792	971.194	731.692
142.600	13.860	970.325	731.274
143.614	13.836	969.540	730.514
144.629	13.881	968.815	730.098
145.643	13.885	967.805	729.289
146.658	13.797	966.698	728.007
147.673	13.751	966.304	727.441
148.687	13.695	965.392	726.447
149.702	13.721	964.304	725.677
150.716	13.826	963.398	725.390
151.731	13.842	962.323	724.588
152.746	13.680	961.897	723.493
153.760	13.814	961.386	723.629
154.775	13.845	960.950	723.376
155.789	13.917	960.050	722.946
156.804	13.915	959.461	722.431
157.819	14.054	958.529	722.269
158.833	13.971	957.763	721.267
159.848	14.032	956.831	720.767
160.862	14.026	955.720	719.840
161.877	13.789	955.099	718.281
162.892	13.900	953.935	717.823
163.906	13.767	953.222	716.646
164.921	13.967	952.005	716.532
165.935	13.863	951.526	715.660
166.950	13.859	950.768	715.010
167.964	13.989	949.627	714.647
168.979	13.863	948.917	713.508
169.994	13.889	948.033	712.890
171.008	14.020	947.914	713.303
172.023	14.044	947.072	712.709
173.037	13.952	946.510	711.828
174.052	14.006	945.605	711.314
175.067	13.956	944.871	710.488
176.081	13.923	944.489	709.997
177.096	13.941	943.719	709.429
178.110	13.904	943.418	708.984
179.125	13.840	942.452	707.924
180.140	14.086	942.355	708.834
181.154	14.083	941.941	708.448
182.169	14.095	941.136	707.829
183.183	14.064	940.354	707.050
184.198	14.263	939.632	707.287
185.213	14.060	939.066	705.937
186.227	14.177	938.431	705.893
187.242	14.284	937.267	705.410
188.256	14.340	937.255	705.575
189.271	14.185	936.223	704.081
190.286	14.078	935.331	702.896
191.300	14.034	934.701	702.173
192.315	13.907	933.988	701.040
193.329	14.042	933.871	701.458
194.344	14.071	933.058	700.909
195.359	14.108	931.965	700.183
196.373	14.281	931.616	700.585
197.388	14.375	930.799	700.304
198.402	14.386	930.400	699.989
199.417	14.425	929.919	699.727
200.432	14.428	929.553	699.403
201.446	14.395	929.135	698.887
202.461	14.514	928.703	699.002
203.475	14.438	928.262	698.290
204.490	14.434	926.956	697.229
205.504	14.445	926.152	696.607
206.519	14.374	925.292	695.601
207.534	14.444	924.662	695.358
208.548	14.441	924.239	694.969
209.563	14.330	923.900	694.190
210.577	14.521	923.072	694.301
211.592	14.510	921.793	693.229
212.607	14.558	921.433	693.097
213.621	14.621	920.723	692.766
214.636	14.608	919.833	691.979
215.650	14.540	919.769	691.590
216.665	14.732	918.502	691.371
217.680	14.672	918.314	690.918
218.694	14.727	917.462	690.444
219.709	14.785	916.434	689.846
220.723	14.642	916.292	689.091
221.738	14.654	915.289	688.324
222.753	14.867	914.230	688.344
223.767	14.634	914.612	687.611
224.782	14.758	913.621	687.316
225.796	14.824	912.975	687.039
226.811	14.814	912.277	686.414
227.826	14.762	911.432	685.502
228.840	14.833	910.567	685.083
229.855	14.774	909.843	684.236
230.869	14.775	909.009	683.553
231.884	14.768	908.488	683.071
232.899	14.771	907.889	682.574
233.913	14.674	907.245	681.631
234.928	14.646	906.451	680.862
235.942	14.828	905.368	680.727
236.957	14.751	905.210	680.234
237.972	14.857	904.576	680.130
238.986	14.757	903.815	679.092
240.001	14.677	903.524	678.487
241.015	14.794	902.744	678.315
242.030	14.793	902.591	678.137
243.045	14.838	901.185	677.205
244.059	14.834	900.921	676.929
245.074	14.857	900.577	676.705
246.088	14.925	899.710	676.270
247.103	14.966	898.936	675.793
248.117	15.081	898.501	675.869
249.132	15.180	897.773	675.661
250.147	15.240	897.792	675.858
251.161	15.279	896.986	675.348
252.176	15.295	896.266	674.810
253.190	15.342	895.552	674.403
254.205	15.192	894.842	673.206
255.220	15.247	894.268	672.934
256.234	15.245	893.695	672.438
257.249	15.308	892.453	671.695
258.263	15.206	891.940	670.839
259.278	15.400	891.104	670.929
260.293	15.444	890.375	670.496
261.307	15.525	889.952	670.441
262.322	15.462	889.860	670.061
263.336	15.395	889.006	669.092
264.351	15.463	888.007	668.554
265.366	15.586	887.571	668.655
266.380	15.698	886.497	668.232
267.395	15.551	885.955	667.178
268.409	15.429	885.223	666.085
269.424	15.575	884.609	666.143
270.439	15.540	883.614	665.195
271.453	15.364	883.202	664.129
272.468	15.385	882.714	663.786
273.482	15.604	881.925	664.000
274.497	15.475	881.405	663.040
275.512	15.516	881.083	662.902
276.526	15.579	880.547	662.690
277.541	15.434	879.953	661.612
278.555	15.744	878.853	661.946
279.570	15.819	878.240	661.719
280.585	15.754	877.520	660.867
281.599	15.673	876.764	659.918
282.614	15.813	876.110	659.916
283.628	15.717	875.621	659.116
284.643	15.613	875.561	658.601
285.657	15.759	874.571	658.372
286.672	15.720	873.858	657.623
287.687	15.785	873.140	657.278
288.701	15.781	872.790	656.944
289.716	15.790	872.225	656.493
290.730	15.804	871.754	656.137
291.745	15.881	870.843	655.694
292.760	15.932	869.991	655.192
293.774	15.944	869.972	655.165
294.789	15.864	869.300	654.290
295.803	15.927	868.545	653.910
296.818	15.903	867.705	653.125
297.833	15.937	866.746	652.478
298.847	16.014	866.356	652.423
299.862	15.791	866.428	651.556
300.876	15.929	865.736	651.512
301.891	15.984	864.937	651.068
302.906	16.150	863.880	650.856
303.920	16.074	863.970	650.573
304.935	16.105	863.402	650.207
305.949	16.134	863.042	649.990
306.964	16.167	861.783	649.110
307.979	16.154	861.434	648.738
308.993	16.018	861.007	647.839
310.008	16.181	860.230	647.824
311.022	16.173	859.907	647.492
312.037	16.007	858.933	646.065
313.052	16.124	858.378	646.039
314.066	16.005	857.902	645.168
315.081	16.174	856.968	645.051
316.095	16.090	856.674	644.454
317.110	16.007	856.100	643.648
318.125	16.168	855.446	643.713
319.139	16.091	855.433	643.352
320.154	16.186	854.658	643.077
321.168	16.086	854.547	642.554
322.183	16.220	853.912	642.530
323.197	16.313	853.369	642.417
324.212	16.164	852.861	641.412
325.227	16.276	851.579	640.818
326.241	16.218	851.388	640.396
327.256	16.184	850.916	639.856
328.270	16.187	850.392	639.415
329.285	16.044	850.095	638.595
330.300	16.231	849.066	638.474
331.314	16.321	848.606	638.412
332.329	16.203	848.252	637.643
333.343	16.386	847.822	637.953
334.358	16.351	847.249	637.335
335.373	16.428	846.931	637.330
336.387	16.333	846.755	636.783
337.402	16.438	846.632	637.027
338.416	16.390	846.392	636.612
339.431	16.575	845.570	636.632
340.446	16.817	845.101	637.133
341.460	16.648	844.940	636.320
342.475	16.628	844.775	636.064
343.489	16.710	844.100	635.808
344.504	16.802	843.115	635.355
345.519	16.703	843.036	634.866
346.533	16.804	842.017	634.421
347.548	16.711	841.315	633.490
348.562	16.747	841.408	633.636
349.577	16.571	840.973	632.594
350.592	16.620	840.150	632.103
351.606	16.576	839.313	631.255
352.621	16.689	838.460	630.978
353.635	16.507	838.185	630.036
354.650	16.727	837.285	630.121
355.665	16.791	836.780	629.924
356.679	16.839	836.223	629.629
357.694	16.792	835.655	628.970
358.708	16.660	835.287	628.150
359.723	16.828	834.497	628.120
360.738	16.888	833.759	627.734
361.752	16.755	833.540	627.020
362.767	16.920	832.345	626.675
363.781	17.015	832.166	626.837
364.796	16.920	831.847	626.191
365.810	17.144	831.639	626.804
366.825	17.115	830.712	625.943
367.840	16.996	830.663	625.411
368.854	17.025	830.085	625.027
369.869	16.971	829.617	624.424
370.883	17.135	828.996	624.504
371.898	17.035	829.013	624.091
372.913	17.160	828.426	624.054
373.927	17.161	827.905	623.612
374.942	17.182	827.609	623.408
375.956	17.066	827.419	622.785
376.971	17.292	826.684	623.006
377.986	17.174	826.352	622.269
379.000	17.269	825.666	622.043
380.015	17.255	824.940	621.390
381.029	17.398	824.147	621.260
382.044	17.372	823.721	620.789
383.059	17.320	823.522	620.393
384.073	17.262	822.697	619.507
385.088	17.218	822.345	619.027
386.102	17.203	821.659	618.403
387.117	17.372	820.981	618.451
388.132	17.171	820.668	617.429
389.146	17.389	819.709	617.445
390.161	17.332	819.881	617.314
391.175	17.387	819.187	616.934
392.190	17.384	818.425	616.295
393.205	17.308	818.447	615.985
394.219	17.316	817.674	615.377
395.234	17.259	817.103	614.686
396.248	17.176	816.930	614.199
397.263	17.146	816.246	613.525
398.278	17.220	816.001	613.554
399.292	17.265	815.673	613.416
400.307	17.241	814.756	612.582
401.321	17.296	814.238	612.340
402.336	17.197	814.440	612.077
403.350	17.260	813.679	611.678
404.365	17.561	813.466	612.546
405.380	17.577	812.761	612.019
406.394	17.542	812.230	611.440
407.409	17.445	811.931	610.812
408.423	17.570	811.855	611.151
409.438	17.699	811.040	610.945
410.453	17.726	810.684	610.722
411.467	17.669	810.252	610.136
412.482	17.658	809.838	609.731
413.496	17.748	809.607	609.826
414.511	17.782	809.323	609.679
415.526	17.837	808.624	609.294
416.540	17.949	808.147	609.283
417.555	17.866	807.541	608.473
418.569	17.942	807.176	608.416
419.584	17.804	807.127	607.835
420.599	17.819	806.315	607.222
421.613	111.146	1294.788	1475.266
422.628	95.902	1365.913	1475.342
