DTS Sentinel unit serial number:	SN413079Multiplexer serial number:	ORYXHardware model number:	OX4-SRSoftware version number:	ORYX F/W v4.00 Oryx Data Collector v3.7.2.0data status	okinstallation	princeton_trtdifferential loss correction	single-endedforward channel	channel 1reverse channel	N/Adate	2019/09/16time	14:42:35forward acquisition time	60.00reverse acquisition time	0.00gamma	496.2192k internal	0.2294k external	0.2294temperature offset calibration	0.9953default loss term (dB/km)	0.3790temperature slope calibration	1.0000multiplexer offset coefficient	1.0000multiplexer slope coefficient	1.0000fibre end	0.00T internal ref (°C)	41.62T ext. ref 1 (°C)	14.32T ext. ref 2 (°C)	35.79length (m)	temperature (°C)	Stokes	anti-Stokes-747.200	34.584	0.136	-0.121
-746.185	45.743	-0.202	0.191
-745.171	-100.862	-0.223	0.056
-744.156	-93.657	0.199	-0.056
-743.142	512.349	-0.066	-0.158
-742.127	-200.000	-0.041	0.257
-741.112	446.528	0.076	0.170
-740.098	800.000	0.030	0.088
-739.083	-9.203	-0.174	-0.119
-738.069	-200.000	0.014	-0.066
-737.054	13.239	-0.189	0.149
-736.039	800.000	0.058	-0.234
-735.025	15.454	-0.086	-0.069
-734.010	-139.042	0.209	-0.023
-732.996	-200.000	-0.023	-0.316
-731.981	-11.323	-0.276	0.186
-730.966	800.000	0.069	-0.279
-729.952	-184.349	-0.058	-0.001
-728.937	123.208	0.134	-0.172
-727.923	800.000	-0.070	-0.270
-726.908	-108.921	-0.114	-0.025
-725.894	-107.356	-0.492	-0.110
-724.879	14.008	0.265	0.211
-723.864	171.649	-0.057	-0.084
-722.850	-200.000	-0.014	-0.073
-721.835	-200.000	0.002	0.288
-720.821	-127.390	-0.077	0.011
-719.806	362.725	-0.022	-0.046
-718.791	800.000	0.022	-0.071
-717.777	-29.904	-0.232	-0.135
-716.762	-99.119	-0.150	-0.039
-715.748	23.045	-0.273	-0.229
-714.733	-75.844	-0.045	-0.016
-713.718	632.764	0.135	0.349
-712.704	-146.683	0.082	-0.007
-711.689	5.977	0.195	-0.147
-710.675	-124.306	0.219	-0.035
-709.660	-121.770	0.225	0.038
-708.645	-200.000	0.005	0.188
-707.631	-200.000	0.005	0.272
-706.616	-200.000	-0.055	0.323
-705.602	-127.204	0.172	0.026
-704.587	22.729	-0.256	-0.214
-703.572	364.764	0.057	0.116
-702.558	-200.000	-0.015	0.247
-701.543	639.648	-0.037	0.097
-700.529	-140.915	0.101	0.011
-699.514	800.000	0.082	-0.341
-698.499	29.940	-0.341	-0.297
-697.485	37.243	0.047	-0.042
-696.470	-72.600	-0.480	0.181
-695.456	95.593	0.059	0.069
-694.441	-159.647	0.542	0.031
-693.426	-200.000	0.021	-0.182
-692.412	800.000	-0.029	-0.090
-691.397	-200.000	0.006	0.026
-690.383	42.287	-0.201	-0.186
-689.368	-116.368	-0.417	-0.079
-688.354	-200.000	0.005	-0.232
-687.339	-50.542	0.094	0.045
-686.324	722.846	-0.036	0.098
-685.310	-8.829	-0.036	0.024
-684.295	-128.228	0.191	0.028
-683.281	603.302	-0.014	0.035
-682.266	-176.069	-0.243	0.007
-681.251	-200.000	-0.039	-0.209
-680.237	58.117	0.047	-0.047
-679.222	-53.696	-0.097	0.045
-678.208	-129.811	0.369	-0.052
-677.193	-200.000	0.009	0.252
-676.178	172.002	0.112	0.164
-675.164	63.479	-0.184	-0.189
-674.149	-200.000	-0.009	-0.085
-673.135	-78.632	0.136	-0.047
-672.120	-38.013	0.210	-0.114
-671.105	-37.591	-0.018	0.010
-670.091	-137.951	0.399	0.045
-669.076	-139.685	0.220	-0.024
-668.062	-56.709	0.096	-0.044
-667.047	-200.000	-0.011	-0.382
-666.032	49.604	0.248	-0.238
-665.018	619.229	-0.026	0.068
-664.003	-200.000	0.011	0.218
-662.989	-54.685	0.195	-0.090
-661.974	-108.413	0.083	0.018
-660.959	800.000	0.042	0.173
-659.945	800.000	-0.018	-0.076
-658.930	-200.000	0.024	-0.384
-657.916	-200.000	-0.035	0.258
-656.901	-40.277	-0.144	-0.076
-655.886	800.000	0.045	0.186
-654.872	-61.873	0.152	0.065
-653.857	800.000	-0.058	0.244
-652.843	166.923	-0.212	-0.307
-651.828	-46.291	0.204	0.102
-650.814	-200.000	-0.007	-0.073
-649.799	-200.000	0.008	-0.237
-648.784	-56.510	-0.050	-0.023
-647.770	800.000	-0.093	-0.326
-646.755	800.000	-0.011	0.042
-645.741	-152.350	-0.231	-0.017
-644.726	800.000	-0.096	0.303
-643.711	-127.997	-0.335	0.049
-642.697	800.000	0.071	0.220
-641.682	-200.000	0.038	-0.332
-640.668	-151.888	0.459	0.034
-639.653	-55.813	-0.235	-0.107
-638.638	-87.478	-0.294	-0.091
-637.624	-117.905	-0.206	0.038
-636.609	-131.521	-0.439	0.059
-635.595	261.533	0.040	-0.070
-634.580	177.890	0.025	0.038
-633.565	-49.649	-0.124	0.060
-632.551	-108.426	-0.252	-0.055
-631.536	-182.095	-0.325	-0.006
-630.522	800.000	0.040	-0.136
-629.507	-89.328	0.327	0.098
-628.492	-70.801	0.207	-0.079
-627.478	52.861	0.170	0.165
-626.463	160.371	-0.235	0.333
-625.449	-166.580	0.158	0.007
-624.434	800.000	0.019	-0.068
-623.419	441.682	0.077	0.171
-622.405	-68.090	0.333	0.132
-621.390	-200.000	0.008	-0.063
-620.376	-200.000	0.001	0.175
-619.361	-108.544	0.086	-0.019
-618.346	-103.271	-0.140	0.034
-617.332	-200.000	0.016	-0.273
-616.317	91.390	-0.204	-0.233
-615.303	-112.040	-0.104	0.021
-614.288	800.000	-0.106	-0.459
-613.273	-115.297	0.141	-0.027
-612.259	-200.000	0.013	-0.096
-611.244	794.949	-0.079	-0.220
-610.230	246.404	-0.133	-0.228
-609.215	358.338	-0.019	-0.039
-608.201	-59.029	-0.084	0.037
-607.186	229.098	-0.042	-0.070
-606.171	126.367	-0.076	0.097
-605.157	198.543	0.062	-0.097
-604.142	-98.647	-0.350	0.091
-603.128	800.000	-0.067	-0.284
-602.113	391.560	-0.043	0.091
-601.098	-200.000	0.007	-0.151
-600.084	800.000	0.067	0.231
-599.069	79.150	0.185	-0.202
-598.055	395.500	0.102	0.215
-597.040	-94.851	-0.291	0.080
-596.025	306.501	-0.107	0.203
-595.011	-37.274	-0.024	-0.013
-593.996	-125.962	-0.166	0.025
-592.982	-200.000	-0.029	0.145
-591.967	-99.969	0.530	0.134
-590.952	-200.000	0.003	-0.217
-589.938	800.000	0.032	-0.123
-588.923	-85.188	0.113	-0.036
-587.909	-200.000	-0.024	0.139
-586.894	411.237	-0.046	0.100
-585.879	26.803	-0.067	0.057
-584.865	590.391	-0.118	0.297
-583.850	24.094	-0.283	0.237
-582.836	738.855	-0.024	-0.065
-581.821	-200.000	0.006	0.072
-580.806	-29.010	0.332	-0.194
-579.792	-18.884	-0.127	0.080
-578.777	-31.022	-0.097	-0.056
-577.763	6.265	0.040	-0.031
-576.748	6.817	0.122	-0.092
-575.733	-39.072	-0.279	-0.149
-574.719	-200.000	-0.014	0.098
-573.704	-61.900	0.485	-0.206
-572.690	-12.075	0.116	0.077
-571.675	272.459	0.069	0.123
-570.661	244.507	-0.116	-0.198
-569.646	-59.515	-0.234	-0.102
-568.631	151.574	-0.153	0.211
-567.617	468.179	0.115	0.262
-566.602	48.336	0.136	0.129
-565.588	-58.059	0.104	-0.046
-564.573	-137.106	0.131	-0.015
-563.558	226.898	-0.050	-0.083
-562.544	800.000	0.129	0.370
-561.529	800.000	0.106	-0.330
-560.515	-110.313	-0.194	-0.041
-559.500	-122.422	-0.059	-0.010
-558.485	53.097	0.118	-0.115
-557.471	206.775	-0.063	-0.100
-556.456	31.474	-0.155	-0.135
-555.442	-200.000	-0.015	-0.183
-554.427	-32.162	-0.288	0.164
-553.412	167.872	-0.173	0.249
-552.398	-55.231	0.281	-0.128
-551.383	-38.611	-0.095	0.051
-550.369	232.780	0.126	-0.211
-549.354	800.000	-0.072	0.234
-548.339	-200.000	-0.002	0.117
-547.325	66.241	-0.058	0.060
-546.310	-152.888	0.174	-0.012
-545.296	241.326	-0.069	0.117
-544.281	800.000	-0.099	0.309
-543.266	-20.871	-0.401	0.249
-542.252	-200.000	-0.016	-0.082
-541.237	800.000	-0.041	-0.156
-540.223	-42.410	0.156	0.081
-539.208	44.647	0.135	-0.126
-538.193	-146.533	0.141	0.012
-537.179	-51.049	-0.150	0.072
-536.164	-200.000	-0.029	-0.183
-535.150	-31.629	-0.101	0.057
-534.135	-31.522	-0.156	0.089
-533.121	-141.223	-0.333	-0.034
-532.106	800.000	-0.054	-0.153
-531.091	266.550	-0.128	-0.227
-530.077	-7.744	0.223	-0.153
-529.062	800.000	0.059	-0.213
-528.048	156.330	-0.015	0.021
-527.033	-192.714	-0.073	-0.001
-526.018	-62.416	0.090	0.038
-525.004	-200.000	-0.040	0.346
-523.989	-116.267	0.305	0.057
-522.975	90.775	0.112	-0.127
-521.960	111.902	-0.146	-0.179
-520.945	-142.516	-0.190	0.019
-519.931	102.887	0.133	0.158
-518.916	800.000	-0.090	0.319
-517.902	-78.284	-0.318	-0.111
-516.887	-18.681	0.184	0.116
-515.872	800.000	0.025	-0.099
-514.858	26.220	0.149	-0.126
-513.843	-132.088	-0.353	-0.046
-512.829	-15.676	0.259	0.168
-511.814	-121.624	-0.182	-0.031
-510.799	-81.794	0.161	-0.053
-509.785	-60.715	0.331	-0.142
-508.770	477.385	-0.137	-0.314
-507.756	-200.000	-0.015	-0.200
-506.741	-200.000	0.032	0.295
-505.726	318.362	-0.090	-0.172
-504.712	96.872	-0.088	0.103
-503.697	-109.292	0.066	0.014
-502.683	71.469	0.234	0.246
-501.668	-121.074	0.187	-0.032
-500.653	-104.635	0.175	-0.041
-499.639	-107.933	0.190	-0.042
-498.624	-143.746	-0.171	0.016
-497.610	-200.000	0.071	0.359
-496.595	206.025	0.106	-0.167
-495.581	-149.204	-0.057	-0.005
-494.566	-116.211	-0.207	0.039
-493.551	-200.000	0.017	0.272
-492.537	250.453	-0.141	0.242
-491.522	-66.246	0.256	0.103
-490.508	-200.000	-0.002	0.287
-489.493	-200.000	-0.192	0.000
-488.478	184.127	-0.079	-0.119
-487.464	-15.000	0.132	0.086
-486.449	-200.000	0.013	-0.080
-485.435	-29.479	0.066	-0.038
-484.420	-200.000	-0.042	-0.305
-483.405	110.952	-0.023	0.028
-482.391	-200.000	0.045	0.304
-481.376	12.934	0.146	0.114
-480.362	-26.545	-0.038	0.022
-479.347	600.663	0.042	0.105
-478.332	-110.270	0.263	0.055
-477.318	457.425	-0.048	-0.108
-476.303	-200.000	0.009	0.221
-475.289	-200.000	-0.030	-0.224
-474.274	-200.000	-0.039	-0.210
-473.259	-157.996	-0.045	0.003
-472.245	-55.042	-0.174	0.079
-471.230	17.133	-0.056	0.045
-470.216	-200.000	0.033	-0.321
-469.201	-122.736	-0.188	0.031
-468.186	317.492	-0.067	-0.129
-467.172	788.750	0.090	-0.250
-466.157	-124.299	0.130	0.021
-465.143	-152.341	0.377	-0.027
-464.128	114.789	0.140	-0.173
-463.113	-81.114	-0.091	0.031
-462.099	-178.602	-0.061	-0.001
-461.084	-138.696	-0.281	0.031
-460.070	800.000	0.028	-0.107
-459.055	322.249	-0.150	0.289
-458.040	10.410	0.268	0.207
-457.026	-2.509	-0.174	-0.123
-456.011	-200.000	0.091	-0.405
-454.997	-1.483	0.103	-0.073
-453.982	1.106	0.138	0.100
-452.968	-134.381	0.049	-0.006
-451.953	79.277	0.230	0.249
-450.938	26.478	-0.171	0.145
-449.924	800.000	-0.054	-0.205
-448.909	-157.416	0.120	0.007
-447.895	-103.280	0.185	-0.044
-446.880	-122.283	0.273	-0.045
-445.865	-200.000	0.022	0.209
-444.851	237.621	-0.225	0.378
-443.836	-200.000	-0.024	-0.280
-442.822	404.724	0.108	0.231
-441.807	-200.000	0.032	-0.211
-440.792	-200.000	0.001	-0.032
-439.778	-200.000	0.005	-0.258
-438.763	668.420	-0.069	-0.180
-437.749	-125.484	0.127	-0.020
-436.734	58.643	-0.175	0.173
-435.719	-44.367	0.234	0.118
-434.705	800.000	0.061	-0.232
-433.690	-41.721	-0.023	-0.012
-432.676	5.634	-0.101	-0.076
-431.661	800.000	-0.040	0.112
-430.646	-200.000	-0.057	-0.296
-429.632	-83.532	-0.196	-0.063
-428.617	182.544	0.054	-0.081
-427.603	-130.911	-0.206	0.028
-426.588	89.844	-0.189	-0.213
-425.573	-62.963	0.089	-0.037
-424.559	-91.563	-0.309	-0.089
-423.544	-13.664	0.308	-0.202
-422.530	800.000	0.063	0.215
-421.515	-180.010	0.134	0.003
-420.500	-103.325	-0.097	0.023
-419.486	-126.048	-0.423	0.064
-418.471	277.695	0.115	0.207
-417.457	800.000	0.062	0.259
-416.442	258.303	0.276	0.480
-415.428	-200.000	-0.013	-0.170
-414.413	800.000	-0.078	0.306
-413.398	-65.658	-0.084	0.034
-412.384	176.878	0.093	-0.137
-411.369	-64.623	-0.256	0.105
-410.355	-22.941	-0.191	0.116
-409.340	-151.531	0.277	0.021
-408.325	63.534	0.249	0.252
-407.311	552.329	0.032	0.077
-406.296	-200.000	0.008	0.122
-405.282	-168.249	0.314	-0.012
-404.267	-29.395	-0.215	0.124
-403.252	-1.725	0.243	0.173
-402.238	-86.367	0.162	-0.050
-401.223	331.121	0.121	-0.236
-400.209	-129.306	-0.196	0.027
-399.194	-63.045	0.331	-0.138
-398.179	286.190	-0.157	-0.285
-397.165	-56.739	0.339	-0.151
-396.150	-90.017	0.189	0.056
-395.136	800.000	0.053	-0.151
-394.121	297.054	-0.026	0.048
-393.106	-200.000	-0.055	-0.286
-392.092	349.753	0.110	-0.219
-391.077	800.000	0.058	0.184
-390.063	-148.639	-0.421	0.035
-389.048	41.049	0.136	0.124
-388.033	-78.776	-0.167	0.057
-387.019	-101.607	-0.267	-0.065
-386.004	-200.000	0.003	-0.062
-384.990	-181.112	0.416	0.008
-383.975	541.341	0.069	-0.166
-382.960	800.000	0.026	0.091
-381.946	502.990	-0.100	-0.233
-380.931	-171.071	-0.328	0.011
-379.917	210.687	-0.145	0.229
-378.902	277.405	-0.148	0.266
-377.888	800.000	-0.102	-0.376
-376.873	89.160	-0.246	-0.277
-375.858	37.195	-0.344	-0.307
-374.844	800.000	0.053	-0.174
-373.829	-200.000	0.037	-0.242
-372.815	-87.049	0.113	0.035
-371.800	800.000	0.085	-0.295
-370.785	-200.000	-0.027	-0.184
-369.771	14.575	-0.110	0.087
-368.756	-200.000	0.010	-0.129
-367.742	30.880	-0.273	0.236
-366.727	-184.977	-0.331	0.005
-365.712	-80.270	-0.242	0.082
-364.698	339.201	-0.095	0.187
-363.683	108.281	0.236	0.283
-362.669	361.777	-0.112	-0.227
-361.654	800.000	-0.111	-0.432
-360.639	-57.268	-0.092	0.041
-359.625	521.008	0.047	-0.110
-358.610	-200.000	-0.014	-0.198
-357.596	21.527	-0.192	-0.157
-356.581	-76.423	0.023	0.008
-355.566	-155.018	0.155	-0.010
-354.552	-198.001	0.135	0.001
-353.537	-139.260	0.127	0.014
-352.523	46.548	0.244	0.228
-351.508	-31.033	0.334	0.190
-350.493	-9.274	0.324	0.218
-349.479	200.808	-0.102	0.158
-348.464	298.263	-0.137	0.253
-347.450	100.754	0.203	0.238
-346.435	-18.607	-0.093	-0.058
-345.420	125.347	0.099	0.126
-344.406	490.098	-0.113	-0.259
-343.391	-5.240	-0.223	0.155
-342.377	-82.894	0.228	0.074
-341.362	800.000	-0.101	0.422
-340.348	16.984	0.118	0.094
-339.333	-61.967	-0.116	0.049
-338.318	9.167	-0.231	0.176
-337.304	-8.427	0.297	-0.201
-336.289	62.566	0.169	0.170
-335.275	-20.139	-0.215	0.134
-334.260	800.000	0.007	-0.025
-333.245	-23.792	0.300	0.181
-332.231	-57.479	0.221	-0.098
-331.216	253.950	0.013	-0.023
-330.202	10.535	0.060	-0.046
-329.187	-141.351	0.265	0.027
-328.172	-200.000	-0.008	-0.295
-327.158	-78.844	-0.284	0.097
-326.143	-200.000	0.071	0.335
-325.129	73.085	0.206	-0.217
-324.114	800.000	0.001	0.003
-323.099	-81.468	-0.161	-0.053
-322.085	-200.000	0.013	-0.290
-321.070	800.000	-0.087	-0.270
-320.056	357.671	0.084	0.169
-319.041	138.944	0.073	-0.096
-318.026	-13.727	-0.383	-0.249
-317.012	8.217	0.107	0.081
-315.997	-30.577	0.264	-0.151
-314.983	89.035	0.108	0.121
-313.968	341.295	0.098	0.192
-312.953	-108.851	-0.074	0.016
-311.939	-90.923	-0.324	-0.094
-310.924	46.915	0.076	-0.071
-309.910	211.999	-0.147	-0.233
-308.895	131.884	0.092	0.120
-307.880	-200.000	0.008	0.177
-306.866	-68.177	-0.246	-0.096
-305.851	-66.854	-0.150	0.060
-304.837	-18.360	0.102	0.064
-303.822	-200.000	-0.071	-0.326
-302.807	-84.978	0.239	-0.075
-301.793	2.577	0.407	0.296
-300.778	-82.399	-0.038	-0.012
-299.764	203.892	-0.068	0.106
-298.749	-200.000	-0.003	-0.057
-297.735	-131.948	-0.122	-0.016
-296.720	327.255	0.135	0.260
-295.705	183.557	0.136	0.203
-294.691	91.788	-0.077	-0.087
-293.676	-148.779	-0.347	0.028
-292.662	-200.000	0.053	-0.284
-291.647	361.502	0.084	-0.169
-290.632	9.533	0.125	0.095
-289.618	-130.739	-0.370	0.050
-288.603	241.903	-0.080	0.135
-287.589	800.000	-0.098	-0.403
-286.574	-51.506	0.297	0.139
-285.559	-125.658	0.388	0.059
-284.545	387.798	-0.172	-0.358
-283.530	-200.000	0.003	-0.217
-282.516	-178.611	0.065	0.001
-281.501	-88.104	-0.259	-0.078
-280.486	-129.107	0.066	-0.009
-279.472	22.250	0.168	-0.138
-278.457	800.000	-0.040	0.111
-277.443	-17.730	-0.212	0.134
-276.428	36.573	0.135	-0.120
-275.413	-200.000	0.023	-0.216
-274.399	800.000	-0.131	0.432
-273.384	-51.461	0.228	-0.107
-272.370	37.314	-0.216	-0.192
-271.355	259.281	-0.133	0.230
-270.340	-50.581	0.159	-0.075
-269.326	90.592	-0.235	0.265
-268.311	206.487	0.156	-0.243
-267.297	800.000	0.066	-0.192
-266.282	549.604	0.079	0.190
-265.267	242.690	0.075	-0.126
-264.253	-50.600	-0.110	0.052
-263.238	-145.961	0.191	-0.017
-262.224	-56.768	0.311	0.138
-261.209	-61.257	-0.090	-0.038
-260.195	-118.617	-0.216	-0.038
-259.180	-88.500	-0.202	-0.060
-258.165	28.158	0.263	0.223
-257.151	123.836	0.132	-0.166
-256.136	-200.000	0.005	-0.185
-255.122	215.266	-0.172	-0.274
-254.107	800.000	0.129	-0.461
-253.092	346.926	-0.150	0.296
-252.078	536.995	-0.078	-0.187
-251.063	270.315	-0.022	0.038
-250.049	64.585	0.400	0.405
-249.034	203.543	0.154	0.238
-248.019	-107.183	-0.091	0.020
-247.005	780.132	-0.068	-0.186
-245.990	6.148	0.179	-0.133
-244.976	50.152	0.110	-0.104
-243.961	376.667	-0.087	-0.178
-242.946	-109.853	-0.154	-0.032
-241.932	44.668	0.096	0.088
-240.917	145.500	-0.205	0.276
-239.903	-106.374	0.257	-0.058
-238.888	68.216	-0.089	-0.092
-237.873	187.447	0.121	-0.181
-236.859	-200.000	0.042	-0.311
-235.844	-70.039	-0.090	-0.034
-234.830	585.400	-0.027	-0.066
-233.815	-109.309	-0.261	0.056
-232.800	7.029	-0.122	0.091
-231.786	20.277	0.130	-0.106
-230.771	30.170	0.065	-0.055
-229.757	800.000	-0.080	-0.225
-228.742	-21.858	0.150	-0.091
-227.727	-93.443	0.256	-0.071
-226.713	297.666	0.105	0.193
-225.698	-200.000	-0.036	0.262
-224.684	-200.000	-0.026	-0.313
-223.669	274.927	-0.064	-0.113
-222.655	-123.121	0.184	0.030
-221.640	-200.000	0.023	-0.260
-220.625	-56.619	-0.261	0.116
-219.611	-49.606	0.229	0.109
-218.596	313.330	0.083	0.156
-217.582	-149.952	-0.177	0.014
-216.567	-68.167	-0.149	-0.058
-215.552	-107.154	0.323	-0.071
-214.538	161.584	-0.186	-0.261
-213.523	-97.300	0.190	0.050
-212.509	-200.000	-0.009	-0.221
-211.494	95.872	0.036	0.041
-210.479	-200.000	-0.027	0.270
-209.465	64.654	0.291	0.294
-208.450	-200.000	0.007	0.092
-207.436	462.146	-0.196	0.439
-206.421	359.134	-0.051	0.103
-205.406	-200.000	-0.037	-0.206
-204.392	-149.821	0.116	0.009
-203.377	-52.779	-0.130	-0.060
-202.363	-79.683	0.153	-0.052
-201.348	66.850	-0.207	0.211
-200.333	67.090	0.217	-0.221
-199.319	-88.767	-0.153	-0.046
-198.304	-200.000	0.022	0.267
-197.290	800.000	-0.087	0.252
-196.275	-200.000	-0.009	0.139
-195.260	800.000	0.036	-0.121
-194.246	-48.573	-0.288	-0.139
-193.231	-71.332	0.116	0.044
-192.217	-78.924	0.133	-0.045
-191.202	-85.989	-0.403	-0.125
-190.187	-200.000	-0.021	0.229
-189.173	800.000	-0.081	0.269
-188.158	106.783	0.088	0.104
-187.144	211.318	-0.178	0.280
-186.129	67.077	-0.150	0.153
-185.114	-52.849	-0.150	0.069
-184.100	-100.119	-0.289	0.072
-183.085	99.071	-0.091	0.105
-182.071	72.380	0.187	0.195
-181.056	-200.000	0.012	0.198
-180.042	-124.958	0.435	0.067
-179.027	-200.000	0.013	0.194
-178.012	-200.000	0.025	-0.263
-176.998	-30.548	-0.329	-0.186
-175.983	-45.711	-0.117	0.058
-174.969	-93.084	0.109	0.030
-173.954	99.889	-0.093	0.107
-172.939	-200.000	-0.061	-0.385
-171.925	-100.420	0.141	-0.035
-170.910	-200.000	0.010	0.401
-169.896	173.300	0.106	0.154
-168.881	-200.000	-0.036	-0.250
-167.866	-85.916	0.314	-0.097
-166.852	-200.000	0.006	0.163
-165.837	45.695	-0.276	0.255
-164.823	542.838	-0.033	-0.078
-163.808	800.000	0.041	-0.141
-162.793	-58.435	0.343	0.149
-161.779	-129.145	0.249	-0.035
-160.764	-58.775	0.117	0.051
-159.750	-116.500	0.153	0.028
-158.735	800.000	-0.087	0.254
-157.720	-104.481	0.165	0.038
-156.706	-200.000	-0.059	-0.272
-155.691	-200.000	0.028	-0.300
-154.677	-200.000	0.031	0.149
-153.662	800.000	0.018	-0.066
-152.647	726.409	-0.108	0.289
-151.633	183.756	0.038	0.055
-150.618	800.000	-0.033	0.138
-149.604	10.507	-0.124	-0.095
-148.589	-101.163	0.124	-0.030
-147.574	-32.220	-0.148	-0.082
-146.560	800.000	-0.068	-0.275
-145.545	-200.000	0.011	-0.112
-144.531	-129.968	-0.244	0.033
-143.516	158.025	0.061	-0.084
-142.502	-184.835	-0.318	0.005
-141.487	-200.000	0.080	0.435
-140.472	-98.095	0.249	-0.064
-139.458	180.466	0.106	-0.156
-138.443	-200.000	-0.003	-0.015
-137.429	189.730	0.074	-0.110
-136.414	161.554	0.320	0.447
-135.399	-199.297	0.237	0.001
-134.385	-56.700	0.046	0.020
-133.370	-200.000	-0.001	0.078
-132.356	-98.831	0.301	0.076
-131.341	-96.039	-0.104	-0.028
-130.326	-87.927	-0.251	0.075
-129.312	245.226	0.197	-0.331
-128.297	-125.581	0.213	0.032
-127.283	155.091	-0.129	0.177
-126.268	-97.469	0.245	0.064
-125.253	-200.000	-0.057	-0.290
-124.239	-66.599	-0.322	0.127
-123.224	6.243	-0.393	-0.291
-122.210	800.000	-0.119	0.328
-121.195	800.000	-0.047	-0.131
-120.180	-2.888	0.320	0.223
-119.166	-104.045	-0.329	-0.077
-118.151	-109.732	-0.139	0.029
-117.137	530.059	0.150	0.354
-116.122	130.207	-0.092	-0.117
-115.107	161.697	-0.158	0.221
-114.093	-176.230	0.244	-0.006
-113.078	34.541	0.226	-0.197
-112.064	-29.820	-0.087	0.050
-111.049	-200.000	-0.081	-0.412
-110.034	149.534	-0.139	-0.188
-109.020	478.412	-0.124	-0.280
-108.005	-116.008	0.363	-0.067
-106.991	18.566	-0.048	-0.039
-105.976	-127.103	0.242	0.035
-104.962	107.377	-0.053	0.062
-103.947	-200.000	0.011	0.399
-102.932	-200.000	0.037	-0.232
-101.918	-200.000	-0.007	0.155
-100.903	513.832	0.094	0.218
-99.889	-200.000	-0.001	0.058
-98.874	-200.000	0.056	-0.309
-97.859	38.421	0.333	-0.296
-96.845	-97.616	0.161	-0.042
-95.830	-93.932	-0.101	-0.028
-94.816	391.829	-0.053	0.110
-93.801	35.851	-0.171	0.150
-92.786	-200.000	-0.015	0.167
-91.772	800.000	-0.051	-0.148
-90.757	800.000	-0.094	0.267
-89.743	800.000	-0.047	-0.143
-88.728	-110.019	0.165	0.034
-87.713	51.797	-0.127	0.120
-86.699	72.989	-0.136	0.142
-85.684	89.419	0.261	0.290
-84.670	-84.718	-0.129	0.040
-83.655	383.944	0.158	-0.325
-82.640	-75.858	-0.189	-0.067
-81.626	-171.864	0.201	-0.007
-80.611	627.774	0.079	0.200
-79.597	-58.408	-0.166	0.072
-78.582	800.000	-0.029	-0.103
-77.567	-102.910	0.201	0.048
-76.553	202.778	0.061	0.093
-75.538	306.788	-0.205	0.380
-74.524	622.161	-0.057	-0.143
-73.509	180.950	0.129	0.189
-72.494	105.079	-0.119	-0.139
-71.480	-128.625	-0.264	-0.037
-70.465	589.991	0.133	-0.328
-69.451	-26.104	-0.049	0.029
-68.436	-90.399	-0.235	-0.068
-67.422	614.158	-0.038	0.094
-66.407	205.736	-0.235	0.364
-65.392	-200.000	-0.015	0.277
-64.378	-15.305	-0.083	-0.053
-63.363	-53.672	0.201	0.092
-62.349	-170.134	0.044	0.002
-61.334	316.675	-0.438	-0.824
-60.319	234.484	0.174	0.286
-59.305	-200.000	0.166	-0.875
-58.290	145.286	0.598	0.796
-57.276	800.000	0.521	1.748
-56.261	-200.000	76.628	526.191
-55.246	533.578	1324.671	3124.047
-54.232	146.401	2551.418	3410.763
-53.217	119.291	2233.580	2751.514
-52.203	53.836	1677.168	1604.000
-51.188	45.508	1399.781	1286.609
-50.173	41.792	1353.875	1221.710
-49.159	60.295	1388.572	1367.445
-48.144	66.977	1407.797	1427.454
-47.130	45.980	1370.292	1262.206
-46.115	41.823	1353.830	1221.665
-45.100	41.650	1348.810	1216.032
-44.086	41.511	1346.456	1213.013
-43.071	41.458	1344.431	1210.819
-42.057	41.427	1342.055	1208.448
-41.042	41.536	1340.219	1207.405
-40.027	41.627	1339.193	1206.979
-39.013	41.507	1337.059	1204.288
-37.998	41.559	1335.060	1202.750
-36.984	41.524	1333.540	1201.126
-35.969	41.649	1331.822	1200.277
-34.954	41.722	1329.980	1199.012
-33.940	41.827	1328.465	1198.229
-32.925	41.843	1326.693	1196.677
-31.911	41.578	1326.194	1194.594
-30.896	41.694	1324.407	1193.628
-29.881	41.661	1323.165	1192.263
-28.867	41.720	1321.635	1191.191
-27.852	41.641	1320.121	1189.312
-26.838	41.753	1318.342	1188.323
-25.823	41.657	1317.221	1186.697
-24.809	41.694	1315.693	1185.496
-23.794	41.655	1314.367	1184.020
-22.779	41.709	1312.879	1182.954
-21.765	41.701	1311.671	1181.769
-20.750	41.737	1310.264	1180.666
-19.736	41.641	1309.010	1178.922
-18.721	41.654	1307.717	1177.790
-17.706	41.589	1306.709	1176.453
-16.692	41.580	1305.512	1175.278
-15.677	41.626	1304.471	1174.564
-14.663	41.604	1303.367	1173.390
-13.648	41.515	1302.276	1171.840
-12.633	41.618	1301.019	1171.269
-11.619	41.513	1300.889	1170.487
-10.604	41.519	1299.690	1169.398
-9.590	41.505	1298.604	1168.293
-8.575	41.529	1297.435	1167.337
-7.560	41.667	1296.441	1167.200
-6.546	41.538	1295.872	1165.888
-5.531	41.575	1294.510	1164.832
-4.517	41.564	1293.812	1164.091
-3.502	41.545	1293.272	1163.453
-2.487	41.511	1292.099	1162.154
-1.473	41.626	1288.032	1159.114
-0.458	40.141	1271.870	1136.006
0.556	33.676	1251.432	1087.752
1.571	28.881	1253.537	1061.865
2.586	27.355	1268.207	1065.274
3.600	26.125	1257.984	1049.448
4.615	22.760	1188.555	972.919
5.629	17.460	1114.635	884.853
6.644	14.539	1093.231	852.866
7.659	14.290	1090.465	849.363
8.673	14.258	1088.757	847.797
9.688	14.204	1087.624	846.566
10.702	14.466	1086.616	847.038
11.717	17.836	1090.999	867.542
12.731	21.361	1094.895	888.514
13.746	20.171	1091.994	880.045
14.761	17.714	1088.678	864.848
15.775	16.441	1086.117	856.291
16.790	15.479	1083.489	849.278
17.804	14.737	1081.854	844.170
18.819	14.281	1080.933	841.076
19.834	13.808	1079.930	837.833
20.848	13.570	1078.583	835.515
21.863	13.273	1078.314	833.735
22.877	13.224	1077.249	832.588
23.892	13.310	1075.960	831.953
24.907	13.245	1075.819	831.443
25.921	13.128	1074.845	830.027
26.936	13.258	1073.517	829.583
27.950	13.316	1071.949	828.585
28.965	13.354	1070.473	827.563
29.980	13.383	1068.778	826.324
30.994	13.509	1067.642	826.004
32.009	13.514	1066.488	825.062
33.023	13.495	1065.241	823.927
34.038	13.447	1064.281	822.873
35.053	13.312	1063.374	821.432
36.067	13.372	1062.493	820.978
37.082	13.365	1061.910	820.416
38.096	13.428	1061.015	819.963
39.111	13.411	1060.248	819.213
40.126	13.224	1059.304	817.488
41.140	13.304	1057.648	816.534
42.155	13.163	1056.601	814.957
43.169	13.165	1055.568	814.100
44.184	13.229	1054.230	813.309
45.199	13.235	1053.608	812.785
46.213	13.167	1052.403	811.450
47.228	13.281	1051.438	811.194
48.242	13.236	1050.226	809.970
49.257	13.286	1049.176	809.332
50.271	13.366	1048.311	808.982
51.286	13.358	1047.596	808.321
52.301	13.295	1046.690	807.242
53.315	13.204	1045.588	805.879
54.330	13.241	1044.123	804.859
55.344	13.194	1043.454	804.042
56.359	13.188	1042.527	803.227
57.374	13.237	1041.950	802.950
58.388	13.221	1040.601	801.762
59.403	13.117	1040.238	800.905
60.417	13.190	1038.925	800.180
61.432	13.050	1038.654	799.223
62.447	13.115	1037.469	798.555
63.461	12.974	1036.849	797.325
64.476	13.050	1035.936	796.919
65.490	13.039	1035.227	796.251
66.505	13.114	1033.805	795.448
67.520	13.040	1033.352	794.670
68.534	13.177	1032.856	794.880
69.549	13.247	1032.259	794.684
70.563	13.074	1031.304	793.047
71.578	12.903	1031.100	792.000
72.593	12.983	1030.114	791.558
73.607	13.058	1029.416	791.309
74.622	13.014	1028.547	790.363
75.636	13.023	1028.234	790.093
76.651	13.101	1027.596	789.906
77.666	12.922	1027.155	788.641
78.680	13.140	1025.752	788.535
79.695	13.021	1025.528	787.726
80.709	13.180	1024.684	787.765
81.724	13.172	1023.868	787.030
82.739	13.336	1023.032	787.101
83.753	13.386	1022.213	786.638
84.768	13.330	1021.252	785.560
85.782	13.320	1020.739	785.051
86.797	13.303	1020.265	784.535
87.812	13.281	1018.912	783.322
88.826	13.311	1017.784	782.527
89.841	13.377	1016.791	782.006
90.855	13.373	1016.122	781.406
91.870	13.433	1015.106	780.837
92.884	13.421	1014.253	780.056
93.899	13.332	1013.913	779.304
94.914	13.424	1013.080	779.028
95.928	13.459	1011.776	778.124
96.943	13.410	1010.553	776.884
97.957	13.386	1010.034	776.301
98.972	13.428	1008.994	775.633
99.987	13.499	1007.775	774.956
101.001	13.354	1007.140	773.722
102.016	13.486	1006.169	773.526
103.030	13.405	1005.314	772.420
104.045	13.351	1004.735	771.655
105.060	13.328	1003.969	770.893
106.074	13.320	1002.685	769.803
107.089	13.316	1001.965	769.163
108.103	13.355	1000.677	768.286
109.118	13.169	999.883	766.746
110.133	13.153	998.855	765.816
111.147	13.330	997.918	765.850
112.162	13.251	997.312	764.951
113.176	13.287	996.519	764.438
114.191	13.385	995.823	764.290
115.206	13.338	994.930	763.322
116.220	13.280	994.325	762.524
117.235	13.205	993.218	761.260
118.249	13.324	992.501	761.192
119.264	13.238	991.942	760.299
120.279	13.260	990.928	759.556
121.293	13.335	989.938	759.074
122.308	13.182	989.484	757.959
123.322	13.234	988.193	757.140
124.337	13.172	987.270	756.080
125.352	13.362	985.704	755.681
126.366	13.264	984.852	754.515
127.381	13.280	983.869	753.769
128.395	13.206	983.571	753.136
129.410	13.389	982.232	752.877
130.424	13.354	981.583	752.156
131.439	13.359	981.221	751.836
132.454	13.507	980.090	751.575
133.468	13.459	979.107	750.535
134.483	13.300	978.327	749.149
135.497	13.471	977.141	748.947
136.512	13.546	976.279	748.562
137.527	13.535	975.517	747.861
138.541	13.563	974.752	747.335
139.556	13.584	974.224	746.960
140.570	13.478	973.424	745.803
141.585	13.546	972.578	745.393
142.600	13.546	971.914	744.820
143.614	13.527	970.969	743.944
144.629	13.609	970.217	743.669
145.643	13.621	969.469	743.082
146.658	13.437	968.013	741.077
147.673	13.528	967.431	740.974
148.687	13.438	966.195	739.558
149.702	13.452	965.414	738.958
150.716	13.482	964.900	738.635
151.731	13.523	964.043	738.097
152.746	13.468	963.154	737.103
153.760	13.370	962.680	736.240
154.775	13.597	962.105	736.746
155.789	13.636	961.256	736.203
156.804	13.536	960.552	735.153
157.819	13.438	960.663	734.741
158.833	13.653	959.362	734.633
159.848	13.807	957.973	734.184
160.862	13.685	957.189	732.982
161.877	13.532	956.456	731.679
162.892	13.441	955.471	730.459
163.906	13.484	954.785	730.060
164.921	13.546	953.792	729.506
165.935	13.491	952.808	728.450
166.950	13.591	951.908	728.137
167.964	13.602	951.189	727.572
168.979	13.569	949.857	726.341
169.994	13.540	949.590	725.947
171.008	13.564	949.317	725.778
172.023	13.647	948.358	725.346
173.037	13.753	947.183	724.844
174.052	13.647	946.510	723.803
175.067	13.612	945.860	723.090
176.081	13.583	945.533	722.649
177.096	13.649	944.764	722.283
178.110	13.772	943.994	722.168
179.125	13.687	943.649	721.471
180.140	13.700	942.959	720.934
181.154	13.732	942.417	720.597
182.169	13.803	941.886	720.433
183.183	13.858	941.513	720.325
184.198	13.842	940.503	719.419
185.213	13.883	939.772	718.973
186.227	13.938	938.732	718.353
187.242	13.960	938.510	718.211
188.256	14.024	937.902	717.961
189.271	13.978	937.042	717.040
190.286	13.838	936.070	715.631
191.300	13.708	935.569	714.623
192.315	13.698	934.992	714.077
193.329	13.756	934.499	713.887
194.344	13.815	933.716	713.479
195.359	13.845	933.114	713.083
196.373	13.886	932.593	712.799
197.388	13.901	932.251	712.539
198.402	14.005	931.913	712.663
199.417	14.068	931.193	712.321
200.432	14.047	930.754	711.830
201.446	14.082	930.151	711.459
202.461	14.177	929.184	711.062
203.475	14.280	928.361	710.807
204.490	14.151	928.112	710.002
205.504	14.068	927.319	708.978
206.519	14.097	926.443	708.373
207.534	14.077	925.830	707.755
208.548	14.119	925.132	707.337
209.563	14.037	924.800	706.672
210.577	14.192	923.595	706.346
211.592	14.318	922.704	706.137
212.607	14.252	922.219	705.426
213.621	14.091	921.529	704.154
214.636	14.278	920.801	704.325
215.650	14.244	920.329	703.756
216.665	14.386	919.236	703.461
217.680	14.350	918.721	702.850
218.694	14.334	918.182	702.306
219.709	14.439	917.444	702.123
220.723	14.357	916.627	701.093
221.738	14.412	915.844	700.661
222.753	14.316	915.432	699.880
223.767	14.418	915.216	700.082
224.782	14.452	914.541	699.647
225.796	14.538	913.964	699.503
226.811	14.491	913.164	698.632
227.826	14.551	912.069	697.984
228.840	14.436	911.210	696.786
229.855	14.483	910.645	696.487
230.869	14.605	909.785	696.277
231.884	14.414	909.583	695.264
232.899	14.384	908.687	694.392
233.913	14.465	907.507	693.769
234.928	14.406	907.444	693.411
235.942	14.303	906.683	692.343
236.957	14.382	906.423	692.408
237.972	14.359	905.569	691.598
238.986	14.266	904.934	690.670
240.001	14.529	904.074	691.042
241.015	14.511	903.733	690.646
242.030	14.535	902.845	690.003
243.045	14.414	902.793	689.403
244.059	14.492	901.944	689.014
245.074	14.455	900.957	688.049
246.088	14.645	900.285	688.256
247.103	14.851	899.580	688.507
248.117	14.684	899.415	687.630
249.132	14.814	898.908	687.719
250.147	14.835	898.126	687.143
251.161	14.885	897.415	686.744
252.176	14.839	896.912	686.112
253.190	15.077	895.955	686.294
254.205	15.015	895.236	685.429
255.220	14.991	895.020	685.105
256.234	14.960	894.363	684.415
257.249	15.086	893.228	684.000
258.263	14.902	892.730	682.806
259.278	14.975	892.191	682.629
260.293	15.044	891.882	682.614
261.307	15.140	891.050	682.309
262.322	15.122	890.703	681.909
263.336	15.244	889.454	681.391
264.351	15.130	888.787	680.357
265.366	15.170	888.320	680.101
266.380	15.203	887.647	679.659
267.395	15.121	886.839	678.650
268.409	15.182	885.822	678.057
269.424	15.284	885.226	677.953
270.439	15.165	884.694	677.004
271.453	15.080	884.230	676.245
272.468	15.195	883.446	676.050
273.482	15.279	882.826	675.856
274.497	15.110	882.471	674.841
275.512	15.149	881.990	674.573
276.526	15.318	880.979	674.419
277.541	15.299	880.477	673.900
278.555	15.326	880.126	673.681
279.570	15.392	879.457	673.372
280.585	15.330	879.129	672.811
281.599	15.327	878.014	671.888
282.614	15.385	877.214	671.450
283.628	15.345	876.781	670.898
284.643	15.352	875.923	670.210
285.657	15.364	875.414	669.809
286.672	15.310	875.175	669.352
287.687	15.288	874.556	668.729
288.701	15.471	873.572	668.649
289.716	15.495	873.345	668.510
290.730	15.424	872.536	667.549
291.745	15.508	871.725	667.204
292.760	15.589	871.240	667.097
293.774	15.683	870.572	666.897
294.789	15.661	869.858	666.205
295.803	15.603	869.389	665.557
296.818	15.647	868.102	664.686
297.833	15.597	867.338	663.845
298.847	15.516	867.198	663.359
299.862	15.632	866.947	663.565
300.876	15.734	866.282	663.400
301.891	15.640	865.635	662.476
302.906	15.728	864.732	662.073
303.920	15.720	864.812	662.043
304.935	15.832	863.672	661.553
305.949	15.930	863.297	661.592
306.964	15.855	862.408	660.559
307.979	15.662	862.016	659.443
308.993	15.779	861.424	659.389
310.008	15.772	860.864	658.878
311.022	15.898	860.089	658.717
312.037	15.777	859.631	657.836
313.052	15.808	858.899	657.340
314.066	15.799	858.371	656.840
315.081	15.734	857.782	656.077
316.095	15.729	857.230	655.581
317.110	15.877	856.493	655.535
318.125	15.836	856.420	655.259
319.139	15.854	855.765	654.769
320.154	15.804	855.563	654.364
321.168	15.875	854.605	653.849
322.183	15.824	854.442	653.467
323.197	16.008	853.255	653.217
324.212	15.916	853.171	652.738
325.227	15.974	852.282	652.226
326.241	16.035	851.505	651.808
327.256	15.801	851.539	650.870
328.270	15.961	851.076	651.079
329.285	15.922	850.112	650.131
330.300	15.968	849.498	649.784
331.314	15.874	849.354	649.251
332.329	15.912	849.021	649.088
333.343	15.961	848.145	648.549
334.358	16.023	847.579	648.298
335.373	15.952	847.364	647.802
336.387	16.116	847.128	648.195
337.402	16.236	846.506	648.123
338.416	16.189	846.536	647.907
339.431	16.234	846.270	647.818
340.446	16.254	845.710	647.410
341.460	16.182	845.472	646.894
342.475	16.256	844.873	646.663
343.489	16.243	844.658	646.389
344.504	16.389	843.909	646.320
345.519	16.353	843.476	645.794
346.533	16.457	842.543	645.420
347.548	16.208	842.435	644.327
348.562	16.268	841.820	644.030
349.577	16.114	841.515	643.151
350.592	16.268	840.696	643.054
351.606	16.328	839.697	642.461
352.621	16.408	839.059	642.221
353.635	16.320	838.453	641.365
354.650	16.404	837.598	640.975
355.665	16.416	837.156	640.626
356.679	16.459	836.434	640.179
357.694	16.486	835.952	639.856
358.708	16.357	835.553	639.005
359.723	16.379	834.949	638.569
360.738	16.346	834.532	638.072
361.752	16.514	833.675	637.991
362.767	16.454	833.366	637.472
363.781	16.581	832.527	637.256
364.796	16.731	831.874	637.263
365.810	16.683	831.854	637.011
366.825	16.681	831.427	636.619
367.840	16.699	831.154	636.419
368.854	16.624	830.319	635.445
369.869	16.605	829.932	635.020
370.883	16.736	829.209	634.903
371.898	16.695	829.295	634.759
372.913	16.793	829.018	634.856
373.927	16.695	828.316	633.896
374.942	16.814	827.764	633.862
375.956	16.899	827.334	633.796
376.971	16.982	826.776	633.621
377.986	16.898	826.541	633.070
379.000	16.831	826.208	632.509
380.015	17.000	825.284	632.377
381.029	17.020	824.665	631.920
382.044	16.990	824.242	631.428
383.059	16.892	823.997	630.822
384.073	17.062	823.063	630.684
385.088	16.953	822.631	629.889
386.102	16.887	822.125	629.201
387.117	16.934	821.428	628.787
388.132	17.037	820.760	628.601
389.146	16.910	820.415	627.812
390.161	16.967	819.876	627.554
391.175	17.091	819.308	627.521
392.190	17.040	818.849	626.930
393.205	16.996	818.434	626.390
394.219	17.071	818.221	626.449
395.234	17.077	817.542	625.898
396.248	16.904	817.416	625.107
397.263	17.106	816.641	625.203
398.278	17.206	816.243	625.213
399.292	17.076	815.731	624.286
400.307	16.967	815.305	623.506
401.321	17.048	815.109	623.598
402.336	17.236	814.365	623.661
403.350	17.014	814.352	622.781
404.365	17.145	813.798	622.783
405.380	17.221	813.300	622.625
406.394	17.141	812.658	621.786
407.409	17.420	812.070	622.302
408.423	17.376	811.723	621.820
409.438	17.327	811.659	621.536
410.453	17.493	810.935	621.535
411.467	17.483	810.539	621.139
412.482	17.417	810.103	620.511
413.496	17.318	810.050	620.053
414.511	17.479	809.554	620.205
415.526	17.476	809.274	619.924
416.540	17.552	808.313	619.411
417.555	17.548	807.768	618.925
418.569	17.495	807.321	618.333
419.584	17.665	807.014	618.663
420.599	17.685	806.633	618.385
421.613	90.613	1262.690	1362.693
422.628	77.469	1329.165	1362.799
