DTS Sentinel unit serial number:	SN413079Multiplexer serial number:	ORYXHardware model number:	OX4-SRSoftware version number:	ORYX F/W v4.00 Oryx Data Collector v3.7.2.0data status	okinstallation	princeton_trtdifferential loss correction	single-endedforward channel	channel 1reverse channel	N/Adate	2019/09/13time	10:38:35forward acquisition time	60.00reverse acquisition time	0.00gamma	496.2192k internal	0.2321k external	0.2321temperature offset calibration	1.0160default loss term (dB/km)	0.3790temperature slope calibration	1.0000multiplexer offset coefficient	1.0000multiplexer slope coefficient	1.0000fibre end	0.00T internal ref (°C)	31.37T ext. ref 1 (°C)	4.56T ext. ref 2 (°C)	28.24length (m)	temperature (°C)	Stokes	anti-Stokes-747.200	-107.924	-0.321	0.071
-746.185	800.000	-0.123	0.392
-745.171	141.428	0.044	0.059
-744.156	146.488	0.094	0.128
-743.142	-69.739	0.057	-0.022
-742.127	-200.000	0.042	0.243
-741.112	290.918	-0.101	-0.186
-740.098	21.326	-0.270	0.222
-739.083	434.327	-0.156	-0.343
-738.069	-88.166	-0.157	-0.048
-737.054	24.702	0.180	0.151
-736.039	-115.479	-0.144	-0.027
-735.025	-65.827	0.162	-0.065
-734.010	-60.230	-0.256	-0.110
-732.996	314.178	-0.227	-0.431
-731.981	-10.040	0.157	0.105
-730.966	-55.584	0.181	-0.082
-729.952	-57.997	-0.148	0.065
-728.937	152.357	-0.245	-0.338
-727.923	52.742	0.150	-0.144
-726.908	-19.574	0.069	-0.043
-725.894	-66.004	-0.170	0.069
-724.879	570.357	0.055	0.136
-723.864	65.469	-0.183	-0.187
-722.850	23.875	-0.134	0.111
-721.835	79.007	0.202	0.218
-720.821	106.511	-0.122	0.146
-719.806	-200.000	-0.001	-0.035
-718.791	-200.000	0.020	-0.141
-717.777	145.300	-0.094	0.128
-716.762	152.515	-0.032	0.045
-715.748	-46.993	-0.137	-0.067
-714.733	60.747	0.130	0.131
-713.718	510.825	0.095	-0.222
-712.704	-22.626	-0.083	-0.051
-711.689	-21.905	-0.184	0.113
-710.675	-123.641	0.209	0.034
-709.660	-200.000	-0.021	-0.117
-708.645	-117.932	-0.390	0.070
-707.631	124.884	-0.105	0.134
-706.616	208.720	0.040	-0.064
-705.602	221.150	-0.177	0.286
-704.587	-62.298	-0.254	-0.107
-703.572	-200.000	-0.219	0.000
-702.558	164.848	-0.168	-0.239
-701.543	-200.000	-0.021	0.351
-700.529	54.627	-0.154	0.150
-699.514	-200.000	-0.015	-0.141
-698.499	-112.498	-0.328	-0.066
-697.485	49.072	-0.124	-0.117
-696.470	15.929	0.120	-0.095
-695.456	-200.000	0.025	0.261
-694.441	-71.405	-0.121	-0.046
-693.426	-106.418	0.314	-0.071
-692.412	85.022	-0.197	0.218
-691.397	500.053	-0.168	-0.391
-690.383	276.303	-0.270	-0.484
-689.368	-66.302	-0.045	0.018
-688.354	800.000	-0.017	0.054
-687.339	-130.796	0.168	0.023
-686.324	800.000	-0.046	-0.187
-685.310	800.000	-0.074	-0.230
-684.295	-200.000	-0.062	-0.305
-683.281	-22.688	-0.200	-0.122
-682.266	169.109	-0.173	-0.248
-681.251	-48.532	-0.219	0.106
-680.237	32.488	0.224	0.195
-679.222	43.557	0.251	-0.231
-678.208	23.739	-0.170	-0.142
-677.193	-200.000	-0.009	-0.141
-676.178	-57.198	-0.344	-0.153
-675.164	-19.617	-0.351	-0.219
-674.149	185.156	-0.081	-0.122
-673.135	-93.047	-0.403	0.113
-672.120	-200.000	-0.016	-0.280
-671.105	-95.160	-0.287	-0.078
-670.091	-113.549	0.410	-0.081
-669.076	-200.000	0.014	-0.135
-668.062	136.239	-0.052	-0.068
-667.047	362.802	0.079	-0.160
-666.032	246.042	-0.171	-0.290
-665.018	-200.000	-0.027	-0.211
-664.003	800.000	-0.058	-0.223
-662.989	-16.423	-0.338	0.216
-661.974	-119.454	-0.037	0.007
-660.959	800.000	-0.034	0.142
-659.945	-80.441	-0.376	0.126
-658.930	-33.186	-0.103	0.058
-657.916	257.366	0.080	0.139
-656.901	-200.000	-0.022	0.133
-655.886	669.396	-0.126	0.329
-654.872	800.000	0.089	-0.287
-653.857	-200.000	-0.022	-0.433
-652.843	330.410	0.065	-0.126
-651.828	800.000	-0.035	0.111
-650.814	-200.000	0.018	0.092
-649.799	-188.413	0.245	0.003
-648.784	231.056	0.072	0.119
-647.770	34.361	0.081	0.071
-646.755	-200.000	-0.003	-0.087
-645.741	5.025	-0.190	0.141
-644.726	302.266	-0.030	-0.056
-643.711	3.458	0.163	-0.120
-642.697	-138.852	-0.077	-0.008
-641.682	-113.429	-0.323	0.064
-640.668	-7.660	-0.024	-0.016
-639.653	788.387	0.092	-0.254
-638.638	369.903	-0.074	0.151
-637.624	208.888	0.061	-0.096
-636.609	-143.752	-0.393	0.037
-635.595	-8.685	-0.155	-0.105
-634.580	409.008	-0.170	-0.363
-633.565	12.592	-0.109	-0.085
-632.551	-115.944	-0.153	-0.029
-631.536	-145.167	0.207	-0.019
-630.522	-200.000	-0.022	0.112
-629.507	120.577	-0.114	0.143
-628.492	222.374	0.132	0.214
-627.478	-28.864	-0.039	0.022
-626.463	-107.325	-0.067	0.015
-625.449	-59.730	-0.206	-0.089
-624.434	194.641	0.337	-0.515
-623.419	65.105	-0.064	-0.065
-622.405	-147.393	0.068	0.006
-621.390	-68.386	-0.207	-0.081
-620.376	40.017	0.058	-0.053
-619.361	-200.000	0.024	0.278
-618.346	800.000	0.042	-0.120
-617.332	213.704	-0.210	-0.333
-616.317	-200.000	0.008	-0.175
-615.303	-200.000	-0.029	0.179
-614.288	81.797	0.165	0.179
-613.273	281.825	0.122	0.221
-612.259	345.194	-0.193	0.381
-611.244	800.000	-0.196	-0.564
-610.230	-75.472	0.096	-0.034
-609.215	800.000	0.018	0.066
-608.201	-200.000	-0.003	-0.035
-607.186	60.585	0.146	-0.146
-606.171	50.487	0.189	-0.180
-605.157	270.219	-0.060	-0.106
-604.142	340.586	-0.134	-0.263
-603.128	800.000	-0.097	0.286
-602.113	-200.000	0.052	0.308
-601.098	-143.056	0.203	0.020
-600.084	25.428	0.282	0.236
-599.069	32.026	-0.105	0.091
-598.055	-82.063	0.134	0.044
-597.040	-80.330	-0.249	0.084
-596.025	-103.468	-0.570	-0.135
-595.011	384.855	-0.044	0.091
-593.996	-87.033	-0.196	0.060
-592.982	117.558	-0.107	0.132
-591.967	-77.692	0.234	-0.081
-590.952	-19.140	-0.255	0.159
-589.938	-200.000	0.022	-0.224
-588.923	416.742	0.090	-0.194
-587.909	503.341	-0.061	-0.142
-586.894	-21.585	0.400	-0.245
-585.879	-200.000	-0.008	0.035
-584.865	-200.000	0.010	0.094
-583.850	-83.949	0.255	0.082
-582.836	-200.000	0.013	-0.291
-581.821	-200.000	0.045	-0.216
-580.806	-200.000	0.009	-0.102
-579.792	-85.667	-0.085	0.027
-578.777	-112.762	-0.137	0.027
-577.763	800.000	0.059	-0.241
-576.748	35.075	0.150	-0.132
-575.733	800.000	0.029	-0.086
-574.719	-135.509	-0.528	0.063
-573.704	-32.582	-0.186	-0.104
-572.690	-28.160	0.133	-0.077
-571.675	84.239	0.072	-0.079
-570.661	791.853	0.061	0.168
-569.646	-37.281	-0.225	-0.121
-568.631	531.712	0.025	0.060
-567.617	-47.141	-0.105	-0.051
-566.602	-23.852	0.164	-0.099
-565.588	129.966	-0.191	0.245
-564.573	800.000	-0.057	0.189
-563.558	-23.309	0.096	-0.058
-562.544	-200.000	0.025	0.275
-561.529	520.155	0.062	-0.146
-560.515	499.216	0.034	0.079
-559.500	-200.000	0.021	0.359
-558.485	-33.702	0.200	0.111
-557.471	185.887	-0.159	0.237
-556.456	524.588	0.126	0.298
-555.442	-200.000	-0.026	0.132
-554.427	-184.634	0.479	-0.008
-553.412	-200.000	-0.001	0.131
-552.398	-147.622	0.206	0.017
-551.383	-62.015	-0.182	0.076
-550.369	-200.000	0.014	-0.186
-549.354	314.785	-0.118	0.223
-548.339	-3.023	-0.076	-0.053
-547.325	-200.000	0.026	-0.236
-546.310	-96.957	-0.228	0.060
-545.296	800.000	0.122	0.362
-544.281	66.075	0.316	0.322
-543.266	101.780	0.180	0.210
-542.252	800.000	-0.055	0.160
-541.237	-200.000	0.057	0.262
-540.223	-0.177	-0.149	-0.106
-539.208	-143.676	-0.088	0.008
-538.193	-200.000	-0.030	-0.393
-537.179	-153.925	-0.180	0.012
-536.164	296.225	0.237	0.436
-535.150	-200.000	0.016	0.322
-534.135	-185.642	0.207	-0.003
-533.121	-56.930	-0.164	-0.073
-532.106	-200.000	-0.040	-0.228
-531.091	-186.744	-0.209	-0.003
-530.077	370.675	0.175	-0.356
-529.062	-200.000	-0.005	0.254
-528.048	463.732	-0.057	-0.127
-527.033	209.835	0.093	-0.146
-526.018	215.560	-0.090	-0.144
-525.004	-64.742	-0.184	-0.075
-523.989	-200.000	-0.012	-0.203
-522.975	34.222	0.074	-0.065
-521.960	-200.000	-0.232	-0.000
-520.945	118.696	0.159	-0.197
-519.931	30.851	0.187	0.160
-518.916	-200.000	0.005	-0.054
-517.902	370.323	-0.104	-0.212
-516.887	580.361	-0.106	-0.261
-515.872	10.071	-0.227	0.173
-514.858	-150.594	-0.318	0.024
-513.843	-8.987	-0.082	0.055
-512.829	139.171	0.189	0.249
-511.814	-200.000	-0.003	0.034
-510.799	800.000	0.098	-0.346
-509.785	178.830	0.183	-0.268
-508.770	66.630	-0.252	0.256
-507.756	-144.414	0.120	-0.011
-506.741	-51.371	-0.340	0.159
-505.726	-69.598	0.355	-0.136
-504.712	800.000	-0.039	0.161
-503.697	30.518	0.166	-0.142
-502.683	68.644	0.063	0.065
-501.668	-87.941	-0.208	-0.062
-500.653	126.293	-0.203	-0.258
-499.639	-200.000	0.005	0.276
-498.624	-200.000	0.020	-0.111
-497.610	220.506	0.038	-0.061
-496.595	-200.000	0.011	0.163
-495.581	-137.200	0.170	0.019
-494.566	-200.000	0.008	0.064
-493.551	40.575	0.076	-0.068
-492.537	-199.407	0.448	-0.002
-491.522	50.709	-0.164	0.155
-490.508	-200.000	0.025	0.302
-489.493	40.699	-0.240	0.216
-488.478	127.422	0.039	-0.049
-487.464	-200.000	-0.050	0.450
-486.449	-200.000	-0.006	0.362
-485.435	800.000	-0.062	-0.189
-484.420	-3.597	-0.177	-0.123
-483.405	-28.816	0.126	0.072
-482.391	-200.000	-0.019	-0.127
-481.376	-73.726	-0.168	-0.061
-480.362	494.078	0.012	0.026
-479.347	306.767	0.139	0.259
-478.332	38.258	0.093	-0.083
-477.318	800.000	-0.065	-0.228
-476.303	56.052	0.155	0.150
-475.289	-90.981	0.285	0.082
-474.274	-200.000	-0.068	-0.345
-473.259	-86.398	-0.179	-0.055
-472.245	-60.741	0.251	-0.106
-471.230	-86.495	0.125	-0.038
-470.216	-200.000	0.258	0.000
-469.201	-20.990	-0.052	0.032
-468.186	-67.208	0.025	0.010
-467.172	70.445	0.166	0.172
-466.157	368.750	-0.135	0.273
-465.143	-60.460	-0.204	-0.087
-464.128	-88.027	-0.036	0.011
-463.113	206.368	0.034	0.052
-462.099	-52.627	0.095	0.044
-461.084	76.925	-0.237	0.251
-460.070	-119.840	0.170	0.029
-459.055	-200.000	-0.003	-0.026
-458.040	-200.000	0.054	-0.246
-457.026	733.193	0.054	0.146
-456.011	-97.666	0.216	-0.056
-454.997	-48.491	-0.315	-0.152
-453.982	800.000	0.046	0.201
-452.968	-69.315	-0.340	0.130
-451.953	128.552	0.092	-0.117
-450.938	340.313	-0.071	0.139
-449.924	-89.011	-0.199	0.059
-448.909	-0.131	-0.234	-0.167
-447.895	-200.000	-0.055	0.262
-446.880	80.112	-0.130	-0.139
-445.865	-51.320	0.187	-0.087
-444.851	112.042	-0.080	-0.096
-443.836	126.252	-0.173	0.218
-442.822	12.177	-0.228	-0.176
-441.807	-200.000	-0.018	0.146
-440.792	-85.668	-0.260	-0.081
-439.778	800.000	0.031	-0.110
-438.763	-200.000	-0.007	0.138
-437.749	800.000	-0.022	-0.087
-436.734	-62.421	-0.162	-0.067
-435.719	152.380	-0.117	-0.159
-434.705	33.383	-0.244	-0.212
-433.690	295.918	0.050	-0.091
-432.676	-200.000	0.054	-0.237
-431.661	-9.266	0.096	-0.064
-430.646	313.007	-0.110	0.207
-429.632	384.292	0.097	0.199
-428.617	-200.000	0.020	0.106
-427.603	-95.613	-0.231	-0.062
-426.588	-112.158	-0.126	0.025
-425.573	530.928	-0.100	-0.236
-424.559	107.288	0.279	-0.331
-423.544	800.000	0.054	-0.181
-422.530	-163.328	0.295	0.014
-421.515	123.991	-0.124	-0.156
-420.500	-200.000	0.025	-0.241
-419.486	-107.848	0.339	-0.074
-418.471	31.705	-0.215	-0.185
-417.457	-16.682	0.247	-0.156
-416.442	-102.869	0.202	-0.048
-415.428	-103.088	0.589	-0.139
-414.413	-200.000	-0.031	0.369
-413.398	-31.441	0.160	0.090
-412.384	-91.809	0.092	-0.026
-411.369	273.689	0.042	-0.074
-410.355	208.265	-0.105	0.163
-409.340	-140.269	-0.249	0.026
-408.325	440.069	-0.164	-0.356
-407.311	-138.461	0.077	-0.008
-406.296	-200.000	-0.051	0.408
-405.282	142.884	-0.265	0.351
-404.267	70.507	0.056	0.057
-403.252	-13.547	-0.047	0.030
-402.238	-200.000	-0.006	0.085
-401.223	316.915	0.124	0.233
-400.209	0.872	-0.202	-0.144
-399.194	-200.000	0.009	0.053
-398.179	67.348	-0.297	0.302
-397.165	-59.104	-0.172	-0.074
-396.150	800.000	-0.083	-0.252
-395.136	37.793	-0.329	-0.292
-394.121	-128.612	0.191	-0.027
-393.106	-1.325	-0.156	-0.110
-392.092	-6.218	-0.051	-0.035
-391.077	800.000	-0.052	-0.196
-390.063	-18.779	-0.322	-0.200
-389.048	86.045	-0.058	0.063
-388.033	110.630	-0.143	0.172
-387.019	800.000	-0.069	0.269
-386.004	-110.218	-0.201	-0.042
-384.990	-86.304	0.345	-0.106
-383.975	161.184	0.101	-0.140
-382.960	-100.136	-0.213	-0.053
-381.946	549.074	0.084	-0.200
-380.931	-148.340	0.112	-0.009
-379.917	800.000	0.059	-0.184
-378.902	800.000	-0.042	-0.181
-377.888	-4.152	-0.237	-0.164
-376.873	-74.577	-0.109	-0.039
-375.858	277.820	0.036	0.063
-374.844	-117.307	0.482	0.087
-373.829	128.823	0.125	0.158
-372.815	553.542	0.097	-0.233
-371.800	-200.000	-0.004	-0.364
-370.785	-81.842	-0.408	-0.133
-369.771	78.302	-0.049	0.052
-368.756	-129.725	-0.329	-0.045
-367.742	-200.000	0.001	-0.145
-366.727	259.638	0.095	-0.163
-365.712	551.109	0.143	-0.343
-364.698	193.449	-0.204	0.307
-363.683	-200.000	-0.018	0.082
-362.669	-105.067	0.357	0.081
-361.654	161.541	0.151	-0.210
-360.639	9.531	-0.101	-0.076
-359.625	-200.000	-0.015	-0.132
-358.610	-117.221	-0.127	-0.023
-357.596	800.000	0.064	0.255
-356.581	-54.799	-0.097	0.044
-355.566	-102.812	-0.024	-0.006
-354.552	-200.000	-0.056	-0.276
-353.537	-200.000	0.020	-0.144
-352.523	-200.000	-0.004	0.239
-351.508	20.926	0.164	-0.133
-350.493	-50.454	-0.034	-0.016
-349.479	71.546	0.047	0.049
-348.464	-200.000	-0.007	-0.148
-347.450	-200.000	-0.003	-0.165
-346.435	-200.000	0.004	0.092
-345.420	-200.000	0.015	-0.264
-344.406	663.497	0.039	-0.101
-343.391	120.215	-0.133	-0.165
-342.377	-58.350	-0.233	-0.101
-341.362	16.104	-0.117	0.092
-340.348	120.004	0.052	0.064
-339.333	-27.505	0.083	0.048
-338.318	-85.470	0.099	0.031
-337.304	426.520	0.063	0.136
-336.289	100.214	0.208	-0.241
-335.275	-200.000	0.041	0.265
-334.260	13.169	-0.281	-0.217
-333.245	-146.233	-0.119	0.010
-332.231	130.363	-0.197	-0.251
-331.216	-200.000	-0.001	-0.073
-330.202	-13.004	-0.021	-0.013
-329.187	138.220	-0.282	-0.368
-328.172	-33.207	0.279	0.154
-327.158	-200.000	-0.061	-0.324
-326.143	-109.575	0.068	-0.014
-325.129	-98.935	-0.115	0.029
-324.114	87.543	-0.084	0.092
-323.099	-27.243	0.266	0.154
-322.085	15.315	0.276	-0.215
-321.070	-32.925	-0.184	-0.102
-320.056	-58.019	0.128	-0.055
-319.041	160.067	0.103	0.143
-318.026	-200.000	0.000	-0.014
-317.012	300.907	0.112	-0.205
-315.997	-61.812	0.139	-0.058
-314.983	-43.930	-0.080	0.040
-313.968	13.598	-0.126	0.097
-312.953	193.807	0.170	-0.256
-311.939	23.843	-0.283	-0.232
-310.924	800.000	0.118	0.398
-309.910	-76.258	-0.135	-0.047
-308.895	-37.912	0.035	-0.018
-307.880	49.022	0.170	0.158
-306.866	-46.907	0.276	0.134
-305.851	-60.313	-0.111	-0.047
-304.837	-200.000	0.043	0.228
-303.822	-200.000	0.029	-0.164
-302.807	4.872	0.116	-0.085
-301.793	222.635	0.154	0.246
-300.778	-106.590	-0.084	0.019
-299.764	65.954	0.130	0.131
-298.749	-35.260	-0.045	-0.024
-297.735	133.778	0.216	0.277
-296.720	-117.496	-0.173	0.031
-295.705	-200.000	-0.013	0.180
-294.691	-15.359	-0.121	-0.077
-293.676	-116.032	0.245	-0.045
-292.662	-86.139	0.165	-0.050
-291.647	316.119	0.078	0.146
-290.632	-0.925	0.134	0.094
-289.618	-39.216	-0.175	0.091
-288.603	65.748	-0.077	-0.078
-287.589	-165.659	0.248	-0.011
-286.574	-11.575	0.347	0.226
-285.559	-122.766	-0.114	0.018
-284.545	-34.063	0.249	-0.136
-283.530	-200.000	0.014	-0.244
-282.516	3.830	0.292	-0.212
-281.501	157.610	-0.029	-0.039
-280.486	67.162	0.183	0.185
-279.472	-135.387	-0.357	0.042
-278.457	168.507	0.046	0.065
-277.443	-9.035	-0.181	-0.120
-276.428	64.707	0.258	-0.259
-275.413	-137.614	-0.077	-0.009
-274.399	54.964	0.157	-0.150
-273.384	61.084	0.246	0.242
-272.370	-99.869	-0.145	-0.036
-271.355	-200.000	0.002	0.200
-270.340	15.694	-0.033	-0.026
-269.326	175.828	0.067	-0.096
-268.311	5.038	-0.226	-0.165
-267.297	1.383	-0.122	-0.087
-266.282	68.665	0.091	-0.093
-265.267	-69.557	0.230	-0.088
-264.253	-200.000	-0.125	-0.562
-263.238	-200.000	-0.104	-0.464
-262.224	-35.712	0.085	-0.046
-261.209	655.854	0.165	-0.419
-260.195	-97.851	0.386	-0.099
-259.180	-58.836	-0.177	0.076
-258.165	-6.872	0.061	-0.041
-257.151	-151.432	-0.033	0.002
-256.136	415.922	-0.150	-0.318
-255.122	-52.481	0.165	-0.076
-254.107	458.521	0.042	0.094
-253.092	-111.986	0.739	0.148
-252.078	-69.935	0.029	-0.011
-251.063	303.118	0.019	0.035
-250.049	610.389	0.117	0.291
-249.034	493.626	0.162	0.369
-248.019	-96.135	0.277	-0.073
-247.005	134.336	0.062	0.079
-245.990	128.347	-0.122	-0.154
-244.976	-200.000	-0.012	-0.115
-243.961	-49.743	0.184	0.086
-242.946	163.415	-0.204	-0.284
-241.932	-200.000	-0.012	0.091
-240.917	-47.838	-0.118	-0.057
-239.903	800.000	0.079	0.266
-238.888	-138.226	-0.158	0.017
-237.873	-96.226	-0.387	-0.102
-236.859	-138.780	-0.175	-0.019
-235.844	104.778	0.094	-0.109
-234.830	-200.000	0.037	0.179
-233.815	-200.000	0.029	-0.338
-232.800	-150.809	-0.322	0.024
-231.786	38.680	0.227	0.201
-230.771	800.000	-0.004	0.013
-229.757	80.743	-0.338	-0.361
-228.742	800.000	0.082	-0.343
-227.727	47.266	-0.180	-0.166
-226.713	-17.059	0.144	0.090
-225.698	55.961	0.134	0.128
-224.684	-200.000	0.032	-0.193
-223.669	800.000	-0.056	0.189
-222.655	189.713	0.087	-0.130
-221.640	-200.000	0.017	-0.214
-220.625	-124.961	0.412	0.063
-219.611	17.114	0.350	0.274
-218.596	509.698	0.241	0.554
-217.582	-62.330	-0.086	0.036
-216.567	354.689	0.085	0.166
-215.552	126.314	-0.124	0.155
-214.538	-200.000	0.004	-0.047
-213.523	-37.216	-0.232	-0.123
-212.509	-66.030	0.154	-0.061
-211.494	153.847	-0.103	0.139
-210.479	-139.460	0.226	0.024
-209.465	-37.237	0.328	0.174
-208.450	-14.530	-0.189	-0.120
-207.436	800.000	0.080	0.238
-206.421	671.351	0.144	-0.370
-205.406	35.735	0.318	0.277
-204.392	150.532	0.195	0.262
-203.377	-200.000	-0.022	0.387
-202.363	-200.000	-0.061	0.442
-201.348	-153.917	-0.048	0.003
-200.333	7.301	-0.143	0.106
-199.319	-71.541	0.225	-0.083
-198.304	-114.311	-0.214	-0.041
-197.290	-161.618	0.223	-0.011
-196.275	-55.490	-0.212	0.094
-195.260	800.000	-0.030	-0.085
-194.246	372.949	0.107	0.215
-193.231	-122.881	0.254	-0.041
-192.217	84.506	0.182	-0.197
-191.202	172.975	-0.107	-0.152
-190.187	800.000	0.100	-0.326
-189.173	-138.297	-0.383	0.042
-188.158	1.468	0.161	0.114
-187.144	34.469	-0.224	0.193
-186.129	-39.093	-0.315	-0.164
-185.114	-94.393	0.276	0.075
-184.100	682.379	-0.062	-0.159
-183.085	-88.492	0.198	0.058
-182.071	-96.190	-0.270	0.071
-181.056	437.781	0.139	0.299
-180.042	231.193	-0.138	0.224
-179.027	759.678	-0.129	0.345
-178.012	138.073	0.097	-0.126
-176.998	-200.000	-0.068	0.592
-175.983	-29.352	-0.241	0.136
-174.969	-200.000	-0.025	0.471
-173.954	-10.106	-0.145	0.095
-172.939	-200.000	-0.070	0.359
-171.925	-200.000	-0.041	0.274
-170.910	504.926	0.093	-0.214
-169.896	44.216	-0.153	0.139
-168.881	-108.399	-0.242	0.052
-167.866	-99.771	0.122	-0.030
-166.852	425.343	-0.114	-0.242
-165.837	-52.934	-0.082	0.037
-164.823	161.016	0.088	0.122
-163.808	283.465	-0.066	0.117
-162.793	-200.000	0.028	0.254
-161.779	152.886	-0.057	0.076
-160.764	-1.653	-0.215	0.150
-159.750	83.507	0.142	0.153
-158.735	-10.597	-0.169	-0.111
-157.720	-28.074	-0.082	-0.047
-156.706	-1.185	-0.067	0.047
-155.691	-200.000	0.007	0.105
-154.677	800.000	0.118	0.486
-153.662	-85.847	0.129	0.039
-152.647	99.662	0.130	0.149
-151.633	144.862	-0.077	-0.101
-150.618	42.827	0.101	-0.091
-149.604	-200.000	-0.048	0.234
-148.589	-200.000	-0.019	0.155
-147.574	-132.205	0.118	-0.015
-146.560	-99.234	-0.172	-0.043
-145.545	-89.017	-0.107	-0.031
-144.531	81.795	-0.056	-0.060
-143.516	186.614	0.160	0.236
-142.502	147.628	0.059	0.079
-141.487	29.104	0.313	0.262
-140.472	-41.549	0.206	-0.104
-139.458	-107.138	-0.118	-0.026
-138.443	-22.528	-0.335	0.200
-137.429	800.000	0.189	0.530
-136.414	464.567	0.035	-0.077
-135.399	211.617	-0.010	-0.016
-134.385	-109.546	-0.195	-0.041
-133.370	675.292	-0.051	0.131
-132.356	-2.828	0.180	-0.124
-131.341	36.606	-0.156	-0.136
-130.326	309.420	0.057	-0.106
-129.312	-74.367	0.019	0.007
-128.297	-200.000	-0.015	0.199
-127.283	-43.580	0.342	-0.170
-126.268	-97.132	0.302	0.078
-125.253	116.925	-0.118	-0.143
-124.239	-1.685	0.167	-0.116
-123.224	67.774	0.098	0.099
-122.210	-15.352	-0.188	0.119
-121.195	-126.936	0.550	0.080
-120.180	-93.939	-0.080	-0.022
-119.166	301.149	-0.072	0.131
-118.151	-117.951	-0.369	-0.065
-117.137	324.968	-0.156	-0.295
-116.122	-200.000	-0.048	-0.367
-115.107	-200.000	0.078	0.423
-114.093	35.948	0.319	0.277
-113.078	-121.161	0.150	-0.025
-112.064	-3.277	0.163	0.112
-111.049	161.749	0.057	0.078
-110.034	145.861	-0.097	-0.128
-109.020	293.905	-0.162	-0.292
-108.005	9.731	0.152	-0.114
-106.991	-6.479	0.189	-0.127
-105.976	7.132	0.212	0.156
-104.962	81.132	0.061	0.065
-103.947	-110.727	0.340	0.069
-102.932	-179.058	0.182	0.004
-101.918	-67.069	0.202	-0.079
-100.903	-200.000	0.090	0.438
-99.889	107.169	0.081	0.095
-98.874	-86.520	0.243	0.074
-97.859	-31.867	-0.391	-0.216
-96.845	-59.557	0.216	0.091
-95.830	-56.982	-0.308	0.134
-94.816	46.080	-0.161	0.147
-93.801	28.505	-0.063	-0.053
-92.786	63.918	-0.151	-0.149
-91.772	145.923	0.216	0.285
-90.757	284.609	0.128	-0.227
-89.743	-200.000	-0.014	-0.149
-88.728	-200.000	0.043	0.268
-87.713	-200.000	0.000	0.066
-86.699	13.864	-0.236	0.181
-85.684	245.327	0.097	0.160
-84.670	-37.351	-0.179	-0.094
-83.655	591.198	-0.062	0.151
-82.640	208.441	-0.148	-0.229
-81.626	394.741	-0.070	0.144
-80.611	273.498	0.139	0.241
-79.597	-200.000	0.004	0.046
-78.582	-200.000	0.008	-0.113
-77.567	-41.413	-0.210	0.106
-76.553	25.661	0.177	0.145
-75.538	121.459	0.042	0.051
-74.524	-107.620	-0.034	0.007
-73.509	-200.000	0.016	-0.129
-72.494	-55.521	-0.216	-0.095
-71.480	353.013	-0.065	-0.128
-70.465	560.536	0.107	-0.254
-69.451	-85.523	-0.089	0.027
-68.436	-49.822	0.121	-0.057
-67.422	-59.019	0.133	-0.057
-66.407	-200.000	-0.061	-0.283
-65.392	521.178	-0.031	-0.071
-64.378	-184.485	0.156	-0.002
-63.363	-6.206	-0.105	-0.070
-62.349	-200.000	0.008	0.221
-61.334	134.914	-0.744	-0.951
-60.319	-65.014	0.470	0.187
-59.305	-200.000	-0.126	-0.726
-58.290	563.471	0.463	1.104
-57.276	800.000	0.454	1.329
-56.261	-200.000	96.470	595.806
-55.246	629.951	1394.080	3469.475
-54.232	192.457	2587.138	3842.014
-53.217	121.021	2165.268	2650.644
-52.203	43.988	1616.489	1457.448
-51.188	35.069	1350.497	1163.681
-50.173	31.833	1308.899	1108.691
-49.159	54.757	1356.471	1287.350
-48.144	56.569	1372.174	1313.078
-47.130	35.168	1331.680	1147.876
-46.115	31.674	1314.181	1112.044
-45.100	31.413	1309.385	1106.397
-44.086	31.353	1307.294	1104.230
-43.071	31.336	1304.526	1101.749
-42.057	31.331	1302.278	1099.774
-41.042	31.333	1300.438	1098.194
-40.027	31.306	1299.375	1097.093
-39.013	31.315	1297.411	1095.444
-37.998	31.378	1295.678	1094.304
-36.984	31.377	1293.773	1092.647
-35.969	31.424	1292.026	1091.404
-34.954	31.385	1290.637	1089.959
-33.940	31.476	1288.866	1088.952
-32.925	31.440	1287.563	1087.593
-31.911	31.512	1286.070	1086.707
-30.896	31.516	1284.732	1085.559
-29.881	31.388	1283.437	1083.679
-28.867	31.489	1281.865	1082.892
-27.852	31.451	1280.774	1081.708
-26.838	31.548	1278.646	1080.431
-25.823	31.560	1277.749	1079.701
-24.809	31.412	1276.552	1077.791
-23.794	31.419	1275.147	1076.604
-22.779	31.442	1274.022	1075.741
-21.765	31.435	1272.422	1074.310
-20.750	31.518	1270.584	1073.189
-19.736	31.380	1269.859	1071.743
-18.721	31.417	1268.718	1070.949
-17.706	31.287	1267.645	1069.258
-16.692	31.275	1266.081	1067.825
-15.677	31.341	1264.931	1067.191
-14.663	31.430	1263.704	1066.621
-13.648	31.381	1262.887	1065.608
-12.633	31.274	1262.023	1064.233
-11.619	31.257	1261.416	1063.577
-10.604	31.323	1260.248	1062.925
-9.590	31.269	1259.179	1061.677
-8.575	31.227	1258.468	1060.799
-7.560	31.206	1257.655	1059.947
-6.546	31.184	1256.601	1058.893
-5.531	31.247	1255.791	1058.525
-4.517	31.214	1254.636	1057.325
-3.502	31.331	1253.788	1057.231
-2.487	31.323	1252.865	1056.366
-1.473	31.324	1249.035	1053.101
-0.458	30.156	1233.604	1033.540
0.556	28.482	1215.403	994.662
1.571	24.615	1219.267	976.645
2.586	23.508	1233.420	981.770
3.600	22.166	1221.296	964.671
4.615	16.746	1148.836	879.296
5.629	8.511	1075.157	782.664
6.644	4.816	1055.297	750.360
7.659	4.546	1052.641	747.108
8.673	4.475	1051.097	745.603
9.688	4.413	1049.778	744.305
10.702	4.836	1048.431	745.309
11.717	10.199	1055.668	776.174
12.731	18.307	1067.074	823.655
13.746	21.869	1071.040	843.811
14.761	21.959	1070.807	843.985
15.775	21.185	1068.618	838.468
16.790	20.110	1067.083	832.036
17.804	19.464	1065.458	827.596
18.819	19.286	1064.397	825.846
19.834	19.248	1063.379	824.800
20.848	19.050	1063.031	823.513
21.863	18.775	1062.435	821.659
22.877	18.670	1061.552	820.405
23.892	18.631	1061.122	819.810
24.907	18.565	1060.155	818.675
25.921	18.625	1059.025	818.018
26.936	18.759	1057.510	817.412
27.950	18.619	1056.416	815.831
28.965	18.773	1054.940	815.347
29.980	18.954	1053.789	815.244
30.994	19.072	1052.560	814.781
32.009	19.040	1051.933	814.071
33.023	19.066	1050.951	813.361
34.038	19.015	1049.074	811.599
35.053	18.710	1048.576	809.700
36.067	18.658	1047.939	808.896
37.082	18.847	1046.819	808.849
38.096	19.027	1046.693	809.525
39.111	18.871	1046.081	808.248
40.126	18.761	1044.109	806.135
41.140	18.482	1042.917	803.836
42.155	18.420	1041.290	802.219
43.169	18.335	1040.261	800.958
44.184	18.342	1039.405	800.262
45.199	18.327	1038.685	799.566
46.213	18.511	1037.786	799.660
47.228	18.583	1037.408	799.634
48.242	18.728	1036.193	799.304
49.257	18.785	1034.912	798.508
50.271	18.963	1034.146	798.674
51.286	18.952	1033.053	797.707
52.301	18.790	1032.470	796.436
53.315	18.654	1031.117	794.694
54.330	18.583	1029.860	793.325
55.344	18.516	1029.252	792.479
56.359	18.417	1028.812	791.611
57.374	18.453	1027.551	790.738
58.388	18.272	1026.683	789.165
59.403	18.303	1025.563	788.376
60.417	18.248	1025.226	787.794
61.432	18.406	1024.524	787.911
62.447	18.326	1023.110	786.388
63.461	18.112	1022.841	785.129
64.476	18.276	1021.505	784.785
65.490	18.191	1020.970	783.917
66.505	18.257	1020.355	783.676
67.520	18.330	1019.122	782.993
68.534	18.269	1019.035	782.580
69.549	18.169	1018.400	781.565
70.563	18.210	1017.375	780.895
71.578	18.138	1016.235	779.623
72.593	17.829	1015.663	777.710
73.607	17.866	1015.296	777.528
74.622	17.888	1014.737	777.131
75.636	18.087	1013.553	777.059
76.651	18.015	1013.156	776.359
77.666	18.064	1012.872	776.295
78.680	18.183	1011.725	775.887
79.695	18.196	1011.551	775.743
80.709	18.320	1011.149	775.932
81.724	18.359	1010.281	775.371
82.739	18.538	1009.653	775.631
83.753	18.728	1009.023	775.937
84.768	19.051	1008.212	776.702
85.782	19.104	1007.677	776.463
86.797	18.999	1006.677	775.149
87.812	18.831	1005.389	773.331
88.826	18.918	1004.572	773.028
89.841	18.941	1003.925	772.566
90.855	19.006	1003.071	772.130
91.870	19.129	1002.266	771.994
92.884	19.037	1001.120	770.629
93.899	19.049	1000.349	770.023
94.914	19.178	999.343	769.756
95.928	19.153	998.692	769.077
96.943	18.980	997.804	767.552
97.957	18.813	997.212	766.285
98.972	19.068	995.999	766.418
99.987	18.960	995.021	765.120
101.001	18.840	993.960	763.701
102.016	18.948	993.033	763.400
103.030	18.981	992.596	763.144
104.045	19.062	991.992	762.972
105.060	18.825	990.811	760.945
106.074	18.496	989.716	758.581
107.089	18.295	988.886	756.989
108.103	18.265	987.691	755.877
109.118	18.295	986.441	754.983
110.133	18.166	985.766	753.833
111.147	18.205	985.015	753.362
112.162	18.349	984.549	753.574
113.176	18.494	983.679	753.478
114.191	18.389	982.745	752.237
115.206	18.469	982.338	752.207
116.220	18.279	981.637	750.771
117.235	18.422	980.226	750.254
118.249	18.417	979.338	749.486
119.264	18.196	978.814	748.052
120.279	18.186	978.214	747.484
121.293	18.100	977.248	746.305
122.308	18.067	976.163	745.267
123.322	18.058	974.945	744.231
124.337	18.082	973.761	743.366
125.352	18.129	972.588	742.609
126.366	18.010	972.067	741.630
127.381	18.015	970.971	740.749
128.395	18.058	970.095	740.200
129.410	18.164	969.132	739.857
130.424	18.350	968.358	740.005
131.439	18.423	967.852	739.868
132.454	18.371	967.545	739.345
133.468	18.446	966.773	739.012
134.483	18.503	965.774	738.429
135.497	18.350	965.167	737.239
136.512	18.429	963.975	736.606
137.527	18.502	963.249	736.300
138.541	18.478	962.744	735.743
139.556	18.589	961.974	735.568
140.570	18.739	961.397	735.702
141.585	18.964	960.376	735.819
142.600	18.836	959.890	734.835
143.614	19.030	959.034	734.941
144.629	19.234	958.447	735.301
145.643	19.040	957.451	733.643
146.658	18.732	956.328	731.404
147.673	18.647	955.033	729.991
148.687	18.666	953.981	729.199
149.702	18.372	953.400	727.443
150.716	18.329	952.839	726.767
151.731	18.587	951.554	726.820
152.746	18.684	951.010	726.749
153.760	18.587	950.738	726.067
154.775	18.694	950.329	726.141
155.789	18.827	949.111	725.709
156.804	18.741	948.897	725.119
157.819	18.720	948.228	724.455
158.833	18.927	947.418	724.642
159.848	19.150	946.612	724.903
160.862	18.916	945.659	723.124
161.877	18.682	944.036	720.837
162.892	18.429	943.059	718.963
163.906	18.497	942.346	718.643
164.921	18.490	941.204	717.680
165.935	18.674	940.293	717.692
166.950	18.644	939.724	717.066
167.964	18.610	939.150	716.422
168.979	18.552	938.006	715.247
169.994	18.521	937.253	714.480
171.008	18.666	936.380	714.354
172.023	18.868	936.308	715.078
173.037	18.994	935.915	715.237
174.052	18.923	934.406	713.727
175.067	18.595	933.580	711.671
176.081	18.407	933.156	710.507
177.096	18.525	932.613	710.518
178.110	18.504	931.962	709.872
179.125	18.500	931.715	709.605
180.140	18.623	931.115	709.596
181.154	18.787	930.541	709.772
182.169	18.892	930.241	709.912
183.183	19.094	929.238	709.918
184.198	19.000	928.445	708.862
185.213	18.983	928.168	708.519
186.227	19.039	927.339	708.053
187.242	19.287	926.755	708.565
188.256	19.267	926.175	707.976
189.271	19.172	925.895	707.309
190.286	18.986	924.607	705.499
191.300	18.467	923.691	702.610
192.315	18.313	922.903	701.320
193.329	18.535	922.037	701.507
194.344	18.461	922.127	701.210
195.359	18.697	921.428	701.584
196.373	18.934	920.574	701.839
197.388	18.945	920.846	702.028
198.402	19.243	920.209	702.696
199.417	19.503	919.330	703.022
200.432	19.437	919.354	702.710
201.446	19.502	918.853	702.527
202.461	19.640	918.465	702.729
203.475	19.428	917.828	701.318
204.490	19.364	916.375	699.888
205.504	19.126	915.898	698.493
206.519	19.065	915.169	697.631
207.534	18.930	914.415	696.447
208.548	19.033	913.897	696.406
209.563	19.108	913.159	696.087
210.577	19.176	912.452	695.762
211.592	19.369	911.956	696.100
212.607	19.429	911.174	695.685
213.621	19.363	910.514	694.853
214.636	19.515	909.436	694.583
215.650	19.457	909.121	694.044
216.665	19.570	908.335	693.839
217.680	19.693	907.873	693.916
218.694	19.644	906.945	692.949
219.709	19.518	906.840	692.305
220.723	19.548	905.843	691.600
221.738	19.422	905.588	690.841
222.753	19.458	904.687	690.235
223.767	19.529	904.545	690.350
224.782	19.725	903.969	690.632
225.796	19.757	903.562	690.389
226.811	19.610	902.407	688.857
227.826	19.363	901.842	687.384
228.840	19.283	900.958	686.329
229.855	19.498	900.014	686.404
230.869	19.446	899.670	685.874
231.884	19.258	898.692	684.322
232.899	19.244	898.143	683.788
233.913	19.201	897.514	683.077
234.928	19.053	896.987	682.030
235.942	19.147	896.237	681.771
236.957	19.274	895.384	681.566
237.972	19.217	894.826	680.853
238.986	19.237	894.175	680.379
240.001	19.143	893.543	679.467
241.015	19.258	893.212	679.608
242.030	19.351	892.798	679.600
243.045	19.486	892.022	679.480
244.059	19.499	891.718	679.240
245.074	19.602	891.022	679.054
246.088	19.605	890.276	678.438
247.103	19.840	889.734	678.886
248.117	19.938	889.648	679.145
249.132	20.153	889.046	679.468
250.147	20.225	888.553	679.312
251.161	20.239	888.127	678.980
252.176	20.273	887.683	678.716
253.190	20.514	886.697	678.844
254.205	20.502	886.339	678.462
255.220	20.440	885.459	677.486
256.234	20.452	884.905	677.051
257.249	20.428	884.289	676.426
258.263	20.184	883.891	675.109
259.278	20.297	883.024	674.829
260.293	20.281	882.654	674.424
261.307	20.566	881.992	674.965
262.322	20.493	881.706	674.402
263.336	20.640	880.322	673.855
264.351	20.562	879.747	673.054
265.366	20.558	879.176	672.542
266.380	20.637	878.365	672.166
267.395	20.526	877.720	671.184
268.409	20.273	877.350	669.865
269.424	20.505	876.049	669.706
270.439	20.370	875.677	668.843
271.453	20.255	874.735	667.624
272.468	20.247	874.306	667.206
273.482	20.328	873.497	666.839
274.497	20.262	873.120	666.240
275.512	20.280	872.617	665.867
276.526	20.305	872.086	665.498
277.541	20.226	871.904	664.996
278.555	20.400	871.304	665.147
279.570	20.791	870.451	665.932
280.585	20.638	870.026	664.963
281.599	20.415	869.165	663.395
282.614	20.372	868.345	662.547
283.628	20.305	867.660	661.709
284.643	20.324	867.548	661.637
285.657	20.441	866.349	661.110
286.672	20.532	865.921	661.072
287.687	20.481	865.266	660.320
288.701	20.432	865.114	659.958
289.716	20.544	864.062	659.523
290.730	20.596	863.668	659.359
291.745	20.610	862.993	658.841
292.760	20.758	862.444	658.922
293.774	20.825	861.871	658.681
294.789	20.619	861.594	657.631
295.803	20.469	860.681	656.308
296.818	20.440	859.869	655.522
297.833	20.403	859.100	654.739
298.847	20.436	858.673	654.482
299.862	20.498	858.311	654.380
300.876	20.664	857.923	654.651
301.891	20.799	857.527	654.799
302.906	20.938	856.855	654.748
303.920	21.205	856.083	655.105
304.935	21.234	855.538	654.738
305.949	20.959	854.918	653.173
306.964	20.866	854.408	652.378
307.979	20.909	853.598	651.863
308.993	21.072	853.206	652.117
310.008	21.039	852.746	651.585
311.022	20.827	852.200	650.316
312.037	20.785	851.590	649.637
313.052	20.550	850.643	647.981
314.066	20.505	850.116	647.353
315.081	20.511	849.659	646.971
316.095	20.540	849.001	646.522
317.110	20.463	848.533	645.823
318.125	20.561	847.767	645.544
319.139	20.457	847.243	644.703
320.154	20.526	847.115	644.805
321.168	20.682	846.441	644.814
322.183	20.736	846.083	644.682
323.197	20.706	845.609	644.156
324.212	20.739	845.165	643.881
325.227	20.637	844.744	643.126
326.241	20.623	843.815	642.311
327.256	20.618	843.264	641.815
328.270	20.710	842.280	641.348
329.285	20.565	842.190	640.689
330.300	20.507	841.546	639.929
331.314	20.664	841.064	640.084
332.329	20.746	841.080	640.342
333.343	20.946	840.526	640.599
334.358	20.946	839.678	639.893
335.373	20.859	839.557	639.427
336.387	21.031	839.349	639.843
337.402	21.183	839.277	640.287
338.416	21.157	839.138	640.030
339.431	21.358	838.824	640.469
340.446	21.380	838.210	640.026
341.460	21.476	837.626	639.875
342.475	21.522	837.558	639.933
343.489	21.676	837.077	640.074
344.504	21.659	836.716	639.677
345.519	21.797	835.939	639.529
346.533	21.661	835.190	638.405
347.548	21.519	834.387	637.217
348.562	21.160	834.064	635.608
349.577	21.035	833.403	634.593
350.592	21.008	832.731	633.928
351.606	20.892	832.008	632.899
352.621	21.115	831.316	633.125
353.635	21.078	830.736	632.493
354.650	21.138	830.179	632.232
355.665	21.328	829.660	632.469
356.679	21.283	829.180	631.884
357.694	21.380	828.628	631.758
358.708	21.332	827.649	630.784
359.723	21.330	827.511	630.614
360.738	21.367	826.582	629.984
361.752	21.385	826.374	629.835
362.767	21.595	825.720	630.037
363.781	21.696	825.185	629.935
364.796	21.887	824.803	630.275
365.810	21.918	824.821	630.345
366.825	22.050	824.013	630.145
367.840	21.888	823.634	629.218
368.854	21.673	823.220	628.076
369.869	21.663	822.501	627.436
370.883	21.638	822.440	627.245
371.898	21.867	821.886	627.584
372.913	21.972	821.328	627.478
373.927	21.766	820.997	626.434
374.942	21.878	820.435	626.349
375.956	21.937	820.075	626.229
376.971	22.048	819.727	626.304
377.986	22.120	819.141	626.058
379.000	22.207	818.347	625.704
380.015	22.132	817.997	625.115
381.029	22.078	817.416	624.426
382.044	22.053	817.081	624.026
383.059	22.157	816.601	623.971
384.073	22.074	815.725	622.952
385.088	21.624	815.378	621.038
386.102	21.734	814.152	620.439
387.117	21.831	813.435	620.179
388.132	21.643	813.251	619.318
389.146	21.884	812.691	619.691
390.161	21.964	812.195	619.541
391.175	22.037	811.815	619.452
392.190	21.934	811.267	618.615
393.205	21.834	810.324	617.489
394.219	21.708	810.466	617.101
395.234	21.775	810.259	617.123
396.248	21.556	809.455	615.688
397.263	21.556	809.042	615.317
398.278	21.558	808.477	614.840
399.292	21.534	807.868	614.240
400.307	21.579	807.843	614.322
401.321	21.477	807.332	613.524
402.336	21.711	806.973	614.016
403.350	21.887	806.571	614.273
404.365	22.078	806.028	614.471
405.380	22.179	805.855	614.638
406.394	22.122	805.132	613.833
407.409	22.269	804.955	614.159
408.423	22.389	804.605	614.255
409.438	22.362	804.435	613.977
410.453	22.470	803.330	613.457
411.467	22.433	803.186	613.163
412.482	22.413	803.075	612.954
413.496	22.556	803.101	613.417
414.511	22.433	802.906	612.785
415.526	22.552	801.491	612.064
416.540	22.352	801.354	611.213
417.555	22.480	800.798	611.180
418.569	22.505	800.318	610.844
419.584	22.626	799.778	610.797
420.599	22.606	799.418	610.401
421.613	162.937	1369.883	1794.589
422.628	141.521	1453.009	1794.688
