DTS Sentinel unit serial number:	SN413079Multiplexer serial number:	ORYXHardware model number:	OX4-SRSoftware version number:	ORYX F/W v4.00 Oryx Data Collector v3.7.2.0data status	okinstallation	princeton_trtdifferential loss correction	single-endedforward channel	channel 1reverse channel	N/Adate	2019/09/12time	17:04:11forward acquisition time	60.00reverse acquisition time	0.00gamma	496.2192k internal	0.2312k external	0.2312temperature offset calibration	1.0100default loss term (dB/km)	0.3790temperature slope calibration	1.0000multiplexer offset coefficient	1.0000multiplexer slope coefficient	1.0000fibre end	0.00T internal ref (°C)	35.59T ext. ref 1 (°C)	2.79T ext. ref 2 (°C)	28.77length (m)	temperature (°C)	Stokes	anti-Stokes-747.200	-166.132	0.324	0.014
-746.185	-113.024	0.417	0.084
-745.171	-200.000	-0.026	-0.174
-744.156	-200.000	0.039	0.359
-743.142	800.000	-0.175	0.494
-742.127	742.825	0.067	0.182
-741.112	10.372	0.286	0.221
-740.098	443.362	0.063	0.141
-739.083	680.549	-0.024	0.064
-738.069	84.704	0.202	0.225
-737.054	124.094	0.120	-0.153
-736.039	-31.626	0.031	-0.017
-735.025	534.492	-0.071	0.172
-734.010	547.530	0.060	-0.145
-732.996	-2.563	-0.314	-0.223
-731.981	-164.582	-0.254	0.012
-730.966	-126.443	-0.182	0.027
-729.952	-40.500	0.126	0.066
-728.937	-60.672	-0.214	-0.092
-727.923	369.721	0.077	0.157
-726.908	136.152	-0.186	0.246
-725.894	-200.000	-0.007	-0.165
-724.879	-178.175	0.113	0.003
-723.864	440.688	0.071	-0.157
-722.850	-145.648	-0.230	-0.021
-721.835	-200.000	-0.030	0.257
-720.821	308.224	0.089	-0.168
-719.806	-200.000	-0.007	0.088
-718.791	94.950	-0.121	0.140
-717.777	208.041	0.087	-0.138
-716.762	-26.361	-0.360	-0.214
-715.748	-200.000	0.024	-0.164
-714.733	-200.000	0.028	0.227
-713.718	4.314	-0.280	-0.208
-712.704	-2.295	-0.345	-0.245
-711.689	-163.601	0.127	0.006
-710.675	-91.608	-0.143	-0.041
-709.660	-200.000	-0.076	0.420
-708.645	-200.000	0.032	-0.336
-707.631	609.951	0.028	0.070
-706.616	28.556	-0.087	0.075
-705.602	-200.000	-0.005	-0.326
-704.587	-95.597	-0.217	0.059
-703.572	466.176	-0.088	-0.201
-702.558	592.013	0.060	0.151
-701.543	-30.214	-0.084	-0.048
-700.529	-176.926	0.065	0.002
-699.514	75.000	-0.171	-0.183
-698.499	-69.544	-0.207	-0.080
-697.485	-100.595	0.141	-0.035
-696.470	-159.487	-0.530	0.030
-695.456	800.000	0.064	0.284
-694.441	116.461	-0.031	-0.039
-693.426	-139.423	-0.035	0.004
-692.412	35.698	0.316	-0.282
-691.397	-67.918	0.331	0.131
-690.383	-200.000	-0.049	-0.339
-689.368	-27.724	-0.300	0.176
-688.354	800.000	0.045	0.163
-687.339	316.292	0.105	-0.200
-686.324	1.865	0.175	-0.128
-685.310	-21.212	-0.148	-0.091
-684.295	-200.000	-0.075	-0.442
-683.281	-10.972	0.071	0.047
-682.266	-103.560	-0.060	-0.014
-681.251	40.940	0.199	-0.182
-680.237	-101.300	0.121	0.030
-679.222	-33.169	0.079	0.045
-678.208	51.079	-0.069	0.066
-677.193	171.185	0.093	-0.135
-676.178	-35.335	0.237	-0.131
-675.164	800.000	-0.040	0.153
-674.149	-49.267	0.236	0.114
-673.135	39.809	0.106	0.097
-672.120	-200.000	0.028	0.152
-671.105	-1.499	-0.065	0.046
-670.091	-99.015	-0.361	0.093
-669.076	121.407	-0.250	-0.315
-668.062	-200.000	-0.017	-0.197
-667.047	478.417	-0.161	-0.370
-666.032	-35.567	0.115	0.063
-665.018	-142.462	0.303	0.030
-664.003	71.571	0.081	-0.085
-662.989	134.559	0.054	0.071
-661.974	-116.509	-0.404	0.075
-660.959	-17.595	0.140	0.089
-659.945	-72.780	0.235	-0.088
-658.930	303.399	-0.167	0.314
-657.916	-16.377	0.122	0.078
-656.901	-8.169	-0.274	-0.187
-655.886	-4.076	-0.058	0.041
-654.872	800.000	0.089	-0.363
-653.857	-24.902	-0.212	-0.127
-652.843	-47.695	-0.153	0.075
-651.828	-83.805	0.166	-0.053
-650.814	800.000	0.060	0.234
-649.799	59.835	0.345	0.344
-648.784	42.941	-0.168	-0.155
-647.770	-22.297	-0.226	-0.139
-646.755	-101.575	-0.162	0.040
-645.741	87.475	-0.218	-0.244
-644.726	0.815	-0.279	0.202
-643.711	96.887	0.099	0.115
-642.697	-47.770	0.094	0.046
-641.682	59.338	-0.105	-0.105
-640.668	-62.302	-0.277	0.117
-639.653	-200.000	0.095	-0.515
-638.638	672.094	-0.128	-0.335
-637.624	800.000	-0.038	0.154
-636.609	-141.557	0.099	0.010
-635.595	182.410	0.212	-0.316
-634.580	-200.000	0.028	-0.297
-633.565	-200.000	-0.076	-0.437
-632.551	178.057	-0.063	-0.093
-631.536	-64.319	-0.158	-0.065
-630.522	-149.776	0.157	0.012
-629.507	-200.000	-0.001	-0.145
-628.492	-46.819	-0.278	0.137
-627.478	695.029	0.068	0.180
-626.463	-200.000	0.002	0.133
-625.449	-200.000	-0.011	0.181
-624.434	123.087	0.237	0.300
-623.419	-98.669	-0.517	-0.133
-622.405	-68.747	-0.215	0.084
-621.390	800.000	0.070	0.278
-620.376	-200.000	-0.001	0.064
-619.361	800.000	-0.072	0.234
-618.346	155.249	0.084	0.117
-617.332	-41.888	-0.538	-0.278
-616.317	-40.881	0.276	-0.144
-615.303	150.923	0.214	-0.294
-614.288	-200.000	0.004	-0.269
-613.273	-89.100	-0.161	-0.048
-612.259	-176.473	0.221	0.006
-611.244	-46.803	-0.201	0.099
-610.230	-55.247	-0.296	0.134
-609.215	800.000	0.027	-0.099
-608.201	-44.538	0.167	-0.084
-607.186	-100.386	-0.064	-0.016
-606.171	644.177	0.121	-0.312
-605.157	123.066	-0.113	0.142
-604.142	218.447	-0.198	0.318
-603.128	121.042	0.272	-0.342
-602.113	-200.000	-0.066	-0.297
-601.098	76.644	0.086	-0.092
-600.084	193.541	0.132	0.202
-599.069	800.000	-0.040	0.175
-598.055	171.492	0.147	0.213
-597.040	83.498	-0.118	-0.129
-596.025	-200.000	0.003	-0.028
-595.011	50.456	-0.073	0.070
-593.996	-31.752	-0.057	-0.032
-592.982	-200.000	0.009	0.110
-591.967	-7.441	-0.106	0.072
-590.952	189.265	0.109	0.164
-589.938	108.686	0.168	-0.203
-588.923	-13.664	0.235	-0.153
-587.909	-200.000	-0.003	0.129
-586.894	74.840	-0.254	-0.270
-585.879	-56.213	0.301	0.135
-584.865	-123.867	0.351	0.056
-583.850	-194.531	-0.076	-0.001
-582.836	82.951	-0.152	0.167
-581.821	72.272	-0.052	-0.055
-580.806	-118.793	-0.131	0.023
-579.792	129.262	0.082	-0.105
-578.777	-200.000	0.000	-0.146
-577.763	800.000	0.045	0.169
-576.748	547.092	0.054	0.130
-575.733	15.748	0.134	0.106
-574.719	-38.241	-0.142	0.076
-573.704	-53.648	-0.304	-0.140
-572.690	34.803	0.088	-0.078
-571.675	245.154	0.071	0.121
-570.661	-200.000	0.006	-0.096
-569.646	130.452	-0.074	0.095
-568.631	-50.312	0.386	0.184
-567.617	-68.322	-0.122	-0.048
-566.602	-172.802	0.353	-0.011
-565.588	211.700	-0.065	-0.103
-564.573	-101.846	-0.309	0.075
-563.558	-200.000	-0.015	-0.314
-562.544	100.480	-0.181	-0.211
-561.529	102.173	0.098	-0.115
-560.515	-200.000	-0.000	-0.411
-559.500	49.386	-0.127	0.120
-558.485	11.771	-0.142	0.110
-557.471	800.000	0.038	0.136
-556.456	165.751	0.181	0.257
-555.442	0.241	0.087	0.062
-554.427	800.000	-0.058	0.226
-553.412	11.028	0.107	-0.083
-552.398	-60.253	0.251	-0.108
-551.383	163.343	-0.012	-0.018
-550.369	-77.275	0.210	0.074
-549.354	424.345	-0.150	-0.325
-548.339	-200.000	0.002	-0.370
-547.325	-200.000	0.027	-0.336
-546.310	735.576	0.136	0.366
-545.296	-30.355	0.231	-0.132
-544.281	167.490	-0.128	-0.184
-543.266	433.071	-0.152	0.333
-542.252	100.278	-0.276	-0.323
-541.237	132.141	-0.006	-0.008
-540.223	-60.011	-0.206	0.089
-539.208	239.899	-0.094	0.158
-538.193	-200.000	0.064	-0.343
-537.179	-34.397	0.137	-0.075
-536.164	-121.712	0.157	0.026
-535.150	219.292	0.157	0.253
-534.135	-144.611	-0.106	0.010
-533.121	-5.428	0.214	0.148
-532.106	800.000	0.033	0.109
-531.091	94.113	0.156	-0.179
-530.077	-200.000	-0.002	-0.057
-529.062	114.092	0.158	-0.193
-528.048	504.033	-0.063	0.146
-527.033	-200.000	0.007	-0.371
-526.018	-200.000	0.008	-0.076
-525.004	-143.063	0.087	-0.008
-523.989	91.589	0.086	-0.097
-522.975	72.109	-0.287	0.300
-521.960	-15.672	0.152	-0.098
-520.945	247.822	0.024	0.042
-519.931	-80.870	-0.066	-0.022
-518.916	213.615	0.047	0.074
-517.902	-200.000	0.012	-0.163
-516.887	120.563	0.062	-0.078
-515.872	53.314	-0.206	-0.198
-514.858	-112.272	0.036	-0.007
-513.843	-103.429	-0.391	0.092
-512.829	251.284	0.149	0.255
-511.814	-142.407	0.095	0.009
-510.799	126.505	0.060	0.077
-509.785	-200.000	-0.013	-0.189
-508.770	-156.483	-0.308	0.019
-507.756	236.070	-0.106	0.177
-506.741	38.441	-0.147	0.131
-505.726	-138.021	0.199	0.022
-504.712	-11.744	-0.228	-0.150
-503.697	-66.667	-0.390	-0.155
-502.683	193.253	0.077	0.118
-501.668	-14.199	0.289	-0.187
-500.653	-128.088	-0.461	-0.066
-499.639	800.000	-0.054	-0.220
-498.624	66.486	-0.134	-0.137
-497.610	268.691	-0.075	0.132
-496.595	15.779	0.199	0.157
-495.581	30.588	0.157	-0.135
-494.566	191.324	0.029	0.043
-493.551	104.841	-0.053	0.062
-492.537	19.348	0.251	0.202
-491.522	-149.383	-0.328	-0.026
-490.508	13.055	-0.085	-0.066
-489.493	-133.597	0.281	-0.035
-488.478	321.177	0.091	-0.174
-487.464	-14.135	-0.077	0.050
-486.449	146.703	0.098	0.132
-485.435	182.316	-0.186	0.275
-484.420	-200.000	-0.012	0.259
-483.405	32.080	0.168	0.146
-482.391	2.398	-0.315	0.229
-481.376	-40.941	0.281	-0.146
-480.362	-132.413	-0.150	-0.019
-479.347	190.512	-0.128	0.194
-478.332	54.961	-0.149	-0.145
-477.318	105.546	0.192	-0.228
-476.303	80.569	0.030	-0.032
-475.289	113.882	0.148	0.181
-474.274	74.213	-0.121	0.128
-473.259	-200.000	0.011	-0.159
-472.245	800.000	-0.076	-0.283
-471.230	546.424	0.101	0.243
-470.216	-200.000	-0.039	0.251
-469.201	37.720	-0.129	-0.115
-468.186	68.761	0.061	-0.063
-467.172	-200.000	0.005	-0.052
-466.157	206.986	0.196	-0.307
-465.143	766.215	0.028	-0.076
-464.128	-185.487	-0.183	0.003
-463.113	-128.241	-0.312	-0.045
-462.099	-200.000	0.066	0.295
-461.084	-3.366	-0.411	-0.287
-460.070	-135.271	0.234	0.028
-459.055	643.286	0.163	-0.418
-458.040	-110.424	-0.114	-0.024
-457.026	800.000	-0.038	0.106
-456.011	-66.785	-0.255	-0.101
-454.997	-131.026	0.267	-0.036
-453.982	800.000	0.024	0.083
-452.968	800.000	-0.028	-0.102
-451.953	151.045	-0.135	-0.184
-450.938	-200.000	0.004	0.070
-449.924	-200.000	-0.013	0.381
-448.909	800.000	0.056	0.219
-447.895	31.178	-0.221	0.190
-446.880	-200.000	-0.026	0.197
-445.865	-119.726	-0.287	0.050
-444.851	313.666	-0.136	-0.257
-443.836	-200.000	-0.010	0.054
-442.822	-60.657	-0.046	0.020
-441.807	10.232	0.517	0.394
-440.792	-131.510	0.103	0.014
-439.778	47.573	-0.173	-0.161
-438.763	61.720	0.185	0.185
-437.749	178.717	-0.099	0.146
-436.734	-86.416	-0.360	-0.111
-435.719	208.767	-0.082	0.129
-434.705	-50.598	-0.107	0.050
-433.690	-38.287	-0.083	-0.044
-432.676	-56.145	0.152	-0.068
-431.661	67.782	-0.178	-0.182
-430.646	-24.223	0.084	0.050
-429.632	47.191	0.059	0.055
-428.617	24.678	-0.269	0.223
-427.603	-121.353	0.327	0.055
-426.588	34.168	-0.123	0.107
-425.573	-138.575	0.410	-0.045
-424.559	-126.087	-0.275	-0.041
-423.544	0.904	-0.234	0.168
-422.530	-137.622	0.292	0.033
-421.515	-91.299	0.096	-0.027
-420.500	52.052	0.067	-0.064
-419.486	-114.255	0.347	0.067
-418.471	800.000	0.102	-0.388
-417.457	349.019	0.147	0.291
-416.442	258.652	-0.204	0.353
-415.428	-200.000	0.036	0.188
-414.413	-200.000	-0.009	-0.119
-413.398	301.456	-0.066	-0.123
-412.384	-80.719	0.099	0.033
-411.369	351.524	0.119	0.235
-410.355	262.022	0.012	0.022
-409.340	36.084	0.133	-0.117
-408.325	800.000	-0.051	0.162
-407.311	-43.723	0.201	-0.102
-406.296	-36.387	-0.322	-0.174
-405.282	137.669	-0.133	0.174
-404.267	-139.623	-0.260	0.028
-403.252	-200.000	0.003	-0.224
-402.238	-110.066	-0.119	0.025
-401.223	-165.643	-0.175	-0.008
-400.209	-43.516	0.208	-0.105
-399.194	800.000	-0.069	-0.201
-398.179	-200.000	0.006	-0.487
-397.165	-200.000	-0.019	-0.088
-396.150	250.481	0.084	0.143
-395.136	90.395	0.079	0.089
-394.121	585.539	-0.110	0.271
-393.106	-35.415	0.379	-0.206
-392.092	-82.231	-0.164	0.054
-391.077	-153.736	-0.410	0.028
-390.063	575.440	-0.072	-0.176
-389.048	-200.000	-0.008	-0.120
-388.033	-200.000	-0.097	-0.551
-387.019	800.000	-0.007	-0.024
-386.004	-85.860	0.330	-0.102
-384.990	-77.706	-0.292	-0.101
-383.975	29.130	0.449	0.381
-382.960	49.599	0.207	-0.195
-381.946	-200.000	0.027	-0.313
-380.931	800.000	0.043	-0.183
-379.917	800.000	-0.103	0.377
-378.902	366.053	0.041	0.083
-377.888	800.000	-0.092	-0.282
-376.873	-35.465	-0.212	-0.115
-375.858	-56.440	-0.048	0.021
-374.844	232.216	0.029	-0.048
-373.829	800.000	0.034	0.144
-372.815	-200.000	-0.002	0.010
-371.800	337.670	-0.039	0.076
-370.785	-22.056	-0.082	-0.050
-369.771	85.743	0.069	-0.076
-368.756	425.325	-0.062	0.133
-367.742	-200.000	-0.027	-0.285
-366.727	800.000	0.072	-0.238
-365.712	800.000	-0.027	0.079
-364.698	-157.966	0.204	-0.012
-363.683	-107.708	0.227	0.050
-362.669	35.910	0.398	0.350
-361.654	11.583	-0.167	-0.128
-360.639	-200.000	0.072	-0.340
-359.625	-56.341	0.107	0.048
-358.610	69.035	-0.024	0.025
-357.596	36.295	0.112	0.099
-356.581	-14.064	0.126	-0.081
-355.566	-109.473	0.253	-0.053
-354.552	-200.000	-0.006	0.220
-353.537	-67.023	-0.151	-0.060
-352.523	-200.000	0.025	-0.353
-351.508	-131.829	0.227	0.030
-350.493	-91.490	-0.351	0.100
-349.479	-3.839	0.068	0.047
-348.464	-114.099	0.265	0.051
-347.450	800.000	0.014	-0.061
-346.435	-200.000	-0.013	-0.382
-345.420	145.524	0.107	-0.143
-344.406	136.537	-0.148	0.193
-343.391	271.592	-0.094	-0.166
-342.377	-2.814	0.212	0.148
-341.362	-84.951	0.213	-0.067
-340.348	29.657	0.195	0.166
-339.333	-200.000	-0.079	0.406
-338.318	61.008	0.128	-0.127
-337.304	-200.000	-0.069	-0.317
-336.289	800.000	-0.048	0.153
-335.275	-58.949	0.100	-0.043
-334.260	-200.000	0.077	0.380
-333.245	800.000	-0.136	0.462
-332.231	-200.000	0.003	0.015
-331.216	-200.000	0.005	-0.414
-330.202	256.086	-0.221	-0.379
-329.187	-115.255	0.240	-0.045
-328.172	70.441	-0.334	0.345
-327.158	-50.030	-0.128	-0.061
-326.143	626.524	0.057	-0.143
-325.129	-200.000	-0.064	0.353
-324.114	205.412	0.125	0.194
-323.099	800.000	0.055	0.175
-322.085	68.418	-0.126	-0.129
-321.070	-200.000	-0.025	0.382
-320.056	206.639	0.156	0.242
-319.041	-39.497	-0.108	0.057
-318.026	238.765	-0.118	0.196
-317.012	-156.581	0.227	-0.014
-315.997	-114.595	0.112	-0.021
-314.983	800.000	0.012	-0.040
-313.968	99.662	-0.186	0.215
-312.953	412.391	-0.107	0.227
-311.939	370.811	0.100	0.203
-310.924	203.459	0.035	0.055
-309.910	25.485	-0.285	-0.236
-308.895	800.000	0.093	-0.285
-307.880	112.354	-0.133	-0.160
-306.866	-200.000	-0.020	0.241
-305.851	299.537	-0.054	0.099
-304.837	37.317	0.467	0.413
-303.822	800.000	0.057	-0.174
-302.807	-113.265	0.235	-0.046
-301.793	5.723	0.170	-0.125
-300.778	42.406	0.279	0.253
-299.764	62.913	-0.109	-0.109
-298.749	59.392	-0.043	-0.042
-297.735	25.163	-0.237	0.196
-296.720	422.985	-0.025	0.053
-295.705	140.914	-0.130	0.172
-294.691	-21.088	-0.019	0.012
-293.676	800.000	-0.028	0.081
-292.662	-200.000	0.002	0.078
-291.647	-110.193	-0.346	-0.072
-290.632	-200.000	0.037	0.243
-289.618	50.611	-0.096	0.090
-288.603	-200.000	0.027	0.208
-287.589	266.208	0.038	-0.067
-286.574	-162.201	0.188	0.009
-285.559	381.942	-0.063	-0.129
-284.545	-45.441	0.300	0.148
-283.530	-147.785	0.144	-0.012
-282.516	-124.823	0.041	0.006
-281.501	-200.000	0.010	-0.256
-280.486	-23.426	-0.100	-0.060
-279.472	-200.000	0.029	0.136
-278.457	236.368	0.090	0.148
-277.443	-30.359	-0.057	-0.033
-276.428	800.000	0.048	0.191
-275.413	-106.783	0.175	0.039
-274.399	-44.517	-0.061	0.030
-273.384	-133.120	0.207	-0.026
-272.370	136.009	-0.157	-0.204
-271.355	138.351	-0.259	-0.338
-270.340	180.985	0.084	0.123
-269.326	11.352	0.137	0.104
-268.311	456.776	0.186	0.411
-267.297	197.651	-0.052	-0.080
-266.282	79.619	-0.032	-0.034
-265.267	135.667	0.056	-0.073
-264.253	-93.240	-0.177	-0.049
-263.238	114.216	-0.182	-0.220
-262.224	-179.895	-0.103	-0.002
-261.209	120.898	-0.129	-0.160
-260.195	-104.905	-0.447	-0.102
-259.180	32.113	0.182	-0.156
-258.165	155.173	-0.041	-0.056
-257.151	268.108	0.101	-0.176
-256.136	2.702	0.288	0.208
-255.122	63.163	-0.264	-0.263
-254.107	125.094	0.156	-0.196
-253.092	700.314	0.115	-0.302
-252.078	71.034	0.054	-0.056
-251.063	-86.723	0.325	0.099
-250.049	-138.657	-0.305	-0.033
-249.034	544.681	-0.096	-0.227
-248.019	-200.000	0.062	-0.321
-247.005	-7.452	-0.222	0.149
-245.990	800.000	-0.068	-0.227
-244.976	-200.000	0.025	0.315
-243.961	-128.999	0.073	-0.010
-242.946	254.971	0.152	0.259
-241.932	54.459	0.027	-0.025
-240.917	-45.439	-0.289	-0.143
-239.903	-200.000	0.029	0.149
-238.888	-131.853	-0.228	0.030
-237.873	-200.000	0.007	0.350
-236.859	-200.000	0.015	0.470
-235.844	-200.000	-0.003	0.460
-234.830	-168.386	0.279	0.011
-233.815	152.955	0.062	0.085
-232.800	87.604	0.197	-0.217
-231.786	800.000	-0.110	-0.359
-230.771	193.860	-0.139	0.210
-229.757	196.622	0.096	-0.145
-228.742	268.200	0.178	0.311
-227.727	-71.877	0.035	0.013
-226.713	-200.000	0.080	0.370
-225.698	144.632	-0.291	0.386
-224.684	-109.326	-0.310	-0.065
-223.669	-154.530	-0.164	0.011
-222.655	800.000	-0.069	0.262
-221.640	800.000	-0.010	0.041
-220.625	800.000	-0.023	-0.088
-219.611	-10.542	-0.091	-0.060
-218.596	-50.268	-0.063	-0.029
-217.582	65.482	0.110	-0.110
-216.567	-158.755	-0.276	0.016
-215.552	369.622	0.126	0.254
-214.538	187.968	-0.187	-0.277
-213.523	761.075	0.061	-0.165
-212.509	38.684	0.110	-0.097
-211.494	-200.000	-0.009	-0.177
-210.479	298.080	-0.070	0.128
-209.465	-200.000	0.017	-0.199
-208.450	-50.869	-0.205	0.096
-207.436	-200.000	0.027	0.231
-206.421	38.808	0.327	-0.290
-205.406	-11.839	-0.115	-0.075
-204.392	461.707	-0.185	-0.410
-203.377	-20.588	-0.331	-0.202
-202.363	14.724	0.176	-0.137
-201.348	-64.491	-0.190	-0.077
-200.333	148.480	-0.117	0.157
-199.319	304.125	0.247	0.454
-198.304	-119.989	-0.199	0.034
-197.290	-23.709	0.370	0.221
-196.275	43.884	0.095	-0.086
-195.260	493.245	-0.058	0.132
-194.246	201.725	0.150	0.230
-193.231	474.279	-0.071	-0.159
-192.217	-200.000	0.047	-0.416
-191.202	-158.891	0.339	0.019
-190.187	-200.000	-0.016	-0.140
-189.173	443.334	-0.078	-0.170
-188.158	-127.323	-0.422	0.061
-187.144	17.852	-0.061	0.049
-186.129	29.049	0.324	-0.273
-185.114	-111.824	-0.200	0.040
-184.100	-114.475	0.217	-0.041
-183.085	-63.926	0.147	0.060
-182.071	800.000	-0.030	-0.126
-181.056	-90.912	-0.209	-0.060
-180.042	-200.000	0.046	0.239
-179.027	-155.509	0.391	-0.025
-178.012	-116.805	0.455	0.083
-176.998	74.572	0.085	0.088
-175.983	-6.537	0.142	0.096
-174.969	166.197	-0.113	-0.159
-173.954	-66.036	-0.255	-0.101
-172.939	371.783	0.161	0.324
-171.925	330.532	0.049	-0.093
-170.910	-92.867	0.191	0.053
-169.896	-200.000	-0.034	0.274
-168.881	-56.648	-0.332	0.146
-167.866	238.141	0.077	0.127
-166.852	-200.000	-0.009	-0.124
-165.837	-200.000	-0.009	-0.386
-164.823	44.052	-0.265	0.241
-163.808	6.879	0.115	0.085
-162.793	77.634	0.092	0.097
-161.779	-30.410	0.221	0.125
-160.764	-8.023	-0.209	0.140
-159.750	-108.324	0.334	0.072
-158.735	-31.798	-0.022	0.012
-157.720	-200.000	0.029	0.174
-156.706	-50.975	0.172	0.080
-155.691	-200.000	-0.061	-0.267
-154.677	128.166	0.105	0.133
-153.662	-45.203	0.151	0.074
-152.647	240.805	-0.109	-0.180
-151.633	392.463	0.118	-0.243
-150.618	800.000	0.022	-0.086
-149.604	116.867	-0.055	-0.067
-148.589	-4.919	-0.226	0.154
-147.574	191.388	0.026	-0.038
-146.560	89.188	0.080	-0.089
-145.545	354.600	-0.050	0.099
-144.531	-42.013	0.238	0.121
-143.516	17.722	-0.066	-0.052
-142.502	-11.282	-0.090	0.059
-141.487	-200.000	0.032	-0.294
-140.472	3.989	0.052	-0.038
-139.458	555.009	-0.088	0.210
-138.443	705.143	0.031	-0.080
-137.429	467.772	0.091	-0.201
-136.414	-200.000	-0.048	-0.301
-135.399	779.299	-0.151	-0.410
-134.385	800.000	0.049	0.141
-133.370	328.838	-0.209	0.397
-132.356	168.870	-0.079	0.112
-131.341	652.887	-0.112	-0.285
-130.326	147.491	-0.201	0.269
-129.312	-52.739	-0.154	-0.070
-128.297	92.202	-0.192	0.214
-127.283	-98.007	0.124	-0.032
-126.268	-63.491	0.200	0.082
-125.253	-200.000	0.035	-0.344
-124.239	-77.637	-0.193	-0.066
-123.224	-107.442	0.230	0.050
-122.210	-200.000	-0.010	0.146
-121.195	-200.000	-0.032	-0.247
-120.180	167.201	-0.184	0.258
-119.166	-138.924	-0.139	0.015
-118.151	-147.148	0.209	-0.018
-117.137	-200.000	0.014	0.402
-116.122	-126.814	0.152	-0.022
-115.107	-48.527	0.342	0.163
-114.093	-56.457	-0.175	-0.077
-113.078	-182.820	-0.282	0.005
-112.064	-94.921	-0.124	0.033
-111.049	-29.283	0.391	-0.221
-110.034	-200.000	-0.016	0.109
-109.020	800.000	0.054	0.200
-108.005	291.248	-0.149	-0.268
-106.991	295.402	-0.049	-0.088
-105.976	-165.317	0.177	-0.008
-104.962	800.000	0.076	0.272
-103.947	24.652	0.092	0.075
-102.932	5.198	0.257	0.187
-101.918	-0.932	0.190	-0.133
-100.903	-200.000	-0.045	-0.361
-99.889	26.296	-0.167	0.138
-98.874	-120.054	-0.176	0.030
-97.859	-200.000	-0.020	0.284
-96.845	340.946	0.070	-0.136
-95.830	800.000	-0.055	0.177
-94.816	-152.046	0.208	0.015
-93.801	180.859	0.122	-0.177
-92.786	-186.694	0.267	-0.004
-91.772	49.906	-0.207	0.193
-90.757	-108.833	-0.396	0.084
-89.743	-44.136	0.186	0.092
-88.728	99.779	0.212	0.243
-87.713	570.721	0.106	-0.255
-86.699	636.538	0.148	-0.371
-85.684	164.840	0.101	0.141
-84.670	301.358	-0.046	-0.084
-83.655	107.294	-0.172	-0.202
-82.640	46.455	0.288	-0.264
-81.626	163.286	-0.150	0.208
-80.611	-117.552	-0.196	-0.035
-79.597	-200.000	0.005	-0.058
-78.582	-12.553	0.261	-0.169
-77.567	-153.329	0.102	0.007
-76.553	58.728	0.247	0.240
-75.538	365.381	0.056	0.111
-74.524	-13.733	-0.226	0.144
-73.509	-67.734	0.254	-0.098
-72.494	-48.143	-0.366	0.175
-71.480	200.269	-0.153	-0.233
-70.465	-43.244	0.287	0.144
-69.451	121.575	-0.135	0.166
-68.436	176.519	-0.099	0.142
-67.422	-138.713	0.157	0.017
-66.407	32.683	-0.104	0.089
-65.392	800.000	0.026	0.079
-64.378	-200.000	0.003	0.253
-63.363	29.234	0.038	-0.032
-62.349	33.049	0.276	0.236
-61.334	82.004	-0.844	-0.904
-60.319	115.441	0.631	0.762
-59.305	800.000	-0.283	-1.102
-58.290	483.870	0.515	1.158
-57.276	257.099	0.838	1.423
-56.261	-200.000	95.566	583.799
-55.246	569.234	1373.362	3298.339
-54.232	154.193	2573.438	3487.733
-53.217	117.196	2159.847	2622.040
-52.203	47.446	1619.403	1490.867
-51.188	39.134	1356.931	1198.761
-50.173	35.828	1314.082	1141.291
-49.159	58.009	1363.566	1318.714
-48.144	62.529	1382.190	1363.916
-47.130	39.448	1335.846	1181.831
-46.115	35.760	1318.125	1144.218
-45.100	35.580	1313.146	1138.781
-44.086	35.412	1310.806	1135.714
-43.071	35.437	1308.404	1133.738
-42.057	35.429	1306.316	1131.831
-41.042	35.456	1304.560	1130.424
-40.027	35.456	1303.230	1129.227
-39.013	35.543	1300.908	1127.685
-37.998	35.555	1299.028	1126.079
-36.984	35.407	1297.953	1124.235
-35.969	35.583	1296.088	1123.604
-34.954	35.690	1294.033	1122.401
-33.940	35.688	1292.758	1121.244
-32.925	35.708	1291.357	1120.101
-31.911	35.744	1289.945	1119.040
-30.896	35.655	1288.607	1117.316
-29.881	35.669	1287.426	1116.330
-28.867	35.721	1285.766	1115.150
-27.852	35.781	1284.418	1114.282
-26.838	35.699	1283.176	1112.682
-25.823	35.685	1281.715	1111.293
-24.809	35.686	1280.405	1110.117
-23.794	35.684	1278.809	1108.680
-22.779	35.742	1277.890	1108.171
-21.765	35.653	1276.437	1106.354
-20.750	35.624	1275.195	1105.069
-19.736	35.641	1274.051	1104.134
-18.721	35.476	1273.125	1102.338
-17.706	35.538	1271.615	1101.344
-16.692	35.509	1270.496	1100.161
-15.677	35.475	1269.310	1098.897
-14.663	35.560	1268.017	1098.222
-13.648	35.526	1266.963	1097.070
-12.633	35.531	1265.997	1096.221
-11.619	35.502	1265.184	1095.309
-10.604	35.599	1264.158	1094.926
-9.590	35.559	1263.109	1093.748
-8.575	35.459	1262.390	1092.510
-7.560	35.507	1261.321	1091.815
-6.546	35.479	1260.813	1091.177
-5.531	35.545	1259.465	1090.340
-4.517	35.483	1258.759	1089.335
-3.502	35.543	1258.216	1089.163
-2.487	35.577	1256.936	1088.200
-1.473	35.541	1252.785	1084.360
-0.458	33.691	1237.385	1060.659
0.556	30.047	1218.274	1015.541
1.571	25.747	1221.500	994.453
2.586	24.509	1236.300	999.486
3.600	23.469	1225.527	984.917
4.615	17.389	1153.323	894.920
5.629	7.595	1076.131	786.656
6.644	3.130	1054.959	749.392
7.659	2.859	1052.278	746.104
8.673	2.644	1051.277	744.286
9.688	2.509	1049.551	742.347
10.702	2.933	1048.395	743.512
11.717	8.668	1056.687	777.242
12.731	18.810	1070.689	837.143
13.746	24.687	1078.317	871.784
14.761	26.200	1079.675	880.184
15.775	26.375	1079.581	880.885
16.790	25.983	1078.893	878.333
17.804	25.987	1078.101	877.630
18.819	26.179	1077.809	878.248
19.834	26.214	1077.384	877.995
20.848	26.392	1076.893	878.384
21.863	26.262	1076.368	877.248
22.877	26.100	1076.310	876.337
23.892	26.186	1074.905	875.529
24.907	26.149	1074.610	875.035
25.921	26.211	1073.252	874.150
26.936	26.346	1071.824	873.563
27.950	26.213	1070.363	871.651
28.965	25.975	1068.999	869.317
29.980	26.193	1066.912	868.590
30.994	26.358	1066.516	868.985
32.009	26.248	1065.200	867.307
33.023	26.128	1064.342	865.956
34.038	26.142	1063.366	865.154
35.053	26.302	1062.658	865.270
36.067	26.385	1061.523	864.666
37.082	26.445	1061.202	864.613
38.096	26.591	1060.392	864.575
39.111	26.701	1059.594	864.374
40.126	26.415	1058.527	862.064
41.140	26.075	1056.292	858.550
42.155	25.882	1054.769	856.319
43.169	25.952	1054.498	856.356
44.184	25.975	1053.378	855.475
45.199	25.808	1052.865	854.192
46.213	25.892	1052.126	853.916
47.228	25.951	1051.340	853.483
48.242	26.078	1050.575	853.385
49.257	26.215	1049.885	853.396
50.271	26.243	1049.014	852.745
51.286	26.328	1048.067	852.299
52.301	26.423	1047.234	851.998
53.315	26.262	1046.303	850.408
54.330	26.233	1045.074	849.194
55.344	26.216	1044.675	848.717
56.359	26.159	1044.024	847.847
57.374	26.094	1042.841	846.503
58.388	26.121	1042.215	846.049
59.403	25.831	1041.688	844.185
60.417	25.712	1040.312	842.440
61.432	25.902	1039.690	842.751
62.447	26.031	1039.158	842.845
63.461	25.930	1038.682	841.912
64.476	25.819	1037.420	840.298
65.490	25.896	1036.120	839.531
66.505	26.014	1035.882	839.812
67.520	25.930	1035.328	838.900
68.534	25.838	1034.004	837.326
69.549	25.530	1032.682	834.751
70.563	25.496	1032.581	834.436
71.578	25.462	1031.338	833.198
72.593	25.369	1030.217	831.790
73.607	25.407	1030.232	831.904
74.622	25.723	1029.740	832.896
75.636	25.850	1028.493	832.400
76.651	25.734	1027.441	830.942
77.666	25.526	1027.383	829.858
78.680	25.582	1026.542	829.368
79.695	25.738	1026.019	829.587
80.709	25.831	1024.999	829.120
81.724	25.750	1024.819	828.527
82.739	25.853	1023.679	828.004
83.753	26.260	1023.366	829.547
84.768	26.480	1022.766	830.000
85.782	26.628	1021.521	829.590
86.797	26.713	1020.366	828.968
87.812	26.373	1019.895	826.957
88.826	26.385	1019.360	826.505
89.841	26.500	1018.585	826.329
90.855	26.421	1017.523	825.033
91.870	26.395	1016.582	824.079
92.884	26.344	1015.074	822.554
93.899	26.324	1014.408	821.848
94.914	26.488	1013.402	821.707
95.928	26.362	1012.340	820.201
96.943	26.117	1011.285	818.162
97.957	25.944	1009.961	816.237
98.972	25.637	1009.004	814.004
99.987	25.977	1008.265	814.869
101.001	26.250	1007.351	815.294
102.016	26.239	1006.796	814.724
103.030	26.172	1005.773	813.520
104.045	25.946	1004.898	811.722
105.060	25.892	1003.857	810.568
106.074	25.924	1003.489	810.343
107.089	26.418	1002.953	812.057
108.103	26.108	1001.763	809.632
109.118	26.020	1000.546	808.183
110.133	25.967	999.743	807.225
111.147	25.780	998.309	805.159
112.162	25.651	997.426	803.800
113.176	25.878	997.138	804.509
114.191	25.836	996.228	803.515
115.206	25.572	994.780	801.103
116.220	25.475	993.857	799.856
117.235	25.656	993.580	800.367
118.249	25.749	992.013	799.447
119.264	25.541	991.831	798.308
120.279	25.654	991.043	798.105
121.293	25.630	990.556	797.535
122.308	25.697	989.633	797.015
123.322	25.521	988.445	795.209
124.337	25.406	987.524	793.892
125.352	25.114	985.378	790.808
126.366	24.707	985.179	788.783
127.381	25.578	984.791	792.240
128.395	26.236	984.416	794.768
129.410	26.187	983.443	793.696
130.424	26.118	982.508	792.568
131.439	26.121	981.725	791.879
132.454	26.011	980.926	790.684
133.468	26.051	979.904	789.965
134.483	26.214	979.071	789.935
135.497	26.349	978.546	790.030
136.512	26.420	977.795	789.666
137.527	26.438	976.796	788.865
138.541	26.511	976.059	788.521
139.556	26.605	974.911	787.934
140.570	26.403	974.221	786.425
141.585	26.446	973.240	785.752
142.600	26.405	972.643	785.024
143.614	26.746	971.700	785.670
144.629	26.658	971.325	784.917
145.643	26.488	970.025	783.061
146.658	26.431	968.589	781.585
147.673	26.412	967.374	780.455
148.687	26.138	966.585	778.568
149.702	26.229	965.328	777.878
150.716	26.137	964.485	776.732
151.731	26.288	963.973	776.900
152.746	26.478	963.783	777.497
153.760	26.601	963.096	777.402
154.775	26.563	962.147	776.402
155.789	26.700	961.320	776.257
156.804	26.487	960.381	774.518
157.819	26.558	959.706	774.205
158.833	26.738	959.366	774.636
159.848	26.737	958.044	773.494
160.862	26.628	956.915	772.048
161.877	26.651	956.016	771.354
162.892	26.701	954.796	770.512
163.906	26.446	953.969	768.695
164.921	26.503	953.041	768.119
165.935	26.509	952.411	767.569
166.950	26.608	951.765	767.403
167.964	26.557	950.070	765.751
168.979	26.373	949.389	764.357
169.994	26.505	948.149	763.846
171.008	26.623	947.862	764.049
172.023	26.638	946.800	763.186
173.037	26.470	945.690	761.516
174.052	26.260	944.771	759.826
175.067	26.220	944.370	759.270
176.081	26.348	943.893	759.354
177.096	26.329	943.316	758.745
178.110	26.049	942.232	756.631
179.125	25.917	941.359	755.312
180.140	25.894	941.193	755.016
181.154	26.036	940.948	755.344
182.169	26.341	940.949	756.558
183.183	26.617	940.382	757.188
184.198	26.597	939.412	756.254
185.213	26.480	938.628	755.071
186.227	26.623	937.816	754.945
187.242	26.613	937.533	754.611
188.256	26.729	936.629	754.297
189.271	26.620	936.142	753.386
190.286	26.318	934.741	750.937
191.300	25.672	933.269	747.006
192.315	24.943	931.556	742.548
193.329	24.854	931.487	742.058
194.344	25.808	932.005	746.362
195.359	26.354	931.961	748.522
196.373	26.417	931.432	748.291
197.388	26.424	930.647	747.622
198.402	26.472	930.213	747.408
199.417	26.556	929.735	747.303
200.432	26.385	928.250	745.337
201.446	26.121	927.804	743.828
202.461	26.097	927.579	743.481
203.475	25.264	925.644	738.439
204.490	24.530	923.975	734.025
205.504	25.387	924.772	738.118
206.519	26.030	924.587	740.547
207.534	26.084	924.119	740.328
208.548	26.542	923.874	741.944
209.563	26.329	922.976	740.284
210.577	26.111	922.519	738.958
211.592	26.600	922.392	740.792
212.607	26.633	921.017	739.760
213.621	26.589	920.571	739.156
214.636	26.615	920.143	738.851
215.650	26.668	918.857	737.970
216.665	26.643	918.775	737.736
217.680	26.707	917.693	737.065
218.694	26.393	916.481	734.750
219.709	26.054	916.318	733.176
220.723	26.342	915.762	733.836
221.738	26.379	915.310	733.557
222.753	26.303	914.912	732.867
223.767	26.441	914.327	732.893
224.782	26.662	913.728	733.240
225.796	26.782	913.198	733.238
226.811	26.117	911.602	729.206
227.826	25.393	910.871	725.631
228.840	25.637	910.260	726.067
229.855	25.682	909.484	725.565
230.869	25.285	907.854	722.602
231.884	25.643	908.653	724.614
232.899	26.456	908.467	727.674
233.913	26.446	907.892	727.110
234.928	26.370	907.111	726.118
235.942	26.214	906.732	725.122
236.957	26.030	905.752	723.534
237.972	26.049	905.082	723.012
238.986	26.125	904.468	722.764
240.001	26.013	904.359	722.162
241.015	26.200	903.341	722.035
242.030	26.349	903.409	722.622
243.045	26.273	902.829	721.790
244.059	26.542	902.149	722.256
245.074	26.378	901.182	720.764
246.088	26.088	900.446	718.956
247.103	26.375	899.996	719.674
248.117	26.975	900.110	722.091
249.132	27.160	899.556	722.316
250.147	27.202	899.334	722.240
251.161	27.411	898.838	722.610
252.176	27.247	897.948	721.179
253.190	27.310	897.866	721.299
254.205	27.537	897.378	721.744
255.220	27.479	896.372	720.642
256.234	27.357	895.881	719.699
257.249	27.248	895.097	718.574
258.263	27.349	894.093	718.104
259.278	27.344	893.732	717.730
260.293	27.475	893.021	717.612
261.307	27.334	892.286	716.404
262.322	27.184	891.449	715.079
263.336	26.250	890.059	710.230
264.351	25.234	888.038	704.569
265.366	25.456	887.534	704.977
266.380	26.621	888.179	709.998
267.395	27.028	887.781	711.210
268.409	26.974	886.909	710.238
269.424	27.229	886.314	710.694
270.439	27.230	885.859	710.270
271.453	27.204	885.707	709.984
272.468	27.361	885.307	710.215
273.482	27.305	885.070	709.741
274.497	27.039	883.525	707.404
275.512	26.618	882.880	705.187
276.526	27.094	882.868	706.967
277.541	27.258	882.611	707.337
278.555	27.037	881.662	705.657
279.570	26.975	880.742	704.615
280.585	27.044	880.507	704.632
281.599	27.048	879.380	703.683
282.614	26.339	878.074	699.831
283.628	26.438	877.452	699.660
284.643	26.624	877.714	700.527
285.657	26.340	876.695	698.552
286.672	26.120	875.665	696.819
287.687	26.642	875.806	698.886
288.701	26.844	874.984	698.948
289.716	26.423	874.249	696.675
290.730	26.390	873.621	695.986
291.745	25.947	872.928	693.669
292.760	26.634	872.337	695.778
293.774	27.540	873.175	699.866
294.789	27.767	872.549	700.175
295.803	27.740	872.148	699.689
296.818	27.821	871.385	699.322
297.833	27.300	870.395	696.474
298.847	27.146	869.497	695.104
299.862	27.418	869.369	695.981
300.876	27.637	869.359	696.748
301.891	27.425	868.786	695.417
302.906	27.251	867.588	693.733
303.920	27.359	867.171	693.751
304.935	27.782	866.957	695.130
305.949	27.705	866.317	694.261
306.964	27.348	865.679	692.329
307.979	27.297	865.564	691.984
308.993	27.793	865.148	693.474
310.008	27.797	864.338	692.778
311.022	27.478	863.747	691.035
312.037	27.409	862.890	690.027
313.052	27.140	862.265	688.446
314.066	26.153	860.199	683.006
315.081	25.855	859.949	681.619
316.095	26.772	860.213	685.236
317.110	27.229	859.694	686.487
318.125	26.315	858.093	681.702
319.139	25.305	856.789	676.801
320.154	25.493	856.504	677.223
321.168	26.298	856.863	680.479
322.183	27.033	857.294	683.531
323.197	27.160	856.775	683.531
324.212	27.332	856.408	683.826
325.227	27.334	856.142	683.560
326.241	27.291	855.049	682.466
327.256	27.209	854.247	681.459
328.270	27.162	853.569	680.681
329.285	26.818	853.044	678.916
330.300	26.764	852.215	677.993
331.314	27.034	851.707	678.537
332.329	27.424	852.112	680.259
333.343	27.571	851.790	680.490
334.358	27.504	851.345	679.824
335.373	27.419	850.904	679.095
336.387	27.862	850.692	680.517
337.402	27.985	850.410	680.689
338.416	27.987	849.884	680.214
339.431	27.978	850.042	680.249
340.446	28.223	849.751	680.865
341.460	28.127	849.018	679.860
342.475	27.804	848.738	678.376
343.489	27.974	848.202	678.519
344.504	28.300	847.738	679.298
345.519	28.291	847.944	679.371
346.533	28.391	846.982	678.907
347.548	28.216	846.872	678.114
348.562	28.349	845.731	677.631
349.577	28.219	845.447	676.864
350.592	28.310	844.551	676.421
351.606	28.389	843.844	676.089
352.621	28.224	842.579	674.408
353.635	28.088	842.313	673.632
354.650	27.409	840.874	669.925
355.665	26.436	839.707	665.359
356.679	26.843	839.060	666.283
357.694	27.214	838.819	667.394
358.708	27.329	837.951	667.065
359.723	27.709	838.103	668.522
360.738	27.979	837.491	668.964
361.752	28.063	837.473	669.196
362.767	28.377	837.057	669.953
363.781	28.669	836.388	670.423
364.796	28.591	836.465	670.142
365.810	28.807	835.763	670.309
366.825	28.794	835.420	669.925
367.840	28.299	835.041	667.759
368.854	27.980	833.841	665.578
369.869	28.146	833.204	665.614
370.883	28.104	832.750	665.040
371.898	27.905	832.336	663.927
372.913	28.070	832.176	664.343
373.927	28.209	832.077	664.709
374.942	28.313	831.349	664.447
375.956	28.318	831.305	664.370
376.971	28.535	830.805	664.698
377.986	28.678	830.339	664.785
379.000	28.658	829.513	663.992
380.015	28.502	828.760	662.765
381.029	28.426	828.344	662.101
382.044	28.711	827.899	662.715
383.059	28.678	827.646	662.335
384.073	28.776	826.944	662.067
385.088	28.649	826.438	661.147
386.102	28.360	825.556	659.342
387.117	28.406	824.633	658.712
388.132	27.944	823.471	656.068
389.146	27.511	822.593	653.755
390.161	27.932	822.703	655.298
391.175	28.377	822.514	656.684
392.190	28.028	821.338	654.437
393.205	26.584	819.722	647.929
394.219	25.131	817.698	641.079
395.234	25.091	817.694	640.878
396.248	26.835	818.712	647.855
397.263	28.247	819.521	653.481
398.278	28.167	819.402	653.045
399.292	27.869	818.734	651.392
400.307	27.804	818.249	650.715
401.321	28.069	817.895	651.319
402.336	28.483	817.594	652.497
403.350	28.924	817.439	653.885
404.365	29.092	817.177	654.214
405.380	29.514	816.962	655.482
406.394	29.627	816.680	655.599
407.409	29.271	816.377	654.034
408.423	29.300	816.110	653.865
409.438	29.474	815.281	653.761
410.453	29.379	815.191	653.296
411.467	29.372	814.577	652.720
412.482	29.329	814.269	652.262
413.496	29.543	813.478	652.327
414.511	29.294	813.386	651.317
415.526	29.585	812.736	651.765
416.540	29.314	812.287	650.391
417.555	29.000	811.550	648.639
418.569	29.128	810.895	648.507
419.584	28.999	810.518	647.696
420.599	28.777	810.359	646.729
421.613	107.771	1283.034	1439.668
422.628	93.114	1351.924	1439.784
