DTS Sentinel unit serial number:	SN413079Multiplexer serial number:	ORYXHardware model number:	OX4-SRSoftware version number:	ORYX F/W v4.00 Oryx Data Collector v3.7.2.0data status	okinstallation	princeton_trtdifferential loss correction	single-endedforward channel	channel 1reverse channel	N/Adate	2019/09/10time	20:04:11forward acquisition time	60.00reverse acquisition time	0.00gamma	496.2192k internal	0.2324k external	0.2324temperature offset calibration	0.9931default loss term (dB/km)	0.3790temperature slope calibration	1.0000multiplexer offset coefficient	1.0000multiplexer slope coefficient	1.0000fibre end	0.00T internal ref (°C)	32.56T ext. ref 1 (°C)	-0.31T ext. ref 2 (°C)	25.58length (m)	temperature (°C)	Stokes	anti-Stokes-747.200	34.841	0.096	0.085
-746.185	188.003	-0.205	0.309
-745.171	362.473	0.075	0.151
-744.156	-65.790	-0.212	0.086
-743.142	101.521	-0.154	0.181
-742.127	-88.001	-0.131	0.040
-741.112	0.595	-0.177	0.127
-740.098	800.000	-0.115	0.455
-739.083	-43.262	-0.317	-0.162
-738.069	-60.220	-0.196	-0.084
-737.054	-200.000	0.003	0.295
-736.039	-148.968	-0.435	-0.035
-735.025	60.557	0.172	0.172
-734.010	489.140	0.147	-0.339
-732.996	-87.989	-0.181	-0.055
-731.981	-200.000	-0.008	-0.384
-730.966	-27.918	0.129	-0.076
-729.952	182.958	-0.077	0.114
-728.937	113.949	0.315	-0.386
-727.923	-200.000	-0.021	-0.453
-726.908	737.575	0.010	-0.026
-725.894	-128.500	0.359	0.051
-724.879	-181.007	-0.261	-0.005
-723.864	-200.000	0.096	-0.436
-722.850	-101.462	-0.044	0.011
-721.835	800.000	-0.049	-0.177
-720.821	-200.000	0.050	-0.264
-719.806	87.734	-0.137	0.153
-718.791	-200.000	-0.004	-0.106
-717.777	-200.000	0.000	0.142
-716.762	800.000	0.050	-0.170
-715.748	-36.384	-0.335	-0.182
-714.733	-94.327	0.431	-0.119
-713.718	-200.000	0.006	-0.094
-712.704	153.005	-0.053	-0.073
-711.689	47.506	-0.144	-0.135
-710.675	338.593	-0.051	-0.101
-709.660	-93.351	0.064	-0.018
-708.645	-67.772	0.083	-0.033
-707.631	-128.958	-0.193	-0.027
-706.616	-200.000	0.001	0.013
-705.602	176.434	0.232	-0.340
-704.587	174.731	0.124	0.180
-703.572	136.373	0.218	-0.286
-702.558	35.470	-0.232	0.205
-701.543	800.000	-0.045	0.192
-700.529	-123.458	-0.364	-0.058
-699.514	194.692	0.088	0.135
-698.499	-91.150	-0.199	0.057
-697.485	72.756	0.209	0.219
-696.470	190.931	0.221	0.335
-695.456	-93.735	-0.291	0.081
-694.441	23.467	0.137	-0.114
-693.426	200.579	0.119	0.185
-692.412	60.006	0.172	-0.171
-691.397	-200.000	0.046	0.212
-690.383	-200.000	0.002	0.123
-689.368	-114.789	-0.172	-0.033
-688.354	48.802	-0.116	-0.110
-687.339	211.614	-0.070	0.111
-686.324	15.003	0.138	-0.109
-685.310	-68.116	0.197	-0.077
-684.295	96.984	0.111	-0.128
-683.281	-72.630	0.106	-0.040
-682.266	-200.000	0.002	-0.040
-681.251	-144.013	-0.244	-0.023
-680.237	147.871	-0.121	-0.164
-679.222	140.515	-0.181	-0.241
-678.208	-88.375	-0.291	-0.088
-677.193	96.606	0.107	0.124
-676.178	-164.859	0.100	0.005
-675.164	-101.797	-0.289	-0.071
-674.149	-1.210	-0.257	-0.183
-673.135	-50.663	0.017	0.008
-672.120	-200.000	-0.028	-0.174
-671.105	-77.031	-0.252	0.089
-670.091	-200.000	0.037	0.302
-669.076	800.000	0.038	0.115
-668.062	-200.000	0.028	0.174
-667.047	-171.301	-0.441	-0.015
-666.032	-63.020	0.164	0.068
-665.018	-200.000	0.028	0.505
-664.003	800.000	0.058	-0.163
-662.989	-48.109	-0.098	0.048
-661.974	-144.968	0.219	0.020
-660.959	-200.000	0.028	0.190
-659.945	-107.539	0.134	0.030
-658.930	-70.737	-0.158	0.060
-657.916	-4.277	0.321	0.223
-656.901	-19.584	0.062	-0.039
-655.886	-10.198	0.311	-0.207
-654.872	100.379	-0.086	-0.101
-653.857	349.921	-0.058	-0.115
-652.843	-181.418	-0.366	0.007
-651.828	61.626	0.081	-0.081
-650.814	4.388	-0.142	-0.105
-649.799	-74.814	0.060	-0.022
-648.784	-43.441	-0.069	0.035
-647.770	-120.812	0.171	0.029
-646.755	108.934	-0.202	-0.243
-645.741	-129.811	-0.110	0.015
-644.726	-11.146	0.200	0.133
-643.711	305.347	0.067	-0.126
-642.697	312.171	-0.055	0.104
-641.682	124.671	-0.278	-0.352
-640.668	-200.000	0.047	-0.400
-639.653	37.810	-0.069	0.061
-638.638	-157.261	0.455	0.028
-637.624	-103.728	-0.100	-0.024
-636.609	-121.841	0.121	0.020
-635.595	351.304	-0.110	-0.219
-634.580	800.000	-0.054	-0.228
-633.565	96.089	0.158	-0.182
-632.551	-75.177	0.413	0.148
-631.536	506.383	0.111	-0.258
-630.522	-52.389	0.220	-0.102
-629.507	-37.416	-0.115	-0.062
-628.492	-127.697	0.218	-0.032
-627.478	-46.262	-0.070	-0.035
-626.463	-59.395	0.231	0.100
-625.449	261.461	0.058	-0.101
-624.434	-200.000	-0.041	-0.242
-623.419	-200.000	-0.002	-0.077
-622.405	-128.267	-0.141	-0.020
-621.390	800.000	-0.036	0.137
-620.376	800.000	0.135	-0.451
-619.361	-200.000	-0.084	-0.468
-618.346	66.345	0.053	-0.054
-617.332	-132.098	-0.280	0.037
-616.317	-192.130	0.206	-0.002
-615.303	-200.000	0.008	0.180
-614.288	-200.000	0.012	0.095
-613.273	-54.627	0.115	-0.052
-612.259	-157.044	-0.558	0.034
-611.244	-200.000	-0.022	0.114
-610.230	-70.338	-0.191	-0.073
-609.215	-108.506	0.293	-0.063
-608.201	160.950	-0.155	-0.217
-607.186	-120.259	0.152	-0.026
-606.171	24.743	-0.155	0.129
-605.157	162.393	0.042	-0.059
-604.142	-34.492	-0.206	-0.114
-603.128	-152.183	-0.337	0.025
-602.113	-200.000	-0.012	-0.074
-601.098	800.000	-0.065	0.241
-600.084	-163.840	-0.481	-0.023
-599.069	-200.000	-0.030	0.267
-598.055	-62.766	-0.301	0.125
-597.040	-105.109	0.151	-0.035
-596.025	-99.779	0.338	-0.085
-595.011	-119.158	-0.213	-0.037
-593.996	137.501	0.243	-0.319
-592.982	272.210	0.012	0.021
-591.967	800.000	0.068	-0.208
-590.952	-126.801	0.390	-0.058
-589.938	-109.516	-0.346	0.073
-588.923	800.000	-0.097	0.285
-587.909	333.105	0.034	-0.065
-586.894	-136.447	0.407	0.047
-585.879	800.000	0.003	-0.009
-584.865	220.295	-0.052	0.083
-583.850	34.569	0.206	-0.180
-582.836	30.021	-0.176	0.150
-581.821	-140.386	0.151	0.016
-580.806	-200.000	0.036	0.398
-579.792	29.952	0.065	-0.056
-578.777	-65.127	0.184	0.074
-577.763	-110.346	0.376	-0.078
-576.748	-200.000	0.091	0.000
-575.733	-200.000	-0.025	-0.122
-574.719	-200.000	-0.044	-0.299
-573.704	516.051	0.157	-0.368
-572.690	103.783	-0.119	0.140
-571.675	-26.093	-0.150	0.088
-570.661	649.048	0.052	0.132
-569.646	-200.000	-0.025	-0.199
-568.631	236.602	-0.098	0.163
-567.617	582.887	-0.072	0.177
-566.602	-165.526	-0.114	-0.005
-565.588	-109.600	0.122	-0.026
-564.573	-106.250	-0.229	0.052
-563.558	-96.029	0.298	0.079
-562.544	169.066	0.169	-0.242
-561.529	800.000	-0.061	-0.240
-560.515	79.007	-0.180	0.193
-559.500	-115.339	0.281	-0.053
-558.485	4.632	0.052	-0.038
-557.471	7.486	0.333	0.249
-556.456	-76.019	-0.143	0.051
-555.442	-9.423	-0.243	-0.163
-554.427	294.681	0.225	-0.412
-553.412	-200.000	0.063	0.333
-552.398	79.573	0.046	0.049
-551.383	208.854	-0.056	-0.088
-550.369	606.450	0.059	-0.146
-549.354	56.392	0.178	-0.174
-548.339	-181.182	-0.251	-0.005
-547.325	800.000	0.042	-0.170
-546.310	86.746	0.171	-0.189
-545.296	364.399	0.091	-0.183
-544.281	-74.534	0.297	0.107
-543.266	7.186	-0.069	0.051
-542.252	259.749	-0.158	0.273
-541.237	-93.261	-0.029	0.008
-540.223	300.016	-0.170	-0.314
-539.208	-113.324	0.191	-0.038
-538.193	-120.766	-0.558	-0.094
-537.179	88.781	0.047	-0.053
-536.164	56.268	0.156	0.151
-535.150	-4.969	0.140	0.097
-534.135	-27.890	-0.194	-0.113
-533.121	-14.767	0.073	-0.047
-532.106	-61.552	-0.144	-0.060
-531.091	-103.705	-0.195	-0.046
-530.077	800.000	0.074	0.252
-529.062	-200.000	-0.020	0.292
-528.048	-121.041	-0.297	0.050
-527.033	800.000	0.030	0.102
-526.018	800.000	-0.067	-0.224
-525.004	28.657	-0.089	-0.075
-523.989	-200.000	0.012	-0.062
-522.975	-35.130	-0.194	-0.106
-521.960	-14.958	-0.379	-0.243
-520.945	-141.562	-0.277	-0.028
-519.931	-118.987	0.307	0.054
-518.916	-200.000	0.055	-0.241
-517.902	628.667	-0.150	-0.379
-516.887	7.743	0.125	0.094
-515.872	-200.000	0.022	0.230
-514.858	214.790	0.126	0.200
-513.843	-80.760	-0.330	0.110
-512.829	-64.896	0.209	-0.085
-511.814	-79.275	-0.232	0.079
-510.799	134.329	-0.060	0.078
-509.785	-49.718	-0.050	-0.024
-508.770	13.243	-0.102	-0.079
-507.756	-200.000	0.009	0.244
-506.741	72.360	0.128	-0.133
-505.726	-132.162	0.238	0.031
-504.712	78.604	-0.240	-0.257
-503.697	-200.000	0.040	-0.297
-502.683	-37.989	-0.221	0.117
-501.668	800.000	-0.094	0.290
-500.653	-200.000	0.043	0.294
-499.639	191.957	-0.181	0.273
-498.624	-200.000	0.036	0.278
-497.610	319.053	0.038	-0.071
-496.595	-200.000	0.030	0.151
-495.581	373.144	-0.065	-0.131
-494.566	-200.000	-0.046	-0.267
-493.551	-30.973	0.242	-0.137
-492.537	-43.835	0.334	-0.168
-491.522	316.472	0.081	-0.153
-490.508	-171.141	0.218	0.007
-489.493	333.212	0.082	0.159
-488.478	-163.524	-0.089	-0.004
-487.464	148.006	0.046	0.062
-486.449	-44.845	-0.141	0.070
-485.435	-200.000	0.018	-0.115
-484.420	738.926	-0.045	0.121
-483.405	-170.226	0.305	-0.011
-482.391	-157.901	0.262	-0.015
-481.376	-200.000	0.071	0.321
-480.362	-24.835	0.196	0.117
-479.347	-133.208	-0.244	0.031
-478.332	-143.776	0.188	0.018
-477.318	-200.000	0.017	-0.208
-476.303	46.704	-0.204	-0.189
-475.289	371.288	0.115	-0.233
-474.274	-82.000	-0.167	-0.055
-473.259	325.003	-0.047	-0.090
-472.245	-158.224	0.314	-0.018
-471.230	-106.054	0.499	-0.112
-470.216	30.626	-0.178	-0.152
-469.201	-200.000	-0.013	-0.074
-468.186	-136.403	0.195	0.023
-467.172	48.134	-0.115	0.107
-466.157	-118.016	0.368	-0.066
-465.143	77.535	0.157	0.167
-464.128	170.724	0.192	0.275
-463.113	174.214	-0.134	0.193
-462.099	-200.000	0.017	0.372
-461.084	800.000	-0.034	0.149
-460.070	124.108	-0.410	0.514
-459.055	-200.000	0.010	0.123
-458.040	-21.177	-0.056	-0.034
-457.026	41.980	0.329	-0.298
-456.011	800.000	-0.046	-0.131
-454.997	17.279	-0.079	0.062
-453.982	167.798	-0.219	0.311
-452.968	6.429	-0.041	-0.031
-451.953	-200.000	-0.068	0.486
-450.938	800.000	-0.041	-0.136
-449.924	-123.984	0.389	-0.061
-448.909	-200.000	0.037	0.372
-447.895	-154.950	0.166	-0.011
-446.880	-200.000	0.001	0.039
-445.865	800.000	0.019	-0.072
-444.851	171.747	-0.115	0.165
-443.836	800.000	-0.066	-0.183
-442.822	-200.000	0.012	0.071
-441.807	-200.000	0.008	0.299
-440.792	-48.692	-0.303	-0.145
-439.778	-132.771	-0.458	0.058
-438.763	26.083	-0.076	-0.063
-437.749	4.502	0.153	-0.112
-436.734	-200.000	-0.042	-0.251
-435.719	250.880	-0.089	0.150
-434.705	-46.035	-0.244	0.120
-433.690	181.065	-0.210	0.307
-432.676	-200.000	-0.000	-0.175
-431.661	-200.000	0.010	-0.054
-430.646	-95.798	0.255	-0.068
-429.632	-197.326	-0.133	0.001
-428.617	-123.536	-0.125	0.020
-427.603	387.180	0.058	0.119
-426.588	526.363	-0.061	-0.144
-425.573	-15.094	0.281	-0.179
-424.559	-28.632	0.259	-0.149
-423.544	-91.863	-0.355	0.100
-422.530	800.000	-0.040	0.121
-421.515	-158.845	-0.187	0.011
-420.500	102.614	0.219	-0.255
-419.486	800.000	0.038	0.126
-418.471	2.022	-0.064	-0.046
-417.457	-23.480	-0.130	0.078
-416.442	348.450	0.088	-0.173
-415.428	-200.000	0.060	-0.269
-414.413	111.462	0.299	-0.360
-413.398	691.645	0.033	0.087
-412.384	-64.779	-0.219	0.088
-411.369	22.846	-0.082	-0.067
-410.355	-48.058	0.148	-0.071
-409.340	556.712	-0.057	-0.137
-408.325	-118.688	-0.344	0.060
-407.311	416.156	-0.029	-0.062
-406.296	-200.000	0.002	0.091
-405.282	-200.000	0.014	-0.340
-404.267	-130.670	-0.162	0.022
-403.252	41.056	0.124	-0.111
-402.238	-104.146	0.207	-0.048
-401.223	82.548	-0.114	-0.123
-400.209	-200.000	-0.044	0.262
-399.194	-14.354	0.145	0.093
-398.179	-64.191	0.270	-0.109
-397.165	-7.232	-0.192	-0.129
-396.150	55.297	0.310	-0.299
-395.136	-79.540	0.222	-0.075
-394.121	8.045	-0.060	0.045
-393.106	-76.775	-0.131	-0.046
-392.092	-194.959	0.027	0.000
-391.077	-94.130	-0.090	-0.025
-390.063	800.000	-0.147	0.405
-389.048	-200.000	0.011	-0.100
-388.033	-94.354	-0.186	-0.051
-387.019	41.304	-0.155	-0.140
-386.004	-200.000	0.037	0.318
-384.990	-18.380	0.028	-0.017
-383.975	-33.904	0.264	0.145
-382.960	388.776	-0.034	0.071
-381.946	-57.649	0.118	0.051
-380.931	-70.049	-0.272	0.103
-379.917	580.663	-0.104	-0.253
-378.902	89.767	0.098	-0.109
-377.888	-61.984	0.300	0.125
-376.873	5.874	0.419	0.308
-375.858	-16.700	-0.166	-0.105
-374.844	800.000	-0.075	-0.298
-373.829	105.705	-0.311	-0.366
-372.815	48.802	0.088	-0.082
-371.800	-200.000	0.019	-0.238
-370.785	800.000	-0.061	0.228
-369.771	-97.526	0.055	0.014
-368.756	-200.000	0.029	0.000
-367.742	111.154	0.137	-0.165
-366.727	-132.933	0.105	-0.013
-365.712	-200.000	0.027	-0.129
-364.698	317.987	-0.063	-0.119
-363.683	-45.742	0.139	-0.068
-362.669	138.323	0.211	-0.275
-361.654	279.262	-0.120	0.214
-360.639	76.915	-0.151	0.160
-359.625	-102.998	-0.241	0.057
-358.610	41.942	0.262	0.237
-357.596	-115.787	0.187	-0.035
-356.581	-2.331	0.191	-0.133
-355.566	-164.748	0.157	0.007
-354.552	54.527	-0.089	0.085
-353.537	494.476	0.041	-0.093
-352.523	-128.005	0.258	0.037
-351.508	477.296	0.171	0.385
-350.493	115.431	0.192	-0.233
-349.479	-108.218	-0.430	-0.092
-348.464	-200.000	0.038	0.267
-347.450	800.000	-0.039	0.162
-346.435	-92.754	-0.191	-0.053
-345.420	-67.835	0.375	-0.146
-344.406	168.441	0.187	0.265
-343.391	-108.313	0.365	0.078
-342.377	-200.000	0.019	-0.126
-341.362	56.413	0.163	-0.157
-340.348	58.633	-0.197	-0.192
-339.333	174.443	0.133	-0.192
-338.318	-114.111	-0.207	0.040
-337.304	-75.053	-0.132	-0.047
-336.289	19.342	-0.292	0.233
-335.275	-200.000	0.001	-0.066
-334.260	19.173	-0.105	-0.084
-333.245	330.001	-0.099	0.190
-332.231	374.758	0.156	0.316
-331.216	-35.624	0.396	0.213
-330.202	-80.379	0.329	0.109
-329.187	-140.131	-0.305	-0.032
-328.172	-130.190	0.105	-0.014
-327.158	-108.814	-0.151	-0.032
-326.143	-51.621	0.263	0.122
-325.129	-63.623	0.176	-0.072
-324.114	-200.000	-0.020	-0.148
-323.099	800.000	0.025	0.095
-322.085	36.431	-0.517	0.453
-321.070	215.741	0.171	0.270
-320.056	-39.018	-0.164	0.086
-319.041	243.713	0.138	-0.229
-318.026	-148.838	-0.268	-0.022
-317.012	-200.000	0.051	0.344
-315.997	224.331	0.174	-0.279
-314.983	637.289	-0.049	-0.124
-313.968	800.000	0.051	0.192
-312.953	-97.442	-0.264	-0.068
-311.939	-200.000	0.062	-0.298
-310.924	563.805	-0.094	0.227
-309.910	-4.287	0.039	-0.027
-308.895	-200.000	-0.024	-0.266
-307.880	-124.613	0.220	0.034
-306.866	535.470	-0.060	-0.140
-305.851	-200.000	-0.001	-0.108
-304.837	716.867	-0.094	-0.248
-303.822	-28.632	0.317	-0.181
-302.807	-17.744	0.246	-0.153
-301.793	-16.427	-0.109	-0.068
-300.778	100.772	0.223	-0.257
-299.764	-143.795	-0.401	-0.038
-298.749	-109.880	0.246	0.051
-297.735	640.402	0.072	0.181
-296.720	-40.271	-0.111	0.057
-295.705	-41.008	0.235	-0.121
-294.691	-200.000	-0.057	-0.366
-293.676	-4.096	-0.252	0.173
-292.662	-56.418	-0.119	0.052
-291.647	11.444	-0.105	-0.080
-290.632	-200.000	-0.052	0.307
-289.618	-75.902	-0.224	-0.079
-288.603	41.970	-0.141	0.127
-287.589	-8.540	0.226	-0.150
-286.574	-79.704	-0.071	-0.024
-285.559	6.554	-0.048	-0.036
-284.545	-50.084	-0.131	-0.061
-283.530	-100.362	0.368	-0.091
-282.516	-108.243	-0.117	0.025
-281.501	-40.389	0.371	-0.191
-280.486	22.674	0.094	-0.076
-279.472	396.987	0.084	0.175
-278.457	735.500	-0.078	0.207
-277.443	-200.000	-0.019	0.159
-276.428	-14.781	0.341	0.217
-275.413	800.000	0.030	-0.103
-274.399	-200.000	-0.006	0.130
-273.384	-49.156	-0.192	-0.091
-272.370	-13.369	-0.241	0.155
-271.355	-95.521	0.152	-0.040
-270.340	-71.689	0.209	0.077
-269.326	595.691	0.048	-0.118
-268.311	-34.972	-0.159	-0.086
-267.297	30.416	-0.061	0.052
-266.282	-200.000	-0.029	0.210
-265.267	300.714	-0.070	-0.128
-264.253	90.443	-0.213	-0.236
-263.238	86.938	-0.196	0.214
-262.224	-25.061	0.358	-0.210
-261.209	800.000	-0.027	0.105
-260.195	-169.789	-0.223	-0.008
-259.180	88.883	-0.023	0.025
-258.165	-42.406	-0.302	0.152
-257.151	-140.512	0.092	0.009
-256.136	-200.000	-0.015	0.152
-255.122	42.742	0.355	-0.320
-254.107	-42.518	-0.154	-0.078
-253.092	-87.177	0.347	-0.104
-252.078	-47.666	0.077	0.037
-251.063	695.835	0.113	0.294
-250.049	-37.669	0.296	-0.156
-249.034	151.708	0.090	0.121
-248.019	2.182	-0.115	0.083
-247.005	-102.980	-0.206	0.048
-245.990	-115.720	0.208	-0.039
-244.976	-89.764	-0.230	0.067
-243.961	21.092	0.072	-0.058
-242.946	-3.979	0.209	-0.143
-241.932	-73.535	-0.283	-0.102
-240.917	-121.069	0.227	0.038
-239.903	-136.475	-0.108	-0.012
-238.888	21.097	-0.292	-0.234
-237.873	140.551	-0.113	-0.148
-236.859	-85.699	-0.089	0.027
-235.844	223.912	-0.100	-0.159
-234.830	800.000	0.076	0.250
-233.815	-155.923	-0.076	0.005
-232.800	117.627	-0.209	0.254
-231.786	-73.539	0.149	-0.054
-230.771	-200.000	-0.353	-0.001
-229.757	-132.968	-0.295	0.037
-228.742	76.383	-0.318	0.333
-227.727	577.551	0.056	0.135
-226.713	228.282	0.095	-0.152
-225.698	800.000	0.107	-0.298
-224.684	-200.000	-0.022	0.369
-223.669	722.443	-0.150	0.395
-222.655	-43.428	-0.124	0.062
-221.640	-200.000	0.013	-0.114
-220.625	-53.101	-0.293	-0.133
-219.611	-200.000	0.037	-0.311
-218.596	65.592	-0.223	0.223
-217.582	21.166	0.060	0.048
-216.567	55.023	0.094	0.090
-215.552	-200.000	0.073	0.365
-214.538	-78.131	-0.139	0.047
-213.523	53.010	0.117	-0.111
-212.509	-200.000	0.032	0.178
-211.494	125.577	0.087	0.109
-210.479	51.173	0.061	-0.058
-209.465	711.293	-0.043	0.113
-208.450	-200.000	-0.010	-0.081
-207.436	-39.514	0.182	0.094
-206.421	65.555	-0.138	-0.138
-205.406	-58.091	-0.053	-0.023
-204.392	-170.176	-0.040	-0.001
-203.377	52.096	-0.293	0.276
-202.363	-129.771	-0.109	0.015
-201.348	285.113	0.066	0.118
-200.333	-39.556	0.139	-0.072
-199.319	-200.000	0.002	0.279
-198.304	156.028	-0.071	-0.097
-197.290	-123.986	0.167	0.026
-196.275	116.519	-0.257	-0.312
-195.260	-16.276	-0.104	0.065
-194.246	-91.477	-0.344	-0.097
-193.231	-38.729	0.165	-0.086
-192.217	-200.000	0.003	0.064
-191.202	-10.476	0.223	-0.146
-190.187	318.515	-0.063	-0.119
-189.173	800.000	-0.044	-0.178
-188.158	-200.000	0.005	-0.094
-187.144	111.826	-0.131	0.156
-186.129	125.183	0.096	0.120
-185.114	363.315	-0.113	0.225
-184.100	-50.854	-0.420	-0.195
-183.085	5.204	0.181	-0.131
-182.071	-162.135	0.313	-0.015
-181.056	267.173	-0.062	-0.108
-180.042	-200.000	0.007	0.124
-179.027	-53.323	0.152	-0.069
-178.012	-148.573	0.253	-0.020
-176.998	-129.804	-0.083	0.011
-175.983	326.902	-0.169	0.319
-174.969	200.254	-0.073	-0.110
-173.954	85.557	-0.212	-0.230
-172.939	119.453	-0.057	-0.070
-171.925	138.060	0.128	-0.165
-170.910	-168.794	-0.041	0.002
-169.896	111.233	-0.135	-0.160
-168.881	800.000	-0.104	0.298
-167.866	272.352	0.195	0.339
-166.852	90.852	0.204	0.226
-165.837	-200.000	-0.084	0.367
-164.823	-92.785	-0.223	0.062
-163.808	190.605	0.203	0.301
-162.793	-200.000	-0.024	0.191
-161.779	-128.226	-0.141	0.020
-160.764	-0.346	-0.155	0.108
-159.750	221.920	0.089	0.141
-158.735	-79.333	-0.165	0.055
-157.720	637.303	-0.150	0.375
-156.706	-37.858	0.374	0.196
-155.691	-67.968	-0.258	0.099
-154.677	-69.093	0.200	0.076
-153.662	-99.628	-0.354	-0.088
-152.647	-79.731	0.177	0.059
-151.633	267.921	-0.131	0.226
-150.618	800.000	0.064	-0.237
-149.604	-51.763	0.310	0.142
-148.589	-149.663	0.264	0.021
-147.574	50.023	0.025	-0.023
-146.560	131.407	-0.332	0.421
-145.545	800.000	0.071	0.292
-144.531	-2.808	-0.466	0.321
-143.516	28.517	0.360	-0.300
-142.502	800.000	0.055	0.232
-141.487	510.863	0.041	-0.094
-140.472	0.134	0.086	-0.060
-139.458	-34.637	-0.134	-0.072
-138.443	-73.568	-0.280	0.100
-137.429	-149.545	0.084	-0.007
-136.414	-68.380	0.181	0.069
-135.399	32.511	-0.156	0.133
-134.385	135.287	-0.189	0.242
-133.370	-142.375	-0.204	0.020
-132.356	-160.125	-0.231	0.012
-131.341	400.793	0.102	0.210
-130.326	-64.889	-0.231	0.092
-129.312	-200.000	0.016	0.086
-128.297	-200.000	0.004	0.031
-127.283	-200.000	0.005	-0.085
-126.268	-17.268	0.228	-0.141
-125.253	109.824	-0.040	0.047
-124.239	163.201	-0.256	0.355
-123.224	-151.139	0.156	0.012
-122.210	-30.743	0.065	-0.036
-121.195	214.977	0.124	-0.194
-120.180	52.612	-0.079	0.074
-119.166	-121.430	-0.529	0.087
-118.151	800.000	0.090	0.287
-117.137	800.000	-0.119	-0.361
-116.122	-10.569	-0.052	0.034
-115.107	48.690	-0.125	-0.115
-114.093	331.441	-0.065	-0.122
-113.078	-94.059	-0.248	0.067
-112.064	342.283	-0.038	-0.074
-111.049	545.022	0.159	0.375
-110.034	-35.305	0.216	0.116
-109.020	-115.484	-0.093	0.017
-108.005	772.843	-0.073	0.195
-106.991	-163.314	0.049	0.002
-105.976	-65.677	-0.107	0.042
-104.962	-200.000	0.027	-0.181
-103.947	-49.630	-0.040	0.019
-102.932	-200.000	-0.014	-0.222
-101.918	-148.736	0.359	0.029
-100.903	37.267	-0.220	0.192
-99.889	-178.764	-0.209	-0.005
-98.874	-19.585	-0.452	-0.275
-97.859	-46.699	-0.214	0.103
-96.845	-200.000	-0.043	-0.234
-95.830	-200.000	-0.017	0.095
-94.816	-180.080	-0.111	0.002
-93.801	800.000	0.046	-0.146
-92.786	17.760	0.029	-0.023
-91.772	-29.602	0.195	0.109
-90.757	800.000	0.037	0.102
-89.743	374.214	-0.151	0.302
-88.728	800.000	-0.079	0.220
-87.713	-83.151	0.167	0.053
-86.699	-13.997	-0.034	0.022
-85.684	-9.960	0.138	0.091
-84.670	-121.188	-0.140	0.023
-83.655	83.459	0.339	0.364
-82.640	109.016	0.166	-0.195
-81.626	-87.393	-0.124	0.037
-80.611	-200.000	-0.001	-0.127
-79.597	39.828	0.079	0.070
-78.582	-200.000	-0.077	0.346
-77.567	-13.749	-0.043	-0.028
-76.553	-200.000	-0.022	-0.277
-75.538	-104.681	-0.199	0.045
-74.524	-37.325	0.403	-0.212
-73.509	240.061	0.068	-0.111
-72.494	41.119	0.189	0.168
-71.480	-200.000	0.000	-0.114
-70.465	-200.000	-0.013	-0.129
-69.451	283.768	-0.081	-0.143
-68.436	-28.352	0.145	0.082
-67.422	-156.569	-0.480	-0.029
-66.407	84.800	0.279	-0.301
-65.392	591.599	0.120	0.292
-64.378	-4.711	-0.054	-0.036
-63.363	104.801	0.080	-0.093
-62.349	100.768	-0.069	0.078
-61.334	-24.482	-1.315	-0.770
-60.319	358.642	0.247	0.485
-59.305	-200.000	-0.187	-0.974
-58.290	567.673	0.333	0.794
-57.276	730.157	0.607	1.593
-56.261	-200.000	99.742	601.586
-55.246	598.086	1419.401	3456.842
-54.232	188.331	2614.367	3839.669
-53.217	116.853	2159.515	2604.230
-52.203	44.310	1612.591	1453.989
-51.188	36.205	1349.942	1168.284
-50.173	32.830	1308.384	1112.417
-49.159	54.440	1357.290	1284.250
-48.144	56.700	1373.311	1312.911
-47.130	36.139	1330.855	1151.187
-46.115	32.685	1313.155	1115.437
-45.100	32.546	1307.884	1110.100
-44.086	32.427	1306.320	1108.025
-43.071	32.454	1303.090	1105.399
-42.057	32.439	1301.656	1104.054
-41.042	32.280	1300.052	1101.718
-40.027	32.474	1298.102	1101.154
-39.013	32.405	1296.429	1099.290
-37.998	32.544	1294.395	1098.331
-36.984	32.517	1293.057	1096.997
-35.969	32.603	1290.992	1095.702
-34.954	32.573	1289.633	1094.326
-33.940	32.691	1287.831	1093.438
-32.925	32.613	1286.907	1092.159
-31.911	32.668	1285.296	1091.070
-30.896	32.638	1283.845	1089.618
-29.881	32.766	1282.212	1088.932
-28.867	32.752	1280.919	1087.710
-27.852	32.731	1278.928	1085.854
-26.838	32.711	1278.219	1085.094
-25.823	32.639	1276.770	1083.407
-24.809	32.639	1275.605	1082.374
-23.794	32.635	1274.131	1081.060
-22.779	32.538	1272.778	1079.311
-21.765	32.682	1271.471	1078.983
-20.750	32.582	1270.391	1077.453
-19.736	32.669	1268.661	1076.439
-18.721	32.530	1267.756	1074.834
-17.706	32.541	1266.552	1073.834
-16.692	32.471	1266.058	1072.974
-15.677	32.550	1264.113	1071.736
-14.663	32.527	1263.218	1070.803
-13.648	32.656	1261.651	1070.163
-12.633	32.489	1261.349	1068.917
-11.619	32.543	1260.049	1068.081
-10.604	32.429	1260.037	1067.379
-9.590	32.363	1258.913	1066.013
-8.575	32.403	1258.007	1065.430
-7.560	32.394	1257.058	1064.533
-6.546	32.349	1256.273	1063.567
-5.531	32.502	1254.995	1063.310
-4.517	32.542	1254.434	1063.018
-3.502	32.502	1253.391	1061.867
-2.487	32.482	1252.550	1061.001
-1.473	32.441	1248.131	1056.981
-0.458	30.800	1232.889	1034.923
0.556	24.616	1214.217	993.585
1.571	20.778	1218.708	975.712
2.586	19.959	1233.378	982.721
3.600	19.574	1222.944	972.157
4.615	14.166	1151.168	886.283
5.629	4.514	1074.327	778.859
6.644	-0.076	1053.312	740.959
7.659	-0.404	1050.897	737.581
8.673	-0.377	1049.428	736.616
9.688	-0.393	1047.668	735.241
10.702	-0.129	1046.773	735.840
11.717	5.870	1055.235	771.279
12.731	15.019	1068.055	825.921
13.746	18.453	1072.041	845.910
14.761	18.512	1071.662	845.828
15.775	18.295	1070.638	843.876
16.790	17.966	1070.268	841.888
17.804	17.925	1069.468	840.984
18.819	17.989	1068.976	840.839
19.834	18.035	1068.675	840.751
20.848	17.963	1067.791	839.631
21.863	17.929	1067.758	839.363
22.877	17.898	1066.673	838.282
23.892	17.916	1065.677	837.514
24.907	18.174	1064.993	838.166
25.921	18.089	1063.903	836.817
26.936	18.025	1062.696	835.481
27.950	17.970	1061.139	833.917
28.965	17.828	1059.079	831.532
29.980	18.021	1057.215	830.930
30.994	18.107	1056.107	830.407
32.009	18.149	1054.949	829.626
33.023	17.853	1053.736	827.163
34.038	17.881	1052.958	826.616
35.053	18.060	1052.205	826.816
36.067	18.043	1051.134	825.820
37.082	18.208	1050.370	825.942
38.096	18.356	1049.729	826.079
39.111	18.366	1048.996	825.477
40.126	18.321	1047.000	823.619
41.140	17.859	1045.834	820.406
42.155	17.831	1044.169	818.895
43.169	17.808	1043.832	818.450
44.184	17.908	1041.874	817.320
45.199	17.731	1041.723	816.281
46.213	17.817	1039.820	815.128
47.228	18.032	1038.948	815.398
48.242	17.972	1037.923	814.235
49.257	17.920	1037.720	813.758
50.271	18.059	1036.208	813.159
51.286	18.058	1035.570	812.584
52.301	18.145	1034.126	811.791
53.315	17.938	1033.818	810.495
54.330	18.071	1032.418	809.955
55.344	18.169	1031.543	809.661
56.359	18.136	1030.367	808.514
57.374	17.928	1029.613	806.868
58.388	17.969	1028.983	806.492
59.403	17.877	1028.041	805.249
60.417	17.792	1026.994	803.957
61.432	17.903	1026.545	804.061
62.447	17.928	1025.844	803.559
63.461	17.934	1025.222	803.027
64.476	17.948	1024.020	802.080
65.490	18.028	1022.572	801.250
66.505	17.978	1022.386	800.801
67.520	17.901	1021.642	799.786
68.534	17.844	1020.642	798.662
69.549	17.601	1019.255	796.371
70.563	17.740	1018.413	796.293
71.578	17.618	1017.793	795.169
72.593	17.575	1017.081	794.341
73.607	17.695	1016.424	794.316
74.622	17.896	1016.153	794.971
75.636	17.824	1015.375	793.958
76.651	17.750	1014.526	792.878
77.666	17.788	1013.424	792.123
78.680	17.729	1013.183	791.591
79.695	17.780	1012.552	791.263
80.709	17.858	1011.621	790.831
81.724	17.829	1010.846	790.019
82.739	17.918	1010.026	789.721
83.753	18.097	1009.375	789.967
84.768	18.285	1008.565	790.134
85.782	18.244	1007.553	789.083
86.797	18.209	1006.415	787.960
87.812	18.285	1004.976	787.110
88.826	18.372	1004.189	786.826
89.841	18.418	1003.375	786.328
90.855	18.287	1002.798	785.206
91.870	18.215	1001.633	783.895
92.884	18.222	1000.443	782.927
93.899	18.008	999.537	781.172
94.914	18.191	998.826	781.382
95.928	18.133	997.913	780.334
96.943	18.050	996.464	778.754
97.957	17.758	995.117	776.303
98.972	17.743	993.576	774.963
99.987	18.016	993.006	775.689
101.001	18.052	992.427	775.332
102.016	18.034	991.672	774.592
103.030	17.892	990.536	772.994
104.045	17.753	989.571	771.541
105.060	17.665	987.775	769.678
106.074	17.922	987.459	770.521
107.089	18.366	986.887	772.011
108.103	18.113	986.100	770.187
109.118	17.863	984.942	768.091
110.133	18.062	983.704	767.952
111.147	17.831	982.966	766.268
112.162	17.699	981.875	764.760
113.176	17.843	980.887	764.565
114.191	17.929	979.706	763.961
115.206	17.601	978.724	761.665
116.220	17.679	977.743	761.182
117.235	17.757	977.040	760.914
118.249	17.582	976.547	759.685
119.264	17.656	975.331	759.001
120.279	17.749	974.331	758.569
121.293	17.853	973.673	758.451
122.308	17.879	973.053	758.018
123.322	17.841	971.671	756.706
124.337	17.722	970.006	754.815
125.352	17.290	968.214	751.444
126.366	17.138	967.610	750.235
127.381	17.842	967.453	753.159
128.395	18.199	966.512	753.929
129.410	18.291	965.404	753.407
130.424	18.152	964.350	751.903
131.439	18.079	963.307	750.704
132.454	18.107	962.629	750.232
133.468	18.047	961.396	748.940
134.483	18.292	960.366	749.145
135.497	18.335	959.986	748.971
136.512	18.310	958.706	747.798
137.527	18.402	957.811	747.435
138.541	18.299	957.162	746.415
139.556	18.330	956.371	745.866
140.570	18.336	955.621	745.242
141.585	18.264	954.327	743.852
142.600	18.424	952.849	743.329
143.614	18.469	952.642	743.295
144.629	18.663	951.763	743.387
145.643	18.425	950.827	741.556
146.658	18.303	949.162	739.666
147.673	18.325	948.393	739.097
148.687	18.385	947.225	738.383
149.702	18.192	946.310	736.771
150.716	18.127	945.518	735.808
151.731	18.317	945.003	736.160
152.746	18.418	944.667	736.267
153.760	18.469	943.533	735.537
154.775	18.473	942.784	734.905
155.789	18.418	942.050	734.034
156.804	18.426	941.074	733.241
157.819	18.543	940.104	732.921
158.833	18.552	939.356	732.314
159.848	18.543	938.046	731.189
160.862	18.400	936.930	729.643
161.877	18.515	936.334	729.606
162.892	18.621	935.565	729.392
163.906	18.461	934.693	727.969
164.921	18.423	933.532	726.839
165.935	18.586	932.136	726.376
166.950	18.572	931.086	725.437
167.964	18.481	930.798	724.762
168.979	18.500	929.352	723.654
169.994	18.368	928.840	722.633
171.008	18.607	927.823	722.783
172.023	18.606	926.500	721.688
173.037	18.169	926.007	719.400
174.052	18.234	924.932	718.775
175.067	18.324	924.279	718.583
176.081	18.476	924.067	718.992
177.096	18.335	922.915	717.441
178.110	18.215	922.403	716.474
179.125	18.153	921.129	715.164
180.140	18.175	920.881	715.001
181.154	18.357	920.417	715.338
182.169	18.572	920.049	715.884
183.183	18.629	919.656	715.754
184.198	18.537	918.621	714.501
185.213	18.558	917.976	714.024
186.227	18.532	917.372	713.382
187.242	18.533	916.653	712.763
188.256	18.547	916.054	712.293
189.271	18.641	914.733	711.594
190.286	18.231	914.319	709.509
191.300	17.912	912.698	706.869
192.315	17.294	911.388	703.233
193.329	17.236	910.866	702.531
194.344	18.051	911.427	706.271
195.359	18.625	910.570	707.912
196.373	18.723	909.756	707.621
197.388	18.370	909.405	705.830
198.402	18.244	908.946	704.896
199.417	18.254	908.247	704.329
200.432	17.853	906.895	701.571
201.446	17.900	906.162	701.135
202.461	17.867	905.714	700.591
203.475	17.101	904.245	696.254
204.490	16.585	902.980	693.103
205.504	17.419	903.385	696.768
206.519	18.128	902.947	699.272
207.534	18.099	902.471	698.723
208.548	18.546	902.199	700.277
209.563	18.368	901.239	698.744
210.577	18.181	900.795	697.575
211.592	18.593	900.398	698.882
212.607	18.589	899.270	697.929
213.621	18.630	898.703	697.594
214.636	18.529	898.215	696.746
215.650	18.497	897.342	695.875
216.665	18.717	896.491	696.045
217.680	18.476	896.068	694.679
218.694	17.978	894.661	691.511
219.709	18.120	893.822	691.374
220.723	18.336	893.560	691.983
221.738	18.463	893.044	692.038
222.753	18.417	892.378	691.275
223.767	18.433	891.526	690.619
224.782	18.714	891.116	691.371
225.796	18.617	890.781	690.660
226.811	18.149	888.837	687.211
227.826	17.671	887.862	684.476
228.840	17.713	887.227	684.093
229.855	17.781	887.112	684.217
230.869	17.447	885.840	681.839
231.884	17.919	885.728	683.583
232.899	18.597	885.587	686.128
233.913	18.519	884.419	684.847
234.928	18.506	884.297	684.642
235.942	18.482	883.574	683.928
236.957	18.166	883.040	682.190
237.972	18.208	882.274	681.705
238.986	18.512	881.104	681.950
240.001	18.457	880.728	681.381
241.015	18.322	880.324	680.474
242.030	18.554	879.519	680.710
243.045	18.747	878.821	680.878
244.059	18.664	878.539	680.268
245.074	18.525	877.505	678.858
246.088	18.176	876.302	676.489
247.103	18.483	876.091	677.476
248.117	18.956	875.707	678.989
249.132	19.036	875.039	678.728
250.147	18.968	874.425	677.924
251.161	19.147	873.954	678.201
252.176	19.112	873.274	677.478
253.190	19.133	872.902	677.209
254.205	19.212	872.463	677.120
255.220	19.232	871.641	676.499
256.234	19.177	870.696	675.493
257.249	19.148	869.757	674.592
258.263	19.189	869.419	674.430
259.278	19.338	868.643	674.352
260.293	19.315	867.828	673.569
261.307	19.112	867.051	672.112
262.322	18.964	866.009	670.670
263.336	18.156	864.197	666.059
264.351	17.066	862.767	660.660
265.366	17.478	862.008	661.622
266.380	18.423	862.808	665.849
267.395	18.940	862.656	667.681
268.409	18.819	861.535	666.286
269.424	19.054	861.386	667.022
270.439	19.209	860.687	667.024
271.453	19.121	860.400	666.401
272.468	19.299	859.623	666.430
273.482	19.382	859.111	666.294
274.497	18.840	858.202	663.440
275.512	18.563	857.013	661.391
276.526	19.148	857.078	663.641
277.541	19.230	856.272	663.271
278.555	18.959	855.205	661.346
279.570	18.705	854.266	659.584
280.585	18.936	853.907	660.136
281.599	18.973	852.995	659.516
282.614	18.528	851.873	656.884
283.628	18.621	851.411	656.824
284.643	18.813	851.034	657.211
285.657	18.323	850.269	654.690
286.672	18.169	848.970	653.043
287.687	18.640	849.319	655.051
288.701	18.736	848.608	654.811
289.716	18.437	847.600	652.837
290.730	18.376	846.917	652.021
291.745	18.095	845.971	650.165
292.760	18.397	845.930	651.225
293.774	19.372	846.114	655.015
294.789	19.475	845.956	655.227
295.803	19.752	845.210	655.640
296.818	19.795	844.475	655.177
297.833	19.284	843.490	652.420
298.847	19.238	842.710	651.586
299.862	19.444	842.610	652.229
300.876	19.699	842.175	652.796
301.891	19.606	840.916	651.412
302.906	19.061	840.155	648.712
303.920	19.193	839.656	648.766
304.935	19.367	839.370	649.142
305.949	19.470	838.977	649.169
306.964	19.277	838.355	647.906
307.979	19.546	837.752	648.392
308.993	19.774	837.569	649.049
310.008	19.774	837.217	648.719
311.022	19.497	836.203	646.836
312.037	19.408	835.501	645.903
313.052	19.246	834.336	644.341
314.066	18.535	833.386	640.893
315.081	18.149	832.878	639.003
316.095	19.043	832.983	642.365
317.110	19.393	832.358	643.132
318.125	18.756	831.292	639.879
319.139	17.861	829.667	635.242
320.154	17.857	829.449	635.004
321.168	18.401	830.120	637.486
322.183	19.159	829.702	639.928
323.197	19.373	829.204	640.280
324.212	19.546	829.066	640.760
325.227	19.592	828.293	640.278
326.241	19.335	827.913	638.974
327.256	19.277	827.047	638.036
328.270	19.289	826.416	637.535
329.285	19.182	825.423	636.318
330.300	18.980	824.968	635.164
331.314	19.204	824.265	635.393
332.329	19.439	823.991	635.992
333.343	19.630	823.486	636.251
334.358	19.564	823.009	635.583
335.373	19.594	823.325	635.881
336.387	19.800	823.014	636.343
337.402	19.872	822.686	636.297
338.416	19.865	821.915	635.620
339.431	19.949	821.048	635.202
340.446	20.037	821.033	635.455
341.460	19.842	820.795	634.500
342.475	19.669	820.120	633.288
343.489	19.882	819.798	633.763
344.504	20.181	819.299	634.417
345.519	20.143	819.089	634.059
346.533	20.075	818.891	633.601
347.548	20.198	818.346	633.573
348.562	20.205	817.772	633.095
349.577	20.106	817.797	632.699
350.592	20.126	816.880	632.006
351.606	20.320	815.531	631.614
352.621	20.209	815.376	631.035
353.635	20.140	814.157	629.784
354.650	19.545	812.573	626.345
355.665	18.632	811.282	621.985
356.679	19.022	811.071	623.183
357.694	19.333	811.060	624.245
358.708	19.489	810.157	624.058
359.723	19.732	809.849	624.646
360.738	20.131	809.736	625.941
361.752	20.163	809.107	625.516
362.767	20.251	808.970	625.672
363.781	20.413	808.517	625.850
364.796	20.582	807.747	625.809
365.810	20.495	807.391	625.165
366.825	20.397	807.200	624.609
367.840	20.208	806.445	623.289
368.854	19.954	805.717	621.760
369.869	19.977	805.092	621.304
370.883	20.153	804.523	621.441
371.898	19.880	804.341	620.269
372.913	19.897	803.993	620.004
373.927	20.128	803.685	620.539
374.942	20.312	803.152	620.730
375.956	20.339	802.724	620.443
376.971	20.484	802.190	620.493
377.986	20.305	802.220	619.822
379.000	20.329	802.025	619.701
380.015	20.230	800.817	618.360
381.029	20.452	800.372	618.754
382.044	20.568	799.812	618.677
383.059	20.470	799.372	617.935
384.073	20.613	798.751	617.907
385.088	20.542	798.169	617.151
386.102	20.487	797.386	616.295
387.117	20.412	796.786	615.511
388.132	20.110	796.241	613.967
389.146	19.738	795.169	611.771
390.161	19.868	795.065	612.096
391.175	20.332	794.459	613.215
392.190	20.063	793.660	611.596
393.205	19.001	791.788	606.355
394.219	17.821	790.458	601.128
395.234	17.882	790.192	601.088
396.248	19.128	791.608	606.506
397.263	20.386	792.137	611.287
398.278	20.467	791.187	610.786
399.292	20.220	790.752	609.528
400.307	20.236	790.340	609.211
401.321	20.153	790.091	608.676
402.336	20.522	789.881	609.753
403.350	20.771	789.831	610.534
404.365	20.919	789.339	610.619
405.380	21.127	788.912	610.962
406.394	21.178	788.708	610.930
407.409	20.954	788.179	609.683
408.423	21.143	787.694	609.914
409.438	21.201	787.681	610.052
410.453	21.149	786.945	609.247
411.467	21.180	786.267	608.777
412.482	21.176	786.005	608.507
413.496	21.246	785.715	608.472
414.511	21.263	785.239	608.109
415.526	21.194	784.704	607.399
416.540	21.141	783.802	606.465
417.555	20.950	782.955	605.092
418.569	20.906	782.584	604.597
419.584	20.857	782.399	604.231
420.599	20.674	781.729	603.027
421.613	157.039	1361.021	1793.093
422.628	135.767	1445.399	1793.194
