DTS Sentinel unit serial number:	SN413079Multiplexer serial number:	ORYXHardware model number:	OX4-SRSoftware version number:	ORYX F/W v4.00 Oryx Data Collector v3.7.2.0data status	okinstallation	princeton_trtdifferential loss correction	single-endedforward channel	channel 1reverse channel	N/Adate	2019/09/17time	11:38:35forward acquisition time	60.00reverse acquisition time	0.00gamma	496.2192k internal	0.2323k external	0.2323temperature offset calibration	0.9974default loss term (dB/km)	0.3790temperature slope calibration	1.0000multiplexer offset coefficient	1.0000multiplexer slope coefficient	1.0000fibre end	0.00T internal ref (°C)	30.81T ext. ref 1 (°C)	0.38T ext. ref 2 (°C)	26.61length (m)	temperature (°C)	Stokes	anti-Stokes-747.200	800.000	0.003	-0.011
-746.185	-35.618	0.263	0.144
-745.171	256.621	-0.077	-0.134
-744.156	-1.161	0.164	-0.117
-743.142	-67.111	0.319	0.127
-742.127	800.000	0.064	0.251
-741.112	-200.000	-0.001	-0.490
-740.098	-200.000	0.025	-0.122
-739.083	-22.123	0.314	0.193
-738.069	-123.899	-0.331	0.053
-737.054	46.527	0.203	0.190
-736.039	-138.225	-0.468	0.052
-735.025	42.278	-0.194	0.178
-734.010	-33.745	-0.218	0.121
-732.996	800.000	-0.068	-0.197
-731.981	-200.000	-0.008	-0.305
-730.966	-15.673	0.259	-0.167
-729.952	-14.323	-0.265	-0.172
-728.937	603.702	0.087	-0.220
-727.923	800.000	0.057	-0.180
-726.908	539.645	-0.104	-0.250
-725.894	800.000	-0.081	-0.313
-724.879	-32.152	-0.182	-0.103
-723.864	-81.790	-0.473	-0.156
-722.850	-23.655	0.023	-0.014
-721.835	800.000	0.086	0.259
-720.821	355.491	0.082	-0.165
-719.806	800.000	0.068	-0.249
-718.791	-85.707	0.244	0.076
-717.777	19.230	0.132	0.107
-716.762	127.992	0.202	-0.260
-715.748	96.668	0.109	0.126
-714.733	314.235	0.161	-0.307
-713.718	241.881	0.072	-0.121
-712.704	-13.956	-0.110	-0.072
-711.689	-31.279	-0.224	0.127
-710.675	-190.371	-0.336	-0.004
-709.660	28.513	0.127	-0.108
-708.645	151.974	0.117	-0.161
-707.631	-106.867	0.135	0.030
-706.616	-200.000	-0.003	0.079
-705.602	383.176	-0.028	0.058
-704.587	-200.000	-0.006	-0.078
-703.572	398.122	-0.062	0.132
-702.558	-200.000	-0.033	-0.241
-701.543	-118.368	0.102	-0.018
-700.529	466.292	-0.118	-0.267
-699.514	133.318	-0.123	-0.161
-698.499	68.064	0.227	-0.234
-697.485	40.155	0.225	-0.204
-696.470	227.560	-0.129	0.212
-695.456	58.863	0.145	0.144
-694.441	104.688	0.263	-0.312
-693.426	-92.029	-0.524	0.150
-692.412	234.278	-0.077	-0.128
-691.397	800.000	0.025	-0.104
-690.383	697.965	0.101	-0.267
-689.368	-24.490	-0.163	-0.098
-688.354	176.982	0.099	-0.146
-687.339	-200.000	0.028	-0.187
-686.324	-85.334	-0.222	-0.070
-685.310	-152.993	-0.183	0.013
-684.295	-117.837	0.303	0.055
-683.281	-200.000	0.262	-0.000
-682.266	303.932	0.027	-0.050
-681.251	14.090	0.180	-0.142
-680.237	6.948	-0.289	-0.217
-679.222	-200.000	0.017	-0.202
-678.208	28.926	-0.143	-0.122
-677.193	28.015	0.138	0.117
-676.178	-200.000	-0.020	0.155
-675.164	-200.000	-0.005	-0.257
-674.149	-50.055	0.256	0.122
-673.135	800.000	-0.052	-0.152
-672.120	-200.000	-0.018	0.150
-671.105	-200.000	0.037	-0.201
-670.091	-58.032	-0.106	-0.047
-669.076	-52.159	-0.196	0.092
-668.062	-200.000	0.007	-0.122
-667.047	800.000	0.099	-0.317
-666.032	-123.380	-0.071	0.011
-665.018	115.752	0.110	-0.136
-664.003	-101.452	0.065	-0.016
-662.989	50.595	-0.051	-0.048
-661.974	-14.283	-0.272	-0.177
-660.959	-146.097	-0.280	-0.025
-659.945	365.183	0.051	-0.104
-658.930	21.073	-0.183	-0.150
-657.916	671.997	-0.103	-0.269
-656.901	-92.405	0.217	0.062
-655.886	-142.098	0.241	0.024
-654.872	153.000	-0.065	-0.090
-653.857	-200.000	-0.032	-0.198
-652.843	165.028	0.147	-0.210
-651.828	176.806	-0.074	0.108
-650.814	172.447	0.228	0.330
-649.799	61.255	0.234	-0.234
-648.784	-200.000	0.012	-0.069
-647.770	800.000	0.010	0.039
-646.755	13.460	-0.234	-0.182
-645.741	-200.000	-0.022	0.147
-644.726	269.472	-0.012	0.021
-643.711	24.921	0.263	0.219
-642.697	800.000	0.043	-0.149
-641.682	14.723	0.144	-0.113
-640.668	-76.001	-0.115	0.041
-639.653	-16.508	0.067	-0.043
-638.638	-124.362	0.230	0.036
-637.624	-200.000	-0.027	0.281
-636.609	-200.000	0.038	-0.278
-635.595	-27.546	0.191	0.112
-634.580	-200.000	0.006	0.126
-633.565	-200.000	-0.016	-0.408
-632.551	-199.141	-0.316	0.002
-631.536	-54.239	-0.108	-0.049
-630.522	-79.267	-0.184	0.063
-629.507	-122.911	-0.334	0.054
-628.492	420.254	-0.126	-0.271
-627.478	-128.656	0.151	-0.022
-626.463	-118.937	-0.156	-0.028
-625.449	101.895	0.067	0.078
-624.434	170.823	-0.149	0.214
-623.419	-76.036	0.515	-0.183
-622.405	-144.943	-0.368	-0.034
-621.390	-200.000	-0.055	-0.274
-620.376	-200.000	0.029	-0.178
-619.361	800.000	-0.092	0.264
-618.346	-200.000	-0.070	0.375
-617.332	247.131	-0.057	-0.096
-616.317	-136.507	0.283	0.033
-615.303	798.415	-0.182	-0.506
-614.288	-114.437	0.199	-0.038
-613.273	-73.418	-0.093	-0.034
-612.259	407.370	0.107	0.227
-611.244	52.765	-0.239	0.230
-610.230	-200.000	-0.090	-0.522
-609.215	-200.000	-0.012	-0.087
-608.201	742.086	-0.009	0.025
-607.186	75.903	0.133	-0.141
-606.171	126.889	-0.111	0.142
-605.157	-167.250	0.183	0.007
-604.142	-47.826	0.168	-0.082
-603.128	62.918	-0.176	0.177
-602.113	-121.960	-0.188	0.031
-601.098	-116.116	0.124	-0.023
-600.084	-128.016	0.070	0.010
-599.069	243.962	-0.092	-0.156
-598.055	39.825	0.105	0.095
-597.040	101.737	0.229	0.268
-596.025	-54.067	-0.311	0.142
-595.011	58.756	0.346	-0.342
-593.996	512.320	-0.076	0.178
-592.982	53.672	0.128	0.124
-591.967	-176.846	-0.230	0.006
-590.952	219.632	-0.114	-0.182
-589.938	-200.000	0.077	-0.425
-588.923	-169.718	-0.204	-0.007
-587.909	-173.500	-0.056	0.002
-586.894	-27.936	-0.153	-0.089
-585.879	189.560	0.164	0.247
-584.865	714.979	-0.136	0.362
-583.850	-50.744	0.339	0.160
-582.836	-134.603	0.241	0.030
-581.821	-200.000	-0.070	-0.369
-580.806	64.973	0.161	-0.164
-579.792	800.000	-0.012	0.042
-578.777	-0.561	-0.230	0.164
-577.763	800.000	-0.056	-0.169
-576.748	-190.835	-0.126	-0.001
-575.733	19.356	-0.049	-0.040
-574.719	30.397	-0.142	0.122
-573.704	-8.113	0.163	0.110
-572.690	-14.473	0.227	-0.146
-571.675	148.159	-0.197	-0.266
-570.661	24.701	-0.317	-0.263
-569.646	81.638	-0.120	-0.130
-568.631	-34.179	0.244	0.135
-567.617	-133.403	-0.231	0.029
-566.602	74.711	-0.253	0.267
-565.588	800.000	-0.051	0.218
-564.573	50.716	0.139	0.132
-563.558	24.051	0.491	-0.407
-562.544	129.697	-0.142	0.182
-561.529	-49.640	0.112	-0.053
-560.515	52.540	0.026	-0.024
-559.500	-200.000	0.016	0.160
-558.485	213.007	-0.148	-0.234
-557.471	643.032	0.052	0.133
-556.456	800.000	0.032	-0.124
-555.442	-86.882	0.216	0.066
-554.427	283.508	0.172	0.309
-553.412	-63.928	0.302	0.124
-552.398	-60.057	-0.015	-0.007
-551.383	-144.094	0.189	-0.018
-550.369	-34.643	0.191	-0.105
-549.354	31.644	0.158	-0.136
-548.339	79.810	-0.101	0.109
-547.325	-200.000	-0.037	0.289
-546.310	576.978	-0.085	-0.208
-545.296	-13.074	0.213	-0.139
-544.281	-38.490	0.305	-0.161
-543.266	-24.702	-0.053	-0.032
-542.252	60.307	-0.134	-0.133
-541.237	513.671	-0.055	0.129
-540.223	-0.229	-0.307	-0.219
-539.208	-48.941	0.098	0.047
-538.193	-200.000	-0.047	0.327
-537.179	0.760	-0.323	0.232
-536.164	274.893	-0.023	-0.042
-535.150	184.982	0.106	0.158
-534.135	111.946	0.143	-0.173
-533.121	-200.000	-0.043	0.214
-532.106	237.537	0.109	-0.181
-531.091	-38.225	-0.162	0.086
-530.077	-66.076	-0.188	-0.075
-529.062	-200.000	0.031	-0.330
-528.048	-109.210	-0.097	0.021
-527.033	-51.151	0.137	-0.064
-526.018	585.414	0.032	-0.079
-525.004	-82.845	0.129	-0.042
-523.989	32.033	0.223	0.192
-522.975	-114.887	0.179	-0.034
-521.960	-36.119	-0.381	-0.206
-520.945	-200.000	-0.032	0.250
-519.931	117.379	0.086	-0.106
-518.916	354.544	0.060	-0.120
-517.902	637.197	0.111	0.283
-516.887	-89.207	-0.168	0.050
-515.872	-17.327	-0.107	0.068
-514.858	-82.195	0.124	-0.040
-513.843	-132.664	0.286	0.037
-512.829	129.984	0.248	-0.318
-511.814	-50.121	-0.048	-0.023
-510.799	-81.679	-0.377	0.124
-509.785	-200.000	0.045	0.236
-508.770	-200.000	-0.014	-0.130
-507.756	-29.930	-0.169	-0.096
-506.741	-188.691	0.356	-0.004
-505.726	190.957	0.191	-0.287
-504.712	47.759	0.270	-0.252
-503.697	-68.797	-0.181	0.070
-502.683	-94.415	-0.125	0.034
-501.668	800.000	0.113	-0.363
-500.653	-94.480	-0.208	0.057
-499.639	-58.251	-0.406	-0.177
-498.624	800.000	-0.054	-0.185
-497.610	-200.000	-0.020	-0.206
-496.595	555.989	-0.101	0.242
-495.581	-21.028	-0.212	0.130
-494.566	-94.599	0.315	-0.086
-493.551	79.804	-0.151	0.162
-492.537	-62.774	-0.073	-0.030
-491.522	-52.106	0.293	-0.136
-490.508	163.545	0.032	0.045
-489.493	-94.234	-0.496	0.136
-488.478	187.504	-0.178	0.266
-487.464	-200.000	0.015	-0.105
-486.449	-58.828	0.436	0.189
-485.435	-63.427	-0.137	-0.056
-484.420	-78.385	-0.078	-0.027
-483.405	159.175	-0.130	-0.181
-482.391	-129.159	-0.143	-0.020
-481.376	-134.526	0.299	0.037
-480.362	559.534	-0.004	-0.009
-479.347	92.424	-0.108	-0.121
-478.332	-57.337	-0.164	-0.072
-477.318	-152.846	-0.073	-0.005
-476.303	-83.773	-0.133	0.042
-475.289	-200.000	-0.007	-0.233
-474.274	512.774	0.227	0.529
-473.259	-139.943	-0.122	-0.013
-472.245	-200.000	0.011	0.065
-471.230	18.938	0.195	0.156
-470.216	-107.549	0.220	0.048
-469.201	-54.719	-0.157	0.071
-468.186	36.017	0.314	0.276
-467.172	-200.000	-0.005	-0.317
-466.157	-56.940	0.137	0.060
-465.143	445.877	0.148	-0.324
-464.128	313.992	0.047	0.089
-463.113	-102.096	0.431	0.104
-462.099	800.000	0.075	0.303
-461.084	117.221	0.287	-0.353
-460.070	14.671	-0.235	-0.183
-459.055	34.253	0.150	0.131
-458.040	-97.945	-0.127	0.033
-457.026	800.000	0.038	0.151
-456.011	-146.352	0.303	0.027
-454.997	-100.915	-0.079	-0.019
-453.982	-139.682	-0.357	-0.038
-452.968	-162.548	-0.389	-0.019
-451.953	-152.944	0.178	0.013
-450.938	-89.030	-0.265	0.078
-449.924	-171.020	0.370	-0.013
-448.909	-66.770	0.014	0.006
-447.895	233.370	-0.089	0.146
-446.880	-106.156	0.060	0.014
-445.865	632.743	0.062	-0.156
-444.851	-111.935	0.457	0.092
-443.836	-21.025	-0.270	-0.165
-442.822	157.290	-0.079	0.109
-441.807	-153.523	-0.210	-0.014
-440.792	-134.012	0.060	-0.007
-439.778	10.943	-0.188	0.143
-438.763	30.355	0.310	0.265
-437.749	127.954	0.104	0.132
-436.734	-103.429	-0.181	0.043
-435.719	-200.000	-0.055	-0.323
-434.705	26.640	-0.140	-0.117
-433.690	86.188	-0.112	0.123
-432.676	-86.194	-0.243	0.075
-431.661	689.598	0.089	0.233
-430.646	-148.895	-0.280	0.023
-429.632	12.440	-0.219	0.168
-428.617	800.000	0.030	-0.129
-427.603	170.977	-0.204	-0.291
-426.588	-58.326	0.115	-0.050
-425.573	148.782	-0.115	-0.156
-424.559	-58.525	0.367	0.159
-423.544	-113.494	-0.140	-0.027
-422.530	800.000	0.045	0.124
-421.515	800.000	-0.051	-0.160
-420.500	109.583	-0.123	-0.148
-419.486	165.329	-0.104	-0.146
-418.471	703.259	-0.106	0.279
-417.457	298.836	0.078	-0.144
-416.442	-143.930	-0.161	0.015
-415.428	-200.000	-0.031	0.305
-414.413	-200.000	0.006	-0.212
-413.398	-2.381	-0.146	-0.102
-412.384	-74.616	0.394	0.142
-411.369	-118.055	-0.302	0.054
-410.355	800.000	0.045	0.180
-409.340	-91.976	-0.113	0.032
-408.325	-200.000	0.023	-0.292
-407.311	-15.237	-0.161	0.103
-406.296	202.653	-0.208	-0.320
-405.282	800.000	0.098	0.340
-404.267	106.860	-0.152	-0.180
-403.252	-157.968	-0.072	0.004
-402.238	132.376	-0.151	-0.194
-401.223	29.575	0.044	-0.037
-400.209	77.285	0.129	0.137
-399.194	214.291	-0.133	-0.210
-398.179	-200.000	0.000	0.010
-397.165	-66.123	-0.107	-0.042
-396.150	-29.265	0.258	0.147
-395.136	136.183	-0.181	-0.235
-394.121	-138.159	0.226	-0.025
-393.106	-9.249	0.257	0.171
-392.092	287.889	-0.057	0.103
-391.077	800.000	0.161	0.483
-390.063	605.441	-0.204	-0.506
-389.048	-81.520	0.153	-0.050
-388.033	-83.072	-0.222	0.071
-387.019	159.328	0.086	0.119
-386.004	800.000	0.045	0.150
-384.990	57.916	-0.036	-0.035
-383.975	-9.769	-0.261	-0.173
-382.960	800.000	0.039	-0.129
-381.946	520.943	-0.142	-0.332
-380.931	-200.000	0.012	-0.127
-379.917	-35.374	0.043	-0.023
-378.902	1.845	-0.060	-0.043
-377.888	737.528	0.040	-0.107
-376.873	-120.876	-0.060	-0.010
-375.858	800.000	0.030	0.103
-374.844	554.558	0.088	-0.210
-373.829	-200.000	-0.065	0.522
-372.815	800.000	-0.098	0.396
-371.800	144.562	0.197	0.262
-370.785	-31.479	-0.078	0.043
-369.771	-200.000	0.031	0.223
-368.756	-6.508	0.287	-0.195
-367.742	-59.125	0.273	-0.117
-366.727	88.461	-0.050	-0.056
-365.712	-200.000	0.011	0.157
-364.698	-51.361	-0.411	-0.191
-363.683	-200.000	-0.027	0.376
-362.669	-96.898	-0.225	0.059
-361.654	-114.963	0.107	-0.020
-360.639	-54.421	-0.065	0.029
-359.625	252.979	-0.174	0.295
-358.610	-145.989	0.056	0.005
-357.596	181.924	-0.066	0.097
-356.581	800.000	-0.074	-0.256
-355.566	-133.248	-0.176	0.022
-354.552	112.163	0.142	0.171
-353.537	248.672	0.099	0.167
-352.523	27.658	-0.323	-0.271
-351.508	-60.902	0.143	-0.060
-350.493	321.745	0.120	0.228
-349.479	135.415	-0.239	-0.309
-348.464	-81.229	-0.329	-0.108
-347.450	-200.000	0.048	0.223
-346.435	112.908	0.056	0.067
-345.420	237.017	0.157	-0.258
-344.406	279.624	0.156	0.276
-343.391	-200.000	-0.030	-0.161
-342.377	39.676	-0.310	-0.277
-341.362	800.000	-0.083	-0.309
-340.348	-87.463	-0.121	0.036
-339.333	-43.436	0.283	-0.142
-338.318	-97.051	-0.209	-0.054
-337.304	224.437	0.033	-0.054
-336.289	244.942	-0.299	-0.499
-335.275	292.403	0.102	-0.185
-334.260	-145.072	0.048	-0.004
-333.245	-130.151	0.255	-0.035
-332.231	53.783	0.146	0.140
-331.216	800.000	0.025	0.097
-330.202	800.000	-0.076	-0.267
-329.187	-44.827	0.053	0.026
-328.172	252.046	-0.107	0.181
-327.158	294.551	-0.060	0.109
-326.143	-34.003	-0.263	0.144
-325.129	184.085	-0.066	0.097
-324.114	-178.931	0.182	0.004
-323.099	90.432	-0.165	0.183
-322.085	-87.190	-0.276	0.083
-321.070	239.860	0.117	-0.193
-320.056	-67.238	0.347	0.136
-319.041	141.057	0.188	-0.247
-318.026	-113.097	0.191	-0.037
-317.012	517.292	0.014	0.031
-315.997	48.966	-0.036	0.033
-314.983	-200.000	-0.002	0.085
-313.968	-53.291	0.289	0.132
-312.953	-200.000	-0.009	0.237
-311.939	-200.000	0.005	0.084
-310.924	532.463	0.048	0.112
-309.910	694.674	-0.116	0.302
-308.895	-55.673	0.401	0.178
-307.880	50.085	-0.249	0.233
-306.866	-1.550	-0.163	0.114
-305.851	800.000	0.076	-0.256
-304.837	-19.415	0.146	-0.090
-303.822	257.652	0.153	0.262
-302.807	-92.381	0.291	-0.081
-301.793	-148.974	0.142	0.011
-300.778	341.467	-0.122	0.237
-299.764	136.788	0.145	-0.188
-298.749	-100.660	-0.310	0.076
-297.735	102.424	-0.056	-0.065
-296.720	-180.469	-0.238	-0.005
-295.705	775.005	0.103	-0.278
-294.691	79.131	0.178	-0.189
-293.676	-88.017	-0.044	-0.013
-292.662	161.734	0.138	0.192
-291.647	194.520	-0.189	-0.284
-290.632	764.308	0.123	0.331
-289.618	-99.054	-0.218	0.055
-288.603	95.738	-0.165	-0.187
-287.589	-30.445	-0.088	0.050
-286.574	-122.420	-0.249	-0.040
-285.559	800.000	-0.011	0.033
-284.545	110.289	-0.072	-0.086
-283.530	-93.477	0.125	0.034
-282.516	800.000	-0.050	0.161
-281.501	-90.126	0.367	0.106
-280.486	-18.740	-0.203	0.125
-279.472	-145.611	0.083	0.007
-278.457	-5.638	-0.226	-0.154
-277.443	63.062	0.391	-0.388
-276.428	-200.000	0.031	0.271
-275.413	264.630	0.095	-0.164
-274.399	282.036	-0.168	-0.299
-273.384	177.657	-0.111	0.160
-272.370	293.225	-0.009	0.016
-271.355	-111.522	-0.104	0.021
-270.340	-181.213	-0.370	-0.007
-269.326	327.214	0.122	0.231
-268.311	-200.000	0.066	0.395
-267.297	-174.728	0.257	-0.007
-266.282	171.742	-0.060	-0.085
-265.267	-160.624	0.493	0.026
-264.253	-131.523	-0.300	0.039
-263.238	-133.464	0.422	0.052
-262.224	-28.030	-0.083	0.048
-261.209	-133.198	-0.144	0.018
-260.195	238.299	-0.123	-0.202
-259.180	-200.000	0.008	0.062
-258.165	71.134	-0.288	-0.296
-257.151	800.000	-0.115	-0.380
-256.136	190.365	0.218	-0.324
-255.122	-200.000	0.074	0.353
-254.107	800.000	-0.125	0.394
-253.092	-114.119	-0.179	0.034
-252.078	-200.000	-0.007	0.301
-251.063	280.223	0.035	0.062
-250.049	-200.000	-0.009	0.227
-249.034	-65.385	0.130	-0.052
-248.019	233.448	-0.081	0.132
-247.005	-200.000	-0.017	0.343
-245.990	-162.650	0.342	0.017
-244.976	197.586	-0.084	0.127
-243.961	190.194	-0.042	-0.062
-242.946	-103.728	0.196	-0.046
-241.932	-29.129	-0.203	0.115
-240.917	-200.000	-0.043	-0.260
-239.903	368.234	-0.136	-0.272
-238.888	-98.653	0.025	-0.006
-237.873	-46.669	-0.187	0.091
-236.859	-83.146	-0.344	-0.110
-235.844	-52.319	0.370	-0.170
-234.830	-150.920	-0.231	-0.017
-233.815	37.988	-0.141	-0.124
-232.800	47.629	0.219	-0.202
-231.786	26.773	-0.101	0.083
-230.771	800.000	0.096	-0.331
-229.757	-200.000	0.031	0.226
-228.742	321.244	-0.040	-0.075
-227.727	-73.228	0.367	-0.133
-226.713	305.530	-0.077	-0.141
-225.698	-116.868	0.202	-0.037
-224.684	21.852	-0.209	0.168
-223.669	756.406	-0.027	-0.072
-222.655	9.883	0.135	0.102
-221.640	-162.680	0.232	-0.011
-220.625	182.327	0.102	-0.149
-219.611	-200.000	-0.028	0.165
-218.596	-50.468	-0.302	-0.141
-217.582	800.000	-0.061	0.232
-216.567	800.000	0.045	0.128
-215.552	82.756	-0.291	0.313
-214.538	-138.152	0.185	-0.020
-213.523	-102.948	-0.234	0.055
-212.509	-200.000	-0.003	0.258
-211.494	-200.000	0.044	0.288
-210.479	-132.295	0.203	-0.026
-209.465	320.473	0.090	-0.169
-208.450	260.467	-0.120	-0.206
-207.436	-129.755	-0.181	0.025
-206.421	32.074	0.162	-0.138
-205.406	-200.000	0.016	-0.081
-204.392	-200.000	-0.003	-0.023
-203.377	-102.730	0.112	-0.026
-202.363	-51.881	-0.204	0.094
-201.348	-20.360	0.288	-0.175
-200.333	616.946	-0.106	0.263
-199.319	69.307	0.309	0.314
-198.304	-31.477	0.109	-0.060
-197.290	-200.000	-0.004	-0.018
-196.275	-5.939	-0.242	-0.164
-195.260	-200.000	0.008	0.257
-194.246	-105.984	0.393	-0.087
-193.231	725.338	0.033	0.087
-192.217	320.944	0.164	0.308
-191.202	172.294	-0.223	0.318
-190.187	-117.138	0.193	0.035
-189.173	425.146	-0.058	-0.122
-188.158	-174.045	0.525	-0.015
-187.144	800.000	-0.060	0.241
-186.129	-30.718	0.126	0.071
-185.114	98.472	-0.171	0.195
-184.100	90.105	-0.071	0.078
-183.085	-200.000	-0.092	-0.430
-182.071	800.000	0.032	-0.131
-181.056	-200.000	0.020	-0.240
-180.042	201.176	-0.155	0.235
-179.027	-200.000	-0.010	0.199
-178.012	454.069	0.110	0.240
-176.998	135.360	0.153	-0.196
-175.983	145.230	0.073	0.097
-174.969	98.777	0.085	0.097
-173.954	-120.997	-0.184	-0.031
-172.939	-145.410	0.282	-0.025
-171.925	-200.000	0.005	-0.201
-170.910	57.003	0.204	-0.196
-169.896	-22.661	-0.126	-0.075
-168.881	-200.000	0.005	-0.162
-167.866	-41.666	-0.230	0.116
-166.852	14.366	-0.097	0.075
-165.837	8.791	0.138	0.103
-164.823	-51.247	-0.236	-0.109
-163.808	397.403	-0.133	-0.274
-162.793	-132.768	0.149	-0.019
-161.779	-52.120	-0.259	0.119
-160.764	1.543	-0.175	-0.124
-159.750	-47.505	-0.247	0.119
-158.735	0.679	0.187	0.132
-157.720	-200.000	0.005	-0.338
-156.706	-9.040	0.503	-0.333
-155.691	-132.999	-0.254	-0.032
-154.677	-200.000	-0.012	0.306
-153.662	-100.001	0.424	-0.104
-152.647	455.537	-0.046	0.101
-151.633	126.362	0.281	-0.350
-150.618	-7.876	-0.176	0.117
-149.604	9.233	0.146	0.109
-148.589	21.860	0.165	0.133
-147.574	800.000	0.077	-0.253
-146.560	502.442	-0.104	-0.238
-145.545	800.000	-0.130	-0.424
-144.531	707.559	0.095	-0.249
-143.516	-53.717	-0.170	-0.077
-142.502	-127.075	0.186	0.027
-141.487	-73.011	-0.233	-0.084
-140.472	-114.647	0.396	0.075
-139.458	61.802	0.235	-0.231
-138.443	7.235	0.205	0.151
-137.429	-200.000	-0.072	0.335
-136.414	-200.000	-0.018	0.148
-135.399	-122.054	-0.312	0.051
-134.385	800.000	-0.112	-0.411
-133.370	-112.533	0.334	0.066
-132.356	-92.192	0.235	0.065
-131.341	425.591	-0.082	-0.174
-130.326	31.945	-0.032	-0.027
-129.312	1.454	-0.300	0.213
-128.297	377.619	-0.102	-0.206
-127.283	739.288	-0.053	0.139
-126.268	-24.506	-0.044	0.026
-125.253	162.480	0.060	0.083
-124.239	-73.221	0.434	-0.157
-123.224	-171.558	0.311	-0.010
-122.210	-200.000	-0.017	0.164
-121.195	605.159	0.073	0.180
-120.180	123.491	0.304	-0.376
-119.166	800.000	0.011	0.038
-118.151	74.544	-0.091	-0.094
-117.137	659.066	0.077	-0.196
-116.122	47.985	0.183	-0.168
-115.107	-40.175	0.331	-0.170
-114.093	800.000	0.151	0.443
-113.078	1.686	-0.093	0.066
-112.064	-153.730	-0.254	-0.017
-111.049	-75.698	0.359	0.126
-110.034	-51.502	0.256	0.118
-109.020	-200.000	-0.040	-0.274
-108.005	-200.000	0.026	0.125
-106.991	-111.216	-0.351	-0.071
-105.976	-44.984	0.034	-0.017
-104.962	-114.628	-0.296	-0.056
-103.947	617.801	0.066	0.164
-102.932	17.972	-0.267	-0.210
-101.918	-100.958	-0.207	0.050
-100.903	95.931	0.062	0.070
-99.889	-200.000	0.050	0.282
-98.874	800.000	0.165	0.457
-97.859	-20.919	-0.280	-0.169
-96.845	-57.226	-0.323	-0.140
-95.830	52.479	0.068	-0.064
-94.816	-112.596	0.216	-0.042
-93.801	-57.732	-0.356	0.153
-92.786	-200.000	0.007	0.217
-91.772	67.973	0.263	0.265
-90.757	386.992	0.064	-0.131
-89.743	252.497	-0.099	-0.167
-88.728	-200.000	0.017	-0.184
-87.713	800.000	0.041	-0.174
-86.699	-26.229	0.356	-0.206
-85.684	66.988	0.259	0.259
-84.670	-191.475	-0.187	-0.002
-83.655	800.000	-0.087	-0.293
-82.640	2.305	-0.144	0.102
-81.626	800.000	0.093	0.263
-80.611	-63.622	-0.096	-0.039
-79.597	146.101	-0.155	-0.204
-78.582	-131.695	0.485	-0.063
-77.567	-195.538	0.349	-0.003
-76.553	148.998	0.192	-0.256
-75.538	-45.948	-0.232	-0.113
-74.524	-39.184	0.387	0.200
-73.509	800.000	0.056	0.152
-72.494	-200.000	0.037	0.228
-71.480	123.371	-0.061	0.075
-70.465	800.000	-0.092	0.299
-69.451	-124.435	0.057	0.009
-68.436	-200.000	0.008	0.202
-67.422	-200.000	-0.031	0.193
-66.407	-105.936	-0.159	-0.035
-65.392	-131.930	0.189	0.024
-64.378	30.496	0.283	0.238
-63.363	268.945	0.124	0.214
-62.349	-200.000	-0.004	-0.118
-61.334	176.124	-0.883	-1.261
-60.319	150.501	0.387	0.517
-59.305	-200.000	-0.084	-1.129
-58.290	277.468	0.551	0.965
-57.276	354.024	0.672	1.313
-56.261	-200.000	100.463	589.022
-55.246	494.097	1430.685	3227.844
-54.232	152.762	2614.367	3512.474
-53.217	111.376	2163.554	2564.125
-52.203	42.967	1607.718	1441.054
-51.188	34.373	1340.665	1150.067
-50.173	31.197	1298.707	1095.426
-49.159	54.540	1348.367	1277.332
-48.144	55.827	1364.963	1300.688
-47.130	34.632	1322.312	1135.686
-46.115	31.064	1304.620	1099.455
-45.100	30.778	1300.303	1094.094
-44.086	30.634	1297.625	1090.951
-43.071	30.646	1295.623	1089.295
-42.057	30.634	1293.180	1087.128
-41.042	30.687	1291.782	1086.218
-40.027	30.667	1290.349	1084.856
-39.013	30.800	1288.020	1083.630
-37.998	30.782	1286.472	1082.180
-36.984	30.819	1284.633	1080.807
-35.969	30.785	1283.083	1079.260
-34.954	30.789	1281.219	1077.672
-33.940	30.808	1279.850	1076.587
-32.925	30.843	1278.868	1075.923
-31.911	30.857	1277.114	1074.483
-30.896	30.970	1275.558	1073.786
-29.881	30.886	1274.983	1072.771
-28.867	30.946	1272.842	1071.271
-27.852	30.927	1271.679	1070.141
-26.838	31.093	1269.889	1069.546
-25.823	30.880	1268.877	1067.432
-24.809	30.887	1267.670	1066.413
-23.794	30.844	1266.652	1065.271
-22.779	30.845	1265.172	1063.986
-21.765	30.963	1263.380	1063.114
-20.750	30.809	1262.618	1061.549
-19.736	30.866	1260.864	1060.356
-18.721	30.841	1259.617	1059.125
-17.706	30.888	1258.216	1058.171
-16.692	30.782	1257.629	1057.036
-15.677	30.794	1256.158	1055.826
-14.663	30.758	1255.218	1054.789
-13.648	30.668	1254.523	1053.654
-12.633	30.734	1253.069	1052.765
-11.619	30.710	1252.457	1052.072
-10.604	30.712	1251.804	1051.494
-9.590	30.679	1250.806	1050.424
-8.575	30.771	1249.709	1049.984
-7.560	30.679	1248.805	1048.661
-6.546	30.751	1247.839	1048.216
-5.531	30.674	1246.720	1046.802
-4.517	30.639	1246.423	1046.311
-3.502	30.728	1245.559	1046.045
-2.487	30.744	1244.244	1044.989
-1.473	30.817	1240.318	1042.057
-0.458	29.485	1225.860	1022.501
0.556	24.469	1209.687	985.500
1.571	21.033	1215.335	970.920
2.586	19.808	1230.024	975.659
3.600	19.326	1219.078	964.201
4.615	14.253	1145.787	879.414
5.629	5.107	1069.911	775.807
6.644	0.749	1049.085	739.361
7.659	0.328	1046.956	735.737
8.673	0.214	1046.136	734.542
9.688	0.220	1044.530	733.378
10.702	0.482	1043.122	733.599
11.717	5.902	1049.755	764.664
12.731	14.395	1060.873	814.360
13.746	17.677	1064.232	832.930
14.761	17.248	1063.065	829.850
15.775	16.301	1061.288	823.771
16.790	15.164	1059.033	816.411
17.804	14.452	1058.108	812.157
18.819	14.223	1056.627	809.835
19.834	14.018	1055.402	807.828
20.848	13.786	1054.578	805.995
21.863	13.387	1053.944	803.506
22.877	13.358	1053.132	802.676
23.892	13.254	1052.370	801.520
24.907	13.274	1051.856	801.152
25.921	13.362	1050.783	800.689
26.936	13.367	1049.916	799.980
27.950	13.417	1049.018	799.469
28.965	13.503	1048.133	799.138
29.980	13.589	1046.735	798.418
30.994	13.537	1045.817	797.394
32.009	13.536	1044.770	796.524
33.023	13.449	1043.777	795.275
34.038	13.423	1042.785	794.323
35.053	13.500	1041.654	793.762
36.067	13.392	1040.882	792.590
37.082	13.445	1040.053	792.140
38.096	13.490	1039.414	791.797
39.111	13.469	1039.033	791.339
40.126	13.420	1037.718	790.031
41.140	13.222	1036.703	788.246
42.155	13.205	1035.750	787.371
43.169	13.323	1034.614	786.996
44.184	13.313	1033.318	785.894
45.199	13.146	1032.191	784.174
46.213	13.276	1031.238	783.997
47.228	13.407	1030.211	783.771
48.242	13.435	1028.916	782.845
49.257	13.421	1028.181	782.153
50.271	13.423	1026.973	781.174
51.286	13.352	1026.521	780.423
52.301	13.404	1025.285	779.663
53.315	13.462	1024.080	778.952
54.330	13.318	1023.747	777.949
55.344	13.423	1022.828	777.676
56.359	13.357	1022.162	776.794
57.374	13.350	1020.987	775.799
58.388	13.243	1020.203	774.632
59.403	13.324	1019.321	774.270
60.417	13.260	1018.397	773.200
61.432	13.194	1017.968	772.498
62.447	13.274	1016.964	772.043
63.461	13.326	1015.947	771.444
64.476	13.148	1015.140	769.934
65.490	13.129	1014.830	769.544
66.505	13.264	1013.765	769.294
67.520	13.301	1013.284	769.033
68.534	13.352	1012.618	768.698
69.549	13.232	1011.603	767.301
70.563	13.280	1010.794	766.842
71.578	13.229	1009.956	765.905
72.593	13.178	1009.409	765.185
73.607	13.076	1008.873	764.237
74.622	13.294	1007.880	764.427
75.636	13.172	1007.769	763.710
76.651	13.146	1006.807	762.795
77.666	13.111	1006.507	762.336
78.680	13.239	1005.271	761.926
79.695	13.342	1004.690	761.893
80.709	13.264	1004.217	761.108
81.724	13.253	1003.180	760.203
82.739	13.274	1002.684	759.857
83.753	13.375	1001.584	759.417
84.768	13.542	1000.565	759.346
85.782	13.437	1000.573	758.801
86.797	13.377	999.157	757.386
87.812	13.419	998.581	757.076
88.826	13.460	997.449	756.338
89.841	13.535	996.566	755.942
90.855	13.555	995.741	755.340
91.870	13.497	995.207	754.604
92.884	13.481	994.182	753.685
93.899	13.489	993.505	753.146
94.914	13.390	992.692	752.012
95.928	13.479	992.164	751.948
96.943	13.536	991.062	751.305
97.957	13.459	990.377	750.370
98.972	13.439	989.453	749.516
99.987	13.568	988.202	749.085
101.001	13.427	987.617	747.939
102.016	13.405	986.786	747.143
103.030	13.516	985.693	746.751
104.045	13.441	985.064	745.871
105.060	13.518	984.268	745.548
106.074	13.392	983.840	744.591
107.089	13.363	982.628	743.474
108.103	13.274	981.660	742.280
109.118	13.367	980.931	742.078
110.133	13.248	979.993	740.768
111.147	13.383	979.070	740.610
112.162	13.478	977.867	740.062
113.176	13.422	977.794	739.690
114.191	13.508	976.919	739.346
115.206	13.485	975.912	738.414
116.220	13.424	975.150	737.501
117.235	13.355	973.979	736.245
118.249	13.390	973.592	736.043
119.264	13.458	972.633	735.555
120.279	13.331	971.620	734.159
121.293	13.397	970.909	733.849
122.308	13.288	970.211	732.776
123.322	13.391	969.077	732.308
124.337	13.316	968.095	731.170
125.352	13.444	967.269	731.049
126.366	13.319	966.325	729.717
127.381	13.333	965.171	728.842
128.395	13.344	964.311	728.180
129.410	13.403	963.105	727.460
130.424	13.428	962.454	727.017
131.439	13.463	962.375	727.048
132.454	13.505	961.242	726.310
133.468	13.416	960.301	725.146
134.483	13.528	958.993	724.584
135.497	13.487	958.650	724.081
136.512	13.486	957.601	723.220
137.527	13.454	957.234	722.740
138.541	13.452	956.514	722.123
139.556	13.510	955.388	721.459
140.570	13.551	954.900	721.206
141.585	13.449	954.457	720.365
142.600	13.550	953.346	719.899
143.614	13.633	952.354	719.447
144.629	13.674	951.728	719.092
145.643	13.709	950.404	718.177
146.658	13.670	949.566	717.314
147.673	13.608	948.546	716.210
148.687	13.673	947.921	715.956
149.702	13.575	947.027	714.795
150.716	13.539	946.248	713.987
151.731	13.566	945.866	713.751
152.746	13.613	944.419	712.802
153.760	13.562	944.473	712.558
154.775	13.640	943.679	712.231
155.789	13.655	942.817	711.583
156.804	13.529	942.694	710.885
157.819	13.627	941.824	710.588
158.833	13.703	941.058	710.270
159.848	13.818	939.827	709.772
160.862	13.626	939.106	708.345
161.877	13.800	938.305	708.419
162.892	13.672	937.433	707.153
163.906	13.604	936.767	706.298
164.921	13.680	935.794	705.825
165.935	13.751	934.697	705.239
166.950	13.794	933.734	704.633
167.964	13.776	933.103	704.017
168.979	13.638	932.788	703.131
169.994	13.627	931.687	702.194
171.008	13.702	930.652	701.668
172.023	13.792	929.931	701.442
173.037	13.850	929.038	700.950
174.052	13.930	928.361	700.717
175.067	13.845	927.906	699.951
176.081	13.754	927.614	699.286
177.096	13.795	927.003	698.935
178.110	13.867	926.227	698.591
179.125	13.856	925.318	697.800
180.140	13.901	925.412	697.996
181.154	14.015	924.709	697.885
182.169	13.927	924.262	697.115
183.183	14.116	923.070	696.946
184.198	14.022	922.965	696.414
185.213	13.974	921.855	695.313
186.227	13.983	921.529	695.043
187.242	14.068	921.400	695.237
188.256	14.121	920.205	694.499
189.271	14.131	919.277	693.777
190.286	14.020	918.317	692.528
191.300	13.900	917.840	691.608
192.315	13.905	917.212	691.095
193.329	13.826	917.118	690.633
194.344	13.946	916.112	690.316
195.359	14.044	915.560	690.244
196.373	14.158	914.582	689.917
197.388	14.096	914.908	689.846
198.402	14.069	914.107	689.069
199.417	14.206	913.382	689.028
200.432	14.309	913.268	689.310
201.446	14.394	912.465	688.994
202.461	14.139	912.052	687.567
203.475	14.302	911.251	687.576
204.490	14.221	910.475	686.595
205.504	14.255	909.473	685.917
206.519	14.114	909.401	685.223
207.534	14.223	908.230	684.730
208.548	14.207	907.780	684.261
209.563	14.343	907.136	684.276
210.577	14.253	906.435	683.318
211.592	14.428	905.602	683.344
212.607	14.373	904.981	682.591
213.621	14.302	904.732	682.051
214.636	14.431	903.510	681.597
215.650	14.488	902.852	681.272
216.665	14.561	901.947	680.829
217.680	14.445	901.740	680.141
218.694	14.531	900.877	679.777
219.709	14.518	900.546	679.414
220.723	14.548	899.396	678.609
221.738	14.636	898.617	678.319
222.753	14.616	898.253	677.905
223.767	14.493	897.762	676.974
224.782	14.450	897.392	676.458
225.796	14.586	897.188	676.799
226.811	14.608	895.980	675.918
227.826	14.556	895.316	675.146
228.840	14.523	894.750	674.526
229.855	14.563	893.835	673.938
230.869	14.525	892.938	673.047
231.884	14.555	892.185	672.543
232.899	14.514	891.617	671.888
233.913	14.577	890.884	671.533
234.928	14.555	890.230	670.891
235.942	14.568	889.743	670.518
236.957	14.531	889.147	669.859
237.972	14.510	888.787	669.442
238.986	14.631	887.762	669.097
240.001	14.621	887.491	668.795
241.015	14.567	887.072	668.204
242.030	14.693	886.230	668.012
243.045	14.642	885.598	667.275
244.059	14.695	884.902	666.901
245.074	14.843	884.027	666.774
246.088	14.766	883.730	666.183
247.103	14.732	883.161	665.562
248.117	14.826	882.712	665.537
249.132	14.818	882.336	665.162
250.147	14.990	881.619	665.249
251.161	15.052	880.667	664.717
252.176	14.936	880.280	663.906
253.190	14.985	879.368	663.355
254.205	15.031	878.817	663.061
255.220	14.910	878.167	662.034
256.234	15.105	877.660	662.364
257.249	15.124	876.823	661.748
258.263	15.092	876.017	660.957
259.278	15.069	875.530	660.439
260.293	15.065	875.237	660.143
261.307	15.310	874.355	660.387
262.322	15.218	873.926	659.643
263.336	15.182	873.205	658.896
264.351	15.263	872.069	658.299
265.366	15.352	871.760	658.356
266.380	15.156	871.684	657.472
267.395	15.269	870.508	656.970
268.409	15.306	869.675	656.429
269.424	15.333	868.851	655.855
270.439	15.320	868.407	655.411
271.453	15.274	867.644	654.595
272.468	15.189	867.477	654.082
273.482	15.251	866.608	653.608
274.497	15.207	866.380	653.207
275.512	15.394	865.605	653.293
276.526	15.401	864.885	652.720
277.541	15.334	864.489	652.103
278.555	15.459	863.954	652.129
279.570	15.484	863.341	651.702
280.585	15.443	862.692	650.999
281.599	15.415	861.687	650.072
282.614	15.610	860.538	649.903
283.628	15.478	860.230	649.104
284.643	15.430	860.256	648.880
285.657	15.475	859.822	648.668
286.672	15.651	858.500	648.291
287.687	15.512	858.281	647.533
288.701	15.542	857.606	647.084
289.716	15.610	857.153	646.946
290.730	15.540	856.605	646.204
291.745	15.653	855.883	646.037
292.760	15.781	854.925	645.751
293.774	15.778	854.805	645.589
294.789	15.795	853.947	644.948
295.803	15.619	853.673	644.011
296.818	15.817	852.810	644.062
297.833	15.690	852.094	642.978
298.847	15.723	851.416	642.534
299.862	15.703	850.944	642.045
300.876	15.750	850.410	641.763
301.891	15.750	850.132	641.497
302.906	15.954	848.958	641.331
303.920	15.818	848.954	640.755
304.935	15.810	848.486	640.314
305.949	15.911	847.550	639.937
306.964	15.930	846.991	639.528
307.979	15.937	846.349	639.013
308.993	15.967	845.812	638.667
310.008	15.971	844.905	637.939
311.022	16.057	844.492	637.896
312.037	15.896	843.943	636.818
313.052	15.864	843.618	636.394
314.066	15.824	842.843	635.602
315.081	16.032	842.614	636.159
316.095	16.052	841.691	635.481
317.110	15.949	841.252	634.704
318.125	16.098	840.724	634.810
319.139	15.936	840.323	633.843
320.154	15.902	840.299	633.640
321.168	15.901	839.510	632.987
322.183	15.916	838.469	632.200
323.197	16.100	838.103	632.560
324.212	16.019	837.781	631.957
325.227	15.970	837.404	631.433
326.241	16.015	836.700	631.016
327.256	16.050	836.231	630.738
328.270	15.904	835.570	629.636
329.285	16.061	834.792	629.581
330.300	16.118	834.192	629.285
331.314	16.076	833.964	628.900
332.329	16.009	833.933	628.573
333.343	16.235	833.129	628.752
334.358	16.148	832.299	627.749
335.373	16.163	832.428	627.844
336.387	16.186	831.949	627.515
337.402	16.107	831.972	627.182
338.416	16.198	831.344	626.992
339.431	16.312	830.838	626.978
340.446	16.282	830.753	626.745
341.460	16.415	830.103	626.694
342.475	16.459	829.878	626.632
343.489	16.452	829.338	626.143
344.504	16.451	828.644	625.559
345.519	16.511	828.285	625.454
346.533	16.434	827.759	624.718
347.548	16.389	827.445	624.258
348.562	16.422	826.621	623.704
349.577	16.273	826.557	623.049
350.592	16.477	825.134	622.674
351.606	16.527	824.417	622.261
352.621	16.438	823.787	621.404
353.635	16.528	823.473	621.444
354.650	16.433	823.179	620.818
355.665	16.629	822.503	620.970
356.679	16.611	821.583	620.155
357.694	16.722	820.859	619.960
358.708	16.555	820.395	618.945
359.723	16.504	819.892	618.325
360.738	16.719	819.239	618.561
361.752	16.655	818.710	617.874
362.767	16.497	818.346	616.969
363.781	16.763	817.811	617.482
364.796	16.836	817.264	617.279
365.810	16.865	816.928	617.074
366.825	16.916	816.457	616.850
367.840	16.778	815.931	615.898
368.854	16.859	815.270	615.639
369.869	16.759	815.374	615.298
370.883	16.774	814.764	614.837
371.898	16.932	814.137	614.884
372.913	16.958	813.847	614.704
373.927	16.945	813.386	614.255
374.942	16.994	812.859	613.979
375.956	17.013	812.631	613.823
376.971	17.145	811.865	613.666
377.986	17.112	811.661	613.337
379.000	17.090	811.079	612.765
380.015	17.000	810.778	612.157
381.029	17.142	810.289	612.248
382.044	17.100	809.576	611.505
383.059	16.997	809.029	610.664
384.073	17.118	808.291	610.488
385.088	17.178	807.689	610.197
386.102	17.087	807.292	609.517
387.117	17.249	806.347	609.329
388.132	16.861	806.300	607.848
389.146	16.994	806.052	608.084
390.161	17.262	805.273	608.401
391.175	17.108	804.720	607.379
392.190	17.309	804.019	607.514
393.205	17.163	803.608	606.629
394.219	17.100	803.448	606.231
395.234	17.171	803.165	606.216
396.248	17.105	802.720	605.593
397.263	17.020	802.375	604.974
398.278	17.079	801.960	604.820
399.292	17.125	801.661	604.703
400.307	17.071	800.837	603.836
401.321	17.089	800.854	603.859
402.336	17.101	800.209	603.361
403.350	17.205	799.833	603.395
404.365	17.425	799.047	603.528
405.380	17.397	798.675	603.094
406.394	17.360	798.039	602.431
407.409	17.337	797.814	602.124
408.423	17.345	797.961	602.211
409.438	17.459	797.094	601.906
410.453	17.531	796.685	601.799
411.467	17.469	796.078	601.070
412.482	17.531	795.720	600.963
413.496	17.496	795.715	600.784
414.511	17.640	794.915	600.633
415.526	17.714	794.435	600.479
416.540	17.586	794.058	599.691
417.555	17.582	793.853	599.468
418.569	17.807	792.927	599.506
419.584	17.533	793.130	598.644
420.599	17.657	792.463	598.523
421.613	109.100	1289.271	1464.490
422.628	93.709	1361.645	1464.587
