DTS Sentinel unit serial number:	SN413079Multiplexer serial number:	ORYXHardware model number:	OX4-SRSoftware version number:	ORYX F/W v4.00 Oryx Data Collector v3.7.2.0data status	okinstallation	princeton_trtdifferential loss correction	single-endedforward channel	channel 1reverse channel	N/Adate	2019/09/11time	06:56:11forward acquisition time	60.00reverse acquisition time	0.00gamma	496.2192k internal	0.2330k external	0.2330temperature offset calibration	0.9916default loss term (dB/km)	0.3790temperature slope calibration	1.0000multiplexer offset coefficient	1.0000multiplexer slope coefficient	1.0000fibre end	0.00T internal ref (°C)	30.02T ext. ref 1 (°C)	-0.14T ext. ref 2 (°C)	25.48length (m)	temperature (°C)	Stokes	anti-Stokes-747.200	169.700	-0.222	0.319
-746.185	222.093	0.139	0.224
-745.171	-10.362	0.015	0.010
-744.156	-98.246	-0.386	0.100
-743.142	214.002	0.087	0.139
-742.127	-174.165	0.136	0.004
-741.112	-200.000	-0.139	-0.000
-740.098	230.876	-0.079	0.130
-739.083	-156.348	0.269	0.017
-738.069	458.556	-0.082	0.184
-737.054	-152.021	-0.316	0.023
-736.039	448.401	0.138	0.307
-735.025	-91.091	0.304	-0.088
-734.010	-145.796	-0.098	-0.009
-732.996	159.149	-0.045	-0.063
-731.981	-68.952	-0.366	0.142
-730.966	-110.922	0.054	0.011
-729.952	800.000	0.055	-0.180
-728.937	11.118	-0.410	-0.316
-727.923	-37.033	-0.229	-0.123
-726.908	783.127	-0.066	0.182
-725.894	-119.889	0.271	0.047
-724.879	-200.000	-0.032	-0.147
-723.864	-120.104	0.303	-0.052
-722.850	-28.809	-0.054	-0.031
-721.835	-108.443	0.091	0.020
-720.821	99.293	0.125	-0.145
-719.806	53.874	0.143	-0.138
-718.791	-63.999	-0.009	0.004
-717.777	153.320	-0.123	0.170
-716.762	-200.000	0.026	-0.324
-715.748	-24.191	-0.217	0.130
-714.733	19.893	0.125	-0.101
-713.718	4.523	0.154	0.114
-712.704	471.426	0.035	-0.079
-711.689	267.070	-0.184	-0.323
-710.675	800.000	-0.159	-0.441
-709.660	-181.937	-0.123	0.002
-708.645	52.679	-0.049	0.047
-707.631	-66.185	0.324	-0.130
-706.616	-200.000	0.004	0.026
-705.602	682.904	-0.096	-0.251
-704.587	119.568	-0.151	0.188
-703.572	-200.000	0.033	0.341
-702.558	102.127	0.138	-0.162
-701.543	-61.820	-0.209	-0.088
-700.529	-185.748	0.263	-0.004
-699.514	84.970	0.111	-0.122
-698.499	-173.776	0.088	-0.003
-697.485	-97.460	0.079	0.021
-696.470	184.207	0.076	-0.113
-695.456	-136.022	-0.274	-0.032
-694.441	118.993	0.046	-0.057
-693.426	110.928	-0.148	0.179
-692.412	-76.068	-0.221	0.078
-691.397	-127.770	0.518	-0.075
-690.383	-29.526	-0.132	-0.076
-689.368	163.482	0.261	0.369
-688.354	71.039	-0.155	0.161
-687.339	86.534	0.037	-0.041
-686.324	-200.000	-0.054	0.241
-685.310	312.856	-0.145	-0.273
-684.295	-119.224	-0.147	0.026
-683.281	-79.119	0.066	0.023
-682.266	-176.328	0.178	0.005
-681.251	-200.000	0.045	0.428
-680.237	725.823	-0.148	0.397
-679.222	149.407	-0.134	-0.182
-678.208	-200.000	-0.003	-0.062
-677.193	-84.068	-0.184	-0.059
-676.178	-200.000	0.000	-0.153
-675.164	380.157	0.095	0.195
-674.149	-8.491	-0.077	-0.052
-673.135	44.070	-0.062	0.057
-672.120	800.000	-0.114	-0.384
-671.105	800.000	-0.121	0.515
-670.091	732.044	-0.139	-0.374
-669.076	27.930	-0.250	-0.212
-668.062	-92.770	-0.067	0.019
-667.047	2.443	0.361	-0.262
-666.032	445.285	0.103	0.226
-665.018	24.843	-0.116	-0.097
-664.003	136.269	0.118	0.155
-662.989	-9.121	0.227	0.152
-661.974	-88.832	0.371	-0.111
-660.959	-200.000	-0.005	0.196
-659.945	-135.421	-0.049	0.006
-658.930	-101.093	-0.164	-0.040
-657.916	-200.000	-0.047	-0.239
-656.901	6.896	0.275	-0.205
-655.886	354.570	0.135	-0.270
-654.872	233.225	-0.146	0.241
-653.857	239.852	0.097	-0.161
-652.843	31.660	0.204	0.176
-651.828	-1.793	0.200	-0.141
-650.814	437.377	-0.120	0.263
-649.799	-21.670	-0.281	-0.172
-648.784	337.428	-0.145	-0.282
-647.770	-160.371	-0.156	-0.008
-646.755	-70.797	-0.245	-0.093
-645.741	-79.180	-0.181	0.062
-644.726	121.527	-0.223	-0.279
-643.711	-200.000	0.046	-0.534
-642.697	34.346	-0.147	-0.129
-641.682	52.762	0.013	0.012
-640.668	14.373	0.239	0.187
-639.653	800.000	-0.055	-0.191
-638.638	-200.000	-0.000	0.097
-637.624	246.292	-0.109	-0.185
-636.609	-13.037	-0.071	0.046
-635.595	-79.715	-0.206	0.070
-634.580	104.960	-0.091	0.108
-633.565	800.000	-0.016	-0.064
-632.551	11.008	0.151	-0.115
-631.536	196.701	0.149	-0.228
-630.522	-128.780	-0.370	-0.052
-629.507	345.516	-0.067	-0.131
-628.492	-17.365	-0.243	0.153
-627.478	-37.310	-0.198	-0.106
-626.463	102.644	0.098	0.115
-625.449	800.000	-0.189	-0.528
-624.434	-67.001	0.113	-0.045
-623.419	-56.681	0.324	-0.144
-622.405	800.000	-0.029	0.106
-621.390	160.120	0.208	-0.290
-620.376	29.088	-0.287	-0.244
-619.361	-98.828	0.244	-0.062
-618.346	-140.130	0.077	0.008
-617.332	-115.159	0.189	-0.036
-616.317	-46.518	0.202	-0.099
-615.303	-116.848	0.094	0.017
-614.288	-100.879	-0.224	0.055
-613.273	-123.969	-0.149	-0.024
-612.259	-78.110	0.144	-0.050
-611.244	-54.907	-0.120	-0.054
-610.230	-74.245	0.325	0.118
-609.215	89.860	-0.147	-0.164
-608.201	-11.127	0.169	-0.112
-607.186	-93.160	-0.117	0.033
-606.171	56.404	0.051	-0.050
-605.157	-81.463	-0.056	0.019
-604.142	472.488	0.038	-0.085
-603.128	-6.638	-0.143	-0.098
-602.113	239.787	0.068	-0.113
-601.098	-117.952	-0.275	0.049
-600.084	-23.717	0.277	-0.166
-599.069	-118.077	-0.154	-0.028
-598.055	-80.602	0.150	-0.050
-597.040	-103.947	0.067	0.016
-596.025	148.310	-0.300	-0.406
-595.011	-200.000	-0.048	0.380
-593.996	-44.712	0.250	-0.125
-592.982	83.458	-0.161	-0.176
-591.967	-139.228	-0.076	0.008
-590.952	-6.258	-0.109	0.075
-589.938	-24.903	-0.372	-0.221
-588.923	23.745	-0.300	0.247
-587.909	9.739	0.220	0.167
-586.894	422.506	-0.113	0.242
-585.879	103.625	-0.005	0.006
-584.865	-64.358	0.044	-0.018
-583.850	8.356	0.095	-0.071
-582.836	143.962	-0.119	-0.159
-581.821	478.252	0.014	-0.031
-580.806	35.068	-0.318	0.279
-579.792	105.475	-0.161	0.190
-578.777	-200.000	-0.038	0.228
-577.763	-100.665	0.138	-0.034
-576.748	-148.490	0.126	0.010
-575.733	93.285	0.108	0.122
-574.719	-200.000	-0.033	0.286
-573.704	-200.000	-0.041	-0.282
-572.690	-200.000	0.002	0.403
-571.675	-63.729	-0.330	0.135
-570.661	-70.261	-0.283	-0.108
-569.646	-143.951	0.290	-0.027
-568.631	253.164	-0.122	-0.208
-567.617	-73.764	0.098	0.036
-566.602	409.655	0.030	-0.064
-565.588	414.225	-0.073	-0.156
-564.573	110.281	-0.157	0.189
-563.558	-200.000	-0.005	0.281
-562.544	-46.308	-0.165	-0.081
-561.529	100.059	-0.235	-0.272
-560.515	-200.000	0.010	-0.320
-559.500	-97.717	0.198	0.051
-558.485	232.283	0.074	-0.121
-557.471	-60.497	-0.189	-0.080
-556.456	-105.963	-0.168	-0.038
-555.442	-78.713	0.421	0.144
-554.427	-83.744	0.308	-0.098
-553.412	-90.047	-0.166	-0.048
-552.398	-200.000	-0.018	-0.225
-551.383	278.459	-0.105	-0.187
-550.369	-119.421	0.412	0.071
-549.354	800.000	-0.057	0.191
-548.339	-72.094	0.245	0.091
-547.325	800.000	-0.008	0.030
-546.310	-200.000	0.001	-0.009
-545.296	-94.744	0.179	0.049
-544.281	-197.379	0.253	-0.002
-543.266	-79.728	0.155	-0.052
-542.252	191.553	-0.095	0.143
-541.237	-107.529	0.256	0.056
-540.223	800.000	0.054	-0.166
-539.208	283.964	0.103	-0.185
-538.193	295.690	0.238	-0.436
-537.179	119.519	-0.030	0.037
-536.164	800.000	-0.013	-0.041
-535.150	-4.419	-0.099	-0.068
-534.135	22.548	-0.078	-0.063
-533.121	-35.826	-0.357	0.193
-532.106	101.667	-0.217	-0.253
-531.091	13.305	0.066	-0.051
-530.077	-200.000	-0.446	-0.002
-529.062	-5.155	-0.066	0.046
-528.048	31.099	0.228	-0.195
-527.033	87.201	0.071	0.078
-526.018	-2.364	0.192	-0.134
-525.004	-15.838	0.299	0.190
-523.989	150.347	0.159	0.215
-522.975	215.602	0.117	0.186
-521.960	308.436	0.107	-0.199
-520.945	-47.357	0.289	0.140
-519.931	-200.000	0.021	-0.177
-518.916	-36.134	-0.253	0.136
-517.902	141.796	0.011	-0.014
-516.887	800.000	0.056	-0.183
-515.872	2.961	-0.079	0.057
-514.858	-65.858	-0.216	0.086
-513.843	-70.258	0.160	-0.061
-512.829	741.170	0.055	-0.148
-511.814	168.975	0.064	0.091
-510.799	-200.000	-0.009	0.134
-509.785	46.355	0.270	0.250
-508.770	134.813	0.158	0.205
-507.756	-30.541	-0.222	-0.125
-506.741	-143.547	-0.197	0.019
-505.726	205.757	0.060	-0.092
-504.712	-168.361	-0.119	0.005
-503.697	-66.394	-0.312	0.124
-502.683	50.968	-0.098	0.092
-501.668	800.000	-0.104	-0.293
-500.653	315.989	0.050	-0.093
-499.639	238.263	0.034	0.056
-498.624	203.702	-0.126	0.195
-497.610	800.000	-0.034	0.138
-496.595	76.465	0.141	-0.149
-495.581	-24.306	0.311	0.185
-494.566	-111.124	-0.216	0.044
-493.551	147.036	0.030	-0.040
-492.537	311.158	0.108	-0.201
-491.522	201.145	0.182	-0.280
-490.508	171.531	-0.078	-0.112
-489.493	800.000	0.053	0.214
-488.478	293.705	0.241	-0.440
-487.464	56.035	-0.171	-0.166
-486.449	-200.000	-0.001	0.307
-485.435	280.686	0.066	-0.118
-484.420	3.651	0.219	-0.159
-483.405	-200.000	-0.014	-0.335
-482.391	46.575	0.064	-0.059
-481.376	97.380	0.312	0.357
-480.362	-77.003	-0.161	-0.056
-479.347	15.404	-0.131	-0.102
-478.332	-200.000	-0.008	-0.075
-477.318	-84.637	-0.310	0.097
-476.303	-200.000	-0.043	0.259
-475.289	-98.364	0.145	-0.037
-474.274	800.000	0.049	-0.149
-473.259	800.000	0.101	-0.353
-472.245	-97.072	0.053	-0.014
-471.230	800.000	-0.093	-0.266
-470.216	146.471	-0.121	-0.161
-469.201	38.593	-0.078	0.070
-468.186	80.095	0.148	-0.158
-467.172	-78.227	-0.049	0.017
-466.157	-82.497	-0.153	0.050
-465.143	175.414	-0.071	-0.103
-464.128	-12.950	-0.204	-0.132
-463.113	800.000	0.016	-0.049
-462.099	-98.622	0.128	0.033
-461.084	334.403	0.114	0.220
-460.070	-200.000	0.013	0.152
-459.055	432.343	0.061	-0.131
-458.040	-200.000	0.060	0.354
-457.026	237.183	0.247	0.408
-456.011	-41.305	-0.231	0.119
-454.997	-81.588	-0.041	-0.013
-453.982	258.912	0.083	-0.143
-452.968	-125.212	0.164	-0.025
-451.953	-139.712	0.038	-0.004
-450.938	-90.043	0.410	-0.119
-449.924	296.745	-0.081	-0.149
-448.909	-124.059	0.168	-0.026
-447.895	80.809	-0.212	0.228
-446.880	408.837	0.085	-0.179
-445.865	-200.000	-0.024	-0.528
-444.851	61.936	0.202	-0.201
-443.836	-76.977	0.157	-0.055
-442.822	-149.050	-0.105	0.008
-441.807	489.748	-0.081	-0.185
-440.792	182.864	-0.085	0.125
-439.778	800.000	-0.057	0.193
-438.763	-135.131	0.085	-0.010
-437.749	-200.000	-0.027	-0.189
-436.734	36.184	0.266	-0.233
-435.719	-63.754	-0.379	-0.154
-434.705	-131.471	0.043	0.006
-433.690	-37.703	-0.172	0.091
-432.676	800.000	0.049	-0.193
-431.661	-200.000	-0.081	0.000
-430.646	26.125	-0.031	-0.026
-429.632	454.502	0.115	0.253
-428.617	-10.647	0.062	-0.041
-427.603	-126.389	-0.061	0.009
-426.588	-161.019	0.112	0.006
-425.573	60.302	-0.265	-0.260
-424.559	-145.815	-0.547	-0.048
-423.544	-89.574	0.104	-0.030
-422.530	800.000	0.023	0.100
-421.515	800.000	-0.050	0.194
-420.500	251.962	-0.126	-0.214
-419.486	339.982	-0.207	-0.401
-418.471	-85.366	0.325	-0.101
-417.457	-111.811	-0.242	-0.049
-416.442	-22.912	-0.332	-0.199
-415.428	14.797	-0.113	-0.087
-414.413	-39.097	-0.232	-0.121
-413.398	189.745	-0.038	0.057
-412.384	-2.279	-0.184	-0.128
-411.369	-70.561	-0.346	-0.130
-410.355	-200.000	-0.039	0.455
-409.340	-200.000	0.002	0.046
-408.325	69.113	-0.118	0.120
-407.311	174.551	-0.113	-0.162
-406.296	153.606	0.145	-0.197
-405.282	-143.362	0.549	-0.052
-404.267	-123.895	0.158	-0.025
-403.252	373.886	0.072	-0.146
-402.238	-188.395	-0.163	-0.002
-401.223	-74.327	0.406	-0.146
-400.209	-200.000	-0.056	0.247
-399.194	37.888	0.338	0.298
-398.179	97.031	-0.074	-0.084
-397.165	-14.544	-0.122	-0.078
-396.150	-193.479	-0.369	0.003
-395.136	-200.000	0.019	-0.109
-394.121	-83.755	0.318	-0.101
-393.106	173.716	0.085	0.122
-392.092	800.000	0.039	0.116
-391.077	48.730	-0.071	0.066
-390.063	130.220	-0.179	0.227
-389.048	-153.459	-0.185	0.013
-388.033	800.000	-0.062	0.174
-387.019	22.094	-0.078	0.063
-386.004	-23.629	0.113	-0.067
-384.990	-124.150	0.138	-0.022
-383.975	-200.000	-0.002	0.095
-382.960	56.335	0.300	-0.290
-381.946	-187.271	-0.228	-0.003
-380.931	-10.239	-0.293	-0.193
-379.917	74.731	0.106	-0.111
-378.902	-127.366	-0.182	-0.026
-377.888	-186.502	-0.066	0.001
-376.873	215.795	-0.049	0.077
-375.858	-96.436	-0.307	0.081
-374.844	-110.129	-0.188	0.039
-373.829	800.000	-0.085	0.247
-372.815	800.000	-0.020	0.070
-371.800	23.712	-0.109	-0.089
-370.785	-18.481	-0.164	0.102
-369.771	-127.730	-0.362	0.052
-368.756	704.873	-0.045	0.118
-367.742	-200.000	-0.089	0.416
-366.727	-30.171	-0.125	-0.070
-365.712	185.108	0.133	0.196
-364.698	-82.113	0.215	-0.070
-363.683	800.000	-0.110	0.415
-362.669	-200.000	-0.038	0.360
-361.654	-200.000	0.070	0.365
-360.639	-200.000	0.003	0.112
-359.625	-200.000	0.032	0.177
-358.610	800.000	-0.083	0.227
-357.596	-200.000	-0.024	0.192
-356.581	-73.140	-0.108	0.039
-355.566	-41.846	-0.045	-0.023
-354.552	-111.773	0.211	0.042
-353.537	-54.445	0.228	0.102
-352.523	-50.125	-0.178	0.084
-351.508	-41.510	-0.114	0.058
-350.493	-0.376	0.358	-0.252
-349.479	-116.995	0.224	-0.040
-348.464	-200.000	-0.016	0.168
-347.450	-71.596	-0.065	-0.024
-346.435	-200.000	-0.073	0.409
-345.420	82.658	0.180	0.194
-344.406	800.000	0.039	0.142
-343.391	800.000	-0.002	-0.010
-342.377	177.168	0.086	-0.125
-341.362	-1.292	0.127	-0.089
-340.348	276.640	0.073	0.129
-339.333	-200.000	0.013	0.117
-338.318	-200.000	0.044	0.193
-337.304	-9.157	0.397	0.263
-336.289	-199.497	0.458	0.002
-335.275	-22.076	0.420	-0.253
-334.260	-89.309	-0.198	-0.058
-333.245	-148.082	-0.107	0.009
-332.231	-64.577	0.245	0.099
-331.216	291.948	0.165	0.297
-330.202	-31.976	-0.094	-0.052
-329.187	-27.843	-0.174	-0.100
-328.172	-160.502	-0.058	0.003
-327.158	113.930	-0.180	0.217
-326.143	-66.704	-0.264	-0.104
-325.129	-167.655	-0.259	-0.010
-324.114	-200.000	0.044	-0.203
-323.099	-77.213	-0.137	0.047
-322.085	-79.241	0.108	0.036
-321.070	45.035	0.219	0.200
-320.056	650.147	-0.058	0.148
-319.041	-200.000	0.005	-0.456
-318.026	117.550	-0.035	0.042
-317.012	-149.563	-0.329	0.026
-315.997	58.228	0.178	0.173
-314.983	445.759	-0.054	-0.118
-313.968	-70.959	-0.097	-0.036
-312.953	-200.000	0.043	0.239
-311.939	170.474	-0.103	0.146
-310.924	48.802	0.268	0.249
-309.910	-200.000	0.057	-0.365
-308.895	-200.000	-0.012	0.052
-307.880	-44.303	-0.199	-0.099
-306.866	28.183	0.177	-0.148
-305.851	-13.353	-0.179	-0.115
-304.837	-130.852	-0.110	0.015
-303.822	-200.000	0.010	0.043
-302.807	121.989	-0.100	0.123
-301.793	690.260	0.046	0.120
-300.778	-118.536	0.147	0.026
-299.764	-11.065	0.208	-0.136
-298.749	23.934	0.123	-0.100
-297.735	-142.362	-0.336	0.033
-296.720	155.732	0.064	-0.087
-295.705	-120.732	0.308	0.052
-294.691	576.056	0.074	0.178
-293.676	7.438	-0.244	0.180
-292.662	184.812	-0.205	-0.300
-291.647	-7.347	0.341	0.228
-290.632	-200.000	0.026	0.330
-289.618	326.836	-0.104	-0.198
-288.603	-65.104	-0.031	-0.012
-287.589	-141.178	-0.098	0.010
-286.574	187.297	0.114	-0.168
-285.559	-133.919	-0.090	-0.011
-284.545	613.666	0.020	0.051
-283.530	483.734	-0.056	0.126
-282.516	-119.809	-0.185	0.032
-281.501	-19.232	0.317	-0.195
-280.486	344.949	-0.137	0.266
-279.472	-200.000	0.017	0.188
-278.457	-200.000	-0.009	-0.043
-277.443	-166.790	0.179	-0.007
-276.428	-200.000	-0.057	-0.366
-275.413	112.988	0.264	-0.317
-274.399	-200.000	0.024	0.217
-273.384	-200.000	0.012	0.091
-272.370	9.723	-0.065	-0.049
-271.355	-200.000	0.040	-0.278
-270.340	-200.000	0.050	0.308
-269.326	132.442	0.142	0.181
-268.311	-155.916	0.350	0.022
-267.297	135.151	-0.053	0.068
-266.282	800.000	0.018	-0.072
-265.267	-113.818	-0.324	-0.062
-264.253	-19.954	-0.044	-0.027
-263.238	197.357	-0.103	0.156
-262.224	346.017	0.098	-0.191
-261.209	-131.363	0.134	-0.018
-260.195	-200.000	-0.010	-0.237
-259.180	-200.000	-0.011	0.158
-258.165	-136.821	0.130	0.015
-257.151	-200.000	-0.010	0.121
-256.136	800.000	-0.096	0.265
-255.122	176.047	-0.114	-0.163
-254.107	130.078	-0.140	0.178
-253.092	-173.164	0.162	-0.005
-252.078	-129.750	0.147	0.020
-251.063	30.452	0.221	0.187
-250.049	-12.063	0.089	-0.058
-249.034	29.399	-0.180	-0.151
-248.019	-200.000	0.013	0.224
-247.005	-32.517	-0.130	0.071
-245.990	-164.837	0.205	0.009
-244.976	-49.743	-0.296	0.139
-243.961	23.945	-0.153	-0.125
-242.946	576.993	0.080	-0.192
-241.932	159.533	-0.059	-0.080
-240.917	-152.263	0.258	0.018
-239.903	-200.000	0.016	0.391
-238.888	616.814	-0.028	-0.070
-237.873	800.000	-0.139	0.391
-236.859	-18.363	-0.183	0.113
-235.844	310.057	0.070	-0.129
-234.830	-124.829	-0.280	0.043
-233.815	9.029	-0.125	0.093
-232.800	170.735	0.180	0.254
-231.786	-200.000	-0.073	0.323
-230.771	749.206	-0.114	0.303
-229.757	85.578	0.141	-0.152
-228.742	-16.987	0.234	0.146
-227.727	68.519	0.031	0.032
-226.713	800.000	0.016	0.058
-225.698	800.000	0.052	-0.163
-224.684	412.876	0.117	-0.245
-223.669	535.037	0.033	0.076
-222.655	38.397	0.186	0.163
-221.640	196.098	-0.042	-0.063
-220.625	-200.000	-0.018	0.282
-219.611	192.570	0.069	0.102
-218.596	-200.000	0.036	-0.245
-217.582	-200.000	-0.011	-0.261
-216.567	800.000	0.051	0.158
-215.552	800.000	-0.074	0.206
-214.538	-200.000	0.011	-0.168
-213.523	507.442	0.079	-0.181
-212.509	-31.421	-0.416	0.231
-211.494	-148.356	0.452	-0.037
-210.479	-25.914	-0.061	-0.036
-209.465	-55.247	-0.360	0.160
-208.450	-200.000	-0.003	-0.166
-207.436	-129.211	-0.244	-0.034
-206.421	129.408	0.151	0.191
-205.406	406.932	-0.096	-0.200
-204.392	23.196	-0.084	0.068
-203.377	-83.913	-0.102	0.032
-202.363	53.413	-0.306	0.289
-201.348	-40.607	0.438	0.224
-200.333	-24.072	0.426	0.251
-199.319	-118.115	0.131	0.023
-198.304	-132.804	-0.309	-0.039
-197.290	40.429	-0.194	0.172
-196.275	-165.099	0.136	-0.006
-195.260	-43.775	0.106	0.052
-194.246	5.116	-0.287	-0.209
-193.231	167.735	0.046	0.065
-192.217	-51.298	-0.109	0.050
-191.202	-86.788	0.180	0.054
-190.187	14.234	-0.023	0.018
-189.173	446.378	-0.086	0.186
-188.158	69.610	-0.122	-0.124
-187.144	-105.405	0.115	0.026
-186.129	-176.226	0.350	0.009
-185.114	-200.000	0.017	0.172
-184.100	-48.136	0.159	-0.076
-183.085	-84.009	0.205	0.064
-182.071	-98.932	0.120	0.030
-181.056	54.162	-0.068	0.064
-180.042	-113.110	0.296	0.058
-179.027	19.051	0.125	-0.099
-178.012	565.556	0.035	-0.084
-176.998	800.000	-0.039	0.154
-175.983	-200.000	0.010	0.155
-174.969	141.883	-0.084	-0.110
-173.954	-6.001	-0.130	-0.088
-172.939	-196.825	0.328	0.002
-171.925	203.650	0.125	0.190
-170.910	303.710	0.114	0.208
-169.896	94.162	0.198	0.222
-168.881	-54.943	-0.052	0.023
-167.866	-200.000	-0.063	0.279
-166.852	800.000	-0.009	0.031
-165.837	80.599	0.207	-0.220
-164.823	800.000	0.016	-0.068
-163.808	465.659	-0.153	0.337
-162.793	23.641	-0.189	-0.153
-161.779	-65.761	-0.167	-0.066
-160.764	800.000	-0.040	0.129
-159.750	-98.348	0.218	0.055
-158.735	-67.895	-0.300	-0.115
-157.720	-32.977	-0.110	-0.060
-156.706	13.227	0.115	-0.088
-155.691	343.576	-0.281	-0.543
-154.677	-200.000	0.002	-0.245
-153.662	282.682	0.195	-0.344
-152.647	14.258	0.396	-0.304
-151.633	-153.422	0.502	-0.034
-150.618	-78.654	0.387	0.130
-149.604	-5.983	-0.177	0.119
-148.589	800.000	-0.044	-0.120
-147.574	11.932	0.127	0.096
-146.560	-40.618	0.108	0.055
-145.545	-141.303	0.048	-0.005
-144.531	800.000	0.063	-0.267
-143.516	25.969	-0.345	0.283
-142.502	240.331	0.157	-0.258
-141.487	-26.082	0.099	-0.057
-140.472	751.723	-0.098	-0.259
-139.458	800.000	-0.092	-0.265
-138.443	81.895	0.108	0.115
-137.429	-154.044	-0.058	-0.004
-136.414	242.621	0.136	0.224
-135.399	42.164	-0.328	-0.293
-134.385	-98.732	0.120	0.030
-133.370	-200.000	-0.017	-0.074
-132.356	9.359	0.373	-0.278
-131.341	-106.322	0.303	0.067
-130.326	-108.700	-0.291	-0.061
-129.312	-136.313	-0.086	-0.010
-128.297	-200.000	0.012	-0.388
-127.283	-47.174	-0.202	-0.097
-126.268	129.783	-0.101	-0.127
-125.253	-75.152	-0.297	0.104
-124.239	-200.000	-0.035	-0.257
-123.224	800.000	0.146	0.541
-122.210	-25.061	0.161	-0.094
-121.195	-44.761	-0.146	0.072
-120.180	800.000	-0.063	-0.180
-119.166	800.000	0.071	-0.257
-118.151	-200.000	-0.025	0.164
-117.137	82.375	0.137	-0.146
-116.122	-39.873	0.128	-0.066
-115.107	-165.079	0.184	-0.008
-114.093	800.000	-0.073	0.213
-113.078	-104.299	-0.351	0.080
-112.064	164.191	0.140	-0.194
-111.049	-200.000	-0.029	0.621
-110.034	-200.000	0.007	0.186
-109.020	725.769	-0.072	0.189
-108.005	-200.000	-0.020	0.207
-106.991	562.171	-0.095	-0.226
-105.976	454.746	0.013	0.029
-104.962	-200.000	-0.026	0.175
-103.947	94.052	0.084	-0.094
-102.932	-34.820	-0.216	0.116
-101.918	316.341	0.065	-0.121
-100.903	512.939	0.230	-0.527
-99.889	71.097	0.107	-0.109
-98.874	223.741	-0.145	0.229
-97.859	-108.496	-0.225	0.048
-96.845	63.250	0.106	0.104
-95.830	800.000	-0.035	-0.130
-94.816	110.887	-0.115	-0.136
-93.801	350.814	0.215	0.418
-92.786	-85.762	0.047	0.014
-91.772	221.810	-0.045	0.071
-90.757	269.669	0.068	-0.118
-89.743	-89.382	0.187	0.054
-88.728	705.416	-0.056	0.145
-87.713	-50.100	0.316	-0.147
-86.699	16.778	-0.224	-0.174
-85.684	-129.862	0.249	0.034
-84.670	69.704	0.143	-0.145
-83.655	-34.190	-0.335	-0.181
-82.640	27.417	0.213	-0.176
-81.626	-200.000	0.046	0.204
-80.611	-99.522	-0.049	-0.012
-79.597	37.302	0.175	-0.152
-78.582	-38.577	-0.240	-0.125
-77.567	-39.700	-0.381	-0.195
-76.553	-200.000	-0.050	-0.276
-75.538	-136.845	-0.264	0.030
-74.524	-200.000	0.041	0.367
-73.509	45.831	0.106	0.096
-72.494	800.000	-0.039	0.115
-71.480	244.008	0.183	0.301
-70.465	462.513	0.004	-0.010
-69.451	-200.000	0.010	-0.179
-68.436	-46.828	-0.225	-0.108
-67.422	361.914	0.148	-0.292
-66.407	-59.642	0.143	0.060
-65.392	76.720	-0.048	0.050
-64.378	-34.662	0.093	0.050
-63.363	-200.000	-0.038	0.197
-62.349	115.625	-0.233	0.279
-61.334	25.065	-0.977	-0.795
-60.319	307.590	0.412	0.753
-59.305	514.846	-0.475	-1.087
-58.290	215.855	0.572	0.890
-57.276	603.234	0.605	1.476
-56.261	-200.000	102.575	599.198
-55.246	509.381	1469.166	3346.740
-54.232	180.703	2671.430	3844.487
-53.217	113.013	2163.177	2570.017
-52.203	42.106	1598.551	1422.434
-51.188	33.589	1331.068	1133.729
-50.173	30.341	1289.581	1079.494
-49.159	53.360	1341.855	1260.438
-48.144	54.458	1358.120	1282.179
-47.130	33.698	1313.823	1119.505
-46.115	30.126	1296.258	1083.655
-45.100	29.915	1291.369	1078.296
-44.086	29.981	1288.568	1076.300
-43.071	29.947	1286.232	1074.110
-42.057	29.849	1284.577	1072.117
-41.042	29.826	1283.221	1070.808
-40.027	29.983	1281.369	1070.129
-39.013	29.881	1280.004	1068.355
-37.998	29.938	1277.973	1066.950
-36.984	29.917	1276.505	1065.560
-35.969	29.939	1274.494	1063.962
-34.954	30.003	1272.772	1062.849
-33.940	30.133	1271.316	1062.338
-32.925	30.134	1270.108	1061.295
-31.911	30.046	1268.683	1059.559
-30.896	30.162	1267.034	1058.802
-29.881	30.186	1265.626	1057.719
-28.867	30.132	1264.825	1056.700
-27.852	30.151	1263.166	1055.382
-26.838	30.125	1261.726	1053.988
-25.823	30.197	1260.602	1053.417
-24.809	30.114	1259.415	1051.910
-23.794	30.092	1258.109	1050.655
-22.779	30.051	1256.866	1049.343
-21.765	30.131	1255.267	1048.418
-20.750	30.166	1253.767	1047.319
-19.736	30.046	1252.397	1045.458
-18.721	30.060	1251.354	1044.625
-17.706	29.972	1250.302	1043.209
-16.692	29.985	1249.458	1042.537
-15.677	30.002	1248.393	1041.700
-14.663	29.909	1247.707	1040.563
-13.648	29.936	1246.190	1039.413
-12.633	30.010	1244.575	1038.435
-11.619	30.047	1244.271	1038.351
-10.604	29.865	1243.440	1036.593
-9.590	29.859	1242.315	1035.583
-8.575	29.899	1241.239	1034.867
-7.560	30.016	1240.236	1034.646
-6.546	29.844	1239.919	1033.380
-5.531	29.812	1239.093	1032.468
-4.517	29.902	1237.784	1031.839
-3.502	30.030	1236.929	1031.801
-2.487	29.866	1236.289	1030.310
-1.473	30.119	1231.928	1028.040
-0.458	28.797	1217.823	1008.974
0.556	23.208	1202.281	975.359
1.571	19.874	1207.572	961.080
2.586	19.173	1222.095	968.611
3.600	18.922	1210.551	957.978
4.615	14.105	1139.820	876.593
5.629	4.994	1064.568	773.607
6.644	0.260	1043.825	735.395
7.659	-0.196	1041.082	731.177
8.673	-0.359	1040.485	729.903
9.688	-0.273	1038.035	728.536
10.702	0.194	1037.755	730.542
11.717	6.351	1046.096	766.391
12.731	15.467	1058.681	820.273
13.746	19.876	1063.854	845.810
14.761	20.922	1064.928	851.702
15.775	20.840	1064.732	851.067
16.790	20.746	1063.869	849.846
17.804	20.514	1063.578	848.404
18.819	20.813	1062.990	849.321
19.834	20.780	1062.587	848.763
20.848	20.820	1062.348	848.693
21.863	20.852	1061.770	848.311
22.877	20.856	1060.929	847.581
23.892	20.819	1060.130	846.690
24.907	20.714	1059.447	845.558
25.921	20.767	1058.282	844.810
26.936	20.784	1057.109	843.880
27.950	20.711	1055.429	842.113
28.965	20.581	1053.535	839.898
29.980	20.599	1052.007	838.692
30.994	20.798	1051.239	838.968
32.009	20.841	1050.016	838.124
33.023	20.627	1048.557	835.858
34.038	20.796	1048.299	836.387
35.053	20.851	1047.604	836.024
36.067	20.933	1046.589	835.534
37.082	20.967	1045.941	835.104
38.096	21.056	1045.100	834.785
39.111	21.059	1044.582	834.314
40.126	21.015	1042.433	832.313
41.140	20.558	1041.237	829.102
42.155	20.408	1039.776	827.154
43.169	20.399	1039.474	826.797
44.184	20.578	1038.204	826.564
45.199	20.302	1037.411	824.550
46.213	20.456	1036.057	824.130
47.228	20.739	1034.843	824.433
48.242	20.571	1034.717	823.463
49.257	20.857	1033.617	823.867
50.271	20.956	1032.637	823.480
51.286	20.845	1032.273	822.594
52.301	20.893	1031.281	821.957
53.315	20.840	1030.569	821.068
54.330	20.793	1029.429	819.865
55.344	20.888	1028.833	819.767
56.359	20.785	1027.432	818.092
57.374	20.596	1026.999	816.788
58.388	20.664	1025.928	816.183
59.403	20.563	1024.873	814.799
60.417	20.359	1024.451	813.437
61.432	20.597	1023.467	813.695
62.447	20.599	1022.980	813.245
63.461	20.741	1021.855	812.942
64.476	20.599	1020.946	811.482
65.490	20.539	1019.718	810.157
66.505	20.507	1019.861	810.050
67.520	20.597	1018.694	809.469
68.534	20.452	1017.517	807.790
69.549	20.023	1016.702	805.077
70.563	20.089	1015.803	804.602
71.578	20.103	1015.060	804.005
72.593	19.892	1014.196	802.270
73.607	20.040	1013.542	802.368
74.622	20.495	1013.076	804.036
75.636	20.407	1012.371	802.998
76.651	20.256	1011.581	801.605
77.666	20.178	1010.767	800.527
78.680	20.412	1010.119	801.022
79.695	20.360	1009.689	800.370
80.709	20.548	1008.645	800.336
81.724	20.362	1008.256	799.103
82.739	20.438	1007.534	798.809
83.753	20.942	1006.378	800.137
84.768	21.096	1005.923	800.410
85.782	21.178	1004.787	799.811
86.797	21.108	1004.058	798.841
87.812	20.877	1003.112	796.960
88.826	21.113	1001.955	797.046
89.841	21.088	1001.351	796.383
90.855	21.075	1000.275	795.398
91.870	20.964	999.412	794.132
92.884	20.915	998.364	793.006
93.899	20.754	997.363	791.409
94.914	21.081	996.106	791.827
95.928	20.809	995.172	789.782
96.943	20.737	993.837	788.326
97.957	20.403	992.937	786.032
98.972	20.352	991.443	784.548
99.987	20.592	990.653	784.938
101.001	20.778	990.556	785.631
102.016	20.727	989.560	784.543
103.030	20.684	988.474	783.416
104.045	20.560	987.109	781.708
105.060	20.318	985.893	779.590
106.074	20.661	985.432	780.694
107.089	20.967	985.061	781.707
108.103	20.771	983.823	779.776
109.118	20.690	982.415	778.229
110.133	20.521	981.451	776.643
111.147	20.476	980.004	775.226
112.162	20.411	979.574	774.530
113.176	20.630	978.828	774.847
114.191	20.422	977.801	773.039
115.206	20.216	976.698	771.182
116.220	20.149	975.629	769.971
117.235	20.243	975.103	769.906
118.249	20.208	974.196	768.968
119.264	20.195	973.252	768.097
120.279	20.235	972.550	767.651
121.293	20.411	971.267	767.350
122.308	20.406	970.446	766.611
123.322	20.282	969.505	765.252
124.337	20.107	968.388	763.533
125.352	19.734	966.356	760.223
126.366	19.644	965.245	758.885
127.381	20.468	965.293	762.476
128.395	20.769	965.197	763.650
129.410	20.833	964.128	763.019
130.424	20.758	963.179	761.870
131.439	20.773	962.014	760.949
132.454	20.670	961.459	759.994
133.468	20.653	960.456	759.057
134.483	20.755	959.750	758.879
135.497	20.994	958.891	759.172
136.512	20.981	958.186	758.489
137.527	20.957	957.594	757.849
138.541	20.842	956.975	756.793
139.556	20.979	955.981	756.537
140.570	21.068	955.264	756.285
141.585	20.964	954.561	755.213
142.600	20.918	953.163	753.840
143.614	21.222	952.624	754.664
144.629	21.234	951.931	754.098
145.643	21.108	950.668	752.485
146.658	21.005	949.011	750.665
147.673	20.955	947.952	749.546
148.687	20.797	947.052	748.090
149.702	20.813	946.006	747.268
150.716	20.803	944.851	746.245
151.731	20.893	944.870	746.581
152.746	21.043	944.388	746.775
153.760	21.261	943.110	746.632
154.775	21.275	942.829	746.402
155.789	21.186	941.760	745.111
156.804	21.082	941.096	744.077
157.819	21.231	940.046	743.814
158.833	21.255	939.686	743.565
159.848	21.295	938.615	742.822
160.862	21.164	937.258	741.124
161.877	21.212	936.361	740.555
162.892	21.217	935.712	739.998
163.906	21.137	934.627	738.734
164.921	21.098	934.320	738.261
165.935	21.177	933.097	737.564
166.950	21.205	931.682	736.498
167.964	21.097	931.421	735.770
168.979	20.994	930.284	734.375
169.994	20.979	929.179	733.376
171.008	21.220	928.663	733.915
172.023	21.246	927.948	733.393
173.037	21.009	926.861	731.476
174.052	20.748	925.870	729.537
175.067	20.859	925.491	729.636
176.081	21.152	924.581	730.081
177.096	20.911	923.954	728.515
178.110	20.720	922.876	726.804
179.125	20.615	921.975	725.590
180.140	20.732	921.934	725.981
181.154	20.697	922.145	725.939
182.169	21.097	921.729	727.214
183.183	21.115	921.435	726.993
184.198	21.123	919.531	725.460
185.213	21.123	918.792	724.813
186.227	21.209	918.566	724.927
187.242	21.026	918.266	723.866
188.256	21.265	917.147	723.911
189.271	21.290	916.864	723.726
190.286	20.946	915.316	721.018
191.300	20.422	914.228	717.931
192.315	19.843	912.537	714.151
193.329	19.561	912.589	712.963
194.344	20.387	913.081	716.698
195.359	20.931	912.938	718.765
196.373	21.127	912.059	718.817
197.388	21.007	910.882	717.333
198.402	20.982	910.636	716.972
199.417	21.079	909.901	716.726
200.432	20.644	909.088	714.240
201.446	20.534	908.740	713.451
202.461	20.756	907.524	713.341
203.475	19.762	906.092	708.083
204.490	19.109	904.570	704.163
205.504	20.028	904.804	708.039
206.519	20.653	905.035	710.713
207.534	20.808	904.321	710.721
208.548	21.157	904.458	712.192
209.563	20.881	902.746	709.655
210.577	20.810	902.859	709.391
211.592	21.235	902.141	710.496
212.607	21.121	901.098	709.148
213.621	21.276	900.455	709.207
214.636	21.316	899.701	708.713
215.650	21.152	898.717	707.210
216.665	21.241	898.665	707.470
217.680	21.435	897.285	707.102
218.694	20.658	896.791	703.511
219.709	20.735	895.713	702.913
220.723	20.947	895.498	703.539
221.738	21.126	894.828	703.673
222.753	21.089	894.100	702.888
223.767	21.182	893.760	702.933
224.782	21.342	893.676	703.450
225.796	21.275	893.143	702.700
226.811	20.601	891.731	698.818
227.826	20.207	889.955	695.783
228.840	20.331	889.774	696.076
229.855	20.389	888.878	695.549
230.869	20.072	887.867	693.428
231.884	20.462	888.186	695.177
232.899	21.211	888.000	697.961
233.913	21.058	887.173	696.641
234.928	21.046	886.741	696.193
235.942	21.028	885.991	695.470
236.957	20.719	884.857	693.287
237.972	20.676	884.799	693.009
238.986	20.823	884.107	692.992
240.001	20.765	883.823	692.477
241.015	20.813	883.372	692.251
242.030	20.865	882.718	691.883
243.045	21.040	882.224	692.131
244.059	21.285	881.601	692.552
245.074	21.046	880.403	690.604
246.088	20.616	879.700	688.289
247.103	21.149	879.299	690.021
248.117	21.599	879.358	691.785
249.132	21.654	878.695	691.422
250.147	21.715	878.312	691.301
251.161	21.852	877.856	691.420
252.176	21.889	877.338	691.097
253.190	21.942	876.591	690.653
254.205	22.115	876.371	691.103
255.220	22.070	875.508	690.182
256.234	21.852	874.658	688.597
257.249	21.796	873.671	687.537
258.263	21.903	873.021	687.385
259.278	21.887	872.498	686.852
260.293	21.848	872.338	686.509
261.307	21.700	871.786	685.435
262.322	21.768	870.251	684.435
263.336	20.846	868.501	679.403
264.351	19.912	866.634	674.247
265.366	20.043	866.298	674.435
266.380	21.093	867.487	679.391
267.395	21.605	866.591	680.622
268.409	21.464	866.010	679.557
269.424	21.823	865.455	680.453
270.439	21.769	864.849	679.707
271.453	21.841	864.307	679.501
272.468	22.046	864.034	680.019
273.482	22.063	863.367	679.499
274.497	21.463	862.551	676.477
275.512	21.179	861.570	674.554
276.526	21.738	861.540	676.627
277.541	21.756	861.283	676.436
278.555	21.501	860.257	674.586
279.570	21.486	859.414	673.807
280.585	21.564	858.946	673.681
281.599	21.664	858.040	673.296
282.614	20.944	856.742	669.453
283.628	21.107	856.288	669.666
284.643	21.314	856.183	670.318
285.657	20.948	854.672	667.673
286.672	20.659	854.203	666.145
287.687	21.240	854.500	668.540
288.701	21.452	853.468	668.486
289.716	20.952	853.170	666.282
290.730	21.047	851.631	665.384
291.745	20.673	851.096	663.480
292.760	21.029	851.381	664.999
293.774	22.013	851.339	668.657
294.789	22.387	850.790	669.589
295.803	22.354	850.411	669.108
296.818	22.358	850.083	668.806
297.833	21.807	848.905	665.729
298.847	21.712	848.152	664.718
299.862	22.247	847.660	666.301
300.876	22.149	847.782	665.968
301.891	22.238	846.991	665.625
302.906	21.760	845.509	662.593
303.920	21.883	845.526	663.013
304.935	22.123	845.325	663.705
305.949	22.131	844.616	663.117
306.964	21.998	843.522	661.699
307.979	22.144	843.215	661.950
308.993	22.373	843.080	662.646
310.008	22.372	842.319	661.989
311.022	22.011	841.713	660.095
312.037	22.035	841.098	659.646
313.052	21.842	839.829	657.867
314.066	20.898	838.512	653.240
315.081	20.578	838.346	651.856
316.095	21.602	838.356	655.642
317.110	21.933	837.689	656.300
318.125	21.167	836.463	652.420
319.139	20.061	835.303	647.327
320.154	20.009	835.223	647.014
321.168	20.971	835.314	650.620
322.183	21.637	835.405	653.115
323.197	21.786	835.064	653.349
324.212	21.878	834.836	653.454
325.227	22.010	833.856	653.122
326.241	21.956	833.127	652.289
327.256	21.982	832.456	651.804
328.270	21.835	831.897	650.765
329.285	21.572	831.478	649.403
330.300	21.427	830.446	648.004
331.314	21.681	830.039	648.569
332.329	21.957	830.207	649.664
333.343	22.115	829.694	649.789
334.358	22.243	829.174	649.798
335.373	22.254	828.809	649.493
336.387	22.406	828.795	649.989
337.402	22.357	829.162	650.038
338.416	22.348	828.416	649.362
339.431	22.580	827.826	649.696
340.446	22.728	827.724	650.103
341.460	22.568	827.073	648.947
342.475	22.392	826.527	647.813
343.489	22.513	826.245	647.979
344.504	22.866	825.922	648.965
345.519	23.020	825.415	649.077
346.533	22.975	825.171	648.661
347.548	22.928	824.938	648.246
348.562	22.975	824.154	647.749
349.577	23.007	823.354	647.177
350.592	22.964	822.550	646.331
351.606	22.869	821.984	645.483
352.621	22.741	821.187	644.334
353.635	22.831	820.373	643.964
354.650	21.985	818.865	639.642
355.665	21.145	817.542	635.494
356.679	21.571	817.367	636.854
357.694	22.036	816.836	638.074
358.708	21.903	816.189	637.029
359.723	22.388	816.208	638.748
360.738	22.525	815.878	638.931
361.752	22.730	815.246	639.122
362.767	22.945	814.911	639.580
363.781	23.121	814.804	640.076
364.796	23.129	814.294	639.647
365.810	23.360	814.284	640.417
366.825	23.338	813.310	639.516
367.840	22.948	812.816	637.665
368.854	22.735	811.494	635.803
369.869	22.560	811.760	635.323
370.883	22.560	811.237	634.859
371.898	22.469	810.392	633.815
372.913	22.632	810.345	634.309
373.927	22.748	809.963	634.369
374.942	22.771	809.347	633.912
375.956	22.994	808.960	634.355
376.971	23.077	808.958	634.595
377.986	23.162	808.306	634.333
379.000	23.262	807.479	633.984
380.015	22.969	807.512	632.905
381.029	22.895	807.209	632.347
382.044	23.233	806.286	632.776
383.059	23.103	805.494	631.636
384.073	23.221	805.065	631.664
385.088	23.167	804.614	631.063
386.102	23.014	803.742	629.776
387.117	22.911	802.932	628.720
388.132	22.565	802.108	626.789
389.146	22.156	801.233	624.595
390.161	22.385	801.647	625.678
391.175	23.001	801.101	627.384
392.190	22.805	799.705	625.540
393.205	21.302	798.147	618.947
394.219	19.881	796.176	612.340
395.234	19.928	795.883	612.224
396.248	21.482	797.832	619.173
397.263	22.888	798.322	624.475
398.278	22.764	797.879	623.636
399.292	22.487	797.386	622.218
400.307	22.689	796.469	622.157
401.321	22.742	795.821	621.784
402.336	23.251	795.714	623.439
403.350	23.437	795.780	624.089
404.365	23.601	795.898	624.705
405.380	23.874	795.496	625.295
406.394	23.930	794.883	624.955
407.409	23.722	794.809	624.109
408.423	23.912	794.057	624.129
409.438	23.754	793.869	623.373
410.453	23.757	793.707	623.202
411.467	23.808	792.808	622.618
412.482	23.884	792.239	622.383
413.496	23.995	791.936	622.476
414.511	23.735	791.889	621.475
415.526	23.898	791.215	621.463
416.540	23.747	790.632	620.424
417.555	23.528	789.799	618.950
418.569	23.679	789.329	619.052
419.584	23.662	788.724	618.465
420.599	23.332	788.509	617.091
421.613	157.125	1365.501	1798.110
422.628	135.984	1449.544	1798.194
