DTS Sentinel unit serial number:	SN413079Multiplexer serial number:	ORYXHardware model number:	OX4-SRSoftware version number:	ORYX F/W v4.00 Oryx Data Collector v3.7.2.0data status	okinstallation	princeton_trtdifferential loss correction	single-endedforward channel	channel 1reverse channel	N/Adate	2019/09/12time	02:08:11forward acquisition time	60.00reverse acquisition time	0.00gamma	496.2192k internal	0.2320k external	0.2320temperature offset calibration	1.0082default loss term (dB/km)	0.3790temperature slope calibration	1.0000multiplexer offset coefficient	1.0000multiplexer slope coefficient	1.0000fibre end	0.00T internal ref (°C)	32.69T ext. ref 1 (°C)	2.07T ext. ref 2 (°C)	27.36length (m)	temperature (°C)	Stokes	anti-Stokes-747.200	-39.246	0.259	-0.138
-746.185	192.218	-0.084	0.127
-745.171	800.000	-0.032	-0.141
-744.156	-83.961	0.316	0.102
-743.142	-144.525	0.155	0.015
-742.127	800.000	-0.032	0.129
-741.112	-181.636	-0.352	-0.007
-740.098	321.445	-0.095	-0.182
-739.083	-24.686	-0.534	0.321
-738.069	66.469	0.107	0.110
-737.054	228.085	-0.052	-0.086
-736.039	-121.541	-0.221	0.037
-735.025	-39.699	0.353	0.187
-734.010	800.000	-0.098	-0.316
-732.996	-109.249	0.136	-0.029
-731.981	800.000	-0.118	0.396
-730.966	244.618	-0.274	-0.465
-729.952	286.716	-0.077	-0.141
-728.937	119.509	-0.112	0.140
-727.923	-112.126	0.334	0.068
-726.908	-200.000	-0.035	-0.204
-725.894	-200.000	0.005	-0.323
-724.879	92.022	0.184	-0.209
-723.864	199.739	0.248	0.384
-722.850	324.293	0.085	-0.163
-721.835	-23.948	0.249	-0.151
-720.821	-138.632	0.261	0.029
-719.806	246.755	-0.152	-0.259
-718.791	22.912	0.179	-0.148
-717.777	792.707	-0.014	0.040
-716.762	-200.000	-0.003	0.207
-715.748	-98.833	0.071	-0.018
-714.733	-147.803	0.130	0.011
-713.718	212.766	-0.131	0.209
-712.704	-58.653	0.072	-0.032
-711.689	773.259	-0.151	-0.417
-710.675	150.100	0.052	-0.071
-709.660	800.000	-0.082	-0.257
-708.645	28.893	0.182	0.156
-707.631	154.666	-0.136	-0.189
-706.616	-9.246	0.300	0.203
-705.602	18.994	-0.116	0.094
-704.587	-167.280	0.147	-0.006
-703.572	-200.000	0.017	0.179
-702.558	800.000	-0.046	0.170
-701.543	-83.872	0.167	0.054
-700.529	800.000	0.105	0.328
-699.514	50.435	-0.125	0.119
-698.499	-141.108	-0.139	-0.014
-697.485	191.432	-0.030	-0.046
-696.470	629.146	0.017	0.043
-695.456	-117.675	-0.150	0.027
-694.441	509.853	-0.138	-0.324
-693.426	-3.952	0.158	0.110
-692.412	292.980	-0.076	0.140
-691.397	800.000	0.040	0.151
-690.383	147.691	0.054	0.073
-689.368	800.000	0.076	0.307
-688.354	-200.000	-0.006	-0.137
-687.339	152.256	0.141	-0.195
-686.324	-117.563	0.132	-0.024
-685.310	113.238	0.105	-0.129
-684.295	-159.377	-0.425	-0.024
-683.281	-84.020	-0.209	-0.067
-682.266	-200.000	0.049	-0.309
-681.251	9.668	-0.154	0.117
-680.237	157.617	-0.230	0.321
-679.222	137.723	0.134	0.177
-678.208	-87.660	0.184	0.056
-677.193	-32.088	-0.224	-0.126
-676.178	800.000	0.088	-0.321
-675.164	319.744	0.039	-0.075
-674.149	-200.000	0.022	-0.296
-673.135	373.365	-0.179	0.367
-672.120	-141.263	-0.277	-0.028
-671.105	-73.695	0.182	0.067
-670.091	-174.890	0.318	0.009
-669.076	-200.000	0.028	-0.212
-668.062	222.150	0.061	-0.098
-667.047	-200.000	0.058	0.429
-666.032	-200.000	0.071	-0.367
-665.018	-200.000	-0.025	0.357
-664.003	-2.521	0.067	-0.047
-662.989	-193.799	0.260	-0.002
-661.974	-8.267	0.307	0.209
-660.959	-5.759	-0.501	0.346
-659.945	16.578	0.150	-0.119
-658.930	27.653	-0.097	-0.082
-657.916	104.969	-0.174	-0.207
-656.901	647.537	0.187	-0.481
-655.886	131.856	-0.114	-0.148
-654.872	76.923	-0.081	-0.087
-653.857	293.896	0.025	-0.047
-652.843	49.802	0.134	-0.128
-651.828	-24.941	0.135	0.081
-650.814	-156.889	-0.173	0.011
-649.799	800.000	-0.038	0.144
-648.784	-200.000	-0.027	0.188
-647.770	544.056	0.038	0.091
-646.755	-72.045	-0.093	-0.035
-645.741	-102.550	0.409	-0.098
-644.726	800.000	-0.008	0.023
-643.711	-82.944	0.043	0.014
-642.697	327.910	-0.153	-0.295
-641.682	-200.000	-0.015	-0.366
-640.668	-67.483	-0.271	-0.107
-639.653	349.011	-0.139	-0.277
-638.638	-200.000	0.003	0.050
-637.624	26.601	-0.207	0.174
-636.609	134.450	-0.070	-0.091
-635.595	88.142	0.084	-0.093
-634.580	21.310	-0.118	-0.097
-633.565	17.965	0.178	0.143
-632.551	-79.995	0.272	-0.092
-631.536	-132.937	-0.348	-0.045
-630.522	-200.000	0.047	0.225
-629.507	739.478	-0.048	0.129
-628.492	-26.082	0.116	-0.069
-627.478	-32.549	0.100	0.056
-626.463	-46.245	0.160	-0.079
-625.449	-41.642	-0.243	0.126
-624.434	800.000	0.055	0.163
-623.419	62.639	-0.117	-0.118
-622.405	-19.372	-0.089	-0.055
-621.390	-65.796	-0.058	-0.023
-620.376	112.464	0.070	0.085
-619.361	-200.000	0.049	-0.251
-618.346	43.853	-0.136	-0.125
-617.332	180.656	0.180	0.266
-616.317	165.709	-0.090	0.128
-615.303	413.976	0.120	-0.256
-614.288	-171.132	-0.590	0.020
-613.273	-11.771	-0.118	-0.078
-612.259	-71.257	0.148	0.056
-611.244	121.207	0.182	0.228
-610.230	84.748	0.255	-0.281
-609.215	390.714	0.093	-0.195
-608.201	800.000	0.048	0.171
-607.186	128.960	0.065	-0.084
-606.171	186.378	0.076	-0.113
-605.157	-111.093	-0.082	-0.017
-604.142	12.919	0.121	-0.094
-603.128	-200.000	-0.015	0.227
-602.113	-200.000	0.003	-0.100
-601.098	-176.512	0.307	0.008
-600.084	198.931	-0.042	0.065
-599.069	52.096	0.117	-0.112
-598.055	107.004	-0.132	-0.157
-597.040	-200.000	0.030	0.273
-596.025	800.000	0.079	-0.291
-595.011	13.083	-0.128	0.100
-593.996	51.250	-0.114	0.109
-592.982	48.351	0.097	0.091
-591.967	-64.567	-0.154	0.063
-590.952	-200.000	0.004	0.036
-589.938	-124.175	0.235	-0.037
-588.923	8.137	-0.078	-0.059
-587.909	-1.509	-0.090	0.064
-586.894	146.624	-0.250	-0.337
-585.879	-110.700	0.150	0.031
-584.865	56.657	-0.022	-0.022
-583.850	298.427	-0.239	-0.442
-582.836	-46.062	-0.287	-0.142
-581.821	-68.220	0.134	0.052
-580.806	-148.725	-0.119	-0.010
-579.792	-51.758	0.155	-0.072
-578.777	-124.829	-0.044	-0.007
-577.763	386.553	0.096	0.200
-576.748	81.605	0.371	0.403
-575.733	-17.494	-0.169	0.107
-574.719	583.834	0.100	-0.246
-573.704	-150.851	-0.310	-0.024
-572.690	65.968	-0.125	-0.128
-571.675	-200.000	-0.015	0.206
-570.661	502.968	0.032	-0.075
-569.646	85.271	0.046	-0.050
-568.631	-86.328	0.133	-0.041
-567.617	-56.416	0.384	-0.171
-566.602	-22.327	-0.309	0.188
-565.588	800.000	0.059	-0.176
-564.573	-139.429	0.179	0.019
-563.558	-200.000	0.046	0.272
-562.544	108.743	-0.145	-0.174
-561.529	-61.419	0.177	0.075
-560.515	-27.236	0.050	0.029
-559.500	-135.236	-0.043	-0.005
-558.485	26.294	-0.279	-0.234
-557.471	117.275	-0.022	-0.027
-556.456	800.000	0.081	0.225
-555.442	264.112	-0.152	-0.265
-554.427	124.425	0.208	-0.262
-553.412	35.425	-0.218	0.192
-552.398	-200.000	0.002	-0.166
-551.383	-158.269	-0.078	-0.005
-550.369	-82.587	-0.298	0.097
-549.354	175.743	-0.167	-0.243
-548.339	-200.000	-0.013	-0.084
-547.325	-200.000	-0.021	0.452
-546.310	-70.858	-0.159	0.060
-545.296	-200.000	-0.054	-0.486
-544.281	-137.611	-0.187	-0.021
-543.266	76.758	0.195	0.208
-542.252	-179.537	0.219	-0.005
-541.237	27.175	-0.189	-0.159
-540.223	800.000	-0.027	-0.104
-539.208	800.000	-0.138	-0.405
-538.193	-29.451	0.125	-0.072
-537.179	68.958	0.115	-0.119
-536.164	-111.185	-0.322	-0.066
-535.150	-21.573	0.393	-0.240
-534.135	64.461	0.198	-0.200
-533.121	264.027	-0.070	-0.123
-532.106	-99.255	-0.345	0.087
-531.091	-160.980	0.440	-0.023
-530.077	-58.714	0.494	-0.214
-529.062	19.761	0.180	0.145
-528.048	160.279	0.172	0.240
-527.033	-106.120	-0.211	-0.048
-526.018	-9.029	-0.211	0.142
-525.004	-109.617	0.060	-0.013
-523.989	-25.333	-0.222	-0.132
-522.975	-200.000	0.016	0.108
-521.960	376.483	-0.020	-0.040
-520.945	-146.262	0.255	-0.022
-519.931	800.000	0.010	-0.040
-518.916	-200.000	0.016	0.308
-517.902	583.119	-0.110	0.271
-516.887	396.103	-0.082	-0.171
-515.872	135.166	-0.068	-0.089
-514.858	197.705	-0.040	0.062
-513.843	-172.728	0.191	-0.006
-512.829	-57.537	0.313	0.138
-511.814	-33.843	-0.181	-0.100
-510.799	-163.545	-0.350	-0.017
-509.785	-39.264	-0.096	0.051
-508.770	41.692	-0.183	-0.166
-507.756	-10.382	0.093	-0.062
-506.741	800.000	0.014	0.061
-505.726	-106.176	0.308	-0.069
-504.712	99.327	-0.075	-0.087
-503.697	-200.000	0.016	-0.333
-502.683	-200.000	-0.027	-0.147
-501.668	189.185	-0.129	0.193
-500.653	-12.911	0.048	-0.031
-499.639	291.107	0.071	0.129
-498.624	-77.919	0.074	-0.026
-497.610	-122.624	0.193	-0.031
-496.595	1.583	0.022	0.016
-495.581	78.759	0.078	0.084
-494.566	1.905	-0.059	-0.043
-493.551	-93.284	-0.462	0.128
-492.537	-27.431	-0.152	0.089
-491.522	-77.244	0.107	-0.037
-490.508	-14.805	-0.244	0.157
-489.493	664.452	-0.092	0.239
-488.478	92.464	-0.163	0.184
-487.464	-162.004	0.205	0.010
-486.449	800.000	-0.080	0.286
-485.435	381.054	-0.133	0.274
-484.420	403.191	0.227	0.478
-483.405	92.893	0.035	-0.040
-482.391	17.801	-0.266	-0.212
-481.376	14.283	0.225	0.175
-480.362	-38.748	0.032	0.017
-479.347	-140.057	-0.047	0.005
-478.332	238.534	0.281	-0.467
-477.318	-36.395	-0.169	-0.091
-476.303	-126.080	0.351	-0.053
-475.289	-96.522	0.315	0.083
-474.274	-40.097	-0.131	0.068
-473.259	-144.100	0.183	-0.017
-472.245	650.537	-0.088	-0.225
-471.230	209.818	-0.142	-0.223
-470.216	58.849	0.064	0.063
-469.201	-164.680	-0.364	0.016
-468.186	-200.000	-0.111	0.630
-467.172	-185.484	-0.240	0.004
-466.157	23.324	0.065	0.054
-465.143	-200.000	-0.053	-0.412
-464.128	-200.000	0.018	-0.298
-463.113	-200.000	-0.038	-0.174
-462.099	-149.786	-0.286	-0.022
-461.084	-200.000	0.066	0.371
-460.070	40.098	-0.110	-0.098
-459.055	37.219	-0.183	0.162
-458.040	-182.039	0.211	-0.004
-457.026	-200.000	0.027	-0.365
-456.011	385.775	-0.044	-0.091
-454.997	114.658	0.209	-0.254
-453.982	538.737	0.055	-0.131
-452.968	-11.051	-0.335	-0.221
-451.953	-154.093	-0.245	-0.017
-450.938	-103.540	0.186	0.044
-449.924	418.391	0.050	-0.107
-448.909	249.304	0.122	0.206
-447.895	-200.000	-0.012	-0.310
-446.880	-200.000	0.001	-0.226
-445.865	107.559	0.143	0.171
-444.851	51.235	0.152	0.144
-443.836	318.914	0.010	-0.018
-442.822	-156.827	-0.247	-0.015
-441.807	183.443	-0.172	-0.254
-440.792	57.825	0.091	0.088
-439.778	59.854	0.171	-0.168
-438.763	-52.799	0.108	-0.050
-437.749	747.838	0.145	0.390
-436.734	-106.015	-0.068	-0.015
-435.719	800.000	0.066	-0.204
-434.705	-64.575	-0.186	0.076
-433.690	163.821	-0.142	-0.200
-432.676	326.357	0.145	-0.278
-431.661	-70.086	0.397	-0.151
-430.646	-50.246	-0.460	0.217
-429.632	-35.965	-0.081	0.044
-428.617	-109.651	-0.269	0.057
-427.603	-139.697	-0.208	-0.022
-426.588	515.112	0.016	-0.036
-425.573	389.720	0.105	0.218
-424.559	-83.797	0.308	0.098
-423.544	-148.882	-0.066	-0.005
-422.530	646.423	-0.055	0.140
-421.515	-126.082	0.324	0.049
-420.500	-31.162	0.240	0.135
-419.486	92.455	0.156	0.175
-418.471	-23.011	0.191	-0.115
-417.457	-200.000	-0.007	-0.311
-416.442	207.097	-0.191	-0.297
-415.428	-56.576	0.200	0.088
-414.413	-200.000	0.032	0.165
-413.398	27.165	0.223	-0.187
-412.384	-200.000	-0.041	-0.209
-411.369	-44.053	0.280	0.141
-410.355	50.293	0.338	-0.319
-409.340	-9.575	-0.231	0.153
-408.325	-116.363	-0.265	0.049
-407.311	52.103	0.104	0.099
-406.296	800.000	0.081	0.273
-405.282	-7.563	-0.178	-0.120
-404.267	-100.639	0.200	-0.049
-403.252	-13.363	-0.152	-0.098
-402.238	97.644	0.236	-0.271
-401.223	662.028	-0.054	-0.139
-400.209	415.092	0.102	0.216
-399.194	-144.680	0.218	-0.020
-398.179	12.612	-0.153	-0.117
-397.165	-200.000	0.012	0.157
-396.150	-70.574	0.369	-0.139
-395.136	-188.475	0.249	-0.003
-394.121	55.118	0.090	-0.087
-393.106	5.372	0.036	-0.026
-392.092	-181.391	-0.422	0.008
-391.077	51.667	-0.016	0.015
-390.063	-114.661	0.155	0.030
-389.048	-200.000	0.032	0.267
-388.033	-86.619	-0.051	0.016
-387.019	-25.647	-0.077	-0.046
-386.004	67.216	-0.081	0.082
-384.990	-52.070	-0.083	0.038
-383.975	-49.315	-0.189	0.090
-382.960	49.201	0.327	-0.306
-381.946	0.490	-0.137	0.098
-380.931	-200.000	-0.001	-0.037
-379.917	-118.072	0.288	-0.051
-378.902	800.000	0.055	-0.231
-377.888	-164.482	0.169	0.008
-376.873	262.601	0.095	0.164
-375.858	-58.077	0.161	-0.070
-374.844	-74.998	-0.311	-0.111
-373.829	-77.913	0.065	0.022
-372.815	75.828	-0.085	0.090
-371.800	27.009	-0.099	0.082
-370.785	-200.000	0.033	-0.196
-369.771	-182.044	-0.271	-0.005
-368.756	386.980	-0.175	0.360
-367.742	-113.689	-0.227	0.044
-366.727	-73.779	0.163	-0.059
-365.712	621.029	0.057	0.142
-364.698	-112.007	0.202	-0.041
-363.683	-200.000	-0.009	-0.150
-362.669	-200.000	0.055	-0.346
-361.654	-100.921	0.197	-0.048
-360.639	-2.612	0.220	0.154
-359.625	-97.794	-0.341	-0.088
-358.610	341.099	0.075	0.147
-357.596	182.809	0.112	0.164
-356.581	32.498	0.307	0.264
-355.566	64.747	0.296	0.298
-354.552	-200.000	0.002	-0.218
-353.537	800.000	-0.012	0.044
-352.523	-200.000	-0.005	0.153
-351.508	0.246	-0.270	-0.192
-350.493	-83.852	0.349	0.111
-349.479	-45.926	0.229	0.112
-348.464	800.000	0.069	0.236
-347.450	109.153	0.143	-0.170
-346.435	61.967	-0.160	0.159
-345.420	-161.064	-0.189	-0.010
-344.406	-200.000	0.034	-0.441
-343.391	-89.176	0.180	-0.053
-342.377	-7.782	0.232	-0.156
-341.362	460.047	-0.117	0.259
-340.348	-200.000	-0.053	-0.364
-339.333	-0.963	-0.389	0.274
-338.318	-200.000	-0.021	-0.361
-337.304	-200.000	-0.013	0.121
-336.289	800.000	0.025	-0.088
-335.275	-111.032	-0.495	0.101
-334.260	10.010	-0.141	0.106
-333.245	58.399	0.085	0.083
-332.231	-124.915	-0.293	0.045
-331.216	-200.000	-0.001	0.115
-330.202	-138.832	-0.282	-0.031
-329.187	-200.000	0.010	-0.170
-328.172	516.674	-0.084	-0.195
-327.158	41.530	0.175	-0.157
-326.143	171.464	0.152	-0.217
-325.129	-52.855	-0.169	-0.077
-324.114	800.000	0.035	0.101
-323.099	-159.780	0.210	-0.011
-322.085	79.267	0.049	0.052
-321.070	-105.824	0.179	-0.040
-320.056	12.332	0.063	-0.048
-319.041	104.815	-0.091	-0.107
-318.026	-200.000	-0.016	0.186
-317.012	166.432	0.132	0.186
-315.997	-200.000	0.003	-0.261
-314.983	24.274	-0.063	-0.051
-313.968	-51.247	-0.172	-0.080
-312.953	800.000	0.118	0.387
-311.939	-196.316	-0.351	0.002
-310.924	-88.780	0.340	-0.100
-309.910	63.991	-0.162	0.161
-308.895	267.857	-0.137	-0.239
-307.880	336.646	-0.062	-0.120
-306.866	89.354	-0.032	0.035
-305.851	-109.939	0.267	-0.056
-304.837	333.966	-0.098	-0.189
-303.822	800.000	-0.025	-0.070
-302.807	137.647	0.110	0.143
-301.793	41.549	-0.146	0.131
-300.778	-164.774	0.373	-0.017
-299.764	168.884	-0.161	0.228
-298.749	-163.467	-0.171	-0.008
-297.735	-101.154	-0.174	0.042
-296.720	795.120	0.049	-0.133
-295.705	240.140	0.212	0.351
-294.691	-27.207	0.160	-0.093
-293.676	4.815	0.065	-0.048
-292.662	-161.001	0.115	-0.006
-291.647	-75.501	-0.329	0.116
-290.632	75.292	-0.053	0.056
-289.618	-17.597	0.242	-0.151
-288.603	-200.000	0.006	0.202
-287.589	800.000	0.055	0.199
-286.574	-200.000	-0.029	0.235
-285.559	-200.000	0.023	-0.108
-284.545	1.911	-0.135	-0.097
-283.530	41.818	-0.112	0.101
-282.516	-200.000	0.007	0.184
-281.501	-106.699	-0.033	0.007
-280.486	-200.000	-0.033	-0.173
-279.472	71.295	0.098	0.100
-278.457	7.552	0.183	0.136
-277.443	9.981	-0.158	0.119
-276.428	33.959	-0.216	-0.187
-275.413	-200.000	-0.006	0.067
-274.399	-67.876	-0.262	0.102
-273.384	-200.000	-0.048	-0.219
-272.370	800.000	0.116	0.434
-271.355	-54.684	-0.144	0.064
-270.340	-21.938	0.297	-0.179
-269.326	65.685	0.096	-0.096
-268.311	800.000	0.021	-0.062
-267.297	252.636	-0.147	0.248
-266.282	-83.809	-0.138	0.044
-265.267	116.323	0.217	0.264
-264.253	-112.339	0.219	-0.043
-263.238	0.267	-0.156	0.110
-262.224	-200.000	-0.022	-0.129
-261.209	502.565	0.111	-0.254
-260.195	70.158	0.158	-0.162
-259.180	178.946	-0.176	0.255
-258.165	-10.855	-0.367	0.241
-257.151	-200.000	-0.013	0.117
-256.136	700.767	0.055	-0.144
-255.122	48.703	-0.092	0.086
-254.107	465.761	-0.088	-0.196
-253.092	232.247	-0.137	-0.224
-252.078	-51.971	-0.147	0.068
-251.063	-142.907	0.111	0.011
-250.049	6.731	0.091	0.067
-249.034	383.252	0.175	0.356
-248.019	179.016	-0.106	0.154
-247.005	-109.356	-0.258	0.054
-245.990	-200.000	0.031	-0.279
-244.976	-200.000	-0.095	-0.412
-243.961	-56.519	-0.170	0.075
-242.946	-200.000	0.017	0.077
-241.932	-34.336	-0.356	-0.193
-240.917	-103.537	0.277	-0.064
-239.903	-200.000	-0.003	0.029
-238.888	-140.185	0.189	0.020
-237.873	-200.000	-0.067	0.294
-236.859	800.000	0.093	0.316
-235.844	-13.263	0.220	-0.141
-234.830	-94.320	-0.228	0.062
-233.815	800.000	0.054	-0.157
-232.800	800.000	0.057	-0.191
-231.786	123.279	-0.064	-0.079
-230.771	-49.466	0.013	-0.006
-229.757	-123.203	0.338	-0.054
-228.742	-122.420	0.172	0.028
-227.727	516.446	-0.083	-0.193
-226.713	30.484	0.116	0.098
-225.698	-159.506	-0.373	-0.021
-224.684	99.363	0.027	0.031
-223.669	-109.948	0.163	-0.034
-222.655	418.132	0.154	0.325
-221.640	800.000	0.085	0.318
-220.625	-200.000	0.002	0.124
-219.611	-45.290	-0.047	0.023
-218.596	-200.000	-0.012	0.178
-217.582	-16.687	0.117	0.073
-216.567	800.000	0.039	0.158
-215.552	-101.651	-0.213	-0.051
-214.538	-79.243	-0.159	0.053
-213.523	150.846	0.060	0.080
-212.509	-131.607	-0.107	0.014
-211.494	2.733	0.085	-0.061
-210.479	154.178	0.059	0.080
-209.465	129.115	0.105	-0.133
-208.450	800.000	0.051	-0.155
-207.436	81.084	-0.045	0.049
-206.421	78.337	-0.216	-0.229
-205.406	800.000	0.036	0.123
-204.392	484.827	0.076	-0.170
-203.377	329.415	0.084	-0.160
-202.363	-165.632	-0.449	-0.019
-201.348	-130.228	0.142	0.019
-200.333	229.906	-0.076	0.122
-199.319	800.000	-0.065	0.248
-198.304	800.000	-0.106	0.344
-197.290	31.151	0.111	0.094
-196.275	-16.405	-0.119	-0.075
-195.260	-34.084	-0.156	0.085
-194.246	-67.027	-0.017	0.007
-193.231	-200.000	-0.006	-0.251
-192.217	225.203	-0.028	-0.044
-191.202	-33.669	0.268	0.147
-190.187	-200.000	0.072	-0.463
-189.173	7.980	-0.219	0.163
-188.158	133.707	-0.086	-0.109
-187.144	366.252	-0.142	-0.283
-186.129	215.839	-0.180	0.283
-185.114	800.000	0.042	0.138
-184.100	-104.053	-0.178	0.041
-183.085	778.109	-0.093	-0.252
-182.071	20.108	0.283	-0.226
-181.056	99.034	-0.126	-0.144
-180.042	-102.432	-0.246	0.058
-179.027	61.691	0.035	0.035
-178.012	46.174	0.291	0.266
-176.998	-70.785	0.153	-0.057
-175.983	-8.178	0.360	-0.240
-174.969	800.000	0.083	-0.301
-173.954	-200.000	-0.001	0.121
-172.939	-188.682	0.321	-0.004
-171.925	-40.399	0.050	-0.026
-170.910	-87.500	-0.189	0.057
-169.896	-200.000	-0.018	0.135
-168.881	37.207	0.144	0.126
-167.866	-200.000	-0.061	0.360
-166.852	-102.112	-0.183	0.043
-165.837	-97.896	0.186	-0.047
-164.823	48.829	-0.147	0.136
-163.808	-176.989	-0.125	-0.003
-162.793	208.843	0.234	0.362
-161.779	-95.979	-0.255	-0.067
-160.764	366.325	-0.075	0.150
-159.750	187.456	-0.035	-0.051
-158.735	-200.000	-0.015	0.366
-157.720	3.619	0.068	0.049
-156.706	91.572	0.080	0.088
-155.691	441.215	-0.197	0.426
-154.677	338.544	-0.149	0.286
-153.662	800.000	-0.054	0.203
-152.647	-117.417	0.409	-0.073
-151.633	226.801	0.058	0.093
-150.618	316.744	0.129	0.241
-149.604	-111.726	0.322	0.064
-148.589	-9.072	-0.292	0.193
-147.574	-200.000	-0.060	0.476
-146.560	-153.141	0.102	0.007
-145.545	-185.565	-0.150	0.002
-144.531	-44.513	-0.174	0.086
-143.516	-6.985	-0.223	0.150
-142.502	11.816	0.209	0.158
-141.487	-78.723	0.095	-0.032
-140.472	-200.000	-0.056	0.269
-139.458	160.897	-0.042	0.058
-138.443	-44.393	-0.188	0.093
-137.429	-200.000	0.007	-0.257
-136.414	-156.068	0.225	0.014
-135.399	-200.000	0.037	0.314
-134.385	93.606	-0.341	0.381
-133.370	-81.399	-0.312	0.101
-132.356	800.000	-0.007	-0.022
-131.341	-2.674	-0.195	-0.135
-130.326	23.779	-0.207	0.168
-129.312	-64.410	0.234	0.094
-128.297	166.466	-0.233	0.326
-127.283	643.563	-0.077	0.193
-126.268	7.395	0.112	-0.083
-125.253	-92.970	-0.108	-0.030
-124.239	-32.156	-0.168	0.093
-123.224	-146.156	0.140	-0.012
-122.210	-132.405	-0.239	-0.030
-121.195	38.034	0.396	0.347
-120.180	800.000	0.041	-0.150
-119.166	-136.636	0.021	0.002
-118.151	-21.250	0.220	-0.132
-117.137	196.538	-0.167	0.251
-116.122	-90.641	0.179	-0.051
-115.107	421.909	0.063	0.133
-114.093	-10.675	-0.251	-0.164
-113.078	-200.000	0.016	-0.192
-112.064	-200.000	0.033	0.334
-111.049	-46.872	-0.152	0.073
-110.034	46.028	-0.127	-0.116
-109.020	-200.000	-0.018	0.099
-108.005	-114.701	0.195	0.037
-106.991	-22.525	0.190	0.114
-105.976	166.424	0.192	0.269
-104.962	215.552	-0.155	0.243
-103.947	800.000	0.058	0.210
-102.932	399.398	0.106	-0.220
-101.918	-200.000	0.066	-0.314
-100.903	800.000	0.060	0.218
-99.889	54.407	0.236	-0.224
-98.874	-200.000	-0.013	-0.082
-97.859	-88.237	-0.268	0.079
-96.845	800.000	-0.084	0.309
-95.830	-200.000	-0.006	0.048
-94.816	365.044	-0.042	-0.083
-93.801	66.134	0.112	0.112
-92.786	235.074	-0.036	-0.059
-91.772	-184.348	0.251	-0.004
-90.757	-133.627	0.224	0.028
-89.743	623.997	-0.108	0.267
-88.728	-38.604	0.258	-0.134
-87.713	-34.761	-0.175	-0.094
-86.699	153.350	-0.058	0.078
-85.684	-200.000	0.022	-0.124
-84.670	63.881	0.096	0.096
-83.655	-200.000	0.005	0.188
-82.640	-200.000	0.026	0.236
-81.626	-200.000	-0.090	0.565
-80.611	-70.357	-0.146	0.055
-79.597	-128.874	0.321	-0.044
-78.582	316.734	0.020	-0.038
-77.567	-200.000	0.054	0.251
-76.553	6.468	0.058	-0.043
-75.538	-59.022	0.116	0.049
-74.524	-129.664	0.059	0.008
-73.509	104.042	0.126	-0.146
-72.494	800.000	0.020	0.080
-71.480	-70.114	-0.345	0.129
-70.465	268.055	0.122	0.210
-69.451	-155.912	-0.236	0.015
-68.436	-72.029	-0.036	-0.013
-67.422	-200.000	0.020	0.138
-66.407	4.133	-0.202	-0.146
-65.392	-200.000	0.019	0.145
-64.378	58.114	-0.190	0.183
-63.363	800.000	-0.064	-0.265
-62.349	-139.579	0.348	-0.037
-61.334	106.213	-0.798	-0.931
-60.319	770.416	0.185	0.496
-59.305	-200.000	-0.117	-0.832
-58.290	484.782	0.343	0.769
-57.276	255.270	0.865	1.459
-56.261	-200.000	96.505	581.271
-55.246	561.474	1373.882	3269.223
-54.232	161.245	2547.322	3504.799
-53.217	112.987	2138.636	2550.929
-52.203	44.300	1603.485	1448.272
-51.188	36.196	1341.726	1163.181
-50.173	33.064	1299.581	1108.271
-49.159	54.556	1346.624	1277.103
-48.144	56.859	1363.783	1307.066
-47.130	36.421	1322.058	1147.287
-46.115	32.808	1305.460	1111.597
-45.100	32.657	1300.551	1106.487
-44.086	32.710	1297.278	1103.966
-43.071	32.646	1295.300	1101.869
-42.057	32.605	1293.251	1099.841
-41.042	32.550	1291.947	1098.366
-40.027	32.593	1290.421	1097.275
-39.013	32.615	1288.292	1095.552
-37.998	32.608	1286.611	1094.036
-36.984	32.628	1285.148	1092.867
-35.969	32.713	1282.865	1091.375
-34.954	32.769	1281.407	1090.412
-33.940	32.803	1280.216	1089.552
-32.925	32.861	1278.465	1088.355
-31.911	32.793	1277.235	1086.871
-30.896	32.824	1275.414	1085.457
-29.881	32.744	1274.368	1084.068
-28.867	32.772	1272.906	1082.941
-27.852	32.815	1271.129	1081.634
-26.838	32.907	1269.431	1080.673
-25.823	32.730	1268.681	1078.977
-24.809	32.783	1267.322	1078.081
-23.794	32.802	1265.670	1076.738
-22.779	32.827	1264.649	1075.974
-21.765	32.790	1263.101	1074.399
-20.750	32.702	1261.905	1072.840
-19.736	32.659	1260.849	1071.654
-18.721	32.594	1260.260	1070.743
-17.706	32.615	1258.513	1069.338
-16.692	32.611	1257.700	1068.579
-15.677	32.721	1256.298	1067.967
-14.663	32.511	1255.726	1066.250
-13.648	32.652	1254.593	1066.045
-12.633	32.546	1253.295	1064.300
-11.619	32.650	1252.272	1063.976
-10.604	32.658	1251.684	1063.480
-9.590	32.543	1250.390	1061.693
-8.575	32.601	1249.487	1061.207
-7.560	32.601	1248.982	1060.738
-6.546	32.521	1248.280	1059.651
-5.531	32.626	1247.246	1059.321
-4.517	32.608	1246.430	1058.485
-3.502	32.627	1245.265	1057.561
-2.487	32.657	1244.521	1057.051
-1.473	32.602	1240.299	1053.118
-0.458	31.234	1225.273	1032.757
0.556	28.163	1207.590	994.432
1.571	24.542	1212.925	978.928
2.586	23.678	1227.829	986.074
3.600	23.231	1217.072	974.888
4.615	16.946	1144.662	884.147
5.629	6.947	1067.603	775.710
6.644	2.391	1046.927	738.660
7.659	2.053	1044.519	735.269
8.673	1.972	1043.088	733.806
9.688	1.875	1041.952	732.478
10.702	2.342	1040.791	733.837
11.717	8.788	1050.337	771.632
12.731	18.990	1064.111	831.237
13.746	24.127	1070.047	860.693
14.761	25.326	1071.504	867.586
15.775	25.152	1071.455	866.629
16.790	25.104	1070.097	865.222
17.804	25.044	1069.861	864.666
18.819	25.121	1069.378	864.570
19.834	25.234	1069.016	864.744
20.848	25.344	1068.550	864.824
21.863	25.339	1067.805	864.120
22.877	25.218	1067.324	863.069
23.892	25.239	1066.149	862.144
24.907	25.303	1065.633	861.961
25.921	25.250	1064.763	860.925
26.936	25.241	1063.178	859.524
27.950	25.332	1061.565	858.580
28.965	25.064	1059.937	855.909
29.980	25.235	1058.703	855.651
30.994	25.318	1058.048	855.443
32.009	25.232	1056.837	853.976
33.023	25.037	1055.568	851.947
34.038	25.117	1054.746	851.588
35.053	25.409	1054.180	852.446
36.067	25.325	1053.391	851.333
37.082	25.373	1052.662	850.896
38.096	25.497	1052.135	850.981
39.111	25.643	1051.093	850.752
40.126	25.559	1049.856	849.280
41.140	24.892	1048.092	844.630
42.155	25.008	1046.397	843.739
43.169	24.894	1046.082	842.873
44.184	24.933	1045.240	842.301
45.199	24.843	1044.056	840.850
46.213	24.899	1043.296	840.429
47.228	25.041	1042.531	840.402
48.242	25.170	1041.531	840.129
49.257	25.244	1040.627	839.668
50.271	25.251	1040.258	839.330
51.286	25.438	1039.425	839.457
52.301	25.383	1038.600	838.461
53.315	25.218	1038.107	837.220
54.330	25.109	1037.227	835.924
55.344	25.287	1036.414	836.028
56.359	25.240	1035.105	834.680
57.374	24.958	1034.415	832.737
58.388	24.996	1033.640	832.216
59.403	25.017	1032.690	831.477
60.417	24.847	1031.909	829.986
61.432	24.934	1031.037	829.614
62.447	25.077	1030.504	829.772
63.461	25.098	1030.116	829.485
64.476	25.028	1028.860	828.077
65.490	24.860	1027.493	826.124
66.505	24.924	1027.316	826.205
67.520	25.023	1026.586	826.003
68.534	24.933	1024.970	824.215
69.549	24.444	1024.537	821.542
70.563	24.371	1024.110	820.795
71.578	24.472	1022.640	820.007
72.593	24.279	1021.765	818.343
73.607	24.525	1021.136	818.898
74.622	24.796	1020.633	819.665
75.636	24.845	1020.529	819.732
76.651	24.651	1019.409	817.874
77.666	24.603	1018.709	817.020
78.680	24.640	1018.044	816.581
79.695	24.691	1017.504	816.308
80.709	24.876	1016.956	816.642
81.724	24.762	1016.339	815.556
82.739	24.817	1015.358	814.946
83.753	25.305	1014.423	816.344
84.768	25.431	1014.118	816.598
85.782	25.697	1012.798	816.670
86.797	25.457	1012.306	815.112
87.812	25.350	1011.259	813.713
88.826	25.525	1010.470	813.799
89.841	25.527	1009.424	812.895
90.855	25.677	1007.807	812.196
91.870	25.556	1007.325	811.189
92.884	25.362	1006.527	809.601
93.899	25.272	1005.364	808.191
94.914	25.469	1004.663	808.440
95.928	25.392	1003.624	807.187
96.943	25.073	1002.010	804.384
97.957	24.936	1000.911	802.816
98.972	24.831	999.800	801.387
99.987	25.115	999.437	802.294
101.001	25.281	998.907	802.542
102.016	25.106	998.275	801.179
103.030	24.998	997.282	799.828
104.045	24.973	996.486	799.007
105.060	24.761	995.270	797.019
106.074	24.948	994.477	797.147
107.089	25.456	993.827	798.815
108.103	25.259	992.975	797.184
109.118	24.943	991.730	794.708
110.133	24.926	990.840	793.850
111.147	24.691	989.656	791.792
112.162	24.727	988.473	790.935
113.176	24.948	987.799	791.303
114.191	24.827	987.479	790.440
115.206	24.494	986.465	788.089
116.220	24.491	985.436	787.185
117.235	24.665	984.586	787.202
118.249	24.615	983.820	786.300
119.264	24.535	982.905	785.149
120.279	24.560	982.670	785.001
121.293	24.662	981.604	784.527
122.308	24.707	980.749	783.971
123.322	24.621	979.443	782.482
124.337	24.523	978.161	780.962
125.352	24.155	976.081	777.624
126.366	23.813	975.788	775.830
127.381	24.617	975.912	779.366
128.395	25.066	975.657	781.052
129.410	25.208	974.693	780.831
130.424	25.176	973.404	779.590
131.439	25.158	972.361	778.607
132.454	25.095	971.695	777.729
133.468	25.190	970.532	777.141
134.483	25.200	970.470	777.068
135.497	25.470	969.587	777.460
136.512	25.484	968.416	776.515
137.527	25.354	967.726	775.331
138.541	25.395	967.001	774.857
139.556	25.325	966.095	773.759
140.570	25.541	965.338	774.014
141.585	25.513	964.393	773.071
142.600	25.417	963.396	771.791
143.614	25.529	962.630	771.590
144.629	25.766	962.026	772.051
145.643	25.579	960.493	769.955
146.658	25.379	959.456	768.200
147.673	25.383	958.362	767.274
148.687	25.304	957.237	765.966
149.702	25.123	956.425	764.476
150.716	25.205	955.628	764.120
151.731	25.390	954.972	764.317
152.746	25.627	955.038	765.311
153.760	25.665	954.016	764.584
154.775	25.742	953.611	764.520
155.789	25.668	952.118	762.944
156.804	25.554	951.757	762.102
157.819	25.642	951.006	761.806
158.833	25.748	950.171	761.519
159.848	25.804	949.339	761.020
160.862	25.620	948.065	759.157
161.877	25.612	946.976	758.180
162.892	25.609	945.806	757.165
163.906	25.615	944.803	756.323
164.921	25.562	943.925	755.330
165.935	25.724	943.326	755.463
166.950	25.691	941.882	754.100
167.964	25.539	941.547	753.129
168.979	25.493	940.349	751.914
169.994	25.395	939.370	750.654
171.008	25.674	938.810	751.303
172.023	25.578	938.146	750.307
173.037	25.514	936.695	748.811
174.052	25.240	935.986	747.041
175.067	25.457	935.389	747.397
176.081	25.346	935.288	746.790
177.096	25.349	934.317	745.960
178.110	25.061	933.344	743.925
179.125	24.942	932.288	742.522
180.140	25.023	932.048	742.602
181.154	25.251	931.744	743.237
182.169	25.656	931.643	744.770
183.183	25.683	931.195	744.454
184.198	25.533	930.437	743.163
185.213	25.532	929.892	742.661
186.227	25.651	928.951	742.333
187.242	25.678	928.241	741.811
188.256	25.548	928.096	741.094
189.271	25.681	927.532	741.126
190.286	25.448	925.577	738.541
191.300	24.710	924.616	734.677
192.315	23.968	923.152	730.404
193.329	23.967	922.933	730.161
194.344	24.865	922.905	733.759
195.359	25.470	922.796	736.086
196.373	25.536	922.546	736.093
197.388	25.433	921.880	735.075
198.402	25.518	921.158	734.780
199.417	25.567	920.207	734.157
200.432	25.217	919.634	732.208
201.446	25.145	918.392	730.861
202.461	25.098	918.190	730.441
203.475	24.220	916.445	725.416
204.490	23.509	915.394	721.629
205.504	24.692	915.141	726.177
206.519	25.050	915.586	727.918
207.534	25.223	914.984	728.078
208.548	25.578	915.016	729.480
209.563	25.311	913.947	727.481
210.577	25.365	913.091	726.953
211.592	25.811	913.138	728.732
212.607	25.727	911.944	727.372
213.621	25.761	910.971	726.672
214.636	25.650	910.679	725.928
215.650	25.558	909.797	724.789
216.665	25.917	909.084	725.599
217.680	25.650	908.692	724.148
218.694	25.223	907.307	721.266
219.709	25.093	906.705	720.201
220.723	25.418	906.613	721.371
221.738	25.477	905.993	721.051
222.753	25.507	905.226	720.495
223.767	25.813	904.470	721.053
224.782	25.895	904.383	721.250
225.796	25.772	904.270	720.602
226.811	25.133	902.334	716.446
227.826	24.477	901.316	712.952
228.840	24.778	900.382	713.352
229.855	24.754	900.022	712.908
230.869	24.441	898.867	710.687
231.884	24.934	898.763	712.503
232.899	25.479	899.004	714.797
233.913	25.416	898.364	713.976
234.928	25.436	897.866	713.596
235.942	25.382	897.114	712.723
236.957	25.124	896.396	711.065
237.972	25.260	895.596	710.906
238.986	25.248	895.400	710.641
240.001	25.233	894.595	709.880
241.015	25.241	894.327	709.633
242.030	25.416	893.997	710.002
243.045	25.611	893.263	710.127
244.059	25.543	893.174	709.723
245.074	25.569	891.540	708.465
246.088	25.170	891.184	706.547
247.103	25.504	890.754	707.458
248.117	25.998	890.910	709.465
249.132	26.155	890.302	709.535
250.147	26.419	889.537	709.898
251.161	26.560	889.002	709.962
252.176	26.354	888.532	708.718
253.190	26.476	888.125	708.806
254.205	26.674	887.632	709.125
255.220	26.584	886.771	708.025
256.234	26.427	886.202	706.892
257.249	26.138	885.694	705.297
258.263	26.333	884.917	705.378
259.278	26.285	884.374	704.692
260.293	26.432	883.638	704.617
261.307	26.400	882.967	703.895
262.322	26.093	882.427	702.207
263.336	25.329	880.279	697.469
264.351	24.389	878.466	692.326
265.366	24.404	878.328	692.213
266.380	25.537	879.018	697.094
267.395	26.218	878.405	699.183
268.409	25.997	878.095	698.017
269.424	26.105	877.679	698.043
270.439	26.168	876.800	697.528
271.453	26.100	876.560	697.011
272.468	26.450	875.921	697.791
273.482	26.456	875.752	697.616
274.497	26.170	874.264	695.272
275.512	25.758	873.447	692.974
276.526	26.147	873.695	694.608
277.541	26.295	873.192	694.713
278.555	26.048	872.425	693.093
279.570	25.882	871.594	691.737
280.585	26.046	871.052	691.871
281.599	26.025	870.014	690.908
282.614	25.423	869.102	687.818
283.628	25.552	868.549	687.812
284.643	25.937	868.212	688.955
285.657	25.500	866.782	686.094
286.672	25.146	866.035	684.089
287.687	25.858	865.937	686.668
288.701	25.798	865.718	686.203
289.716	25.306	865.299	683.937
290.730	25.493	864.261	683.767
291.745	25.196	863.354	681.860
292.760	25.613	863.196	683.260
293.774	26.595	863.754	687.371
294.789	26.810	863.625	688.022
295.803	26.834	862.712	687.325
296.818	26.750	862.500	686.779
297.833	26.376	860.821	683.967
298.847	26.275	860.025	682.891
299.862	26.523	860.118	683.843
300.876	26.849	859.551	684.562
301.891	26.747	859.167	683.812
302.906	26.272	858.083	681.096
303.920	26.428	857.642	681.275
304.935	26.864	857.326	682.604
305.949	26.788	856.736	681.789
306.964	26.461	856.229	680.096
307.979	26.447	856.033	679.828
308.993	26.936	855.491	681.173
310.008	26.853	854.864	680.302
311.022	26.483	854.613	678.653
312.037	26.316	853.844	677.356
313.052	26.262	852.779	676.252
314.066	25.294	851.146	671.277
315.081	25.147	850.348	670.040
316.095	25.899	850.914	673.235
317.110	26.279	850.780	674.490
318.125	25.423	849.148	669.946
319.139	24.474	847.887	665.356
320.154	24.573	847.459	665.329
321.168	25.406	847.719	668.579
322.183	26.257	847.907	671.833
323.197	26.378	847.470	671.878
324.212	26.375	847.500	671.828
325.227	26.448	846.895	671.564
326.241	26.444	846.024	670.796
327.256	26.274	845.072	669.353
328.270	26.162	844.412	668.356
329.285	26.116	843.204	667.173
330.300	25.878	842.841	665.946
331.314	25.977	842.963	666.349
332.329	26.492	842.499	667.823
333.343	26.742	842.016	668.303
334.358	26.675	841.556	667.632
335.373	26.534	841.906	667.331
336.387	26.935	841.555	668.473
337.402	26.978	841.355	668.414
338.416	27.067	840.463	667.972
339.431	27.262	840.319	668.516
340.446	27.253	840.069	668.226
341.460	27.131	839.743	667.459
342.475	26.915	838.948	665.975
343.489	27.004	838.719	666.059
344.504	27.155	838.250	666.183
345.519	27.338	838.405	666.916
346.533	27.508	837.808	667.004
347.548	27.460	837.106	666.213
348.562	27.496	836.727	665.983
349.577	27.225	835.889	664.267
350.592	27.243	835.251	663.768
351.606	27.428	834.232	663.572
352.621	27.177	833.721	662.194
353.635	27.094	832.964	661.231
354.650	26.446	831.296	657.494
355.665	25.599	829.627	653.044
356.679	25.958	829.654	654.308
357.694	26.403	829.397	655.662
358.708	26.147	829.308	654.607
359.723	26.889	828.330	656.461
360.738	26.999	828.548	656.975
361.752	27.125	827.864	656.830
362.767	27.490	827.732	657.987
363.781	27.789	827.357	658.709
364.796	27.747	826.917	658.148
365.810	27.815	826.960	658.369
366.825	27.635	826.630	657.401
367.840	27.353	825.719	655.603
368.854	27.049	824.414	653.414
369.869	27.138	823.996	653.345
370.883	27.046	823.938	652.912
371.898	27.145	823.068	652.519
372.913	27.171	822.877	652.404
373.927	27.142	822.405	651.868
374.942	27.452	822.303	652.842
375.956	27.580	821.599	652.683
376.971	27.733	820.910	652.624
377.986	27.804	820.645	652.609
379.000	27.589	820.648	651.786
380.015	27.588	819.737	651.000
381.029	27.667	818.968	650.614
382.044	27.925	818.484	651.093
383.059	27.867	817.851	650.324
384.073	27.704	817.769	649.619
385.088	27.724	816.829	648.889
386.102	27.491	816.012	647.352
387.117	27.561	815.203	646.902
388.132	27.020	814.629	644.471
389.146	26.554	813.744	642.063
390.161	26.992	813.449	643.325
391.175	27.485	813.298	644.892
392.190	27.265	812.225	643.206
393.205	25.842	809.979	636.349
394.219	24.274	808.246	629.403
395.234	24.326	808.000	629.337
396.248	25.835	809.685	635.925
397.263	27.277	810.575	641.658
398.278	27.219	809.976	640.925
399.292	26.983	809.528	639.680
400.307	27.027	808.964	639.333
401.321	27.191	808.722	639.664
402.336	27.638	808.328	640.867
403.350	28.033	808.269	642.152
404.365	28.323	808.205	643.062
405.380	28.470	807.806	643.204
406.394	28.467	807.299	642.732
407.409	28.458	807.084	642.470
408.423	28.399	806.441	641.695
409.438	28.412	806.396	641.651
410.453	28.386	805.697	640.947
411.467	28.351	805.322	640.468
412.482	28.521	804.610	640.441
413.496	28.526	804.561	640.360
414.511	28.581	804.030	640.073
415.526	28.546	803.373	639.371
416.540	28.469	802.690	638.505
417.555	28.197	801.961	636.921
418.569	28.204	801.977	636.903
419.584	28.057	801.084	635.625
420.599	27.991	800.938	635.225
421.613	111.471	1284.701	1456.851
422.628	96.232	1355.154	1456.959
