DTS Sentinel unit serial number:	SN413079Multiplexer serial number:	ORYXHardware model number:	OX4-SRSoftware version number:	ORYX F/W v4.00 Oryx Data Collector v3.7.2.0data status	okinstallation	princeton_trtdifferential loss correction	single-endedforward channel	channel 1reverse channel	N/Adate	2019/09/11time	13:20:11forward acquisition time	60.00reverse acquisition time	0.00gamma	496.2192k internal	0.2294k external	0.2294temperature offset calibration	0.9984default loss term (dB/km)	0.3790temperature slope calibration	1.0000multiplexer offset coefficient	1.0000multiplexer slope coefficient	1.0000fibre end	0.00T internal ref (°C)	41.94T ext. ref 1 (°C)	0.80T ext. ref 2 (°C)	36.10length (m)	temperature (°C)	Stokes	anti-Stokes-747.200	151.245	-0.051	0.071
-746.185	483.731	0.110	0.257
-745.171	-57.327	-0.182	-0.082
-744.156	-75.186	0.318	0.116
-743.142	107.081	-0.096	0.117
-742.127	579.539	0.146	0.367
-741.112	118.572	0.165	0.208
-740.098	800.000	-0.127	0.403
-739.083	-102.414	0.228	-0.056
-738.069	-167.775	-0.202	-0.008
-737.054	-200.000	-0.004	-0.048
-736.039	800.000	-0.042	0.123
-735.025	-200.000	0.387	0.000
-734.010	-200.000	-0.065	-0.488
-732.996	-114.297	0.234	-0.046
-731.981	-48.833	0.219	-0.108
-730.966	-21.792	-0.173	0.108
-729.952	474.176	0.115	0.264
-728.937	-67.596	0.094	-0.037
-727.923	800.000	-0.061	-0.177
-726.908	-32.987	-0.340	-0.193
-725.894	-147.804	-0.431	0.037
-724.879	-68.103	-0.207	-0.082
-723.864	149.936	-0.087	-0.121
-722.850	67.602	-0.185	-0.193
-721.835	-112.774	0.226	-0.046
-720.821	800.000	-0.032	0.135
-719.806	-179.910	-0.211	0.005
-718.791	-200.000	-0.006	-0.134
-717.777	70.832	-0.117	-0.124
-716.762	-13.204	-0.132	0.087
-715.748	-108.576	0.109	-0.024
-714.733	-30.490	0.150	0.087
-713.718	800.000	-0.036	-0.130
-712.704	182.579	-0.124	-0.187
-711.689	167.152	-0.105	0.152
-710.675	-27.568	0.194	-0.115
-709.660	-6.922	0.051	0.035
-708.645	73.778	0.170	0.182
-707.631	-26.799	0.237	-0.141
-706.616	-104.523	-0.183	-0.043
-705.602	-68.767	0.156	-0.061
-704.587	-125.756	0.241	-0.037
-703.572	166.472	-0.039	0.057
-702.558	-138.509	0.228	0.026
-701.543	-83.940	0.093	-0.030
-700.529	-42.318	0.082	-0.043
-699.514	800.000	0.013	-0.042
-698.499	-76.315	-0.126	-0.045
-697.485	-65.659	-0.196	-0.080
-696.470	-44.083	0.135	0.069
-695.456	-2.887	-0.141	0.101
-694.441	-174.594	0.141	-0.004
-693.426	-200.000	-0.026	-0.127
-692.412	565.974	-0.224	0.555
-691.397	-200.000	0.007	-0.114
-690.383	222.723	-0.123	-0.203
-689.368	800.000	-0.107	-0.305
-688.354	677.338	0.039	0.104
-687.339	273.523	0.088	-0.159
-686.324	331.250	0.050	0.099
-685.310	13.749	0.124	-0.099
-684.295	-177.741	-0.281	-0.007
-683.281	-126.199	0.223	-0.034
-682.266	108.204	0.193	-0.235
-681.251	304.943	-0.098	-0.186
-680.237	357.341	0.072	0.147
-679.222	-200.000	-0.013	-0.109
-678.208	-158.718	-0.189	0.011
-677.193	800.000	-0.101	0.343
-676.178	-200.000	0.016	-0.197
-675.164	353.345	0.035	-0.071
-674.149	0.682	-0.264	0.193
-673.135	174.033	0.113	-0.166
-672.120	20.923	-0.121	0.100
-671.105	158.439	-0.163	0.231
-670.091	-7.635	-0.051	-0.035
-669.076	-93.012	-0.206	0.058
-668.062	27.895	-0.339	0.291
-667.047	134.020	-0.136	0.180
-666.032	800.000	0.039	0.114
-665.018	-191.754	-0.135	0.001
-664.003	-76.481	0.080	-0.029
-662.989	-2.745	0.100	-0.071
-661.974	-200.000	0.004	0.055
-660.959	105.230	-0.011	0.013
-659.945	-33.395	-0.164	0.092
-658.930	258.342	-0.072	-0.126
-657.916	-14.822	-0.100	-0.066
-656.901	-200.000	-0.002	0.031
-655.886	-76.601	-0.260	-0.093
-654.872	-200.000	0.011	-0.183
-653.857	800.000	-0.016	0.070
-652.843	200.872	-0.187	-0.293
-651.828	182.463	0.032	-0.047
-650.814	200.404	0.150	-0.235
-649.799	-84.933	0.217	-0.069
-648.784	-77.355	-0.180	-0.064
-647.770	364.930	-0.145	0.298
-646.755	-38.836	-0.472	-0.254
-645.741	-30.053	-0.254	-0.147
-644.726	-79.522	-0.142	0.049
-643.711	-29.649	0.074	0.043
-642.697	800.000	-0.046	-0.164
-641.682	204.888	-0.018	0.029
-640.668	124.803	0.234	0.299
-639.653	-97.943	0.142	-0.037
-638.638	0.085	0.094	-0.068
-637.624	-200.000	-0.031	0.416
-636.609	116.213	-0.111	0.138
-635.595	800.000	0.065	-0.222
-634.580	12.928	0.134	-0.105
-633.565	800.000	0.052	0.172
-632.551	264.656	0.087	0.154
-631.536	-76.506	0.417	0.149
-630.522	-200.000	-0.029	0.173
-629.507	-16.691	0.313	-0.202
-628.492	443.002	-0.052	0.117
-627.478	-200.000	0.410	-0.001
-626.463	-148.342	0.309	0.026
-625.449	-159.674	-0.395	-0.022
-624.434	-98.527	-0.209	-0.054
-623.419	88.676	-0.050	0.056
-622.405	-200.000	0.016	-0.085
-621.390	-197.886	0.324	0.002
-620.376	-92.949	0.079	0.023
-619.361	-22.211	0.177	0.109
-618.346	800.000	-0.075	0.319
-617.332	573.078	-0.066	0.164
-616.317	603.938	0.077	0.195
-615.303	39.189	-0.170	-0.154
-614.288	-200.000	0.014	-0.138
-613.273	-70.274	-0.486	-0.188
-612.259	134.368	0.058	-0.077
-611.244	231.736	-0.094	-0.157
-610.230	328.416	0.154	-0.302
-609.215	143.101	0.100	-0.135
-608.201	-200.000	-0.004	-0.190
-607.186	800.000	0.064	0.239
-606.171	-30.104	0.172	0.099
-605.157	-200.000	0.052	-0.301
-604.142	-114.683	-0.207	-0.040
-603.128	-49.729	-0.218	0.105
-602.113	22.669	-0.272	0.227
-601.098	149.615	0.117	0.161
-600.084	-200.000	-0.046	-0.236
-599.069	96.469	-0.178	-0.207
-598.055	-10.132	0.048	-0.033
-597.040	-200.000	-0.008	-0.073
-596.025	-118.184	0.087	0.016
-595.011	-20.296	0.191	-0.120
-593.996	125.834	-0.099	0.127
-592.982	-200.000	0.009	-0.235
-591.967	-121.596	0.087	-0.015
-590.952	309.322	-0.183	0.347
-589.938	-95.006	0.160	0.044
-588.923	-158.372	-0.142	0.008
-587.909	-36.969	0.302	-0.164
-586.894	7.878	0.074	-0.056
-585.879	317.149	0.102	0.196
-584.865	-200.000	-0.003	-0.281
-583.850	505.682	-0.102	-0.241
-582.836	-200.000	-0.065	-0.362
-581.821	-200.000	0.049	0.308
-580.806	-64.328	0.380	0.157
-579.792	-144.134	-0.262	-0.025
-578.777	118.360	-0.035	0.044
-577.763	-95.383	-0.068	-0.019
-576.748	392.232	-0.089	0.188
-575.733	55.822	-0.113	-0.111
-574.719	-13.734	0.134	-0.088
-573.704	-200.000	-0.006	0.199
-572.690	-200.000	-0.001	-0.276
-571.675	-79.395	-0.454	0.156
-570.661	-37.846	0.232	0.126
-569.646	148.754	0.055	0.076
-568.631	419.110	0.263	-0.571
-567.617	-40.794	0.391	-0.206
-566.602	-99.452	0.078	-0.020
-565.588	-99.905	0.089	-0.023
-564.573	9.034	0.110	-0.084
-563.558	179.905	-0.176	-0.261
-562.544	-200.000	0.026	-0.252
-561.529	135.177	-0.178	0.235
-560.515	272.839	-0.054	0.098
-559.500	579.799	-0.139	0.345
-558.485	298.026	-0.054	0.101
-557.471	-69.676	-0.302	0.117
-556.456	151.134	-0.165	0.228
-555.442	-200.000	-0.010	0.333
-554.427	-200.000	0.040	-0.191
-553.412	224.724	0.133	-0.218
-552.398	2.024	0.055	-0.040
-551.383	800.000	-0.014	-0.053
-550.369	800.000	-0.035	-0.124
-549.354	-142.081	-0.113	0.011
-548.339	-52.941	0.289	0.135
-547.325	-168.161	0.249	0.010
-546.310	-200.000	-0.028	0.173
-545.296	14.766	0.093	0.074
-544.281	0.545	0.260	-0.189
-543.266	218.818	0.183	-0.296
-542.252	-186.170	-0.424	0.006
-541.237	51.562	0.140	-0.135
-540.223	-200.000	-0.004	-0.122
-539.208	-189.473	-0.350	-0.004
-538.193	16.569	-0.244	0.195
-537.179	-114.507	-0.066	0.013
-536.164	9.102	-0.343	0.262
-535.150	14.267	-0.153	0.121
-534.135	40.127	0.310	-0.282
-533.121	44.838	0.221	0.207
-532.106	266.669	0.022	-0.039
-531.091	-200.000	-0.005	-0.083
-530.077	-200.000	-0.032	0.286
-529.062	798.950	0.058	-0.161
-528.048	17.825	0.128	0.103
-527.033	800.000	-0.111	0.367
-526.018	-79.739	-0.102	-0.035
-525.004	-200.000	0.050	-0.332
-523.989	-107.312	-0.233	0.052
-522.975	151.620	-0.120	-0.166
-521.960	131.046	-0.125	0.163
-520.945	-200.000	-0.014	0.137
-519.931	210.566	-0.220	-0.350
-518.916	-128.846	-0.096	-0.014
-517.902	-22.550	-0.398	-0.244
-516.887	75.232	-0.142	0.152
-515.872	25.542	-0.206	0.174
-514.858	-115.443	-0.285	0.054
-513.843	12.348	0.189	0.147
-512.829	96.127	0.180	-0.209
-511.814	295.582	0.103	0.191
-510.799	-40.224	-0.232	0.122
-509.785	-92.983	0.089	-0.025
-508.770	27.851	-0.220	-0.188
-507.756	800.000	0.020	-0.078
-506.741	202.850	-0.163	-0.256
-505.726	-35.992	-0.047	-0.026
-504.712	-182.049	0.133	0.003
-503.697	96.002	-0.068	0.079
-502.683	-129.171	-0.323	-0.046
-501.668	-168.506	0.267	-0.010
-500.653	-64.668	-0.379	-0.156
-499.639	800.000	-0.110	-0.359
-498.624	19.828	-0.228	-0.186
-497.610	147.681	0.215	0.294
-496.595	71.874	-0.158	0.167
-495.581	52.028	-0.191	-0.185
-494.566	-15.815	0.293	-0.189
-493.551	800.000	0.058	-0.252
-492.537	800.000	-0.055	0.180
-491.522	-106.356	0.211	-0.048
-490.508	6.692	-0.255	0.192
-489.493	473.417	-0.108	-0.246
-488.478	-33.008	0.219	-0.123
-487.464	-50.592	0.096	-0.046
-486.449	-141.624	0.185	0.019
-485.435	151.598	0.153	0.210
-484.420	68.997	0.080	0.083
-483.405	-71.530	0.192	-0.073
-482.391	403.724	-0.064	-0.136
-481.376	261.231	0.053	-0.093
-480.362	-200.000	0.034	0.329
-479.347	54.333	-0.015	-0.014
-478.332	83.796	0.241	0.266
-477.318	800.000	0.063	-0.197
-476.303	-142.955	-0.164	0.016
-475.289	-200.000	-0.016	0.078
-474.274	36.556	-0.228	-0.204
-473.259	-60.470	-0.519	0.223
-472.245	800.000	0.059	0.197
-471.230	334.338	0.050	-0.098
-470.216	18.108	0.057	-0.046
-469.201	532.061	0.053	0.127
-468.186	-72.023	0.252	-0.095
-467.172	-200.000	-0.007	-0.045
-466.157	137.495	0.140	0.186
-465.143	147.105	0.059	-0.081
-464.128	-53.630	0.256	0.118
-463.113	64.649	-0.040	-0.041
-462.099	-200.000	-0.012	0.125
-461.084	-38.700	-0.100	0.053
-460.070	-35.541	-0.090	-0.049
-459.055	90.000	0.121	-0.137
-458.040	96.797	0.082	0.095
-457.026	-86.212	0.241	0.075
-456.011	-200.000	0.005	-0.039
-454.997	215.550	0.208	0.334
-453.982	-68.741	-0.168	-0.066
-452.968	800.000	0.117	-0.332
-451.953	-93.368	-0.252	0.071
-450.938	-44.033	-0.199	-0.101
-449.924	27.053	0.176	-0.149
-448.909	-40.707	-0.150	-0.078
-447.895	-200.000	0.026	0.299
-446.880	87.235	0.425	0.474
-445.865	-52.816	0.153	0.071
-444.851	-97.077	-0.119	0.031
-443.836	-200.000	0.022	-0.398
-442.822	97.359	-0.232	-0.269
-441.807	-83.594	-0.130	0.042
-440.792	651.193	0.019	0.049
-439.778	-200.000	0.008	0.448
-438.763	-200.000	0.003	0.094
-437.749	-67.053	0.218	0.087
-436.734	16.029	0.194	0.154
-435.719	10.155	-0.287	0.221
-434.705	-65.772	0.127	0.051
-433.690	800.000	0.081	0.312
-432.676	-1.017	-0.205	0.147
-431.661	-200.000	-0.027	0.209
-430.646	456.720	0.072	-0.161
-429.632	-200.000	0.012	-0.275
-428.617	-190.427	-0.320	-0.004
-427.603	-144.167	0.167	0.016
-426.588	31.896	0.070	-0.061
-425.573	67.693	0.289	-0.299
-424.559	55.861	-0.107	0.104
-423.544	62.560	-0.040	-0.041
-422.530	-106.373	-0.238	-0.054
-421.515	-158.514	0.425	0.025
-420.500	90.724	0.253	-0.286
-419.486	-200.000	0.041	0.374
-418.471	-200.000	-0.064	0.360
-417.457	31.909	-0.287	-0.250
-416.442	233.140	0.081	-0.135
-415.428	800.000	-0.060	-0.191
-414.413	-42.038	-0.253	-0.131
-413.398	-46.323	0.066	0.033
-412.384	-87.697	-0.354	0.108
-411.369	0.989	0.260	0.188
-410.355	-200.000	0.063	0.350
-409.340	-200.000	0.075	0.398
-408.325	-32.927	-0.165	0.092
-407.311	382.079	-0.194	-0.402
-406.296	-117.018	0.175	0.032
-405.282	256.190	0.127	-0.220
-404.267	158.608	0.129	0.180
-403.252	641.309	0.063	0.162
-402.238	67.591	0.119	0.123
-401.223	554.248	0.052	-0.126
-400.209	26.864	0.149	-0.126
-399.194	-132.844	-0.124	0.016
-398.179	133.686	-0.048	0.062
-397.165	211.400	-0.049	-0.078
-396.150	-114.511	0.103	0.020
-395.136	-200.000	0.020	0.609
-394.121	-200.000	0.019	0.150
-393.106	-69.530	-0.114	-0.044
-392.092	55.090	-0.137	-0.134
-391.077	800.000	-0.118	-0.376
-390.063	-200.000	0.039	0.262
-389.048	254.484	-0.154	0.265
-388.033	283.953	0.084	0.153
-387.019	-144.321	0.163	0.015
-386.004	-124.738	-0.138	-0.021
-384.990	-71.972	-0.159	-0.060
-383.975	-200.000	0.014	0.155
-382.960	-142.737	0.284	-0.028
-381.946	-135.232	-0.243	-0.029
-380.931	496.325	-0.098	0.226
-379.917	-200.000	0.017	-0.089
-378.902	800.000	-0.036	-0.104
-377.888	-28.751	-0.174	0.101
-376.873	38.346	-0.069	0.062
-375.858	-108.581	0.266	-0.058
-374.844	-200.000	-0.021	0.111
-373.829	182.582	-0.156	-0.232
-372.815	620.041	0.100	0.252
-371.800	-161.511	0.325	-0.017
-370.785	-177.682	-0.195	0.005
-369.771	800.000	0.056	0.195
-368.756	195.503	0.034	0.052
-367.742	276.153	-0.088	-0.158
-366.727	-171.895	0.248	-0.008
-365.712	46.963	-0.166	-0.155
-364.698	68.925	-0.067	0.069
-363.683	112.206	0.088	0.107
-362.669	800.000	-0.040	-0.115
-361.654	378.250	0.249	0.513
-360.639	-103.636	0.250	0.059
-359.625	-41.398	-0.187	-0.097
-358.610	-165.525	0.294	0.013
-357.596	91.342	-0.227	-0.257
-356.581	-200.000	-0.007	-0.305
-355.566	800.000	0.058	-0.168
-354.552	258.272	-0.111	-0.193
-353.537	335.935	0.025	-0.050
-352.523	-82.369	0.367	-0.120
-351.508	132.528	-0.102	-0.133
-350.493	21.274	-0.315	-0.258
-349.479	89.721	-0.240	-0.270
-348.464	-64.988	0.533	0.217
-347.450	-183.360	0.217	-0.004
-346.435	5.151	-0.266	-0.197
-345.420	50.007	-0.197	-0.187
-344.406	-45.966	-0.313	-0.156
-343.391	-48.650	-0.182	-0.088
-342.377	0.686	0.134	-0.097
-341.362	293.985	-0.072	0.132
-340.348	800.000	0.099	-0.288
-339.333	-8.805	-0.154	-0.104
-338.318	220.256	0.062	-0.100
-337.304	-168.011	0.063	-0.002
-336.289	-200.000	-0.050	-0.242
-335.275	-200.000	-0.033	-0.304
-334.260	-81.590	-0.241	0.080
-333.245	800.000	0.103	-0.353
-332.231	800.000	-0.079	0.267
-331.216	55.373	-0.106	0.103
-330.202	-90.834	-0.234	-0.068
-329.187	800.000	0.046	-0.156
-328.172	-38.317	-0.360	-0.192
-327.158	-96.551	-0.215	-0.057
-326.143	325.805	-0.016	-0.030
-325.129	-103.383	0.244	0.058
-324.114	-87.701	0.168	0.051
-323.099	-167.402	0.440	-0.018
-322.085	-73.615	0.175	0.064
-321.070	-200.000	-0.021	0.275
-320.056	-74.807	0.405	-0.146
-319.041	-81.121	0.049	-0.016
-318.026	-44.726	-0.129	-0.065
-317.012	-62.749	-0.351	0.146
-315.997	-200.000	-0.016	-0.070
-314.983	-141.643	-0.182	0.018
-313.968	-32.873	0.177	0.099
-312.953	13.554	-0.224	-0.175
-311.939	-104.387	0.248	-0.058
-310.924	8.253	0.208	0.157
-309.910	-28.021	0.324	0.189
-308.895	-134.117	0.182	-0.023
-307.880	116.864	0.327	-0.403
-306.866	-95.117	0.047	-0.013
-305.851	788.222	0.015	0.040
-304.837	128.707	0.025	-0.032
-303.822	-107.385	0.272	-0.060
-302.807	22.535	0.236	-0.194
-301.793	-17.944	-0.168	0.106
-300.778	-200.000	0.048	0.271
-299.764	800.000	-0.032	0.137
-298.749	800.000	0.078	-0.257
-297.735	-148.634	-0.264	-0.022
-296.720	396.073	0.146	0.306
-295.705	151.708	0.128	0.175
-294.691	-61.635	-0.030	-0.013
-293.676	-200.000	-0.430	0.000
-292.662	-200.000	0.014	0.142
-291.647	570.515	0.061	-0.148
-290.632	20.701	-0.171	-0.139
-289.618	-200.000	-0.010	0.159
-288.603	-59.431	0.361	-0.156
-287.589	-200.000	-0.025	-0.112
-286.574	-200.000	-0.001	0.155
-285.559	-200.000	-0.055	-0.383
-284.545	800.000	0.020	-0.080
-283.530	-130.048	-0.332	0.046
-282.516	800.000	-0.027	-0.091
-281.501	-147.420	-0.276	-0.023
-280.486	249.690	-0.077	-0.131
-279.472	151.193	-0.096	-0.131
-278.457	800.000	0.050	0.183
-277.443	-25.123	-0.033	0.020
-276.428	38.541	0.015	0.013
-275.413	143.023	-0.029	-0.038
-274.399	-200.000	0.030	0.157
-273.384	172.325	-0.046	-0.066
-272.370	-33.834	-0.096	0.053
-271.355	-102.801	-0.144	0.034
-270.340	-113.443	0.439	0.086
-269.326	800.000	-0.120	0.380
-268.311	116.464	-0.162	-0.199
-267.297	-47.371	0.190	-0.093
-266.282	621.322	0.140	-0.353
-265.267	27.388	0.220	-0.185
-264.253	-28.160	0.044	0.026
-263.238	181.515	-0.063	0.092
-262.224	19.120	-0.216	-0.174
-261.209	-200.000	-0.009	-0.173
-260.195	225.553	-0.167	-0.272
-259.180	-171.351	-0.300	-0.010
-258.165	-60.345	0.225	0.096
-257.151	800.000	-0.061	0.264
-256.136	-75.071	0.085	0.031
-255.122	42.850	-0.232	0.212
-254.107	-161.955	0.139	0.007
-253.092	25.427	-0.087	0.073
-252.078	-90.099	0.157	-0.046
-251.063	-200.000	-0.072	-0.325
-250.049	8.266	-0.317	-0.239
-249.034	-200.000	-0.026	0.126
-248.019	-34.992	0.353	-0.193
-247.005	-74.255	0.234	-0.085
-245.990	7.194	0.285	0.213
-244.976	-61.636	0.255	-0.107
-243.961	96.053	-0.215	0.246
-242.946	800.000	0.055	-0.212
-241.932	-200.000	0.005	0.034
-240.917	800.000	-0.041	0.140
-239.903	322.558	-0.095	-0.182
-238.888	800.000	0.051	-0.142
-237.873	109.850	-0.220	-0.264
-236.859	-146.595	-0.209	-0.018
-235.844	-56.903	-0.133	-0.059
-234.830	232.550	-0.091	-0.150
-233.815	0.500	-0.288	-0.206
-232.800	-200.000	0.011	-0.105
-231.786	217.994	-0.064	0.102
-230.771	800.000	-0.016	-0.047
-229.757	-200.000	-0.078	0.563
-228.742	234.944	0.158	0.261
-227.727	-200.000	-0.095	0.429
-226.713	-58.051	0.173	-0.076
-225.698	-94.343	-0.247	0.068
-224.684	-31.817	-0.077	-0.043
-223.669	414.877	0.086	0.183
-222.655	800.000	0.068	0.192
-221.640	-12.943	-0.224	0.146
-220.625	-28.403	-0.075	0.043
-219.611	-152.809	-0.344	-0.024
-218.596	-200.000	-0.004	0.084
-217.582	120.360	0.067	-0.083
-216.567	12.612	0.205	0.158
-215.552	700.986	-0.057	0.149
-214.538	-200.000	-0.026	-0.117
-213.523	-200.000	-0.005	-0.023
-212.509	-77.511	0.137	0.048
-211.494	-8.328	-0.220	0.148
-210.479	5.290	0.257	0.190
-209.465	207.376	-0.192	0.299
-208.450	-23.180	0.030	0.018
-207.436	-12.497	0.125	0.082
-206.421	287.476	-0.189	0.343
-205.406	4.633	-0.073	0.054
-204.392	-200.000	-0.061	0.317
-203.377	-120.718	0.100	0.017
-202.363	-51.000	0.172	-0.081
-201.348	-175.480	0.265	-0.007
-200.333	800.000	0.093	0.287
-199.319	-200.000	0.016	0.230
-198.304	-33.544	0.199	-0.110
-197.290	-200.000	-0.036	0.209
-196.275	-38.418	0.172	0.091
-195.260	420.903	-0.102	-0.219
-194.246	-200.000	-0.022	-0.095
-193.231	-87.540	0.154	-0.047
-192.217	179.619	-0.063	-0.093
-191.202	39.379	-0.195	-0.175
-190.187	-88.990	-0.156	0.046
-189.173	-200.000	-0.423	0.002
-188.158	-157.583	-0.283	0.017
-187.144	-55.979	0.176	-0.078
-186.129	192.787	0.085	-0.129
-185.114	9.348	0.078	-0.059
-184.100	-89.591	0.633	-0.186
-183.085	-35.127	0.317	-0.173
-182.071	44.055	0.279	-0.256
-181.056	-114.599	0.100	0.019
-180.042	-48.265	-0.090	0.043
-179.027	22.621	-0.036	-0.029
-178.012	-76.423	-0.153	0.054
-176.998	173.294	-0.062	-0.089
-175.983	21.616	-0.145	-0.118
-174.969	-103.850	0.127	0.030
-173.954	-200.000	0.018	0.161
-172.939	73.852	-0.208	0.218
-171.925	92.203	0.241	0.271
-170.910	800.000	0.056	0.221
-169.896	-18.914	0.080	0.050
-168.881	-200.000	-0.052	0.282
-167.866	34.423	-0.097	0.085
-166.852	-55.080	0.064	0.029
-165.837	800.000	-0.105	-0.295
-164.823	333.936	0.081	-0.157
-163.808	-10.697	0.178	-0.118
-162.793	-57.530	-0.055	-0.024
-161.779	116.891	0.123	-0.151
-160.764	104.806	0.151	-0.177
-159.750	-173.707	0.170	0.005
-158.735	400.739	0.104	0.217
-157.720	-148.373	-0.275	-0.023
-156.706	800.000	-0.073	-0.213
-155.691	-80.894	0.164	0.054
-154.677	694.236	0.073	0.190
-153.662	116.977	-0.301	-0.370
-152.647	-200.000	0.084	0.422
-151.633	-200.000	0.075	-0.345
-150.618	226.145	0.129	-0.210
-149.604	-200.000	-0.023	0.268
-148.589	63.157	0.085	0.085
-147.574	12.791	0.159	0.123
-146.560	382.878	-0.102	-0.209
-145.545	-200.000	-0.025	-0.171
-144.531	-132.679	0.181	-0.023
-143.516	479.359	0.131	0.296
-142.502	-69.267	-0.194	0.074
-141.487	399.087	0.142	0.297
-140.472	2.330	-0.167	0.121
-139.458	21.101	-0.363	-0.295
-138.443	-200.000	0.009	0.077
-137.429	469.389	-0.145	-0.326
-136.414	204.953	0.250	0.387
-135.399	-15.504	0.135	-0.086
-134.385	70.874	0.033	0.034
-133.370	183.004	0.195	-0.287
-132.356	36.145	-0.064	0.056
-131.341	-100.312	0.135	-0.033
-130.326	-51.655	-0.180	0.084
-129.312	58.611	-0.139	-0.136
-128.297	-32.463	-0.266	0.148
-127.283	102.011	0.150	0.175
-126.268	28.829	0.191	0.161
-125.253	-200.000	-0.030	-0.160
-124.239	-87.215	-0.242	0.073
-123.224	35.905	-0.281	0.247
-122.210	-147.755	0.203	0.017
-121.195	-200.000	-0.033	-0.388
-120.180	493.430	-0.090	-0.205
-119.166	-2.078	0.104	0.073
-118.151	-200.000	-0.006	-0.049
-117.137	800.000	-0.086	-0.339
-116.122	800.000	-0.039	-0.149
-115.107	-109.939	0.272	-0.057
-114.093	-200.000	-0.046	-0.285
-113.078	481.992	0.223	-0.504
-112.064	529.751	-0.090	-0.212
-111.049	-40.909	-0.027	0.014
-110.034	-144.462	-0.143	0.013
-109.020	-151.173	-0.196	-0.015
-108.005	46.681	-0.223	0.207
-106.991	21.223	0.138	-0.112
-105.976	-146.084	0.297	0.026
-104.962	10.130	-0.102	0.077
-103.947	80.804	-0.303	0.326
-102.932	278.635	0.210	-0.373
-101.918	701.566	0.153	-0.402
-100.903	546.161	-0.135	0.322
-99.889	409.655	-0.074	-0.157
-98.874	-28.187	-0.331	-0.191
-97.859	-47.361	-0.033	0.016
-96.845	67.386	-0.049	0.050
-95.830	-1.684	0.120	0.084
-94.816	-148.950	0.264	-0.021
-93.801	-52.745	0.142	0.065
-92.786	-200.000	-0.042	0.274
-91.772	74.491	-0.063	-0.066
-90.757	-17.406	0.122	-0.076
-89.743	-200.000	0.013	0.172
-88.728	-200.000	0.015	-0.231
-87.713	-96.523	-0.299	-0.079
-86.699	-117.116	-0.315	-0.057
-85.684	-200.000	0.060	0.305
-84.670	59.270	0.116	0.113
-83.655	-200.000	-0.069	0.342
-82.640	152.563	0.059	-0.081
-81.626	13.663	0.289	-0.224
-80.611	-166.211	0.250	-0.011
-79.597	116.651	-0.087	0.106
-78.582	-200.000	-0.062	0.402
-77.567	-200.000	0.018	-0.188
-76.553	156.740	-0.054	0.074
-75.538	-177.906	-0.207	0.005
-74.524	133.013	-0.210	-0.270
-73.509	-62.121	-0.099	0.041
-72.494	-29.193	0.127	-0.072
-71.480	-154.027	0.271	-0.018
-70.465	325.379	-0.080	0.153
-69.451	-81.581	-0.133	-0.043
-68.436	167.219	0.154	0.218
-67.422	-63.824	0.131	-0.053
-66.407	-147.228	-0.033	0.003
-65.392	633.976	0.101	0.255
-64.378	-200.000	0.002	0.106
-63.363	-88.230	0.060	-0.018
-62.349	623.317	-0.066	0.165
-61.334	-22.551	-0.800	-0.482
-60.319	800.000	0.106	0.381
-59.305	-200.000	-0.007	-0.640
-58.290	132.183	0.535	0.686
-57.276	557.764	0.689	1.655
-56.261	-200.000	75.302	532.032
-55.246	562.811	1305.701	3145.448
-54.232	145.129	2552.512	3399.095
-53.217	120.093	2243.063	2769.608
-52.203	54.607	1680.926	1612.925
-51.188	46.134	1398.311	1288.852
-50.173	42.275	1351.692	1222.370
-49.159	60.428	1386.516	1365.882
-48.144	67.849	1404.623	1429.189
-47.130	46.308	1367.046	1260.899
-46.115	42.154	1350.846	1220.670
-45.100	41.890	1346.384	1214.987
-44.086	41.917	1343.385	1212.394
-43.071	41.740	1341.301	1209.397
-42.057	41.821	1338.679	1207.472
-41.042	41.728	1337.225	1205.553
-40.027	41.739	1335.994	1204.462
-39.013	41.843	1333.594	1202.877
-37.998	41.850	1331.584	1201.060
-36.984	41.849	1329.958	1199.535
-35.969	42.014	1327.996	1198.710
-34.954	42.063	1325.889	1197.051
-33.940	42.051	1324.697	1195.859
-32.925	41.972	1323.710	1194.448
-31.911	42.101	1321.516	1193.186
-30.896	42.004	1320.269	1191.440
-29.881	42.095	1318.749	1190.558
-28.867	42.104	1316.861	1188.865
-27.852	42.006	1315.822	1187.296
-26.838	42.106	1313.932	1186.136
-25.823	42.007	1312.747	1184.431
-24.809	42.110	1311.477	1183.846
-23.794	41.913	1310.075	1181.370
-22.779	41.982	1308.639	1180.440
-21.765	42.053	1307.387	1179.677
-20.750	42.054	1305.958	1178.350
-19.736	41.878	1305.251	1176.627
-18.721	41.996	1303.383	1175.590
-17.706	41.914	1301.913	1173.739
-16.692	41.892	1301.011	1172.749
-15.677	41.947	1299.772	1171.907
-14.663	41.839	1299.188	1170.701
-13.648	41.807	1297.582	1169.024
-12.633	41.905	1296.310	1168.400
-11.619	41.796	1295.802	1167.260
-10.604	41.848	1294.553	1166.395
-9.590	41.834	1293.514	1165.329
-8.575	41.744	1293.019	1164.314
-7.560	41.881	1291.755	1163.927
-6.546	41.806	1291.055	1162.814
-5.531	41.847	1289.728	1161.808
-4.517	41.742	1289.300	1160.766
-3.502	41.880	1288.107	1160.449
-2.487	41.904	1287.183	1159.712
-1.473	41.876	1283.407	1156.102
-0.458	40.717	1268.032	1135.582
0.556	35.818	1247.377	1092.789
1.571	32.105	1250.544	1074.272
2.586	31.119	1265.879	1081.639
3.600	29.600	1255.275	1063.740
4.615	20.856	1176.829	949.735
5.629	7.465	1090.140	811.622
6.644	1.166	1065.474	761.626
7.659	0.735	1062.158	757.030
8.673	0.708	1060.595	755.711
9.688	0.592	1059.622	754.374
10.702	1.086	1058.804	756.191
11.717	9.102	1071.169	805.291
12.731	20.449	1087.376	874.872
13.746	23.853	1090.337	894.332
14.761	23.232	1089.375	890.342
15.775	23.040	1088.607	888.672
16.790	22.829	1087.197	886.384
17.804	22.845	1086.883	886.128
18.819	22.894	1086.770	886.206
19.834	22.851	1086.282	885.510
20.848	22.939	1085.671	885.375
21.863	22.945	1084.958	884.746
22.877	22.767	1084.696	883.563
23.892	22.825	1083.544	882.835
24.907	22.821	1082.896	882.209
25.921	22.891	1082.029	881.778
26.936	22.764	1080.285	879.645
27.950	22.718	1079.229	878.477
28.965	22.603	1077.303	876.260
29.980	22.799	1074.990	875.276
30.994	22.909	1074.436	875.289
32.009	22.868	1073.431	874.193
33.023	22.627	1072.298	871.997
34.038	22.719	1071.678	871.871
35.053	22.821	1070.799	871.583
36.067	22.912	1069.708	871.070
37.082	22.952	1069.425	870.959
38.096	23.173	1068.428	871.156
39.111	23.144	1067.941	870.538
40.126	23.099	1065.973	868.635
41.140	22.706	1064.554	865.475
42.155	22.406	1063.304	862.912
43.169	22.542	1062.233	862.631
44.184	22.458	1061.466	861.521
45.199	22.404	1060.561	860.447
46.213	22.562	1059.243	860.076
47.228	22.734	1058.530	860.256
48.242	22.778	1057.656	859.685
49.257	22.786	1057.344	859.392
50.271	23.057	1055.646	859.254
51.286	22.954	1055.339	858.430
52.301	22.912	1054.626	857.569
53.315	22.847	1053.416	856.197
54.330	22.943	1052.040	855.467
55.344	22.915	1051.280	854.637
56.359	22.871	1050.642	853.829
57.374	22.559	1049.816	851.574
58.388	22.688	1049.058	851.509
59.403	22.760	1048.224	851.102
60.417	22.556	1047.168	849.188
61.432	22.476	1046.860	848.477
62.447	22.681	1046.268	848.910
63.461	22.707	1045.371	848.232
64.476	22.721	1044.303	847.356
65.490	22.548	1043.489	845.792
66.505	22.495	1043.147	845.186
67.520	22.752	1042.333	845.682
68.534	22.433	1041.149	843.121
69.549	22.133	1040.309	840.931
70.563	22.162	1039.197	840.094
71.578	22.236	1037.970	839.383
72.593	22.013	1037.513	837.873
73.607	22.065	1036.999	837.632
74.622	22.435	1036.455	838.884
75.636	22.437	1036.151	838.569
76.651	22.375	1034.750	837.069
77.666	22.286	1034.118	836.058
78.680	22.309	1033.486	835.586
79.695	22.434	1032.568	835.359
80.709	22.474	1032.311	835.270
81.724	22.476	1031.462	834.518
82.739	22.500	1030.501	833.779
83.753	22.853	1030.320	835.232
84.768	23.307	1028.965	836.203
85.782	23.143	1028.403	834.896
86.797	23.152	1027.171	833.867
87.812	22.930	1025.988	831.787
88.826	23.139	1025.404	832.224
89.841	23.080	1024.948	831.502
90.855	23.220	1023.585	830.980
91.870	23.092	1022.792	829.662
92.884	22.861	1022.059	827.911
93.899	22.962	1020.743	827.246
94.914	23.176	1019.919	827.506
95.928	22.894	1019.180	825.515
96.943	22.863	1017.327	823.793
97.957	22.610	1016.178	821.611
98.972	22.391	1014.915	819.497
99.987	22.650	1014.500	820.295
101.001	22.914	1013.766	820.856
102.016	22.797	1013.045	819.660
103.030	22.764	1011.831	818.450
104.045	22.580	1011.054	816.899
105.060	22.410	1010.106	815.269
106.074	22.678	1009.021	815.565
107.089	23.026	1008.563	816.727
108.103	22.853	1007.969	815.375
109.118	22.778	1005.787	813.196
110.133	22.767	1005.021	812.453
111.147	22.491	1003.937	810.233
112.162	22.449	1002.657	808.935
113.176	22.691	1002.230	809.631
114.191	22.586	1001.400	808.410
115.206	22.325	1000.412	806.342
116.220	22.237	999.443	805.089
117.235	22.440	998.518	805.202
118.249	22.320	998.008	804.170
119.264	22.395	997.052	803.668
120.279	22.328	996.720	803.024
121.293	22.485	995.363	802.576
122.308	22.396	995.026	801.830
123.322	22.289	994.062	800.494
124.337	22.050	992.858	798.366
125.352	21.668	991.066	795.120
126.366	21.557	990.186	793.843
127.381	22.493	989.858	797.750
128.395	22.775	989.986	799.058
129.410	22.911	988.899	798.727
130.424	22.861	987.984	797.693
131.439	22.926	986.699	796.877
132.454	22.913	986.138	796.296
133.468	23.008	984.880	795.636
134.483	22.925	984.591	794.960
135.497	22.981	983.706	794.423
136.512	23.159	982.991	794.574
137.527	23.228	981.999	794.014
138.541	23.117	981.362	792.933
139.556	23.129	980.527	792.241
140.570	23.290	979.701	792.221
141.585	23.192	978.588	790.816
142.600	23.159	977.434	789.665
143.614	23.380	977.038	790.259
144.629	23.495	975.803	789.705
145.643	23.284	974.975	788.026
146.658	23.247	973.337	786.467
147.673	23.129	972.486	785.189
148.687	22.985	971.304	783.523
149.702	22.760	970.463	781.779
150.716	22.933	969.549	781.742
151.731	22.940	968.918	781.196
152.746	23.144	968.368	781.583
153.760	23.188	967.761	781.219
154.775	23.252	967.300	781.060
155.789	23.279	966.358	780.348
156.804	23.261	965.154	779.225
157.819	23.364	964.073	778.739
158.833	23.455	963.828	778.870
159.848	23.406	962.809	777.766
160.862	23.260	961.397	775.915
161.877	23.240	960.916	775.370
162.892	23.281	959.930	774.687
163.906	23.309	958.557	773.631
164.921	23.149	957.788	772.245
165.935	23.296	957.292	772.416
166.950	23.321	955.767	771.228
167.964	23.239	955.448	770.545
168.979	23.223	953.505	768.839
169.994	23.093	952.997	767.799
171.008	23.386	952.200	768.361
172.023	23.253	951.830	767.414
173.037	23.122	950.220	765.484
174.052	23.012	949.326	764.220
175.067	22.908	949.597	763.921
176.081	23.161	948.428	764.007
177.096	22.996	948.199	763.041
178.110	22.740	946.823	760.763
179.125	22.751	946.072	760.138
180.140	22.677	945.780	759.519
181.154	22.747	945.736	759.717
182.169	23.022	945.229	760.425
183.183	23.232	944.923	761.015
184.198	23.015	944.007	759.278
185.213	23.088	943.188	758.865
186.227	23.238	942.767	759.104
187.242	23.312	941.546	758.371
188.256	23.277	941.026	757.733
189.271	23.465	940.109	757.731
190.286	23.097	939.292	755.433
191.300	22.444	937.601	751.225
192.315	21.768	936.006	746.997
193.329	21.578	935.949	746.079
194.344	22.457	936.471	750.173
195.359	23.138	935.922	752.565
196.373	23.246	935.651	752.739
197.388	23.076	935.243	751.623
198.402	23.020	934.532	750.745
199.417	23.172	933.543	750.529
200.432	22.966	932.590	748.825
201.446	22.640	932.209	747.074
202.461	22.823	931.090	746.884
203.475	21.986	929.168	741.742
204.490	21.116	928.063	737.122
205.504	22.059	928.517	741.396
206.519	22.739	928.267	744.000
207.534	22.849	927.740	743.978
208.548	23.245	927.475	745.366
209.563	23.057	926.611	743.813
210.577	22.902	925.839	742.479
211.592	23.331	925.487	743.931
212.607	23.460	924.470	743.588
213.621	23.298	924.085	742.536
214.636	23.300	923.450	741.966
215.650	23.252	922.811	741.187
216.665	23.370	922.045	740.999
217.680	23.269	921.275	739.892
218.694	22.932	920.066	737.449
219.709	22.780	919.327	736.161
220.723	23.093	918.769	736.953
221.738	23.181	918.467	737.013
222.753	23.130	917.759	736.166
223.767	23.179	917.342	735.968
224.782	23.488	916.831	736.780
225.796	23.431	916.039	735.839
226.811	22.855	914.679	732.296
227.826	22.201	913.470	728.553
228.840	22.283	912.848	728.332
229.855	22.480	912.203	728.569
230.869	22.168	911.087	726.322
231.884	22.566	910.992	727.827
232.899	23.170	911.321	730.520
233.913	23.085	910.727	729.629
234.928	22.980	910.137	728.657
235.942	23.038	909.619	728.416
236.957	22.718	908.222	725.917
237.972	22.881	907.539	725.977
238.986	22.897	907.126	725.650
240.001	23.022	906.542	725.631
241.015	22.934	906.289	725.002
242.030	23.082	905.853	725.196
243.045	23.141	905.501	725.092
244.059	23.303	904.742	725.083
245.074	23.091	903.981	723.543
246.088	22.813	902.521	721.175
247.103	23.042	902.377	721.931
248.117	23.517	902.692	724.058
249.132	23.743	902.036	724.390
250.147	23.905	901.338	724.424
251.161	24.093	900.891	724.767
252.176	23.880	900.712	723.693
253.190	24.066	899.650	723.533
254.205	24.141	899.477	723.632
255.220	24.102	899.099	723.105
256.234	24.013	898.076	721.860
257.249	23.919	896.783	720.374
258.263	23.885	896.349	719.826
259.278	24.158	895.531	720.206
260.293	24.094	895.140	719.570
261.307	23.955	894.422	718.369
262.322	24.032	893.123	717.574
263.336	23.121	891.322	712.397
264.351	21.956	889.857	706.476
265.366	22.242	889.041	706.915
266.380	23.203	890.302	711.721
267.395	23.635	889.915	713.086
268.409	23.422	889.179	711.575
269.424	23.915	888.471	712.925
270.439	23.858	888.107	712.340
271.453	23.754	887.730	711.559
272.468	24.047	886.885	711.989
273.482	24.187	886.399	712.097
274.497	23.674	885.384	709.171
275.512	23.308	884.615	707.031
276.526	23.750	884.632	708.746
277.541	23.975	884.242	709.268
278.555	23.604	883.520	707.146
279.570	23.619	882.190	706.080
280.585	23.577	882.181	705.844
281.599	23.658	881.170	705.294
282.614	23.103	880.071	702.147
283.628	23.017	879.388	701.201
284.643	23.479	879.102	702.742
285.657	23.145	877.812	700.329
286.672	22.923	876.910	698.669
287.687	23.460	877.102	700.884
288.701	23.444	876.479	700.257
289.716	23.105	875.572	698.136
290.730	23.080	874.910	697.447
291.745	22.841	873.864	695.611
292.760	23.173	873.794	696.799
293.774	24.095	874.057	700.575
294.789	24.297	874.102	701.346
295.803	24.388	873.252	700.957
296.818	24.421	872.939	700.777
297.833	24.098	871.459	698.257
298.847	23.799	871.015	696.670
299.862	24.220	870.322	697.705
300.876	24.476	870.161	698.512
301.891	24.411	869.566	697.720
302.906	23.859	868.737	694.836
303.920	23.865	868.218	694.384
304.935	24.239	868.239	695.800
305.949	24.393	867.271	695.564
306.964	24.278	866.159	694.160
307.979	24.132	865.636	693.113
308.993	24.480	865.930	694.639
310.008	24.521	865.312	694.243
311.022	24.378	864.000	692.575
312.037	24.074	863.881	691.236
313.052	23.939	862.433	689.496
314.066	22.969	861.484	684.915
315.081	22.714	860.638	683.197
316.095	23.406	861.132	686.207
317.110	23.975	860.800	688.083
318.125	23.223	859.424	684.017
319.139	22.320	857.551	678.986
320.154	22.365	856.816	678.516
321.168	23.058	857.757	681.872
322.183	23.783	857.954	684.764
323.197	23.888	857.751	684.946
324.212	24.288	857.108	685.912
325.227	24.126	856.755	684.947
326.241	23.963	855.929	683.601
327.256	23.918	855.458	682.988
328.270	23.862	854.575	682.009
329.285	23.849	853.453	681.003
330.300	23.489	852.971	679.180
331.314	23.741	852.583	679.776
332.329	24.227	852.269	681.323
333.343	24.108	852.266	680.806
334.358	24.271	851.807	681.001
335.373	24.262	851.598	680.742
336.387	24.492	851.395	681.394
337.402	24.514	851.627	681.606
338.416	24.592	850.459	680.908
339.431	24.658	850.287	680.960
340.446	24.898	849.725	681.362
341.460	24.721	849.434	680.395
342.475	24.571	848.570	679.076
343.489	24.673	848.719	679.522
344.504	24.839	848.453	679.877
345.519	24.950	848.141	679.991
346.533	24.997	847.506	679.597
347.548	25.001	846.738	678.940
348.562	25.141	846.068	678.871
349.577	25.099	845.347	678.073
350.592	24.939	844.920	677.064
351.606	24.905	844.358	676.428
352.621	24.828	843.231	675.176
353.635	24.889	842.675	674.901
354.650	24.156	841.292	670.971
355.665	23.134	839.686	665.788
356.679	23.647	839.309	667.358
357.694	24.189	839.003	669.094
358.708	24.044	838.591	668.162
359.723	24.342	838.674	669.284
360.738	24.703	838.091	670.114
361.752	24.721	837.742	669.845
362.767	25.074	837.669	671.047
363.781	25.336	837.174	671.572
364.796	25.303	836.703	671.011
365.810	25.557	835.877	671.237
366.825	25.554	835.423	670.802
367.840	25.143	834.985	668.861
368.854	24.609	834.200	666.180
369.869	24.734	833.609	666.115
370.883	24.919	832.967	666.232
371.898	24.782	832.575	665.349
372.913	24.717	832.618	665.083
373.927	24.735	832.044	664.634
374.942	24.997	831.290	664.945
375.956	25.129	830.986	665.132
376.971	25.128	830.950	665.041
377.986	25.319	830.697	665.487
379.000	25.329	829.499	664.505
380.015	25.172	828.952	663.428
381.029	25.179	828.697	663.191
382.044	25.479	827.760	663.491
383.059	25.320	827.348	662.515
384.073	25.345	827.141	662.384
385.088	25.357	826.411	661.785
386.102	25.197	825.507	660.412
387.117	25.130	824.944	659.658
388.132	24.778	823.837	657.419
389.146	24.417	822.682	655.117
390.161	24.755	822.722	656.329
391.175	25.109	822.578	657.456
392.190	24.915	821.383	655.732
393.205	23.714	819.382	649.686
394.219	21.956	818.051	642.148
395.234	21.789	817.774	641.262
396.248	23.468	818.984	648.298
397.263	25.006	819.878	654.572
398.278	24.844	819.459	653.590
399.292	24.597	818.726	652.047
400.307	24.567	818.412	651.628
401.321	24.789	817.929	651.997
402.336	25.191	817.700	653.220
403.350	25.633	817.362	654.500
404.365	25.735	817.476	654.906
405.380	26.042	817.033	655.609
406.394	26.101	816.349	655.214
407.409	26.086	816.155	654.947
408.423	25.991	815.737	654.209
409.438	26.133	815.435	654.422
410.453	26.159	815.081	654.174
411.467	26.195	814.031	653.407
412.482	26.114	813.602	652.710
413.496	26.125	813.690	652.761
414.511	26.161	813.071	652.339
415.526	26.198	812.701	652.117
416.540	25.986	812.183	650.880
417.555	25.735	811.511	649.377
418.569	25.621	811.190	648.652
419.584	25.896	810.192	648.786
420.599	25.455	809.844	646.865
421.613	90.884	1254.806	1351.030
422.628	77.944	1319.682	1351.138
