DTS Sentinel unit serial number:	SN413079Multiplexer serial number:	ORYXHardware model number:	OX4-SRSoftware version number:	ORYX F/W v4.00 Oryx Data Collector v3.7.2.0data status	okinstallation	princeton_trtdifferential loss correction	single-endedforward channel	channel 1reverse channel	N/Adate	2019/09/14time	12:54:35forward acquisition time	60.00reverse acquisition time	0.00gamma	496.2192k internal	0.2294k external	0.2294temperature offset calibration	1.0089default loss term (dB/km)	0.3790temperature slope calibration	1.0000multiplexer offset coefficient	1.0000multiplexer slope coefficient	1.0000fibre end	0.00T internal ref (°C)	38.00T ext. ref 1 (°C)	4.86T ext. ref 2 (°C)	34.11length (m)	temperature (°C)	Stokes	anti-Stokes-747.200	1.245	0.246	-0.181
-746.185	145.511	-0.211	0.289
-745.171	-200.000	0.032	-0.248
-744.156	-131.000	-0.092	-0.013
-743.142	234.322	0.030	-0.050
-742.127	183.028	0.135	0.204
-741.112	218.919	0.158	0.258
-740.098	800.000	0.127	0.490
-739.083	104.319	0.125	-0.150
-738.069	-58.141	-0.444	0.198
-737.054	93.015	0.013	0.015
-736.039	102.329	-0.039	0.047
-735.025	-56.924	0.106	-0.048
-734.010	380.802	0.013	-0.027
-732.996	76.826	-0.416	-0.452
-731.981	21.127	0.265	-0.220
-730.966	-200.000	0.026	0.172
-729.952	-200.000	0.066	-0.427
-728.937	-94.922	-0.272	0.075
-727.923	249.603	0.057	-0.098
-726.908	45.250	-0.232	-0.218
-725.894	83.234	-0.059	0.065
-724.879	129.519	-0.233	-0.305
-723.864	-152.058	-0.140	0.010
-722.850	132.443	-0.160	-0.210
-721.835	-200.000	0.004	-0.106
-720.821	34.311	-0.233	0.208
-719.806	-200.000	-0.008	-0.126
-718.791	0.508	-0.233	0.170
-717.777	-194.643	-0.237	0.002
-716.762	282.618	-0.110	-0.201
-715.748	-119.973	-0.433	-0.076
-714.733	-200.000	0.030	-0.233
-713.718	-96.385	-0.227	-0.061
-712.704	307.377	0.162	0.309
-711.689	800.000	0.024	-0.089
-710.675	-200.000	0.007	0.113
-709.660	800.000	-0.097	-0.327
-708.645	20.922	-0.152	-0.126
-707.631	-48.879	-0.315	-0.154
-706.616	126.096	0.062	-0.080
-705.602	68.792	-0.025	-0.026
-704.587	800.000	-0.039	-0.136
-703.572	-68.157	-0.318	-0.126
-702.558	195.146	0.114	0.176
-701.543	55.443	0.202	0.200
-700.529	-53.255	0.139	-0.065
-699.514	800.000	-0.031	-0.089
-698.499	182.318	-0.066	-0.100
-697.485	-92.101	-0.180	0.052
-696.470	237.846	0.090	-0.152
-695.456	-200.000	-0.025	0.191
-694.441	-115.098	-0.303	-0.059
-693.426	256.855	-0.143	0.251
-692.412	205.160	0.180	0.285
-691.397	-200.000	-0.039	-0.189
-690.383	-200.000	-0.037	0.000
-689.368	207.674	0.133	-0.212
-688.354	800.000	0.051	0.177
-687.339	-200.000	0.016	0.119
-686.324	-4.273	0.112	-0.079
-685.310	287.660	-0.089	0.164
-684.295	-120.081	-0.285	-0.050
-683.281	-200.000	0.033	-0.274
-682.266	23.133	0.107	0.090
-681.251	309.131	-0.148	-0.282
-680.237	-51.441	-0.086	0.041
-679.222	-26.659	0.247	0.147
-678.208	-200.000	-0.305	0.001
-677.193	-124.586	-0.090	0.014
-676.178	800.000	-0.106	-0.311
-675.164	579.686	0.018	0.044
-674.149	-95.669	0.122	0.033
-673.135	-80.130	-0.025	-0.009
-672.120	-49.816	0.234	-0.113
-671.105	8.168	-0.244	0.187
-670.091	557.428	0.089	0.219
-669.076	800.000	-0.094	-0.309
-668.062	-164.499	-0.428	-0.020
-667.047	-131.293	0.110	-0.015
-666.032	76.999	0.006	-0.006
-665.018	195.893	0.162	0.251
-664.003	-200.000	0.047	-0.292
-662.989	427.845	-0.044	0.097
-661.974	-122.126	-0.309	0.052
-660.959	-113.978	-0.131	0.026
-659.945	257.066	-0.168	-0.294
-658.930	-30.740	-0.351	-0.202
-657.916	570.836	-0.073	0.180
-656.901	205.352	0.169	-0.268
-655.886	11.760	0.195	0.153
-654.872	718.983	0.064	0.173
-653.857	131.935	-0.108	0.142
-652.843	-200.000	-0.011	-0.056
-651.828	587.327	-0.084	-0.210
-650.814	77.531	0.036	-0.039
-649.799	-67.861	-0.095	-0.038
-648.784	-79.909	0.140	0.048
-647.770	107.441	0.172	-0.209
-646.755	-200.000	0.029	-0.270
-645.741	-82.119	0.167	-0.056
-644.726	-111.398	-0.145	-0.030
-643.711	246.469	-0.093	-0.160
-642.697	-200.000	0.004	-0.044
-641.682	-140.398	-0.065	-0.007
-640.668	132.551	0.113	0.148
-639.653	-43.043	-0.067	0.035
-638.638	-33.700	-0.190	-0.107
-637.624	196.930	0.022	0.034
-636.609	0.232	0.173	0.126
-635.595	-148.228	0.298	-0.025
-634.580	-64.848	0.295	-0.122
-633.565	-132.831	-0.148	0.019
-632.551	-11.834	0.376	0.251
-631.536	-200.000	-0.034	-0.183
-630.522	702.012	0.060	0.160
-629.507	-121.873	0.140	0.024
-628.492	186.027	0.068	-0.103
-627.478	-71.176	-0.139	-0.053
-626.463	-200.000	-0.013	-0.104
-625.449	-183.221	-0.441	0.008
-624.434	-123.767	0.113	-0.018
-623.419	800.000	-0.081	-0.340
-622.405	800.000	-0.134	-0.426
-621.390	-200.000	-0.034	-0.164
-620.376	135.179	-0.144	0.190
-619.361	-200.000	-0.038	-0.208
-618.346	800.000	0.036	0.155
-617.332	-200.000	0.023	0.129
-616.317	800.000	-0.035	-0.101
-615.303	49.507	-0.292	-0.279
-614.288	461.687	0.081	0.184
-613.273	164.065	0.127	0.182
-612.259	-158.843	-0.075	-0.004
-611.244	-200.000	-0.017	-0.140
-610.230	71.372	0.290	-0.307
-609.215	143.554	0.073	-0.099
-608.201	104.449	0.229	0.274
-607.186	-130.937	-0.237	0.032
-606.171	-168.855	-0.120	0.005
-605.157	263.667	0.262	0.463
-604.142	-200.000	0.059	0.304
-603.128	-167.828	-0.110	-0.004
-602.113	147.792	0.089	-0.123
-601.098	-86.349	0.251	0.079
-600.084	-109.834	0.334	-0.071
-599.069	258.556	-0.164	0.288
-598.055	266.330	-0.082	-0.145
-597.040	-76.949	-0.057	0.020
-596.025	85.051	-0.190	-0.212
-595.011	31.540	-0.102	-0.089
-593.996	-116.704	0.395	0.074
-592.982	-130.236	-0.145	-0.020
-591.967	-200.000	0.063	0.467
-590.952	-0.266	-0.205	0.148
-589.938	-51.100	-0.073	-0.035
-588.923	518.832	-0.113	0.269
-587.909	-200.000	-0.033	-0.361
-586.894	539.811	-0.087	-0.210
-585.879	800.000	0.033	-0.102
-584.865	22.641	-0.198	-0.165
-583.850	-140.257	-0.273	0.029
-582.836	800.000	0.080	0.300
-581.821	263.274	0.063	-0.111
-580.806	-200.000	-0.004	0.231
-579.792	-59.622	0.089	-0.039
-578.777	519.159	-0.120	0.286
-577.763	800.000	-0.043	0.177
-576.748	297.771	0.019	-0.036
-575.733	-0.052	-0.147	0.107
-574.719	-200.000	-0.055	0.400
-573.704	393.531	-0.029	0.062
-572.690	-121.582	-0.218	-0.037
-571.675	-200.000	0.008	0.275
-570.661	54.130	-0.073	0.071
-569.646	-75.813	0.198	0.071
-568.631	-68.142	-0.208	-0.082
-567.617	20.030	-0.323	-0.264
-566.602	30.680	-0.120	-0.104
-565.588	-200.000	-0.004	-0.033
-564.573	-26.047	0.235	0.140
-563.558	203.467	-0.042	-0.065
-562.544	-200.000	0.044	-0.237
-561.529	155.771	-0.128	-0.179
-560.515	-105.446	-0.241	-0.056
-559.500	423.674	-0.139	0.304
-558.485	-84.840	-0.184	-0.059
-557.471	-200.000	0.029	0.247
-556.456	22.130	-0.296	-0.246
-555.442	-57.185	-0.335	-0.150
-554.427	273.357	0.114	0.205
-553.412	86.960	-0.103	-0.115
-552.398	-200.000	0.025	-0.325
-551.383	800.000	-0.051	0.222
-550.369	46.003	0.041	-0.039
-549.354	211.818	-0.097	-0.155
-548.339	82.094	0.142	0.156
-547.325	1.527	0.320	-0.234
-546.310	-78.597	0.235	0.082
-545.296	-63.087	-0.155	0.065
-544.281	800.000	0.132	0.406
-543.266	-189.411	-0.111	0.001
-542.252	95.996	0.254	-0.294
-541.237	674.296	0.072	-0.189
-540.223	204.347	-0.101	0.159
-539.208	-92.273	-0.092	0.026
-538.193	-151.208	0.251	0.019
-537.179	-81.582	-0.260	-0.087
-536.164	237.028	0.253	-0.425
-535.150	-155.204	-0.253	0.017
-534.135	-87.733	0.083	-0.026
-533.121	-200.000	0.001	-0.076
-532.106	-125.499	-0.205	-0.032
-531.091	328.360	-0.106	-0.206
-530.077	233.972	0.229	-0.382
-529.062	372.322	0.080	-0.165
-528.048	54.787	-0.129	-0.126
-527.033	-22.547	0.058	-0.036
-526.018	-141.375	-0.199	-0.020
-525.004	-183.617	0.221	0.004
-523.989	-27.230	-0.090	-0.053
-522.975	-2.845	-0.163	-0.116
-521.960	36.449	-0.304	-0.272
-520.945	-200.000	0.005	0.038
-519.931	-19.667	0.210	-0.131
-518.916	800.000	-0.060	-0.176
-517.902	115.792	0.014	-0.018
-516.887	-176.346	-0.265	-0.007
-515.872	-75.393	-0.642	-0.232
-514.858	-137.840	-0.156	-0.018
-513.843	2.769	0.113	-0.083
-512.829	-35.506	0.197	-0.108
-511.814	170.203	0.155	0.225
-510.799	-64.670	0.180	-0.074
-509.785	-200.000	-0.017	-0.110
-508.770	-113.213	0.190	-0.038
-507.756	-21.460	0.139	0.086
-506.741	-7.260	0.254	0.175
-505.726	-141.990	0.154	-0.016
-504.712	640.185	-0.090	0.233
-503.697	125.788	0.139	0.178
-502.683	59.510	0.217	-0.217
-501.668	-186.126	-0.028	-0.000
-500.653	37.808	-0.094	-0.084
-499.639	92.649	0.097	0.111
-498.624	35.282	-0.096	0.085
-497.610	-128.065	-0.185	-0.027
-496.595	194.012	0.217	0.333
-495.581	-200.000	-0.032	0.157
-494.566	233.183	0.031	0.051
-493.551	800.000	0.083	0.283
-492.537	629.077	-0.118	0.302
-491.522	-126.673	0.063	0.009
-490.508	-90.295	-0.195	0.057
-489.493	-47.055	0.041	0.020
-488.478	-200.000	0.011	0.048
-487.464	94.488	0.100	-0.115
-486.449	164.832	-0.145	0.207
-485.435	-171.879	0.343	0.011
-484.420	-200.000	-0.093	0.416
-483.405	-124.257	0.074	-0.012
-482.391	-71.642	0.090	-0.034
-481.376	800.000	-0.061	-0.224
-480.362	53.206	0.121	-0.117
-479.347	-15.589	-0.288	-0.186
-478.332	449.311	0.174	0.388
-477.318	-64.048	0.303	-0.125
-476.303	-11.879	0.125	-0.083
-475.289	800.000	0.070	0.250
-474.274	-200.000	-0.057	-0.321
-473.259	-40.545	-0.227	-0.119
-472.245	-9.753	0.162	-0.109
-471.230	489.556	0.120	0.278
-470.216	-0.082	0.333	0.240
-469.201	-200.000	0.005	-0.130
-468.186	-117.756	0.320	0.058
-467.172	-200.000	-0.020	0.293
-466.157	-63.797	0.246	0.102
-465.143	-32.710	0.118	-0.067
-464.128	-71.424	0.266	-0.101
-463.113	-200.000	0.013	-0.249
-462.099	-59.386	0.031	0.013
-461.084	19.052	0.343	0.278
-460.070	-181.205	-0.171	-0.003
-459.055	800.000	-0.029	0.088
-458.040	-64.737	0.119	-0.049
-457.026	-19.481	-0.258	-0.161
-456.011	13.539	0.300	0.235
-454.997	-200.000	-0.011	-0.063
-453.982	203.443	-0.216	-0.338
-452.968	-126.627	0.206	-0.031
-451.953	-115.585	-0.410	0.078
-450.938	-185.701	-0.271	-0.004
-449.924	-57.338	0.138	0.061
-448.909	-26.180	-0.350	-0.208
-447.895	140.364	-0.263	-0.350
-446.880	-200.000	0.013	-0.182
-445.865	-48.632	0.137	0.067
-444.851	133.905	-0.035	0.045
-443.836	-200.000	-0.050	-0.377
-442.822	800.000	0.059	0.215
-441.807	216.551	-0.029	-0.046
-440.792	168.740	0.038	-0.054
-439.778	-35.546	-0.286	-0.157
-438.763	98.862	-0.147	-0.172
-437.749	-87.778	0.147	-0.045
-436.734	8.070	-0.100	0.076
-435.719	-84.421	0.274	0.088
-434.705	476.843	-0.082	-0.187
-433.690	128.574	-0.252	0.325
-432.676	441.483	0.064	0.142
-431.661	-0.067	-0.230	-0.166
-430.646	143.236	0.089	-0.120
-429.632	-173.462	-0.205	-0.006
-428.617	800.000	-0.119	-0.338
-427.603	57.287	0.187	-0.185
-426.588	-166.524	0.068	0.003
-425.573	431.743	0.099	0.217
-424.559	-71.986	-0.078	0.029
-423.544	286.585	-0.180	0.328
-422.530	-111.247	-0.080	-0.017
-421.515	200.071	0.107	0.166
-420.500	800.000	-0.088	0.369
-419.486	-91.413	0.396	-0.114
-418.471	-83.708	0.423	0.136
-417.457	98.522	-0.238	-0.277
-416.442	-144.272	0.358	-0.034
-415.428	251.191	-0.093	0.159
-414.413	-200.000	0.037	0.179
-413.398	88.200	-0.148	0.165
-412.384	-177.153	-0.107	0.003
-411.369	-143.721	-0.126	0.012
-410.355	-13.870	0.143	-0.093
-409.340	118.775	-0.027	-0.034
-408.325	-200.000	-0.013	-0.150
-407.311	253.070	-0.062	0.106
-406.296	81.696	0.081	-0.088
-405.282	234.118	0.162	-0.269
-404.267	50.242	-0.247	-0.236
-403.252	-81.584	-0.135	0.045
-402.238	-79.431	-0.243	0.083
-401.223	446.451	0.017	-0.037
-400.209	-200.000	0.006	0.212
-399.194	-200.000	0.006	0.027
-398.179	-79.966	-0.110	0.037
-397.165	-108.478	-0.074	0.016
-396.150	-200.000	-0.002	-0.102
-395.136	-53.106	-0.371	-0.172
-394.121	512.577	0.107	0.251
-393.106	166.608	-0.083	-0.119
-392.092	-200.000	-0.075	-0.000
-391.077	11.120	-0.170	-0.131
-390.063	-200.000	0.061	0.441
-389.048	-77.476	-0.340	-0.119
-388.033	-144.663	-0.301	0.028
-387.019	-200.000	-0.026	-0.136
-386.004	-86.659	-0.099	0.030
-384.990	-96.048	0.134	-0.036
-383.975	53.965	-0.192	-0.186
-382.960	-62.411	0.048	-0.020
-381.946	37.760	-0.098	-0.087
-380.931	-200.000	-0.041	-0.190
-379.917	-28.141	0.199	0.116
-378.902	31.196	0.186	0.161
-377.888	-143.265	-0.030	-0.003
-376.873	-200.000	0.052	0.233
-375.858	-200.000	0.012	0.140
-374.844	-3.225	-0.196	0.137
-373.829	49.458	0.217	-0.205
-372.815	155.019	0.068	0.094
-371.800	-200.000	-0.008	-0.243
-370.785	393.911	-0.103	0.216
-369.771	1.473	-0.086	-0.063
-368.756	-85.148	0.284	0.090
-367.742	84.622	-0.267	0.295
-366.727	-200.000	-0.001	0.017
-365.712	-82.670	-0.141	-0.046
-364.698	-39.104	0.193	0.102
-363.683	-200.000	0.054	-0.357
-362.669	800.000	-0.116	-0.338
-361.654	355.363	0.147	-0.294
-360.639	800.000	0.083	0.235
-359.625	-94.416	-0.175	0.048
-358.610	75.737	0.104	0.110
-357.596	-117.382	0.265	0.048
-356.581	643.632	0.081	-0.208
-355.566	-107.940	0.326	0.071
-354.552	-86.343	-0.096	-0.030
-353.537	-95.148	-0.237	0.064
-352.523	-13.664	0.045	-0.029
-351.508	284.157	0.173	0.314
-350.493	127.164	-0.161	0.206
-349.479	50.644	-0.384	0.366
-348.464	-86.185	-0.209	0.065
-347.450	-200.000	0.030	0.169
-346.435	71.603	0.194	-0.203
-345.420	-161.409	0.094	-0.005
-344.406	13.912	0.303	-0.237
-343.391	-200.000	-0.037	0.407
-342.377	-29.727	0.239	0.137
-341.362	800.000	-0.052	0.201
-340.348	540.354	0.119	-0.285
-339.333	564.631	0.098	-0.238
-338.318	-116.775	0.197	0.036
-337.304	-85.815	0.295	-0.092
-336.289	-49.940	0.240	-0.115
-335.275	-200.000	0.002	-0.164
-334.260	92.201	-0.134	-0.152
-333.245	119.489	-0.135	-0.168
-332.231	-38.083	-0.150	-0.080
-331.216	800.000	-0.093	0.353
-330.202	-200.000	0.007	-0.087
-329.187	800.000	-0.122	-0.346
-328.172	265.945	0.085	0.150
-327.158	-200.000	0.034	0.226
-326.143	800.000	-0.077	-0.246
-325.129	289.373	-0.158	-0.288
-324.114	-200.000	0.032	0.234
-323.099	547.397	0.109	0.263
-322.085	-42.870	-0.129	-0.066
-321.070	-200.000	0.035	-0.203
-320.056	-107.250	-0.158	0.035
-319.041	36.839	-0.191	0.170
-318.026	800.000	-0.043	0.120
-317.012	800.000	-0.010	0.046
-315.997	-167.618	0.138	-0.006
-314.983	-62.759	0.215	0.090
-313.968	250.542	0.041	0.069
-312.953	184.974	0.073	-0.110
-311.939	800.000	-0.043	0.134
-310.924	395.253	-0.116	-0.243
-309.910	329.655	0.088	0.170
-308.895	73.915	0.135	0.142
-307.880	92.587	0.176	0.199
-306.866	86.375	-0.051	0.056
-305.851	-52.984	-0.138	0.064
-304.837	19.221	-0.083	0.067
-303.822	-166.988	0.214	-0.009
-302.807	-200.000	-0.025	0.450
-301.793	99.732	-0.141	0.164
-300.778	-200.000	-0.047	0.468
-299.764	369.122	-0.120	0.245
-298.749	226.804	-0.193	-0.315
-297.735	124.497	-0.164	0.207
-296.720	-87.680	-0.115	-0.035
-295.705	4.314	0.150	0.111
-294.691	218.560	0.118	0.189
-293.676	-113.154	-0.215	0.043
-292.662	-200.000	0.036	0.196
-291.647	800.000	-0.090	-0.292
-290.632	-68.712	0.205	0.080
-289.618	-89.812	0.274	0.081
-288.603	-63.316	-0.081	-0.033
-287.589	-200.000	0.010	-0.072
-286.574	501.113	0.057	0.133
-285.559	244.659	0.092	-0.156
-284.545	-200.000	-0.011	-0.262
-283.530	-36.725	0.230	-0.124
-282.516	-18.519	0.479	-0.300
-281.501	101.979	0.096	0.112
-280.486	-86.201	0.200	0.062
-279.472	-48.379	0.035	-0.017
-278.457	446.492	0.099	0.219
-277.443	162.090	0.020	-0.028
-276.428	286.247	0.084	0.152
-275.413	-68.301	0.161	0.063
-274.399	-200.000	0.005	0.284
-273.384	30.853	0.180	0.155
-272.370	-123.954	-0.245	-0.039
-271.355	56.405	-0.285	-0.278
-270.340	-135.216	-0.066	-0.008
-269.326	609.966	-0.045	0.114
-268.311	-69.161	0.095	0.037
-267.297	22.982	-0.094	0.077
-266.282	-63.891	0.167	-0.069
-265.267	-143.482	-0.256	-0.025
-264.253	800.000	-0.036	0.126
-263.238	17.626	-0.180	-0.143
-262.224	-93.537	0.232	0.064
-261.209	35.000	-0.082	0.072
-260.195	-200.000	-0.011	-0.176
-259.180	-101.941	-0.348	-0.084
-258.165	310.952	-0.094	0.176
-257.151	-90.657	0.118	0.034
-256.136	-200.000	0.002	0.227
-255.122	-200.000	-0.373	0.001
-254.107	-5.379	0.128	-0.089
-253.092	-200.000	0.046	-0.247
-252.078	-21.015	0.290	0.178
-251.063	22.196	-0.094	0.077
-250.049	-45.173	-0.209	0.104
-249.034	800.000	0.029	-0.113
-248.019	62.926	0.118	-0.118
-247.005	235.821	0.146	-0.242
-245.990	81.519	0.345	0.374
-244.976	471.191	0.051	0.115
-243.961	800.000	0.044	-0.134
-242.946	342.340	0.059	0.115
-241.932	-200.000	-0.017	0.141
-240.917	-200.000	-0.003	-0.196
-239.903	7.383	0.245	-0.183
-238.888	75.619	-0.112	0.119
-237.873	-200.000	-0.057	-0.419
-236.859	218.504	0.182	-0.291
-235.844	-181.537	0.135	-0.003
-234.830	-186.342	-0.399	0.006
-233.815	176.189	-0.045	0.066
-232.800	-98.382	-0.306	0.079
-231.786	94.319	0.075	-0.086
-230.771	241.394	-0.023	-0.039
-229.757	-78.909	-0.043	-0.015
-228.742	-200.000	-0.040	0.199
-227.727	-73.648	-0.156	-0.057
-226.713	84.958	0.297	0.326
-225.698	-62.397	0.212	-0.088
-224.684	182.712	0.164	-0.242
-223.669	800.000	0.072	-0.293
-222.655	800.000	-0.027	-0.116
-221.640	-77.154	0.191	0.067
-220.625	-60.319	-0.058	0.025
-219.611	398.725	-0.071	-0.150
-218.596	-55.774	0.182	0.082
-217.582	-94.852	-0.189	0.051
-216.567	237.024	0.134	-0.223
-215.552	-59.073	0.165	-0.071
-214.538	58.519	0.089	0.087
-213.523	529.594	-0.085	0.202
-212.509	-158.376	0.263	0.015
-211.494	-200.000	0.058	-0.370
-210.479	-88.237	-0.209	0.063
-209.465	-200.000	0.168	-0.000
-208.450	112.101	-0.038	0.046
-207.436	131.854	0.158	-0.204
-206.421	800.000	0.043	-0.183
-205.406	647.710	0.032	-0.081
-204.392	82.258	-0.237	0.258
-203.377	-57.319	-0.337	0.148
-202.363	36.136	-0.187	0.165
-201.348	-200.000	0.051	0.391
-200.333	-79.637	-0.390	0.132
-199.319	112.607	-0.160	0.193
-198.304	-162.662	0.194	-0.010
-197.290	211.707	0.047	-0.075
-196.275	-96.732	0.263	0.069
-195.260	2.453	-0.068	0.049
-194.246	800.000	-0.049	0.153
-193.231	-54.546	0.132	0.060
-192.217	-1.552	0.218	-0.154
-191.202	-200.000	-0.021	-0.092
-190.187	-43.687	0.197	0.099
-189.173	-81.845	0.379	0.124
-188.158	-33.491	-0.159	0.088
-187.144	-149.482	-0.095	-0.008
-186.129	-200.000	-0.013	-0.085
-185.114	241.951	-0.055	-0.093
-184.100	-78.698	-0.352	0.120
-183.085	-125.878	-0.077	0.012
-182.071	-89.008	-0.159	0.047
-181.056	-182.788	-0.500	-0.009
-180.042	120.319	0.041	0.051
-179.027	179.925	0.220	-0.322
-178.012	-200.000	-0.273	-0.000
-176.998	593.498	-0.107	0.264
-175.983	-75.530	-0.095	-0.034
-174.969	-132.220	0.266	-0.034
-173.954	27.695	-0.045	-0.038
-172.939	-66.362	-0.192	-0.076
-171.925	-200.000	-0.037	0.192
-170.910	-97.522	-0.253	-0.066
-169.896	-38.864	-0.227	0.120
-168.881	85.804	0.131	-0.145
-167.866	-108.703	-0.096	-0.021
-166.852	-200.000	0.005	-0.256
-165.837	140.795	0.139	-0.183
-164.823	108.322	0.113	0.135
-163.808	87.276	0.125	-0.139
-162.793	273.742	0.094	0.166
-161.779	-200.000	0.010	0.281
-160.764	157.146	0.073	-0.102
-159.750	800.000	0.118	-0.376
-158.735	169.364	-0.190	0.272
-157.720	-19.406	-0.111	0.069
-156.706	800.000	0.098	-0.299
-155.691	-108.482	0.347	-0.075
-154.677	-38.527	-0.192	-0.101
-153.662	-200.000	0.030	-0.168
-152.647	494.887	0.106	-0.242
-151.633	524.601	0.118	-0.277
-150.618	574.136	0.098	-0.240
-149.604	-106.150	-0.182	-0.041
-148.589	-40.942	0.102	0.052
-147.574	56.253	0.044	-0.043
-146.560	521.542	0.085	0.199
-145.545	417.900	-0.039	0.083
-144.531	102.511	-0.073	-0.085
-143.516	-75.421	0.214	0.076
-142.502	-63.466	-0.300	0.123
-141.487	57.878	-0.135	0.132
-140.472	-200.000	0.006	-0.053
-139.458	-15.861	-0.142	-0.091
-138.443	78.122	-0.078	-0.083
-137.429	-200.000	0.030	0.261
-136.414	800.000	0.061	-0.235
-135.399	-124.599	-0.213	0.033
-134.385	-200.000	0.031	-0.142
-133.370	458.621	0.030	0.066
-132.356	-110.862	-0.051	0.010
-131.341	-86.021	-0.107	-0.033
-130.326	-151.089	-0.142	-0.011
-129.312	166.818	-0.086	0.122
-128.297	-36.998	0.205	0.110
-127.283	-142.597	0.169	-0.017
-126.268	-91.297	-0.189	0.054
-125.253	225.058	0.058	0.094
-124.239	-125.659	-0.457	0.069
-123.224	136.117	-0.102	-0.132
-122.210	800.000	0.085	-0.277
-121.195	13.176	0.032	0.025
-120.180	14.955	-0.047	0.037
-119.166	541.865	-0.062	-0.148
-118.151	-86.981	-0.231	0.070
-117.137	-200.000	-0.024	0.450
-116.122	-51.828	0.262	0.122
-115.107	-126.996	0.266	-0.039
-114.093	-69.830	-0.273	0.104
-113.078	8.287	-0.253	0.190
-112.064	-123.031	0.418	0.067
-111.049	800.000	0.015	-0.053
-110.034	59.958	-0.229	0.226
-109.020	122.196	0.157	0.196
-108.005	800.000	-0.057	0.246
-106.991	43.236	0.122	0.111
-105.976	-40.750	0.163	0.084
-104.962	72.827	0.172	0.179
-103.947	800.000	-0.027	0.077
-102.932	-101.005	-0.319	-0.078
-101.918	483.441	0.060	0.137
-100.903	413.186	-0.108	-0.229
-99.889	800.000	-0.030	-0.105
-98.874	-109.398	0.345	0.073
-97.859	-63.053	-0.106	-0.044
-96.845	-200.000	-0.067	-0.380
-95.830	13.414	0.202	0.156
-94.816	207.728	-0.174	0.271
-93.801	-65.734	-0.083	0.033
-92.786	572.983	-0.211	0.513
-91.772	-200.000	0.016	0.169
-90.757	271.136	-0.264	-0.464
-89.743	14.132	0.186	0.145
-88.728	54.648	0.114	-0.109
-87.713	800.000	-0.049	-0.170
-86.699	-200.000	0.018	0.089
-85.684	800.000	0.042	0.131
-84.670	-152.895	0.257	-0.018
-83.655	197.475	-0.108	-0.164
-82.640	-158.193	-0.265	-0.015
-81.626	-76.100	0.082	-0.029
-80.611	-200.000	-0.014	-0.094
-79.597	45.727	-0.067	-0.062
-78.582	19.641	0.105	-0.084
-77.567	456.854	0.068	0.150
-76.553	101.870	0.206	0.239
-75.538	6.930	-0.234	-0.174
-74.524	9.548	-0.160	0.121
-73.509	-200.000	-0.019	0.086
-72.494	85.866	0.124	0.136
-71.480	12.344	-0.130	0.100
-70.465	533.552	0.075	0.177
-69.451	-58.160	-0.171	-0.074
-68.436	-200.000	-0.001	0.015
-67.422	590.248	-0.025	-0.061
-66.407	-200.000	-0.005	-0.144
-65.392	-200.000	0.013	0.096
-64.378	-196.172	-0.239	-0.002
-63.363	-200.000	0.047	0.399
-62.349	-136.979	-0.196	-0.022
-61.334	92.081	-0.764	-0.857
-60.319	11.196	0.243	0.185
-59.305	-200.000	0.151	-0.838
-58.290	448.712	0.403	0.884
-57.276	534.986	0.661	1.562
-56.261	-200.000	84.546	495.702
-55.246	524.832	1386.857	3248.518
-54.232	180.794	2615.077	3823.346
-53.217	118.033	2245.004	2754.178
-52.203	48.672	1689.211	1576.546
-51.188	41.306	1417.607	1276.071
-50.173	38.044	1373.749	1216.263
-49.159	56.619	1415.119	1370.570
-48.144	61.222	1433.979	1417.855
-47.130	41.837	1392.757	1256.847
-46.115	38.102	1375.502	1217.982
-45.100	37.854	1370.962	1212.373
-44.086	37.825	1368.108	1209.618
-43.071	37.786	1365.941	1207.412
-42.057	37.796	1363.639	1205.395
-41.042	37.829	1361.893	1204.002
-40.027	37.965	1359.896	1203.029
-39.013	37.986	1357.994	1201.429
-37.998	37.847	1356.417	1199.129
-36.984	37.981	1354.615	1198.311
-35.969	37.996	1353.049	1196.971
-34.954	38.086	1350.633	1195.337
-33.940	37.997	1349.646	1193.874
-32.925	38.051	1348.225	1192.901
-31.911	38.134	1346.915	1192.200
-30.896	37.972	1345.749	1190.134
-29.881	38.135	1343.456	1189.049
-28.867	38.139	1342.400	1188.094
-27.852	38.218	1340.770	1187.082
-26.838	38.195	1339.150	1185.464
-25.823	38.141	1337.901	1183.981
-24.809	38.080	1336.799	1182.588
-23.794	38.111	1335.510	1181.592
-22.779	38.038	1333.707	1179.504
-21.765	38.164	1332.395	1179.062
-20.750	38.106	1331.474	1177.848
-19.736	38.017	1329.503	1175.520
-18.721	37.932	1328.836	1174.376
-17.706	37.977	1327.732	1173.623
-16.692	37.835	1326.584	1171.711
-15.677	38.007	1324.918	1171.224
-14.663	37.957	1324.021	1170.086
-13.648	37.933	1322.942	1168.938
-12.633	37.857	1322.294	1167.867
-11.619	37.869	1321.006	1166.752
-10.604	38.024	1319.971	1166.716
-9.590	37.898	1319.543	1165.540
-8.575	37.891	1318.174	1164.247
-7.560	37.869	1317.314	1163.305
-6.546	37.958	1315.904	1162.547
-5.531	37.846	1315.562	1161.533
-4.517	37.914	1314.385	1160.853
-3.502	37.979	1313.191	1160.133
-2.487	37.972	1312.556	1159.488
-1.473	37.998	1308.647	1156.145
-0.458	36.745	1293.298	1135.194
0.556	33.761	1272.346	1091.528
1.571	29.428	1275.901	1069.429
2.586	27.891	1289.781	1071.956
3.600	26.260	1277.806	1052.418
4.615	19.644	1201.531	953.135
5.629	9.778	1120.563	837.824
6.644	4.994	1097.390	796.045
7.659	4.798	1094.437	792.836
8.673	4.777	1093.633	792.076
9.688	4.870	1092.079	791.352
10.702	5.074	1090.313	791.035
11.717	10.460	1098.753	824.550
12.731	19.033	1110.967	877.558
13.746	21.512	1113.279	891.958
14.761	20.028	1110.530	882.124
15.775	18.897	1108.520	874.698
16.790	17.855	1106.245	867.530
17.804	17.014	1104.934	862.153
18.819	16.895	1103.267	860.176
19.834	16.561	1102.538	857.835
20.848	16.377	1102.049	856.445
21.863	16.129	1100.520	853.929
22.877	16.120	1099.790	853.238
23.892	16.158	1099.314	852.987
24.907	16.003	1098.520	851.512
25.921	16.041	1097.561	850.883
26.936	16.142	1095.762	849.924
27.950	16.049	1095.002	848.793
28.965	16.235	1093.143	848.209
29.980	16.221	1091.744	846.982
30.994	16.336	1090.525	846.536
32.009	16.321	1089.557	845.631
33.023	16.417	1088.227	845.006
34.038	16.240	1087.297	843.326
35.053	16.150	1086.455	842.149
36.067	16.161	1085.448	841.347
37.082	16.138	1085.205	840.973
38.096	16.192	1084.299	840.464
39.111	16.152	1083.346	839.451
40.126	16.162	1081.879	838.291
41.140	15.909	1080.596	835.967
42.155	15.799	1079.374	834.404
43.169	15.857	1077.918	833.488
44.184	15.865	1076.654	832.481
45.199	15.845	1076.229	831.977
46.213	15.950	1074.740	831.269
47.228	16.082	1073.946	831.232
48.242	16.071	1072.722	830.158
49.257	16.039	1072.177	829.507
50.271	16.107	1070.990	828.850
51.286	16.080	1070.247	828.069
52.301	16.058	1069.218	827.089
53.315	15.975	1068.050	825.706
54.330	16.002	1066.840	824.828
55.344	15.935	1066.305	824.014
56.359	15.956	1065.256	823.233
57.374	15.933	1064.018	822.093
58.388	15.794	1063.583	821.006
59.403	15.824	1062.445	820.202
60.417	15.831	1062.042	819.849
61.432	15.915	1060.710	819.159
62.447	15.663	1060.285	817.536
63.461	15.714	1059.224	816.892
64.476	15.852	1057.785	816.378
65.490	15.815	1057.082	815.582
66.505	15.807	1056.525	815.043
67.520	15.752	1056.211	814.460
68.534	15.756	1055.443	813.818
69.549	15.838	1054.440	813.371
70.563	15.747	1053.752	812.327
71.578	15.691	1052.962	811.376
72.593	15.624	1052.209	810.399
73.607	15.687	1051.453	810.050
74.622	15.634	1050.680	809.129
75.636	15.597	1050.200	808.510
76.651	15.684	1048.830	807.801
77.666	15.739	1048.878	808.030
78.680	15.696	1048.057	807.120
79.695	15.723	1047.405	806.674
80.709	15.767	1046.627	806.215
81.724	15.921	1045.771	806.221
82.739	15.905	1045.805	806.102
83.753	16.131	1044.350	805.989
84.768	16.182	1043.641	805.613
85.782	16.395	1042.856	805.952
86.797	16.298	1041.958	804.725
87.812	16.189	1040.637	803.115
88.826	16.120	1040.092	802.294
89.841	16.165	1039.041	801.625
90.855	16.342	1037.953	801.555
91.870	16.235	1037.379	800.534
92.884	16.316	1036.228	799.959
93.899	16.265	1036.073	799.527
94.914	16.315	1034.981	798.849
95.928	16.197	1034.379	797.756
96.943	16.326	1032.737	797.028
97.957	16.187	1031.752	795.542
98.972	16.246	1031.404	795.483
99.987	16.204	1030.200	794.285
101.001	16.196	1029.722	793.807
102.016	16.262	1028.535	793.132
103.030	16.275	1027.546	792.361
104.045	16.199	1026.983	791.500
105.060	16.117	1026.149	790.402
106.074	16.052	1024.419	788.697
107.089	15.959	1023.224	787.273
108.103	15.843	1022.305	785.952
109.118	15.875	1021.471	785.395
110.133	15.794	1020.483	784.186
111.147	15.806	1019.771	783.626
112.162	15.896	1018.874	783.288
113.176	16.095	1018.265	783.673
114.191	15.993	1017.624	782.639
115.206	16.007	1016.760	781.969
116.220	15.986	1016.121	781.309
117.235	15.985	1014.538	780.019
118.249	15.891	1014.146	779.213
119.264	15.829	1013.271	778.185
120.279	15.922	1012.215	777.735
121.293	15.773	1011.534	776.456
122.308	15.722	1010.940	775.695
123.322	15.634	1009.773	774.327
124.337	15.751	1008.414	773.755
125.352	15.692	1007.535	772.739
126.366	15.855	1005.997	772.241
127.381	15.777	1005.202	771.207
128.395	15.801	1004.472	770.684
129.410	15.859	1003.569	770.192
130.424	15.910	1002.927	769.861
131.439	16.053	1002.231	769.913
132.454	15.946	1001.502	768.799
133.468	16.114	1000.431	768.674
134.483	16.087	999.828	768.021
135.497	16.085	998.812	767.162
136.512	16.106	997.936	766.515
137.527	16.111	997.272	765.963
138.541	16.115	996.386	765.230
139.556	16.130	995.654	764.670
140.570	16.129	995.256	764.292
141.585	16.387	994.058	764.470
142.600	16.433	992.954	763.762
143.614	16.315	992.463	762.783
144.629	16.371	992.070	762.668
145.643	16.288	991.066	761.455
146.658	16.158	989.610	759.683
147.673	16.213	988.653	759.127
148.687	16.182	987.971	758.397
149.702	16.021	986.915	756.795
150.716	15.978	986.058	755.878
151.731	16.047	984.960	755.282
152.746	16.058	984.452	754.873
153.760	16.049	984.159	754.543
154.775	16.238	983.464	754.787
155.789	16.272	982.755	754.330
156.804	16.308	981.701	753.613
157.819	16.336	981.149	753.247
158.833	16.411	980.604	753.095
159.848	16.547	979.724	752.959
160.862	16.293	978.862	751.101
161.877	16.211	977.670	749.758
162.892	16.132	976.448	748.403
163.906	16.038	975.378	747.100
164.921	16.102	974.717	746.809
165.935	16.222	973.798	746.570
166.950	16.327	972.936	746.306
167.964	16.292	972.112	745.456
168.979	16.252	971.307	744.595
169.994	16.249	970.021	743.532
171.008	16.224	970.153	743.458
172.023	16.397	969.254	743.461
173.037	16.431	968.359	742.862
174.052	16.310	967.546	741.639
175.067	16.192	966.954	740.600
176.081	16.168	966.538	740.110
177.096	16.198	965.862	739.660
178.110	16.140	965.481	739.051
179.125	16.161	964.918	738.646
180.140	16.333	964.346	738.895
181.154	16.368	963.516	738.345
182.169	16.514	963.168	738.649
183.183	16.491	962.218	737.756
184.198	16.583	961.344	737.424
185.213	16.448	961.160	736.628
186.227	16.529	960.280	736.243
187.242	16.691	959.565	736.331
188.256	16.799	958.693	736.066
189.271	16.689	958.312	735.231
190.286	16.422	957.580	733.449
191.300	16.126	956.688	731.415
192.315	16.184	955.560	730.741
193.329	16.230	955.218	730.611
194.344	16.249	954.386	729.995
195.359	16.337	954.101	730.089
196.373	16.582	953.381	730.535
197.388	16.575	953.027	730.167
198.402	16.819	952.470	730.728
199.417	16.856	951.769	730.285
200.432	16.807	951.441	729.760
201.446	16.859	950.826	729.444
202.461	16.874	950.491	729.188
203.475	16.910	949.369	728.420
204.490	16.704	948.934	727.137
205.504	16.742	947.997	726.516
206.519	16.697	947.072	725.549
207.534	16.781	946.375	725.311
208.548	16.666	946.084	724.534
209.563	16.688	944.823	723.595
210.577	16.808	944.288	723.635
211.592	17.004	943.445	723.762
212.607	16.992	942.702	723.076
213.621	16.891	942.179	722.182
214.636	16.912	941.575	721.745
215.650	16.840	940.768	720.755
216.665	16.998	939.988	720.766
217.680	17.126	938.912	720.418
218.694	17.078	938.452	719.800
219.709	17.090	937.963	719.411
220.723	16.936	937.289	718.179
221.738	17.020	936.698	718.016
222.753	17.043	935.913	717.450
223.767	17.072	935.550	717.231
224.782	17.247	934.835	717.358
225.796	17.296	934.084	716.923
226.811	17.147	933.714	715.950
227.826	17.084	932.731	714.866
228.840	17.108	931.896	714.264
229.855	17.082	931.144	713.516
230.869	17.144	930.203	712.993
231.884	17.074	929.639	712.203
232.899	16.971	928.882	711.126
233.913	16.996	928.197	710.645
234.928	16.850	927.566	709.490
235.942	16.951	926.833	709.288
236.957	16.993	926.163	708.885
237.972	17.050	925.674	708.687
238.986	16.951	924.927	707.638
240.001	16.916	924.534	707.129
241.015	17.050	923.763	707.036
242.030	17.170	922.908	706.818
243.045	17.108	922.664	706.313
244.059	17.099	921.709	705.482
245.074	17.152	921.334	705.351
246.088	17.367	920.439	705.496
247.103	17.376	920.033	705.161
248.117	17.411	919.688	704.977
249.132	17.452	919.316	704.801
250.147	17.546	918.710	704.660
251.161	17.710	918.034	704.758
252.176	17.625	917.448	703.897
253.190	17.608	916.765	703.241
254.205	17.916	915.798	703.704
255.220	17.779	914.923	702.407
256.234	17.787	914.601	702.131
257.249	17.785	913.927	701.540
258.263	17.685	913.113	700.446
259.278	17.869	912.175	700.419
260.293	17.769	911.875	699.715
261.307	17.830	911.619	699.708
262.322	18.001	910.857	699.761
263.336	17.875	909.936	698.478
264.351	17.847	909.368	697.866
265.366	17.866	908.746	697.400
266.380	17.854	908.042	696.751
267.395	17.851	907.398	696.185
268.409	17.820	906.273	695.134
269.424	17.917	905.524	694.893
270.439	17.914	904.626	694.128
271.453	17.797	904.496	693.492
272.468	17.718	903.730	692.521
273.482	17.802	903.128	692.339
274.497	17.713	902.628	691.534
275.512	17.916	901.759	691.630
276.526	18.113	901.108	691.869
277.541	18.008	900.532	690.940
278.555	18.034	900.243	690.763
279.570	17.963	899.799	690.073
280.585	18.083	899.079	689.945
281.599	18.024	898.134	688.918
282.614	18.072	897.420	688.505
283.628	17.992	896.862	687.695
284.643	17.880	896.184	686.663
285.657	17.912	895.607	686.289
286.672	17.988	894.635	685.786
287.687	17.936	894.421	685.356
288.701	17.991	893.622	684.903
289.716	18.013	893.352	684.721
290.730	18.139	892.452	684.477
291.745	18.100	892.128	684.013
292.760	18.231	891.377	683.898
293.774	18.329	890.815	683.799
294.789	18.205	890.191	682.762
295.803	18.023	889.515	681.458
296.818	18.131	888.505	681.054
297.833	18.174	887.887	680.693
298.847	18.138	887.592	680.261
299.862	18.364	886.498	680.263
300.876	18.245	886.330	679.602
301.891	18.304	886.033	679.545
302.906	18.403	885.334	679.342
303.920	18.466	884.507	678.899
304.935	18.497	884.381	678.865
305.949	18.429	883.536	677.886
306.964	18.343	882.711	676.852
307.979	18.376	882.281	676.595
308.993	18.523	881.717	676.681
310.008	18.539	881.004	676.138
311.022	18.660	880.183	675.926
312.037	18.479	879.773	674.838
313.052	18.194	879.434	673.396
314.066	18.288	878.673	673.125
315.081	18.262	878.130	672.546
316.095	18.436	876.948	672.264
317.110	18.305	876.756	671.544
318.125	18.223	876.407	670.893
319.139	18.261	875.808	670.527
320.154	18.231	875.809	670.351
321.168	18.415	874.946	670.351
322.183	18.383	874.162	669.567
323.197	18.391	873.869	669.311
324.212	18.481	873.099	669.014
325.227	18.497	872.479	668.543
326.241	18.474	872.031	668.050
327.256	18.344	871.473	667.057
328.270	18.389	870.725	666.600
329.285	18.407	870.364	666.336
330.300	18.439	869.572	665.793
331.314	18.436	869.244	665.473
332.329	18.537	868.772	665.445
333.343	18.538	868.314	665.038
334.358	18.638	867.887	665.042
335.373	18.542	867.664	664.440
336.387	18.536	867.684	664.371
337.402	18.676	867.043	664.363
338.416	18.867	866.461	664.600
339.431	18.873	866.074	664.265
340.446	18.823	865.906	663.888
341.460	18.933	865.300	663.787
342.475	19.082	864.974	664.054
343.489	19.077	864.287	663.447
344.504	19.040	863.939	662.981
345.519	19.196	863.309	663.037
346.533	19.085	862.535	661.957
347.548	18.925	862.209	661.033
348.562	18.916	861.554	660.438
349.577	18.793	861.142	659.593
350.592	18.773	859.857	658.473
351.606	18.755	859.611	658.157
352.621	18.758	859.259	657.839
353.635	18.892	858.363	657.608
354.650	18.847	857.590	656.788
355.665	18.787	857.538	656.461
356.679	18.974	856.329	656.189
357.694	19.089	855.360	655.827
358.708	19.023	855.087	655.310
359.723	18.947	854.607	654.592
360.738	18.901	854.082	653.958
361.752	18.947	853.701	653.783
362.767	19.081	853.089	653.765
363.781	19.110	852.244	653.170
364.796	19.318	852.173	653.848
365.810	19.376	851.614	653.580
366.825	19.466	851.215	653.556
367.840	19.391	850.604	652.748
368.854	19.403	850.089	652.338
369.869	19.258	849.688	651.424
370.883	19.227	849.128	650.823
371.898	19.494	848.722	651.459
372.913	19.372	848.331	650.643
373.927	19.415	847.742	650.295
374.942	19.322	847.396	649.623
375.956	19.392	847.355	649.797
376.971	19.559	846.667	649.839
377.986	19.672	846.054	649.738
379.000	19.530	845.622	648.815
380.015	19.650	844.946	648.690
381.029	19.498	844.876	648.009
382.044	19.656	844.257	648.066
383.059	19.520	843.601	646.996
384.073	19.613	842.522	646.460
385.088	19.545	841.846	645.630
386.102	19.423	841.652	644.970
387.117	19.519	840.542	644.420
388.132	19.518	840.107	644.027
389.146	19.553	839.711	643.796
390.161	19.724	839.155	643.950
391.175	19.708	838.897	643.634
392.190	19.563	837.973	642.329
393.205	19.500	837.817	641.917
394.219	19.545	837.301	641.634
395.234	19.430	836.966	640.893
396.248	19.469	836.187	640.383
397.263	19.302	835.923	639.506
398.278	19.413	835.432	639.487
399.292	19.302	835.333	638.940
400.307	19.403	834.480	638.606
401.321	19.533	834.096	638.737
402.336	19.515	833.518	638.171
403.350	19.507	833.270	637.894
404.365	19.765	832.743	638.388
405.380	19.737	832.461	638.010
406.394	19.744	832.021	637.644
407.409	19.848	831.342	637.453
408.423	20.027	831.389	638.089
409.438	19.964	831.041	637.534
410.453	20.023	830.271	637.103
411.467	20.108	829.842	637.031
412.482	20.203	829.331	636.929
413.496	20.117	828.905	636.230
414.511	20.110	828.448	635.799
415.526	20.203	828.106	635.820
416.540	20.099	827.962	635.272
417.555	20.146	827.251	634.845
418.569	20.166	826.625	634.380
419.584	20.101	826.451	633.954
420.599	20.089	826.134	633.611
421.613	152.304	1368.783	1776.032
422.628	132.814	1447.849	1776.165
