DTS Sentinel unit serial number:	SN413079Multiplexer serial number:	ORYXHardware model number:	OX4-SRSoftware version number:	ORYX F/W v4.00 Oryx Data Collector v3.7.2.0data status	okinstallation	princeton_trtdifferential loss correction	single-endedforward channel	channel 1reverse channel	N/Adate	2019/09/16time	14:14:35forward acquisition time	60.00reverse acquisition time	0.00gamma	496.2192k internal	0.2293k external	0.2293temperature offset calibration	0.9954default loss term (dB/km)	0.3790temperature slope calibration	1.0000multiplexer offset coefficient	1.0000multiplexer slope coefficient	1.0000fibre end	0.00T internal ref (°C)	42.25T ext. ref 1 (°C)	14.13T ext. ref 2 (°C)	37.19length (m)	temperature (°C)	Stokes	anti-Stokes-747.200	-25.822	-0.318	0.192
-746.185	-142.072	-0.399	-0.041
-745.171	-144.311	-0.262	0.025
-744.156	109.339	-0.145	-0.178
-743.142	603.105	0.100	0.255
-742.127	800.000	-0.049	0.199
-741.112	74.243	0.080	-0.085
-740.098	545.794	-0.057	-0.139
-739.083	-110.311	0.078	0.016
-738.069	-200.000	0.011	0.287
-737.054	-120.624	-0.124	0.022
-736.039	-10.379	-0.143	-0.097
-735.025	19.353	0.244	0.200
-734.010	139.379	-0.137	-0.184
-732.996	800.000	-0.089	0.302
-731.981	-69.586	-0.086	0.034
-730.966	119.811	-0.101	0.128
-729.952	-128.189	-0.259	0.038
-728.937	0.317	-0.206	-0.150
-727.923	-95.663	-0.210	0.057
-726.908	-126.641	-0.222	0.034
-725.894	-200.000	0.036	-0.249
-724.879	-200.000	-0.012	-0.372
-723.864	-83.566	-0.187	-0.061
-722.850	-133.818	0.185	0.023
-721.835	197.787	0.109	-0.170
-720.821	201.225	0.143	0.224
-719.806	-18.092	-0.254	-0.163
-718.791	-157.021	-0.148	0.009
-717.777	-158.072	0.310	-0.019
-716.762	24.055	0.110	-0.093
-715.748	-200.000	0.002	-0.102
-714.733	241.693	-0.096	-0.165
-713.718	214.304	-0.065	0.105
-712.704	800.000	-0.036	0.106
-711.689	285.984	0.154	-0.284
-710.675	-195.584	-0.237	-0.002
-709.660	800.000	-0.100	0.447
-708.645	28.163	0.306	0.264
-707.631	800.000	0.096	-0.406
-706.616	-160.010	-0.287	-0.016
-705.602	-93.215	-0.119	-0.034
-704.587	-132.520	0.172	0.023
-703.572	25.498	-0.169	0.144
-702.558	50.109	-0.203	-0.196
-701.543	-49.907	0.230	0.112
-700.529	120.946	-0.184	-0.234
-699.514	-200.000	-0.050	-0.254
-698.499	-23.364	0.262	-0.161
-697.485	115.026	-0.091	-0.113
-696.470	-119.535	-0.141	-0.025
-695.456	89.838	-0.111	0.127
-694.441	-124.771	-0.363	0.057
-693.426	108.094	0.176	0.214
-692.412	-36.691	-0.247	-0.136
-691.397	800.000	-0.059	-0.173
-690.383	135.331	-0.219	-0.290
-689.368	-99.331	-0.293	0.076
-688.354	-200.000	-0.019	-0.271
-687.339	-200.000	0.033	0.278
-686.324	-200.000	0.040	0.222
-685.310	138.129	-0.149	0.200
-684.295	-149.854	0.245	0.020
-683.281	-58.686	-0.099	-0.044
-682.266	-31.173	0.161	-0.092
-681.251	-6.914	-0.216	-0.150
-680.237	-62.333	-0.135	0.057
-679.222	800.000	-0.083	0.312
-678.208	-200.000	-0.015	-0.075
-677.193	15.171	-0.335	-0.268
-676.178	166.220	-0.121	0.175
-675.164	30.890	0.054	-0.047
-674.149	-200.000	0.026	-0.147
-673.135	237.025	0.010	0.017
-672.120	-78.708	-0.112	-0.039
-671.105	-20.248	0.084	0.053
-670.091	327.159	0.168	-0.328
-669.076	-200.000	0.010	-0.058
-668.062	-143.723	0.089	-0.009
-667.047	-178.899	-0.133	0.003
-666.032	39.754	-0.223	0.204
-665.018	43.914	0.150	0.140
-664.003	-168.905	0.263	-0.010
-662.989	-4.966	-0.141	0.099
-661.974	-111.895	0.383	-0.079
-660.959	233.846	-0.146	-0.245
-659.945	72.376	-0.140	-0.149
-658.930	800.000	-0.135	-0.383
-657.916	-200.000	0.010	0.051
-656.901	-113.257	0.167	-0.033
-655.886	115.607	-0.126	0.157
-654.872	-200.000	0.048	-0.310
-653.857	-200.000	-0.015	0.197
-652.843	800.000	0.015	-0.052
-651.828	-200.000	0.020	-0.208
-650.814	-200.000	0.028	-0.180
-649.799	-77.905	0.060	0.021
-648.784	-200.000	0.037	-0.226
-647.770	102.143	-0.116	0.138
-646.755	-196.243	-0.068	-0.000
-645.741	800.000	0.077	-0.324
-644.726	-82.197	0.110	0.036
-643.711	-87.650	0.240	0.074
-642.697	47.296	-0.111	0.105
-641.682	16.777	0.215	0.174
-640.668	-67.035	0.266	0.107
-639.653	-144.297	-0.352	-0.033
-638.638	109.436	-0.064	-0.078
-637.624	7.757	0.155	0.118
-636.609	-200.000	-0.054	0.269
-635.595	800.000	0.069	-0.297
-634.580	0.708	-0.300	-0.219
-633.565	364.778	-0.075	0.153
-632.551	-75.654	-0.332	-0.120
-631.536	-200.000	-0.010	0.348
-630.522	-200.000	0.012	0.056
-629.507	-200.000	-0.001	0.239
-628.492	145.706	-0.088	0.120
-627.478	800.000	0.054	0.199
-626.463	22.924	-0.128	0.107
-625.449	679.868	-0.098	-0.260
-624.434	751.868	-0.116	-0.318
-623.419	72.046	0.189	-0.200
-622.405	-79.983	-0.405	0.138
-621.390	-86.568	0.168	0.052
-620.376	-114.964	0.398	-0.077
-619.361	-200.000	-0.014	-0.092
-618.346	-200.000	0.038	-0.211
-617.332	-32.685	0.294	-0.166
-616.317	84.047	-0.051	-0.057
-615.303	3.163	0.102	0.076
-614.288	-200.000	-0.012	-0.290
-613.273	131.202	-0.065	0.085
-612.259	-200.000	-0.055	-0.275
-611.244	-30.651	0.187	-0.108
-610.230	65.903	0.124	0.128
-609.215	-101.734	0.073	0.018
-608.201	-98.923	0.198	-0.051
-607.186	-29.976	-0.542	0.314
-606.171	-26.430	-0.165	0.098
-605.157	168.681	0.155	0.224
-604.142	367.238	0.088	-0.181
-603.128	267.712	-0.089	0.158
-602.113	-200.000	0.001	0.039
-601.098	-29.688	-0.286	0.166
-600.084	105.531	-0.051	-0.061
-599.069	800.000	0.054	0.224
-598.055	109.260	-0.270	-0.329
-597.040	179.224	-0.190	0.283
-596.025	-4.179	0.107	0.075
-595.011	800.000	0.029	-0.095
-593.996	245.774	0.202	0.346
-592.982	-166.675	0.180	0.008
-591.967	-200.000	0.001	-0.026
-590.952	86.862	-0.110	-0.124
-589.938	218.060	0.010	-0.016
-588.923	-150.790	0.135	0.010
-587.909	46.697	-0.176	0.166
-586.894	-200.000	-0.016	-0.157
-585.879	-200.000	0.009	0.087
-584.865	112.969	0.133	-0.164
-583.850	-172.055	0.202	0.007
-582.836	-143.394	0.298	0.029
-581.821	-23.598	-0.282	0.172
-580.806	-28.397	-0.196	-0.115
-579.792	-86.619	0.257	0.080
-578.777	-126.407	-0.151	0.023
-577.763	39.459	-0.198	0.180
-576.748	75.021	0.224	-0.240
-575.733	224.533	-0.037	-0.061
-574.719	-200.000	0.002	0.037
-573.704	-32.194	-0.107	-0.061
-572.690	-101.211	0.111	0.027
-571.675	-96.426	0.229	0.062
-570.661	-200.000	0.002	-0.060
-569.646	-117.252	0.221	-0.041
-568.631	184.528	0.103	-0.155
-567.617	90.902	0.069	0.079
-566.602	-54.118	-0.442	0.204
-565.588	-200.000	-0.027	-0.351
-564.573	562.419	0.140	-0.344
-563.558	400.688	0.058	-0.123
-562.544	800.000	0.088	-0.266
-561.529	102.534	0.136	0.162
-560.515	675.263	-0.033	-0.087
-559.500	338.173	-0.141	-0.279
-558.485	160.807	0.184	-0.261
-557.471	-200.000	-0.017	0.368
-556.456	800.000	-0.084	0.307
-555.442	7.569	0.111	0.084
-554.427	-200.000	-0.028	-0.157
-553.412	216.414	0.088	-0.142
-552.398	-59.918	-0.299	0.130
-551.383	623.282	-0.116	-0.297
-550.369	-170.909	0.226	-0.008
-549.354	800.000	-0.014	0.040
-548.339	-23.116	-0.115	-0.070
-547.325	-49.676	-0.080	0.038
-546.310	800.000	0.083	-0.325
-545.296	-200.000	-0.019	-0.113
-544.281	-49.234	-0.340	-0.165
-543.266	800.000	0.064	-0.279
-542.252	-200.000	-0.017	0.087
-541.237	-157.690	-0.117	0.007
-540.223	-95.195	0.229	0.063
-539.208	189.058	-0.040	-0.061
-538.193	-200.000	-0.048	0.235
-537.179	645.332	0.090	0.234
-536.164	9.298	-0.083	0.064
-535.150	572.985	0.030	0.075
-534.135	-111.126	0.329	0.068
-533.121	-45.776	0.133	-0.067
-532.106	98.352	0.075	0.087
-531.091	528.528	-0.024	0.057
-530.077	47.618	-0.171	-0.162
-529.062	-200.000	-0.015	-0.218
-528.048	-136.969	0.157	0.018
-527.033	-200.000	-0.002	0.407
-526.018	-127.582	0.177	0.026
-525.004	-113.230	-0.058	-0.012
-523.989	145.263	-0.081	0.111
-522.975	-56.892	-0.158	-0.071
-521.960	-127.033	-0.270	0.040
-520.945	46.896	-0.244	0.230
-519.931	-23.809	0.127	-0.077
-518.916	342.853	0.172	-0.341
-517.902	-125.477	0.293	0.045
-516.887	-16.695	-0.262	-0.168
-515.872	50.066	-0.037	0.036
-514.858	800.000	-0.091	0.282
-513.843	-66.673	0.344	0.138
-512.829	-38.824	0.232	0.124
-511.814	201.745	-0.101	0.157
-510.799	-200.000	-0.015	0.337
-509.785	-9.645	0.156	0.105
-508.770	-200.000	0.024	-0.110
-507.756	-86.458	-0.162	-0.050
-506.741	189.755	-0.058	0.088
-505.726	-37.203	0.225	-0.122
-504.712	48.866	0.210	0.200
-503.697	-96.828	-0.068	-0.018
-502.683	310.728	-0.119	0.227
-501.668	-48.948	-0.239	0.116
-500.653	800.000	-0.089	0.297
-499.639	26.551	0.115	0.098
-498.624	76.629	-0.218	-0.234
-497.610	240.564	-0.184	0.311
-496.595	146.767	0.219	0.299
-495.581	-129.126	-0.200	0.028
-494.566	-0.942	0.264	0.189
-493.551	-150.554	0.159	0.012
-492.537	-46.539	0.439	0.218
-491.522	-69.421	-0.122	0.048
-490.508	800.000	0.104	0.335
-489.493	-62.783	0.075	-0.031
-488.478	800.000	-0.038	-0.144
-487.464	-200.000	0.018	0.095
-486.449	-200.000	0.078	-0.593
-485.435	-170.673	-0.156	-0.005
-484.420	-122.769	-0.529	-0.087
-483.405	66.159	0.260	-0.267
-482.391	-56.633	0.093	-0.042
-481.376	245.518	0.064	0.110
-480.362	-200.000	0.018	0.305
-479.347	-110.062	0.151	-0.032
-478.332	-43.617	0.045	0.023
-477.318	137.035	0.249	-0.330
-476.303	28.495	-0.062	0.053
-475.289	312.478	-0.201	-0.381
-474.274	139.696	0.068	0.091
-473.259	-16.881	-0.063	-0.040
-472.245	-10.230	0.053	-0.036
-471.230	35.197	0.034	0.030
-470.216	-45.944	0.058	0.029
-469.201	-99.179	-0.361	0.092
-468.186	631.787	-0.081	-0.207
-467.172	800.000	0.060	-0.197
-466.157	-9.069	-0.182	-0.124
-465.143	183.696	0.071	-0.106
-464.128	198.079	-0.114	0.176
-463.113	-32.533	0.242	0.137
-462.099	-86.420	0.134	0.042
-461.084	800.000	0.046	0.131
-460.070	60.029	0.155	0.155
-459.055	194.417	-0.131	0.201
-458.040	-61.788	-0.291	-0.123
-457.026	-200.000	-0.032	0.297
-456.011	-200.000	0.074	-0.379
-454.997	-200.000	0.018	-0.083
-453.982	148.118	0.111	-0.152
-452.968	-200.000	0.008	0.130
-451.953	-80.840	-0.135	0.045
-450.938	218.049	-0.088	0.142
-449.924	474.845	-0.135	-0.308
-448.909	-130.022	0.120	-0.017
-447.895	109.527	-0.069	-0.084
-446.880	-200.000	-0.012	-0.289
-445.865	-13.049	0.237	0.156
-444.851	-88.523	0.155	0.047
-443.836	50.955	-0.111	0.106
-442.822	-80.517	-0.140	0.047
-441.807	54.232	0.183	0.178
-440.792	192.700	0.099	-0.151
-439.778	-31.058	-0.345	0.197
-438.763	-56.039	0.262	0.118
-437.749	-200.000	0.002	0.118
-436.734	430.260	0.015	0.033
-435.719	800.000	-0.020	0.073
-434.705	-200.000	0.040	0.185
-433.690	800.000	-0.033	0.144
-432.676	74.569	-0.281	-0.299
-431.661	186.926	0.104	-0.156
-430.646	94.338	0.092	0.105
-429.632	-18.074	-0.084	-0.053
-428.617	327.171	-0.106	-0.206
-427.603	-98.026	-0.258	-0.067
-426.588	-200.000	0.020	-0.112
-425.573	800.000	-0.088	-0.373
-424.559	-200.000	0.048	-0.298
-423.544	201.384	0.084	0.131
-422.530	-82.885	-0.189	0.062
-421.515	252.056	0.080	0.138
-420.500	195.616	0.081	0.125
-419.486	166.478	0.092	-0.132
-418.471	189.460	0.132	0.200
-417.457	-37.951	0.212	0.114
-416.442	463.481	0.184	-0.414
-415.428	709.094	0.023	0.061
-414.413	-200.000	-0.029	-0.187
-413.398	-200.000	-0.003	-0.078
-412.384	632.849	0.059	0.152
-411.369	-7.174	-0.291	-0.199
-410.355	116.860	-0.278	-0.344
-409.340	-110.073	-0.170	-0.036
-408.325	279.831	-0.179	0.322
-407.311	-48.412	-0.051	0.025
-406.296	-200.000	0.001	-0.088
-405.282	141.098	0.166	0.221
-404.267	-200.000	-0.036	0.212
-403.252	-154.173	0.233	-0.016
-402.238	18.565	0.092	0.075
-401.223	-184.971	0.030	-0.000
-400.209	534.789	0.027	-0.066
-399.194	-38.472	0.252	0.134
-398.179	-19.035	-0.104	-0.065
-397.165	800.000	0.104	0.335
-396.150	-102.923	-0.174	0.042
-395.136	98.563	0.067	-0.078
-394.121	211.461	0.023	0.036
-393.106	-27.428	-0.299	-0.175
-392.092	-75.116	-0.060	0.022
-391.077	-56.492	0.318	0.142
-390.063	-152.706	-0.261	0.019
-389.048	-82.470	-0.199	-0.065
-388.033	-11.014	0.163	0.109
-387.019	-46.722	-0.139	0.069
-386.004	-200.000	-0.033	-0.175
-384.990	-89.167	0.063	-0.019
-383.975	-200.000	0.014	0.251
-382.960	51.327	0.196	-0.188
-381.946	800.000	-0.100	-0.313
-380.931	56.598	0.137	0.135
-379.917	265.509	0.158	-0.279
-378.902	396.901	0.117	0.247
-377.888	-119.323	0.266	-0.047
-376.873	-153.445	0.456	0.032
-375.858	800.000	-0.064	0.273
-374.844	-60.494	-0.264	0.113
-373.829	-69.693	0.132	0.051
-372.815	36.645	-0.245	0.218
-371.800	-107.350	0.417	-0.092
-370.785	159.578	-0.170	-0.238
-369.771	3.037	0.099	-0.073
-368.756	64.916	-0.220	-0.223
-367.742	170.861	0.094	-0.136
-366.727	51.036	-0.068	0.065
-365.712	-200.000	0.003	0.016
-364.698	-200.000	-0.024	-0.486
-363.683	800.000	-0.076	-0.238
-362.669	673.553	-0.176	0.461
-361.654	-39.164	0.038	0.020
-360.639	-135.696	0.160	0.019
-359.625	800.000	0.031	0.120
-358.610	800.000	-0.126	0.370
-357.596	-18.062	0.239	-0.151
-356.581	-200.000	0.006	0.201
-355.566	-74.798	0.342	-0.124
-354.552	800.000	-0.065	-0.184
-353.537	-89.122	0.297	-0.088
-352.523	-136.660	-0.160	-0.019
-351.508	53.317	-0.215	-0.207
-350.493	210.838	-0.060	-0.096
-349.479	-200.000	-0.001	-0.106
-348.464	-200.000	-0.012	0.118
-347.450	363.398	-0.050	-0.101
-346.435	141.181	-0.047	-0.063
-345.420	128.762	0.082	0.105
-344.406	-200.000	0.022	-0.131
-343.391	388.942	-0.080	-0.167
-342.377	-150.487	-0.375	-0.029
-341.362	-200.000	-0.020	0.154
-340.348	-200.000	0.001	-0.079
-339.333	151.375	-0.084	-0.116
-338.318	-200.000	0.016	0.133
-337.304	46.940	0.098	0.091
-336.289	422.377	0.134	0.289
-335.275	-34.138	0.352	0.195
-334.260	178.507	-0.155	0.228
-333.245	-84.632	-0.460	0.146
-332.231	-21.043	0.240	0.148
-331.216	79.480	-0.136	0.147
-330.202	800.000	0.043	0.126
-329.187	-11.138	0.130	0.086
-328.172	-2.622	-0.155	-0.109
-327.158	228.313	-0.249	0.407
-326.143	453.070	0.083	-0.184
-325.129	-7.292	0.128	-0.087
-324.114	-80.654	0.040	0.013
-323.099	-200.000	0.043	-0.297
-322.085	260.851	0.035	-0.062
-321.070	-9.125	0.219	-0.147
-320.056	-200.000	0.004	0.063
-319.041	98.604	-0.207	-0.241
-318.026	200.701	-0.019	0.029
-317.012	-129.719	-0.202	-0.028
-315.997	-142.068	0.213	0.021
-314.983	34.531	0.356	0.313
-313.968	473.574	0.021	0.049
-312.953	800.000	-0.122	0.354
-311.939	-72.999	0.333	0.123
-310.924	-106.882	0.283	0.063
-309.910	-78.121	0.372	-0.129
-308.895	-193.319	0.167	-0.001
-307.880	-48.778	0.387	0.187
-306.866	70.267	0.054	0.056
-305.851	-93.151	0.271	0.076
-304.837	676.961	-0.034	0.090
-303.822	164.690	0.127	0.180
-302.807	-75.749	0.140	0.050
-301.793	-155.049	-0.283	0.019
-300.778	520.038	0.042	0.099
-299.764	-200.000	0.059	-0.323
-298.749	129.008	0.110	-0.141
-297.735	243.188	0.164	-0.277
-296.720	-59.959	-0.252	0.108
-295.705	-64.305	0.135	-0.055
-294.691	239.411	-0.148	-0.248
-293.676	74.870	-0.042	-0.044
-292.662	-9.121	-0.215	-0.145
-291.647	380.643	-0.100	-0.206
-290.632	-109.454	0.127	-0.027
-289.618	-200.000	-0.032	-0.285
-288.603	-200.000	0.030	-0.203
-287.589	-29.068	-0.320	-0.184
-286.574	-78.672	-0.257	0.088
-285.559	-20.974	-0.122	0.075
-284.545	330.852	-0.153	-0.296
-283.530	-200.000	-0.011	0.315
-282.516	171.146	-0.091	0.131
-281.501	-200.000	-0.040	-0.245
-280.486	-88.207	-0.262	0.079
-279.472	515.036	0.087	-0.205
-278.457	-200.000	0.016	0.100
-277.443	-94.727	0.263	0.072
-276.428	-5.134	0.232	0.160
-275.413	-200.000	-0.008	0.068
-274.399	-95.509	-0.233	0.063
-273.384	-15.195	-0.063	0.041
-272.370	144.763	-0.204	0.274
-271.355	139.080	0.045	-0.059
-270.340	-133.651	0.372	0.047
-269.326	-14.837	0.099	-0.064
-268.311	-200.000	-0.014	-0.177
-267.297	310.469	-0.098	-0.185
-266.282	-200.000	0.047	-0.263
-265.267	-200.000	-0.003	-0.254
-264.253	50.820	-0.179	-0.170
-263.238	-200.000	0.038	-0.308
-262.224	-200.000	-0.013	0.084
-261.209	242.529	-0.057	0.096
-260.195	-200.000	-0.044	0.282
-259.180	22.649	-0.208	0.171
-258.165	12.847	0.136	0.105
-257.151	72.020	0.114	-0.119
-256.136	18.568	-0.197	0.158
-255.122	800.000	-0.060	0.186
-254.107	-200.000	0.004	0.114
-253.092	-200.000	0.025	0.289
-252.078	-200.000	-0.010	-0.096
-251.063	242.069	0.074	-0.124
-250.049	-21.725	-0.201	-0.123
-249.034	-33.901	0.343	-0.189
-248.019	59.519	0.071	-0.070
-247.005	-200.000	-0.057	0.258
-245.990	-28.262	-0.060	-0.035
-244.976	-33.231	-0.093	0.052
-243.961	344.730	-0.142	0.279
-242.946	-19.002	0.265	0.166
-241.932	-126.693	-0.108	-0.016
-240.917	25.627	-0.337	0.281
-239.903	165.067	-0.206	-0.291
-238.888	-24.136	0.359	-0.215
-237.873	800.000	-0.108	-0.325
-236.859	397.463	-0.217	-0.455
-235.844	-200.000	0.016	0.128
-234.830	18.215	-0.162	0.130
-233.815	60.788	-0.078	-0.077
-232.800	-55.543	-0.115	0.051
-231.786	-28.376	-0.156	-0.090
-230.771	-87.941	-0.144	0.043
-229.757	376.456	-0.014	0.028
-228.742	-200.000	-0.034	-0.188
-227.727	-121.686	0.048	0.008
-226.713	-118.667	-0.132	0.023
-225.698	-200.000	0.002	0.041
-224.684	184.505	-0.102	-0.151
-223.669	-200.000	0.016	0.312
-222.655	800.000	-0.038	-0.140
-221.640	80.661	-0.180	0.194
-220.625	-200.000	0.014	0.070
-219.611	118.053	0.194	-0.240
-218.596	47.721	-0.105	-0.098
-217.582	37.553	0.098	0.087
-216.567	51.284	0.143	-0.136
-215.552	182.659	0.100	-0.148
-214.538	-93.568	0.143	0.040
-213.523	599.502	-0.069	-0.171
-212.509	800.000	0.027	0.091
-211.494	-133.556	-0.034	0.004
-210.479	800.000	0.050	-0.195
-209.465	98.708	0.130	-0.151
-208.450	-72.352	0.072	0.027
-207.436	-100.042	-0.203	0.051
-206.421	-121.949	0.088	0.015
-205.406	284.519	-0.171	-0.308
-204.392	-200.000	-0.000	-0.012
-203.377	-200.000	0.002	0.265
-202.363	-48.496	0.056	-0.027
-201.348	-0.336	-0.172	-0.122
-200.333	774.619	0.092	0.251
-199.319	-49.019	-0.250	-0.120
-198.304	-63.809	-0.258	0.106
-197.290	-66.182	0.195	0.078
-196.275	396.650	0.059	-0.122
-195.260	-98.468	-0.100	0.026
-194.246	-20.519	-0.065	-0.040
-193.231	800.000	0.044	-0.170
-192.217	13.383	0.334	-0.260
-191.202	-185.331	-0.259	-0.004
-190.187	-148.796	0.272	0.022
-189.173	-45.377	-0.143	0.071
-188.158	-42.920	0.094	-0.048
-187.144	-168.111	-0.232	-0.009
-186.129	-11.920	-0.214	-0.140
-185.114	-34.215	-0.063	-0.034
-184.100	-200.000	-0.036	-0.184
-183.085	-166.197	0.190	0.008
-182.071	-17.773	0.236	-0.148
-181.056	-73.741	-0.073	0.027
-180.042	62.998	-0.147	0.147
-179.027	389.151	-0.109	0.226
-178.012	272.618	0.063	-0.111
-176.998	800.000	-0.085	-0.238
-175.983	-117.650	-0.223	-0.040
-174.969	800.000	0.073	0.209
-173.954	-31.862	0.037	0.021
-172.939	421.403	0.122	-0.262
-171.925	-31.715	0.171	0.096
-170.910	-98.202	-0.077	0.020
-169.896	-19.753	-0.413	-0.256
-168.881	25.686	0.369	0.307
-167.866	219.802	0.213	0.341
-166.852	113.034	-0.201	0.243
-165.837	198.390	0.050	0.077
-164.823	-29.924	-0.157	0.089
-163.808	-158.485	0.055	-0.003
-162.793	37.819	0.094	0.084
-161.779	-58.453	-0.171	0.074
-160.764	36.151	-0.304	-0.268
-159.750	-200.000	-0.043	0.285
-158.735	254.288	-0.175	0.299
-157.720	360.396	-0.087	0.174
-156.706	230.530	0.220	0.359
-155.691	-49.299	-0.103	0.049
-154.677	259.797	0.125	-0.217
-153.662	-200.000	-0.038	-0.327
-152.647	134.903	0.113	-0.147
-151.633	-200.000	-0.004	0.046
-150.618	72.605	0.195	0.203
-149.604	299.940	0.170	0.313
-148.589	-36.165	-0.193	-0.104
-147.574	-200.000	0.004	-0.273
-146.560	-200.000	-0.026	-0.228
-145.545	43.956	0.133	0.121
-144.531	-200.000	0.034	0.150
-143.516	179.715	-0.125	-0.183
-142.502	800.000	-0.049	-0.172
-141.487	199.915	-0.059	-0.091
-140.472	-107.113	0.160	0.035
-139.458	-98.495	0.311	-0.079
-138.443	-200.000	-0.052	0.312
-137.429	192.679	0.219	0.330
-136.414	469.443	0.121	0.271
-135.399	800.000	0.045	0.185
-134.385	277.971	0.200	-0.356
-133.370	-107.171	-0.198	-0.044
-132.356	-200.000	-0.007	-0.241
-131.341	-200.000	0.064	-0.573
-130.326	-200.000	-0.030	0.261
-129.312	-200.000	0.112	0.567
-128.297	800.000	-0.042	0.160
-127.283	-200.000	-0.003	-0.124
-126.268	800.000	-0.094	-0.266
-125.253	742.470	0.078	0.210
-124.239	673.740	0.064	-0.167
-123.224	150.995	0.194	-0.264
-122.210	14.843	-0.308	0.240
-121.195	-38.981	0.158	0.083
-120.180	-190.066	-0.225	-0.003
-119.166	-200.000	0.014	0.089
-118.151	152.110	0.146	0.199
-117.137	30.534	-0.217	0.185
-116.122	-130.458	-0.380	-0.051
-115.107	35.167	0.084	0.074
-114.093	39.461	0.091	-0.082
-113.078	-82.660	0.222	-0.072
-112.064	218.955	-0.094	-0.149
-111.049	-106.402	0.387	0.086
-110.034	-58.724	-0.265	-0.115
-109.020	541.685	-0.118	0.281
-108.005	-50.218	0.285	-0.135
-106.991	37.906	0.195	0.173
-105.976	-133.271	0.389	0.049
-104.962	-113.634	-0.046	0.009
-103.947	800.000	0.023	0.089
-102.932	-116.817	0.498	0.091
-101.918	-200.000	-0.089	0.501
-100.903	-122.291	-0.143	-0.023
-99.889	45.289	0.073	-0.067
-98.874	13.552	-0.141	0.110
-97.859	161.431	-0.049	0.068
-96.845	608.440	-0.082	0.205
-95.830	800.000	-0.111	0.357
-94.816	800.000	0.019	-0.067
-93.801	-200.000	0.026	-0.274
-92.786	104.416	-0.211	0.247
-91.772	-20.188	0.136	-0.084
-90.757	-51.180	-0.128	0.060
-89.743	800.000	0.020	0.074
-88.728	-119.766	0.372	-0.064
-87.713	800.000	0.019	-0.081
-86.699	-200.000	0.003	0.117
-85.684	800.000	0.038	0.115
-84.670	58.130	-0.262	0.256
-83.655	800.000	0.098	-0.334
-82.640	-155.969	-0.065	0.004
-81.626	-88.572	0.304	-0.090
-80.611	-200.000	0.056	-0.278
-79.597	83.774	-0.020	-0.022
-78.582	-200.000	0.013	0.084
-77.567	395.184	-0.085	-0.177
-76.553	800.000	-0.090	-0.251
-75.538	800.000	-0.055	-0.199
-74.524	74.862	0.073	-0.076
-73.509	-187.679	-0.564	-0.007
-72.494	800.000	0.107	-0.309
-71.480	-200.000	0.023	0.104
-70.465	-7.320	0.083	0.056
-69.451	-48.484	-0.333	0.159
-68.436	-200.000	-0.012	0.359
-67.422	101.048	0.035	0.041
-66.407	169.557	0.086	0.122
-65.392	6.623	-0.153	-0.114
-64.378	800.000	-0.123	-0.429
-63.363	-87.973	-0.216	0.065
-62.349	-200.000	0.013	-0.073
-61.334	72.535	-0.764	-0.793
-60.319	29.799	0.163	0.138
-59.305	619.987	-0.267	-0.669
-58.290	601.256	0.271	0.669
-57.276	800.000	0.496	1.944
-56.261	-200.000	76.359	539.501
-55.246	528.442	1341.104	3150.751
-54.232	141.210	2576.957	3394.664
-53.217	120.236	2245.027	2774.372
-52.203	54.858	1678.733	1613.306
-51.188	46.056	1397.788	1288.373
-50.173	42.376	1351.555	1223.326
-49.159	61.263	1385.738	1370.718
-48.144	68.705	1403.915	1434.229
-47.130	46.757	1366.984	1264.080
-46.115	42.429	1350.614	1222.607
-45.100	42.103	1345.665	1216.094
-44.086	42.120	1343.299	1214.015
-43.071	42.061	1341.041	1211.570
-42.057	42.021	1339.071	1209.499
-41.042	42.098	1337.209	1208.230
-40.027	42.073	1335.536	1206.520
-39.013	42.142	1333.487	1205.039
-37.998	42.202	1331.519	1203.574
-36.984	42.199	1329.231	1201.440
-35.969	42.333	1327.402	1200.541
-34.954	42.384	1325.688	1199.245
-33.940	42.260	1324.714	1197.578
-32.925	42.264	1323.470	1196.432
-31.911	42.455	1321.425	1195.672
-30.896	42.402	1319.740	1193.786
-29.881	42.400	1318.754	1192.833
-28.867	42.313	1317.250	1190.911
-27.852	42.364	1315.483	1189.564
-26.838	42.311	1313.935	1187.803
-25.823	42.333	1312.346	1186.453
-24.809	42.213	1311.463	1184.899
-23.794	42.356	1309.710	1184.112
-22.779	42.426	1308.386	1183.282
-21.765	42.428	1307.065	1182.051
-20.750	42.307	1305.946	1180.277
-19.736	42.319	1304.613	1179.100
-18.721	42.287	1302.683	1177.119
-17.706	42.254	1301.971	1176.235
-16.692	42.216	1300.987	1175.077
-15.677	42.270	1299.490	1173.993
-14.663	42.127	1298.728	1172.424
-13.648	42.199	1297.390	1171.588
-12.633	42.243	1296.464	1170.962
-11.619	42.129	1295.612	1169.483
-10.604	42.102	1294.748	1168.496
-9.590	42.103	1293.502	1167.333
-8.575	42.057	1293.088	1166.646
-7.560	42.188	1291.173	1165.634
-6.546	42.098	1290.762	1164.695
-5.531	42.064	1289.724	1163.511
-4.517	42.220	1288.871	1163.601
-3.502	42.211	1287.805	1162.542
-2.487	42.158	1287.293	1161.725
-1.473	42.204	1283.604	1158.616
-0.458	40.923	1267.936	1137.109
0.556	34.728	1247.252	1090.216
1.571	30.110	1249.758	1065.827
2.586	28.289	1263.796	1067.108
3.600	26.940	1253.414	1050.446
4.615	23.263	1183.573	971.688
5.629	17.558	1108.773	880.780
6.644	14.374	1087.324	847.490
7.659	14.032	1084.581	843.544
8.673	14.074	1082.809	842.305
9.688	14.031	1081.572	841.050
10.702	14.281	1080.650	841.524
11.717	17.968	1085.257	863.713
12.731	21.721	1089.618	886.124
13.746	20.377	1086.498	876.729
14.761	17.791	1082.529	860.424
15.775	16.529	1080.400	852.299
16.790	15.444	1078.380	845.169
17.804	14.627	1076.421	839.453
18.819	14.216	1074.845	836.085
19.834	13.813	1074.025	833.347
20.848	13.583	1073.099	831.400
21.863	13.217	1072.460	828.998
22.877	13.228	1071.507	828.244
23.892	13.230	1070.537	827.428
24.907	13.276	1070.106	827.253
25.921	13.299	1068.985	826.428
26.936	13.207	1067.536	824.773
27.950	13.312	1066.179	824.176
28.965	13.323	1064.571	822.918
29.980	13.519	1062.873	822.503
30.994	13.467	1061.859	821.388
32.009	13.519	1061.066	820.964
33.023	13.626	1059.616	820.296
34.038	13.526	1058.477	818.849
35.053	13.312	1057.968	817.326
36.067	13.410	1057.005	816.991
37.082	13.371	1056.393	816.254
38.096	13.462	1055.149	815.669
39.111	13.522	1054.458	815.359
40.126	13.468	1053.387	814.195
41.140	13.144	1052.175	811.594
42.155	13.205	1051.069	810.964
43.169	13.200	1049.962	810.014
44.184	13.209	1048.478	808.842
45.199	13.228	1047.663	808.234
46.213	13.196	1046.864	807.393
47.228	13.385	1045.587	807.255
48.242	13.382	1044.555	806.375
49.257	13.306	1043.511	805.129
50.271	13.365	1042.975	804.927
51.286	13.451	1041.788	804.359
52.301	13.405	1040.920	803.394
53.315	13.237	1039.916	801.737
54.330	13.186	1038.992	800.704
55.344	13.223	1037.880	799.957
56.359	13.301	1037.120	799.676
57.374	13.311	1035.863	798.683
58.388	13.161	1035.157	797.346
59.403	13.131	1034.515	796.634
60.417	13.078	1034.067	795.963
61.432	13.011	1033.096	794.822
62.447	13.050	1032.025	794.119
63.461	13.231	1030.710	793.906
64.476	13.131	1030.006	792.812
65.490	13.140	1029.368	792.295
66.505	13.056	1029.188	791.681
67.520	13.257	1027.683	791.416
68.534	13.136	1027.319	790.489
69.549	13.167	1026.470	789.913
70.563	13.150	1025.658	789.136
71.578	13.159	1024.632	788.322
72.593	13.131	1023.975	787.610
73.607	13.037	1023.720	786.900
74.622	13.060	1023.018	786.400
75.636	13.082	1021.877	785.557
76.651	13.016	1021.422	784.822
77.666	12.979	1020.829	784.124
78.680	13.127	1020.273	784.327
79.695	13.009	1019.796	783.331
80.709	13.142	1019.049	783.321
81.724	13.180	1018.398	782.933
82.739	13.161	1017.676	782.217
83.753	13.314	1016.333	781.839
84.768	13.437	1015.709	781.872
85.782	13.395	1014.501	780.674
86.797	13.363	1014.061	780.117
87.812	13.349	1012.878	779.071
88.826	13.379	1011.932	778.414
89.841	13.438	1010.948	777.867
90.855	13.402	1009.696	776.664
91.870	13.356	1009.570	776.286
92.884	13.410	1008.132	775.362
93.899	13.519	1007.065	774.985
94.914	13.620	1006.093	774.639
95.928	13.617	1005.579	774.162
96.943	13.476	1004.649	772.716
97.957	13.467	1003.859	771.998
98.972	13.339	1003.242	770.861
99.987	13.510	1002.113	770.718
101.001	13.502	1001.195	769.908
102.016	13.480	1000.457	769.170
103.030	13.524	999.650	768.688
104.045	13.484	998.558	767.594
105.060	13.457	997.951	766.933
106.074	13.335	997.418	765.893
107.089	13.279	996.594	764.933
108.103	13.271	995.589	764.058
109.118	13.240	994.926	763.336
110.133	13.274	993.496	762.328
111.147	13.342	992.410	761.740
112.162	13.341	992.007	761.361
113.176	13.359	990.886	760.514
114.191	13.269	990.407	759.665
115.206	13.327	989.508	759.176
116.220	13.351	988.784	758.664
117.235	13.353	987.367	757.518
118.249	13.335	986.683	756.842
119.264	13.237	986.293	756.030
120.279	13.408	985.068	755.803
121.293	13.303	984.213	754.604
122.308	13.360	983.344	754.130
123.322	13.155	982.476	752.462
124.337	13.290	981.653	752.383
125.352	13.329	980.295	751.451
126.366	13.297	979.566	750.680
127.381	13.391	978.050	749.877
128.395	13.187	977.669	748.594
129.410	13.378	976.562	748.544
130.424	13.493	975.362	748.080
131.439	13.396	975.281	747.513
132.454	13.480	973.910	746.776
133.468	13.508	973.263	746.341
134.483	13.504	972.217	745.455
135.497	13.458	971.806	744.866
136.512	13.486	971.016	744.321
137.527	13.458	970.058	743.393
138.541	13.524	969.151	742.928
139.556	13.474	968.874	742.427
140.570	13.615	967.795	742.163
141.585	13.708	966.872	741.806
142.600	13.660	965.790	740.698
143.614	13.650	965.229	740.159
144.629	13.742	964.532	739.969
145.643	13.760	963.705	739.347
146.658	13.629	962.439	737.729
147.673	13.502	961.339	736.256
148.687	13.516	960.658	735.731
149.702	13.494	959.920	735.005
150.716	13.435	959.405	734.283
151.731	13.486	958.457	733.717
152.746	13.556	957.336	733.103
153.760	13.543	957.303	732.956
154.775	13.608	956.355	732.454
155.789	13.692	955.780	732.320
156.804	13.629	954.756	731.191
157.819	13.734	954.067	731.062
158.833	13.662	953.644	730.356
159.848	13.753	952.954	730.163
160.862	13.660	952.079	729.020
161.877	13.549	950.773	727.468
162.892	13.523	950.060	726.743
163.906	13.538	949.135	726.039
164.921	13.610	948.171	725.550
165.935	13.726	947.161	725.222
166.950	13.666	946.588	724.455
167.964	13.648	945.258	723.294
168.979	13.590	944.677	722.536
169.994	13.710	944.045	722.510
171.008	13.671	943.201	721.629
172.023	13.685	942.798	721.318
173.037	13.747	941.973	720.891
174.052	13.803	941.021	720.343
175.067	13.601	940.659	719.128
176.081	13.671	939.915	718.796
177.096	13.659	939.502	718.365
178.110	13.643	939.082	717.913
179.125	13.781	938.449	717.962
180.140	13.644	937.931	716.909
181.154	13.872	937.249	717.309
182.169	13.804	936.936	716.713
183.183	13.893	936.572	716.756
184.198	13.930	935.488	716.024
185.213	13.913	934.525	715.151
186.227	13.886	934.028	714.589
187.242	13.848	933.732	714.137
188.256	13.962	933.021	714.021
189.271	13.958	932.155	713.274
190.286	13.868	931.140	712.051
191.300	13.662	930.724	710.785
192.315	13.731	929.637	710.189
193.329	13.777	929.616	710.304
194.344	13.688	929.030	709.415
195.359	13.921	927.917	709.499
196.373	13.990	927.142	709.138
197.388	13.950	927.042	708.829
198.402	14.234	926.447	709.519
199.417	14.221	925.696	708.828
200.432	14.278	925.073	708.529
201.446	14.225	924.981	708.171
202.461	14.155	924.262	707.259
203.475	14.270	923.475	707.085
204.490	14.157	922.970	706.153
205.504	14.071	921.995	704.981
206.519	14.113	921.425	704.661
207.534	14.104	920.927	704.181
208.548	14.128	920.287	703.731
209.563	14.114	919.724	703.176
210.577	14.173	918.760	702.627
211.592	14.370	917.868	702.713
212.607	14.275	917.435	701.920
213.621	14.224	916.570	700.980
214.636	14.288	915.783	700.586
215.650	14.363	914.834	700.115
216.665	14.371	914.447	699.789
217.680	14.406	913.732	699.327
218.694	14.364	912.883	698.439
219.709	14.459	912.454	698.449
220.723	14.411	911.833	697.710
221.738	14.459	910.765	697.030
222.753	14.446	910.021	696.346
223.767	14.394	909.676	695.804
224.782	14.484	909.056	695.645
225.796	14.488	908.985	695.543
226.811	14.643	907.399	694.913
227.826	14.398	907.246	693.716
228.840	14.410	906.543	693.165
229.855	14.455	905.532	692.520
230.869	14.507	904.848	692.151
231.884	14.386	904.458	691.288
232.899	14.331	903.706	690.425
233.913	14.472	902.809	690.262
234.928	14.401	902.146	689.404
235.942	14.527	901.425	689.311
236.957	14.553	900.800	688.878
237.972	14.442	900.719	688.300
238.986	14.535	899.866	687.967
240.001	14.398	899.414	686.997
241.015	14.490	899.019	687.014
242.030	14.589	898.275	686.792
243.045	14.490	897.423	685.673
244.059	14.711	896.717	685.981
245.074	14.617	896.335	685.241
246.088	14.728	895.627	685.095
247.103	14.693	894.778	684.243
248.117	14.692	894.040	683.612
249.132	14.801	893.989	683.959
250.147	14.884	893.028	683.504
251.161	15.041	892.280	683.512
252.176	14.920	891.712	682.524
253.190	15.042	891.067	682.465
254.205	14.994	890.562	681.824
255.220	14.988	890.170	681.438
256.234	15.099	888.908	680.864
257.249	15.009	888.440	680.078
258.263	14.937	888.139	679.494
259.278	15.148	887.035	679.446
260.293	15.085	886.359	678.612
261.307	15.073	886.293	678.452
262.322	15.195	885.305	678.131
263.336	15.331	883.993	677.614
264.351	15.332	883.849	677.449
265.366	15.199	883.503	676.587
266.380	15.171	882.908	675.959
267.395	15.225	881.887	675.334
268.409	15.280	880.965	674.791
269.424	15.246	880.627	674.337
270.439	15.224	879.602	673.400
271.453	15.211	879.255	673.024
272.468	15.202	879.034	672.758
273.482	15.378	877.786	672.450
274.497	15.216	877.946	671.864
275.512	15.002	877.725	670.777
276.526	15.324	876.500	671.073
277.541	15.360	875.959	670.742
278.555	15.170	875.792	669.797
279.570	15.376	874.919	669.890
280.585	15.429	874.047	669.376
281.599	15.467	873.174	668.801
282.614	15.288	872.910	667.824
283.628	15.257	872.243	667.131
284.643	15.367	871.551	666.982
285.657	15.460	870.765	666.689
286.672	15.591	869.961	666.535
287.687	15.469	869.632	665.740
288.701	15.401	869.339	665.188
289.716	15.457	868.560	664.752
290.730	15.502	868.004	664.449
291.745	15.552	867.188	663.963
292.760	15.579	866.573	663.540
293.774	15.584	865.823	662.924
294.789	15.638	865.586	662.898
295.803	15.510	864.774	661.712
296.818	15.597	863.949	661.367
297.833	15.542	863.689	660.893
298.847	15.708	862.599	660.653
299.862	15.803	861.895	660.428
300.876	15.578	861.753	659.376
301.891	15.745	861.163	659.524
302.906	15.731	860.784	659.117
303.920	15.799	860.035	658.752
304.935	15.904	859.496	658.692
305.949	15.753	859.061	657.712
306.964	15.907	858.046	657.478
307.979	15.789	857.528	656.562
308.993	15.827	857.346	656.511
310.008	15.877	856.461	655.973
311.022	15.923	856.051	655.779
312.037	15.810	855.349	654.743
313.052	15.703	854.783	653.836
314.066	15.860	853.872	653.689
315.081	15.741	853.760	653.086
316.095	15.788	853.340	652.890
317.110	15.696	852.754	652.024
318.125	15.718	852.375	651.763
319.139	15.785	851.767	651.498
320.154	15.876	851.351	651.477
321.168	15.954	850.468	651.045
322.183	15.974	850.004	650.710
323.197	15.958	849.492	650.200
324.212	15.960	848.872	649.673
325.227	15.906	848.427	649.069
326.241	15.917	847.831	648.598
327.256	15.831	847.513	647.963
328.270	15.942	846.587	647.627
329.285	16.083	845.790	647.501
330.300	15.904	845.599	646.608
331.314	15.934	845.042	646.241
332.329	16.018	844.506	646.097
333.343	16.096	844.340	646.212
334.358	16.055	843.900	645.660
335.373	16.052	843.538	645.315
336.387	16.190	842.840	645.253
337.402	16.018	842.812	644.514
338.416	16.119	842.615	644.693
339.431	16.179	842.173	644.528
340.446	16.210	841.750	644.267
341.460	16.185	841.268	643.746
342.475	16.461	840.734	644.332
343.489	16.348	840.243	643.466
344.504	16.380	839.940	643.298
345.519	16.464	839.284	643.061
346.533	16.364	838.691	642.169
347.548	16.446	838.042	641.928
348.562	16.384	837.881	641.509
349.577	16.232	837.267	640.406
350.592	16.481	836.187	640.467
351.606	16.270	835.905	639.398
352.621	16.322	835.083	638.909
353.635	16.329	834.673	638.563
354.650	16.516	833.713	638.479
355.665	16.354	833.598	637.724
356.679	16.510	832.490	637.408
357.694	16.501	831.833	636.816
358.708	16.484	831.168	636.183
359.723	16.500	830.682	635.817
360.738	16.543	830.072	635.455
361.752	16.595	829.668	635.286
362.767	16.551	829.063	634.601
363.781	16.517	828.895	634.286
364.796	16.713	828.327	634.532
365.810	16.718	827.718	634.027
366.825	16.729	827.281	633.676
367.840	16.753	826.899	633.417
368.854	16.780	826.255	632.971
369.869	16.723	825.970	632.484
370.883	16.808	825.443	632.342
371.898	16.876	824.925	632.141
372.913	16.841	824.822	631.876
373.927	16.904	824.294	631.652
374.942	16.895	823.956	631.303
375.956	16.920	823.362	630.886
376.971	17.063	822.710	630.861
377.986	17.005	822.335	630.300
379.000	16.990	822.066	629.985
380.015	17.148	821.089	629.764
381.029	17.116	820.562	629.188
382.044	17.123	820.443	629.065
383.059	17.012	819.548	627.912
384.073	17.111	819.050	627.842
385.088	17.133	818.446	627.406
386.102	17.014	817.991	626.561
387.117	17.074	817.261	626.168
388.132	17.119	816.649	625.809
389.146	16.992	816.659	625.293
390.161	17.089	815.683	624.847
391.175	17.130	815.365	624.701
392.190	16.941	815.099	623.747
393.205	17.057	814.310	623.511
394.219	16.966	813.935	622.837
395.234	17.112	813.688	623.130
396.248	16.925	813.635	622.346
397.263	16.984	812.817	621.883
398.278	16.938	812.292	621.255
399.292	16.984	811.575	620.820
400.307	17.032	811.545	620.920
401.321	16.922	811.095	620.117
402.336	17.151	810.604	620.526
403.350	17.161	809.947	620.003
404.365	17.253	809.388	619.857
405.380	17.241	809.424	619.785
406.394	17.420	808.281	619.508
407.409	17.312	808.225	619.017
408.423	17.382	808.318	619.286
409.438	17.341	807.535	618.483
410.453	17.422	807.169	618.443
411.467	17.540	806.563	618.351
412.482	17.507	806.115	617.835
413.496	17.503	805.852	617.565
414.511	17.471	805.603	617.202
415.526	17.352	805.340	616.515
416.540	17.517	804.607	616.496
417.555	17.580	804.314	616.444
418.569	17.434	803.835	615.497
419.584	17.638	803.424	615.862
420.599	17.597	802.626	615.048
421.613	88.266	1258.755	1346.579
422.628	75.250	1325.253	1346.710
