DTS Sentinel unit serial number:	SN413079Multiplexer serial number:	ORYXHardware model number:	OX4-SRSoftware version number:	ORYX F/W v4.00 Oryx Data Collector v3.7.2.0data status	okinstallation	princeton_trtdifferential loss correction	single-endedforward channel	channel 1reverse channel	N/Adate	2019/09/12time	18:53:34forward acquisition time	15.00reverse acquisition time	0.00gamma	496.2192k internal	0.2319k external	0.2319temperature offset calibration	1.0102default loss term (dB/km)	0.3790temperature slope calibration	1.0000multiplexer offset coefficient	1.0000multiplexer slope coefficient	1.0000fibre end	0.00T internal ref (°C)	32.87T ext. ref 1 (°C)	2.98T ext. ref 2 (°C)	27.41length (m)	temperature (°C)	Stokes	anti-Stokes-747.200	-200.000	-0.003	-0.434
-746.185	-87.447	0.411	-0.126
-745.171	-7.165	0.577	-0.396
-744.156	238.978	-0.277	-0.467
-743.142	800.000	0.006	0.026
-742.127	-102.001	0.427	0.104
-741.112	16.261	-0.741	0.591
-740.098	724.641	-0.089	0.240
-739.083	-200.000	-0.097	0.674
-738.069	21.822	-0.139	-0.115
-737.054	800.000	-0.129	0.468
-736.039	690.515	-0.153	0.406
-735.025	-184.911	-0.335	-0.005
-734.010	308.577	0.144	-0.273
-732.996	269.770	-0.299	0.530
-731.981	46.421	0.428	0.401
-730.966	-57.441	-0.472	0.210
-729.952	-200.000	0.003	0.105
-728.937	8.318	0.363	-0.276
-727.923	-200.000	-0.064	0.763
-726.908	-58.251	-0.747	-0.329
-725.894	324.998	0.232	-0.447
-724.879	487.109	0.373	0.861
-723.864	-127.992	-0.330	-0.048
-722.850	120.761	0.047	-0.060
-721.835	40.800	0.211	-0.192
-720.821	394.649	0.454	-0.956
-719.806	-129.393	-0.510	-0.072
-718.791	214.855	-0.219	0.351
-717.777	-200.000	-0.112	-0.795
-716.762	22.041	-0.601	-0.496
-715.748	-86.093	0.957	0.299
-714.733	-17.780	-0.612	0.388
-713.718	-47.668	-0.368	-0.180
-712.704	380.633	-0.338	0.701
-711.689	-51.641	-0.679	0.320
-710.675	84.003	-0.239	-0.263
-709.660	15.427	-0.210	0.167
-708.645	-67.623	-0.624	-0.247
-707.631	344.739	-0.163	-0.324
-706.616	147.533	-0.074	-0.101
-705.602	286.250	-0.474	0.863
-704.587	-37.759	0.770	0.414
-703.572	-53.135	0.378	-0.175
-702.558	-75.773	0.221	-0.079
-701.543	31.178	-0.281	-0.244
-700.529	-37.611	-0.266	0.143
-699.514	-130.636	0.122	0.017
-698.499	-35.036	0.528	0.291
-697.485	-37.264	0.421	0.227
-696.470	438.774	0.267	0.588
-695.456	-200.000	-0.047	-0.349
-694.441	-200.000	-0.002	-0.644
-693.426	272.919	0.140	0.249
-692.412	17.297	0.530	-0.425
-691.397	-59.319	-0.266	-0.115
-690.383	-7.353	0.075	0.051
-689.368	195.961	-0.349	-0.537
-688.354	307.472	0.151	0.285
-687.339	-24.193	-0.572	-0.345
-686.324	-67.904	0.429	-0.169
-685.310	-82.423	0.471	-0.155
-684.295	281.414	0.226	-0.409
-683.281	-134.836	-0.327	0.040
-682.266	69.705	-0.511	-0.531
-681.251	-120.957	0.630	0.107
-680.237	800.000	-0.130	-0.387
-679.222	335.275	-0.354	0.691
-678.208	800.000	-0.048	0.167
-677.193	151.184	0.640	0.879
-676.178	-95.839	-0.572	0.154
-675.164	222.037	0.468	-0.759
-674.149	-9.288	0.285	-0.192
-673.135	-30.715	0.134	-0.076
-672.120	-107.693	0.234	0.052
-671.105	-200.000	-0.109	-0.525
-670.091	-122.917	-0.839	-0.136
-669.076	630.001	0.363	-0.927
-668.062	112.327	-0.493	-0.601
-667.047	208.242	0.681	1.073
-666.032	-200.000	-0.058	0.546
-665.018	-165.525	-0.984	0.043
-664.003	152.490	-0.342	0.471
-662.989	-52.030	-0.442	-0.207
-661.974	-130.613	-0.585	0.080
-660.959	51.179	1.153	1.103
-659.945	800.000	0.136	0.542
-658.930	-164.751	0.202	-0.009
-657.916	112.846	-0.187	0.229
-656.901	-200.000	-0.037	-0.973
-655.886	-158.174	-0.832	0.049
-654.872	-200.000	0.027	-0.325
-653.857	-13.720	0.093	0.061
-652.843	164.362	0.460	-0.654
-651.828	3.984	0.402	-0.296
-650.814	-200.000	0.011	-0.335
-649.799	-200.000	0.097	0.472
-648.784	-200.000	-0.011	-0.267
-647.770	-200.000	-0.070	0.388
-646.755	-118.408	-0.671	-0.120
-645.741	365.509	0.453	-0.920
-644.726	-81.730	0.904	-0.299
-643.711	800.000	-0.072	-0.225
-642.697	-58.482	-0.481	0.210
-641.682	-200.000	0.056	-0.300
-640.668	-0.269	0.426	-0.305
-639.653	116.742	-0.553	0.683
-638.638	549.639	0.036	0.088
-637.624	800.000	0.171	0.544
-636.609	-200.000	-0.031	-0.175
-635.595	-200.000	-0.038	-0.226
-634.580	-59.937	-0.132	-0.057
-633.565	203.377	0.248	-0.387
-632.551	129.803	0.497	-0.640
-631.536	-159.428	-0.336	0.019
-630.522	-200.000	-0.068	0.795
-629.507	-2.927	0.159	0.112
-628.492	-162.352	0.521	-0.026
-627.478	-116.785	-0.552	-0.102
-626.463	123.587	-0.164	-0.207
-625.449	237.418	-0.209	-0.349
-624.434	123.124	0.502	0.634
-623.419	-21.303	-0.444	0.273
-622.405	-61.822	-0.970	-0.409
-621.390	-62.205	0.615	0.258
-620.376	-101.769	0.656	-0.160
-619.361	-200.000	-0.045	-0.256
-618.346	127.227	-0.227	-0.290
-617.332	-121.256	0.402	0.068
-616.317	-20.270	-0.435	0.270
-615.303	158.748	-0.421	0.589
-614.288	-44.517	0.035	0.018
-613.273	60.157	-0.353	-0.351
-612.259	0.384	-0.114	0.082
-611.244	112.054	0.077	-0.094
-610.230	-68.536	-1.190	-0.464
-609.215	-147.271	0.420	-0.036
-608.201	-94.169	0.529	-0.146
-607.186	-200.000	-0.102	-0.899
-606.171	-78.231	-0.573	0.198
-605.157	232.170	-0.517	-0.854
-604.142	-62.154	-0.209	0.088
-603.128	49.304	0.303	0.287
-602.113	32.399	0.137	-0.119
-601.098	-67.539	-0.626	-0.247
-600.084	52.923	0.478	0.460
-599.069	-200.000	0.086	-0.882
-598.055	-115.990	-0.836	-0.157
-597.040	341.669	-0.444	0.872
-596.025	-144.474	-0.498	0.046
-595.011	-200.000	-0.014	0.410
-593.996	800.000	-0.017	0.055
-592.982	-200.000	-0.032	-0.295
-591.967	-200.000	0.028	-0.341
-590.952	-200.000	0.052	-0.732
-589.938	800.000	-0.201	-0.608
-588.923	800.000	-0.074	0.297
-587.909	349.408	0.363	-0.720
-586.894	-22.799	-0.878	0.533
-585.879	-200.000	-0.089	0.733
-584.865	-40.004	-0.437	0.229
-583.850	-100.900	-0.255	-0.063
-582.836	280.478	0.141	0.253
-581.821	800.000	-0.084	0.239
-580.806	-140.345	-0.677	0.071
-579.792	543.261	0.097	-0.234
-578.777	-200.000	-0.091	0.501
-577.763	-200.000	-0.021	-0.348
-576.748	272.248	0.198	0.352
-575.733	278.047	0.418	0.748
-574.719	276.833	0.217	0.388
-573.704	85.806	0.609	-0.673
-572.690	-74.033	0.918	-0.334
-571.675	-3.065	0.584	-0.409
-570.661	46.421	-0.685	-0.638
-569.646	189.493	-0.155	0.234
-568.631	-107.252	0.605	0.134
-567.617	747.212	-0.185	-0.502
-566.602	-200.000	-0.067	0.305
-565.588	161.009	-0.212	-0.297
-564.573	-84.782	1.086	0.343
-563.558	-85.720	-0.348	-0.108
-562.544	800.000	0.034	-0.099
-561.529	-36.856	-0.273	0.147
-560.515	89.538	-0.245	-0.274
-559.500	-200.000	0.019	0.570
-558.485	-131.229	0.635	-0.085
-557.471	134.454	0.455	0.593
-556.456	-165.355	0.730	-0.032
-555.442	-200.000	-0.009	0.170
-554.427	-200.000	-0.105	-1.708
-553.412	440.814	-0.316	-0.693
-552.398	716.751	0.171	0.455
-551.383	23.616	0.346	0.286
-550.369	-36.632	0.461	0.249
-549.354	148.319	-0.143	0.194
-548.339	-92.654	0.875	-0.246
-547.325	-56.455	-0.287	0.128
-546.310	-109.179	-0.387	0.083
-545.296	-132.993	-0.230	-0.029
-544.281	-200.000	-0.007	-0.667
-543.266	-18.607	0.147	0.092
-542.252	-200.000	-0.020	-0.274
-541.237	16.754	0.141	0.112
-540.223	-7.133	-0.654	-0.445
-539.208	56.710	0.074	0.072
-538.193	-49.629	-1.021	-0.487
-537.179	-200.000	-0.016	-0.100
-536.164	365.803	0.274	-0.554
-535.150	-95.850	0.246	0.066
-534.135	-129.025	-0.721	0.101
-533.121	173.020	0.325	-0.470
-532.106	-111.180	-0.537	-0.110
-531.091	65.335	-0.041	0.042
-530.077	106.171	-0.344	-0.409
-529.062	-45.852	0.105	0.052
-528.048	800.000	0.115	0.380
-527.033	-78.692	-0.333	-0.114
-526.018	800.000	-0.213	0.746
-525.004	-200.000	0.028	0.355
-523.989	179.785	-0.567	-0.832
-522.975	-145.993	-0.332	0.029
-521.960	-200.000	-0.053	0.398
-520.945	-108.414	0.866	-0.187
-519.931	273.562	-0.126	0.224
-518.916	-200.000	0.086	-1.546
-517.902	-172.843	-0.345	0.011
-516.887	84.990	0.457	-0.502
-515.872	-200.000	-0.185	0.887
-514.858	568.835	-0.324	-0.789
-513.843	-32.085	0.407	-0.228
-512.829	377.973	0.612	1.254
-511.814	124.215	-0.214	0.270
-510.799	79.807	0.140	0.151
-509.785	54.492	-0.247	-0.238
-508.770	800.000	0.076	0.269
-507.756	0.533	1.036	0.742
-506.741	-175.071	-0.597	0.017
-505.726	800.000	0.291	-0.892
-504.712	-200.000	0.107	-0.557
-503.697	-141.700	-0.764	-0.077
-502.683	-105.894	-0.494	0.112
-501.668	-200.000	-0.009	-0.312
-500.653	-200.000	-0.020	-0.121
-499.639	800.000	0.127	0.500
-498.624	48.748	-0.705	-0.663
-497.610	-200.000	-0.091	-0.717
-496.595	-109.921	-0.403	-0.085
-495.581	111.614	-0.350	0.423
-494.566	19.599	-0.780	-0.629
-493.551	-200.000	-0.119	0.589
-492.537	-200.000	0.098	-0.531
-491.522	-117.309	0.556	0.101
-490.508	281.166	0.240	-0.430
-489.493	145.610	0.686	0.920
-488.478	-200.000	0.094	1.044
-487.464	502.040	-0.037	0.086
-486.449	204.303	-0.256	0.397
-485.435	800.000	0.270	0.761
-484.420	38.045	0.036	-0.032
-483.405	-200.000	0.048	0.649
-482.391	225.575	0.492	-0.798
-481.376	-91.268	0.722	-0.207
-480.362	-122.117	0.590	-0.097
-479.347	-200.000	0.056	0.489
-478.332	800.000	-0.379	-1.084
-477.318	92.715	0.193	0.218
-476.303	35.841	0.171	-0.150
-475.289	223.881	-0.385	0.622
-474.274	-9.514	0.236	0.158
-473.259	-200.000	-0.002	0.476
-472.245	129.648	-0.307	-0.393
-471.230	86.532	0.153	0.169
-470.216	800.000	-0.346	1.271
-469.201	138.453	0.345	0.453
-468.186	-59.692	0.513	0.220
-467.172	-200.000	-0.083	0.511
-466.157	-40.912	0.337	-0.174
-465.143	-200.000	-0.018	-0.085
-464.128	-200.000	-0.076	0.660
-463.113	-48.613	-0.220	0.106
-462.099	4.573	-0.997	-0.732
-461.084	162.444	-0.299	-0.419
-460.070	-124.350	0.875	0.137
-459.055	-200.000	0.143	0.000
-458.040	372.793	0.053	-0.107
-457.026	289.391	-0.250	0.454
-456.011	382.920	0.220	-0.452
-454.997	-101.460	0.086	-0.021
-453.982	-167.752	0.601	-0.024
-452.968	-116.511	0.672	-0.124
-451.953	-111.470	0.066	0.013
-450.938	98.011	0.242	-0.278
-449.924	492.145	-0.150	0.345
-448.909	474.485	-0.347	-0.783
-447.895	143.839	-0.054	-0.072
-446.880	-102.087	0.580	0.140
-445.865	-153.665	-0.497	0.034
-444.851	-178.831	0.376	0.009
-443.836	211.148	-0.591	-0.930
-442.822	-47.641	-0.518	0.251
-441.807	-149.460	0.281	-0.022
-440.792	-95.854	-0.463	0.124
-439.778	-86.357	-0.213	-0.065
-438.763	800.000	-0.137	-0.414
-437.749	-183.883	-0.716	0.012
-436.734	433.948	-0.323	-0.700
-435.719	-65.861	0.099	0.040
-434.705	118.485	-0.349	0.430
-433.690	-153.217	0.840	-0.059
-432.676	-154.239	-0.745	-0.050
-431.661	-200.000	0.003	-0.469
-430.646	-127.768	0.789	-0.114
-429.632	-156.803	-0.645	0.040
-428.617	-200.000	-0.008	-0.369
-427.603	0.379	0.361	0.258
-426.588	-29.954	-0.950	-0.541
-425.573	25.718	-0.520	0.432
-424.559	179.856	0.344	-0.504
-423.544	37.109	-0.292	0.258
-422.530	-45.984	0.152	0.075
-421.515	306.684	0.196	-0.364
-420.500	285.764	0.465	-0.838
-419.486	-96.075	-0.316	0.084
-418.471	-126.224	-0.308	0.046
-417.457	-19.519	0.764	-0.472
-416.442	-200.000	-0.058	-0.471
-415.428	800.000	0.168	0.723
-414.413	-140.660	-0.424	-0.044
-413.398	-200.000	-0.115	0.630
-412.384	-136.093	0.548	-0.064
-411.369	92.650	0.374	-0.421
-410.355	-200.000	0.083	-0.875
-409.340	6.474	0.619	0.459
-408.325	-149.442	-0.571	-0.045
-407.311	3.874	0.618	-0.451
-406.296	-200.000	0.073	0.582
-405.282	-200.000	0.028	-0.351
-404.267	-200.000	-0.031	0.146
-403.252	-92.632	0.310	-0.087
-402.238	1.512	-0.839	-0.603
-401.223	800.000	0.358	-1.009
-400.209	-200.000	0.023	-0.428
-399.194	-200.000	0.127	-1.000
-398.179	-200.000	0.057	0.460
-397.165	233.750	0.458	0.752
-396.150	6.461	0.237	0.176
-395.136	-88.834	0.609	0.180
-394.121	364.121	0.247	0.495
-393.106	144.015	-0.447	-0.594
-392.092	106.290	-0.527	-0.623
-391.077	-59.120	0.292	0.126
-390.063	-200.000	-0.068	-0.651
-389.048	329.939	0.350	-0.672
-388.033	-200.000	0.016	0.622
-387.019	119.080	-0.242	0.298
-386.004	-114.785	-1.160	-0.221
-384.990	-97.999	0.725	0.186
-383.975	160.235	0.149	0.208
-382.960	800.000	-0.281	-0.873
-381.946	-136.000	0.659	0.077
-380.931	-70.433	-0.671	-0.253
-379.917	178.245	-0.431	-0.627
-378.902	-200.000	-0.011	-0.096
-377.888	-136.986	-0.189	0.022
-376.873	-99.883	-0.756	0.188
-375.858	-200.000	-0.018	0.211
-374.844	203.251	0.414	-0.638
-373.829	-115.025	0.456	0.086
-372.815	-62.181	-0.736	-0.306
-371.800	-148.441	-0.295	-0.024
-370.785	800.000	0.069	0.230
-369.771	800.000	0.066	0.234
-368.756	-82.664	0.532	-0.172
-367.742	9.230	-0.171	0.129
-366.727	167.193	0.395	0.558
-365.712	166.594	0.084	0.118
-364.698	-200.000	0.058	0.552
-363.683	800.000	0.123	-0.417
-362.669	-9.862	-0.059	0.039
-361.654	-200.000	0.353	-0.001
-360.639	36.470	-0.512	-0.450
-359.625	-144.480	0.850	-0.078
-358.610	800.000	-0.214	0.653
-357.596	800.000	-0.053	0.193
-356.581	26.557	-0.803	-0.669
-355.566	-84.789	0.308	0.096
-354.552	-84.917	0.396	-0.124
-353.537	-83.779	-0.579	-0.184
-352.523	60.136	-0.378	-0.372
-351.508	-85.558	-0.296	0.092
-350.493	-112.878	0.988	0.195
-349.479	-48.940	0.208	0.099
-348.464	294.043	0.397	0.722
-347.450	142.887	0.416	-0.551
-346.435	-15.132	0.378	0.241
-345.420	-111.544	0.938	0.190
-344.406	-63.096	0.953	-0.392
-343.391	800.000	-0.237	-0.708
-342.377	28.831	-0.301	0.254
-341.362	-200.000	-0.044	-0.498
-340.348	94.075	-0.572	0.646
-339.333	-200.000	0.106	0.554
-338.318	129.393	0.249	0.317
-337.304	309.911	-0.157	-0.292
-336.289	-200.000	0.048	0.639
-335.275	-85.234	0.660	-0.205
-334.260	174.895	0.212	0.305
-333.245	-32.694	0.604	0.335
-332.231	76.689	0.492	0.519
-331.216	28.663	-0.278	-0.234
-330.202	-116.823	-0.182	0.033
-329.187	-200.000	0.045	0.691
-328.172	-200.000	-0.061	0.816
-327.158	-200.000	-0.103	-0.803
-326.143	-183.682	-0.860	0.015
-325.129	8.240	-0.405	0.303
-324.114	346.654	0.051	0.100
-323.099	-120.920	0.376	-0.063
-322.085	322.335	0.278	-0.527
-321.070	176.533	0.320	-0.463
-320.056	-200.000	0.085	0.857
-319.041	-200.000	-0.052	0.379
-318.026	-132.151	-0.918	-0.118
-317.012	800.000	0.068	0.263
-315.997	-165.932	-0.973	-0.041
-314.983	447.816	-0.290	0.634
-313.968	-200.000	0.000	-0.319
-312.953	-118.606	-0.545	0.096
-311.939	-37.055	-0.645	-0.344
-310.924	-200.000	0.021	0.401
-309.910	-200.000	-0.159	0.891
-308.895	-56.032	-0.637	0.282
-307.880	194.835	-0.257	0.389
-306.866	-68.078	-0.124	-0.048
-305.851	327.995	0.281	-0.537
-304.837	35.754	0.490	-0.428
-303.822	104.753	-0.175	-0.205
-302.807	606.257	0.237	0.588
-301.793	114.975	0.471	0.571
-300.778	-89.216	-0.695	-0.204
-299.764	22.558	0.568	0.462
-298.749	-200.000	0.049	-0.329
-297.735	-200.000	0.020	0.151
-296.720	128.401	0.305	0.385
-295.705	-200.000	0.046	-0.424
-294.691	432.496	-0.129	-0.278
-293.676	-73.319	0.427	-0.155
-292.662	11.389	-0.351	-0.267
-291.647	-54.017	-0.322	-0.146
-290.632	-200.000	0.114	-0.768
-289.618	800.000	0.192	-0.573
-288.603	230.921	-0.258	0.419
-287.589	-139.184	0.286	-0.031
-286.574	318.689	-0.337	-0.634
-285.559	-41.075	0.204	0.105
-284.545	180.769	-0.222	0.323
-283.530	33.590	0.145	0.125
-282.516	-78.167	-0.483	-0.165
-281.501	-162.084	1.211	-0.060
-280.486	27.563	0.202	-0.169
-279.472	247.109	-0.077	0.130
-278.457	106.924	0.505	0.595
-277.443	-66.008	-1.018	-0.404
-276.428	-16.103	-0.964	-0.609
-275.413	15.955	-0.215	-0.168
-274.399	-200.000	-0.027	-0.726
-273.384	601.019	0.196	-0.482
-272.370	47.097	-0.216	-0.200
-271.355	261.460	0.321	0.551
-270.340	-89.818	-0.780	-0.227
-269.326	-1.354	0.471	0.330
-268.311	-200.000	-0.085	0.846
-267.297	-185.170	-0.277	-0.004
-266.282	-25.039	0.477	-0.281
-265.267	-142.032	-0.523	-0.052
-264.253	-200.000	-0.133	0.624
-263.238	-200.000	0.014	0.210
-262.224	174.375	0.224	0.321
-261.209	174.330	0.381	0.546
-260.195	800.000	0.043	-0.159
-259.180	-200.000	-0.042	0.446
-258.165	-83.265	0.454	0.145
-257.151	-60.720	-0.557	0.234
-256.136	23.464	0.369	-0.301
-255.122	459.922	0.418	0.924
-254.107	19.875	-0.430	0.344
-253.092	51.972	0.553	0.523
-252.078	-191.871	0.564	-0.005
-251.063	-6.497	0.413	-0.279
-250.049	439.496	-0.400	0.866
-249.034	-116.250	-0.541	0.100
-248.019	27.107	-0.216	0.180
-247.005	-50.130	-0.548	-0.257
-245.990	590.261	0.197	0.481
-244.976	206.852	-0.176	0.272
-243.961	217.374	0.177	-0.280
-242.946	70.334	0.333	0.342
-241.932	-133.123	-0.101	0.013
-240.917	17.299	-0.864	0.680
-239.903	-102.317	0.318	-0.076
-238.888	-62.992	0.358	-0.147
-237.873	-200.000	0.036	0.523
-236.859	-107.553	-0.441	-0.096
-235.844	578.672	0.215	0.522
-234.830	-123.984	-0.675	0.105
-233.815	-200.000	-0.037	-0.357
-232.800	249.970	0.325	0.547
-231.786	-23.818	-0.244	0.145
-230.771	-191.598	0.411	-0.004
-229.757	-98.862	0.782	-0.197
-228.742	-200.000	-0.101	-0.526
-227.727	-125.710	0.768	0.115
-226.713	-7.262	-0.435	-0.292
-225.698	-62.455	0.424	-0.175
-224.684	276.538	-0.428	-0.754
-223.669	9.695	0.348	-0.262
-222.655	-119.111	-0.568	-0.098
-221.640	420.560	-0.185	0.393
-220.625	-200.000	0.044	0.469
-219.611	-76.118	0.328	0.115
-218.596	107.111	-0.277	0.327
-217.582	-161.648	0.294	0.015
-216.567	13.785	-0.227	0.175
-215.552	428.238	0.273	-0.585
-214.538	448.215	-0.357	-0.780
-213.523	-200.000	0.020	-0.231
-212.509	226.328	0.309	-0.496
-211.494	25.706	0.338	-0.278
-210.479	-200.000	-0.025	1.100
-209.465	800.000	-0.054	0.163
-208.450	-19.283	0.091	-0.056
-207.436	-200.000	-0.084	-0.687
-206.421	33.996	-0.425	0.367
-205.406	6.264	0.598	-0.439
-204.392	156.286	-0.258	-0.352
-203.377	-200.000	0.042	0.371
-202.363	19.783	0.391	-0.312
-201.348	80.604	0.576	-0.615
-200.333	32.747	0.390	0.334
-199.319	-200.000	0.032	0.631
-198.304	394.067	-0.321	-0.661
-197.290	148.370	-0.336	0.450
-196.275	800.000	0.085	0.238
-195.260	1.307	0.741	-0.527
-194.246	469.279	0.139	-0.309
-193.231	101.247	-0.505	0.582
-192.217	800.000	0.077	-0.217
-191.202	-200.000	0.049	-0.468
-190.187	-155.246	-0.472	0.030
-189.173	-124.908	0.694	0.106
-188.158	-200.000	-0.178	1.170
-187.144	-200.000	-0.035	0.182
-186.129	-15.527	-0.450	-0.285
-185.114	71.597	-0.237	0.244
-184.100	-41.526	0.858	0.437
-183.085	-48.218	0.320	0.153
-182.071	-200.000	-0.018	0.269
-181.056	-32.608	-0.519	-0.286
-180.042	800.000	0.162	0.649
-179.027	567.791	0.127	-0.306
-178.012	-150.666	0.553	-0.042
-176.998	23.218	0.052	0.042
-175.983	-76.294	-1.138	-0.397
-174.969	-14.131	-0.115	0.074
-173.954	123.448	-0.076	0.094
-172.939	-21.403	-0.312	-0.189
-171.925	366.088	-0.050	-0.100
-170.910	-200.000	0.070	-0.463
-169.896	-73.479	0.421	-0.152
-168.881	-154.434	-0.699	-0.046
-167.866	-36.856	-0.612	0.325
-166.852	319.124	0.277	0.520
-165.837	-200.000	0.046	0.864
-164.823	-200.000	-0.036	0.356
-163.808	-12.226	-0.354	0.229
-162.793	540.859	0.089	0.210
-161.779	599.392	0.180	0.442
-160.764	-171.533	-0.102	-0.003
-159.750	-25.893	0.617	-0.359
-158.735	-99.249	-0.721	0.180
-157.720	319.877	0.252	-0.472
-156.706	-147.870	-0.309	-0.026
-155.691	140.732	0.427	0.557
-154.677	690.025	-0.364	0.942
-153.662	-111.001	0.914	0.185
-152.647	9.392	1.150	0.860
-151.633	800.000	-0.033	-0.090
-150.618	121.993	0.158	-0.195
-149.604	-192.344	-0.746	0.007
-148.589	145.011	-0.416	0.550
-147.574	710.264	-0.083	-0.216
-146.560	-200.000	-0.057	-0.404
-145.545	377.396	-0.153	0.309
-144.531	205.503	-0.142	-0.218
-143.516	62.208	0.278	0.274
-142.502	-200.000	0.032	-0.806
-141.487	-36.273	0.575	0.306
-140.472	-83.118	-0.456	0.145
-139.458	52.192	0.245	-0.231
-138.443	-52.691	0.474	-0.216
-137.429	-3.583	-0.558	-0.383
-136.414	-22.929	-0.837	0.499
-135.399	-58.069	0.218	0.094
-134.385	-100.631	0.548	0.134
-133.370	351.663	-0.145	0.284
-132.356	-118.706	-1.060	0.185
-131.341	800.000	0.333	-1.014
-130.326	-176.598	0.712	-0.018
-129.312	517.122	0.263	-0.607
-128.297	240.596	0.278	-0.458
-127.283	-107.041	0.153	0.033
-126.268	56.227	0.562	-0.539
-125.253	-75.194	-0.244	-0.086
-124.239	20.083	0.565	0.450
-123.224	-56.676	0.455	0.199
-122.210	52.515	0.470	-0.443
-121.195	153.616	-0.495	0.670
-120.180	20.297	-0.624	0.497
-119.166	0.915	0.392	0.278
-118.151	-4.511	0.635	0.433
-117.137	-118.093	-0.420	0.074
-116.122	-200.000	0.024	-0.338
-115.107	330.710	-0.450	-0.856
-114.093	-200.000	-0.115	1.292
-113.078	-32.272	-0.268	-0.148
-112.064	-200.000	0.095	-0.483
-111.049	68.266	0.213	-0.215
-110.034	-149.736	-0.287	-0.022
-109.020	411.243	-0.346	0.724
-108.005	-52.916	-0.041	-0.019
-106.991	-132.449	-0.451	0.057
-105.976	39.022	0.794	0.700
-104.962	-29.879	0.725	-0.408
-103.947	-153.890	0.378	-0.026
-102.932	300.267	0.321	0.584
-101.918	20.117	-0.040	-0.032
-100.903	-200.000	0.025	-0.385
-99.889	105.522	-0.339	-0.395
-98.874	17.280	0.100	0.078
-97.859	-51.696	-0.882	0.405
-96.845	96.542	0.417	-0.471
-95.830	-85.174	0.730	0.225
-94.816	-132.322	0.223	0.028
-93.801	-93.915	0.267	-0.072
-92.786	182.970	-0.147	0.214
-91.772	4.613	-0.326	0.236
-90.757	32.969	-0.749	-0.640
-89.743	159.030	-0.284	0.389
-88.728	29.238	-0.512	0.428
-87.713	-4.222	-0.385	0.263
-86.699	800.000	-0.158	-0.574
-85.684	-200.000	0.170	-0.792
-84.670	-30.046	0.559	0.313
-83.655	616.032	-0.310	-0.767
-82.640	800.000	-0.179	-0.605
-81.626	-135.017	0.316	0.038
-80.611	-14.389	-0.223	0.141
-79.597	-86.427	0.342	0.104
-78.582	158.105	0.691	-0.944
-77.567	-48.003	0.915	-0.436
-76.553	-137.476	0.815	-0.091
-75.538	174.253	0.167	-0.238
-74.524	244.727	-0.651	-1.079
-73.509	-200.000	0.106	-1.225
-72.494	59.915	-0.209	-0.204
-71.480	-155.579	-0.204	-0.013
-70.465	-72.167	0.355	-0.130
-69.451	800.000	-0.194	-0.577
-68.436	-200.000	-0.009	0.126
-67.422	-81.641	0.257	-0.083
-66.407	-187.032	-0.800	0.011
-65.392	8.705	0.578	0.429
-64.378	51.637	0.685	-0.641
-63.363	-130.239	0.628	0.084
-62.349	204.083	-0.245	-0.374
-61.334	326.566	-0.959	-1.809
-60.319	-96.149	1.543	0.404
-59.305	189.430	-0.322	-0.476
-58.290	-200.000	0.078	0.976
-57.276	-200.000	0.117	1.994
-56.261	-200.000	96.471	580.397
-55.246	661.225	1359.639	3448.925
-54.232	203.203	2521.588	3838.414
-53.217	118.750	2124.831	2583.999
-52.203	44.531	1594.287	1442.265
-51.188	36.307	1335.214	1158.738
-50.173	33.186	1294.269	1104.958
-49.159	56.848	1343.429	1288.139
-48.144	57.997	1359.442	1310.258
-47.130	36.344	1317.422	1143.337
-46.115	33.075	1300.332	1109.307
-45.100	32.958	1296.372	1105.202
-44.086	32.595	1293.286	1100.407
-43.071	32.897	1289.906	1099.245
-42.057	32.702	1288.122	1096.545
-41.042	32.693	1287.138	1095.613
-40.027	32.715	1285.679	1094.454
-39.013	32.763	1283.047	1092.450
-37.998	32.556	1282.369	1090.631
-36.984	32.873	1280.316	1090.675
-35.969	32.966	1278.249	1089.408
-34.954	32.834	1276.503	1087.116
-33.940	33.077	1275.697	1087.787
-32.925	33.258	1273.150	1086.607
-31.911	33.097	1271.695	1084.402
-30.896	33.132	1270.840	1083.829
-29.881	32.721	1270.215	1080.897
-28.867	33.142	1268.041	1081.413
-27.852	33.136	1267.067	1080.504
-26.838	32.952	1264.718	1077.411
-25.823	32.826	1265.303	1077.149
-24.809	33.169	1262.418	1076.603
-23.794	32.924	1261.903	1074.722
-22.779	32.798	1260.317	1072.614
-21.765	32.672	1259.910	1071.509
-20.750	33.168	1257.009	1071.810
-19.736	32.716	1256.179	1068.503
-18.721	32.957	1256.008	1069.681
-17.706	32.727	1255.144	1067.600
-16.692	32.672	1254.114	1066.369
-15.677	32.784	1251.409	1064.661
-14.663	32.698	1250.765	1063.585
-13.648	32.735	1249.411	1062.598
-12.633	32.938	1248.669	1063.067
-11.619	32.763	1248.929	1062.261
-10.604	32.939	1246.186	1060.873
-9.590	32.682	1246.707	1059.834
-8.575	33.021	1244.700	1059.989
-7.560	32.873	1244.445	1058.899
-6.546	32.590	1243.963	1056.858
-5.531	32.827	1242.560	1056.951
-4.517	32.719	1241.681	1055.554
-3.502	32.840	1240.172	1054.910
-2.487	32.867	1239.973	1054.848
-1.473	32.763	1235.823	1050.698
-0.458	31.380	1220.537	1030.043
0.556	28.307	1202.743	989.737
1.571	24.874	1207.574	974.960
2.586	23.618	1222.263	979.806
3.600	23.085	1211.114	967.867
4.615	16.834	1139.810	878.499
5.629	7.310	1065.188	774.572
6.644	3.442	1044.547	740.933
7.659	2.901	1042.305	736.684
8.673	2.809	1040.177	734.672
9.688	2.770	1038.827	733.466
10.702	2.925	1037.737	733.375
11.717	9.209	1045.464	768.918
12.731	18.623	1059.002	824.245
13.746	23.737	1066.220	854.456
14.761	24.448	1066.160	857.751
15.775	24.320	1064.819	855.982
16.790	23.867	1064.416	853.407
17.804	24.077	1063.810	853.855
18.819	24.193	1063.440	854.038
19.834	24.163	1062.962	853.435
20.848	24.277	1061.972	853.110
21.863	23.888	1062.407	851.523
22.877	24.140	1060.613	851.213
23.892	24.010	1060.804	850.669
24.907	24.043	1059.502	849.710
25.921	23.838	1059.311	848.499
26.936	23.913	1056.623	846.631
27.950	24.131	1055.230	846.477
28.965	23.828	1054.564	844.426
29.980	23.656	1053.664	842.815
30.994	24.076	1053.139	844.315
32.009	23.987	1051.979	842.888
33.023	23.878	1051.037	841.540
34.038	24.045	1049.159	840.750
35.053	24.002	1048.286	839.776
36.067	23.682	1047.318	837.417
37.082	23.731	1047.120	837.415
38.096	24.026	1046.518	838.251
39.111	24.001	1046.693	838.198
40.126	23.790	1044.449	835.336
41.140	23.428	1043.229	832.587
42.155	23.669	1041.272	832.079
43.169	23.477	1041.167	831.020
44.184	23.593	1039.403	830.082
45.199	23.573	1038.620	829.291
46.213	23.530	1038.643	829.034
47.228	23.771	1038.399	829.893
48.242	24.003	1037.298	830.022
49.257	24.215	1036.438	830.247
50.271	24.330	1035.677	830.101
51.286	24.369	1034.675	829.404
52.301	23.928	1034.838	827.409
53.315	23.854	1033.845	826.198
54.330	23.894	1031.995	824.833
55.344	24.093	1031.430	825.230
56.359	24.143	1029.973	824.223
57.374	23.796	1029.217	821.941
58.388	23.804	1029.170	821.868
59.403	23.644	1027.768	819.936
60.417	23.793	1027.584	820.408
61.432	23.319	1027.150	817.797
62.447	23.855	1025.202	818.643
63.461	23.775	1024.563	817.694
64.476	23.481	1022.927	814.964
65.490	23.627	1022.656	815.348
66.505	23.705	1022.257	815.315
67.520	23.365	1022.545	813.911
68.534	23.392	1021.278	812.955
69.549	23.269	1020.478	811.684
70.563	23.219	1019.028	810.226
71.578	23.062	1018.318	808.873
72.593	22.663	1017.297	806.165
73.607	22.935	1016.762	806.916
74.622	23.345	1016.812	808.755
75.636	23.464	1015.535	808.209
76.651	23.370	1014.574	806.948
77.666	23.272	1014.021	805.989
78.680	23.034	1014.186	804.963
79.695	23.040	1013.638	804.486
80.709	23.498	1013.011	806.001
81.724	23.463	1012.490	805.353
82.739	23.426	1012.188	804.873
83.753	23.756	1011.718	805.928
84.768	24.328	1010.597	807.555
85.782	24.232	1010.920	807.307
86.797	24.394	1008.271	805.852
87.812	24.254	1008.216	805.105
88.826	24.340	1007.283	804.675
89.841	24.214	1006.461	803.379
90.855	24.243	1004.995	802.271
91.870	24.182	1005.226	802.105
92.884	24.271	1003.651	801.178
93.899	24.088	1002.396	799.287
94.914	24.604	1001.870	801.108
95.928	23.910	1000.986	797.220
96.943	23.891	1000.050	796.321
97.957	23.842	998.788	795.029
98.972	24.311	997.268	795.842
99.987	24.442	996.827	796.003
101.001	24.255	995.758	794.247
102.016	24.428	995.060	794.390
103.030	24.247	994.357	792.949
104.045	24.005	994.365	791.810
105.060	23.976	992.271	789.947
106.074	23.983	992.704	790.249
107.089	23.807	991.098	788.121
108.103	23.851	989.910	787.303
109.118	23.655	989.714	786.209
110.133	23.626	987.685	784.400
111.147	23.529	986.193	782.718
112.162	23.470	984.598	781.123
113.176	23.527	985.076	781.681
114.191	23.597	984.071	781.125
115.206	23.462	983.408	779.934
116.220	23.370	982.721	778.919
117.235	23.123	981.953	777.155
118.249	23.219	979.525	775.587
119.264	23.374	979.231	775.962
120.279	23.106	979.847	775.207
121.293	23.009	978.921	773.980
122.308	23.028	979.012	774.068
123.322	23.125	976.808	772.683
124.337	23.401	974.947	772.343
125.352	23.346	974.188	771.434
126.366	23.109	974.293	770.416
127.381	23.663	973.428	772.076
128.395	23.800	973.296	772.496
129.410	23.830	971.869	771.427
130.424	23.975	971.341	771.570
131.439	23.804	970.464	770.061
132.454	24.082	968.802	769.877
133.468	24.208	967.896	769.635
134.483	24.052	967.724	768.758
135.497	24.312	966.754	769.038
136.512	23.897	966.881	767.282
137.527	24.113	964.954	766.615
138.541	23.788	964.947	765.140
139.556	24.120	963.408	765.280
140.570	24.502	962.525	766.152
141.585	24.371	962.497	765.498
142.600	24.061	962.417	764.039
143.614	24.468	961.940	765.336
144.629	24.411	961.068	764.332
145.643	24.446	958.311	762.220
146.658	24.199	957.234	760.241
147.673	24.282	956.291	759.778
148.687	23.709	956.890	757.744
149.702	23.923	954.576	756.754
150.716	23.680	953.956	755.163
151.731	24.120	953.411	756.536
152.746	24.158	952.390	755.819
153.760	23.883	952.204	754.439
154.775	24.225	951.856	755.547
155.789	24.323	950.775	755.037
156.804	24.099	949.381	752.916
157.819	24.248	948.489	752.770
158.833	24.553	948.377	753.901
159.848	24.473	947.144	752.518
160.862	24.538	946.116	751.908
161.877	24.373	945.255	750.462
162.892	23.991	944.364	748.086
163.906	24.314	942.604	747.981
164.921	24.006	942.691	746.688
165.935	24.171	941.650	746.489
166.950	24.163	940.184	745.228
167.964	24.093	940.600	745.202
168.979	24.145	938.833	743.952
169.994	23.928	938.385	742.623
171.008	24.438	937.191	743.739
172.023	24.377	937.148	743.386
173.037	24.419	936.291	742.816
174.052	24.324	935.802	741.965
175.067	24.236	934.642	740.613
176.081	24.133	933.639	739.327
177.096	23.731	932.837	736.960
178.110	23.960	932.420	737.512
179.125	23.559	931.847	735.336
180.140	23.593	931.287	734.966
181.154	23.734	931.384	735.563
182.169	24.280	930.142	736.773
183.183	24.392	930.626	737.554
184.198	24.040	930.258	735.745
185.213	24.176	929.256	735.450
186.227	24.055	928.683	734.429
187.242	24.197	927.894	734.326
188.256	24.485	927.870	735.428
189.271	24.505	926.883	734.664
190.286	24.156	926.073	732.523
191.300	23.697	923.846	728.813
192.315	23.085	922.990	725.563
193.329	22.949	923.425	725.280
194.344	24.299	922.121	729.722
195.359	24.515	921.571	730.105
196.373	24.364	921.756	729.570
197.388	24.591	921.655	730.354
198.402	24.762	921.311	730.715
199.417	24.805	919.974	729.768
200.432	24.214	920.760	727.912
201.446	24.661	919.373	728.574
202.461	24.747	919.031	728.587
203.475	24.224	918.149	725.697
204.490	23.768	916.150	722.199
205.504	23.995	916.398	723.251
206.519	24.405	916.404	724.859
207.534	24.361	914.603	723.191
208.548	24.489	914.546	723.602
209.563	24.557	913.387	722.897
210.577	24.279	914.388	722.498
211.592	24.645	913.080	722.880
212.607	24.438	912.878	721.822
213.621	24.551	911.549	721.164
214.636	24.454	911.147	720.390
215.650	24.507	910.730	720.207
216.665	24.625	909.719	719.820
217.680	24.409	908.868	718.213
218.694	24.427	908.017	717.550
219.709	24.108	907.458	715.763
220.723	24.458	907.279	716.967
221.738	23.778	906.576	713.617
222.753	24.167	904.941	713.826
223.767	24.280	905.226	714.439
224.782	24.538	904.418	714.771
225.796	24.443	904.317	714.250
226.811	24.051	903.659	712.098
227.826	23.731	902.958	710.204
228.840	24.042	901.630	710.339
229.855	24.206	900.531	710.061
230.869	23.705	900.638	708.086
231.884	24.012	899.920	708.681
232.899	24.582	899.091	710.234
233.913	24.053	898.236	707.392
234.928	24.066	897.685	706.948
235.942	23.765	897.079	705.215
236.957	23.563	897.137	704.395
237.972	23.535	895.795	703.170
238.986	23.918	894.360	703.495
240.001	23.893	894.904	703.763
241.015	24.079	893.083	703.002
242.030	24.428	894.144	705.153
243.045	23.993	893.685	703.011
244.059	23.945	893.356	702.502
245.074	23.844	893.536	702.182
246.088	24.571	892.043	703.813
247.103	24.695	891.507	703.817
248.117	24.944	891.015	704.343
249.132	25.186	891.767	705.830
250.147	25.254	890.311	704.880
251.161	25.397	889.854	705.018
252.176	25.422	889.354	704.657
253.190	25.665	888.447	704.829
254.205	25.288	888.615	703.421
255.220	24.950	887.942	701.504
256.234	24.941	886.357	700.153
257.249	25.236	886.422	701.297
258.263	24.882	885.808	699.366
259.278	25.061	884.336	698.838
260.293	25.165	884.212	699.087
261.307	25.202	883.846	698.877
262.322	25.353	882.881	698.639
263.336	25.101	882.115	696.994
264.351	24.705	880.357	694.008
265.366	24.611	881.375	694.382
266.380	25.182	881.118	696.337
267.395	25.254	880.753	696.265
268.409	25.170	879.323	694.748
269.424	24.876	878.959	693.261
270.439	25.070	878.004	693.196
271.453	24.824	876.630	691.098
272.468	24.564	876.922	690.265
273.482	25.373	876.736	693.182
274.497	24.829	875.595	690.120
275.512	25.065	875.427	690.838
276.526	24.901	874.661	689.539
277.541	25.588	873.319	691.061
278.555	25.514	873.616	690.948
279.570	25.377	873.150	689.995
280.585	25.341	871.865	688.778
281.599	25.019	871.650	687.313
282.614	24.896	869.444	685.044
283.628	24.726	869.687	684.521
284.643	25.050	868.806	685.008
285.657	24.755	868.718	683.749
286.672	25.036	867.309	683.652
287.687	24.906	867.075	682.910
288.701	24.686	866.839	681.825
289.716	25.172	865.976	682.937
290.730	24.966	865.493	681.715
291.745	24.916	865.850	681.742
292.760	25.150	864.792	681.740
293.774	25.385	864.367	682.237
294.789	25.454	863.585	681.823
295.803	25.498	863.453	681.823
296.818	25.477	862.078	680.600
297.833	25.350	861.072	679.264
298.847	24.963	861.827	678.335
299.862	25.191	860.524	678.109
300.876	25.258	860.734	678.470
301.891	25.463	859.910	678.535
302.906	25.578	859.688	678.734
303.920	25.441	858.854	677.496
304.935	25.638	859.165	678.424
305.949	25.728	857.950	677.745
306.964	24.989	857.581	674.611
307.979	25.435	855.944	674.941
308.993	25.416	856.097	674.928
310.008	25.317	856.278	674.641
311.022	25.502	854.772	674.088
312.037	24.860	854.538	671.436
313.052	25.088	853.038	671.050
314.066	24.373	852.603	667.973
315.081	24.875	851.484	668.915
316.095	24.729	851.655	668.445
317.110	24.714	851.061	667.863
318.125	25.025	849.972	668.110
319.139	24.118	849.775	664.512
320.154	24.184	849.330	664.352
321.168	24.308	849.141	664.606
322.183	24.645	849.099	665.772
323.197	24.842	848.329	665.842
324.212	24.772	847.653	664.991
325.227	24.685	846.593	663.779
326.241	24.699	845.855	663.193
327.256	24.749	845.313	662.895
328.270	24.332	844.642	660.766
329.285	24.810	844.248	662.169
330.300	24.434	843.933	660.472
331.314	24.636	843.204	660.589
332.329	25.219	842.819	662.382
333.343	24.745	842.920	660.654
334.358	25.144	842.553	661.779
335.373	25.303	841.724	661.658
336.387	25.385	841.746	661.918
337.402	25.323	841.874	661.732
338.416	25.870	841.650	663.511
339.431	25.380	842.134	662.028
340.446	25.590	841.268	662.059
341.460	25.841	840.222	662.103
342.475	26.124	839.834	662.778
343.489	25.576	839.980	660.822
344.504	26.372	838.401	662.437
345.519	26.001	839.510	661.895
346.533	25.866	838.061	660.198
347.548	25.460	837.869	658.502
348.562	25.618	837.511	658.739
349.577	25.701	836.908	658.512
350.592	25.514	835.256	656.469
351.606	25.431	834.563	655.565
352.621	25.729	834.520	656.559
353.635	25.964	832.826	656.024
354.650	25.668	831.075	653.512
355.665	25.267	831.103	652.021
356.679	25.348	831.063	652.224
357.694	25.415	831.080	652.424
358.708	25.147	829.342	650.029
359.723	25.126	829.401	649.942
360.738	25.028	829.100	649.297
361.752	25.777	828.285	651.308
362.767	25.748	828.542	651.348
363.781	25.808	828.007	651.089
364.796	26.189	827.005	651.619
365.810	26.153	827.081	651.489
366.825	26.035	827.161	651.070
367.840	26.307	825.641	650.793
368.854	25.696	825.183	648.178
369.869	25.483	825.229	647.388
370.883	25.647	824.541	647.381
371.898	26.119	823.901	648.518
372.913	26.014	823.819	648.021
373.927	25.636	822.981	645.947
374.942	25.857	823.025	646.717
375.956	26.118	822.377	647.086
376.971	25.767	822.217	645.643
377.986	25.945	821.443	645.616
379.000	25.987	821.162	645.489
380.015	25.856	820.592	644.514
381.029	25.957	819.946	644.313
382.044	25.885	820.203	644.200
383.059	26.470	818.207	644.659
384.073	26.301	817.639	643.552
385.088	25.701	817.428	641.193
386.102	25.784	815.595	639.995
387.117	25.479	816.350	639.445
388.132	25.242	815.555	637.923
389.146	25.699	813.950	638.232
390.161	26.044	814.511	639.838
391.175	26.356	813.463	640.063
392.190	25.936	813.658	638.673
393.205	25.341	812.460	635.571
394.219	24.824	811.920	633.263
395.234	24.783	810.563	632.005
396.248	25.033	811.301	633.406
397.263	25.460	811.090	634.695
398.278	24.916	810.473	632.237
399.292	24.882	809.727	631.478
400.307	24.871	809.584	631.271
401.321	24.757	809.505	630.752
402.336	25.376	808.892	632.400
403.350	25.542	809.163	633.141
404.365	25.999	808.585	634.240
405.380	26.415	807.771	635.005
406.394	26.806	807.901	636.426
407.409	26.307	807.906	634.620
408.423	26.405	807.525	634.610
409.438	26.476	806.575	634.053
410.453	26.341	805.197	632.444
411.467	26.157	805.077	631.650
412.482	26.178	805.252	631.805
413.496	26.173	804.246	630.943
414.511	26.267	803.968	630.997
415.526	26.290	803.101	630.339
416.540	26.063	803.590	629.876
417.555	26.384	802.671	630.218
418.569	26.419	802.473	630.131
419.584	26.243	801.837	628.962
420.599	26.359	802.234	629.621
421.613	159.569	1371.349	1792.217
422.628	138.531	1454.252	1792.228
