DTS Sentinel unit serial number:	SN413079Multiplexer serial number:	ORYXHardware model number:	OX4-SRSoftware version number:	ORYX F/W v4.00 Oryx Data Collector v3.7.2.0data status	okinstallation	princeton_trtdifferential loss correction	single-endedforward channel	channel 1reverse channel	N/Adate	2019/09/12time	05:48:11forward acquisition time	60.00reverse acquisition time	0.00gamma	496.2192k internal	0.2321k external	0.2321temperature offset calibration	1.0046default loss term (dB/km)	0.3790temperature slope calibration	1.0000multiplexer offset coefficient	1.0000multiplexer slope coefficient	1.0000fibre end	0.00T internal ref (°C)	32.03T ext. ref 1 (°C)	1.57T ext. ref 2 (°C)	27.52length (m)	temperature (°C)	Stokes	anti-Stokes-747.200	800.000	0.092	0.268
-746.185	163.459	-0.150	0.214
-745.171	426.398	0.122	0.265
-744.156	10.612	-0.328	0.253
-743.142	-96.078	0.107	0.029
-742.127	-200.000	-0.023	0.249
-741.112	-143.243	0.029	0.003
-740.098	529.104	0.140	0.334
-739.083	-113.708	-0.044	0.009
-738.069	-200.000	0.045	0.219
-737.054	258.998	-0.117	0.205
-736.039	-2.212	-0.353	-0.251
-735.025	55.472	0.174	0.170
-734.010	-13.531	0.254	-0.166
-732.996	-47.998	0.086	-0.042
-731.981	185.702	-0.238	0.357
-730.966	-78.613	-0.328	0.113
-729.952	-200.000	-0.027	0.181
-728.937	-44.405	-0.157	-0.079
-727.923	-139.220	-0.140	0.015
-726.908	-17.245	0.261	-0.166
-725.894	-37.945	0.216	-0.116
-724.879	-36.492	-0.215	0.117
-723.864	-72.839	-0.211	-0.079
-722.850	-58.591	0.088	-0.038
-721.835	362.438	-0.090	-0.183
-720.821	98.832	-0.029	0.033
-719.806	-200.000	0.012	-0.329
-718.791	-200.000	0.013	-0.140
-717.777	77.586	0.073	-0.079
-716.762	37.100	-0.116	0.104
-715.748	95.371	0.070	-0.080
-714.733	800.000	-0.053	0.228
-713.718	-48.805	0.109	-0.053
-712.704	-200.000	0.017	-0.116
-711.689	-31.006	-0.184	-0.105
-710.675	30.820	0.185	0.160
-709.660	88.700	0.210	0.235
-708.645	-59.110	-0.144	0.063
-707.631	-200.000	0.052	0.268
-706.616	-200.000	-0.005	-0.145
-705.602	-25.592	0.352	0.210
-704.587	-36.984	0.215	-0.116
-703.572	-27.370	-0.197	0.116
-702.558	197.908	0.023	0.036
-701.543	-181.098	-0.302	0.006
-700.529	188.169	0.066	0.099
-699.514	-200.000	-0.010	0.075
-698.499	-200.000	-0.017	0.165
-697.485	-45.723	0.392	-0.196
-696.470	-1.743	-0.155	-0.110
-695.456	-162.237	-0.189	0.010
-694.441	-143.680	0.093	-0.009
-693.426	372.932	0.033	-0.068
-692.412	160.159	0.201	0.283
-691.397	-124.572	-0.194	-0.030
-690.383	800.000	0.070	-0.198
-689.368	-200.000	0.019	0.291
-688.354	-0.534	0.222	0.159
-687.339	200.207	0.005	-0.008
-686.324	-176.649	-0.252	-0.007
-685.310	-109.245	-0.196	-0.042
-684.295	123.321	-0.082	0.104
-683.281	-62.495	-0.187	-0.079
-682.266	250.026	-0.199	-0.341
-681.251	-41.638	0.083	0.043
-680.237	-146.481	0.192	-0.017
-679.222	95.474	-0.195	-0.224
-678.208	-174.277	-0.413	0.012
-677.193	233.099	-0.061	-0.102
-676.178	-192.763	-0.126	-0.001
-675.164	67.311	0.136	-0.140
-674.149	-20.452	-0.040	0.025
-673.135	-137.467	0.146	0.017
-672.120	284.357	-0.033	-0.059
-671.105	-22.823	-0.044	0.027
-670.091	337.379	-0.045	0.089
-669.076	-13.637	0.210	0.137
-668.062	-98.124	0.216	0.056
-667.047	-200.000	0.014	0.311
-666.032	-200.000	0.029	0.276
-665.018	21.802	0.167	0.137
-664.003	12.241	0.577	-0.448
-662.989	-200.000	0.052	0.318
-661.974	222.362	-0.055	-0.088
-660.959	-59.920	-0.012	-0.005
-659.945	160.102	-0.117	-0.164
-658.930	-155.615	0.419	-0.027
-657.916	-14.558	-0.201	-0.130
-656.901	101.400	-0.331	-0.388
-655.886	-42.884	0.508	0.260
-654.872	-104.673	-0.421	0.098
-653.857	30.704	-0.234	0.202
-652.843	-111.160	0.134	0.028
-651.828	263.952	-0.174	-0.305
-650.814	32.779	0.199	0.173
-649.799	4.449	0.216	-0.159
-648.784	-200.000	0.000	0.136
-647.770	119.415	0.177	0.220
-646.755	-72.195	-0.147	-0.055
-645.741	-23.466	-0.169	0.102
-644.726	-14.618	0.431	-0.279
-643.711	57.852	-0.330	-0.325
-642.697	613.420	-0.128	0.323
-641.682	-200.000	-0.025	-0.544
-640.668	11.183	0.114	0.088
-639.653	113.817	0.166	0.203
-638.638	24.547	-0.090	-0.075
-637.624	18.598	0.254	-0.204
-636.609	800.000	-0.077	-0.261
-635.595	-120.504	-0.450	0.077
-634.580	-200.000	-0.024	-0.245
-633.565	-91.401	0.432	0.124
-632.551	800.000	0.100	-0.332
-631.536	-200.000	-0.013	0.193
-630.522	-200.000	-0.038	0.299
-629.507	-145.116	-0.011	-0.001
-628.492	37.463	-0.216	0.192
-627.478	800.000	-0.032	0.088
-626.463	-161.596	-0.394	-0.020
-625.449	209.157	-0.142	-0.224
-624.434	-52.817	0.339	-0.157
-623.419	-95.793	-0.210	-0.057
-622.405	45.258	-0.054	-0.050
-621.390	66.312	-0.253	-0.259
-620.376	-57.584	0.099	0.044
-619.361	-3.659	-0.215	0.150
-618.346	340.776	0.061	0.120
-617.332	-130.895	0.166	-0.022
-616.317	287.922	-0.097	0.176
-615.303	111.209	0.163	-0.198
-614.288	10.805	-0.295	-0.227
-613.273	-16.756	0.234	-0.149
-612.259	370.551	0.186	0.379
-611.244	-200.000	0.041	0.300
-610.230	25.835	0.169	-0.141
-609.215	539.902	-0.040	-0.095
-608.201	130.249	0.209	-0.269
-607.186	4.677	-0.190	-0.140
-606.171	99.357	0.134	-0.156
-605.157	-200.000	0.027	-0.255
-604.142	117.720	0.235	-0.291
-603.128	-166.620	0.114	0.005
-602.113	-200.000	0.011	-0.227
-601.098	-120.716	0.100	-0.017
-600.084	-41.063	-0.204	-0.106
-599.069	-172.048	0.642	-0.021
-598.055	697.927	-0.124	0.327
-597.040	-200.000	0.006	-0.081
-596.025	-200.000	-0.046	-0.256
-595.011	238.281	0.125	-0.209
-593.996	-60.750	-0.193	0.082
-592.982	-73.340	-0.087	0.032
-591.967	-30.438	-0.267	-0.152
-590.952	-200.000	0.000	0.130
-589.938	-200.000	0.013	0.180
-588.923	139.337	-0.057	-0.075
-587.909	172.101	-0.082	0.119
-586.894	-85.673	0.191	-0.060
-585.879	366.641	-0.103	-0.208
-584.865	800.000	0.108	-0.346
-583.850	124.876	-0.134	0.169
-582.836	473.685	-0.094	0.213
-581.821	138.166	-0.129	-0.169
-580.806	-50.387	-0.188	0.089
-579.792	-26.115	0.241	0.143
-578.777	-66.370	-0.352	0.141
-577.763	-48.580	-0.018	-0.009
-576.748	303.603	0.148	-0.275
-575.733	321.209	0.213	0.406
-574.719	800.000	0.041	-0.153
-573.704	266.644	0.169	-0.296
-572.690	-200.000	-0.035	-0.235
-571.675	69.332	-0.281	0.290
-570.661	98.600	-0.117	0.136
-569.646	-144.415	0.062	0.006
-568.631	-102.597	-0.273	-0.065
-567.617	127.290	-0.191	-0.243
-566.602	-168.033	0.219	-0.009
-565.588	800.000	0.101	0.284
-564.573	-200.000	-0.028	0.126
-563.558	800.000	0.031	-0.093
-562.544	27.477	-0.185	-0.156
-561.529	-64.065	-0.281	0.115
-560.515	-35.842	-0.146	-0.079
-559.500	-200.000	0.046	-0.237
-558.485	168.337	-0.082	0.118
-557.471	800.000	0.062	-0.219
-556.456	190.168	-0.084	-0.126
-555.442	-200.000	-0.068	0.355
-554.427	189.433	0.297	0.446
-553.412	411.760	-0.143	0.305
-552.398	-200.000	0.011	-0.220
-551.383	-66.906	0.333	-0.132
-550.369	-200.000	-0.059	-0.346
-549.354	-200.000	-0.029	0.440
-548.339	-181.346	0.197	0.004
-547.325	7.226	0.150	-0.112
-546.310	161.619	0.177	0.249
-545.296	137.788	0.131	0.172
-544.281	42.403	-0.172	0.157
-543.266	13.058	0.038	0.029
-542.252	-168.928	0.106	-0.004
-541.237	-200.000	-0.008	-0.490
-540.223	800.000	0.021	-0.064
-539.208	-41.675	0.218	0.112
-538.193	-134.853	-0.170	-0.021
-537.179	267.421	-0.127	0.223
-536.164	72.539	0.221	-0.231
-535.150	-200.000	0.008	-0.106
-534.135	453.314	0.015	0.033
-533.121	-0.734	0.178	0.126
-532.106	-6.637	0.159	0.109
-531.091	-200.000	-0.047	-0.231
-530.077	800.000	-0.117	0.353
-529.062	122.253	0.049	0.061
-528.048	-106.658	-0.258	0.057
-527.033	285.837	-0.203	-0.366
-526.018	64.093	0.044	0.045
-525.004	-138.944	0.360	-0.039
-523.989	-200.000	0.042	0.478
-522.975	94.205	-0.252	0.287
-521.960	-112.446	-0.077	-0.015
-520.945	76.375	0.056	0.059
-519.931	-200.000	-0.048	-0.248
-518.916	-126.040	-0.044	0.007
-517.902	85.723	-0.033	0.037
-516.887	-22.768	-0.061	-0.037
-515.872	468.322	0.107	-0.240
-514.858	64.608	0.090	0.091
-513.843	-81.952	-0.275	-0.090
-512.829	230.581	-0.050	0.082
-511.814	234.240	0.069	-0.113
-510.799	312.238	-0.179	0.337
-509.785	-200.000	-0.017	0.376
-508.770	200.852	0.127	-0.195
-507.756	-49.075	0.011	-0.005
-506.741	63.668	-0.021	-0.021
-505.726	-126.587	-0.135	-0.020
-504.712	55.804	0.183	0.177
-503.697	-179.093	-0.442	-0.010
-502.683	37.310	-0.078	0.069
-501.668	-36.290	0.116	0.063
-500.653	-171.490	-0.272	-0.009
-499.639	352.520	0.215	-0.426
-498.624	-200.000	-0.007	-0.158
-497.610	800.000	-0.037	-0.125
-496.595	-86.991	-0.069	0.021
-495.581	-200.000	0.048	0.269
-494.566	-48.616	-0.270	-0.130
-493.551	-111.219	-0.390	0.080
-492.537	-181.392	-0.317	-0.006
-491.522	-82.675	0.205	-0.066
-490.508	87.662	-0.086	-0.095
-489.493	298.616	-0.221	-0.406
-488.478	-170.725	-0.469	-0.016
-487.464	130.964	-0.125	-0.161
-486.449	17.461	0.038	0.030
-485.435	178.194	0.172	-0.251
-484.420	7.148	0.214	0.160
-483.405	-33.891	-0.161	0.089
-482.391	93.850	0.227	-0.257
-481.376	2.320	0.056	-0.041
-480.362	-200.000	0.023	0.118
-479.347	-200.000	-0.017	-0.211
-478.332	800.000	-0.091	-0.300
-477.318	21.103	-0.261	-0.212
-476.303	265.083	0.097	-0.169
-475.289	-23.447	0.174	-0.105
-474.274	800.000	0.060	0.203
-473.259	-13.286	-0.123	0.080
-472.245	-131.873	0.175	-0.023
-471.230	-68.864	0.324	-0.125
-470.216	157.005	-0.121	-0.167
-469.201	-200.000	0.008	0.121
-468.186	-200.000	0.040	-0.203
-467.172	-200.000	0.056	-0.304
-466.157	142.557	0.071	-0.094
-465.143	-70.132	-0.304	0.116
-464.128	-132.678	-0.103	0.013
-463.113	123.325	0.213	-0.267
-462.099	-31.260	0.389	0.219
-461.084	-200.000	-0.019	0.175
-460.070	-13.246	0.251	-0.163
-459.055	-200.000	-0.006	0.459
-458.040	-20.078	0.157	0.097
-457.026	800.000	0.094	0.340
-456.011	-3.320	-0.217	0.151
-454.997	326.935	0.147	-0.282
-453.982	366.702	0.074	0.150
-452.968	455.380	0.054	-0.119
-451.953	-19.014	0.233	-0.145
-450.938	139.877	0.089	-0.118
-449.924	-73.843	0.076	-0.028
-448.909	-70.751	0.094	-0.036
-447.895	-200.000	-0.006	0.085
-446.880	387.831	-0.049	-0.102
-445.865	2.787	0.141	0.102
-444.851	-43.317	-0.059	-0.030
-443.836	37.368	-0.200	-0.177
-442.822	271.679	0.236	-0.415
-441.807	86.270	0.059	-0.065
-440.792	-200.000	-0.092	0.422
-439.778	21.016	-0.202	0.164
-438.763	-25.083	-0.265	0.157
-437.749	-200.000	0.030	-0.390
-436.734	231.736	0.150	0.245
-435.719	126.439	-0.111	0.140
-434.705	37.304	0.279	0.247
-433.690	-96.132	0.295	0.078
-432.676	157.339	0.142	-0.197
-431.661	133.287	0.143	0.185
-430.646	275.463	-0.090	-0.159
-429.632	98.091	0.091	0.104
-428.617	48.094	0.194	-0.181
-427.603	-200.000	-0.004	0.075
-426.588	31.588	-0.241	0.207
-425.573	800.000	0.035	0.115
-424.559	432.145	-0.138	-0.299
-423.544	578.957	0.134	-0.328
-422.530	238.764	0.140	0.232
-421.515	-200.000	-0.036	-0.224
-420.500	24.794	-0.091	-0.075
-419.486	-166.937	-0.414	0.017
-418.471	-200.000	-0.001	0.129
-417.457	-34.989	0.339	0.185
-416.442	135.203	0.101	-0.131
-415.428	544.961	0.057	0.135
-414.413	-200.000	-0.065	0.342
-413.398	-200.000	0.028	-0.377
-412.384	-24.502	0.440	0.261
-411.369	-200.000	0.003	-0.284
-410.355	128.625	-0.346	-0.440
-409.340	128.072	0.036	0.046
-408.325	494.065	0.095	-0.216
-407.311	-200.000	0.001	0.255
-406.296	-128.455	0.020	-0.003
-405.282	-41.195	0.228	-0.117
-404.267	800.000	-0.055	0.174
-403.252	-29.573	-0.084	-0.048
-402.238	-200.000	-0.110	-0.673
-401.223	-42.272	-0.178	-0.091
-400.209	-83.757	-0.322	0.102
-399.194	-15.167	0.193	0.123
-398.179	137.478	-0.246	-0.321
-397.165	167.096	-0.115	-0.163
-396.150	-83.241	0.315	-0.101
-395.136	-121.363	-0.235	-0.039
-394.121	-200.000	0.001	-0.053
-393.106	-62.406	0.141	-0.058
-392.092	-94.614	0.159	0.043
-391.077	44.574	-0.011	-0.010
-390.063	-140.923	0.346	-0.035
-389.048	10.467	-0.084	-0.064
-388.033	30.221	-0.283	0.241
-387.019	-200.000	-0.014	-0.289
-386.004	-200.000	0.035	-0.457
-384.990	-44.032	-0.262	0.131
-383.975	-200.000	0.010	-0.117
-382.960	-89.694	-0.122	0.036
-381.946	-19.261	-0.179	0.111
-380.931	45.636	0.272	-0.250
-379.917	-200.000	0.002	0.301
-378.902	36.177	-0.145	0.127
-377.888	-55.408	0.052	-0.023
-376.873	-65.939	0.289	0.115
-375.858	-165.373	-0.366	-0.016
-374.844	-125.383	-0.348	0.053
-373.829	-200.000	-0.011	-0.204
-372.815	-66.121	0.075	-0.030
-371.800	-200.000	0.027	0.133
-370.785	-59.714	-0.200	-0.085
-369.771	-200.000	0.007	-0.128
-368.756	35.841	0.042	0.037
-367.742	-172.998	0.187	-0.006
-366.727	-115.158	0.219	-0.041
-365.712	63.570	-0.095	0.095
-364.698	116.888	-0.176	0.216
-363.683	24.924	0.052	-0.043
-362.669	167.694	0.009	-0.013
-361.654	-126.935	-0.277	-0.041
-360.639	-200.000	0.046	0.204
-359.625	37.235	-0.184	0.162
-358.610	149.391	-0.084	0.113
-357.596	456.316	-0.113	-0.249
-356.581	-200.000	0.038	-0.204
-355.566	141.751	-0.338	0.446
-354.552	800.000	0.013	-0.049
-353.537	-113.251	-0.376	0.074
-352.523	800.000	-0.077	0.278
-351.508	-168.773	0.048	0.002
-350.493	33.644	-0.232	-0.201
-349.479	120.175	-0.235	-0.290
-348.464	-28.749	-0.115	0.066
-347.450	160.218	0.112	-0.156
-346.435	644.495	0.041	-0.104
-345.420	444.040	-0.141	-0.308
-344.406	-200.000	-0.020	0.222
-343.391	-157.692	0.143	0.008
-342.377	103.746	-0.224	-0.262
-341.362	336.585	0.119	0.230
-340.348	-36.587	-0.206	0.110
-339.333	-73.438	-0.188	0.068
-338.318	586.357	0.140	0.344
-337.304	-200.000	0.013	-0.239
-336.289	211.528	0.057	-0.089
-335.275	800.000	-0.036	-0.152
-334.260	155.156	-0.358	-0.489
-333.245	-163.948	0.121	-0.006
-332.231	239.784	0.153	0.254
-331.216	-200.000	0.009	-0.311
-330.202	321.633	-0.098	-0.186
-329.187	197.865	0.260	0.395
-328.172	265.845	-0.055	-0.096
-327.158	124.101	-0.083	0.103
-326.143	431.673	0.096	-0.207
-325.129	135.251	-0.090	0.117
-324.114	283.922	-0.084	-0.149
-323.099	681.032	0.108	-0.279
-322.085	702.073	-0.072	0.187
-321.070	800.000	-0.092	-0.255
-320.056	671.599	0.097	-0.249
-319.041	-200.000	-0.004	0.163
-318.026	13.099	0.218	-0.168
-317.012	56.520	0.381	-0.369
-315.997	601.936	-0.149	0.368
-314.983	-40.832	0.248	0.128
-313.968	92.985	-0.096	0.108
-312.953	-109.520	-0.317	0.067
-311.939	-177.468	-0.323	-0.008
-310.924	-81.506	-0.083	0.027
-309.910	-38.996	-0.176	0.092
-308.895	-200.000	0.071	0.525
-307.880	727.349	-0.095	-0.253
-306.866	-66.843	0.158	0.062
-305.851	-8.476	0.092	-0.061
-304.837	-11.980	0.189	-0.123
-303.822	-50.357	0.396	0.186
-302.807	800.000	0.022	0.088
-301.793	800.000	-0.081	0.248
-300.778	44.308	-0.024	0.022
-299.764	-102.334	0.394	0.094
-298.749	800.000	-0.045	0.133
-297.735	800.000	0.072	0.259
-296.720	-200.000	0.014	-0.201
-295.705	-15.351	0.084	-0.053
-294.691	107.264	0.111	-0.131
-293.676	-128.502	0.114	0.016
-292.662	-200.000	-0.015	-0.085
-291.647	359.387	-0.258	-0.513
-290.632	212.658	0.029	0.046
-289.618	129.419	-0.228	0.289
-288.603	800.000	0.122	0.377
-287.589	6.523	-0.082	-0.061
-286.574	22.739	0.246	-0.200
-285.559	800.000	-0.094	-0.283
-284.545	488.162	-0.025	-0.056
-283.530	-200.000	-0.070	-0.330
-282.516	469.918	0.020	-0.044
-281.501	89.641	0.148	0.163
-280.486	111.925	0.100	0.119
-279.472	-143.916	0.092	-0.009
-278.457	-200.000	0.020	0.136
-277.443	-66.431	0.354	-0.140
-276.428	-23.782	-0.197	0.117
-275.413	200.952	0.089	-0.136
-274.399	-109.411	0.209	0.044
-273.384	-200.000	-0.003	0.110
-272.370	-62.169	0.368	0.152
-271.355	303.254	-0.050	0.092
-270.340	104.897	-0.067	-0.078
-269.326	-25.433	0.106	-0.062
-268.311	258.321	-0.177	0.302
-267.297	800.000	-0.066	0.250
-266.282	-200.000	0.060	-0.278
-265.267	-200.000	0.042	0.278
-264.253	-128.319	-0.191	-0.027
-263.238	-25.992	0.094	0.055
-262.224	-200.000	0.044	0.207
-261.209	54.528	0.094	0.090
-260.195	800.000	-0.079	0.231
-259.180	590.880	0.050	0.121
-258.165	57.424	0.306	0.296
-257.151	81.448	0.189	0.203
-256.136	-58.843	-0.069	0.030
-255.122	-200.000	-0.017	0.248
-254.107	-22.058	-0.187	0.112
-253.092	17.639	0.400	0.316
-252.078	41.834	0.299	-0.269
-251.063	-56.919	-0.282	0.124
-250.049	-200.000	0.036	-0.184
-249.034	800.000	0.027	-0.087
-248.019	-200.000	0.036	0.201
-247.005	11.225	0.253	0.192
-245.990	23.279	0.158	0.129
-244.976	77.723	-0.150	-0.159
-243.961	359.585	-0.102	-0.202
-242.946	800.000	0.065	0.197
-241.932	118.512	-0.212	0.260
-240.917	800.000	-0.096	0.289
-239.903	313.041	0.085	-0.158
-238.888	-57.139	0.166	-0.073
-237.873	540.343	-0.044	0.104
-236.859	-200.000	0.028	-0.336
-235.844	800.000	-0.039	-0.126
-234.830	48.604	-0.059	-0.055
-233.815	800.000	0.025	-0.072
-232.800	-138.027	0.209	0.023
-231.786	-86.501	0.463	-0.141
-230.771	-65.835	0.155	-0.062
-229.757	30.217	-0.320	0.270
-228.742	800.000	-0.019	-0.077
-227.727	-127.251	0.180	0.026
-226.713	790.120	-0.034	-0.094
-225.698	-200.000	-0.009	0.078
-224.684	14.182	0.123	0.095
-223.669	-4.257	0.416	0.285
-222.655	800.000	0.076	-0.259
-221.640	27.430	-0.147	0.122
-220.625	-200.000	0.020	-0.153
-219.611	684.131	0.124	0.321
-218.596	327.444	-0.021	0.040
-217.582	-8.124	0.090	-0.060
-216.567	400.144	-0.054	0.112
-215.552	-15.094	-0.174	0.110
-214.538	433.960	-0.125	0.268
-213.523	-200.000	0.001	0.151
-212.509	-200.000	0.066	0.385
-211.494	-200.000	-0.033	0.385
-210.479	-200.000	0.083	0.472
-209.465	-200.000	0.028	0.226
-208.450	263.639	-0.195	0.335
-207.436	210.845	-0.159	0.247
-206.421	800.000	0.063	0.257
-205.406	-55.055	0.368	0.164
-204.392	-65.338	0.255	-0.101
-203.377	-87.010	-0.187	-0.056
-202.363	-149.955	-0.405	-0.031
-201.348	302.784	-0.130	0.239
-200.333	-5.161	0.251	0.171
-199.319	12.468	0.221	-0.169
-198.304	-126.565	-0.135	-0.020
-197.290	800.000	-0.096	0.296
-196.275	216.551	0.048	-0.075
-195.260	800.000	-0.013	-0.051
-194.246	800.000	-0.080	-0.225
-193.231	-10.980	0.128	-0.084
-192.217	-109.340	-0.292	-0.061
-191.202	800.000	0.062	-0.178
-190.187	-107.354	-0.010	0.002
-189.173	-34.400	0.107	-0.058
-188.158	36.960	-0.215	-0.188
-187.144	-142.083	-0.367	-0.036
-186.129	126.173	-0.087	-0.109
-185.114	238.672	-0.078	-0.128
-184.100	599.617	-0.050	-0.123
-183.085	84.963	-0.229	-0.248
-182.071	800.000	-0.084	-0.272
-181.056	800.000	0.025	0.099
-180.042	-16.218	0.214	-0.134
-179.027	-97.045	-0.351	0.091
-178.012	-200.000	0.007	0.060
-176.998	-200.000	-0.021	0.138
-175.983	181.442	-0.106	-0.155
-174.969	-66.896	-0.101	-0.039
-173.954	-49.106	-0.061	0.029
-172.939	273.307	0.057	-0.100
-171.925	800.000	0.021	0.092
-170.910	-24.383	-0.061	-0.036
-169.896	306.954	-0.228	-0.419
-168.881	800.000	0.081	0.304
-167.866	-136.645	0.257	-0.029
-166.852	285.349	0.132	0.236
-165.837	534.224	-0.072	0.169
-164.823	-116.612	0.145	0.026
-163.808	79.776	-0.130	0.138
-162.793	208.356	-0.060	0.093
-161.779	-200.000	0.015	-0.508
-160.764	-200.000	-0.046	0.481
-159.750	-200.000	-0.071	0.414
-158.735	12.261	0.163	-0.124
-157.720	-45.612	0.274	0.134
-156.706	-42.903	0.077	0.038
-155.691	-200.000	0.004	-0.075
-154.677	-200.000	-0.012	0.225
-153.662	194.179	0.106	0.159
-152.647	-53.688	-0.260	-0.117
-151.633	681.990	-0.063	-0.162
-150.618	-84.703	-0.218	0.068
-149.604	-130.986	-0.304	-0.040
-148.589	-200.000	-0.008	0.546
-147.574	-200.000	0.008	0.499
-146.560	-22.288	0.109	0.065
-145.545	-90.059	0.294	0.085
-144.531	-114.371	-0.165	-0.031
-143.516	-200.000	-0.035	0.342
-142.502	-193.542	0.423	0.004
-141.487	-167.175	0.167	-0.007
-140.472	-200.000	0.021	-0.293
-139.458	-67.813	0.103	-0.040
-138.443	-160.681	0.241	0.013
-137.429	107.409	0.196	0.230
-136.414	-187.999	-0.242	-0.003
-135.399	800.000	-0.053	-0.186
-134.385	-0.759	-0.081	-0.057
-133.370	391.126	0.049	-0.101
-132.356	-118.635	-0.141	-0.025
-131.341	-144.105	0.361	0.033
-130.326	-200.000	-0.005	-0.035
-129.312	-200.000	0.037	-0.282
-128.297	800.000	-0.136	-0.532
-127.283	-200.000	0.032	-0.291
-126.268	102.515	0.154	-0.178
-125.253	-200.000	0.030	-0.163
-124.239	597.071	-0.084	-0.206
-123.224	347.385	-0.064	0.124
-122.210	-200.000	-0.013	0.089
-121.195	-155.888	0.451	-0.028
-120.180	157.084	0.221	-0.301
-119.166	38.019	-0.193	-0.169
-118.151	-5.641	-0.241	-0.163
-117.137	800.000	-0.064	-0.194
-116.122	176.313	0.139	0.199
-115.107	61.472	-0.056	-0.055
-114.093	60.757	0.171	0.167
-113.078	183.116	-0.081	-0.118
-112.064	-143.833	-0.102	0.010
-111.049	-200.000	-0.083	-0.427
-110.034	185.059	0.078	0.114
-109.020	208.979	-0.099	-0.153
-108.005	-32.372	-0.464	0.255
-106.991	-97.971	0.227	0.058
-105.976	800.000	-0.056	0.170
-104.962	-166.931	0.187	-0.008
-103.947	-81.906	-0.243	-0.078
-102.932	-200.000	-0.073	-0.325
-101.918	123.339	-0.061	-0.075
-100.903	-15.371	0.228	0.144
-99.889	-66.178	0.117	0.046
-98.874	-200.000	-0.031	0.166
-97.859	-130.678	0.377	0.050
-96.845	91.043	-0.147	0.163
-95.830	800.000	0.044	0.128
-94.816	-74.031	0.349	-0.125
-93.801	-38.813	-0.262	-0.136
-92.786	-98.935	-0.177	0.044
-91.772	20.655	-0.250	0.200
-90.757	-200.000	-0.051	0.351
-89.743	-81.493	0.158	0.051
-88.728	277.010	0.078	-0.136
-87.713	340.321	-0.007	0.013
-86.699	-109.513	-0.342	0.071
-85.684	255.460	-0.045	0.077
-84.670	800.000	0.041	-0.176
-83.655	316.389	0.195	0.362
-82.640	217.211	-0.181	-0.284
-81.626	-200.000	-0.058	-0.290
-80.611	800.000	0.059	0.200
-79.597	-41.199	0.182	-0.092
-78.582	-23.653	-0.055	0.032
-77.567	-114.536	-0.082	-0.015
-76.553	-115.819	0.118	0.022
-75.538	-79.677	0.085	-0.028
-74.524	-200.000	-0.008	-0.261
-73.509	-105.761	-0.244	-0.054
-72.494	-200.000	-0.035	0.152
-71.480	731.060	0.049	0.128
-70.465	122.746	0.133	0.164
-69.451	-116.521	-0.327	0.059
-68.436	-122.640	-0.324	-0.052
-67.422	-119.033	-0.297	0.051
-66.407	-14.797	0.145	-0.092
-65.392	249.391	-0.019	-0.031
-64.378	-80.959	-0.099	-0.032
-63.363	-89.064	-0.124	0.036
-62.349	-200.000	0.023	-0.179
-61.334	14.877	-0.979	-0.754
-60.319	58.482	0.451	0.436
-59.305	800.000	-0.304	-1.131
-58.290	116.432	0.817	0.986
-57.276	398.701	0.955	1.967
-56.261	-200.000	95.819	597.409
-55.246	565.745	1370.755	3271.369
-54.232	161.292	2548.551	3506.602
-53.217	113.415	2140.203	2556.194
-52.203	43.993	1602.547	1445.108
-51.188	35.557	1340.577	1158.231
-50.173	32.271	1299.260	1103.241
-49.159	54.303	1346.198	1275.093
-48.144	56.480	1362.674	1303.630
-47.130	35.692	1320.966	1141.906
-46.115	32.245	1304.341	1107.228
-45.100	32.035	1299.321	1101.691
-44.086	31.940	1296.939	1099.070
-43.071	31.896	1294.490	1096.693
-42.057	31.851	1292.207	1094.455
-41.042	31.936	1290.654	1093.593
-40.027	31.916	1289.059	1092.080
-39.013	31.950	1286.987	1090.476
-37.998	32.016	1284.979	1089.116
-36.984	31.989	1284.053	1088.129
-35.969	32.060	1281.656	1086.471
-34.954	32.060	1280.121	1085.125
-33.940	32.001	1279.298	1084.043
-32.925	32.091	1277.834	1083.275
-31.911	32.127	1275.935	1081.830
-30.896	32.069	1274.875	1080.557
-29.881	32.184	1273.302	1079.839
-28.867	32.193	1271.661	1078.461
-27.852	32.067	1270.517	1076.722
-26.838	32.195	1268.913	1076.053
-25.823	32.189	1267.664	1074.920
-24.809	32.118	1266.543	1073.521
-23.794	32.165	1264.859	1072.317
-22.779	32.024	1264.084	1070.810
-21.765	32.127	1262.555	1070.063
-20.750	32.176	1261.040	1069.013
-19.736	32.143	1259.582	1067.549
-18.721	31.922	1258.981	1065.738
-17.706	31.948	1257.610	1064.686
-16.692	31.914	1256.164	1063.227
-15.677	31.954	1255.070	1062.488
-14.663	32.017	1254.187	1062.055
-13.648	31.967	1253.034	1060.751
-12.633	31.972	1252.068	1059.918
-11.619	31.995	1251.255	1059.318
-10.604	31.923	1250.609	1058.325
-9.590	31.961	1249.375	1057.452
-8.575	31.913	1248.332	1056.259
-7.560	31.962	1247.706	1055.959
-6.546	31.941	1247.013	1055.217
-5.531	31.958	1245.704	1054.160
-4.517	31.924	1244.875	1053.226
-3.502	31.838	1244.511	1052.393
-2.487	31.996	1243.382	1052.285
-1.473	31.878	1239.261	1048.096
-0.458	30.670	1224.339	1028.758
0.556	27.178	1207.569	992.481
1.571	23.661	1213.114	977.621
2.586	22.930	1228.729	986.038
3.600	22.306	1217.465	973.460
4.615	15.941	1143.575	881.108
5.629	5.862	1067.403	772.903
6.644	1.907	1047.215	739.074
7.659	1.502	1045.327	735.716
8.673	1.528	1043.602	734.563
9.688	1.354	1042.399	732.812
10.702	1.754	1040.455	733.304
11.717	7.700	1049.019	768.078
12.731	17.925	1063.751	828.659
13.746	23.557	1071.166	861.804
14.761	24.776	1072.250	868.523
15.775	24.820	1071.920	868.393
16.790	24.666	1071.351	867.110
17.804	24.613	1070.188	865.834
18.819	24.693	1069.882	865.897
19.834	24.818	1069.806	866.366
20.848	24.830	1069.337	865.966
21.863	24.819	1068.609	865.247
22.877	24.775	1068.191	864.620
23.892	24.812	1067.231	863.942
24.907	24.850	1066.454	863.420
25.921	24.793	1065.683	862.446
26.936	24.742	1064.306	861.010
27.950	24.745	1062.421	859.423
28.965	24.563	1061.268	857.540
29.980	24.703	1059.505	856.712
30.994	24.960	1058.523	857.070
32.009	24.804	1057.518	855.435
33.023	24.709	1056.362	853.973
34.038	24.743	1055.624	853.462
35.053	24.866	1054.959	853.433
36.067	24.859	1054.541	852.986
37.082	25.020	1053.405	852.762
38.096	25.129	1052.606	852.555
39.111	25.021	1052.251	851.679
40.126	24.947	1050.924	850.179
41.140	24.672	1049.168	847.382
42.155	24.409	1047.747	844.914
43.169	24.446	1047.233	844.596
44.184	24.578	1045.666	843.885
45.199	24.456	1044.686	842.444
46.213	24.517	1044.130	842.208
47.228	24.583	1043.550	841.978
48.242	24.686	1042.594	841.617
49.257	24.826	1041.996	841.715
50.271	24.956	1040.955	841.412
51.286	24.947	1040.574	840.988
52.301	24.956	1039.410	840.013
53.315	25.082	1038.162	839.520
54.330	24.795	1037.440	837.521
55.344	24.785	1037.014	837.056
56.359	24.852	1035.641	836.186
57.374	24.501	1035.085	834.024
58.388	24.662	1034.121	833.926
59.403	24.564	1033.474	832.870
60.417	24.424	1032.744	831.559
61.432	24.541	1031.723	831.205
62.447	24.652	1031.161	831.197
63.461	24.573	1030.850	830.505
64.476	24.569	1029.691	829.479
65.490	24.502	1028.565	828.188
66.505	24.740	1027.801	828.604
67.520	24.546	1027.510	827.397
68.534	24.329	1026.613	825.598
69.549	24.141	1025.097	823.434
70.563	24.094	1023.888	822.175
71.578	24.031	1023.421	821.436
72.593	23.906	1022.556	820.092
73.607	24.158	1022.131	820.839
74.622	24.386	1021.915	821.642
75.636	24.426	1021.274	821.238
76.651	24.238	1020.371	819.578
77.666	24.103	1019.630	818.287
78.680	24.253	1018.757	818.202
79.695	24.407	1018.321	818.491
80.709	24.458	1017.721	818.168
81.724	24.487	1016.864	817.540
82.739	24.511	1016.175	817.020
83.753	24.877	1015.933	818.429
84.768	24.995	1015.391	818.458
85.782	25.099	1014.147	817.857
86.797	25.087	1013.263	817.019
87.812	25.014	1012.013	815.605
88.826	25.119	1011.131	815.301
89.841	25.163	1010.204	814.680
90.855	25.167	1009.374	813.957
91.870	25.043	1008.902	812.942
92.884	24.895	1007.791	811.306
93.899	24.869	1006.470	810.051
94.914	25.010	1005.794	810.074
95.928	24.895	1004.853	808.725
96.943	24.661	1003.528	806.533
97.957	24.479	1002.293	804.646
98.972	24.388	1001.287	803.358
99.987	24.541	1000.976	803.727
101.001	24.903	999.541	804.131
102.016	24.757	999.268	803.184
103.030	24.719	998.685	802.472
104.045	24.657	997.186	800.919
105.060	24.387	996.614	799.179
106.074	24.574	995.810	799.301
107.089	24.918	995.203	800.282
108.103	24.774	994.285	798.829
109.118	24.664	992.497	796.830
110.133	24.590	991.857	795.917
111.147	24.300	990.533	793.496
112.162	24.154	989.844	792.222
113.176	24.438	989.423	793.078
114.191	24.288	988.830	791.868
115.206	24.025	987.742	789.760
116.220	24.151	986.595	789.328
117.235	24.287	986.044	789.423
118.249	24.240	985.041	788.341
119.264	24.167	984.357	787.403
120.279	24.189	983.539	786.773
121.293	24.315	982.835	786.697
122.308	24.281	981.983	785.795
123.322	24.328	980.374	784.644
124.337	24.069	979.421	782.673
125.352	23.539	978.337	779.411
126.366	23.517	977.311	778.428
127.381	24.317	977.350	781.900
128.395	24.658	976.662	782.775
129.410	24.722	976.344	782.729
130.424	24.791	975.067	781.939
131.439	24.722	974.059	780.760
132.454	24.618	973.630	779.892
133.468	24.713	972.203	779.095
134.483	24.870	971.326	779.005
135.497	24.980	970.823	779.011
136.512	25.027	969.613	778.175
137.527	25.029	969.094	777.700
138.541	24.936	968.095	776.428
139.556	24.981	967.438	776.024
140.570	25.221	966.383	776.149
141.585	25.140	965.753	775.227
142.600	25.158	964.438	774.180
143.614	25.315	963.856	774.319
144.629	25.234	963.634	773.725
145.643	25.210	962.282	772.466
146.658	24.834	961.086	769.822
147.673	24.778	960.211	768.811
148.687	25.009	958.354	768.247
149.702	24.887	957.694	767.128
150.716	24.901	956.699	766.322
151.731	25.007	956.462	766.517
152.746	25.196	956.206	767.056
153.760	25.168	955.553	766.343
154.775	25.174	954.840	765.727
155.789	25.151	954.102	764.972
156.804	25.157	952.763	763.854
157.819	25.273	951.858	763.556
158.833	25.358	951.551	763.604
159.848	25.289	950.296	762.233
160.862	25.232	949.399	761.206
161.877	25.227	948.032	760.021
162.892	25.284	947.120	759.463
163.906	25.114	946.220	757.956
164.921	25.222	945.229	757.554
165.935	25.106	944.955	756.778
166.950	25.107	944.115	756.043
167.964	25.113	943.050	755.147
168.979	24.981	941.949	753.643
169.994	24.984	940.690	752.581
171.008	25.304	940.075	753.365
172.023	25.253	939.441	752.576
173.037	25.116	938.253	750.988
174.052	24.909	937.615	749.540
175.067	24.987	936.903	749.231
176.081	25.109	936.390	749.266
177.096	24.910	935.882	747.963
178.110	24.695	934.751	746.096
179.125	24.606	934.117	745.151
180.140	24.635	934.045	745.151
181.154	24.796	933.976	745.699
182.169	25.061	933.444	746.312
183.183	25.214	932.978	746.512
184.198	25.154	931.610	745.099
185.213	25.063	931.443	744.524
186.227	25.289	930.880	744.945
187.242	25.154	929.937	743.563
188.256	25.194	929.370	743.212
189.271	25.253	928.598	742.774
190.286	24.994	927.499	740.756
191.300	24.282	926.036	736.582
192.315	23.599	924.244	732.274
193.329	23.574	924.180	732.057
194.344	24.524	924.514	736.175
195.359	25.190	924.469	738.818
196.373	25.173	924.075	738.367
197.388	25.021	923.505	737.221
198.402	24.922	923.056	736.390
199.417	25.097	922.067	736.256
200.432	24.808	921.155	734.275
201.446	24.559	920.616	732.761
202.461	24.664	919.888	732.544
203.475	23.898	918.183	727.987
204.490	23.048	916.663	723.246
205.504	24.010	917.260	727.585
206.519	24.668	916.932	729.951
207.534	24.757	916.640	730.016
208.548	25.109	916.352	731.156
209.563	24.823	915.500	729.249
210.577	24.986	914.572	729.109
211.592	25.322	914.647	730.471
212.607	25.240	913.517	729.169
213.621	25.231	913.358	728.941
214.636	25.274	912.594	728.444
215.650	25.196	911.710	727.354
216.665	25.362	910.999	727.397
217.680	25.248	910.121	726.170
218.694	24.838	909.152	723.675
219.709	24.725	908.705	722.797
220.723	25.006	908.332	723.574
221.738	24.990	907.969	723.156
222.753	24.977	907.120	722.361
223.767	25.143	906.802	722.713
224.782	25.436	906.354	723.475
225.796	25.311	906.046	722.660
226.811	24.726	904.675	719.150
227.826	24.172	902.986	715.520
228.840	24.229	902.368	715.197
229.855	24.329	901.908	715.172
230.869	23.965	900.960	712.895
231.884	24.355	900.940	714.378
232.899	24.951	901.318	717.004
233.913	24.910	900.496	716.122
234.928	24.940	899.681	715.529
235.942	24.933	898.930	714.843
236.957	24.674	897.926	712.947
237.972	24.721	897.619	712.828
238.986	24.759	897.227	712.605
240.001	24.707	896.482	711.743
241.015	24.758	896.170	711.633
242.030	25.094	895.537	712.406
243.045	24.994	895.327	711.777
244.059	25.301	894.627	712.375
245.074	25.042	894.158	710.914
246.088	24.630	892.645	708.017
247.103	25.022	892.436	709.340
248.117	25.493	892.877	711.493
249.132	25.574	892.428	711.389
250.147	25.807	892.126	712.009
251.161	26.001	891.283	712.039
252.176	25.927	890.783	711.284
253.190	25.987	890.152	710.956
254.205	26.262	889.847	711.733
255.220	26.099	888.992	710.344
256.234	25.955	888.163	709.052
257.249	25.913	887.027	707.916
258.263	25.833	887.140	707.630
259.278	26.034	886.126	707.546
260.293	26.041	885.781	707.239
261.307	25.955	884.946	706.172
262.322	25.629	884.182	704.221
263.336	24.891	882.164	699.670
264.351	23.914	880.475	694.456
265.366	24.133	880.144	694.989
266.380	25.177	880.951	699.639
267.395	25.629	880.375	700.880
268.409	25.514	879.876	699.975
269.424	25.723	879.259	700.235
270.439	25.923	878.381	700.251
271.453	25.830	878.273	699.739
272.468	25.972	877.978	699.993
273.482	26.174	877.445	700.291
274.497	25.567	876.411	697.051
275.512	25.126	875.599	694.635
276.526	25.553	875.923	696.485
277.541	25.877	874.794	696.781
278.555	25.609	874.075	695.109
279.570	25.501	873.565	694.226
280.585	25.621	872.738	693.969
281.599	25.682	871.763	693.370
282.614	25.067	870.854	690.215
283.628	24.947	870.519	689.428
284.643	25.510	870.173	691.260
285.657	24.933	868.983	688.034
286.672	24.718	867.909	686.301
287.687	25.171	868.213	688.217
288.701	25.382	867.695	688.557
289.716	25.118	866.592	686.610
290.730	25.023	866.047	685.751
291.745	24.633	865.173	683.508
292.760	25.079	865.170	685.149
293.774	26.017	865.246	688.735
294.789	26.386	865.086	689.953
295.803	26.352	864.507	689.302
296.818	26.366	863.790	688.723
297.833	26.103	862.628	686.735
298.847	25.880	862.236	685.511
299.862	26.236	861.678	686.363
300.876	26.377	861.660	686.824
301.891	26.202	860.898	685.488
302.906	25.804	859.755	683.009
303.920	25.936	859.803	683.489
304.935	26.302	859.792	684.806
305.949	26.187	858.800	683.520
306.964	26.090	857.833	682.322
307.979	25.988	857.613	681.701
308.993	26.408	857.335	683.008
310.008	26.585	856.443	682.905
311.022	26.122	856.039	680.775
312.037	25.999	855.584	679.891
313.052	25.690	854.200	677.566
314.066	24.862	852.524	673.065
315.081	24.622	852.055	671.735
316.095	25.500	852.595	675.401
317.110	26.116	851.926	677.121
318.125	25.048	850.590	671.998
319.139	23.947	849.415	666.884
320.154	23.943	849.137	666.592
321.168	25.018	849.505	670.850
322.183	25.695	849.596	673.395
323.197	25.643	849.434	673.015
324.212	26.066	848.958	674.159
325.227	26.094	848.225	673.622
326.241	25.853	847.881	672.388
327.256	25.931	846.943	671.879
328.270	25.812	846.661	671.151
329.285	25.614	845.506	669.439
330.300	25.329	844.696	667.676
331.314	25.743	844.541	669.036
332.329	25.965	844.838	670.036
333.343	26.131	844.287	670.158
334.358	26.240	843.656	670.002
335.373	26.357	843.448	670.212
336.387	26.495	843.435	670.652
337.402	26.653	842.896	670.751
338.416	26.450	842.614	669.715
339.431	26.614	842.587	670.242
340.446	26.803	842.408	670.737
341.460	26.666	841.525	669.469
342.475	26.428	840.708	667.881
343.489	26.464	840.638	667.901
344.504	26.930	840.058	669.100
345.519	27.132	839.894	669.653
346.533	26.985	839.618	668.833
347.548	26.976	839.100	668.327
348.562	26.926	838.352	667.487
349.577	26.890	837.709	666.786
350.592	26.859	837.048	666.085
351.606	26.779	836.420	665.235
352.621	26.720	835.655	664.352
353.635	26.794	834.759	663.850
354.650	26.141	832.886	659.916
355.665	25.070	831.966	655.217
356.679	25.521	831.713	656.606
357.694	25.991	831.269	657.911
358.708	25.777	830.781	656.687
359.723	26.211	830.844	658.262
360.738	26.506	830.357	658.891
361.752	26.685	830.147	659.320
362.767	27.072	829.868	660.447
363.781	27.304	829.173	660.678
364.796	27.380	829.195	660.913
365.810	27.480	828.412	660.592
366.825	27.341	828.199	659.861
367.840	27.058	826.981	657.806
368.854	26.650	826.508	655.896
369.869	26.725	826.104	655.787
370.883	26.791	825.413	655.419
371.898	26.679	825.206	654.794
372.913	26.726	824.847	654.618
373.927	26.931	824.162	654.758
374.942	27.029	823.789	654.757
375.956	26.996	823.769	654.563
376.971	27.401	823.163	655.483
377.986	27.403	822.989	655.295
379.000	27.226	822.297	654.047
380.015	27.103	821.858	653.200
381.029	27.044	821.545	652.680
382.044	27.490	820.237	653.182
383.059	27.503	819.931	652.930
384.073	27.299	819.591	651.868
385.088	27.296	818.801	651.172
386.102	27.031	818.390	649.840
387.117	26.931	817.291	648.552
388.132	26.584	816.542	646.660
389.146	26.122	815.713	644.299
390.161	26.530	815.786	645.755
391.175	27.002	815.373	647.054
392.190	26.600	814.400	644.791
393.205	25.260	812.208	638.238
394.219	23.816	810.502	631.713
395.234	23.859	810.115	631.510
396.248	25.366	811.913	638.214
397.263	26.898	812.338	643.935
398.278	26.791	812.105	643.312
399.292	26.558	811.784	642.174
400.307	26.660	810.825	641.720
401.321	26.753	810.692	641.888
402.336	27.078	810.560	642.878
403.350	27.488	810.706	644.387
404.365	27.617	810.623	644.719
405.380	28.040	809.877	645.565
406.394	28.163	809.204	645.404
407.409	27.907	809.300	644.521
408.423	27.872	808.868	643.996
409.438	28.027	808.275	644.014
410.453	27.902	808.163	643.427
411.467	28.162	806.915	643.290
412.482	28.036	806.703	642.621
413.496	27.984	806.578	642.281
414.511	28.030	806.333	642.193
415.526	27.914	805.890	641.375
416.540	27.818	805.061	640.323
417.555	27.574	804.205	638.731
418.569	27.654	803.967	638.764
419.584	27.725	803.008	638.195
420.599	27.501	802.704	637.113
421.613	110.282	1286.996	1458.651
422.628	95.134	1357.553	1458.730
