DTS Sentinel unit serial number:	SN413079Multiplexer serial number:	ORYXHardware model number:	OX4-SRSoftware version number:	ORYX F/W v4.00 Oryx Data Collector v3.7.2.0data status	okinstallation	princeton_trtdifferential loss correction	single-endedforward channel	channel 1reverse channel	N/Adate	2019/09/18time	01:06:35forward acquisition time	60.00reverse acquisition time	0.00gamma	496.2192k internal	0.2341k external	0.2341temperature offset calibration	0.9978default loss term (dB/km)	0.3790temperature slope calibration	1.0000multiplexer offset coefficient	1.0000multiplexer slope coefficient	1.0000fibre end	0.00T internal ref (°C)	23.25T ext. ref 1 (°C)	0.17T ext. ref 2 (°C)	16.91length (m)	temperature (°C)	Stokes	anti-Stokes-747.200	20.807	0.193	-0.156
-746.185	-200.000	-0.060	0.266
-745.171	108.772	0.194	-0.233
-744.156	99.760	-0.190	-0.220
-743.142	-86.139	0.399	-0.123
-742.127	-74.274	-0.177	0.064
-741.112	-70.826	-0.094	0.035
-740.098	369.881	-0.101	-0.205
-739.083	164.551	0.190	0.269
-738.069	-6.897	-0.276	0.188
-737.054	159.079	0.107	0.149
-736.039	-53.392	-0.388	0.178
-735.025	-64.129	0.277	0.113
-734.010	-119.328	-0.137	-0.024
-732.996	-174.516	-0.646	-0.019
-731.981	-200.000	0.028	0.244
-730.966	-200.000	-0.030	0.175
-729.952	-200.000	0.018	0.088
-728.937	137.819	-0.193	0.254
-727.923	-132.306	-0.054	0.007
-726.908	-101.225	-0.081	-0.020
-725.894	-139.360	-0.229	0.025
-724.879	443.346	0.063	-0.139
-723.864	-200.000	-0.019	-0.118
-722.850	114.589	0.124	0.152
-721.835	800.000	-0.072	-0.244
-720.821	800.000	-0.039	-0.170
-719.806	-111.490	0.120	0.024
-718.791	-2.999	0.319	-0.223
-717.777	800.000	0.012	0.039
-716.762	-188.950	0.150	0.002
-715.748	-41.429	-0.232	0.119
-714.733	337.459	-0.036	-0.069
-713.718	-103.057	0.106	-0.025
-712.704	709.502	0.077	-0.203
-711.689	1.300	0.190	-0.137
-710.675	-25.878	0.132	-0.078
-709.660	101.052	-0.222	0.258
-708.645	117.280	-0.085	0.105
-707.631	-17.052	-0.353	0.223
-706.616	-92.943	-0.183	0.051
-705.602	800.000	-0.054	-0.186
-704.587	-200.000	0.000	0.079
-703.572	-85.784	-0.098	-0.031
-702.558	-46.475	0.144	-0.071
-701.543	-56.931	0.218	0.096
-700.529	-61.810	-0.099	-0.041
-699.514	-69.728	-0.183	-0.070
-698.499	284.717	-0.240	-0.432
-697.485	739.052	0.067	-0.181
-696.470	-200.000	-0.025	-0.347
-695.456	27.562	0.132	0.111
-694.441	-170.111	-0.323	0.011
-693.426	680.396	0.086	0.225
-692.412	-200.000	-0.020	-0.169
-691.397	-87.725	0.069	0.021
-690.383	5.515	-0.324	0.239
-689.368	800.000	0.068	-0.224
-688.354	8.134	-0.267	-0.200
-687.339	85.485	-0.192	-0.211
-686.324	-141.364	0.250	-0.025
-685.310	73.222	-0.116	0.121
-684.295	147.501	-0.199	0.269
-683.281	-7.531	-0.386	0.261
-682.266	36.022	0.099	-0.087
-681.251	586.232	0.098	0.242
-680.237	27.600	-0.196	-0.165
-679.222	50.797	0.219	0.208
-678.208	428.521	0.058	0.124
-677.193	-9.885	0.060	0.040
-676.178	-93.124	-0.139	0.039
-675.164	576.230	-0.132	0.323
-674.149	167.181	0.052	0.074
-673.135	-70.197	-0.194	0.074
-672.120	9.933	-0.374	-0.284
-671.105	70.630	-0.212	-0.219
-670.091	583.560	0.064	-0.157
-669.076	-61.218	0.279	0.118
-668.062	-134.788	-0.416	0.050
-667.047	800.000	0.038	-0.121
-666.032	-47.645	-0.265	0.128
-665.018	-200.000	-0.002	-0.019
-664.003	-1.820	0.189	0.133
-662.989	-200.000	0.014	-0.120
-661.974	85.812	0.046	0.050
-660.959	-86.083	0.068	0.021
-659.945	-130.116	-0.039	-0.005
-658.930	252.169	0.195	0.332
-657.916	36.045	-0.264	-0.232
-656.901	-200.000	-0.054	-0.325
-655.886	353.714	0.045	0.089
-654.872	800.000	0.069	-0.245
-653.857	424.349	-0.061	-0.131
-652.843	154.178	0.078	0.106
-651.828	800.000	-0.090	-0.323
-650.814	670.120	0.131	0.340
-649.799	196.697	0.073	-0.111
-648.784	237.436	0.116	-0.192
-647.770	385.649	-0.146	-0.301
-646.755	77.309	0.083	0.088
-645.741	-81.850	-0.144	0.047
-644.726	800.000	0.103	0.364
-643.711	-21.976	0.231	-0.140
-642.697	-200.000	-0.093	-0.542
-641.682	-115.081	-0.136	0.026
-640.668	242.944	0.246	-0.412
-639.653	-29.446	-0.195	0.111
-638.638	122.795	0.027	0.033
-637.624	1.794	-0.444	-0.319
-636.609	800.000	-0.120	-0.381
-635.595	175.902	-0.041	0.059
-634.580	1.344	-0.083	0.060
-633.565	-72.077	-0.077	-0.028
-632.551	-200.000	0.019	0.260
-631.536	138.839	0.377	-0.495
-630.522	17.278	0.113	-0.089
-629.507	-120.683	0.236	-0.040
-628.492	66.251	0.035	-0.036
-627.478	-56.423	0.239	0.106
-626.463	62.152	-0.202	-0.201
-625.449	-29.006	-0.217	-0.124
-624.434	-18.107	-0.216	0.135
-623.419	-200.000	-0.004	0.115
-622.405	-200.000	0.009	-0.171
-621.390	800.000	0.035	0.141
-620.376	67.916	0.222	-0.226
-619.361	-84.673	0.281	0.088
-618.346	199.888	0.075	0.115
-617.332	-45.944	0.215	-0.106
-616.317	514.041	-0.078	0.180
-615.303	-34.198	-0.120	-0.066
-614.288	-29.102	0.094	0.054
-613.273	-34.879	-0.131	-0.071
-612.259	800.000	0.054	-0.161
-611.244	-103.496	-0.068	0.016
-610.230	-40.719	-0.434	-0.224
-609.215	-200.000	0.015	0.237
-608.201	212.391	-0.129	-0.203
-607.186	-1.827	0.136	-0.096
-606.171	-200.000	0.010	-0.211
-605.157	-24.229	-0.441	-0.263
-604.142	6.799	-0.092	-0.069
-603.128	89.794	-0.043	0.048
-602.113	-200.000	-0.345	0.000
-601.098	350.584	-0.007	0.014
-600.084	3.285	0.226	0.164
-599.069	-5.224	0.098	-0.067
-598.055	800.000	-0.093	0.282
-597.040	326.510	0.081	-0.154
-596.025	-17.932	-0.182	0.114
-595.011	800.000	-0.104	0.328
-593.996	-74.268	0.361	0.130
-592.982	800.000	-0.132	-0.404
-591.967	520.719	0.174	-0.406
-590.952	-19.047	-0.340	-0.211
-589.938	7.518	-0.178	-0.133
-588.923	-200.000	0.040	-0.186
-587.909	800.000	0.024	0.067
-586.894	324.673	-0.088	0.168
-585.879	800.000	-0.139	0.424
-584.865	219.568	-0.044	0.070
-583.850	17.811	-0.233	-0.184
-582.836	-100.223	0.148	0.037
-581.821	779.996	-0.166	0.451
-580.806	351.151	0.115	-0.227
-579.792	362.643	-0.109	0.217
-578.777	800.000	0.143	0.408
-577.763	-5.923	-0.424	0.289
-576.748	-126.676	-0.309	0.046
-575.733	711.696	-0.108	0.286
-574.719	-103.284	0.140	0.033
-573.704	-64.481	0.252	-0.102
-572.690	-68.184	0.203	0.079
-571.675	4.114	0.314	0.228
-570.661	104.119	0.083	0.097
-569.646	-53.944	-0.248	-0.113
-568.631	328.281	-0.058	0.110
-567.617	-200.000	-0.015	-0.202
-566.602	-200.000	-0.019	0.214
-565.588	-126.654	-0.018	0.003
-564.573	-65.648	-0.058	-0.023
-563.558	-25.288	-0.237	-0.140
-562.544	81.850	-0.266	-0.287
-561.529	-82.745	-0.285	-0.092
-560.515	255.680	-0.164	0.280
-559.500	523.502	-0.094	0.219
-558.485	800.000	0.070	-0.299
-557.471	-105.795	0.234	0.053
-556.456	-57.191	-0.200	0.088
-555.442	112.178	-0.055	0.066
-554.427	-48.709	0.201	-0.096
-553.412	-102.008	-0.159	-0.038
-552.398	-20.668	0.324	-0.198
-551.383	-16.244	-0.508	0.321
-550.369	133.986	0.277	-0.357
-549.354	-105.123	-0.306	0.070
-548.339	30.259	-0.133	-0.113
-547.325	-17.161	0.189	0.119
-546.310	38.729	0.147	0.131
-545.296	-21.937	-0.343	-0.207
-544.281	224.556	0.172	-0.276
-543.266	-138.615	0.204	-0.022
-542.252	84.729	-0.225	0.245
-541.237	-38.220	-0.145	0.077
-540.223	-57.852	-0.201	-0.087
-539.208	-77.683	-0.171	-0.059
-538.193	767.270	0.101	0.274
-537.179	-99.343	-0.273	0.068
-536.164	-31.489	-0.183	-0.102
-535.150	-72.799	0.071	-0.026
-534.135	19.433	0.069	0.055
-533.121	37.765	-0.218	0.193
-532.106	28.559	0.154	-0.129
-531.091	800.000	0.070	-0.241
-530.077	-200.000	-0.044	0.373
-529.062	-144.074	0.333	-0.031
-528.048	1.863	0.073	0.052
-527.033	-38.135	0.130	0.069
-526.018	-200.000	-0.045	0.256
-525.004	-200.000	0.004	-0.238
-523.989	800.000	0.046	-0.182
-522.975	557.812	-0.054	-0.128
-521.960	-200.000	-0.004	0.142
-520.945	-200.000	-0.034	0.331
-519.931	-56.185	-0.209	0.092
-518.916	-111.658	0.202	-0.041
-517.902	-11.889	0.035	0.023
-516.887	281.639	0.050	0.089
-515.872	645.564	-0.026	-0.067
-514.858	82.345	0.080	-0.087
-513.843	308.283	0.222	0.411
-512.829	-108.897	0.108	0.023
-511.814	-200.000	0.005	-0.298
-510.799	800.000	-0.025	0.083
-509.785	33.435	-0.310	0.267
-508.770	6.045	-0.121	0.089
-507.756	32.739	-0.089	0.076
-506.741	66.471	0.144	-0.146
-505.726	456.987	-0.041	-0.091
-504.712	-15.055	0.225	0.143
-503.697	55.056	-0.325	0.311
-502.683	131.716	0.177	-0.226
-501.668	224.911	-0.076	-0.122
-500.653	400.249	-0.194	-0.404
-499.639	800.000	0.041	0.145
-498.624	-200.000	0.021	-0.198
-497.610	468.500	0.102	-0.227
-496.595	-154.461	-0.328	-0.022
-495.581	188.055	0.190	-0.282
-494.566	-20.415	0.181	-0.110
-493.551	-200.000	0.011	-0.158
-492.537	-143.266	0.228	0.022
-491.522	-84.091	0.053	-0.017
-490.508	800.000	0.036	0.140
-489.493	-200.000	0.024	-0.330
-488.478	399.254	0.056	0.117
-487.464	-200.000	0.020	0.200
-486.449	-153.508	0.090	-0.006
-485.435	32.410	0.040	0.034
-484.420	-128.241	-0.279	-0.039
-483.405	265.514	0.039	0.068
-482.391	243.511	0.284	0.473
-481.376	267.797	0.027	-0.048
-480.362	737.311	0.030	-0.079
-479.347	-55.933	0.340	-0.151
-478.332	-101.285	-0.248	-0.060
-477.318	-107.738	-0.257	0.056
-476.303	800.000	-0.088	0.335
-475.289	-107.198	-0.137	-0.030
-474.274	192.993	-0.019	-0.028
-473.259	-80.659	0.176	0.058
-472.245	180.050	0.017	0.025
-471.230	103.440	0.147	-0.171
-470.216	-200.000	-0.001	0.037
-469.201	65.861	0.073	0.073
-468.186	95.294	0.122	-0.138
-467.172	203.007	0.102	0.157
-466.157	15.077	-0.115	-0.089
-465.143	21.924	-0.258	0.208
-464.128	800.000	-0.032	-0.102
-463.113	82.212	-0.084	-0.090
-462.099	-82.011	-0.213	0.069
-461.084	-40.732	0.234	-0.120
-460.070	-138.262	0.177	-0.019
-459.055	-9.971	-0.388	-0.256
-458.040	-200.000	0.030	-0.291
-457.026	800.000	-0.024	-0.085
-456.011	800.000	-0.027	-0.092
-454.997	153.505	0.084	-0.115
-453.982	630.960	0.054	0.136
-452.968	318.426	-0.065	-0.122
-451.953	42.022	-0.077	-0.070
-450.938	-15.429	0.313	0.198
-449.924	-47.035	-0.214	0.103
-448.909	327.308	0.119	-0.227
-447.895	800.000	-0.092	-0.310
-446.880	163.160	0.294	0.409
-445.865	-200.000	0.018	-0.179
-444.851	-25.262	0.208	-0.122
-443.836	27.931	-0.208	-0.174
-442.822	-200.000	0.000	-0.086
-441.807	-22.054	-0.179	-0.108
-440.792	107.335	0.212	-0.250
-439.778	125.755	0.076	-0.095
-438.763	36.965	-0.136	-0.119
-437.749	-72.520	-0.366	0.134
-436.734	-141.922	0.179	0.018
-435.719	-40.726	0.090	-0.046
-434.705	253.043	0.146	0.247
-433.690	340.578	0.085	0.163
-432.676	-200.000	-0.044	-0.249
-431.661	-200.000	-0.018	-0.229
-430.646	-38.798	-0.350	-0.183
-429.632	7.517	0.125	0.092
-428.617	-156.882	0.403	0.025
-427.603	-105.264	-0.131	0.030
-426.588	-180.457	0.233	0.005
-425.573	401.851	0.036	-0.076
-424.559	-128.643	0.068	-0.009
-423.544	-29.184	-0.130	0.074
-422.530	173.226	0.125	0.179
-421.515	571.979	0.110	-0.264
-420.500	800.000	0.087	0.307
-419.486	-16.522	-0.085	0.053
-418.471	-61.667	0.049	0.020
-417.457	649.575	-0.030	-0.076
-416.442	65.711	-0.375	-0.376
-415.428	42.226	-0.162	-0.146
-414.413	-128.794	-0.138	0.019
-413.398	-25.865	-0.074	0.043
-412.384	464.241	-0.112	0.247
-411.369	173.192	-0.095	0.136
-410.355	-94.759	0.141	0.038
-409.340	787.958	0.105	0.286
-408.325	-72.655	0.126	0.046
-407.311	49.787	0.060	0.056
-406.296	-141.491	-0.280	-0.028
-405.282	-200.000	0.005	-0.248
-404.267	-200.000	-0.028	0.245
-403.252	57.408	-0.237	-0.229
-402.238	-87.812	0.265	0.079
-401.223	114.614	0.321	-0.387
-400.209	-200.000	-0.007	0.062
-399.194	390.427	-0.128	-0.263
-398.179	343.813	-0.155	0.301
-397.165	331.490	-0.053	0.102
-396.150	800.000	-0.005	-0.013
-395.136	-200.000	0.053	0.238
-394.121	-200.000	0.043	-0.486
-393.106	10.644	-0.175	-0.132
-392.092	-144.977	0.196	0.018
-391.077	-31.511	0.381	-0.212
-390.063	602.266	-0.028	0.069
-389.048	-95.000	-0.052	-0.014
-388.033	29.434	0.098	0.082
-387.019	252.634	0.058	-0.098
-386.004	-200.000	0.000	-0.121
-384.990	90.976	-0.119	0.132
-383.975	75.011	-0.227	0.236
-382.960	-80.891	-0.194	0.064
-381.946	70.379	0.394	0.402
-380.931	282.581	-0.106	0.188
-379.917	-200.000	-0.011	-0.051
-378.902	-32.111	-0.126	0.069
-377.888	-65.821	0.090	0.036
-376.873	-2.977	0.188	0.130
-375.858	-200.000	0.077	0.528
-374.844	-72.636	0.348	0.127
-373.829	-21.154	-0.144	0.087
-372.815	-145.977	-0.227	-0.020
-371.800	-55.583	-0.123	-0.055
-370.785	153.156	-0.215	0.290
-369.771	-142.883	0.099	0.010
-368.756	-138.209	0.170	0.019
-367.742	-169.040	0.031	-0.001
-366.727	145.189	-0.188	0.248
-365.712	333.360	0.114	-0.218
-364.698	-20.163	-0.052	-0.032
-363.683	-200.000	-0.030	-0.186
-362.669	50.470	0.040	-0.037
-361.654	-113.185	-0.252	-0.049
-360.639	57.732	0.041	0.040
-359.625	82.826	0.158	-0.170
-358.610	308.089	-0.145	-0.266
-357.596	-75.530	-0.207	-0.073
-356.581	-100.524	-0.197	-0.048
-355.566	-119.420	-0.243	-0.042
-354.552	-148.450	0.365	0.030
-353.537	-30.282	0.208	0.117
-352.523	-128.229	-0.039	-0.005
-351.508	95.353	-0.144	-0.162
-350.493	37.646	0.112	0.098
-349.479	779.721	0.076	0.206
-348.464	-96.655	-0.119	-0.031
-347.450	-90.121	-0.313	-0.090
-346.435	56.565	0.263	-0.252
-345.420	-54.333	-0.230	-0.103
-344.406	-200.000	0.021	-0.098
-343.391	800.000	0.060	-0.244
-342.377	-162.646	0.119	-0.006
-341.362	-200.000	-0.004	0.162
-340.348	-16.896	-0.203	-0.126
-339.333	-8.912	0.397	0.262
-338.318	-168.142	0.139	-0.005
-337.304	-41.142	-0.147	0.075
-336.289	94.075	0.244	0.273
-335.275	-27.009	-0.136	-0.078
-334.260	720.570	-0.116	-0.304
-333.245	800.000	-0.073	-0.227
-332.231	7.765	-0.203	-0.150
-331.216	-200.000	0.007	0.428
-330.202	341.416	0.229	0.441
-329.187	192.196	-0.224	0.334
-328.172	67.375	0.344	0.346
-327.158	80.510	-0.198	0.210
-326.143	-200.000	-0.017	0.154
-325.129	310.470	0.095	-0.176
-324.114	101.791	-0.256	-0.294
-323.099	-63.514	-0.225	-0.091
-322.085	175.522	0.205	-0.294
-321.070	-200.000	-0.018	-0.139
-320.056	773.098	-0.133	-0.358
-319.041	-200.000	0.118	-0.562
-318.026	335.866	-0.207	0.396
-317.012	77.097	-0.109	0.115
-315.997	800.000	0.083	-0.246
-314.983	-188.136	-0.144	0.002
-313.968	-98.865	-0.103	0.026
-312.953	-20.206	0.210	-0.127
-311.939	38.075	-0.078	0.069
-310.924	528.474	0.054	0.125
-309.910	54.240	0.221	-0.210
-308.895	-91.512	-0.055	0.015
-307.880	-7.790	0.233	0.155
-306.866	188.647	-0.151	-0.222
-305.851	0.426	-0.088	0.062
-304.837	596.696	-0.020	0.049
-303.822	18.052	0.328	0.257
-302.807	101.712	0.247	0.284
-301.793	800.000	-0.100	0.394
-300.778	-65.371	-0.257	-0.102
-299.764	-88.917	0.030	0.009
-298.749	-60.099	0.244	0.103
-297.735	-200.000	0.056	-0.400
-296.720	-200.000	-0.060	-0.393
-295.705	38.951	-0.264	-0.233
-294.691	-174.924	0.243	0.007
-293.676	-109.187	-0.179	-0.038
-292.662	-128.675	0.220	0.031
-291.647	800.000	-0.050	-0.148
-290.632	-200.000	-0.059	-0.317
-289.618	-200.000	0.013	-0.063
-288.603	-200.000	-0.006	0.240
-287.589	140.152	-0.331	0.430
-286.574	-48.006	0.106	-0.050
-285.559	-107.846	0.314	0.067
-284.545	175.884	-0.038	-0.054
-283.530	-16.108	-0.338	0.211
-282.516	-53.439	0.366	-0.165
-281.501	197.872	-0.063	0.095
-280.486	29.899	-0.250	0.209
-279.472	-109.265	-0.218	-0.046
-278.457	788.019	0.090	-0.244
-277.443	-200.000	-0.013	-0.109
-276.428	800.000	0.075	-0.275
-275.413	-200.000	-0.020	0.093
-274.399	-200.000	0.004	0.158
-273.384	175.114	-0.092	-0.131
-272.370	-200.000	0.023	-0.122
-271.355	-121.011	0.235	0.039
-270.340	107.896	0.128	-0.150
-269.326	-125.053	-0.313	-0.047
-268.311	256.370	0.219	-0.370
-267.297	-15.906	0.059	-0.037
-266.282	-85.767	-0.130	-0.040
-265.267	-117.018	0.296	0.053
-264.253	-90.848	-0.130	-0.037
-263.238	-52.848	0.227	0.103
-262.224	-200.000	0.077	0.000
-261.209	-113.817	0.239	-0.046
-260.195	185.624	-0.232	0.339
-259.180	-14.407	0.150	0.095
-258.165	800.000	-0.062	0.182
-257.151	-2.967	0.315	0.216
-256.136	-73.809	-0.184	-0.066
-255.122	-200.000	0.034	-0.149
-254.107	-200.000	0.013	0.188
-253.092	460.658	-0.021	0.047
-252.078	71.790	-0.127	0.129
-251.063	-92.597	-0.186	0.051
-250.049	135.668	0.062	-0.080
-249.034	-156.495	-0.061	0.004
-248.019	800.000	0.081	0.319
-247.005	-75.335	0.048	-0.017
-245.990	-200.000	-0.079	0.000
-244.976	-113.258	0.302	-0.058
-243.961	-34.263	-0.306	0.165
-242.946	505.389	0.047	0.106
-241.932	107.480	-0.134	-0.156
-240.917	-200.000	-0.197	0.000
-239.903	-73.831	0.015	0.005
-238.888	-64.046	-0.221	-0.089
-237.873	127.647	-0.108	0.134
-236.859	-200.000	0.004	-0.136
-235.844	-26.711	0.113	0.065
-234.830	85.103	0.146	-0.157
-233.815	3.312	0.405	0.289
-232.800	315.929	-0.132	-0.245
-231.786	26.324	-0.196	-0.161
-230.771	42.192	-0.173	-0.154
-229.757	-200.000	0.004	-0.264
-228.742	-117.932	0.235	0.041
-227.727	126.807	0.134	-0.166
-226.713	-200.000	0.020	0.092
-225.698	-200.000	0.008	-0.253
-224.684	108.521	0.158	0.185
-223.669	-200.000	-0.000	-0.147
-222.655	-126.813	-0.154	0.022
-221.640	165.319	-0.049	-0.068
-220.625	-110.168	0.081	0.017
-219.611	800.000	-0.028	0.080
-218.596	800.000	-0.126	-0.356
-217.582	605.689	-0.077	0.189
-216.567	-32.215	0.195	0.107
-215.552	-200.000	-0.056	0.328
-214.538	800.000	0.095	0.272
-213.523	245.754	-0.130	-0.214
-212.509	800.000	0.041	0.126
-211.494	-200.000	-0.004	0.452
-210.479	738.174	0.080	0.210
-209.465	800.000	-0.037	0.153
-208.450	47.453	0.295	0.270
-207.436	-200.000	-0.007	0.193
-206.421	-55.977	0.230	0.101
-205.406	-200.000	-0.035	0.182
-204.392	-200.000	0.002	-0.301
-203.377	-22.885	-0.144	0.086
-202.363	800.000	0.023	0.067
-201.348	10.381	-0.126	0.094
-200.333	-46.654	0.183	0.088
-199.319	392.190	0.092	-0.188
-198.304	-145.059	-0.401	0.036
-197.290	-200.000	-0.034	0.208
-196.275	-146.922	0.213	0.018
-195.260	208.669	-0.089	-0.136
-194.246	737.194	0.163	0.428
-193.231	272.612	0.197	0.342
-192.217	-113.107	0.369	-0.071
-191.202	-49.374	-0.217	0.102
-190.187	194.086	0.202	-0.301
-189.173	-157.290	-0.156	0.009
-188.158	27.926	-0.196	0.162
-187.144	800.000	0.057	-0.178
-186.129	46.414	0.188	-0.171
-185.114	115.453	0.252	-0.302
-184.100	283.278	0.125	0.220
-183.085	11.839	0.231	0.174
-182.071	396.686	0.154	0.315
-181.056	348.813	-0.187	0.362
-180.042	-149.892	0.246	0.019
-179.027	10.459	0.125	-0.093
-178.012	-59.136	-0.146	-0.062
-176.998	338.751	0.078	0.150
-175.983	-137.018	0.307	0.034
-174.969	800.000	-0.072	0.280
-173.954	-71.737	0.356	0.130
-172.939	-200.000	-0.023	-0.177
-171.925	800.000	0.115	-0.471
-170.910	-103.835	0.085	-0.019
-169.896	-57.338	0.021	0.009
-168.881	-80.375	0.098	0.032
-167.866	34.429	-0.190	-0.163
-166.852	-38.625	0.258	-0.133
-165.837	-24.956	-0.075	-0.044
-164.823	-154.784	-0.193	0.013
-163.808	571.211	0.193	0.460
-162.793	137.669	-0.110	-0.141
-161.779	-200.000	-0.005	0.187
-160.764	-2.769	-0.132	0.091
-159.750	-83.234	-0.048	-0.015
-158.735	-98.722	-0.032	0.008
-157.720	74.268	-0.343	0.353
-156.706	181.219	0.028	0.040
-155.691	-200.000	0.051	-0.241
-154.677	-200.000	-0.006	-0.030
-153.662	-77.649	0.240	-0.081
-152.647	57.241	0.140	-0.134
-151.633	-94.272	0.153	-0.041
-150.618	-1.839	-0.212	0.146
-149.604	-138.743	-0.106	0.011
-148.589	-70.730	0.179	-0.066
-147.574	65.900	0.094	0.093
-146.560	-200.000	-0.020	-0.167
-145.545	14.463	0.328	-0.251
-144.531	600.305	-0.041	0.099
-143.516	-30.622	0.356	-0.197
-142.502	-200.000	0.027	-0.156
-141.487	362.708	-0.105	0.207
-140.472	-200.000	-0.019	0.234
-139.458	-72.363	0.410	0.148
-138.443	75.996	0.122	-0.126
-137.429	-129.036	0.361	0.049
-136.414	-119.318	0.119	0.020
-135.399	-200.000	0.056	-0.000
-134.385	-123.407	-0.315	-0.049
-133.370	89.137	0.204	0.222
-132.356	-98.148	0.187	0.047
-131.341	-200.000	0.011	0.164
-130.326	-55.243	-0.177	0.078
-129.312	-130.649	0.199	-0.026
-128.297	800.000	-0.061	-0.214
-127.283	60.384	0.143	0.138
-126.268	24.427	0.083	-0.067
-125.253	69.022	0.153	0.154
-124.239	800.000	-0.052	0.180
-123.224	800.000	0.033	0.108
-122.210	-25.745	-0.357	-0.206
-121.195	-72.416	-0.193	0.070
-120.180	110.955	-0.271	0.319
-119.166	150.850	-0.025	-0.033
-118.151	-200.000	0.028	-0.201
-117.137	800.000	-0.051	0.162
-116.122	-200.000	-0.007	-0.541
-115.107	68.559	0.309	-0.309
-114.093	-152.114	0.133	-0.009
-113.078	-200.000	0.019	0.215
-112.064	538.322	0.067	0.155
-111.049	-37.837	0.232	0.121
-110.034	800.000	0.069	0.226
-109.020	-200.000	0.074	-0.393
-108.005	448.656	-0.126	0.271
-106.991	171.339	0.123	-0.173
-105.976	-48.934	-0.091	0.043
-104.962	37.461	-0.196	0.170
-103.947	35.127	0.371	0.317
-102.932	86.491	0.243	0.262
-101.918	59.545	0.139	-0.134
-100.903	64.945	-0.131	-0.129
-99.889	477.501	0.067	0.148
-98.874	185.707	-0.234	0.339
-97.859	302.760	0.006	-0.011
-96.845	169.410	0.062	-0.086
-95.830	-33.900	-0.329	0.177
-94.816	315.283	-0.210	0.388
-93.801	-186.410	0.299	0.004
-92.786	-200.000	-0.031	0.231
-91.772	104.346	0.126	-0.145
-90.757	306.769	0.082	0.150
-89.743	80.443	-0.282	0.297
-88.728	-76.333	0.408	0.140
-87.713	-31.555	0.149	0.082
-86.699	-200.000	-0.015	0.074
-85.684	-76.779	0.226	-0.077
-84.670	800.000	-0.050	0.192
-83.655	-77.759	-0.062	0.021
-82.640	21.615	0.057	0.045
-81.626	-62.373	0.389	0.158
-80.611	671.708	0.158	0.400
-79.597	-200.000	-0.009	0.419
-78.582	1.375	0.023	0.016
-77.567	800.000	0.031	0.092
-76.553	-155.618	-0.134	-0.008
-75.538	-68.785	-0.250	0.094
-74.524	55.878	0.178	-0.169
-73.509	125.547	-0.087	0.108
-72.494	593.350	0.111	-0.268
-71.480	-5.650	-0.136	0.091
-70.465	312.147	-0.128	0.234
-69.451	800.000	-0.119	0.324
-68.436	-128.979	-0.167	0.023
-67.422	-38.836	-0.251	-0.129
-66.407	-15.442	-0.130	-0.081
-65.392	-101.690	0.309	-0.073
-64.378	-48.381	-0.107	0.050
-63.363	-136.326	0.311	-0.035
-62.349	-149.362	0.126	-0.010
-61.334	50.946	-1.035	-0.957
-60.319	800.000	0.333	1.112
-59.305	266.238	-0.853	-1.454
-58.290	437.454	0.671	1.427
-57.276	141.322	0.938	1.212
-56.261	-200.000	125.302	670.608
-55.246	428.387	1572.825	3314.537
-54.232	142.984	2724.416	3534.389
-53.217	96.720	2149.130	2401.651
-52.203	34.811	1583.897	1351.534
-51.188	26.458	1329.219	1084.351
-50.173	24.015	1290.730	1038.673
-49.159	52.002	1361.409	1264.834
-48.144	48.839	1372.466	1256.085
-47.130	26.703	1320.213	1078.288
-46.115	23.514	1300.764	1043.633
-45.100	23.184	1296.464	1038.204
-44.086	23.176	1293.362	1035.633
-43.071	23.132	1291.349	1033.724
-42.057	22.949	1289.528	1031.157
-41.042	23.076	1287.827	1030.494
-40.027	23.210	1286.312	1030.020
-39.013	23.161	1284.165	1027.979
-37.998	23.311	1282.112	1027.161
-36.984	23.232	1280.874	1025.672
-35.969	23.223	1279.148	1024.199
-34.954	23.219	1277.959	1023.179
-33.940	23.225	1276.401	1021.926
-32.925	23.344	1274.756	1021.255
-31.911	23.236	1273.758	1019.794
-30.896	23.345	1272.079	1019.035
-29.881	23.380	1270.681	1018.076
-28.867	23.356	1270.023	1017.372
-27.852	23.374	1268.078	1015.878
-26.838	23.432	1266.535	1014.935
-25.823	23.389	1265.850	1014.099
-24.809	23.307	1264.739	1012.698
-23.794	23.359	1262.864	1011.454
-22.779	23.282	1261.913	1010.215
-21.765	23.363	1260.109	1009.189
-20.750	23.368	1258.553	1007.931
-19.736	23.280	1257.673	1006.685
-18.721	23.171	1256.566	1005.140
-17.706	23.214	1255.430	1004.440
-16.692	23.173	1254.554	1003.461
-15.677	23.154	1253.386	1002.384
-14.663	23.156	1251.985	1001.235
-13.648	23.168	1250.926	1000.417
-12.633	23.216	1250.345	1000.182
-11.619	23.153	1249.520	999.125
-10.604	23.234	1248.627	998.829
-9.590	23.271	1247.858	998.386
-8.575	23.123	1246.871	996.717
-7.560	23.251	1245.390	996.216
-6.546	23.130	1245.271	995.403
-5.531	23.125	1244.343	994.595
-4.517	23.207	1243.430	994.285
-3.502	23.232	1242.477	993.625
-2.487	23.193	1241.582	992.648
-1.473	23.157	1237.310	988.992
-0.458	21.548	1222.625	968.324
0.556	16.441	1207.502	931.852
1.571	12.976	1214.574	917.975
2.586	12.273	1230.545	926.002
3.600	12.354	1217.763	916.752
4.615	9.016	1147.133	845.930
5.629	3.073	1077.382	764.928
6.644	0.315	1060.529	739.381
7.659	0.086	1058.746	736.950
8.673	0.131	1058.097	736.653
9.688	0.147	1056.317	735.427
10.702	0.202	1054.438	734.322
11.717	4.025	1058.062	755.459
12.731	10.876	1067.776	795.967
13.746	15.571	1073.523	823.243
14.761	16.847	1074.288	830.010
15.775	15.995	1072.766	824.589
16.790	15.088	1070.416	818.281
17.804	14.392	1069.074	813.785
18.819	14.131	1067.713	811.402
19.834	13.766	1067.422	809.330
20.848	13.504	1066.413	807.218
21.863	13.343	1065.649	805.782
22.877	13.170	1064.461	803.971
23.892	13.051	1064.596	803.423
24.907	13.099	1063.652	802.873
25.921	13.190	1062.864	802.651
26.936	13.254	1061.688	801.999
27.950	13.169	1061.050	801.035
28.965	13.338	1059.897	800.915
29.980	13.317	1058.747	799.873
30.994	13.433	1057.247	799.225
32.009	13.481	1056.509	798.831
33.023	13.323	1055.798	797.462
34.038	13.277	1054.919	796.505
35.053	13.317	1053.577	795.614
36.067	13.319	1052.160	794.484
37.082	13.265	1051.707	793.810
38.096	13.340	1051.248	793.756
39.111	13.414	1050.191	793.241
40.126	13.344	1049.092	792.006
41.140	13.176	1047.825	790.176
42.155	12.985	1047.142	788.678
43.169	13.102	1045.851	788.194
44.184	13.116	1044.982	787.534
45.199	13.058	1044.153	786.566
46.213	13.095	1043.222	785.969
47.228	13.243	1041.906	785.612
48.242	13.220	1040.489	784.366
49.257	13.219	1039.498	783.544
50.271	13.124	1038.882	782.560
51.286	13.289	1037.978	782.590
52.301	13.229	1037.152	781.614
53.315	13.118	1036.415	780.467
54.330	13.177	1034.965	779.585
55.344	13.227	1034.428	779.345
56.359	13.186	1033.392	778.305
57.374	13.164	1032.573	777.514
58.388	13.100	1032.085	776.777
59.403	13.086	1030.981	775.810
60.417	13.086	1030.146	775.114
61.432	13.075	1029.146	774.244
62.447	13.006	1028.490	773.356
63.461	13.012	1027.602	772.647
64.476	13.158	1026.682	772.573
65.490	12.976	1026.429	771.462
66.505	12.965	1025.785	770.859
67.520	13.113	1024.784	770.729
68.534	13.128	1024.181	770.277
69.549	13.034	1023.976	769.618
70.563	13.081	1022.672	768.784
71.578	13.006	1021.938	767.818
72.593	12.960	1021.358	767.099
73.607	12.964	1020.396	766.327
74.622	13.045	1019.429	765.909
75.636	12.978	1018.830	765.083
76.651	13.100	1017.911	764.890
77.666	13.033	1017.735	764.380
78.680	13.130	1016.829	764.077
79.695	12.998	1016.920	763.467
80.709	13.033	1015.928	762.820
81.724	13.217	1015.217	763.069
82.739	13.251	1014.402	762.546
83.753	13.201	1013.415	761.506
84.768	13.360	1012.594	761.550
85.782	13.277	1011.893	760.577
86.797	13.293	1011.012	759.919
87.812	13.234	1010.098	758.895
88.826	13.149	1009.180	757.748
89.841	13.331	1007.700	757.404
90.855	13.407	1007.207	757.312
91.870	13.351	1006.416	756.398
92.884	13.210	1005.502	754.999
93.899	13.329	1004.721	754.886
94.914	13.393	1003.813	754.432
95.928	13.473	1002.461	753.713
96.943	13.263	1002.299	752.569
97.957	13.264	1001.447	751.867
98.972	13.482	1000.476	752.061
99.987	13.224	999.679	750.225
101.001	13.348	998.538	749.862
102.016	13.337	997.750	749.155
103.030	13.351	997.149	748.701
104.045	13.311	996.191	747.733
105.060	13.287	995.300	746.891
106.074	13.155	994.856	745.896
107.089	13.266	993.100	745.015
108.103	13.324	992.421	744.700
109.118	13.123	991.393	742.960
110.133	13.181	990.874	742.765
111.147	13.142	990.131	741.965
112.162	13.134	988.917	740.956
113.176	13.226	988.357	740.883
114.191	13.340	987.484	740.675
115.206	13.343	986.533	739.908
116.220	13.253	985.514	738.677
117.235	13.238	985.120	738.248
118.249	13.269	983.939	737.437
119.264	13.217	983.619	736.898
120.279	13.211	982.548	736.007
121.293	13.299	981.409	735.479
122.308	13.207	981.192	734.843
123.322	13.056	980.605	733.667
124.337	13.081	978.915	732.448
125.352	13.236	977.726	732.180
126.366	13.198	976.875	731.309
127.381	13.200	975.873	730.505
128.395	13.131	975.143	729.587
129.410	13.168	973.927	728.777
130.424	13.189	973.429	728.430
131.439	13.326	972.400	728.200
132.454	13.304	971.370	727.269
133.468	13.219	971.005	726.558
134.483	13.342	969.914	726.217
135.497	13.424	968.572	725.505
136.512	13.347	968.160	724.795
137.527	13.184	967.487	723.515
138.541	13.286	966.849	723.420
139.556	13.273	965.934	722.616
140.570	13.410	965.413	722.761
141.585	13.459	963.747	721.662
142.600	13.409	963.481	721.182
143.614	13.465	962.738	720.806
144.629	13.431	962.195	720.185
145.643	13.497	960.781	719.353
146.658	13.486	959.986	718.643
147.673	13.463	959.037	717.771
148.687	13.317	958.695	716.817
149.702	13.347	957.537	716.021
150.716	13.404	956.961	715.773
151.731	13.303	956.268	714.755
152.746	13.459	955.791	715.007
153.760	13.431	954.674	713.987
154.775	13.454	954.592	713.961
155.789	13.445	953.688	713.185
156.804	13.557	952.834	712.966
157.819	13.539	952.094	712.270
158.833	13.615	951.749	712.277
159.848	13.516	950.738	711.033
160.862	13.686	949.546	710.806
161.877	13.678	948.968	710.276
162.892	13.565	947.643	708.739
163.906	13.506	947.029	707.966
164.921	13.580	946.698	707.972
165.935	13.582	945.376	706.929
166.950	13.617	944.760	706.554
167.964	13.656	943.750	705.901
168.979	13.586	942.740	704.787
169.994	13.634	942.020	704.391
171.008	13.618	941.295	703.719
172.023	13.651	940.712	703.358
173.037	13.820	939.863	703.378
174.052	13.731	939.127	702.387
175.067	13.728	938.617	701.931
176.081	13.823	937.528	701.457
177.096	13.659	937.491	700.672
178.110	13.718	936.828	700.366
179.125	13.724	936.245	699.894
180.140	13.744	936.004	699.735
181.154	13.691	935.319	698.940
182.169	13.799	934.795	698.939
183.183	13.908	933.852	698.633
184.198	13.924	933.076	698.055
185.213	13.867	932.757	697.517
186.227	13.888	932.016	696.990
187.242	13.939	931.584	696.818
188.256	13.991	930.890	696.457
189.271	13.860	929.990	695.171
190.286	13.761	929.169	694.084
191.300	13.609	928.854	693.151
192.315	13.789	927.958	693.171
193.329	13.734	927.367	692.439
194.344	13.783	926.822	692.176
195.359	13.911	926.160	692.155
196.373	13.898	925.367	691.446
197.388	14.046	924.716	691.515
198.402	14.073	924.479	691.390
199.417	14.010	923.993	690.700
200.432	14.028	923.235	690.147
201.446	14.167	922.827	690.361
202.461	14.164	922.385	689.954
203.475	14.228	921.502	689.499
204.490	14.169	920.607	688.522
205.504	14.084	920.096	687.729
206.519	14.203	919.298	687.562
207.534	14.095	918.569	686.511
208.548	14.119	917.881	686.037
209.563	14.042	917.916	685.681
210.577	14.148	916.861	685.273
211.592	14.433	915.646	685.474
212.607	14.290	915.205	684.495
213.621	14.136	915.062	683.698
214.636	14.179	913.925	682.960
215.650	14.284	913.200	682.792
216.665	14.293	912.743	682.425
217.680	14.399	911.967	682.219
218.694	14.380	911.129	681.455
219.709	14.359	910.306	680.694
220.723	14.387	909.718	680.309
221.738	14.378	909.310	679.904
222.753	14.390	908.492	679.281
223.767	14.464	907.619	678.870
224.782	14.448	907.395	678.576
225.796	14.464	906.836	678.164
226.811	14.396	906.241	677.383
227.826	14.352	905.826	676.834
228.840	14.316	905.027	676.030
229.855	14.439	903.871	675.606
230.869	14.439	903.319	675.134
231.884	14.469	902.612	674.666
232.899	14.472	901.727	673.959
233.913	14.443	901.329	673.483
234.928	14.567	900.326	673.174
235.942	14.438	900.023	672.371
236.957	14.636	898.879	672.254
237.972	14.486	898.766	671.506
238.986	14.378	898.332	670.684
240.001	14.579	897.588	670.878
241.015	14.543	897.022	670.252
242.030	14.624	896.271	669.958
243.045	14.593	896.012	669.580
244.059	14.594	895.347	669.026
245.074	14.628	894.610	668.555
246.088	14.683	893.770	668.088
247.103	14.726	893.128	667.719
248.117	14.694	893.027	667.457
249.132	14.819	892.137	667.232
250.147	14.785	891.533	666.587
251.161	14.834	890.811	666.181
252.176	14.966	890.085	666.107
253.190	14.910	889.654	665.503
254.205	14.789	889.111	664.554
255.220	14.903	888.408	664.426
256.234	15.060	887.243	664.118
257.249	14.942	887.036	663.437
258.263	15.025	886.251	663.118
259.278	15.037	885.428	662.491
260.293	14.995	885.356	662.214
261.307	14.975	884.669	661.560
262.322	15.173	883.588	661.476
263.336	15.050	882.958	660.462
264.351	15.128	882.026	660.015
265.366	15.219	881.507	659.925
266.380	15.165	881.228	659.447
267.395	15.081	880.339	658.391
268.409	15.194	879.161	657.897
269.424	15.177	878.669	657.401
270.439	15.212	878.059	657.026
271.453	15.227	877.454	656.571
272.468	15.143	877.334	656.096
273.482	15.201	876.428	655.587
274.497	15.223	875.708	655.076
275.512	15.248	875.021	654.604
276.526	15.224	874.785	654.274
277.541	15.302	874.532	654.332
278.555	15.275	873.871	653.672
279.570	15.279	873.144	653.088
280.585	15.460	872.088	652.942
281.599	15.411	871.050	651.919
282.614	15.470	870.452	651.644
283.628	15.416	870.132	651.135
284.643	15.424	869.716	650.797
285.657	15.363	869.554	650.383
286.672	15.372	868.497	649.569
287.687	15.630	867.298	649.615
288.701	15.478	867.188	648.884
289.716	15.416	866.825	648.315
290.730	15.410	866.057	647.664
291.745	15.446	865.386	647.240
292.760	15.527	864.674	646.963
293.774	15.570	864.256	646.760
294.789	15.538	863.637	646.118
295.803	15.709	862.684	646.001
296.818	15.431	862.200	644.515
297.833	15.476	861.484	644.095
298.847	15.488	861.057	643.766
299.862	15.668	860.281	643.817
300.876	15.757	859.188	643.282
301.891	15.723	859.117	643.044
302.906	15.648	858.709	642.395
303.920	15.738	858.070	642.204
304.935	15.937	857.221	642.271
305.949	15.799	857.096	641.592
306.964	15.775	856.451	640.960
307.979	15.900	855.874	640.951
308.993	15.863	855.281	640.309
310.008	15.919	854.280	639.714
311.022	15.840	854.014	639.158
312.037	15.759	853.428	638.355
313.052	15.788	852.787	637.930
314.066	15.803	852.551	637.753
315.081	15.942	851.322	637.306
316.095	15.734	851.083	636.283
317.110	15.789	850.671	636.128
318.125	15.906	850.101	636.087
319.139	15.796	849.766	635.364
320.154	15.891	849.469	635.446
321.168	15.929	848.620	634.897
322.183	16.091	847.594	634.682
323.197	15.978	847.588	634.197
324.212	15.967	847.137	633.762
325.227	15.935	846.694	633.253
326.241	15.995	845.736	632.705
327.256	15.999	845.024	632.134
328.270	16.073	844.598	632.034
329.285	16.042	844.035	631.441
330.300	16.068	843.214	630.867
331.314	15.918	843.220	630.256
332.329	16.015	842.630	630.121
333.343	16.136	842.284	630.260
334.358	16.019	841.575	629.235
335.373	15.982	841.661	629.106
336.387	16.114	840.821	628.917
337.402	16.084	841.258	629.075
338.416	16.172	840.412	628.715
339.431	16.239	840.092	628.671
340.446	16.347	839.206	628.353
341.460	16.327	839.032	628.094
342.475	16.328	838.603	627.718
343.489	16.271	838.116	627.086
344.504	16.493	837.666	627.518
345.519	16.317	837.308	626.544
346.533	16.369	836.822	626.314
347.548	16.368	836.400	625.942
348.562	16.359	835.239	624.986
349.577	16.314	835.170	624.712
350.592	16.258	834.583	624.009
351.606	16.192	834.402	623.576
352.621	16.430	832.832	623.223
353.635	16.468	832.283	622.897
354.650	16.462	831.841	622.489
355.665	16.283	831.416	621.457
356.679	16.397	830.766	621.337
357.694	16.372	830.125	620.711
358.708	16.549	829.350	620.725
359.723	16.405	828.972	619.859
360.738	16.600	828.493	620.160
361.752	16.496	827.631	619.080
362.767	16.540	827.191	618.858
363.781	16.627	826.783	618.815
364.796	16.676	826.099	618.428
365.810	16.748	825.772	618.390
366.825	16.607	825.995	617.988
367.840	16.659	824.901	617.304
368.854	16.708	824.527	617.150
369.869	16.827	823.735	616.934
370.883	16.846	823.249	616.585
371.898	16.876	823.253	616.641
372.913	16.865	822.795	616.204
373.927	16.899	822.029	615.699
374.942	16.852	821.807	615.310
375.956	16.837	821.571	615.025
376.971	17.034	820.676	615.015
377.986	17.223	820.016	615.150
379.000	16.831	820.322	613.905
380.015	16.995	819.515	613.839
381.029	17.055	819.002	613.617
382.044	17.048	818.787	613.377
383.059	17.064	817.405	612.346
384.073	17.085	817.269	612.264
385.088	17.087	816.307	611.495
386.102	17.022	816.254	611.169
387.117	17.018	815.406	610.465
388.132	16.958	815.242	610.072
389.146	17.105	814.508	609.997
390.161	17.151	814.009	609.734
391.175	17.059	813.392	608.888
392.190	17.158	813.213	609.057
393.205	17.168	812.569	608.557
394.219	17.077	812.572	608.177
395.234	17.083	811.858	607.613
396.248	16.975	811.518	606.916
397.263	16.945	811.041	606.401
398.278	17.121	810.557	606.612
399.292	16.986	810.179	605.795
400.307	17.159	809.794	606.071
401.321	17.203	809.377	605.862
402.336	17.159	808.682	605.132
403.350	17.210	808.109	604.831
404.365	17.222	807.798	604.586
405.380	17.412	807.448	604.947
406.394	17.408	806.659	604.286
407.409	17.302	806.481	603.726
408.423	17.388	806.304	603.843
409.438	17.304	806.026	603.283
410.453	17.413	805.307	603.079
411.467	17.539	804.899	603.167
412.482	17.434	804.720	602.607
413.496	17.372	804.089	601.860
414.511	17.526	803.901	602.213
415.526	17.529	803.329	601.742
416.540	17.673	802.505	601.578
417.555	17.557	801.956	600.705
418.569	17.615	802.040	600.920
419.584	17.468	801.834	600.195
420.599	17.577	801.274	600.104
421.613	113.900	1298.612	1487.174
422.628	98.217	1371.046	1487.243
