DTS Sentinel unit serial number:	SN413079Multiplexer serial number:	ORYXHardware model number:	OX4-SRSoftware version number:	ORYX F/W v4.00 Oryx Data Collector v3.7.2.0data status	okinstallation	princeton_trtdifferential loss correction	single-endedforward channel	channel 1reverse channel	N/Adate	2019/09/17time	14:54:35forward acquisition time	60.00reverse acquisition time	0.00gamma	496.2192k internal	0.2296k external	0.2296temperature offset calibration	0.9971default loss term (dB/km)	0.3790temperature slope calibration	1.0000multiplexer offset coefficient	1.0000multiplexer slope coefficient	1.0000fibre end	0.00T internal ref (°C)	37.20T ext. ref 1 (°C)	0.39T ext. ref 2 (°C)	34.24length (m)	temperature (°C)	Stokes	anti-Stokes-747.200	-200.000	0.026	0.286
-746.185	-89.049	0.156	0.047
-745.171	305.290	-0.156	0.296
-744.156	91.806	-0.062	0.071
-743.142	-46.511	-0.244	-0.123
-742.127	-69.088	0.032	0.012
-741.112	61.634	-0.173	-0.176
-740.098	0.033	-0.095	-0.069
-739.083	0.752	0.263	-0.192
-738.069	-19.118	0.278	0.176
-737.054	261.929	0.100	0.177
-736.039	546.576	0.084	0.205
-735.025	-54.276	0.244	-0.113
-734.010	-200.000	-0.052	-0.334
-732.996	-200.000	-0.018	0.407
-731.981	-200.000	-0.009	-0.059
-730.966	159.805	0.046	-0.065
-729.952	372.724	-0.091	0.188
-728.937	-200.000	-0.048	0.389
-727.923	-176.707	0.250	-0.007
-726.908	-64.993	0.283	-0.117
-725.894	251.948	0.099	0.172
-724.879	-132.591	0.428	0.056
-723.864	-59.718	-0.237	0.104
-722.850	-147.599	0.110	-0.009
-721.835	623.131	0.221	-0.569
-720.821	-157.219	-0.389	0.024
-719.806	-78.283	-0.258	0.090
-718.791	0.036	-0.246	-0.179
-717.777	193.351	0.070	0.108
-716.762	77.208	0.210	0.227
-715.748	-30.644	-0.242	-0.140
-714.733	375.795	-0.112	0.233
-713.718	652.420	0.040	-0.105
-712.704	-103.668	0.158	-0.038
-711.689	-21.752	0.176	-0.109
-710.675	800.000	0.060	-0.244
-709.660	309.441	-0.125	0.239
-708.645	59.433	-0.096	-0.097
-707.631	800.000	0.055	0.216
-706.616	12.720	0.087	0.068
-705.602	98.261	-0.078	0.091
-704.587	-99.216	0.178	0.046
-703.572	-100.028	0.262	-0.067
-702.558	-130.287	-0.363	-0.050
-701.543	-200.000	-0.004	-0.043
-700.529	-90.079	0.252	-0.075
-699.514	-79.453	0.083	0.029
-698.499	784.753	-0.067	-0.186
-697.485	457.887	0.055	-0.126
-696.470	584.270	-0.023	0.057
-695.456	-13.278	-0.219	-0.145
-694.441	460.006	0.095	-0.215
-693.426	18.403	-0.188	0.153
-692.412	-112.158	-0.285	-0.058
-691.397	-106.705	-0.253	0.057
-690.383	106.482	0.110	-0.133
-689.368	502.154	-0.070	-0.164
-688.354	-174.390	-0.282	-0.008
-687.339	800.000	-0.022	-0.096
-686.324	-200.000	0.004	0.427
-685.310	302.188	0.024	0.044
-684.295	32.239	0.128	0.113
-683.281	-200.000	0.037	-0.224
-682.266	183.630	-0.090	0.136
-681.251	800.000	0.092	-0.304
-680.237	-200.000	0.053	-0.321
-679.222	535.893	-0.113	-0.274
-678.208	800.000	0.040	-0.131
-677.193	-79.149	0.154	0.053
-676.178	-147.477	-0.114	0.010
-675.164	800.000	-0.034	0.108
-674.149	-46.551	0.280	0.140
-673.135	-52.802	0.109	0.051
-672.120	-107.374	0.090	0.020
-671.105	-130.678	-0.049	0.007
-670.091	207.379	-0.014	-0.021
-669.076	-42.147	0.234	-0.122
-668.062	-200.000	0.020	-0.354
-667.047	470.459	0.085	-0.194
-666.032	-200.000	0.020	0.344
-665.018	457.806	-0.166	-0.375
-664.003	657.517	0.093	-0.244
-662.989	-26.735	-0.228	0.136
-661.974	-96.875	-0.396	-0.106
-660.959	-114.234	0.320	-0.063
-659.945	596.833	0.090	0.227
-658.930	800.000	0.064	-0.183
-657.916	-200.000	0.020	0.132
-656.901	-200.000	0.011	0.194
-655.886	800.000	-0.053	-0.161
-654.872	97.834	-0.018	0.021
-653.857	215.456	-0.120	-0.195
-652.843	800.000	0.153	-0.438
-651.828	-200.000	0.040	-0.210
-650.814	-143.481	-0.224	-0.022
-649.799	-43.546	-0.241	0.124
-648.784	-200.000	-0.005	-0.155
-647.770	-25.233	-0.084	-0.051
-646.755	-200.000	0.029	-0.164
-645.741	-200.000	0.046	-0.274
-644.726	296.300	0.026	0.048
-643.711	123.981	0.094	0.120
-642.697	800.000	0.032	0.139
-641.682	359.117	-0.111	0.226
-640.668	-200.000	0.004	-0.228
-639.653	143.139	0.180	0.243
-638.638	-168.593	-0.214	-0.008
-637.624	796.733	0.026	-0.074
-636.609	-27.769	0.201	0.119
-635.595	-200.000	-0.021	-0.221
-634.580	163.265	-0.149	-0.213
-633.565	-200.000	0.021	-0.100
-632.551	-200.000	0.011	-0.110
-631.536	-88.096	0.159	0.049
-630.522	-130.744	0.120	-0.016
-629.507	104.911	-0.109	0.131
-628.492	236.926	0.100	0.169
-627.478	-200.000	-0.001	-0.055
-626.463	-10.740	-0.076	0.051
-625.449	-44.159	0.098	-0.050
-624.434	451.670	-0.030	-0.068
-623.419	-138.997	-0.139	0.015
-622.405	-101.233	-0.214	0.053
-621.390	41.629	-0.161	-0.148
-620.376	524.749	-0.142	-0.339
-619.361	213.289	-0.162	-0.261
-618.346	252.056	-0.189	0.328
-617.332	-200.000	-0.009	-0.087
-616.317	53.858	-0.138	-0.135
-615.303	-101.255	0.240	0.060
-614.288	800.000	-0.049	-0.142
-613.273	-200.000	-0.035	-0.209
-612.259	-200.000	-0.030	0.494
-611.244	800.000	-0.086	-0.286
-610.230	-27.606	-0.220	-0.130
-609.215	800.000	0.111	-0.470
-608.201	800.000	0.043	0.176
-607.186	-200.000	0.018	-0.105
-606.171	-100.357	0.183	-0.046
-605.157	-144.480	0.082	0.008
-604.142	90.311	0.090	-0.103
-603.128	-200.000	0.018	0.354
-602.113	387.730	0.092	0.193
-601.098	97.521	0.240	0.280
-600.084	46.787	-0.131	-0.124
-599.069	-200.000	0.011	-0.101
-598.055	-81.656	0.262	-0.087
-597.040	-200.000	-0.018	0.170
-596.025	-43.869	-0.103	0.053
-595.011	-89.859	-0.024	0.007
-593.996	-40.855	-0.200	-0.105
-592.982	-49.774	-0.135	-0.065
-591.967	-200.000	-0.024	-0.173
-590.952	800.000	0.026	-0.076
-589.938	94.417	0.077	0.088
-588.923	-200.000	0.014	0.358
-587.909	267.164	0.021	-0.037
-586.894	-11.556	0.277	-0.185
-585.879	354.333	-0.132	-0.267
-584.865	29.452	-0.159	0.137
-583.850	800.000	0.067	-0.240
-582.836	169.560	0.108	-0.157
-581.821	350.243	0.098	-0.196
-580.806	-160.286	-0.430	-0.024
-579.792	731.969	0.022	0.059
-578.777	-109.229	0.137	0.030
-577.763	-31.656	-0.253	0.144
-576.748	74.440	-0.081	-0.087
-575.733	-62.580	-0.070	-0.030
-574.719	-62.618	-0.114	-0.048
-573.704	7.365	0.225	-0.170
-572.690	-153.241	-0.376	-0.027
-571.675	-53.852	0.465	-0.215
-570.661	665.214	0.102	0.268
-569.646	-129.848	0.185	0.026
-568.631	-108.876	-0.228	0.049
-567.617	-41.035	-0.044	-0.023
-566.602	-0.534	0.083	0.060
-565.588	267.267	-0.171	0.303
-564.573	-109.239	0.356	0.077
-563.558	-31.561	-0.275	-0.157
-562.544	712.857	-0.060	-0.160
-561.529	-61.298	0.413	-0.176
-560.515	-111.869	-0.224	0.046
-559.500	-200.000	-0.006	0.221
-558.485	-42.137	0.061	0.031
-557.471	460.776	0.085	-0.191
-556.456	-28.396	-0.031	0.018
-555.442	298.617	-0.178	0.333
-554.427	109.964	-0.158	0.192
-553.412	68.151	-0.087	-0.090
-552.398	-68.480	0.391	-0.154
-551.383	-53.514	0.417	-0.193
-550.369	-200.000	-0.002	0.231
-549.354	183.507	-0.099	0.149
-548.339	248.397	-0.185	-0.318
-547.325	800.000	-0.095	0.295
-546.310	-107.922	-0.149	-0.033
-545.296	-104.179	0.296	0.070
-544.281	744.273	-0.055	0.151
-543.266	800.000	-0.038	0.131
-542.252	-49.207	0.140	-0.068
-541.237	-114.408	0.224	-0.044
-540.223	-200.000	-0.027	-0.163
-539.208	-200.000	-0.039	0.330
-538.193	347.012	-0.080	-0.159
-537.179	-200.000	0.059	-0.439
-536.164	35.682	-0.310	-0.276
-535.150	-171.741	0.125	-0.004
-534.135	-156.349	-0.053	-0.003
-533.121	-200.000	0.007	-0.109
-532.106	-187.487	-0.316	-0.004
-531.091	-85.906	-0.420	-0.132
-530.077	-175.933	-0.089	0.002
-529.062	171.152	-0.104	-0.151
-528.048	-106.203	-0.187	0.042
-527.033	-125.499	0.362	-0.056
-526.018	-103.422	0.164	-0.039
-525.004	-105.426	-0.357	-0.082
-523.989	-158.340	0.050	-0.003
-522.975	-200.000	0.012	-0.285
-521.960	4.596	0.229	0.170
-520.945	-110.715	-0.193	0.040
-519.931	-106.473	-0.074	-0.017
-518.916	191.180	-0.060	-0.091
-517.902	-200.000	0.010	0.066
-516.887	257.609	-0.073	0.127
-515.872	-74.669	-0.242	0.088
-514.858	-119.635	-0.166	0.029
-513.843	29.478	-0.115	0.099
-512.829	60.026	-0.109	-0.110
-511.814	-47.775	-0.116	-0.057
-510.799	-144.938	0.258	0.024
-509.785	20.376	-0.058	-0.048
-508.770	283.790	-0.214	0.389
-507.756	136.987	-0.198	-0.262
-506.741	11.708	0.118	0.092
-505.726	687.727	-0.076	0.202
-504.712	417.398	0.121	0.261
-503.697	-130.213	0.168	-0.023
-502.683	137.250	0.163	0.216
-501.668	276.996	-0.038	0.068
-500.653	-200.000	0.029	-0.239
-499.639	118.185	0.239	0.298
-498.624	223.220	0.118	0.193
-497.610	86.901	0.069	-0.077
-496.595	343.918	-0.159	0.316
-495.581	327.441	0.163	-0.317
-494.566	420.701	0.082	-0.177
-493.551	233.969	-0.141	-0.235
-492.537	8.047	0.316	-0.240
-491.522	800.000	0.022	0.078
-490.508	800.000	-0.071	-0.277
-489.493	268.710	-0.120	0.214
-488.478	-88.821	-0.245	-0.074
-487.464	-53.274	-0.177	0.082
-486.449	86.422	0.104	0.116
-485.435	800.000	0.036	-0.135
-484.420	46.711	-0.305	0.287
-483.405	459.890	-0.055	0.124
-482.391	-4.500	0.188	-0.131
-481.376	26.572	-0.079	-0.066
-480.362	-50.637	-0.106	-0.050
-479.347	800.000	0.046	-0.138
-478.332	-122.824	0.185	0.030
-477.318	306.191	-0.184	0.347
-476.303	-130.586	-0.455	0.062
-475.289	-41.290	0.246	0.128
-474.274	-200.000	0.061	-0.288
-473.259	-200.000	0.045	0.262
-472.245	-200.000	-0.014	0.546
-471.230	88.792	-0.145	0.163
-470.216	43.429	0.276	0.255
-469.201	-200.000	-0.017	0.106
-468.186	-137.785	0.327	-0.037
-467.172	185.763	0.066	-0.099
-466.157	-95.719	-0.124	-0.033
-465.143	14.372	-0.044	-0.035
-464.128	-200.000	-0.011	0.107
-463.113	800.000	-0.004	-0.013
-462.099	496.483	0.092	-0.215
-461.084	-200.000	0.030	0.136
-460.070	-45.934	-0.082	-0.041
-459.055	3.391	0.328	0.242
-458.040	36.476	-0.055	-0.049
-457.026	268.819	0.152	0.269
-456.011	35.387	0.169	0.150
-454.997	-200.000	0.017	-0.369
-453.982	-99.135	0.360	-0.092
-452.968	171.271	-0.167	0.243
-451.953	-59.616	-0.245	-0.106
-450.938	-200.000	0.047	-0.215
-449.924	71.855	-0.095	-0.100
-448.909	-4.333	0.237	-0.165
-447.895	205.162	0.084	-0.131
-446.880	-200.000	-0.007	0.168
-445.865	-29.998	-0.274	0.157
-444.851	-8.348	0.200	0.136
-443.836	239.087	0.103	0.173
-442.822	-200.000	-0.037	0.166
-441.807	21.657	0.087	0.072
-440.792	0.703	-0.217	0.157
-439.778	130.995	-0.112	-0.145
-438.763	-11.489	0.103	-0.068
-437.749	-130.063	-0.117	0.016
-436.734	-200.000	-0.064	-0.346
-435.719	-90.082	0.098	0.029
-434.705	-175.018	0.101	0.003
-433.690	104.024	-0.148	0.176
-432.676	189.198	-0.060	0.090
-431.661	57.208	-0.201	0.198
-430.646	11.603	0.184	-0.143
-429.632	733.909	0.092	-0.249
-428.617	-200.000	0.038	0.250
-427.603	-200.000	0.005	0.148
-426.588	32.792	0.117	-0.103
-425.573	549.727	0.048	-0.116
-424.559	-76.443	-0.325	-0.115
-423.544	176.514	-0.112	-0.165
-422.530	-54.510	0.370	-0.169
-421.515	-154.778	0.162	-0.011
-420.500	598.686	-0.092	-0.230
-419.486	15.178	0.344	-0.272
-418.471	-63.666	-0.256	-0.106
-417.457	372.277	0.090	0.184
-416.442	-131.223	0.248	0.033
-415.428	50.585	0.260	0.248
-414.413	-200.000	-0.069	0.342
-413.398	-200.000	-0.023	0.147
-412.384	-200.000	-0.016	-0.200
-411.369	-91.159	-0.089	-0.026
-410.355	-98.434	0.339	0.087
-409.340	280.893	-0.088	-0.159
-408.325	-37.471	-0.317	0.171
-407.311	20.673	0.147	0.120
-406.296	-200.000	0.032	0.178
-405.282	777.716	-0.192	0.529
-404.267	800.000	0.064	0.264
-403.252	238.734	0.074	-0.125
-402.238	143.002	0.033	-0.044
-401.223	-200.000	0.012	-0.117
-400.209	122.983	0.105	-0.132
-399.194	-17.548	-0.025	0.016
-398.179	74.175	-0.118	-0.125
-397.165	-55.719	-0.319	-0.144
-396.150	47.424	-0.248	-0.233
-395.136	-43.714	0.217	-0.110
-394.121	6.100	-0.231	-0.172
-393.106	651.326	-0.082	0.212
-392.092	-128.816	0.196	0.028
-391.077	0.069	0.078	-0.056
-390.063	-200.000	-0.044	0.221
-389.048	42.397	0.118	0.108
-388.033	-127.767	-0.245	-0.036
-387.019	39.668	0.044	-0.040
-386.004	133.087	-0.128	-0.166
-384.990	-145.689	0.119	-0.011
-383.975	-9.047	-0.104	-0.070
-382.960	800.000	-0.039	0.123
-381.946	-75.407	-0.255	0.092
-380.931	121.823	-0.066	0.083
-379.917	763.534	-0.039	0.108
-378.902	-123.409	0.237	0.038
-377.888	286.828	-0.073	-0.132
-376.873	53.155	-0.186	0.180
-375.858	-6.082	0.142	0.098
-374.844	303.305	0.090	-0.168
-373.829	-66.800	0.225	-0.089
-372.815	-119.007	-0.150	-0.026
-371.800	-132.584	0.155	-0.020
-370.785	45.886	0.073	-0.068
-369.771	-119.099	0.147	0.026
-368.756	-145.969	-0.193	-0.017
-367.742	-200.000	0.018	-0.355
-366.727	-200.000	0.031	-0.178
-365.712	-118.351	-0.122	-0.022
-364.698	-28.941	-0.127	-0.073
-363.683	-106.051	-0.539	0.122
-362.669	-200.000	0.084	0.426
-361.654	290.260	-0.135	-0.247
-360.639	800.000	-0.067	-0.193
-359.625	-44.000	-0.296	-0.150
-358.610	-200.000	-0.029	-0.266
-357.596	-33.981	0.211	0.117
-356.581	-59.097	0.153	0.066
-355.566	800.000	-0.084	0.294
-354.552	326.841	0.069	-0.133
-353.537	68.275	0.126	0.130
-352.523	31.709	-0.371	0.322
-351.508	206.030	0.082	-0.128
-350.493	484.499	-0.055	0.127
-349.479	132.176	-0.180	0.233
-348.464	-200.000	0.047	0.235
-347.450	-200.000	-0.006	-0.186
-346.435	-200.000	0.030	0.266
-345.420	-200.000	0.056	0.252
-344.406	173.736	-0.112	0.163
-343.391	-200.000	0.033	-0.378
-342.377	-104.733	0.245	-0.057
-341.362	-55.647	-0.260	0.117
-340.348	-103.016	-0.130	0.031
-339.333	-200.000	0.005	0.159
-338.318	103.007	-0.257	-0.303
-337.304	800.000	0.043	0.176
-336.289	-200.000	0.022	0.220
-335.275	-29.239	0.255	-0.147
-334.260	50.950	-0.150	0.143
-333.245	-107.821	-0.230	0.050
-332.231	-200.000	0.012	0.182
-331.216	-57.215	-0.092	0.041
-330.202	740.279	0.124	0.334
-329.187	-200.000	-0.029	0.300
-328.172	-200.000	-0.043	-0.201
-327.158	-182.942	0.156	-0.003
-326.143	121.682	0.201	0.252
-325.129	800.000	0.097	0.288
-324.114	27.223	-0.366	-0.309
-323.099	270.950	0.039	-0.068
-322.085	160.961	-0.126	0.177
-321.070	-117.338	0.187	-0.034
-320.056	26.399	-0.132	0.111
-319.041	110.662	0.155	-0.187
-318.026	-200.000	0.015	-0.197
-317.012	-200.000	-0.000	-0.230
-315.997	388.147	-0.103	-0.215
-314.983	-53.500	0.497	0.228
-313.968	599.365	0.063	0.158
-312.953	-156.033	0.259	0.016
-311.939	-200.000	-0.038	-0.308
-310.924	44.173	-0.292	0.269
-309.910	-140.861	-0.139	-0.014
-308.895	0.988	-0.079	0.057
-307.880	-106.776	0.360	-0.080
-306.866	800.000	0.038	-0.152
-305.851	-76.672	0.332	0.117
-304.837	623.632	-0.059	0.150
-303.822	37.922	-0.026	-0.023
-302.807	-85.390	-0.082	-0.026
-301.793	-124.664	0.177	-0.028
-300.778	-170.969	0.212	-0.007
-299.764	59.362	-0.090	0.089
-298.749	800.000	-0.079	-0.222
-297.735	-178.958	-0.413	0.009
-296.720	-67.796	-0.281	0.110
-295.705	-200.000	0.005	-0.156
-294.691	800.000	0.012	-0.035
-293.676	-68.359	0.117	-0.046
-292.662	277.511	0.080	0.144
-291.647	-108.908	-0.174	-0.037
-290.632	-200.000	0.053	0.239
-289.618	-30.798	-0.233	-0.132
-288.603	-174.295	0.358	0.010
-287.589	-44.432	0.102	-0.051
-286.574	0.428	0.240	-0.172
-285.559	-200.000	0.060	-0.352
-284.545	275.003	0.114	-0.203
-283.530	207.525	0.101	0.158
-282.516	800.000	0.048	-0.152
-281.501	205.755	0.089	-0.139
-280.486	226.631	0.055	0.090
-279.472	23.086	-0.150	-0.124
-278.457	157.045	0.102	0.142
-277.443	-23.655	0.107	-0.064
-276.428	-131.636	0.218	0.029
-275.413	-200.000	-0.029	-0.250
-274.399	-200.000	-0.019	-0.195
-273.384	-200.000	0.045	-0.252
-272.370	138.356	0.096	-0.126
-271.355	-100.682	0.186	-0.046
-270.340	-200.000	-0.001	0.221
-269.326	-52.794	0.134	-0.062
-268.311	-164.563	0.068	-0.003
-267.297	800.000	0.092	0.316
-266.282	37.385	0.108	-0.096
-265.267	-200.000	-0.017	-0.197
-264.253	-190.660	-0.178	-0.002
-263.238	-200.000	-0.040	0.341
-262.224	59.396	-0.213	0.210
-261.209	-99.134	0.012	-0.003
-260.195	-38.290	0.292	-0.155
-259.180	213.358	-0.171	0.271
-258.165	79.093	-0.138	-0.148
-257.151	533.508	-0.039	-0.093
-256.136	183.030	-0.064	0.095
-255.122	-56.368	0.294	0.131
-254.107	800.000	0.047	-0.134
-253.092	791.766	0.060	-0.166
-252.078	-200.000	0.080	-0.371
-251.063	550.011	-0.097	0.233
-250.049	-4.279	-0.429	-0.298
-249.034	-200.000	0.009	-0.046
-248.019	-109.105	-0.329	-0.070
-247.005	37.301	-0.076	-0.068
-245.990	-110.811	-0.181	-0.037
-244.976	-139.393	-0.297	0.032
-243.961	-35.310	-0.224	0.122
-242.946	-200.000	-0.020	0.314
-241.932	253.800	-0.189	0.323
-240.917	800.000	-0.056	0.193
-239.903	24.532	0.197	0.163
-238.888	-119.133	0.180	-0.031
-237.873	-98.152	0.222	0.057
-236.859	148.682	-0.158	0.214
-235.844	-7.179	0.065	-0.044
-234.830	-200.000	0.019	-0.313
-233.815	-104.029	-0.227	0.053
-232.800	-200.000	-0.005	0.251
-231.786	165.814	-0.227	0.321
-230.771	-200.000	0.000	-0.031
-229.757	800.000	-0.056	-0.157
-228.742	-73.824	-0.339	-0.123
-227.727	-200.000	0.001	-0.321
-226.713	-62.939	0.102	-0.042
-225.698	-111.164	0.011	0.002
-224.684	76.133	0.152	-0.161
-223.669	-177.404	0.248	0.006
-222.655	-2.646	0.142	-0.100
-221.640	-4.169	0.195	0.136
-220.625	-76.767	-0.315	0.110
-219.611	-149.344	0.091	-0.007
-218.596	17.953	-0.172	0.137
-217.582	315.416	0.058	0.109
-216.567	185.206	0.081	0.121
-215.552	-42.143	0.242	-0.124
-214.538	-200.000	0.016	-0.114
-213.523	-5.655	0.325	-0.223
-212.509	-125.148	0.156	0.024
-211.494	-200.000	0.019	0.288
-210.479	-2.779	-0.132	0.092
-209.465	800.000	-0.108	0.314
-208.450	-24.924	0.207	-0.123
-207.436	-200.000	-0.019	0.119
-206.421	463.629	0.104	0.233
-205.406	-19.436	0.129	-0.080
-204.392	-84.181	-0.434	-0.138
-203.377	-151.634	0.148	-0.011
-202.363	433.009	0.066	0.143
-201.348	99.321	0.204	0.236
-200.333	-174.720	0.094	-0.003
-199.319	-200.000	0.028	0.187
-198.304	-200.000	0.030	-0.319
-197.290	-200.000	-0.048	-0.293
-196.275	800.000	0.040	0.114
-195.260	-200.000	0.003	-0.047
-194.246	-33.055	0.159	-0.088
-193.231	-94.102	-0.175	0.048
-192.217	-200.000	0.027	-0.297
-191.202	525.756	0.159	0.374
-190.187	-200.000	0.004	-0.111
-189.173	-45.522	-0.134	-0.066
-188.158	-200.000	-0.016	0.278
-187.144	-200.000	0.006	0.147
-186.129	-187.976	0.310	-0.004
-185.114	-91.856	0.114	-0.032
-184.100	32.038	-0.158	0.136
-183.085	-78.930	-0.080	0.027
-182.071	300.387	0.114	-0.211
-181.056	23.457	-0.068	0.056
-180.042	-67.076	-0.300	0.118
-179.027	321.517	-0.080	-0.153
-178.012	-9.519	-0.112	0.074
-176.998	-200.000	-0.002	-0.231
-175.983	231.809	-0.114	-0.187
-174.969	51.878	-0.187	-0.178
-173.954	-94.394	0.263	0.072
-172.939	-200.000	0.003	-0.206
-171.925	-160.604	-0.114	0.006
-170.910	-200.000	0.070	-0.380
-169.896	119.058	0.233	-0.288
-168.881	-175.734	0.082	-0.002
-167.866	-193.572	-0.226	0.002
-166.852	34.923	0.164	0.143
-165.837	-81.842	0.044	0.014
-164.823	80.872	-0.145	-0.156
-163.808	-200.000	-0.003	0.143
-162.793	-116.211	-0.112	0.021
-161.779	404.331	-0.089	0.187
-160.764	-16.555	0.297	-0.188
-159.750	-86.504	0.190	-0.058
-158.735	6.721	0.207	0.154
-157.720	274.431	0.158	-0.280
-156.706	362.378	0.036	-0.073
-155.691	25.554	0.123	0.102
-154.677	-57.685	0.292	0.128
-153.662	-200.000	0.009	-0.059
-152.647	-16.654	-0.133	-0.084
-151.633	225.838	0.045	-0.073
-150.618	114.143	-0.175	-0.212
-149.604	-200.000	0.002	0.043
-148.589	-200.000	-0.001	0.237
-147.574	441.703	0.171	0.373
-146.560	-65.317	-0.117	-0.047
-145.545	-26.359	0.050	-0.029
-144.531	191.738	0.029	0.044
-143.516	800.000	0.098	0.331
-142.502	57.357	-0.035	0.034
-141.487	-200.000	0.010	0.086
-140.472	-26.679	-0.095	-0.055
-139.458	-42.385	0.220	-0.112
-138.443	-18.355	0.486	0.303
-137.429	800.000	-0.066	-0.268
-136.414	581.727	0.133	-0.325
-135.399	223.779	-0.111	-0.179
-134.385	-200.000	-0.006	0.034
-133.370	40.284	-0.265	0.237
-132.356	-50.366	-0.251	0.118
-131.341	-11.207	0.065	0.043
-130.326	-119.736	0.289	0.050
-129.312	-68.425	-0.129	0.050
-128.297	102.933	-0.210	-0.246
-127.283	90.883	-0.182	-0.204
-126.268	545.778	-0.113	0.269
-125.253	63.541	0.198	0.198
-124.239	-190.289	0.133	-0.001
-123.224	238.877	0.029	-0.048
-122.210	-58.907	0.128	0.055
-121.195	-147.588	-0.194	0.016
-120.180	59.581	-0.081	0.079
-119.166	742.309	-0.087	-0.234
-118.151	-85.127	0.194	-0.061
-117.137	-46.073	0.064	0.031
-116.122	647.806	0.035	-0.090
-115.107	252.018	-0.227	0.385
-114.093	-57.221	0.023	-0.010
-113.078	592.420	-0.050	-0.123
-112.064	-118.373	-0.417	-0.074
-111.049	800.000	-0.083	-0.231
-110.034	287.691	0.026	0.047
-109.020	-112.075	0.275	0.055
-108.005	11.723	-0.264	-0.202
-106.991	147.778	-0.015	-0.021
-105.976	355.042	0.091	-0.181
-104.962	-200.000	-0.055	0.395
-103.947	174.434	0.108	-0.156
-102.932	-200.000	0.006	-0.202
-101.918	-195.853	0.331	-0.002
-100.903	-73.921	0.100	0.036
-99.889	332.425	0.205	0.394
-98.874	800.000	0.027	0.103
-97.859	-178.278	0.147	0.003
-96.845	235.057	-0.174	-0.286
-95.830	691.620	0.127	-0.333
-94.816	-71.676	0.231	-0.086
-93.801	-3.230	0.065	0.045
-92.786	-200.000	-0.039	0.297
-91.772	-4.455	0.282	-0.194
-90.757	-200.000	-0.096	0.480
-89.743	-87.433	-0.337	0.102
-88.728	-24.772	0.188	-0.111
-87.713	311.460	0.164	-0.305
-86.699	-2.509	-0.040	0.028
-85.684	-106.498	0.234	0.052
-84.670	83.794	0.107	-0.116
-83.655	9.382	0.178	-0.134
-82.640	-200.000	-0.060	-0.368
-81.626	800.000	-0.079	-0.272
-80.611	175.247	-0.103	-0.148
-79.597	-92.314	0.490	0.137
-78.582	-87.502	0.210	0.063
-77.567	49.419	-0.162	0.152
-76.553	474.714	-0.091	-0.206
-75.538	-200.000	0.046	-0.283
-74.524	216.956	-0.149	0.236
-73.509	48.255	-0.117	0.109
-72.494	-25.144	0.250	-0.147
-71.480	-103.837	0.473	-0.110
-70.465	331.358	0.035	-0.068
-69.451	800.000	0.048	0.133
-68.436	-200.000	0.019	-0.106
-67.422	142.267	-0.031	-0.041
-66.407	-159.985	0.169	0.009
-65.392	-200.000	0.048	0.336
-64.378	669.768	-0.021	0.055
-63.363	-172.183	0.386	0.012
-62.349	800.000	-0.095	0.385
-61.334	-21.420	-0.946	-0.575
-60.319	800.000	0.105	0.347
-59.305	-200.000	-0.030	-0.766
-58.290	113.295	0.529	0.639
-57.276	319.194	0.656	1.238
-56.261	-200.000	87.160	500.785
-55.246	425.441	1422.831	3048.058
-54.232	140.072	2644.006	3467.983
-53.217	107.784	2254.224	2670.478
-52.203	47.641	1687.605	1565.960
-51.188	40.403	1414.581	1266.524
-50.173	37.237	1370.067	1206.978
-49.159	55.886	1413.073	1362.880
-48.144	60.192	1432.092	1408.339
-47.130	41.110	1389.936	1248.700
-46.115	37.350	1371.968	1209.166
-45.100	37.122	1367.198	1203.497
-44.086	37.085	1364.378	1200.739
-43.071	37.114	1361.855	1198.651
-42.057	36.941	1359.889	1195.806
-41.042	36.977	1358.706	1194.943
-40.027	37.069	1356.971	1193.931
-39.013	37.189	1354.630	1192.565
-37.998	37.116	1352.707	1190.376
-36.984	37.135	1351.038	1188.977
-35.969	37.200	1348.582	1187.163
-34.954	37.243	1347.439	1186.375
-33.940	37.221	1345.637	1184.609
-32.925	37.292	1344.344	1183.854
-31.911	37.228	1343.060	1182.286
-30.896	37.311	1341.251	1181.150
-29.881	37.387	1340.081	1180.534
-28.867	37.234	1339.030	1178.635
-27.852	37.294	1336.917	1177.094
-26.838	37.316	1335.771	1176.169
-25.823	37.375	1334.127	1175.032
-24.809	37.299	1333.013	1173.543
-23.794	37.267	1331.694	1172.143
-22.779	37.357	1329.925	1171.080
-21.765	37.383	1328.460	1169.903
-20.750	37.136	1327.674	1167.678
-19.736	37.185	1325.560	1166.067
-18.721	37.169	1324.824	1165.277
-17.706	37.135	1323.600	1163.952
-16.692	37.156	1322.351	1162.932
-15.677	37.127	1320.970	1161.499
-14.663	37.179	1319.924	1160.841
-13.648	37.178	1318.280	1159.342
-12.633	37.099	1317.678	1158.296
-11.619	37.193	1316.335	1157.632
-10.604	37.036	1316.225	1156.554
-9.590	37.171	1314.925	1156.169
-8.575	37.098	1313.954	1154.833
-7.560	37.194	1312.785	1154.333
-6.546	37.109	1312.123	1153.201
-5.531	37.131	1311.099	1152.385
-4.517	37.131	1310.151	1151.508
-3.502	37.130	1309.514	1150.893
-2.487	37.041	1308.434	1149.369
-1.473	37.212	1304.507	1146.889
-0.458	36.413	1289.458	1128.946
0.556	31.309	1271.741	1088.662
1.571	26.868	1274.685	1065.076
2.586	24.840	1288.270	1064.285
3.600	23.621	1277.032	1047.714
4.615	17.460	1198.840	949.223
5.629	6.443	1114.675	825.084
6.644	0.828	1090.782	778.487
7.659	0.370	1088.446	774.400
8.673	0.132	1088.029	772.812
9.688	0.242	1085.944	771.829
10.702	0.431	1084.440	771.658
11.717	6.375	1093.101	808.337
12.731	15.528	1105.182	864.511
13.746	18.419	1107.516	881.152
14.761	17.289	1105.520	873.684
15.775	16.253	1103.275	866.516
16.790	15.184	1101.460	859.533
17.804	14.549	1099.295	854.512
18.819	14.202	1098.256	851.852
19.834	13.805	1097.609	849.244
20.848	13.570	1096.334	846.983
21.863	13.192	1095.753	844.527
22.877	13.173	1094.871	843.675
23.892	13.129	1094.235	842.885
24.907	13.139	1093.203	842.068
25.921	13.136	1092.863	841.717
26.936	13.278	1091.956	841.667
27.950	13.309	1090.488	840.620
28.965	13.429	1089.381	840.298
29.980	13.442	1088.087	839.292
30.994	13.386	1087.108	838.178
32.009	13.329	1086.106	837.045
33.023	13.375	1085.310	836.587
34.038	13.403	1083.853	835.533
35.053	13.266	1083.406	834.425
36.067	13.433	1081.859	834.001
37.082	13.382	1081.382	833.302
38.096	13.387	1080.856	832.849
39.111	13.360	1080.088	832.046
40.126	13.276	1078.847	830.595
41.140	13.180	1077.805	829.237
42.155	13.179	1076.286	827.992
43.169	13.138	1075.323	826.969
44.184	13.152	1074.034	825.978
45.199	13.117	1073.217	825.101
46.213	13.203	1072.102	824.598
47.228	13.271	1071.054	824.057
48.242	13.233	1069.992	822.979
49.257	13.210	1068.839	821.908
50.271	13.306	1068.085	821.732
51.286	13.394	1067.223	821.435
52.301	13.211	1066.252	819.705
53.315	13.290	1065.036	819.090
54.330	13.242	1064.088	818.048
55.344	13.341	1063.054	817.672
56.359	13.171	1062.797	816.562
57.374	13.228	1061.600	815.848
58.388	13.265	1060.798	815.345
59.403	13.039	1060.192	813.695
60.417	13.112	1059.113	813.152
61.432	13.052	1058.213	812.096
62.447	13.172	1057.239	811.866
63.461	13.111	1056.567	810.975
64.476	13.140	1055.424	810.172
65.490	13.126	1054.683	809.462
66.505	13.047	1054.223	808.647
67.520	13.105	1053.694	808.458
68.534	13.116	1052.661	807.643
69.549	13.170	1051.979	807.317
70.563	13.055	1051.277	806.144
71.578	13.030	1050.486	805.343
72.593	12.999	1049.619	804.456
73.607	12.975	1049.072	803.848
74.622	12.956	1048.590	803.317
75.636	13.055	1047.838	803.152
76.651	13.003	1046.644	801.912
77.666	13.073	1046.023	801.704
78.680	13.051	1045.104	800.822
79.695	13.145	1044.361	800.637
80.709	13.160	1043.863	800.257
81.724	13.119	1043.435	799.661
82.739	13.189	1042.528	799.235
83.753	13.222	1041.488	798.525
84.768	13.392	1040.940	798.853
85.782	13.437	1039.449	797.855
86.797	13.356	1039.241	797.236
87.812	13.276	1037.804	795.680
88.826	13.283	1036.863	794.919
89.841	13.188	1036.113	793.816
90.855	13.269	1035.037	793.313
91.870	13.411	1034.345	793.391
92.884	13.339	1033.704	792.485
93.899	13.384	1032.696	791.859
94.914	13.422	1031.788	791.272
95.928	13.378	1031.269	790.597
96.943	13.299	1030.247	789.364
97.957	13.207	1029.271	788.108
98.972	13.361	1028.219	787.968
99.987	13.344	1027.406	787.193
101.001	13.366	1025.923	786.091
102.016	13.338	1025.415	785.502
103.030	13.230	1025.220	784.768
104.045	13.344	1023.754	784.118
105.060	13.360	1022.746	783.352
106.074	13.280	1021.874	782.235
107.089	13.106	1021.112	780.759
108.103	13.283	1019.868	780.577
109.118	13.302	1019.097	780.008
110.133	13.112	1018.462	778.558
111.147	13.261	1017.132	778.173
112.162	13.263	1016.559	777.674
113.176	13.196	1016.003	776.866
114.191	13.417	1015.078	777.127
115.206	13.268	1014.800	776.146
116.220	13.177	1013.912	774.973
117.235	13.266	1012.569	774.293
118.249	13.168	1012.207	773.489
119.264	13.341	1010.836	773.181
120.279	13.264	1010.261	772.314
121.293	13.244	1009.270	771.395
122.308	13.274	1008.482	770.864
123.322	13.238	1007.616	769.967
124.337	13.160	1006.796	768.906
125.352	13.296	1005.337	768.356
126.366	13.391	1004.266	767.912
127.381	13.363	1003.356	767.020
128.395	13.314	1002.146	765.798
129.410	13.216	1001.617	764.875
130.424	13.238	1000.804	764.288
131.439	13.341	999.835	763.953
132.454	13.444	999.233	763.905
133.468	13.370	998.538	762.964
134.483	13.386	997.489	762.169
135.497	13.456	996.413	761.599
136.512	13.383	995.827	760.748
137.527	13.530	994.683	760.483
138.541	13.398	993.743	759.092
139.556	13.328	993.558	758.563
140.570	13.456	992.675	758.408
141.585	13.442	992.028	757.780
142.600	13.595	990.685	757.387
143.614	13.639	989.469	756.592
144.629	13.569	988.984	755.835
145.643	13.496	988.313	754.922
146.658	13.500	986.969	753.848
147.673	13.451	986.222	752.989
148.687	13.465	985.198	752.202
149.702	13.446	984.080	751.196
150.716	13.486	983.685	751.008
151.731	13.299	983.163	749.699
152.746	13.451	982.184	749.573
153.760	13.500	981.668	749.332
154.775	13.558	981.261	749.217
155.789	13.493	980.737	748.459
156.804	13.518	979.566	747.610
157.819	13.454	979.182	746.964
158.833	13.628	978.360	747.056
159.848	13.641	977.762	746.593
160.862	13.646	976.806	745.818
161.877	13.527	975.614	744.305
162.892	13.402	974.667	742.957
163.906	13.531	973.537	742.610
164.921	13.462	973.037	741.852
165.935	13.659	972.153	741.994
166.950	13.509	971.402	740.684
167.964	13.664	970.219	740.410
168.979	13.600	969.065	739.178
169.994	13.742	967.997	738.930
171.008	13.602	968.070	738.297
172.023	13.818	966.619	738.087
173.037	13.644	966.210	736.936
174.052	13.697	965.503	736.565
175.067	13.680	964.762	735.860
176.081	13.571	964.182	734.868
177.096	13.688	963.806	735.038
178.110	13.565	963.416	734.128
179.125	13.558	962.601	733.414
180.140	13.671	962.116	733.479
181.154	13.654	961.810	733.104
182.169	13.709	961.102	732.742
183.183	13.838	960.314	732.646
184.198	13.883	959.229	731.950
185.213	13.873	958.778	731.498
186.227	13.934	957.959	731.076
187.242	13.888	957.479	730.445
188.256	13.912	956.844	730.000
189.271	13.949	955.782	729.288
190.286	13.793	955.227	728.115
191.300	13.752	954.576	727.376
192.315	13.634	954.224	726.527
193.329	13.713	953.416	726.194
194.344	13.790	952.670	725.897
195.359	13.896	952.101	725.863
196.373	13.886	951.105	724.997
197.388	13.993	950.834	725.190
198.402	14.046	950.269	724.926
199.417	14.117	949.618	724.677
200.432	14.074	949.237	724.133
201.446	14.001	948.993	723.567
202.461	14.073	948.057	723.100
203.475	14.168	947.428	722.973
204.490	14.074	946.492	721.783
205.504	14.101	945.653	721.199
206.519	14.162	945.057	720.944
207.534	14.141	944.325	720.232
208.548	14.065	943.894	719.509
209.563	14.073	942.986	718.789
210.577	14.179	942.252	718.625
211.592	14.232	941.690	718.358
212.607	14.359	940.506	717.939
213.621	14.295	939.780	717.046
214.636	14.226	939.180	716.229
215.650	14.216	938.651	715.717
216.665	14.314	937.932	715.527
217.680	14.385	937.108	715.143
218.694	14.311	936.354	714.185
219.709	14.369	935.994	714.097
220.723	14.355	935.157	713.333
221.738	14.231	934.687	712.380
222.753	14.156	934.342	711.734
223.767	14.430	933.278	712.032
224.782	14.436	932.554	711.441
225.796	14.453	932.333	711.282
226.811	14.487	931.562	710.778
227.826	14.376	930.843	709.693
228.840	14.426	929.645	708.931
229.855	14.452	929.133	708.587
230.869	14.418	928.149	707.627
231.884	14.462	927.299	707.107
232.899	14.440	926.677	706.474
233.913	14.434	925.832	705.745
234.928	14.443	925.170	705.216
235.942	14.319	925.039	704.525
236.957	14.303	924.306	703.839
237.972	14.389	923.878	703.814
238.986	14.374	923.247	703.209
240.001	14.579	922.373	703.345
241.015	14.586	921.709	702.807
242.030	14.443	920.989	701.592
243.045	14.523	920.473	701.473
244.059	14.600	919.819	701.239
245.074	14.570	919.507	700.813
246.088	14.592	918.705	700.231
247.103	14.690	917.616	699.747
248.117	14.719	917.501	699.720
249.132	14.753	916.768	699.243
250.147	14.759	916.351	698.886
251.161	14.848	915.523	698.564
252.176	14.942	914.876	698.405
253.190	14.820	913.979	697.148
254.205	14.958	913.222	697.085
255.220	14.901	913.012	696.626
256.234	14.916	912.471	696.213
257.249	14.947	911.756	695.733
258.263	15.055	910.405	695.091
259.278	14.928	909.896	694.113
260.293	14.949	909.623	693.931
261.307	15.144	908.587	693.885
262.322	15.040	908.164	693.070
263.336	14.999	907.600	692.409
264.351	15.110	906.745	692.154
265.366	15.187	905.901	691.767
266.380	15.188	905.520	691.419
267.395	15.186	905.013	690.965
268.409	15.011	904.224	689.578
269.424	15.120	903.078	689.091
270.439	15.278	902.056	688.902
271.453	15.250	901.879	688.592
272.468	15.174	901.303	687.778
273.482	15.196	901.013	687.584
274.497	15.202	900.418	687.095
275.512	15.149	899.511	686.123
276.526	15.254	899.229	686.280
277.541	15.237	898.735	685.773
278.555	15.213	898.462	685.405
279.570	15.430	897.173	685.244
280.585	15.415	896.896	684.911
281.599	15.468	895.537	684.030
282.614	15.493	894.869	683.561
283.628	15.374	894.530	682.758
284.643	15.359	893.684	681.991
285.657	15.408	893.023	681.627
286.672	15.388	892.836	681.342
287.687	15.321	892.203	680.527
288.701	15.504	891.349	680.557
289.716	15.339	890.925	679.505
290.730	15.412	890.445	679.372
291.745	15.472	889.507	678.839
292.760	15.511	889.314	678.789
293.774	15.606	888.525	678.512
294.789	15.667	887.582	677.979
295.803	15.561	887.077	677.105
296.818	15.552	886.231	676.361
297.833	15.527	885.715	675.807
298.847	15.652	884.927	675.651
299.862	15.644	884.538	675.259
300.876	15.524	884.090	674.377
301.891	15.569	883.521	674.063
302.906	15.645	882.920	673.850
303.920	15.726	882.326	673.661
304.935	15.756	881.428	673.036
305.949	15.802	880.823	672.698
306.964	15.668	880.396	671.780
307.979	15.788	879.786	671.732
308.993	15.792	879.220	671.258
310.008	15.860	878.374	670.822
311.022	15.980	877.597	670.646
312.037	15.852	877.191	669.766
313.052	15.843	876.514	669.158
314.066	15.686	876.302	668.309
315.081	15.751	875.402	667.822
316.095	15.757	874.535	667.128
317.110	15.664	874.402	666.599
318.125	15.775	874.028	666.696
319.139	15.910	873.598	666.842
320.154	15.709	872.758	665.345
321.168	15.718	872.463	665.097
322.183	15.838	871.542	664.812
323.197	15.970	871.136	664.963
324.212	15.840	870.949	664.248
325.227	15.896	869.635	663.409
326.241	15.928	869.274	663.202
327.256	15.925	868.837	662.795
328.270	15.916	868.196	662.212
329.285	15.799	867.718	661.332
330.300	15.939	866.894	661.192
331.314	15.874	866.572	660.634
332.329	16.012	866.040	660.713
333.343	16.137	865.275	660.561
334.358	16.017	864.823	659.686
335.373	16.169	864.621	660.067
336.387	16.128	864.287	659.595
337.402	16.126	864.020	659.326
338.416	16.106	863.837	659.048
339.431	16.081	863.298	658.483
340.446	16.121	862.782	658.184
341.460	16.235	862.796	658.582
342.475	16.309	861.651	657.941
343.489	16.387	861.307	657.920
344.504	16.389	861.064	657.686
345.519	16.306	860.440	656.829
346.533	16.432	859.746	656.730
347.548	16.253	859.616	655.879
348.562	16.299	858.862	655.423
349.577	16.240	858.294	654.701
350.592	16.257	857.720	654.274
351.606	16.301	856.881	653.744
352.621	16.326	856.249	653.300
353.635	16.305	855.520	652.608
354.650	16.226	855.194	651.995
355.665	16.351	854.574	651.948
356.679	16.413	853.685	651.448
357.694	16.344	853.097	650.677
358.708	16.557	852.159	650.725
359.723	16.404	851.542	649.607
360.738	16.495	851.222	649.656
361.752	16.537	850.532	649.231
362.767	16.465	850.134	648.595
363.781	16.677	849.512	648.876
364.796	16.662	849.132	648.472
365.810	16.710	848.234	647.911
366.825	16.598	848.062	647.296
367.840	16.687	847.886	647.443
368.854	16.628	847.365	646.762
369.869	16.701	846.787	646.543
370.883	16.709	846.180	646.052
371.898	16.604	846.226	645.631
372.913	16.873	845.655	646.164
373.927	16.831	844.759	645.260
374.942	16.850	844.351	644.965
375.956	16.801	844.038	644.480
376.971	16.766	843.695	644.030
377.986	16.783	843.431	643.836
379.000	16.949	842.863	643.976
380.015	17.054	841.904	643.586
381.029	17.028	841.421	643.058
382.044	16.910	841.015	642.245
383.059	16.947	840.364	641.833
384.073	16.938	839.915	641.399
385.088	16.747	839.342	640.180
386.102	16.875	838.503	639.968
387.117	16.991	837.912	639.899
388.132	16.913	837.352	639.120
389.146	16.984	837.122	639.154
390.161	16.947	836.454	638.447
391.175	16.911	835.982	637.898
392.190	17.075	835.431	638.038
393.205	16.940	835.071	637.198
394.219	17.152	834.644	637.610
395.234	17.018	834.161	636.684
396.248	16.934	833.638	635.915
397.263	17.066	832.973	635.844
398.278	16.969	833.186	635.587
399.292	17.064	832.358	635.254
400.307	17.030	832.078	634.859
401.321	17.089	831.180	634.337
402.336	17.006	831.091	633.904
403.350	17.090	830.685	633.849
404.365	17.135	830.230	633.617
405.380	17.194	829.652	633.336
406.394	17.236	829.171	633.073
407.409	17.249	828.854	632.820
408.423	17.078	828.756	632.053
409.438	17.211	828.463	632.271
410.453	17.374	827.499	632.085
411.467	17.423	827.123	631.921
412.482	17.462	826.421	631.477
413.496	17.506	826.036	631.290
414.511	17.443	826.034	630.996
415.526	17.501	825.373	630.653
416.540	17.487	824.952	630.221
417.555	17.533	824.246	629.797
418.569	17.486	823.803	629.228
419.584	17.565	823.478	629.216
420.599	17.565	823.126	628.893
421.613	98.950	1279.620	1419.996
422.628	85.372	1346.126	1420.103
