DTS Sentinel unit serial number:	SN413079Multiplexer serial number:	ORYXHardware model number:	OX4-SRSoftware version number:	ORYX F/W v4.00 Oryx Data Collector v3.7.2.0data status	okinstallation	princeton_trtdifferential loss correction	single-endedforward channel	channel 1reverse channel	N/Adate	2019/09/12time	12:20:11forward acquisition time	60.00reverse acquisition time	0.00gamma	496.2192k internal	0.2292k external	0.2292temperature offset calibration	1.0043default loss term (dB/km)	0.3790temperature slope calibration	1.0000multiplexer offset coefficient	1.0000multiplexer slope coefficient	1.0000fibre end	0.00T internal ref (°C)	40.62T ext. ref 1 (°C)	1.99T ext. ref 2 (°C)	35.10length (m)	temperature (°C)	Stokes	anti-Stokes-747.200	-78.437	-0.115	-0.040
-746.185	-34.333	0.267	0.150
-745.171	-103.141	0.274	-0.066
-744.156	-136.338	0.150	-0.018
-743.142	800.000	-0.082	-0.351
-742.127	-121.066	-0.153	-0.026
-741.112	-96.677	0.080	0.021
-740.098	79.343	-0.041	0.045
-739.083	800.000	-0.046	-0.166
-738.069	-200.000	0.279	0.001
-737.054	-200.000	-0.098	-0.459
-736.039	-26.786	-0.347	-0.208
-735.025	-115.683	0.048	0.009
-734.010	-200.000	-0.027	-0.142
-732.996	41.519	0.192	-0.178
-731.981	273.633	0.133	0.241
-730.966	-200.000	-0.030	0.154
-729.952	-1.687	0.175	0.126
-728.937	-125.443	-0.118	0.018
-727.923	-38.912	0.191	-0.103
-726.908	800.000	0.012	-0.051
-725.894	422.957	-0.069	0.152
-724.879	-29.830	-0.244	-0.142
-723.864	-200.000	-0.038	-0.269
-722.850	473.517	-0.130	-0.300
-721.835	246.157	-0.110	-0.190
-720.821	585.348	0.103	-0.258
-719.806	-59.109	-0.111	-0.049
-718.791	518.358	0.116	-0.277
-717.777	233.718	-0.079	0.132
-716.762	-54.767	-0.070	0.032
-715.748	611.619	-0.078	-0.199
-714.733	129.106	0.159	-0.208
-713.718	-85.495	-0.169	0.054
-712.704	258.518	-0.124	-0.218
-711.689	-44.339	-0.091	-0.047
-710.675	-200.000	0.005	0.406
-709.660	-90.047	0.218	-0.065
-708.645	161.461	-0.050	-0.071
-707.631	-200.000	-0.069	-0.356
-706.616	-171.509	-0.175	-0.006
-705.602	216.311	0.123	-0.199
-704.587	-84.929	-0.339	0.109
-703.572	-47.063	-0.175	-0.087
-702.558	800.000	-0.018	-0.068
-701.543	148.075	0.243	0.335
-700.529	-99.633	0.190	0.049
-699.514	397.243	-0.062	-0.132
-698.499	-84.078	-0.085	-0.027
-697.485	-88.808	-0.255	-0.077
-696.470	-14.641	-0.212	0.139
-695.456	800.000	0.101	0.396
-694.441	-33.861	-0.259	0.146
-693.426	-35.771	-0.006	0.003
-692.412	-200.000	-0.026	0.124
-691.397	-118.553	0.226	-0.041
-690.383	-47.726	-0.256	-0.127
-689.368	49.078	0.224	-0.215
-688.354	67.594	-0.042	0.044
-687.339	-189.427	-0.140	-0.002
-686.324	-53.318	-0.076	-0.035
-685.310	-115.729	0.101	0.019
-684.295	13.464	0.100	-0.079
-683.281	-134.872	-0.208	-0.026
-682.266	601.976	0.106	-0.269
-681.251	249.105	0.033	-0.057
-680.237	-117.508	-0.100	-0.018
-679.222	-111.695	0.168	-0.035
-678.208	645.484	-0.062	-0.163
-677.193	12.440	-0.210	0.165
-676.178	13.698	0.191	-0.152
-675.164	800.000	-0.097	0.289
-674.149	15.194	-0.163	-0.130
-673.135	-49.643	0.341	-0.166
-672.120	28.692	-0.106	0.092
-671.105	-162.283	-0.266	0.014
-670.091	355.269	0.050	-0.101
-669.076	-11.375	-0.093	0.062
-668.062	-156.281	-0.151	0.010
-667.047	800.000	0.030	-0.090
-666.032	498.145	-0.108	-0.254
-665.018	-137.071	-0.294	0.034
-664.003	-30.550	-0.035	0.020
-662.989	-122.104	0.176	-0.029
-661.974	115.512	0.147	-0.184
-660.959	-113.907	0.091	0.018
-659.945	-47.968	-0.315	0.155
-658.930	217.764	-0.086	-0.140
-657.916	800.000	-0.071	-0.263
-656.901	244.287	-0.212	-0.363
-655.886	-149.184	0.104	-0.008
-654.872	724.268	0.093	0.253
-653.857	-142.228	0.075	-0.008
-652.843	126.945	0.245	0.317
-651.828	-158.924	-0.387	-0.022
-650.814	-200.000	0.002	-0.513
-649.799	800.000	0.004	0.014
-648.784	-200.000	0.024	0.115
-647.770	-200.000	-0.010	0.113
-646.755	-73.646	-0.310	0.115
-645.741	55.789	-0.289	-0.285
-644.726	60.951	-0.032	-0.032
-643.711	582.039	0.089	0.222
-642.697	800.000	-0.117	-0.330
-641.682	-200.000	-0.021	-0.136
-640.668	-50.533	0.319	-0.153
-639.653	-200.000	-0.023	-0.183
-638.638	-92.722	0.226	-0.065
-637.624	48.384	-0.160	0.153
-636.609	104.807	-0.189	-0.227
-635.595	-136.523	-0.089	0.011
-634.580	-34.909	0.179	0.099
-633.565	-103.744	-0.058	-0.014
-632.551	682.825	0.057	0.151
-631.536	-22.629	-0.312	-0.192
-630.522	-3.738	0.121	-0.085
-629.507	-86.802	0.312	0.097
-628.492	93.879	-0.144	-0.167
-627.478	282.729	-0.063	-0.115
-626.463	800.000	0.021	-0.091
-625.449	-122.365	-0.248	0.041
-624.434	246.684	0.010	-0.018
-623.419	-153.483	0.143	0.010
-622.405	-128.066	-0.156	0.023
-621.390	-200.000	0.001	-0.057
-620.376	800.000	-0.087	-0.321
-619.361	54.017	0.250	-0.245
-618.346	-44.509	0.090	-0.046
-617.332	-94.066	-0.183	-0.051
-616.317	150.594	-0.133	0.185
-615.303	-200.000	0.043	0.278
-614.288	-81.121	-0.104	-0.035
-613.273	82.493	-0.309	-0.342
-612.259	800.000	0.022	0.078
-611.244	-200.000	0.001	-0.044
-610.230	-144.335	-0.204	0.019
-609.215	-200.000	0.033	-0.168
-608.201	-60.294	-0.149	0.065
-607.186	255.613	0.117	-0.204
-606.171	-200.000	0.071	-0.388
-605.157	-89.256	0.185	-0.056
-604.142	-10.247	-0.221	0.149
-603.128	33.326	0.088	-0.077
-602.113	631.707	-0.128	-0.330
-601.098	-200.000	-0.046	0.258
-600.084	800.000	-0.032	0.118
-599.069	190.163	-0.057	-0.087
-598.055	632.269	0.115	0.296
-597.040	-200.000	-0.006	0.464
-596.025	99.770	-0.116	0.137
-595.011	1.358	-0.117	0.086
-593.996	-72.557	-0.198	-0.074
-592.982	131.827	0.163	0.214
-591.967	800.000	-0.085	0.244
-590.952	800.000	0.045	-0.160
-589.938	800.000	-0.051	-0.165
-588.923	322.285	0.006	0.012
-587.909	-188.548	-0.144	-0.002
-586.894	-51.808	0.198	-0.094
-585.879	-107.923	0.193	-0.043
-584.865	-170.529	-0.265	0.009
-583.850	119.675	0.129	0.163
-582.836	-62.815	-0.139	0.059
-581.821	800.000	0.031	-0.096
-580.806	-200.000	-0.015	0.078
-579.792	361.302	0.067	0.137
-578.777	58.990	0.096	0.096
-577.763	800.000	-0.087	-0.255
-576.748	-90.043	-0.212	0.063
-575.733	-200.000	0.016	0.099
-574.719	800.000	-0.027	0.102
-573.704	41.492	-0.034	-0.031
-572.690	-200.000	0.001	0.115
-571.675	163.991	0.032	-0.046
-570.661	87.900	-0.145	-0.164
-569.646	-7.367	0.162	0.111
-568.631	255.762	0.102	-0.178
-567.617	312.984	0.143	-0.272
-566.602	242.829	0.184	-0.313
-565.588	16.147	0.021	-0.017
-564.573	-53.322	0.403	0.188
-563.558	-56.226	-0.247	0.111
-562.544	-200.000	0.004	0.089
-561.529	382.607	-0.207	0.433
-560.515	-200.000	0.060	0.382
-559.500	32.569	0.283	0.248
-558.485	-28.026	0.076	-0.045
-557.471	-200.000	0.001	-0.240
-556.456	-200.000	-0.011	-0.167
-555.442	-200.000	0.017	0.151
-554.427	-138.363	-0.111	-0.012
-553.412	-142.482	-0.136	-0.014
-552.398	-39.716	0.126	-0.067
-551.383	-169.146	0.224	-0.008
-550.369	136.360	-0.233	-0.308
-549.354	-77.092	-0.298	-0.106
-548.339	12.533	0.234	0.183
-547.325	321.298	-0.014	-0.026
-546.310	543.671	-0.013	0.032
-545.296	16.455	-0.136	0.109
-544.281	116.415	-0.124	-0.154
-543.266	-11.524	0.028	-0.019
-542.252	175.253	-0.167	-0.246
-541.237	26.849	-0.179	0.152
-540.223	79.517	-0.070	0.076
-539.208	800.000	0.014	-0.043
-538.193	800.000	0.082	-0.351
-537.179	-102.810	0.222	-0.054
-536.164	569.098	0.106	0.263
-535.150	228.900	0.155	0.257
-534.135	-200.000	0.008	0.089
-533.121	709.904	0.161	-0.431
-532.106	-71.682	0.116	-0.044
-531.091	85.323	-0.134	-0.149
-530.077	-73.837	0.183	0.068
-529.062	-200.000	0.017	-0.160
-528.048	85.158	-0.113	-0.126
-527.033	-127.554	-0.168	-0.025
-526.018	88.746	0.132	0.149
-525.004	-200.000	-0.083	0.000
-523.989	-58.217	0.174	0.077
-522.975	-141.593	-0.124	-0.013
-521.960	800.000	-0.082	0.261
-520.945	800.000	-0.029	-0.102
-519.931	-200.000	0.017	-0.092
-518.916	92.913	0.114	0.130
-517.902	-200.000	-0.041	0.316
-516.887	-137.770	0.190	-0.022
-515.872	-96.968	-0.228	-0.061
-514.858	-200.000	0.008	-0.272
-513.843	12.923	0.035	-0.027
-512.829	0.215	0.355	-0.257
-511.814	276.867	0.146	-0.263
-510.799	544.684	0.119	-0.288
-509.785	-98.088	-0.161	0.042
-508.770	262.586	-0.163	-0.286
-507.756	-20.911	0.153	0.095
-506.741	-92.768	-0.158	0.045
-505.726	-48.141	0.116	0.057
-504.712	39.980	-0.210	0.191
-503.697	-61.118	-0.206	-0.088
-502.683	8.921	0.193	-0.148
-501.668	161.358	0.125	0.177
-500.653	-47.255	0.140	0.069
-499.639	-200.000	-0.002	0.161
-498.624	-4.247	0.209	0.147
-497.610	4.803	-0.146	-0.109
-496.595	311.696	0.119	0.226
-495.581	-200.000	0.023	0.301
-494.566	557.928	-0.046	0.112
-493.551	-36.447	0.200	-0.109
-492.537	-194.132	-0.349	0.003
-491.522	-120.811	0.269	0.046
-490.508	-200.000	0.027	0.122
-489.493	-25.034	0.231	-0.139
-488.478	800.000	-0.095	0.326
-487.464	-200.000	0.014	-0.257
-486.449	-71.435	0.195	0.074
-485.435	-24.758	0.146	0.088
-484.420	-69.339	-0.099	0.039
-483.405	440.594	0.059	0.132
-482.391	-10.451	0.179	0.120
-481.376	-96.589	-0.132	-0.035
-480.362	303.162	0.111	-0.208
-479.347	800.000	0.061	-0.250
-478.332	-97.712	-0.127	-0.033
-477.318	233.989	-0.147	-0.245
-476.303	219.705	0.130	-0.211
-475.289	7.088	0.248	-0.188
-474.274	58.579	0.063	0.062
-473.259	484.769	0.029	-0.066
-472.245	-93.313	-0.222	-0.062
-471.230	-85.617	0.242	-0.076
-470.216	800.000	-0.098	-0.350
-469.201	442.510	0.089	-0.197
-468.186	-167.864	0.283	-0.011
-467.172	154.670	0.155	-0.215
-466.157	800.000	-0.093	0.305
-465.143	63.644	0.186	-0.189
-464.128	-39.399	-0.068	0.036
-463.113	-200.000	0.019	-0.135
-462.099	12.864	-0.175	-0.137
-461.084	17.720	0.007	-0.006
-460.070	92.634	-0.064	-0.073
-459.055	236.731	-0.138	-0.230
-458.040	800.000	-0.062	-0.209
-457.026	800.000	0.082	-0.321
-456.011	-37.813	0.114	-0.062
-454.997	-200.000	-0.020	-0.193
-453.982	800.000	0.022	0.080
-452.968	-125.428	-0.273	0.042
-451.953	800.000	-0.027	-0.088
-450.938	394.899	0.080	-0.168
-449.924	800.000	-0.097	-0.365
-448.909	109.079	-0.102	-0.124
-447.895	136.995	0.193	0.255
-446.880	281.214	-0.106	-0.193
-445.865	312.959	0.068	0.129
-444.851	-200.000	-0.036	0.447
-443.836	-20.105	-0.130	-0.081
-442.822	-200.000	0.003	0.027
-441.807	-200.000	-0.023	0.152
-440.792	-53.467	-0.106	0.049
-439.778	-16.218	0.160	-0.103
-438.763	-11.762	0.055	-0.036
-437.749	-200.000	-0.038	-0.257
-436.734	72.091	0.148	-0.156
-435.719	-200.000	-0.068	-0.437
-434.705	-156.573	0.358	-0.022
-433.690	-200.000	-0.017	0.229
-432.676	-200.000	-0.013	0.179
-431.661	217.764	0.078	0.126
-430.646	-40.264	-0.109	-0.057
-429.632	-104.531	-0.202	-0.047
-428.617	-200.000	-0.009	-0.284
-427.603	484.968	-0.119	-0.274
-426.588	233.641	0.162	0.269
-425.573	-49.194	-0.328	0.159
-424.559	63.440	0.316	-0.320
-423.544	-200.000	0.076	0.363
-422.530	-64.356	-0.413	-0.170
-421.515	800.000	0.052	-0.190
-420.500	-200.000	0.032	-0.266
-419.486	722.663	-0.091	-0.246
-418.471	1.245	0.066	0.048
-417.457	800.000	0.060	0.256
-416.442	-34.029	-0.188	-0.105
-415.428	784.574	0.120	-0.331
-414.413	-81.009	0.135	0.045
-413.398	71.572	0.168	-0.176
-412.384	15.416	-0.164	0.130
-411.369	-15.956	0.137	0.088
-410.355	800.000	0.045	0.130
-409.340	-100.958	-0.093	0.023
-408.325	155.064	-0.068	0.095
-407.311	-83.812	0.039	0.013
-406.296	-7.611	-0.188	-0.129
-405.282	133.654	-0.303	0.396
-404.267	191.013	-0.189	0.287
-403.252	-200.000	-0.022	0.198
-402.238	-188.584	0.326	0.004
-401.223	800.000	0.035	0.109
-400.209	87.377	0.027	-0.031
-399.194	-200.000	-0.006	0.111
-398.179	-69.294	0.409	-0.159
-397.165	73.643	-0.111	-0.118
-396.150	141.709	-0.240	0.320
-395.136	343.456	-0.188	0.372
-394.121	800.000	-0.041	0.173
-393.106	313.371	0.091	0.172
-392.092	-70.401	0.209	0.080
-391.077	-22.558	-0.337	0.206
-390.063	292.435	-0.078	-0.144
-389.048	487.266	-0.115	-0.266
-388.033	707.058	0.078	0.207
-387.019	218.812	-0.111	-0.180
-386.004	420.955	-0.096	0.207
-384.990	-200.000	-0.007	-0.085
-383.975	40.977	-0.094	0.086
-382.960	-200.000	-0.017	0.292
-381.946	77.288	-0.243	0.261
-380.931	4.433	-0.117	-0.087
-379.917	-100.020	-0.183	-0.046
-378.902	-171.682	0.371	0.012
-377.888	-45.006	-0.405	0.203
-376.873	226.872	-0.100	0.163
-375.858	45.498	-0.206	0.192
-374.844	800.000	0.046	0.163
-373.829	-158.811	-0.142	-0.008
-372.815	5.289	-0.045	0.033
-371.800	334.780	-0.125	0.244
-370.785	213.690	0.211	0.336
-369.771	133.450	-0.226	-0.295
-368.756	245.249	-0.039	0.067
-367.742	-20.938	0.246	-0.152
-366.727	-95.066	-0.102	0.028
-365.712	-160.717	-0.115	0.006
-364.698	164.039	0.130	-0.185
-363.683	-116.951	-0.383	-0.071
-362.669	-98.649	0.234	0.060
-361.654	-126.958	0.463	0.069
-360.639	524.848	0.072	0.171
-359.625	-200.000	-0.006	-0.083
-358.610	119.025	0.165	-0.206
-357.596	418.996	-0.088	0.189
-356.581	-151.020	0.271	0.021
-355.566	-200.000	0.030	0.563
-354.552	175.782	-0.168	0.246
-353.537	-200.000	-0.021	0.387
-352.523	316.550	0.096	0.183
-351.508	-66.290	0.235	-0.094
-350.493	-174.081	0.127	-0.004
-349.479	35.047	-0.214	0.189
-348.464	-115.598	-0.070	-0.013
-347.450	-200.000	0.042	0.482
-346.435	135.823	0.048	-0.063
-345.420	433.104	0.038	0.084
-344.406	14.817	0.123	0.097
-343.391	203.397	0.080	0.125
-342.377	-167.334	-0.267	-0.011
-341.362	-169.299	-0.355	-0.013
-340.348	308.445	-0.061	-0.115
-339.333	49.132	0.348	-0.329
-338.318	-180.103	-0.217	-0.005
-337.304	165.963	-0.180	-0.256
-336.289	-142.622	-0.059	-0.006
-335.275	-40.966	-0.511	-0.266
-334.260	-200.000	-0.004	0.274
-333.245	64.218	-0.172	-0.174
-332.231	-138.454	0.215	-0.024
-331.216	-69.716	0.150	0.058
-330.202	-52.373	0.376	0.175
-329.187	-200.000	-0.021	-0.171
-328.172	-130.850	-0.122	-0.016
-327.158	-79.311	0.276	0.094
-326.143	209.087	0.267	-0.421
-325.129	-76.195	-0.274	0.097
-324.114	55.415	-0.161	0.157
-323.099	193.076	-0.145	-0.221
-322.085	-177.492	-0.199	-0.005
-321.070	800.000	0.076	0.298
-320.056	-15.563	0.113	-0.072
-319.041	184.922	-0.127	-0.190
-318.026	31.051	-0.113	-0.097
-317.012	164.699	-0.044	0.062
-315.997	-9.458	-0.162	0.109
-314.983	96.502	-0.081	0.093
-313.968	355.901	-0.045	0.090
-312.953	800.000	0.100	0.416
-311.939	-200.000	-0.026	-0.470
-310.924	-131.113	-0.304	-0.041
-309.910	-200.000	0.008	-0.115
-308.895	64.393	0.281	-0.285
-307.880	458.569	0.116	-0.258
-306.866	398.125	0.015	0.031
-305.851	-119.652	-0.093	0.016
-304.837	-200.000	0.055	0.243
-303.822	-37.345	0.277	-0.149
-302.807	-136.557	-0.250	-0.029
-301.793	-7.801	0.371	-0.252
-300.778	-107.890	0.383	0.084
-299.764	-7.987	0.177	0.120
-298.749	-152.804	0.249	-0.018
-297.735	-136.920	-0.427	0.049
-296.720	123.960	-0.078	-0.098
-295.705	-200.000	0.045	0.242
-294.691	800.000	0.095	0.303
-293.676	16.907	0.152	0.121
-292.662	332.546	-0.133	-0.258
-291.647	46.438	0.148	-0.138
-290.632	-49.720	-0.161	0.077
-289.618	-200.000	0.051	-0.234
-288.603	-147.033	0.164	0.014
-287.589	-22.138	0.129	-0.079
-286.574	184.940	-0.178	0.265
-285.559	800.000	0.091	0.268
-284.545	-45.749	0.206	-0.102
-283.530	-88.595	0.362	-0.108
-282.516	-83.961	0.218	-0.070
-281.501	-41.939	0.470	0.242
-280.486	-186.023	-0.076	0.001
-279.472	-137.637	-0.176	0.020
-278.457	413.109	-0.069	0.147
-277.443	-181.267	-0.151	-0.003
-276.428	76.293	0.142	-0.151
-275.413	-200.000	-0.013	-0.259
-274.399	-200.000	-0.031	0.143
-273.384	104.993	0.230	0.272
-272.370	611.710	-0.008	0.020
-271.355	-200.000	-0.023	0.374
-270.340	-39.392	-0.215	-0.113
-269.326	-62.105	-0.145	-0.061
-268.311	-200.000	-0.024	0.303
-267.297	-200.000	-0.020	-0.406
-266.282	-127.095	0.144	0.021
-265.267	70.050	-0.282	0.292
-264.253	70.608	-0.299	-0.310
-263.238	-200.000	-0.066	-0.322
-262.224	-13.528	-0.330	-0.215
-261.209	364.081	0.055	0.111
-260.195	-113.175	0.238	0.047
-259.180	-200.000	0.002	-0.405
-258.165	-50.188	-0.103	-0.049
-257.151	369.113	0.081	0.164
-256.136	-200.000	-0.038	0.237
-255.122	-200.000	-0.028	-0.139
-254.107	-30.039	-0.049	-0.028
-253.092	-200.000	-0.009	-0.266
-252.078	-37.313	-0.385	-0.207
-251.063	-200.000	-0.023	-0.322
-250.049	-200.000	-0.001	-0.115
-249.034	74.307	-0.142	-0.150
-248.019	30.884	0.116	0.100
-247.005	-200.000	0.001	0.154
-245.990	800.000	-0.117	-0.458
-244.976	-92.244	0.195	-0.055
-243.961	-200.000	0.030	0.341
-242.946	-76.645	0.055	0.019
-241.932	-122.747	0.245	-0.040
-240.917	-63.268	-0.092	0.038
-239.903	-200.000	-0.010	0.106
-238.888	286.498	-0.160	0.290
-237.873	18.750	0.064	0.052
-236.859	-179.518	0.267	0.006
-235.844	800.000	0.018	-0.075
-234.830	-200.000	0.027	0.133
-233.815	-200.000	0.009	-0.210
-232.800	331.085	0.092	0.179
-231.786	-143.257	-0.088	0.009
-230.771	-6.648	-0.239	0.163
-229.757	57.705	0.299	0.293
-228.742	-144.053	0.240	-0.023
-227.727	800.000	-0.055	-0.191
-226.713	158.365	-0.201	-0.280
-225.698	114.829	0.096	-0.118
-224.684	-10.409	-0.215	0.143
-223.669	92.639	0.187	0.212
-222.655	-200.000	0.008	0.099
-221.640	-200.000	-0.089	0.418
-220.625	-101.177	-0.453	0.111
-219.611	122.938	-0.090	-0.112
-218.596	-157.202	-0.352	-0.021
-217.582	-200.000	-0.023	0.175
-216.567	-200.000	0.097	0.483
-215.552	-77.010	0.185	0.065
-214.538	-116.155	0.361	-0.067
-213.523	-166.010	0.288	0.012
-212.509	-166.972	0.368	-0.015
-211.494	90.419	-0.130	0.146
-210.479	-200.000	-0.044	0.339
-209.465	474.883	0.156	-0.353
-208.450	417.257	-0.240	0.514
-207.436	-200.000	0.003	0.015
-206.421	65.041	-0.186	-0.188
-205.406	-158.431	-0.164	0.010
-204.392	71.312	-0.024	-0.025
-203.377	-200.000	0.030	-0.206
-202.363	357.984	0.129	-0.257
-201.348	217.881	0.251	-0.402
-200.333	-91.978	0.306	0.087
-199.319	-140.743	-0.205	0.021
-198.304	-200.000	0.008	0.286
-197.290	-19.267	-0.175	0.109
-196.275	-51.316	-0.119	0.056
-195.260	660.022	0.062	0.160
-194.246	-200.000	0.050	0.315
-193.231	376.807	-0.106	-0.217
-192.217	58.010	0.205	-0.202
-191.202	25.121	0.269	-0.223
-190.187	-200.000	-0.020	0.190
-189.173	515.602	0.093	0.218
-188.158	-118.037	0.282	-0.050
-187.144	0.956	0.044	-0.032
-186.129	-200.000	0.038	-0.207
-185.114	27.792	-0.148	0.125
-184.100	-200.000	-0.032	0.376
-183.085	-200.000	0.012	0.087
-182.071	-200.000	-0.008	-0.315
-181.056	-200.000	-0.047	0.250
-180.042	-200.000	0.036	0.277
-179.027	-32.122	0.083	-0.046
-178.012	-51.585	0.212	-0.099
-176.998	412.951	0.084	0.178
-175.983	1.134	-0.131	-0.094
-174.969	800.000	0.079	-0.335
-173.954	372.057	-0.063	-0.127
-172.939	-200.000	-0.042	-0.212
-171.925	-164.205	-0.081	-0.004
-170.910	208.732	0.123	0.192
-169.896	-95.198	0.116	-0.031
-168.881	800.000	0.047	-0.184
-167.866	-168.660	-0.413	-0.016
-166.852	12.026	-0.135	-0.104
-165.837	313.427	0.046	-0.087
-164.823	94.891	0.204	0.232
-163.808	-200.000	0.004	0.300
-162.793	-161.746	0.450	0.023
-161.779	112.540	-0.154	-0.186
-160.764	-40.855	-0.402	-0.208
-159.750	121.874	-0.078	0.097
-158.735	140.352	-0.193	0.255
-157.720	37.473	0.250	-0.222
-156.706	-200.000	-0.052	0.309
-155.691	229.196	0.097	0.159
-154.677	92.919	-0.115	-0.130
-153.662	64.063	-0.286	-0.288
-152.647	-23.168	0.176	0.106
-151.633	144.124	0.090	-0.120
-150.618	-117.313	-0.088	0.016
-149.604	-127.371	0.081	0.012
-148.589	190.182	-0.132	0.198
-147.574	196.167	0.105	-0.160
-146.560	298.287	0.137	0.252
-145.545	800.000	-0.086	0.242
-144.531	5.207	0.104	-0.076
-143.516	263.470	-0.104	0.181
-142.502	-114.098	-0.344	-0.067
-141.487	50.679	-0.134	0.127
-140.472	-200.000	-0.035	0.363
-139.458	541.381	0.156	0.372
-138.443	232.225	-0.075	-0.123
-137.429	-200.000	-0.034	-0.246
-136.414	-88.339	-0.065	0.019
-135.399	142.334	-0.135	0.179
-134.385	234.588	-0.251	0.414
-133.370	-77.307	0.180	-0.063
-132.356	-115.646	-0.210	-0.039
-131.341	179.229	0.023	0.034
-130.326	-43.993	0.071	-0.036
-129.312	-88.924	0.312	-0.092
-128.297	-200.000	-0.042	0.244
-127.283	-200.000	-0.042	0.252
-126.268	764.591	-0.112	0.305
-125.253	800.000	-0.055	-0.191
-124.239	-168.573	0.234	-0.009
-123.224	-14.844	0.079	-0.051
-122.210	-15.165	0.228	-0.145
-121.195	-40.377	0.197	0.102
-120.180	-44.518	-0.277	0.138
-119.166	-200.000	0.006	0.259
-118.151	800.000	0.155	-0.596
-117.137	-125.339	-0.419	0.064
-116.122	-139.987	0.278	-0.029
-115.107	-200.000	0.047	0.240
-114.093	-152.952	-0.195	-0.014
-113.078	-200.000	-0.010	0.075
-112.064	-200.000	0.001	-0.124
-111.049	800.000	-0.091	0.380
-110.034	158.640	-0.145	-0.201
-109.020	-200.000	0.031	0.230
-108.005	95.649	0.150	-0.171
-106.991	-166.273	0.223	0.009
-105.976	-3.694	0.170	0.118
-104.962	-27.345	0.148	-0.086
-103.947	-179.820	-0.195	-0.004
-102.932	-28.198	-0.114	-0.066
-101.918	17.820	-0.091	-0.072
-100.903	-200.000	-0.042	-0.193
-99.889	-86.232	0.436	0.134
-98.874	-128.382	-0.387	0.055
-97.859	800.000	0.064	0.226
-96.845	800.000	0.093	-0.318
-95.830	392.846	-0.076	0.158
-94.816	93.854	0.238	0.269
-93.801	9.887	0.198	0.150
-92.786	-200.000	0.042	-0.322
-91.772	800.000	-0.061	-0.227
-90.757	-131.621	0.174	0.023
-89.743	-185.690	-0.308	-0.005
-88.728	-177.722	-0.200	0.005
-87.713	800.000	0.032	-0.127
-86.699	751.672	-0.027	-0.073
-85.684	-58.381	0.297	-0.129
-84.670	800.000	-0.105	-0.398
-83.655	49.020	0.065	0.061
-82.640	120.318	-0.077	-0.095
-81.626	-199.024	0.263	0.001
-80.611	800.000	-0.102	0.290
-79.597	57.843	0.117	-0.114
-78.582	800.000	0.076	-0.218
-77.567	109.625	0.113	0.135
-76.553	-57.083	-0.109	0.048
-75.538	272.864	-0.080	-0.140
-74.524	800.000	0.116	0.414
-73.509	800.000	-0.082	0.231
-72.494	-200.000	0.003	-0.224
-71.480	-200.000	0.000	-0.374
-70.465	-120.368	0.129	0.022
-69.451	-33.463	-0.067	-0.037
-68.436	-200.000	-0.031	-0.193
-67.422	130.143	0.083	0.106
-66.407	800.000	-0.085	0.247
-65.392	-200.000	-0.041	0.226
-64.378	140.250	-0.066	0.087
-63.363	394.048	0.153	-0.317
-62.349	173.327	0.145	0.208
-61.334	-10.062	-1.047	-0.693
-60.319	-83.580	0.287	0.092
-59.305	-200.000	0.028	-0.774
-58.290	432.727	0.333	0.720
-57.276	790.470	0.511	1.400
-56.261	-200.000	77.005	513.329
-55.246	505.939	1341.151	3096.261
-54.232	144.558	2573.449	3424.108
-53.217	116.327	2236.953	2730.700
-52.203	52.253	1681.335	1596.993
-51.188	44.360	1405.465	1285.247
-50.173	40.776	1359.449	1221.135
-49.159	59.329	1394.962	1368.529
-48.144	65.897	1413.579	1427.419
-47.130	45.005	1376.048	1262.141
-46.115	40.781	1360.026	1221.490
-45.100	40.592	1355.236	1215.985
-44.086	40.487	1352.649	1212.973
-43.071	40.426	1350.110	1210.273
-42.057	40.345	1348.036	1207.871
-41.042	40.475	1346.154	1206.929
-40.027	40.518	1344.844	1205.971
-39.013	40.443	1342.906	1203.728
-37.998	40.523	1341.119	1202.561
-36.984	40.636	1338.981	1201.282
-35.969	40.670	1336.996	1199.659
-34.954	40.769	1335.109	1198.515
-33.940	40.678	1334.562	1197.429
-32.925	40.782	1332.740	1196.374
-31.911	40.695	1331.401	1194.601
-30.896	40.687	1329.897	1193.156
-29.881	40.666	1328.762	1191.964
-28.867	40.804	1326.961	1191.130
-27.852	40.794	1325.661	1189.852
-26.838	40.733	1324.005	1187.954
-25.823	40.683	1322.844	1186.566
-24.809	40.599	1321.831	1185.108
-23.794	40.753	1320.032	1184.368
-22.779	40.651	1318.667	1182.491
-21.765	40.608	1317.265	1180.932
-20.750	40.767	1315.857	1180.568
-19.736	40.595	1314.486	1178.269
-18.721	40.663	1312.901	1177.203
-17.706	40.454	1312.372	1175.441
-16.692	40.610	1310.961	1175.054
-15.677	40.456	1310.299	1173.503
-14.663	40.561	1308.880	1172.806
-13.648	40.564	1307.530	1171.568
-12.633	40.578	1306.411	1170.603
-11.619	40.538	1305.842	1169.811
-10.604	40.579	1304.953	1169.209
-9.590	40.633	1304.048	1168.669
-8.575	40.605	1302.843	1167.380
-7.560	40.575	1302.179	1166.560
-6.546	40.537	1301.080	1165.306
-5.531	40.618	1300.458	1165.180
-4.517	40.569	1299.142	1163.670
-3.502	40.616	1298.537	1163.355
-2.487	40.614	1297.066	1161.980
-1.473	40.700	1293.161	1158.937
-0.458	39.317	1277.843	1137.178
0.556	35.140	1257.334	1092.042
1.571	30.704	1260.394	1069.181
2.586	29.393	1275.091	1073.926
3.600	28.011	1264.101	1056.596
4.615	20.284	1186.968	949.913
5.629	8.138	1102.427	820.055
6.644	2.469	1078.822	773.834
7.659	2.049	1075.648	769.372
8.673	1.804	1074.204	767.034
9.688	1.650	1073.102	765.407
10.702	2.035	1071.825	766.361
11.717	8.742	1082.106	807.556
12.731	19.903	1098.050	876.201
13.746	24.819	1104.267	906.044
14.761	25.281	1104.650	908.620
15.775	25.392	1103.726	908.342
16.790	25.075	1103.302	906.306
17.804	25.036	1102.151	905.085
18.819	25.182	1101.811	905.465
19.834	25.337	1101.185	905.651
20.848	25.419	1100.660	905.549
21.863	25.257	1100.200	904.279
22.877	25.224	1099.654	903.584
23.892	25.172	1098.988	902.695
24.907	25.198	1098.026	901.955
25.921	25.209	1097.084	901.153
26.936	25.270	1095.779	900.310
27.950	25.157	1093.754	898.000
28.965	24.972	1092.259	895.768
29.980	25.005	1090.942	894.774
30.994	25.204	1090.331	895.190
32.009	25.206	1088.809	893.866
33.023	25.039	1087.789	892.121
34.038	25.037	1086.875	891.283
35.053	25.253	1086.652	892.095
36.067	25.237	1085.722	891.172
37.082	25.315	1085.093	890.963
38.096	25.483	1084.359	891.116
39.111	25.445	1083.710	890.317
40.126	25.408	1081.782	888.471
41.140	24.993	1079.949	884.834
42.155	24.906	1078.313	882.986
43.169	24.940	1077.591	882.484
44.184	24.897	1077.222	881.895
45.199	24.700	1076.156	879.973
46.213	24.769	1075.019	879.305
47.228	24.858	1074.574	879.300
48.242	24.983	1073.809	879.213
49.257	25.221	1072.561	879.280
50.271	25.191	1072.317	878.852
51.286	25.294	1071.372	878.507
52.301	25.317	1070.583	877.895
53.315	25.267	1069.142	876.388
54.330	25.118	1068.380	874.962
55.344	25.161	1067.859	874.664
56.359	25.060	1067.005	873.397
57.374	24.954	1065.742	871.770
58.388	25.003	1065.072	871.383
59.403	24.849	1064.257	869.890
60.417	24.826	1063.385	868.991
61.432	24.823	1063.002	868.585
62.447	25.023	1061.995	868.656
63.461	24.947	1061.485	867.792
64.476	24.875	1060.535	866.589
65.490	24.898	1059.326	865.639
66.505	24.908	1058.541	864.969
67.520	24.863	1058.264	864.446
68.534	24.792	1057.222	863.175
69.549	24.438	1056.124	860.497
70.563	24.416	1055.315	859.658
71.578	24.433	1054.519	859.015
72.593	24.262	1053.368	857.178
73.607	24.384	1053.155	857.515
74.622	24.760	1052.334	858.574
75.636	24.858	1051.448	858.246
76.651	24.678	1050.823	856.800
77.666	24.510	1050.567	855.707
78.680	24.564	1049.506	855.027
79.695	24.736	1048.762	855.168
80.709	24.745	1048.344	854.798
81.724	24.678	1047.621	853.812
82.739	24.928	1046.771	854.234
83.753	25.219	1046.530	855.351
84.768	25.404	1045.706	855.483
85.782	25.533	1044.965	855.415
86.797	25.508	1043.571	854.081
87.812	25.294	1042.743	852.308
88.826	25.340	1041.858	851.731
89.841	25.458	1041.256	851.718
90.855	25.447	1040.286	850.799
91.870	25.523	1038.937	849.981
92.884	25.345	1037.936	848.243
93.899	25.248	1036.986	846.936
94.914	25.424	1036.080	846.950
95.928	25.179	1035.124	844.941
96.943	25.035	1033.968	843.243
97.957	24.940	1032.385	841.434
98.972	24.706	1031.312	839.385
99.987	24.951	1030.971	840.183
101.001	25.216	1030.230	840.745
102.016	25.215	1029.261	839.875
103.030	25.085	1028.323	838.431
104.045	24.890	1027.211	836.537
105.060	24.723	1026.021	834.712
106.074	25.021	1025.391	835.517
107.089	25.222	1025.413	836.398
108.103	25.152	1023.767	834.658
109.118	24.934	1022.737	832.732
110.133	24.987	1021.603	831.981
111.147	24.680	1020.869	829.884
112.162	24.565	1019.740	828.359
113.176	24.918	1019.114	829.412
114.191	24.759	1018.235	827.885
115.206	24.522	1016.965	825.686
116.220	24.407	1016.439	824.656
117.235	24.617	1015.185	824.532
118.249	24.643	1014.442	823.978
119.264	24.589	1013.523	822.911
120.279	24.641	1012.761	822.454
121.293	24.652	1012.324	822.080
122.308	24.549	1011.502	820.868
123.322	24.430	1010.471	819.411
124.337	24.504	1009.015	818.497
125.352	23.890	1007.129	814.082
126.366	23.859	1006.531	813.386
127.381	24.598	1006.575	816.730
128.395	25.001	1006.530	818.463
129.410	25.064	1005.553	817.885
130.424	25.039	1004.126	816.539
131.439	25.075	1003.623	816.217
132.454	25.180	1002.403	815.631
133.468	25.138	1001.443	814.587
134.483	25.185	1001.109	814.456
135.497	25.420	1000.275	814.774
136.512	25.462	999.241	814.049
137.527	25.397	998.283	812.901
138.541	25.433	997.600	812.436
139.556	25.405	997.010	811.759
140.570	25.461	996.628	811.628
141.585	25.587	995.016	810.812
142.600	25.486	993.992	809.452
143.614	25.606	993.706	809.688
144.629	25.749	992.769	809.493
145.643	25.590	991.468	807.646
146.658	25.398	989.992	805.513
147.673	25.284	989.140	804.238
148.687	25.123	988.288	802.752
149.702	25.176	986.763	801.679
150.716	25.215	985.855	801.044
151.731	25.285	985.375	800.897
152.746	25.441	985.089	801.289
153.760	25.447	984.780	800.993
154.775	25.613	983.847	800.905
155.789	25.526	982.815	799.604
156.804	25.590	981.854	799.038
157.819	25.544	981.245	798.269
158.833	25.680	980.485	798.182
159.848	25.783	979.241	797.555
160.862	25.516	978.391	795.608
161.877	25.567	977.607	795.126
162.892	25.608	976.288	794.165
163.906	25.499	975.067	792.621
164.921	25.569	974.289	792.229
165.935	25.696	973.357	791.961
166.950	25.595	972.437	790.698
167.964	25.605	971.887	790.225
168.979	25.459	970.628	788.487
169.994	25.344	969.874	787.301
171.008	25.687	969.216	788.202
172.023	25.617	968.013	786.846
173.037	25.414	967.439	785.422
174.052	25.331	966.426	784.169
175.067	25.354	965.779	783.675
176.081	25.272	965.300	782.861
177.096	25.311	964.939	782.667
178.110	25.126	963.954	780.993
179.125	24.886	962.765	778.917
180.140	24.933	962.633	778.947
181.154	25.196	961.983	779.494
182.169	25.237	962.359	779.905
183.183	25.548	961.616	780.584
184.198	25.540	960.434	779.523
185.213	25.380	960.086	778.478
186.227	25.467	959.173	778.046
187.242	25.479	958.640	777.597
188.256	25.714	957.726	777.802
189.271	25.695	957.074	777.122
190.286	25.359	955.798	774.565
191.300	24.802	954.200	770.805
192.315	23.805	952.887	765.383
193.329	23.778	952.797	765.127
194.344	24.543	953.280	768.743
195.359	25.434	953.027	772.303
196.373	25.433	952.574	771.862
197.388	25.273	952.377	770.946
198.402	25.419	951.362	770.684
199.417	25.550	950.352	770.357
200.432	25.250	949.412	768.243
201.446	24.986	948.743	766.506
202.461	25.241	947.781	766.750
203.475	24.320	946.420	761.651
204.490	23.455	944.957	756.716
205.504	24.376	945.438	760.964
206.519	25.108	945.064	763.717
207.534	25.062	944.960	763.367
208.548	25.487	944.369	764.630
209.563	25.292	943.511	763.041
210.577	25.204	943.195	762.343
211.592	25.662	942.924	764.002
212.607	25.594	942.175	763.040
213.621	25.807	941.300	763.166
214.636	25.655	940.477	761.786
215.650	25.618	940.013	761.189
216.665	25.651	939.319	760.696
217.680	25.707	938.447	760.163
218.694	25.084	937.468	756.670
219.709	25.063	936.631	755.840
220.723	25.266	936.818	756.779
221.738	25.348	935.695	756.152
222.753	25.396	935.177	755.866
223.767	25.560	934.434	755.891
224.782	25.717	934.769	756.753
225.796	25.826	933.729	756.302
226.811	25.101	932.346	752.076
227.826	24.416	931.069	748.108
228.840	24.655	930.501	748.586
229.855	24.786	929.460	748.233
230.869	24.279	928.804	745.518
231.884	24.692	929.346	747.612
232.899	25.501	928.916	750.583
233.913	25.238	928.691	749.236
234.928	25.412	927.608	749.019
235.942	25.277	926.947	747.859
236.957	24.957	925.990	745.687
237.972	25.035	925.600	745.633
238.986	25.033	925.099	745.154
240.001	25.200	924.489	745.293
241.015	25.373	923.987	745.540
242.030	25.378	923.128	744.798
243.045	25.470	922.975	744.993
244.059	25.703	922.430	745.449
245.074	25.488	921.746	743.944
246.088	25.067	920.638	741.241
247.103	25.217	920.544	741.720
248.117	25.779	920.635	744.050
249.132	26.106	920.414	745.158
250.147	26.195	919.584	744.789
251.161	26.254	919.463	744.866
252.176	26.335	918.506	744.357
253.190	26.510	917.964	744.576
254.205	26.575	917.356	744.282
255.220	26.542	916.761	743.599
256.234	26.386	916.217	742.450
257.249	26.156	915.656	740.985
258.263	26.264	914.509	740.437
259.278	26.416	913.960	740.546
260.293	26.360	913.755	740.085
261.307	26.328	912.567	738.928
262.322	26.162	911.689	737.474
263.336	25.453	910.139	733.261
264.351	24.442	908.070	727.412
265.366	24.413	907.874	727.071
266.380	25.551	908.455	732.111
267.395	26.010	908.101	733.630
268.409	25.989	907.149	732.711
269.424	26.124	906.720	732.847
270.439	26.168	906.347	732.656
271.453	26.071	906.162	732.048
272.468	26.447	905.696	733.133
273.482	26.448	905.248	732.708
274.497	26.033	903.945	729.912
275.512	25.653	902.992	727.540
276.526	26.094	902.766	729.077
277.541	26.276	902.330	729.397
278.555	25.921	901.945	727.585
279.570	25.849	901.132	726.576
280.585	26.015	900.491	726.664
281.599	25.981	899.416	725.594
282.614	25.422	898.153	722.265
283.628	25.377	897.857	721.782
284.643	25.814	897.498	723.185
285.657	25.284	896.264	720.002
286.672	25.093	895.244	718.353
287.687	25.632	895.230	720.437
288.701	25.809	894.648	720.614
289.716	25.439	894.162	718.680
290.730	25.383	893.383	717.767
291.745	25.015	892.329	715.384
292.760	25.202	892.438	716.157
293.774	26.347	892.740	720.903
294.789	26.531	892.762	721.593
295.803	26.709	891.929	721.562
296.818	26.810	891.492	721.548
297.833	26.392	889.883	718.522
298.847	26.023	889.200	716.442
299.862	26.407	889.460	718.111
300.876	26.770	888.964	719.087
301.891	26.593	888.105	717.630
302.906	26.206	887.195	715.295
303.920	26.379	886.652	715.482
304.935	26.672	886.846	716.732
305.949	26.619	886.171	715.915
306.964	26.246	885.310	713.684
307.979	26.310	884.972	713.598
308.993	26.623	884.910	714.723
310.008	26.694	884.276	714.426
311.022	26.542	883.167	712.871
312.037	26.354	882.478	711.512
313.052	26.171	881.482	709.924
314.066	25.309	879.645	705.000
315.081	24.779	879.356	702.625
316.095	25.683	879.675	706.366
317.110	26.383	879.322	708.767
318.125	25.536	877.586	703.990
319.139	24.386	876.542	698.587
320.154	24.285	876.084	697.767
321.168	25.204	876.615	701.726
322.183	26.007	876.579	704.774
323.197	26.076	876.374	704.813
324.212	26.365	875.922	705.515
325.227	26.528	875.043	705.380
326.241	26.328	874.431	704.047
327.256	26.094	873.769	702.541
328.270	26.158	873.220	702.285
329.285	25.898	872.267	700.449
330.300	25.740	871.142	698.870
331.314	26.018	870.923	699.712
332.329	26.403	870.977	701.184
333.343	26.488	870.862	701.358
334.358	26.567	870.330	701.174
335.373	26.637	869.864	701.007
336.387	26.819	869.955	701.726
337.402	26.835	870.135	701.870
338.416	26.977	869.278	701.663
339.431	26.976	868.899	701.292
340.446	27.317	868.678	702.369
341.460	27.127	868.235	701.215
342.475	26.795	867.479	699.263
343.489	26.888	867.392	699.489
344.504	27.207	867.102	700.423
345.519	27.419	866.447	700.648
346.533	27.393	866.184	700.271
347.548	27.294	865.566	699.332
348.562	27.246	865.099	698.709
349.577	27.275	863.929	697.813
350.592	27.207	863.697	697.301
351.606	27.378	862.926	697.274
352.621	27.131	862.008	695.524
353.635	27.063	861.108	694.476
354.650	26.539	859.495	691.114
355.665	25.537	858.390	686.343
356.679	25.950	857.969	687.520
357.694	26.325	857.369	688.408
358.708	26.225	857.338	687.941
359.723	26.623	857.247	689.321
360.738	26.936	857.024	690.270
361.752	27.068	856.413	690.221
362.767	27.379	855.902	690.929
363.781	27.747	855.984	692.329
364.796	27.710	855.347	691.613
365.810	27.707	854.948	691.217
366.825	27.692	854.430	690.682
367.840	27.357	853.419	688.537
368.854	27.045	852.604	686.637
369.869	27.101	852.108	686.390
370.883	27.199	851.345	686.083
371.898	27.001	851.206	685.162
372.913	27.049	851.057	685.164
373.927	27.180	850.646	685.268
374.942	27.203	850.121	684.870
375.956	27.467	849.898	685.625
376.971	27.381	849.834	685.188
377.986	27.768	849.109	685.996
379.000	27.586	848.681	684.906
380.015	27.563	847.807	684.053
381.029	27.499	847.126	683.205
382.044	27.540	847.113	683.288
383.059	27.815	845.886	683.268
384.073	27.668	845.632	682.450
385.088	27.678	844.727	681.700
386.102	27.282	844.213	679.744
387.117	27.243	843.559	679.012
388.132	27.113	842.347	677.489
389.146	26.652	841.203	674.794
390.161	26.933	841.381	675.924
391.175	27.347	841.258	677.305
392.190	27.208	839.842	675.589
393.205	25.728	837.960	668.523
394.219	24.177	836.207	661.315
395.234	24.094	835.856	660.670
396.248	25.661	837.297	667.568
397.263	27.131	838.191	673.679
398.278	26.969	838.025	672.883
399.292	26.842	836.980	671.516
400.307	26.907	836.428	671.251
401.321	27.020	836.211	671.436
402.336	27.430	836.176	672.865
403.350	27.952	835.785	674.420
404.365	28.042	836.142	674.979
405.380	28.360	835.778	675.798
406.394	28.275	835.243	674.994
407.409	28.317	834.537	674.520
408.423	28.334	834.192	674.241
409.438	28.312	833.524	673.561
410.453	28.323	833.351	673.402
411.467	28.221	832.938	672.636
412.482	28.375	832.315	672.636
413.496	28.369	832.187	672.450
414.511	28.559	831.573	672.591
415.526	28.399	831.243	671.680
416.540	28.192	830.682	670.409
417.555	28.033	829.618	668.909
418.569	28.117	829.255	668.866
419.584	27.952	828.914	667.926
420.599	27.825	828.165	666.802
421.613	94.757	1266.252	1376.020
422.628	81.855	1330.121	1376.161
