DTS Sentinel unit serial number:	SN413079Multiplexer serial number:	ORYXHardware model number:	OX4-SRSoftware version number:	ORYX F/W v4.00 Oryx Data Collector v3.7.2.0data status	okinstallation	princeton_trtdifferential loss correction	single-endedforward channel	channel 1reverse channel	N/Adate	2019/09/14time	16:50:35forward acquisition time	60.00reverse acquisition time	0.00gamma	496.2192k internal	0.2294k external	0.2294temperature offset calibration	1.0053default loss term (dB/km)	0.3790temperature slope calibration	1.0000multiplexer offset coefficient	1.0000multiplexer slope coefficient	1.0000fibre end	0.00T internal ref (°C)	38.00T ext. ref 1 (°C)	4.99T ext. ref 2 (°C)	33.70length (m)	temperature (°C)	Stokes	anti-Stokes-747.200	800.000	0.105	0.296
-746.185	458.870	-0.079	0.179
-745.171	-62.536	-0.259	-0.110
-744.156	-200.000	-0.000	0.163
-743.142	-200.000	-0.048	-0.233
-742.127	-200.000	-0.044	0.200
-741.112	77.837	0.022	-0.024
-740.098	800.000	0.055	0.203
-739.083	800.000	0.064	-0.201
-738.069	675.451	0.081	-0.215
-737.054	800.000	-0.053	-0.203
-736.039	136.853	-0.163	0.217
-735.025	-127.350	0.154	0.023
-734.010	-134.825	-0.483	-0.060
-732.996	-152.225	-0.386	-0.029
-731.981	-200.000	-0.016	-0.093
-730.966	8.263	0.196	0.150
-729.952	-59.306	-0.238	-0.105
-728.937	101.288	0.126	0.150
-727.923	-83.913	-0.291	-0.095
-726.908	25.279	-0.126	0.107
-725.894	-200.000	-0.043	0.275
-724.879	141.373	-0.211	-0.285
-723.864	-7.768	-0.394	-0.272
-722.850	-35.634	-0.196	0.109
-721.835	-200.000	-0.020	0.128
-720.821	-200.000	-0.035	-0.269
-719.806	-200.000	0.029	-0.310
-718.791	-42.634	-0.103	-0.054
-717.777	-95.232	-0.296	0.081
-716.762	68.256	-0.268	-0.281
-715.748	-138.218	-0.176	0.020
-714.733	-200.000	-0.024	-0.154
-713.718	555.653	-0.072	-0.176
-712.704	78.087	-0.076	-0.083
-711.689	-200.000	-0.022	-0.332
-710.675	-200.000	-0.021	0.305
-709.660	-39.347	0.240	-0.129
-708.645	47.247	0.138	-0.131
-707.631	-58.737	0.168	0.074
-706.616	3.313	-0.212	0.157
-705.602	-134.994	-0.454	-0.056
-704.587	413.898	0.078	0.169
-703.572	-91.635	0.211	0.061
-702.558	-186.824	0.113	0.002
-701.543	240.012	-0.204	-0.346
-700.529	84.702	0.289	0.323
-699.514	-126.911	0.127	0.019
-698.499	-62.725	-0.120	0.051
-697.485	-84.847	0.250	0.080
-696.470	-36.157	-0.110	-0.061
-695.456	125.179	0.047	-0.060
-694.441	150.982	0.174	0.241
-693.426	-102.274	0.141	-0.035
-692.412	636.657	0.046	0.119
-691.397	-59.145	-0.269	-0.118
-690.383	-200.000	-0.024	-0.441
-689.368	-29.969	0.065	0.038
-688.354	-200.000	0.103	-0.471
-687.339	447.056	-0.196	-0.441
-686.324	52.850	-0.051	-0.049
-685.310	-31.055	-0.185	-0.106
-684.295	-200.000	0.004	0.195
-683.281	-57.615	0.141	-0.063
-682.266	-200.000	-0.018	0.347
-681.251	258.023	0.176	-0.310
-680.237	175.971	-0.115	-0.170
-679.222	-33.585	0.037	0.021
-678.208	-37.658	-0.312	0.170
-677.193	800.000	0.062	-0.251
-676.178	313.680	-0.024	0.045
-675.164	-80.301	0.137	-0.047
-674.149	456.935	0.086	-0.196
-673.135	627.093	-0.123	-0.316
-672.120	32.850	-0.171	-0.151
-671.105	-153.170	-0.383	-0.027
-670.091	31.584	0.109	0.096
-669.076	312.151	0.030	-0.057
-668.062	-138.767	-0.051	0.006
-667.047	-200.000	0.005	0.037
-666.032	-166.738	-0.325	-0.014
-665.018	-30.192	-0.069	0.040
-664.003	-63.332	0.109	-0.046
-662.989	-200.000	-0.006	-0.139
-661.974	800.000	-0.051	-0.189
-660.959	12.886	-0.172	0.136
-659.945	-54.340	0.452	0.209
-658.930	66.189	0.209	-0.216
-657.916	-200.000	-0.050	-0.243
-656.901	198.862	-0.122	0.190
-655.886	333.283	-0.078	-0.153
-654.872	-41.431	0.199	-0.105
-653.857	-69.381	-0.170	-0.066
-652.843	-11.453	0.186	0.125
-651.828	119.385	-0.068	-0.086
-650.814	-187.749	0.254	0.003
-649.799	131.546	-0.102	-0.134
-648.784	115.333	-0.143	0.178
-647.770	-53.913	-0.182	0.084
-646.755	693.904	0.083	0.222
-645.741	206.861	-0.112	0.177
-644.726	514.290	0.043	0.101
-643.711	2.987	-0.206	0.153
-642.697	-104.699	-0.263	-0.062
-641.682	539.008	0.103	0.249
-640.668	128.187	0.093	0.120
-639.653	-70.952	0.254	0.097
-638.638	-119.145	-0.165	-0.029
-637.624	-138.911	-0.223	0.025
-636.609	-36.386	0.199	0.109
-635.595	208.072	0.128	0.204
-634.580	-166.124	-0.255	-0.011
-633.565	800.000	0.101	0.342
-632.551	-112.755	-0.173	-0.035
-631.536	-200.000	0.008	-0.183
-630.522	49.395	-0.035	0.033
-629.507	-44.535	0.108	0.055
-628.492	-54.294	0.220	0.102
-627.478	-97.263	0.117	0.031
-626.463	48.264	0.158	0.150
-625.449	88.132	-0.061	0.069
-624.434	201.971	0.088	-0.138
-623.419	119.917	-0.169	-0.214
-622.405	-200.000	-0.023	0.192
-621.390	-101.505	-0.169	-0.042
-620.376	14.152	-0.128	-0.101
-619.361	-200.000	-0.005	0.121
-618.346	5.925	-0.071	-0.054
-617.332	-200.000	-0.031	-0.331
-616.317	-200.000	0.038	-0.236
-615.303	-37.763	-0.306	0.166
-614.288	558.900	-0.129	-0.317
-613.273	43.228	-0.207	-0.193
-612.259	-90.277	0.196	0.058
-611.244	-31.836	-0.279	-0.159
-610.230	130.990	-0.069	-0.090
-609.215	97.718	-0.230	-0.269
-608.201	-184.019	0.176	-0.003
-607.186	60.691	0.207	0.208
-606.171	-40.478	0.175	0.092
-605.157	-200.000	-0.018	0.167
-604.142	-93.366	0.251	-0.071
-603.128	-182.138	-0.395	0.008
-602.113	112.469	0.038	-0.047
-601.098	522.701	0.042	0.099
-600.084	60.616	-0.148	-0.149
-599.069	270.619	0.014	0.024
-598.055	-200.000	0.054	-0.251
-597.040	-138.465	-0.138	0.015
-596.025	800.000	0.063	-0.262
-595.011	-159.279	-0.244	0.014
-593.996	-56.961	0.137	0.061
-592.982	62.383	-0.204	-0.207
-591.967	800.000	-0.085	-0.375
-590.952	98.676	-0.318	-0.373
-589.938	-145.670	-0.242	0.022
-588.923	-70.414	-0.228	-0.088
-587.909	-29.064	-0.374	0.218
-586.894	-200.000	-0.011	-0.480
-585.879	35.719	-0.096	0.086
-584.865	251.806	-0.184	-0.318
-583.850	-200.000	0.006	0.027
-582.836	205.852	0.052	0.082
-581.821	-57.126	0.187	-0.084
-580.806	-36.372	0.180	0.098
-579.792	-156.854	-0.352	0.022
-578.777	800.000	0.113	0.324
-577.763	-43.016	-0.140	0.072
-576.748	-144.131	-0.069	0.007
-575.733	670.797	-0.069	0.182
-574.719	213.685	-0.096	0.154
-573.704	-200.000	-0.009	0.045
-572.690	-65.029	0.045	-0.018
-571.675	-73.248	-0.259	-0.096
-570.661	800.000	0.055	-0.176
-569.646	-29.035	0.480	0.280
-568.631	-99.102	0.145	0.037
-567.617	640.602	-0.065	0.167
-566.602	-101.147	0.235	-0.058
-565.588	346.169	0.069	-0.138
-564.573	293.356	0.048	-0.088
-563.558	-101.594	-0.505	0.125
-562.544	42.194	0.100	-0.093
-561.529	82.916	0.188	-0.208
-560.515	-74.794	0.085	-0.031
-559.500	-121.223	0.249	0.042
-558.485	-7.509	0.189	0.130
-557.471	297.716	0.054	-0.101
-556.456	800.000	0.003	0.010
-555.442	53.916	0.104	-0.102
-554.427	78.166	-0.171	-0.185
-553.412	-142.222	0.066	0.007
-552.398	-68.636	0.088	0.035
-551.383	-200.000	-0.018	0.221
-550.369	-176.297	0.208	-0.006
-549.354	25.847	-0.136	0.115
-548.339	-200.000	0.010	-0.083
-547.325	-33.569	0.139	-0.078
-546.310	-124.541	-0.118	-0.019
-545.296	109.346	0.138	0.167
-544.281	-150.505	0.067	-0.005
-543.266	151.757	-0.132	-0.182
-542.252	-99.029	0.206	0.053
-541.237	-110.464	0.081	-0.017
-540.223	507.854	0.173	-0.407
-539.208	-200.000	0.006	-0.124
-538.193	800.000	0.081	0.269
-537.179	226.521	0.041	0.068
-536.164	-156.040	0.197	-0.013
-535.150	-113.860	-0.068	0.013
-534.135	-200.000	0.061	0.290
-533.121	-20.235	0.251	0.157
-532.106	800.000	0.026	0.082
-531.091	800.000	0.043	0.128
-530.077	-160.326	-0.225	0.012
-529.062	-200.000	-0.038	-0.217
-528.048	-43.756	0.125	0.064
-527.033	643.080	-0.118	-0.304
-526.018	77.434	-0.043	-0.046
-525.004	-200.000	-0.016	-0.263
-523.989	-200.000	-0.003	0.037
-522.975	602.733	-0.074	-0.186
-521.960	-163.444	0.130	-0.006
-520.945	795.183	0.075	-0.210
-519.931	493.887	-0.076	-0.176
-518.916	-14.249	-0.022	0.014
-517.902	800.000	0.132	-0.379
-516.887	-69.473	-0.267	0.104
-515.872	401.038	0.101	-0.216
-514.858	164.660	-0.195	0.278
-513.843	-37.434	0.137	-0.074
-512.829	137.187	-0.092	-0.122
-511.814	-200.000	0.020	-0.236
-510.799	-200.000	0.019	-0.313
-509.785	141.570	-0.041	0.054
-508.770	141.207	-0.074	0.099
-507.756	-93.885	-0.449	0.125
-506.741	-96.821	0.264	0.070
-505.726	800.000	-0.059	0.244
-504.712	-200.000	0.056	0.277
-503.697	-104.238	0.136	0.032
-502.683	13.107	0.308	0.241
-501.668	800.000	-0.067	-0.208
-500.653	-200.000	0.007	0.247
-499.639	17.351	-0.182	0.147
-498.624	240.884	0.063	0.107
-497.610	800.000	-0.063	0.232
-496.595	337.028	0.132	0.260
-495.581	-50.321	0.319	0.153
-494.566	30.978	-0.023	-0.020
-493.551	-95.706	0.162	-0.044
-492.537	274.011	0.156	0.279
-491.522	622.364	0.142	-0.362
-490.508	10.075	0.141	0.108
-489.493	176.702	0.052	-0.077
-488.478	146.107	-0.087	0.118
-487.464	71.537	-0.282	-0.297
-486.449	-135.404	0.256	0.031
-485.435	435.874	-0.149	0.327
-484.420	-87.670	0.484	0.148
-483.405	-24.003	0.065	0.039
-482.391	-200.000	-0.043	-0.302
-481.376	-6.654	-0.181	0.125
-480.362	-200.000	-0.046	0.278
-479.347	421.087	-0.108	0.235
-478.332	-200.000	0.025	-0.115
-477.318	-200.000	-0.023	-0.189
-476.303	241.570	-0.045	0.076
-475.289	38.302	-0.237	0.214
-474.274	-200.000	-0.012	0.209
-473.259	-4.661	-0.082	0.058
-472.245	-200.000	0.014	0.172
-471.230	219.562	0.069	-0.111
-470.216	-200.000	-0.006	0.156
-469.201	190.749	0.150	-0.228
-468.186	-16.741	0.238	-0.152
-467.172	271.798	0.077	-0.138
-466.157	69.681	0.170	0.177
-465.143	0.502	-0.196	-0.142
-464.128	-149.211	0.086	0.007
-463.113	-200.000	-0.055	0.362
-462.099	-59.522	0.137	0.060
-461.084	-96.175	0.139	0.037
-460.070	742.522	-0.047	0.127
-459.055	338.269	0.047	-0.093
-458.040	-200.000	0.027	-0.342
-457.026	217.577	0.134	0.216
-456.011	-157.544	-0.063	0.004
-454.997	84.326	-0.050	-0.056
-453.982	131.331	-0.220	-0.286
-452.968	71.428	-0.073	0.077
-451.953	-200.000	-0.014	0.259
-450.938	-150.804	0.184	0.014
-449.924	768.366	-0.096	-0.265
-448.909	33.958	-0.096	-0.084
-447.895	-200.000	0.027	0.000
-446.880	165.518	0.194	0.277
-445.865	-104.079	-0.266	0.063
-444.851	320.047	0.009	-0.018
-443.836	-200.000	0.023	-0.224
-442.822	800.000	-0.041	-0.163
-441.807	-32.412	0.170	-0.096
-440.792	-23.510	-0.380	0.231
-439.778	800.000	0.095	-0.420
-438.763	72.805	-0.023	0.024
-437.749	3.638	-0.172	-0.127
-436.734	215.849	-0.101	-0.163
-435.719	-160.741	-0.318	0.017
-434.705	-98.042	-0.149	0.039
-433.690	-200.000	-0.034	0.210
-432.676	166.206	-0.058	-0.083
-431.661	-47.589	-0.089	-0.044
-430.646	-200.000	0.003	-0.134
-429.632	-77.634	0.130	-0.045
-428.617	-21.190	-0.127	0.079
-427.603	-39.226	-0.156	0.083
-426.588	90.418	0.127	0.143
-425.573	-28.857	0.314	-0.182
-424.559	-55.546	-0.215	0.097
-423.544	-200.000	-0.011	0.128
-422.530	-112.191	-0.174	-0.035
-421.515	-79.693	0.164	-0.056
-420.500	800.000	0.096	0.340
-419.486	-118.934	0.338	0.060
-418.471	800.000	-0.036	-0.155
-417.457	-200.000	0.058	0.261
-416.442	94.883	0.136	-0.157
-415.428	-200.000	0.013	-0.189
-414.413	-200.000	0.005	0.335
-413.398	-12.669	-0.271	-0.178
-412.384	28.065	0.170	-0.145
-411.369	338.517	-0.041	0.080
-410.355	52.061	-0.063	-0.061
-409.340	248.677	0.114	-0.195
-408.325	-122.725	-0.189	-0.031
-407.311	-39.525	0.195	0.103
-406.296	293.853	0.089	-0.164
-405.282	89.258	0.198	-0.222
-404.267	-106.416	-0.083	-0.019
-403.252	227.390	-0.171	0.281
-402.238	-200.000	-0.010	-0.237
-401.223	-94.830	-0.060	-0.016
-400.209	800.000	-0.039	0.131
-399.194	-49.062	-0.182	0.088
-398.179	359.822	-0.067	-0.136
-397.165	648.502	0.031	0.079
-396.150	-135.057	0.324	-0.039
-395.136	111.778	-0.143	-0.174
-394.121	-102.577	0.322	-0.078
-393.106	50.599	0.209	-0.199
-392.092	465.058	0.102	-0.230
-391.077	392.734	-0.064	-0.133
-390.063	101.427	-0.027	-0.032
-389.048	-92.431	0.289	0.082
-388.033	128.408	-0.122	-0.157
-387.019	468.851	0.047	0.107
-386.004	-16.212	-0.067	-0.043
-384.990	616.050	-0.047	0.119
-383.975	-200.000	0.021	-0.109
-382.960	-42.269	-0.033	-0.017
-381.946	-81.190	0.190	0.063
-380.931	550.367	-0.082	-0.198
-379.917	52.097	0.063	0.061
-378.902	-123.075	0.183	-0.030
-377.888	-31.962	-0.308	0.174
-376.873	-168.168	-0.107	-0.004
-375.858	55.587	-0.158	-0.154
-374.844	-138.102	-0.017	0.002
-373.829	800.000	0.039	-0.160
-372.815	759.893	-0.059	-0.162
-371.800	-97.602	0.298	0.078
-370.785	800.000	0.022	0.067
-369.771	-200.000	0.026	-0.140
-368.756	91.100	0.154	0.174
-367.742	-67.576	0.118	-0.046
-366.727	-200.000	-0.002	-0.263
-365.712	277.373	0.068	0.122
-364.698	296.746	0.205	-0.379
-363.683	-31.170	0.083	-0.047
-362.669	-79.991	0.164	-0.055
-361.654	42.290	0.133	-0.121
-360.639	800.000	-0.051	0.163
-359.625	-155.348	-0.366	-0.024
-358.610	-200.000	0.002	-0.282
-357.596	-83.524	-0.233	0.075
-356.581	167.921	-0.060	0.086
-355.566	290.190	0.207	0.378
-354.552	-128.447	-0.161	-0.023
-353.537	-200.000	-0.018	-0.083
-352.523	168.641	0.061	0.087
-351.508	115.999	0.070	0.087
-350.493	702.631	0.022	0.058
-349.479	-188.760	0.408	0.005
-348.464	-200.000	-0.002	-0.020
-347.450	-83.206	-0.157	0.051
-346.435	44.073	0.177	0.163
-345.420	-8.354	-0.059	-0.040
-344.406	579.153	0.121	0.297
-343.391	153.341	-0.091	0.125
-342.377	-200.000	0.080	-0.420
-341.362	-200.000	0.013	0.092
-340.348	-200.000	0.005	-0.133
-339.333	-200.000	-0.024	-0.172
-338.318	-138.323	-0.131	-0.015
-337.304	-200.000	0.040	0.338
-336.289	-61.304	0.173	0.073
-335.275	-200.000	-0.033	0.386
-334.260	-192.012	-0.043	0.000
-333.245	-90.520	0.306	0.089
-332.231	623.833	-0.060	-0.152
-331.216	509.286	0.043	0.100
-330.202	128.949	-0.161	-0.207
-329.187	329.858	0.105	-0.203
-328.172	-200.000	-0.002	0.094
-327.158	34.992	0.234	-0.206
-326.143	-180.729	-0.238	0.005
-325.129	56.448	0.119	-0.116
-324.114	-71.032	-0.204	0.077
-323.099	800.000	-0.056	0.227
-322.085	154.335	-0.121	-0.167
-321.070	-49.899	0.334	0.160
-320.056	800.000	-0.018	-0.077
-319.041	97.067	0.100	0.115
-318.026	-48.597	-0.213	-0.103
-317.012	-28.651	0.200	-0.116
-315.997	-200.000	0.064	0.344
-314.983	65.752	0.246	-0.251
-313.968	-75.086	0.149	0.053
-312.953	-71.535	-0.210	-0.079
-311.939	0.829	-0.070	-0.051
-310.924	253.263	0.056	-0.096
-309.910	-8.444	0.026	-0.018
-308.895	-164.471	-0.317	0.015
-307.880	-14.793	-0.037	-0.024
-306.866	-38.400	0.215	-0.114
-305.851	38.795	0.166	0.149
-304.837	-16.135	-0.379	0.242
-303.822	-123.234	0.179	0.029
-302.807	-200.000	0.046	0.261
-301.793	165.264	-0.205	0.292
-300.778	-200.000	0.034	-0.158
-299.764	76.778	-0.160	-0.170
-298.749	124.949	0.089	0.113
-297.735	83.626	0.049	0.054
-296.720	342.763	0.182	-0.358
-295.705	-200.000	0.026	0.185
-294.691	-32.234	-0.299	-0.168
-293.676	26.442	-0.095	-0.080
-292.662	-49.653	-0.137	0.066
-291.647	-200.000	0.015	0.216
-290.632	-41.324	0.064	0.033
-289.618	322.019	0.167	0.320
-288.603	-45.536	-0.065	-0.032
-287.589	45.911	-0.124	0.115
-286.574	-142.025	0.142	0.014
-285.559	-67.270	-0.193	0.076
-284.545	495.376	-0.117	0.270
-283.530	-200.000	0.010	0.105
-282.516	-49.493	-0.326	-0.156
-281.501	257.710	0.075	-0.130
-280.486	-200.000	-0.022	0.209
-279.472	67.399	-0.116	-0.119
-278.457	167.897	0.185	-0.264
-277.443	-47.961	-0.404	-0.196
-276.428	-65.922	-0.151	0.061
-275.413	-200.000	-0.049	-0.442
-274.399	800.000	0.085	0.327
-273.384	-8.874	0.257	0.173
-272.370	-136.398	0.271	-0.032
-271.355	48.200	-0.153	0.144
-270.340	-118.628	-0.149	0.026
-269.326	94.002	-0.125	0.142
-268.311	-200.000	-0.034	-0.291
-267.297	97.188	-0.195	-0.225
-266.282	-66.091	0.264	0.106
-265.267	58.033	-0.048	-0.047
-264.253	-99.490	0.177	-0.045
-263.238	104.298	0.118	0.139
-262.224	126.186	-0.135	0.171
-261.209	-95.635	0.142	-0.038
-260.195	-5.243	-0.179	0.124
-259.180	-200.000	0.005	0.223
-258.165	-30.236	0.324	-0.185
-257.151	-16.177	-0.219	-0.139
-256.136	-200.000	-0.011	-0.105
-255.122	100.419	-0.142	-0.165
-254.107	-103.980	0.322	-0.075
-253.092	-151.055	-0.311	-0.023
-252.078	-49.774	0.078	-0.037
-251.063	-70.318	0.179	-0.068
-250.049	75.665	0.136	-0.144
-249.034	-150.200	0.323	-0.025
-248.019	-200.000	-0.010	0.067
-247.005	-99.933	0.330	-0.083
-245.990	-200.000	0.006	-0.149
-244.976	-200.000	-0.009	0.082
-243.961	236.895	-0.073	-0.122
-242.946	-130.829	-0.073	0.010
-241.932	-42.897	0.236	0.120
-240.917	-166.710	-0.280	-0.012
-239.903	39.998	0.106	0.095
-238.888	256.252	-0.174	0.300
-237.873	-83.747	0.111	-0.036
-236.859	256.458	-0.150	-0.258
-235.844	9.273	0.226	-0.171
-234.830	102.817	0.258	-0.303
-233.815	-12.211	0.068	-0.045
-232.800	165.940	0.184	0.260
-231.786	272.811	0.047	0.084
-230.771	-200.000	0.017	-0.122
-229.757	510.171	-0.085	-0.197
-228.742	316.470	-0.082	-0.155
-227.727	108.084	0.058	-0.069
-226.713	528.337	-0.049	0.116
-225.698	-52.309	0.282	0.131
-224.684	264.930	-0.039	-0.069
-223.669	693.585	-0.012	0.032
-222.655	800.000	-0.080	0.344
-221.640	51.174	-0.314	0.299
-220.625	457.462	0.080	0.179
-219.611	-200.000	-0.003	0.077
-218.596	7.740	0.254	-0.191
-217.582	555.046	-0.048	0.115
-216.567	-44.815	0.331	-0.165
-215.552	3.608	0.311	-0.227
-214.538	-200.000	-0.036	-0.187
-213.523	-97.938	-0.159	-0.041
-212.509	-56.296	0.077	0.034
-211.494	58.295	0.130	0.127
-210.479	76.116	-0.120	-0.127
-209.465	-200.000	0.013	0.198
-208.450	82.305	0.163	-0.177
-207.436	-142.721	0.200	0.020
-206.421	-125.491	-0.138	-0.021
-205.406	71.155	-0.184	0.192
-204.392	26.203	0.436	0.365
-203.377	-51.971	-0.160	0.075
-202.363	-44.981	-0.216	-0.108
-201.348	-92.125	-0.202	0.057
-200.333	800.000	-0.098	-0.344
-199.319	-138.078	-0.204	-0.023
-198.304	-200.000	-0.034	-0.192
-197.290	-200.000	-0.014	0.082
-196.275	-200.000	-0.007	0.072
-195.260	-16.030	0.179	0.114
-194.246	-74.809	-0.179	-0.064
-193.231	73.925	-0.187	-0.197
-192.217	-20.368	-0.092	0.057
-191.202	-200.000	0.038	-0.184
-190.187	59.332	-0.082	0.081
-189.173	-44.540	0.145	-0.072
-188.158	122.932	-0.044	-0.055
-187.144	-57.457	0.066	0.029
-186.129	-200.000	0.063	0.289
-185.114	800.000	0.097	0.284
-184.100	-13.850	0.020	-0.013
-183.085	528.424	-0.071	0.168
-182.071	800.000	0.019	-0.067
-181.056	30.384	-0.306	-0.261
-180.042	18.649	0.120	0.096
-179.027	800.000	-0.024	0.088
-178.012	172.403	-0.071	0.102
-176.998	36.746	-0.182	-0.161
-175.983	42.473	-0.183	-0.167
-174.969	-83.046	-0.167	0.054
-173.954	178.242	-0.188	0.275
-172.939	-70.710	0.279	-0.105
-171.925	129.908	0.131	0.167
-170.910	-200.000	-0.004	0.045
-169.896	-48.745	-0.253	0.121
-168.881	23.943	-0.164	-0.135
-167.866	-75.156	-0.212	-0.076
-166.852	172.332	0.016	0.023
-165.837	-109.939	0.163	0.034
-164.823	20.614	-0.073	-0.059
-163.808	1.271	0.159	-0.114
-162.793	59.569	0.352	0.347
-161.779	-119.627	-0.232	-0.040
-160.764	55.280	-0.225	0.218
-159.750	201.674	0.109	0.167
-158.735	-48.662	-0.447	-0.215
-157.720	115.372	-0.163	0.199
-156.706	-45.297	0.264	0.131
-155.691	-200.000	-0.010	-0.169
-154.677	-27.406	-0.207	-0.120
-153.662	-108.054	-0.218	-0.047
-152.647	678.291	0.045	0.116
-151.633	42.768	0.274	0.249
-150.618	-58.920	-0.227	0.098
-149.604	800.000	-0.088	0.260
-148.589	800.000	-0.031	0.100
-147.574	800.000	0.125	-0.445
-146.560	41.758	-0.167	0.151
-145.545	-35.632	0.393	0.213
-144.531	190.673	-0.171	0.257
-143.516	-93.941	0.427	0.117
-142.502	-87.766	0.187	-0.056
-141.487	-145.268	-0.219	-0.020
-140.472	261.488	0.155	-0.267
-139.458	43.888	0.168	0.154
-138.443	528.257	-0.087	-0.205
-137.429	-165.450	0.184	-0.008
-136.414	-200.000	-0.033	0.218
-135.399	-200.000	0.160	-0.001
-134.385	-46.857	0.135	-0.066
-133.370	800.000	-0.062	0.210
-132.356	-1.866	-0.206	0.145
-131.341	449.315	0.190	-0.418
-130.326	323.521	-0.071	-0.135
-129.312	800.000	-0.040	0.127
-128.297	-49.511	-0.105	0.050
-127.283	29.718	-0.250	0.212
-126.268	-29.245	0.372	0.213
-125.253	253.056	-0.047	-0.080
-124.239	46.640	-0.092	-0.085
-123.224	-200.000	-0.101	0.457
-122.210	16.815	-0.079	-0.063
-121.195	-187.379	0.256	-0.003
-120.180	800.000	-0.017	0.067
-119.166	-200.000	-0.027	-0.138
-118.151	-200.000	0.027	0.386
-117.137	-200.000	0.080	-0.357
-116.122	-90.531	-0.263	0.076
-115.107	9.794	-0.230	-0.174
-114.093	-35.483	0.211	0.114
-113.078	800.000	-0.086	-0.259
-112.064	800.000	0.015	-0.049
-111.049	-200.000	-0.010	0.176
-110.034	-158.027	0.177	-0.010
-109.020	22.236	0.066	-0.054
-108.005	-56.801	0.190	0.084
-106.991	-49.208	-0.094	-0.045
-105.976	-83.314	0.329	0.105
-104.962	0.415	-0.210	0.150
-103.947	730.924	-0.100	0.266
-102.932	-200.000	-0.028	-0.203
-101.918	-200.000	-0.014	0.181
-100.903	-200.000	0.005	-0.099
-99.889	100.003	0.195	-0.225
-98.874	-5.148	0.116	0.079
-97.859	106.199	0.117	0.138
-96.845	-145.462	0.184	0.016
-95.830	800.000	-0.064	-0.206
-94.816	390.061	-0.046	-0.095
-93.801	-200.000	-0.072	0.359
-92.786	-58.529	-0.211	0.091
-91.772	-74.285	-0.160	-0.058
-90.757	91.289	0.241	0.270
-89.743	-148.974	-0.315	-0.025
-88.728	-200.000	-0.048	-0.426
-87.713	116.403	0.097	-0.118
-86.699	-64.834	-0.243	-0.098
-85.684	-83.946	-0.177	-0.056
-84.670	-101.156	0.018	0.004
-83.655	800.000	-0.009	-0.026
-82.640	-200.000	0.056	0.336
-81.626	71.889	-0.010	0.011
-80.611	-97.363	-0.164	-0.042
-79.597	-66.631	0.252	0.100
-78.582	800.000	0.070	-0.228
-77.567	800.000	0.069	-0.230
-76.553	-200.000	-0.010	0.246
-75.538	800.000	0.133	0.540
-74.524	-200.000	0.013	-0.128
-73.509	800.000	0.024	0.075
-72.494	145.718	-0.212	0.284
-71.480	-200.000	-0.012	0.315
-70.465	505.862	-0.066	-0.152
-69.451	-200.000	0.052	0.283
-68.436	-169.298	0.056	0.002
-67.422	646.832	0.095	0.241
-66.407	-167.371	0.404	0.016
-65.392	-143.446	-0.343	0.033
-64.378	-200.000	-0.054	0.296
-63.363	475.738	-0.089	0.201
-62.349	361.380	-0.009	-0.019
-61.334	37.732	-0.559	-0.495
-60.319	-200.000	0.059	0.568
-59.305	460.288	-0.255	-0.565
-58.290	206.890	0.553	0.857
-57.276	413.103	0.630	1.333
-56.261	-200.000	85.230	495.157
-55.246	535.021	1374.771	3245.067
-54.232	184.561	2591.892	3823.123
-53.217	118.635	2220.419	2728.924
-52.203	48.754	1670.630	1559.587
-51.188	41.323	1402.485	1262.383
-50.173	38.002	1358.707	1202.502
-49.159	56.553	1400.797	1356.091
-48.144	61.426	1420.232	1405.320
-47.130	41.848	1377.593	1243.042
-46.115	38.069	1360.413	1204.237
-45.100	37.843	1355.610	1198.547
-44.086	37.764	1353.419	1196.079
-43.071	37.810	1350.776	1193.977
-42.057	37.765	1348.871	1191.968
-41.042	37.869	1346.929	1190.840
-40.027	37.862	1345.534	1189.516
-39.013	37.884	1343.238	1187.576
-37.998	37.840	1341.635	1185.846
-36.984	37.967	1339.698	1184.857
-35.969	37.952	1338.095	1183.299
-34.954	37.981	1336.329	1181.864
-33.940	38.097	1334.707	1181.089
-32.925	38.026	1333.361	1179.421
-31.911	37.949	1332.069	1177.764
-30.896	38.030	1330.708	1177.003
-29.881	38.069	1329.240	1175.893
-28.867	38.124	1327.494	1174.634
-27.852	38.129	1326.102	1173.385
-26.838	38.195	1324.597	1172.402
-25.823	38.114	1323.776	1171.144
-24.809	38.095	1322.292	1169.674
-23.794	38.103	1320.933	1168.473
-22.779	38.070	1319.271	1166.756
-21.765	38.062	1318.188	1165.704
-20.750	38.201	1316.613	1165.095
-19.736	37.910	1315.919	1162.697
-18.721	37.907	1314.573	1161.444
-17.706	38.031	1313.079	1160.816
-16.692	37.931	1311.982	1159.209
-15.677	38.063	1310.877	1158.971
-14.663	38.099	1309.477	1157.900
-13.648	37.904	1308.314	1155.669
-12.633	37.910	1307.783	1155.191
-11.619	37.998	1306.547	1154.574
-10.604	38.005	1305.774	1153.883
-9.590	37.888	1305.109	1152.562
-8.575	37.880	1303.808	1151.317
-7.560	37.955	1302.590	1150.639
-6.546	37.864	1302.157	1149.673
-5.531	38.023	1300.778	1149.349
-4.517	37.977	1300.157	1148.482
-3.502	38.060	1299.245	1148.123
-2.487	37.981	1298.458	1146.915
-1.473	37.997	1294.868	1143.794
-0.458	36.820	1279.129	1123.025
0.556	33.056	1259.153	1079.837
1.571	28.810	1262.769	1058.450
2.586	27.377	1276.729	1061.701
3.600	25.931	1264.233	1042.858
4.615	19.255	1189.076	944.319
5.629	9.629	1108.796	831.064
6.644	5.235	1086.039	791.699
7.659	4.936	1083.380	788.178
8.673	4.891	1082.600	787.313
9.688	4.909	1081.599	786.606
10.702	5.134	1079.880	786.423
11.717	10.426	1087.216	818.481
12.731	18.625	1099.260	869.182
13.746	20.867	1100.794	881.678
14.761	19.418	1098.353	872.323
15.775	18.298	1096.321	864.975
16.790	17.214	1093.801	857.441
17.804	16.412	1092.522	852.320
18.819	16.113	1091.281	849.770
19.834	15.838	1090.448	847.660
20.848	15.582	1089.775	845.775
21.863	15.559	1088.377	844.498
22.877	15.315	1087.686	842.662
23.892	15.214	1087.301	841.784
24.907	15.236	1086.592	841.268
25.921	15.311	1085.588	840.792
26.936	15.303	1084.075	839.507
27.950	15.318	1082.913	838.609
28.965	15.402	1080.966	837.444
29.980	15.625	1078.974	836.941
30.994	15.616	1078.250	836.261
32.009	15.520	1077.526	835.148
33.023	15.540	1076.474	834.354
34.038	15.519	1075.245	833.227
35.053	15.562	1074.127	832.498
36.067	15.472	1073.169	831.238
37.082	15.415	1072.790	830.586
38.096	15.500	1071.994	830.319
39.111	15.469	1071.297	829.552
40.126	15.420	1070.052	828.273
41.140	15.183	1068.459	825.797
42.155	15.174	1067.021	824.567
43.169	15.113	1066.040	823.437
44.184	15.145	1065.174	822.855
45.199	15.212	1063.973	822.181
46.213	15.211	1062.974	821.334
47.228	15.249	1061.900	820.617
48.242	15.413	1060.819	820.512
49.257	15.409	1059.666	819.525
50.271	15.369	1058.844	818.624
51.286	15.440	1058.343	818.508
52.301	15.314	1057.384	817.083
53.315	15.228	1056.508	815.914
54.330	15.194	1055.253	814.705
55.344	15.268	1054.055	814.066
56.359	15.192	1053.603	813.278
57.374	15.310	1052.250	812.735
58.388	15.213	1051.645	811.724
59.403	15.056	1050.878	810.302
60.417	15.082	1050.081	809.741
61.432	15.082	1049.058	808.880
62.447	15.113	1048.222	808.315
63.461	15.088	1047.277	807.395
64.476	15.014	1046.640	806.476
65.490	15.073	1045.435	805.757
66.505	15.130	1044.938	805.577
67.520	15.111	1044.107	804.774
68.534	15.181	1043.210	804.350
69.549	15.027	1042.937	803.326
70.563	14.923	1042.185	802.176
71.578	14.988	1040.907	801.435
72.593	14.929	1040.288	800.607
73.607	14.947	1039.324	799.880
74.622	15.027	1038.762	799.757
75.636	14.873	1038.291	798.591
76.651	14.980	1037.502	798.419
77.666	15.052	1036.651	798.039
78.680	14.974	1036.093	797.166
79.695	15.185	1035.340	797.521
80.709	15.055	1035.188	796.715
81.724	15.206	1034.215	796.614
82.739	15.173	1033.530	795.861
83.753	15.362	1032.442	795.848
84.768	15.476	1032.119	796.069
85.782	15.676	1030.927	796.028
86.797	15.542	1029.744	794.408
87.812	15.402	1029.210	793.267
88.826	15.453	1028.071	792.560
89.841	15.398	1027.256	791.601
90.855	15.538	1026.306	791.459
91.870	15.515	1025.764	790.863
92.884	15.590	1024.430	790.116
93.899	15.509	1023.799	789.180
94.914	15.558	1022.881	788.632
95.928	15.628	1022.209	788.373
96.943	15.555	1020.959	786.994
97.957	15.544	1020.344	786.399
98.972	15.605	1019.206	785.741
99.987	15.501	1018.197	784.405
101.001	15.523	1017.337	783.775
102.016	15.474	1016.751	783.028
103.030	15.418	1016.103	782.198
104.045	15.478	1015.111	781.643
105.060	15.349	1013.909	780.052
106.074	15.232	1013.323	778.987
107.089	15.200	1011.742	777.553
108.103	15.197	1011.252	777.094
109.118	15.084	1010.498	775.920
110.133	15.029	1009.283	774.665
111.147	15.164	1008.507	774.627
112.162	15.217	1007.774	774.239
113.176	15.203	1007.171	773.644
114.191	15.392	1006.172	773.679
115.206	15.330	1005.155	772.544
116.220	15.315	1004.448	771.861
117.235	15.264	1004.004	771.217
118.249	15.203	1002.806	769.950
119.264	15.240	1001.872	769.332
120.279	15.172	1001.379	768.576
121.293	15.167	1000.408	767.741
122.308	15.126	999.313	766.643
123.322	15.015	998.501	765.444
124.337	15.106	997.398	764.948
125.352	15.024	996.434	763.764
126.366	15.014	995.189	762.701
127.381	15.155	993.982	762.347
128.395	15.143	993.030	761.497
129.410	15.157	992.634	761.190
130.424	15.140	991.586	760.242
131.439	15.187	990.969	759.912
132.454	15.322	989.919	759.651
133.468	15.370	989.242	759.285
134.483	15.429	988.361	758.804
135.497	15.332	987.576	757.697
136.512	15.411	986.635	757.268
137.527	15.396	985.754	756.455
138.541	15.375	985.192	755.864
139.556	15.385	984.380	755.217
140.570	15.425	984.201	755.192
141.585	15.515	983.458	754.959
142.600	15.626	981.970	754.252
143.614	15.623	981.184	753.568
144.629	15.710	980.264	753.185
145.643	15.598	979.250	751.838
146.658	15.525	978.335	750.742
147.673	15.435	977.346	749.515
148.687	15.424	976.386	748.661
149.702	15.286	975.976	747.665
150.716	15.431	974.769	747.322
151.731	15.390	974.412	746.799
152.746	15.531	973.184	746.417
153.760	15.519	972.336	745.647
154.775	15.534	971.958	745.360
155.789	15.590	971.542	745.222
156.804	15.476	971.088	744.301
157.819	15.686	970.137	744.439
158.833	15.667	969.548	743.835
159.848	15.740	968.617	743.379
160.862	15.699	967.508	742.280
161.877	15.599	966.158	740.738
162.892	15.457	965.514	739.553
163.906	15.529	964.443	738.985
164.921	15.428	963.767	737.957
165.935	15.532	962.690	737.524
166.950	15.558	962.097	737.117
167.964	15.518	961.585	736.483
168.979	15.503	960.468	735.501
169.994	15.559	959.331	734.809
171.008	15.597	958.982	734.641
172.023	15.563	958.788	734.283
173.037	15.884	957.286	734.464
174.052	15.755	956.865	733.514
175.067	15.562	956.341	732.208
176.081	15.583	955.632	731.690
177.096	15.444	955.166	730.665
178.110	15.665	953.946	730.627
179.125	15.581	953.678	729.994
180.140	15.600	953.378	729.781
181.154	15.620	952.812	729.368
182.169	15.765	952.415	729.631
183.183	15.839	951.864	729.465
184.198	16.019	950.350	729.018
185.213	15.867	950.406	728.340
186.227	15.990	949.069	727.782
187.242	16.047	948.875	727.813
188.256	15.970	948.599	727.204
189.271	16.010	947.475	726.454
190.286	15.705	946.505	724.330
191.300	15.599	945.572	723.096
192.315	15.435	944.887	721.804
193.329	15.509	944.264	721.583
194.344	15.557	943.992	721.516
195.359	15.639	943.379	721.335
196.373	15.880	942.381	721.544
197.388	16.041	942.388	722.172
198.402	16.116	941.821	721.995
199.417	16.156	941.423	721.799
200.432	16.238	940.460	721.347
201.446	16.193	940.163	720.863
202.461	16.293	939.469	720.696
203.475	16.170	938.758	719.558
204.490	16.183	937.798	718.814
205.504	16.108	937.158	717.944
206.519	16.044	935.944	716.678
207.534	16.099	935.663	716.632
208.548	16.013	935.244	715.882
209.563	16.085	934.187	715.316
210.577	16.062	934.094	715.084
211.592	16.180	933.143	714.793
212.607	16.275	932.358	714.529
213.621	16.297	931.709	714.061
214.636	16.274	930.849	713.244
215.650	16.385	929.907	712.926
216.665	16.355	929.241	712.225
217.680	16.389	928.555	711.780
218.694	16.501	928.016	711.777
219.709	16.349	927.530	710.702
220.723	16.409	926.702	710.257
221.738	16.233	926.353	709.187
222.753	16.416	925.130	708.955
223.767	16.200	925.039	707.915
224.782	16.482	924.099	708.314
225.796	16.549	923.534	708.100
226.811	16.336	923.286	706.958
227.826	16.293	921.923	705.669
228.840	16.222	921.525	705.006
229.855	16.342	920.517	704.675
230.869	16.352	920.040	704.288
231.884	16.355	919.226	703.616
232.899	16.277	918.439	702.627
233.913	16.274	917.584	701.897
234.928	16.261	916.767	701.157
235.942	16.265	916.291	700.745
236.957	16.263	915.890	700.369
237.972	16.400	915.105	700.275
238.986	16.337	914.822	699.736
240.001	16.253	914.219	698.865
241.015	16.273	913.508	698.341
242.030	16.390	912.885	698.287
243.045	16.475	912.126	697.995
244.059	16.505	911.382	697.489
245.074	16.524	910.642	696.940
246.088	16.492	910.305	696.488
247.103	16.607	909.740	696.466
248.117	16.656	909.375	696.327
249.132	16.834	909.013	696.721
250.147	16.907	908.260	696.383
251.161	16.894	907.672	695.816
252.176	16.937	907.142	695.524
253.190	17.048	906.354	695.311
254.205	17.002	905.774	694.620
255.220	17.061	905.264	694.406
256.234	17.017	904.523	693.599
257.249	17.019	903.590	692.830
258.263	16.933	902.891	691.882
259.278	17.012	902.138	691.563
260.293	17.113	902.168	691.937
261.307	17.129	901.013	691.057
262.322	17.179	900.544	690.840
263.336	17.187	899.923	690.335
264.351	17.082	899.165	689.264
265.366	17.222	898.780	689.479
266.380	17.223	897.896	688.743
267.395	17.188	897.321	688.096
268.409	17.128	896.197	686.933
269.424	17.201	895.192	686.398
270.439	17.141	894.622	685.654
271.453	17.055	894.162	684.897
272.468	17.045	893.521	684.302
273.482	17.178	892.864	684.274
274.497	17.141	892.157	683.524
275.512	17.157	891.777	683.236
276.526	17.130	891.530	682.881
277.541	17.147	890.948	682.443
278.555	17.281	890.487	682.568
279.570	17.374	889.753	682.314
280.585	17.299	888.845	681.259
281.599	17.211	888.179	680.334
282.614	17.201	887.283	679.549
283.628	17.307	886.894	679.616
284.643	17.219	886.615	678.990
285.657	17.435	885.503	678.940
286.672	17.437	884.535	678.146
287.687	17.308	884.435	677.495
288.701	17.368	883.649	677.072
289.716	17.289	883.023	676.217
290.730	17.440	882.622	676.453
291.745	17.438	881.804	675.757
292.760	17.322	881.554	675.046
293.774	17.387	881.003	674.821
294.789	17.594	879.968	674.788
295.803	17.554	879.350	674.098
296.818	17.307	878.859	672.685
297.833	17.354	877.967	672.128
298.847	17.474	877.335	672.057
299.862	17.579	876.569	671.827
300.876	17.661	876.215	671.819
301.891	17.623	875.986	671.434
302.906	17.675	875.201	670.977
303.920	17.677	874.970	670.746
304.935	17.694	874.397	670.318
305.949	17.729	873.488	669.699
306.964	17.605	872.920	668.716
307.979	17.693	872.124	668.392
308.993	17.661	871.487	667.720
310.008	17.791	871.098	667.871
311.022	17.719	870.864	667.350
312.037	17.742	869.877	666.624
313.052	17.610	869.310	665.615
314.066	17.595	868.676	665.013
315.081	17.554	868.754	664.853
316.095	17.503	867.737	663.820
317.110	17.645	866.734	663.545
318.125	17.528	866.908	663.163
319.139	17.560	866.320	662.780
320.154	17.671	865.535	662.551
321.168	17.746	865.169	662.506
322.183	17.619	864.512	661.449
323.197	17.724	864.295	661.634
324.212	17.765	863.265	660.945
325.227	17.700	862.808	660.283
326.241	17.733	862.164	659.862
327.256	17.700	861.575	659.223
328.270	17.776	861.097	659.093
329.285	17.843	860.566	658.889
330.300	17.709	860.069	657.931
331.314	17.848	859.292	657.815
332.329	17.943	858.990	657.894
333.343	17.917	858.476	657.339
334.358	17.848	857.963	656.622
335.373	17.979	857.995	657.093
336.387	17.987	857.477	656.672
337.402	17.975	857.227	656.375
338.416	18.167	856.741	656.680
339.431	18.239	856.198	656.484
340.446	18.232	855.929	656.193
341.460	18.221	855.816	656.004
342.475	18.292	855.179	655.731
343.489	18.356	854.596	655.470
344.504	18.383	854.269	655.263
345.519	18.333	853.934	654.760
346.533	18.297	853.257	654.046
347.548	18.185	852.642	653.087
348.562	18.072	851.930	652.054
349.577	18.105	851.560	651.839
350.592	18.089	850.413	650.840
351.606	18.127	849.419	650.166
352.621	18.080	849.199	649.765
353.635	18.221	848.345	649.588
354.650	18.305	847.681	649.342
355.665	18.304	847.250	648.949
356.679	18.346	846.677	648.613
357.694	18.429	845.924	648.292
358.708	18.385	845.341	647.622
359.723	18.272	844.799	646.722
360.738	18.271	844.489	646.423
361.752	18.386	843.659	646.165
362.767	18.606	842.939	646.385
363.781	18.615	842.796	646.252
364.796	18.689	842.426	646.190
365.810	18.602	842.011	645.488
366.825	18.751	841.428	645.545
367.840	18.754	841.159	645.290
368.854	18.471	840.591	643.735
369.869	18.616	839.795	643.614
370.883	18.630	839.699	643.533
371.898	18.552	839.730	643.209
372.913	18.779	838.869	643.344
373.927	18.732	838.213	642.608
374.942	18.746	838.034	642.465
375.956	18.784	837.559	642.186
376.971	18.800	836.970	641.738
377.986	18.985	836.182	641.767
379.000	19.029	835.961	641.705
380.015	18.945	835.117	640.688
381.029	18.984	834.543	640.335
382.044	18.916	834.288	639.829
383.059	19.061	833.730	639.886
384.073	18.913	833.246	638.906
385.088	18.805	832.561	637.924
386.102	18.781	831.781	637.182
387.117	18.823	831.424	637.007
388.132	18.874	830.805	636.664
389.146	18.889	830.215	636.214
390.161	18.853	830.323	636.106
391.175	19.030	829.640	636.179
392.190	18.902	828.778	634.991
393.205	18.898	828.470	634.685
394.219	18.763	828.311	634.005
395.234	18.871	827.487	633.716
396.248	18.818	826.915	633.028
397.263	18.865	826.528	632.850
398.278	18.744	826.248	632.135
399.292	18.725	825.704	631.593
400.307	18.847	825.227	631.620
401.321	18.935	824.830	631.582
402.336	18.923	824.251	631.039
403.350	18.926	824.320	631.047
404.365	18.923	823.532	630.379
405.380	19.094	822.977	630.524
406.394	19.173	822.233	630.188
407.409	19.246	821.905	630.146
408.423	19.210	822.120	630.125
409.438	19.260	821.747	629.966
410.453	19.460	820.878	629.972
411.467	19.320	820.274	628.943
412.482	19.397	820.252	629.153
413.496	19.371	819.673	628.557
414.511	19.524	819.425	628.869
415.526	19.270	818.907	627.491
416.540	19.424	818.208	627.462
417.555	19.435	817.723	627.074
418.569	19.392	817.357	626.581
419.584	19.467	816.695	626.290
420.599	19.450	816.199	625.794
421.613	151.279	1367.983	1775.996
422.628	131.554	1448.403	1776.087
