DTS Sentinel unit serial number:	SN413079Multiplexer serial number:	ORYXHardware model number:	OX4-SRSoftware version number:	ORYX F/W v4.00 Oryx Data Collector v3.7.2.0data status	okinstallation	princeton_trtdifferential loss correction	single-endedforward channel	channel 1reverse channel	N/Adate	2019/09/10time	18:12:11forward acquisition time	60.00reverse acquisition time	0.00gamma	496.2192k internal	0.2303k external	0.2303temperature offset calibration	0.9933default loss term (dB/km)	0.3790temperature slope calibration	1.0000multiplexer offset coefficient	1.0000multiplexer slope coefficient	1.0000fibre end	0.00T internal ref (°C)	36.66T ext. ref 1 (°C)	-0.32T ext. ref 2 (°C)	28.82length (m)	temperature (°C)	Stokes	anti-Stokes-747.200	81.015	0.124	0.136
-746.185	800.000	-0.200	0.586
-745.171	-59.886	-0.136	-0.059
-744.156	-8.140	-0.073	0.050
-743.142	376.096	0.043	-0.090
-742.127	-200.000	-0.015	0.245
-741.112	-81.096	-0.191	0.064
-740.098	-24.585	0.243	0.147
-739.083	-200.000	-0.003	-0.313
-738.069	-200.000	-0.004	0.244
-737.054	-120.645	-0.407	-0.070
-736.039	-47.624	-0.206	-0.102
-735.025	33.072	-0.100	0.088
-734.010	-200.000	-0.027	-0.260
-732.996	220.164	-0.107	-0.174
-731.981	151.315	-0.107	0.148
-730.966	-74.848	-0.142	0.052
-729.952	-75.890	0.182	-0.066
-728.937	-70.986	-0.262	-0.101
-727.923	-141.004	-0.252	0.026
-726.908	-155.679	-0.383	-0.025
-725.894	16.182	-0.113	0.091
-724.879	414.467	0.055	-0.119
-723.864	-200.000	0.034	0.500
-722.850	-200.000	-0.040	0.284
-721.835	262.845	0.094	-0.166
-720.821	151.922	-0.046	-0.064
-719.806	-160.926	-0.356	-0.019
-718.791	-93.571	-0.244	0.069
-717.777	-200.000	0.039	-0.174
-716.762	-76.715	0.201	0.072
-715.748	-85.939	0.174	-0.055
-714.733	440.740	0.090	-0.201
-713.718	22.753	-0.230	-0.192
-712.704	381.752	0.082	-0.172
-711.689	46.124	-0.011	-0.011
-710.675	118.302	-0.103	0.129
-709.660	180.123	0.138	-0.206
-708.645	-200.000	0.037	-0.270
-707.631	37.999	0.336	-0.304
-706.616	-200.000	-0.007	-0.349
-705.602	-17.045	0.150	0.096
-704.587	7.433	0.117	0.089
-703.572	13.259	-0.200	-0.157
-702.558	-200.000	0.012	-0.065
-701.543	-69.398	0.106	0.041
-700.529	-48.177	0.051	0.025
-699.514	-200.000	0.012	0.129
-698.499	119.013	0.229	-0.287
-697.485	-59.498	-0.251	0.110
-696.470	348.643	-0.128	0.257
-695.456	-200.000	-0.017	0.171
-694.441	15.360	0.277	0.221
-693.426	800.000	-0.064	0.257
-692.412	-200.000	0.004	0.165
-691.397	32.704	-0.242	0.213
-690.383	-87.790	0.239	0.073
-689.368	482.615	-0.027	0.062
-688.354	261.772	-0.137	-0.242
-687.339	-135.657	0.198	0.024
-686.324	-0.788	0.145	-0.104
-685.310	800.000	0.071	-0.292
-684.295	-200.000	-0.005	-0.323
-683.281	-149.015	0.255	-0.021
-682.266	34.508	-0.107	-0.095
-681.251	582.650	0.037	-0.093
-680.237	113.862	0.214	-0.264
-679.222	246.392	0.105	0.179
-678.208	-200.000	-0.016	0.265
-677.193	-200.000	0.001	-0.174
-676.178	-116.824	-0.158	-0.029
-675.164	-200.000	-0.007	-0.046
-674.149	77.506	-0.145	-0.157
-673.135	-200.000	0.014	-0.269
-672.120	-129.006	-0.288	-0.041
-671.105	800.000	-0.126	0.381
-670.091	208.061	0.111	-0.176
-669.076	72.688	-0.207	-0.219
-668.062	37.299	0.112	0.101
-667.047	-126.017	-0.512	0.078
-666.032	-1.743	0.206	-0.147
-665.018	-96.468	-0.129	-0.035
-664.003	-200.000	0.008	-0.139
-662.989	607.765	0.027	0.069
-661.974	333.434	-0.057	-0.112
-660.959	201.529	0.259	-0.406
-659.945	58.831	0.136	-0.136
-658.930	-152.145	-0.240	0.018
-657.916	-200.000	-0.035	0.294
-656.901	-10.881	-0.303	-0.203
-655.886	-129.199	0.195	0.028
-654.872	-200.000	0.033	-0.380
-653.857	-3.956	0.443	-0.312
-652.843	-104.416	-0.161	-0.038
-651.828	-74.965	-0.410	-0.149
-650.814	19.542	0.221	0.180
-649.799	243.879	-0.154	-0.261
-648.784	-125.650	0.275	-0.042
-647.770	129.701	0.133	0.173
-646.755	74.317	-0.173	0.185
-645.741	-200.000	-0.009	-0.327
-644.726	259.802	0.137	-0.241
-643.711	192.999	-0.139	0.214
-642.697	63.337	-0.070	0.071
-641.682	65.481	-0.082	0.084
-640.668	368.891	-0.111	0.227
-639.653	800.000	-0.114	0.335
-638.638	800.000	-0.094	-0.322
-637.624	272.235	-0.068	0.121
-636.609	-73.702	-0.504	-0.186
-635.595	434.833	0.110	0.242
-634.580	-200.000	-0.002	-0.142
-633.565	314.718	-0.118	0.226
-632.551	-200.000	0.028	0.343
-631.536	-200.000	0.005	-0.067
-630.522	53.700	-0.145	0.142
-629.507	529.107	0.146	-0.350
-628.492	-99.515	0.005	-0.001
-627.478	-200.000	0.037	0.217
-626.463	466.184	-0.172	0.391
-625.449	-85.883	-0.102	0.032
-624.434	-56.847	-0.124	-0.056
-623.419	-28.253	-0.064	-0.038
-622.405	800.000	-0.049	0.193
-621.390	372.712	0.241	0.496
-620.376	-200.000	-0.001	0.471
-619.361	-200.000	0.064	-0.318
-618.346	-90.623	0.275	0.080
-617.332	-106.292	0.254	-0.058
-616.317	123.428	0.170	-0.216
-615.303	-31.400	-0.198	-0.113
-614.288	26.130	-0.159	-0.135
-613.273	-200.000	0.070	-0.314
-612.259	31.665	-0.146	-0.128
-611.244	29.171	-0.025	0.021
-610.230	-134.148	-0.461	-0.058
-609.215	-77.709	0.388	-0.136
-608.201	-106.467	0.216	-0.049
-607.186	582.729	-0.064	-0.160
-606.171	800.000	-0.037	0.152
-605.157	-69.500	-0.333	0.129
-604.142	-29.801	-0.111	-0.064
-603.128	-55.710	-0.139	-0.063
-602.113	-200.000	0.063	-0.306
-601.098	-100.973	-0.182	0.045
-600.084	295.818	-0.196	0.364
-599.069	-128.646	-0.076	0.011
-598.055	-71.950	-0.142	-0.054
-597.040	-67.714	-0.164	0.065
-596.025	5.511	0.093	0.069
-595.011	800.000	-0.103	-0.322
-593.996	18.623	-0.152	-0.123
-592.982	-200.000	-0.032	0.289
-591.967	20.475	0.213	0.175
-590.952	-48.858	0.166	0.080
-589.938	119.968	-0.214	-0.269
-588.923	-200.000	-0.025	-0.194
-587.909	800.000	0.056	0.208
-586.894	9.105	-0.176	0.135
-585.879	-200.000	0.021	-0.101
-584.865	-200.000	-0.037	-0.174
-583.850	-66.845	-0.102	-0.041
-582.836	-200.000	-0.018	-0.155
-581.821	-18.749	0.161	-0.101
-580.806	95.724	-0.175	-0.203
-579.792	-37.159	0.158	0.086
-578.777	-117.259	0.292	-0.054
-577.763	-103.597	-0.594	-0.141
-576.748	146.423	0.097	0.132
-575.733	-29.891	0.282	-0.163
-574.719	96.157	-0.019	-0.022
-573.704	567.799	-0.051	0.124
-572.690	-105.278	0.100	0.023
-571.675	-17.704	0.084	-0.053
-570.661	-9.021	0.291	0.197
-569.646	-200.000	-0.015	-0.134
-568.631	-200.000	-0.014	0.147
-567.617	-41.481	-0.381	0.198
-566.602	-60.224	-0.067	-0.029
-565.588	118.265	0.141	-0.176
-564.573	-93.193	0.183	-0.052
-563.558	270.867	0.133	0.237
-562.544	298.407	0.193	-0.360
-561.529	-124.489	0.260	0.041
-560.515	-101.246	-0.298	-0.074
-559.500	-83.973	-0.204	0.065
-558.485	586.576	-0.105	-0.262
-557.471	381.345	0.062	-0.129
-556.456	-200.000	0.056	-0.282
-555.442	-91.931	-0.147	0.042
-554.427	432.828	0.085	0.186
-553.412	800.000	-0.095	-0.401
-552.398	-47.096	-0.062	0.031
-551.383	574.425	0.036	-0.090
-550.369	-17.539	-0.141	0.089
-549.354	110.590	-0.081	-0.098
-548.339	-175.753	-0.188	-0.005
-547.325	-123.923	0.353	-0.056
-546.310	85.922	-0.043	0.048
-545.296	481.567	0.066	0.152
-544.281	406.894	0.110	0.234
-543.266	166.235	-0.143	-0.205
-542.252	96.457	-0.266	-0.307
-541.237	-52.394	0.259	-0.121
-540.223	368.812	0.093	-0.191
-539.208	-124.671	-0.233	0.037
-538.193	173.825	0.092	0.134
-537.179	-98.855	-0.077	0.020
-536.164	-152.761	0.170	-0.012
-535.150	-107.325	-0.490	-0.109
-534.135	109.718	-0.141	-0.171
-533.121	-161.299	-0.154	0.008
-532.106	800.000	0.050	-0.178
-531.091	-59.303	0.212	0.092
-530.077	-200.000	-0.043	0.270
-529.062	-122.554	0.322	0.053
-528.048	-200.000	0.040	-0.211
-527.033	-151.303	0.131	-0.010
-526.018	-121.589	0.324	-0.054
-525.004	-9.249	-0.269	0.181
-523.989	152.755	0.103	0.142
-522.975	-200.000	0.007	0.150
-521.960	57.351	0.094	-0.092
-520.945	32.073	-0.092	-0.080
-519.931	-82.847	-0.148	-0.048
-518.916	-15.410	0.407	-0.262
-517.902	-93.763	-0.193	-0.054
-516.887	242.061	0.100	0.169
-515.872	800.000	0.050	0.214
-514.858	-51.274	-0.180	0.085
-513.843	-33.964	0.271	-0.151
-512.829	32.455	0.198	-0.172
-511.814	416.370	-0.089	0.191
-510.799	-30.068	-0.094	0.054
-509.785	0.432	0.274	0.198
-508.770	205.212	0.067	-0.104
-507.756	800.000	-0.028	0.114
-506.741	223.588	-0.045	-0.073
-505.726	-31.616	0.366	0.208
-504.712	-39.509	-0.296	0.156
-503.697	-60.073	-0.155	-0.067
-502.683	103.949	0.099	-0.117
-501.668	7.339	-0.107	0.081
-500.653	-39.788	-0.379	0.200
-499.639	-200.000	-0.044	-0.445
-498.624	-85.682	-0.033	-0.010
-497.610	800.000	0.043	0.150
-496.595	49.649	0.142	0.135
-495.581	-173.668	-0.180	0.005
-494.566	94.059	0.217	0.249
-493.551	-200.000	-0.008	-0.117
-492.537	-19.584	-0.211	0.132
-491.522	381.763	0.068	0.141
-490.508	54.734	0.117	-0.114
-489.493	36.853	0.170	-0.151
-488.478	104.237	-0.092	-0.109
-487.464	20.680	0.051	-0.041
-486.449	-200.000	0.015	-0.217
-485.435	516.012	0.107	0.252
-484.420	572.496	-0.007	-0.018
-483.405	544.974	-0.124	0.298
-482.391	-200.000	0.024	-0.146
-481.376	-64.586	0.235	0.096
-480.362	432.499	0.094	-0.206
-479.347	-200.000	-0.038	-0.225
-478.332	23.968	0.131	-0.109
-477.318	472.578	-0.173	-0.393
-476.303	222.563	0.155	-0.251
-475.289	24.624	0.284	-0.237
-474.274	800.000	-0.022	-0.093
-473.259	285.483	0.132	0.240
-472.245	310.070	0.142	-0.268
-471.230	-101.907	0.089	-0.022
-470.216	2.920	0.205	-0.150
-469.201	-23.544	-0.120	0.072
-468.186	-200.000	0.022	0.322
-467.172	-200.000	0.034	-0.195
-466.157	393.745	0.060	-0.126
-465.143	-88.260	0.462	0.139
-464.128	119.809	-0.174	0.217
-463.113	-103.244	0.046	0.011
-462.099	-32.135	-0.324	0.183
-461.084	-190.575	-0.199	0.002
-460.070	-12.955	-0.126	0.082
-459.055	2.523	-0.176	-0.128
-458.040	-200.000	0.041	-0.214
-457.026	-136.667	0.253	-0.029
-456.011	78.294	0.308	-0.331
-454.997	-154.428	-0.067	-0.005
-453.982	191.228	-0.111	-0.168
-452.968	-170.307	-0.166	0.006
-451.953	800.000	-0.028	-0.085
-450.938	106.305	-0.320	-0.382
-449.924	-166.486	-0.489	-0.021
-448.909	337.781	-0.093	-0.182
-447.895	463.550	0.106	-0.239
-446.880	-83.026	0.126	0.041
-445.865	-68.895	0.345	0.134
-444.851	600.125	-0.096	-0.240
-443.836	-43.863	0.120	0.061
-442.822	-18.333	-0.125	-0.078
-441.807	13.917	0.229	0.179
-440.792	-110.367	0.402	0.084
-439.778	-104.991	-0.076	0.018
-438.763	-200.000	-0.033	-0.186
-437.749	-200.000	-0.009	0.160
-436.734	-162.934	-0.150	0.007
-435.719	-57.579	-0.123	0.054
-434.705	-137.027	0.280	-0.032
-433.690	800.000	-0.017	0.060
-432.676	-102.143	-0.202	0.049
-431.661	-69.980	-0.076	0.029
-430.646	47.608	0.053	0.049
-429.632	800.000	0.057	0.183
-428.617	800.000	-0.041	0.134
-427.603	-200.000	0.051	0.263
-426.588	341.056	0.108	-0.211
-425.573	780.212	0.086	0.236
-424.559	-120.918	0.076	0.013
-423.544	144.373	0.108	-0.145
-422.530	67.572	0.293	-0.301
-421.515	800.000	-0.102	-0.328
-420.500	-200.000	-0.018	-0.114
-419.486	-173.962	-0.257	0.008
-418.471	-74.057	-0.180	-0.066
-417.457	-117.606	-0.268	-0.049
-416.442	-198.343	0.193	0.001
-415.428	800.000	0.041	-0.136
-414.413	459.895	0.103	-0.232
-413.398	800.000	-0.162	0.482
-412.384	-19.625	0.419	0.261
-411.369	731.825	-0.064	0.173
-410.355	138.877	-0.203	-0.269
-409.340	581.607	0.119	-0.292
-408.325	495.085	0.225	0.519
-407.311	177.361	0.138	-0.202
-406.296	200.158	-0.069	-0.106
-405.282	-47.850	0.037	-0.018
-404.267	-164.526	-0.148	0.007
-403.252	-129.662	-0.043	-0.006
-402.238	186.276	-0.187	0.280
-401.223	99.704	0.144	-0.167
-400.209	-95.430	-0.305	-0.082
-399.194	-2.466	0.092	-0.065
-398.179	-117.193	0.316	-0.058
-397.165	-77.648	0.163	-0.057
-396.150	-93.147	0.124	0.035
-395.136	196.223	0.178	-0.272
-394.121	-126.315	0.284	-0.043
-393.106	-15.625	-0.273	-0.175
-392.092	-5.978	-0.247	-0.170
-391.077	-159.751	0.250	0.014
-390.063	-200.000	-0.024	0.179
-389.048	263.625	-0.036	0.062
-388.033	119.401	0.056	-0.069
-387.019	102.368	0.093	-0.110
-386.004	-167.059	-0.270	-0.011
-384.990	-200.000	0.008	0.409
-383.975	128.653	0.069	-0.089
-382.960	259.092	0.230	-0.399
-381.946	19.699	-0.166	-0.134
-380.931	-200.000	-0.038	-0.429
-379.917	300.699	-0.178	-0.330
-378.902	-55.679	-0.264	0.119
-377.888	44.447	-0.211	-0.195
-376.873	-44.151	-0.461	0.233
-375.858	-25.358	0.067	-0.040
-374.844	2.155	0.215	-0.156
-373.829	-22.668	-0.216	0.131
-372.815	66.803	0.165	0.168
-371.800	-200.000	0.005	0.097
-370.785	-200.000	0.016	0.533
-369.771	40.889	-0.272	0.246
-368.756	-66.093	0.168	-0.067
-367.742	11.899	-0.168	0.130
-366.727	-200.000	0.034	0.189
-365.712	11.536	0.182	0.140
-364.698	-56.680	0.232	0.103
-363.683	-168.239	0.082	0.003
-362.669	289.850	-0.005	-0.008
-361.654	-12.605	-0.179	-0.117
-360.639	-49.182	0.196	-0.094
-359.625	20.986	0.017	0.013
-358.610	-35.668	-0.179	0.098
-357.596	135.902	-0.155	-0.203
-356.581	800.000	0.079	-0.309
-355.566	-200.000	0.008	-0.164
-354.552	18.044	0.080	-0.064
-353.537	-14.982	-0.232	-0.149
-352.523	151.253	-0.101	0.138
-351.508	-6.157	0.337	0.231
-350.493	98.766	-0.268	-0.310
-349.479	218.307	-0.095	-0.152
-348.464	22.150	0.204	-0.167
-347.450	-30.639	0.294	-0.167
-346.435	-200.000	0.001	0.148
-345.420	-200.000	-0.014	0.125
-344.406	-200.000	-0.004	0.091
-343.391	120.041	0.059	-0.074
-342.377	20.356	0.113	0.092
-341.362	-200.000	-0.000	0.024
-340.348	-200.000	-0.002	-0.328
-339.333	-17.569	0.140	0.089
-338.318	-44.638	0.238	0.119
-337.304	46.233	-0.239	-0.222
-336.289	320.232	0.090	0.171
-335.275	-37.847	-0.166	-0.088
-334.260	153.846	-0.245	-0.337
-333.245	192.737	-0.084	0.127
-332.231	3.879	-0.182	0.133
-331.216	-200.000	0.037	0.166
-330.202	-83.988	-0.339	0.108
-329.187	78.335	-0.128	0.137
-328.172	126.803	-0.076	-0.097
-327.158	-156.004	-0.307	0.020
-326.143	42.511	-0.190	0.173
-325.129	-10.563	-0.193	-0.128
-324.114	-200.000	0.011	0.134
-323.099	-200.000	0.016	-0.173
-322.085	-158.667	0.151	-0.009
-321.070	-101.940	-0.345	0.083
-320.056	-98.593	-0.163	-0.042
-319.041	-29.135	-0.252	0.145
-318.026	139.634	0.081	-0.106
-317.012	52.495	0.159	0.152
-315.997	259.313	0.067	0.117
-314.983	9.431	0.183	0.138
-313.968	-200.000	0.020	0.150
-312.953	-108.942	-0.063	-0.014
-311.939	-171.611	-0.123	0.004
-310.924	-12.695	-0.247	-0.161
-309.910	-200.000	0.040	0.287
-308.895	586.394	-0.038	0.093
-307.880	-192.349	-0.324	-0.003
-306.866	269.127	0.046	0.082
-305.851	800.000	0.111	0.364
-304.837	707.212	-0.116	0.308
-303.822	-112.661	0.246	0.049
-302.807	-109.801	0.235	-0.049
-301.793	291.658	-0.090	0.164
-300.778	-135.372	0.051	-0.006
-299.764	715.507	0.037	0.098
-298.749	800.000	0.120	-0.398
-297.735	81.163	0.167	0.181
-296.720	-82.200	-0.070	0.023
-295.705	139.406	0.126	0.166
-294.691	280.507	-0.111	0.198
-293.676	-170.146	0.082	-0.003
-292.662	-114.285	-0.315	-0.061
-291.647	141.801	-0.159	0.211
-290.632	-30.184	-0.075	0.043
-289.618	14.966	-0.251	-0.197
-288.603	287.360	-0.014	0.025
-287.589	-74.182	0.189	-0.068
-286.574	10.611	-0.062	-0.047
-285.559	-161.729	-0.167	0.009
-284.545	-103.048	0.392	0.093
-283.530	800.000	-0.133	-0.370
-282.516	800.000	0.032	-0.132
-281.501	-200.000	0.039	-0.181
-280.486	-103.660	-0.182	0.043
-279.472	-200.000	-0.004	-0.365
-278.457	-140.649	-0.206	0.021
-277.443	14.657	0.163	0.127
-276.428	800.000	0.053	0.220
-275.413	146.276	0.212	0.284
-274.399	-200.000	0.017	0.246
-273.384	393.147	-0.064	0.134
-272.370	-126.797	0.065	0.010
-271.355	41.332	0.044	0.040
-270.340	-143.813	0.490	-0.046
-269.326	-43.249	-0.099	-0.050
-268.311	-200.000	0.009	-0.137
-267.297	-43.809	-0.078	0.039
-266.282	-109.220	-0.222	0.047
-265.267	-200.000	-0.013	-0.115
-264.253	29.889	-0.168	-0.143
-263.238	126.013	-0.130	-0.165
-262.224	800.000	-0.046	-0.146
-261.209	704.208	0.056	-0.147
-260.195	224.819	0.121	0.196
-259.180	-200.000	-0.028	-0.172
-258.165	-45.229	-0.294	-0.146
-257.151	121.467	0.098	0.122
-256.136	-104.273	0.241	-0.056
-255.122	-151.579	0.286	0.021
-254.107	-29.736	0.300	0.171
-253.092	-34.774	0.127	0.069
-252.078	-105.674	0.232	-0.052
-251.063	800.000	-0.057	0.181
-250.049	247.429	-0.067	-0.113
-249.034	-97.215	0.070	0.018
-248.019	-90.299	0.376	-0.109
-247.005	-200.000	0.022	0.206
-245.990	-200.000	-0.000	0.153
-244.976	-200.000	0.005	-0.073
-243.961	315.022	0.084	0.157
-242.946	-35.352	0.061	-0.033
-241.932	4.776	-0.194	0.142
-240.917	-30.131	0.044	0.025
-239.903	-106.148	0.159	-0.036
-238.888	431.674	0.160	-0.347
-237.873	-22.744	-0.125	0.076
-236.859	-111.817	0.073	0.015
-235.844	288.383	-0.047	0.085
-234.830	334.283	0.119	0.229
-233.815	-148.892	0.120	-0.010
-232.800	-72.418	0.205	-0.076
-231.786	412.831	0.098	0.208
-230.771	-200.000	-0.010	0.247
-229.757	289.605	0.045	0.081
-228.742	229.781	0.141	-0.230
-227.727	-49.630	-0.286	-0.136
-226.713	437.602	0.128	0.278
-225.698	800.000	0.016	0.053
-224.684	-49.769	0.073	0.035
-223.669	351.041	-0.029	0.058
-222.655	73.018	0.144	-0.150
-221.640	-74.268	0.231	0.083
-220.625	-96.818	-0.241	-0.063
-219.611	-200.000	-0.022	-0.158
-218.596	-53.731	0.070	-0.032
-217.582	-45.951	0.052	-0.026
-216.567	130.063	-0.086	-0.110
-215.552	109.420	0.198	-0.236
-214.538	101.641	-0.169	-0.197
-213.523	-200.000	-0.021	0.249
-212.509	-169.362	-0.262	-0.010
-211.494	-29.848	-0.164	0.094
-210.479	-200.000	0.043	-0.217
-209.465	-200.000	-0.097	-0.000
-208.450	-42.292	0.223	-0.113
-207.436	175.741	0.157	0.227
-206.421	800.000	0.040	-0.113
-205.406	182.381	0.050	-0.074
-204.392	-148.335	-0.471	0.039
-203.377	246.857	0.167	0.281
-202.363	-105.722	-0.161	0.036
-201.348	-200.000	-0.006	-0.238
-200.333	-200.000	-0.010	0.167
-199.319	-200.000	0.000	-0.147
-198.304	-93.891	0.038	-0.010
-197.290	-99.997	0.306	0.076
-196.275	-110.432	-0.168	0.035
-195.260	-0.034	-0.124	-0.088
-194.246	-12.383	0.293	0.191
-193.231	-30.290	0.306	0.173
-192.217	-117.036	0.135	0.025
-191.202	-174.637	-0.468	-0.013
-190.187	157.035	0.189	-0.260
-189.173	42.186	-0.156	0.141
-188.158	72.956	-0.059	-0.062
-187.144	-200.000	0.034	0.257
-186.129	243.912	0.093	-0.155
-185.114	112.650	-0.165	0.199
-184.100	75.525	-0.356	0.374
-183.085	-4.681	-0.225	0.155
-182.071	-96.930	-0.276	0.072
-181.056	-2.201	-0.184	-0.129
-180.042	-102.015	0.163	-0.039
-179.027	8.629	0.173	-0.130
-178.012	-74.284	-0.142	-0.051
-176.998	278.796	0.039	0.070
-175.983	10.634	0.125	-0.095
-174.969	800.000	-0.041	-0.177
-173.954	558.215	0.155	0.372
-172.939	-200.000	0.005	0.233
-171.925	-200.000	0.011	0.056
-170.910	800.000	0.054	-0.219
-169.896	147.061	-0.117	0.156
-168.881	-200.000	-0.064	0.288
-167.866	38.589	0.256	-0.227
-166.852	90.828	0.116	0.130
-165.837	8.725	0.133	0.100
-164.823	1.654	-0.111	0.079
-163.808	-131.655	0.156	-0.020
-162.793	237.495	0.079	0.131
-161.779	468.491	0.087	0.194
-160.764	-68.142	0.201	0.078
-159.750	-93.370	0.045	0.012
-158.735	800.000	-0.100	0.312
-157.720	759.230	-0.085	0.229
-156.706	-200.000	0.003	-0.225
-155.691	-200.000	-0.006	-0.155
-154.677	490.950	0.084	0.192
-153.662	71.192	0.163	0.168
-152.647	434.726	0.034	-0.074
-151.633	325.667	-0.043	-0.081
-150.618	-132.294	-0.163	0.021
-149.604	-22.679	-0.141	-0.085
-148.589	164.997	-0.070	-0.098
-147.574	361.940	-0.226	-0.451
-146.560	-200.000	-0.010	0.067
-145.545	-61.596	-0.081	0.034
-144.531	50.251	0.123	0.116
-143.516	-63.631	0.244	0.100
-142.502	800.000	-0.029	0.121
-141.487	-200.000	0.019	0.141
-140.472	198.981	0.053	0.081
-139.458	42.923	0.193	-0.175
-138.443	-87.658	0.338	0.102
-137.429	-168.082	0.156	-0.006
-136.414	-142.345	-0.114	-0.011
-135.399	-12.724	0.078	0.050
-134.385	800.000	0.019	0.067
-133.370	-152.378	0.070	-0.005
-132.356	-163.768	0.052	-0.002
-131.341	-118.065	-0.083	0.015
-130.326	-177.758	-0.127	0.003
-129.312	2.030	-0.149	-0.107
-128.297	11.102	-0.126	-0.096
-127.283	-93.935	-0.336	0.092
-126.268	110.468	-0.272	-0.325
-125.253	77.824	-0.168	-0.178
-124.239	209.715	0.160	-0.249
-123.224	244.756	0.123	-0.205
-122.210	88.152	-0.053	-0.058
-121.195	-200.000	-0.030	0.301
-120.180	-60.818	0.347	0.146
-119.166	-172.167	-0.073	-0.002
-118.151	548.520	-0.168	-0.399
-117.137	150.389	0.080	-0.108
-116.122	221.646	0.039	-0.062
-115.107	800.000	0.081	0.222
-114.093	462.134	-0.078	0.174
-113.078	-200.000	-0.005	-0.185
-112.064	34.182	-0.149	0.129
-111.049	34.649	-0.204	0.177
-110.034	-6.812	-0.021	-0.014
-109.020	-5.080	0.193	-0.132
-108.005	800.000	-0.080	0.265
-106.991	-109.333	0.357	0.075
-105.976	-200.000	0.067	0.334
-104.962	702.051	0.074	-0.195
-103.947	-200.000	0.046	-0.267
-102.932	86.311	-0.174	0.191
-101.918	-152.071	-0.077	0.006
-100.903	-89.566	0.148	0.043
-99.889	-200.000	0.023	0.194
-98.874	260.950	0.100	-0.172
-97.859	-71.708	0.052	0.019
-96.845	-200.000	0.016	-0.070
-95.830	275.086	-0.054	0.096
-94.816	-200.000	-0.003	0.037
-93.801	172.787	-0.088	0.126
-92.786	266.252	0.139	0.241
-91.772	800.000	-0.079	0.308
-90.757	42.246	0.209	0.188
-89.743	149.026	-0.039	0.053
-88.728	-98.708	-0.347	0.088
-87.713	143.272	0.177	-0.234
-86.699	49.445	0.186	0.174
-85.684	31.742	0.140	0.120
-84.670	-33.743	-0.226	0.124
-83.655	-10.519	0.194	0.128
-82.640	340.915	-0.058	0.112
-81.626	118.300	-0.329	0.403
-80.611	-106.020	0.108	0.024
-79.597	-104.026	0.117	0.027
-78.582	307.933	-0.022	0.040
-77.567	-200.000	-0.010	0.165
-76.553	-8.484	-0.120	-0.080
-75.538	-4.386	0.315	0.216
-74.524	-62.338	-0.145	-0.060
-73.509	-99.027	-0.296	0.075
-72.494	-200.000	0.035	0.258
-71.480	-54.885	0.242	0.109
-70.465	28.499	0.228	0.192
-69.451	133.337	0.010	-0.012
-68.436	-128.140	-0.175	0.025
-67.422	-127.972	-0.440	-0.063
-66.407	-65.137	0.282	0.113
-65.392	-28.068	-0.291	-0.167
-64.378	-98.148	0.165	-0.042
-63.363	-37.649	-0.230	0.122
-62.349	37.924	-0.292	0.257
-61.334	-7.503	-1.033	-0.694
-60.319	554.303	0.285	0.680
-59.305	-200.000	-0.137	-0.844
-58.290	121.289	0.741	0.915
-57.276	584.756	0.587	1.430
-56.261	-200.000	91.698	505.383
-55.246	541.597	1378.373	3257.318
-54.232	181.568	2627.930	3834.103
-53.217	117.036	2221.653	2705.994
-52.203	47.668	1668.779	1543.864
-51.188	40.020	1399.429	1246.635
-50.173	36.702	1355.480	1187.122
-49.159	56.017	1401.620	1348.427
-48.144	60.434	1420.260	1393.854
-47.130	40.354	1375.671	1227.350
-46.115	36.875	1358.022	1190.226
-45.100	36.531	1353.007	1183.675
-44.086	36.535	1350.236	1181.227
-43.071	36.483	1348.346	1179.209
-42.057	36.359	1346.268	1176.592
-41.042	36.596	1343.788	1175.821
-40.027	36.645	1342.552	1174.991
-39.013	36.487	1340.969	1172.595
-37.998	36.646	1338.665	1171.501
-36.984	36.646	1336.678	1169.713
-35.969	36.634	1335.287	1168.376
-34.954	36.743	1333.036	1167.022
-33.940	36.759	1331.599	1165.814
-32.925	36.813	1329.861	1164.570
-31.911	36.788	1328.971	1163.592
-30.896	36.708	1327.545	1161.818
-29.881	36.791	1326.452	1161.315
-28.867	36.807	1324.577	1159.720
-27.852	36.827	1323.111	1158.509
-26.838	36.775	1321.701	1156.922
-25.823	36.746	1320.389	1155.555
-24.809	36.725	1318.857	1154.042
-23.794	36.743	1316.803	1152.303
-22.779	36.775	1315.882	1151.641
-21.765	36.693	1314.804	1150.166
-20.750	36.702	1313.566	1149.090
-19.736	36.592	1312.146	1147.154
-18.721	36.641	1310.785	1146.203
-17.706	36.627	1309.288	1144.770
-16.692	36.605	1308.042	1143.503
-15.677	36.636	1307.035	1142.760
-14.663	36.654	1305.634	1141.599
-13.648	36.492	1305.035	1140.074
-12.633	36.569	1304.021	1139.596
-11.619	36.565	1303.095	1138.716
-10.604	36.502	1302.641	1137.905
-9.590	36.592	1301.234	1137.158
-8.575	36.566	1300.229	1136.085
-7.560	36.540	1299.469	1135.220
-6.546	36.653	1298.057	1134.605
-5.531	36.503	1297.547	1133.235
-4.517	36.599	1296.623	1132.946
-3.502	36.615	1295.600	1132.099
-2.487	36.572	1294.470	1130.819
-1.473	36.587	1290.330	1127.245
-0.458	34.734	1273.830	1102.105
0.556	27.936	1253.972	1054.802
1.571	23.442	1258.003	1032.004
2.586	22.415	1273.322	1038.424
3.600	21.688	1262.991	1025.649
4.615	15.621	1188.059	931.199
5.629	5.111	1106.600	812.773
6.644	-0.000	1083.931	769.927
7.659	-0.347	1080.788	765.856
8.673	-0.420	1079.691	764.641
9.688	-0.512	1078.547	763.292
10.702	-0.154	1077.071	764.002
11.717	5.783	1086.117	800.736
12.731	14.941	1098.965	857.272
13.746	17.665	1101.850	873.425
14.761	17.098	1100.441	869.331
15.775	16.807	1100.050	867.455
16.790	16.489	1099.005	864.929
17.804	16.376	1097.931	863.428
18.819	16.369	1097.499	862.975
19.834	16.439	1096.561	862.518
20.848	16.407	1096.125	861.937
21.863	16.420	1095.888	861.739
22.877	16.500	1094.679	861.122
23.892	16.387	1093.935	859.884
24.907	16.399	1093.565	859.579
25.921	16.408	1092.395	858.630
26.936	16.329	1091.036	857.082
27.950	16.466	1088.858	855.990
28.965	16.316	1086.669	853.435
29.980	16.211	1085.131	851.622
30.994	16.478	1083.813	851.859
32.009	16.508	1082.610	850.988
33.023	16.285	1081.055	848.572
34.038	16.379	1080.557	848.576
35.053	16.464	1079.661	848.223
36.067	16.530	1078.913	847.891
37.082	16.552	1078.165	847.342
38.096	16.741	1077.124	847.392
39.111	16.736	1076.012	846.416
40.126	16.613	1074.657	844.661
41.140	16.363	1072.905	841.963
42.155	16.323	1071.288	840.424
43.169	16.235	1070.664	839.420
44.184	16.371	1068.995	838.715
45.199	16.182	1068.209	837.087
46.213	16.161	1066.840	835.834
47.228	16.075	1066.224	834.852
48.242	16.163	1065.013	834.267
49.257	16.406	1063.653	834.328
50.271	16.370	1062.660	833.294
51.286	16.297	1061.673	832.087
52.301	16.356	1060.757	831.588
53.315	16.480	1059.317	830.992
54.330	16.432	1058.363	829.938
55.344	16.404	1057.937	829.392
56.359	16.346	1056.369	827.803
57.374	16.257	1056.035	827.034
58.388	16.417	1055.062	826.980
59.403	16.192	1054.131	825.078
60.417	16.203	1053.031	824.198
61.432	16.235	1052.358	823.753
62.447	16.350	1051.359	823.460
63.461	16.334	1050.866	822.926
64.476	16.348	1049.558	821.895
65.490	16.380	1048.318	821.009
66.505	16.441	1047.409	820.516
67.520	16.386	1046.940	819.810
68.534	16.344	1046.255	818.998
69.549	16.100	1045.049	816.802
70.563	16.137	1044.253	816.286
71.578	16.138	1043.406	815.556
72.593	16.078	1042.432	814.430
73.607	16.267	1041.448	814.504
74.622	16.360	1041.451	814.885
75.636	16.281	1040.424	813.627
76.651	16.309	1039.591	813.039
77.666	16.055	1038.949	811.240
78.680	16.230	1037.984	811.259
79.695	16.270	1037.164	810.735
80.709	16.345	1036.644	810.618
81.724	16.270	1035.604	809.373
82.739	16.222	1034.699	808.365
83.753	16.452	1034.253	809.045
84.768	16.533	1033.080	808.444
85.782	16.415	1032.377	807.261
86.797	16.537	1030.961	806.663
87.812	16.483	1030.033	805.609
88.826	16.541	1029.083	805.072
89.841	16.507	1028.236	804.176
90.855	16.564	1027.184	803.550
91.870	16.471	1026.050	802.153
92.884	16.439	1024.873	801.010
93.899	16.503	1023.946	800.518
94.914	16.599	1023.669	800.683
95.928	16.500	1022.360	799.119
96.943	16.200	1021.198	796.728
97.957	16.075	1019.966	795.106
98.972	16.089	1017.950	793.527
99.987	16.129	1017.748	793.488
101.001	16.427	1016.919	794.175
102.016	16.420	1015.851	793.237
103.030	16.221	1015.168	791.696
104.045	16.226	1013.452	790.313
105.060	15.917	1012.751	788.251
106.074	16.258	1012.647	789.695
107.089	16.454	1011.984	790.024
108.103	16.579	1010.972	789.751
109.118	16.406	1009.434	787.671
110.133	16.498	1008.621	787.397
111.147	16.238	1007.544	785.278
112.162	16.256	1006.211	784.250
113.176	16.368	1006.018	784.549
114.191	16.259	1004.863	783.076
115.206	16.133	1003.824	781.611
116.220	16.092	1002.639	780.432
117.235	16.261	1001.874	780.550
118.249	16.308	1000.732	779.808
119.264	16.285	999.875	778.965
120.279	16.055	999.418	777.478
121.293	16.394	998.094	777.939
122.308	16.367	997.322	777.145
123.322	16.288	996.298	775.917
124.337	16.213	994.539	774.134
125.352	15.799	992.846	770.852
126.366	15.744	991.342	769.365
127.381	16.384	991.033	771.979
128.395	16.476	990.571	771.971
129.410	16.646	989.117	771.549
130.424	16.608	988.101	770.511
131.439	16.489	987.267	769.255
132.454	16.490	986.331	768.458
133.468	16.495	985.187	767.522
134.483	16.600	984.726	767.575
135.497	16.697	983.822	767.238
136.512	16.684	983.164	766.600
137.527	16.718	981.492	765.380
138.541	16.713	981.026	764.926
139.556	16.663	980.522	764.244
140.570	16.760	979.352	763.698
141.585	16.705	977.820	762.191
142.600	16.698	976.792	761.289
143.614	16.803	976.409	761.394
144.629	16.915	975.237	760.919
145.643	16.768	974.255	759.425
146.658	16.716	973.309	758.389
147.673	16.655	972.039	757.056
148.687	16.598	971.067	755.980
149.702	16.682	969.902	755.379
150.716	16.633	968.975	754.373
151.731	16.561	968.551	753.656
152.746	16.774	967.747	753.909
153.760	16.712	967.454	753.339
154.775	16.919	966.600	753.527
155.789	16.781	965.524	752.012
156.804	16.737	964.762	751.155
157.819	16.875	963.761	750.921
158.833	16.837	962.915	750.027
159.848	16.934	961.542	749.320
160.862	16.805	960.595	747.945
161.877	16.868	959.623	747.402
162.892	16.978	959.204	747.494
163.906	16.981	957.619	746.204
164.921	16.879	956.828	745.077
165.935	16.923	955.923	744.498
166.950	16.813	955.145	743.343
167.964	17.025	953.535	742.954
168.979	16.892	952.842	741.765
169.994	16.775	952.220	740.705
171.008	16.746	951.832	740.208
172.023	16.802	950.497	739.352
173.037	16.652	949.272	737.679
174.052	16.531	948.766	736.694
175.067	16.709	948.329	737.065
176.081	16.866	947.546	737.074
177.096	16.776	946.874	736.093
178.110	16.606	945.793	734.449
179.125	16.348	945.322	732.899
180.140	16.468	945.003	733.107
181.154	16.640	944.338	733.275
182.169	16.770	943.539	733.149
183.183	16.851	943.053	733.059
184.198	16.838	941.851	732.002
185.213	16.885	941.386	731.777
186.227	17.022	940.435	731.567
187.242	16.815	939.525	729.900
188.256	16.919	938.857	729.767
189.271	16.957	937.662	728.934
190.286	16.725	936.969	727.338
191.300	16.367	936.042	725.017
192.315	15.884	934.733	721.867
193.329	15.754	934.475	721.046
194.344	16.492	934.410	724.096
195.359	16.893	933.628	725.140
196.373	16.854	933.331	724.680
197.388	16.555	932.668	722.821
198.402	16.556	931.915	722.178
199.417	16.585	931.049	721.567
200.432	16.377	929.481	719.404
201.446	16.149	928.927	717.941
202.461	16.184	928.196	717.462
203.475	15.582	926.797	713.758
204.490	15.111	925.693	710.845
205.504	15.891	925.870	714.229
206.519	16.498	925.632	716.558
207.534	16.516	924.760	715.895
208.548	16.880	924.824	717.422
209.563	16.689	923.600	715.602
210.577	16.658	923.142	715.050
211.592	16.875	922.541	715.437
212.607	16.895	921.184	714.409
213.621	16.765	920.947	713.615
214.636	16.896	920.457	713.721
215.650	16.920	919.241	712.818
216.665	16.961	918.609	712.435
217.680	16.986	917.479	711.602
218.694	16.537	916.468	708.872
219.709	16.395	916.280	708.070
220.723	16.905	915.012	709.160
221.738	16.778	914.948	708.518
222.753	16.809	914.117	707.940
223.767	16.825	913.877	707.760
224.782	17.057	912.694	707.748
225.796	17.105	912.017	707.360
226.811	16.536	910.701	703.909
227.826	15.989	909.984	701.015
228.840	16.293	909.083	701.525
229.855	16.340	908.286	701.041
230.869	16.052	907.049	698.832
231.884	16.346	907.194	700.101
232.899	17.014	906.968	702.631
233.913	17.030	906.227	702.063
234.928	17.026	905.497	701.418
235.942	16.974	904.919	700.693
236.957	16.716	904.019	698.868
237.972	16.736	902.982	698.088
238.986	16.813	902.680	698.108
240.001	16.823	902.142	697.673
241.015	17.034	901.368	697.878
242.030	16.965	900.840	697.126
243.045	17.086	899.946	696.869
244.059	17.193	899.630	697.003
245.074	17.083	898.595	695.689
246.088	16.533	897.766	692.733
247.103	16.734	897.522	693.307
248.117	17.201	896.860	694.645
249.132	17.271	896.030	694.226
250.147	17.288	895.210	693.599
251.161	17.426	894.485	693.535
252.176	17.318	893.873	692.560
253.190	17.393	893.481	692.500
254.205	17.600	892.787	692.744
255.220	17.545	892.630	692.336
256.234	17.465	891.566	691.126
257.249	17.417	890.199	689.811
258.263	17.331	889.943	689.201
259.278	17.608	889.173	689.665
260.293	17.514	888.426	688.648
261.307	17.514	887.654	687.985
262.322	17.307	886.555	686.238
263.336	16.493	885.238	681.877
264.351	15.662	883.116	676.838
265.366	15.938	882.253	677.224
266.380	16.787	882.997	681.154
267.395	17.215	883.010	682.823
268.409	17.167	882.165	681.916
269.424	17.301	881.718	682.047
270.439	17.355	881.128	681.747
271.453	17.509	880.629	681.920
272.468	17.723	879.934	682.175
273.482	17.672	879.390	681.491
274.497	17.413	878.013	679.328
275.512	17.023	877.686	677.458
276.526	17.356	877.058	678.243
277.541	17.449	876.513	678.131
278.555	17.130	875.504	676.020
279.570	16.985	874.686	674.751
280.585	17.253	873.901	675.153
281.599	17.222	872.965	674.245
282.614	16.873	872.011	672.064
283.628	16.934	871.385	671.766
284.643	17.314	870.593	672.601
285.657	16.806	870.331	670.326
286.672	16.569	869.565	668.744
287.687	17.135	868.658	670.219
288.701	17.192	868.165	670.003
289.716	16.827	867.741	668.179
290.730	16.786	866.401	666.926
291.745	16.571	865.971	665.692
292.760	16.830	865.535	666.317
293.774	17.579	865.701	669.328
294.789	17.879	865.184	670.048
295.803	17.855	865.073	669.810
296.818	17.991	863.899	669.373
297.833	17.687	862.952	667.390
298.847	17.573	862.323	666.399
299.862	17.827	861.966	667.057
300.876	17.790	861.685	666.637
301.891	17.745	860.535	665.510
302.906	17.234	859.619	662.752
303.920	17.365	858.835	662.600
304.935	17.620	859.031	663.683
305.949	17.694	857.894	663.037
306.964	17.632	857.302	662.278
307.979	17.841	857.081	662.863
308.993	17.995	856.850	663.220
310.008	18.084	855.896	662.770
311.022	17.775	855.103	660.899
312.037	17.878	854.425	660.718
313.052	17.679	853.922	659.500
314.066	17.228	852.367	656.496
315.081	16.775	852.046	654.442
316.095	17.343	852.252	656.736
317.110	17.865	851.770	658.322
318.125	17.094	850.348	654.193
319.139	16.622	849.152	651.402
320.154	16.573	849.078	651.098
321.168	17.157	849.031	653.249
322.183	17.601	848.963	654.846
323.197	17.811	848.487	655.227
324.212	17.960	847.906	655.295
325.227	17.851	847.644	654.616
326.241	17.911	846.749	654.098
327.256	17.867	846.240	653.475
328.270	17.740	845.535	652.390
329.285	17.583	844.690	651.077
330.300	17.638	843.827	650.566
331.314	17.697	843.638	650.587
332.329	17.948	843.335	651.253
333.343	17.958	842.879	650.882
334.358	17.984	842.278	650.458
335.373	18.007	842.054	650.315
336.387	18.196	841.844	650.817
337.402	18.107	841.719	650.321
338.416	18.101	841.194	649.835
339.431	18.175	840.151	649.253
340.446	18.289	839.863	649.407
341.460	18.201	839.258	648.548
342.475	17.929	839.011	647.269
343.489	18.042	838.620	647.337
344.504	18.276	838.007	647.693
345.519	18.297	838.121	647.801
346.533	18.442	837.491	647.809
347.548	18.505	836.852	647.495
348.562	18.603	836.311	647.387
349.577	18.569	835.820	646.820
350.592	18.483	835.350	646.078
351.606	18.597	834.256	645.603
352.621	18.645	832.912	644.687
353.635	18.472	832.513	643.672
354.650	17.893	831.064	640.323
355.665	17.153	829.848	636.557
356.679	17.431	829.836	637.530
357.694	17.794	829.401	638.500
358.708	17.777	828.842	637.949
359.723	18.156	828.408	638.975
360.738	18.418	827.922	639.524
361.752	18.394	827.403	638.975
362.767	18.639	826.972	639.499
363.781	18.831	826.231	639.586
364.796	18.672	826.119	638.850
365.810	18.759	825.646	638.752
366.825	18.772	825.439	638.581
367.840	18.526	824.367	636.785
368.854	18.171	823.862	635.018
369.869	18.357	823.291	635.212
370.883	18.460	822.631	635.030
371.898	18.271	822.198	633.939
372.913	18.302	821.649	633.574
373.927	18.476	821.467	634.020
374.942	18.748	820.940	634.565
375.956	18.595	820.815	633.847
376.971	18.682	820.130	633.583
377.986	18.819	819.783	633.762
379.000	18.704	819.507	633.069
380.015	18.737	818.461	632.328
381.029	18.755	817.988	631.972
382.044	18.686	817.249	631.093
383.059	18.795	816.982	631.231
384.073	18.676	816.808	630.601
385.088	18.892	816.094	630.788
386.102	18.867	815.485	630.170
387.117	18.918	814.692	629.688
388.132	18.591	813.862	627.793
389.146	18.213	812.967	625.667
390.161	18.374	812.658	625.961
391.175	18.442	812.365	625.928
392.190	18.346	811.404	624.781
393.205	17.448	809.904	620.300
394.219	16.561	808.460	615.913
395.234	16.349	808.703	615.268
396.248	17.698	809.135	620.458
397.263	18.913	809.933	625.439
398.278	18.723	809.823	624.607
399.292	18.617	808.958	623.500
400.307	18.712	808.546	623.470
401.321	18.646	808.002	622.756
402.336	19.010	807.838	623.897
403.350	19.231	807.374	624.285
404.365	19.122	807.020	623.560
405.380	19.426	806.150	623.933
406.394	19.275	805.693	622.975
407.409	19.306	805.062	622.544
408.423	19.335	804.766	622.366
409.438	19.374	804.527	622.266
410.453	19.424	804.538	622.400
411.467	19.440	803.779	621.815
412.482	19.283	803.672	621.114
413.496	19.413	803.175	621.144
414.511	19.522	802.626	621.054
415.526	19.562	801.901	620.582
416.540	19.308	801.395	619.222
417.555	19.056	800.671	617.704
418.569	19.061	800.410	617.465
419.584	19.079	799.424	616.717
420.599	19.024	799.238	616.322
421.613	152.911	1359.201	1787.145
422.628	132.648	1440.805	1787.255
