DTS Sentinel unit serial number:	SN413079Multiplexer serial number:	ORYXHardware model number:	OX4-SRSoftware version number:	ORYX F/W v4.00 Oryx Data Collector v3.7.2.0data status	okinstallation	princeton_trtdifferential loss correction	single-endedforward channel	channel 1reverse channel	N/Adate	2019/09/11time	15:20:12forward acquisition time	60.00reverse acquisition time	0.00gamma	496.2192k internal	0.2291k external	0.2291temperature offset calibration	0.9996default loss term (dB/km)	0.3790temperature slope calibration	1.0000multiplexer offset coefficient	1.0000multiplexer slope coefficient	1.0000fibre end	0.00T internal ref (°C)	42.87T ext. ref 1 (°C)	0.98T ext. ref 2 (°C)	35.40length (m)	temperature (°C)	Stokes	anti-Stokes-747.200	648.979	0.183	-0.479
-746.185	-24.685	0.078	0.047
-745.171	-200.000	-0.040	0.320
-744.156	-61.003	0.263	0.114
-743.142	-11.828	0.159	-0.107
-742.127	172.383	-0.230	0.339
-741.112	-164.490	0.172	-0.008
-740.098	475.163	0.127	0.293
-739.083	-54.990	0.139	-0.064
-738.069	137.399	0.034	-0.045
-737.054	-69.553	-0.518	0.203
-736.039	-106.770	-0.344	-0.078
-735.025	170.355	-0.152	-0.223
-734.010	169.260	0.083	-0.121
-732.996	-22.156	-0.314	-0.195
-731.981	-6.037	-0.227	0.159
-730.966	-141.371	0.200	0.021
-729.952	800.000	-0.073	-0.281
-728.937	-108.076	-0.251	0.056
-727.923	-143.699	-0.268	0.026
-726.908	45.950	-0.377	-0.357
-725.894	-200.000	0.004	-0.188
-724.879	58.386	0.152	0.153
-723.864	741.971	-0.109	-0.300
-722.850	-200.000	-0.018	-0.402
-721.835	-84.299	0.201	-0.065
-720.821	111.794	0.210	-0.259
-719.806	81.345	0.044	0.049
-718.791	-4.195	0.136	-0.096
-717.777	-75.123	-0.327	-0.120
-716.762	-200.000	-0.007	-0.213
-715.748	-41.222	-0.311	0.164
-714.733	75.844	-0.188	0.204
-713.718	-200.000	-0.027	0.179
-712.704	125.956	0.063	0.081
-711.689	-200.000	-0.030	-0.166
-710.675	800.000	0.048	-0.165
-709.660	134.759	-0.162	-0.215
-708.645	88.085	-0.092	0.104
-707.631	479.650	0.036	-0.084
-706.616	60.200	-0.161	0.163
-705.602	385.308	-0.030	0.064
-704.587	-171.175	-0.202	-0.007
-703.572	20.827	-0.096	-0.079
-702.558	9.957	0.060	0.046
-701.543	89.605	-0.095	0.109
-700.529	-69.114	-0.371	-0.146
-699.514	17.099	-0.343	0.278
-698.499	-74.422	0.237	0.087
-697.485	-77.695	0.249	0.088
-696.470	-71.063	-0.377	-0.145
-695.456	-54.157	-0.358	-0.166
-694.441	-92.361	0.261	0.075
-693.426	-185.100	0.078	0.001
-692.412	800.000	0.068	-0.219
-691.397	574.406	-0.018	-0.044
-690.383	1.886	-0.142	0.104
-689.368	-7.921	-0.168	-0.116
-688.354	313.493	0.203	-0.390
-687.339	-54.399	-0.299	-0.139
-686.324	-200.000	0.025	-0.462
-685.310	-200.000	-0.013	-0.094
-684.295	-111.950	-0.235	-0.048
-683.281	119.274	-0.118	-0.149
-682.266	518.258	-0.096	0.230
-681.251	36.616	-0.131	0.118
-680.237	800.000	-0.071	0.228
-679.222	-62.750	-0.372	-0.158
-678.208	-139.489	0.235	-0.026
-677.193	15.323	-0.172	-0.138
-676.178	-170.386	-0.087	-0.003
-675.164	-200.000	0.010	0.055
-674.149	-46.316	-0.192	-0.096
-673.135	291.404	-0.086	-0.160
-672.120	-69.102	0.167	0.066
-671.105	-159.703	0.180	-0.010
-670.091	269.150	-0.001	-0.002
-669.076	-3.734	-0.221	-0.157
-668.062	7.608	-0.429	-0.327
-667.047	-51.094	0.265	-0.127
-666.032	224.027	0.014	-0.023
-665.018	278.446	0.201	-0.365
-664.003	143.933	0.139	-0.189
-662.989	-106.144	-0.217	-0.050
-661.974	132.650	-0.162	0.213
-660.959	-62.442	-0.143	0.061
-659.945	-27.428	-0.281	-0.167
-658.930	12.945	-0.166	-0.131
-657.916	43.142	0.039	0.037
-656.901	-17.356	0.116	-0.074
-655.886	-101.219	0.083	-0.021
-654.872	-77.251	-0.208	-0.074
-653.857	73.651	-0.110	0.118
-652.843	-40.812	0.127	-0.067
-651.828	-59.746	0.091	0.040
-650.814	306.298	0.093	-0.176
-649.799	-58.780	0.174	-0.077
-648.784	-126.937	-0.231	0.035
-647.770	800.000	-0.111	0.345
-646.755	329.031	0.039	-0.076
-645.741	-154.431	-0.230	0.016
-644.726	-124.972	0.211	-0.033
-643.711	800.000	0.027	0.084
-642.697	307.532	0.208	-0.396
-641.682	-11.655	-0.035	-0.023
-640.668	-24.741	0.325	0.197
-639.653	-5.395	0.110	-0.077
-638.638	800.000	0.104	0.308
-637.624	547.024	0.172	0.419
-636.609	170.031	0.121	0.176
-635.595	221.880	-0.125	-0.205
-634.580	-200.000	0.024	0.530
-633.565	800.000	-0.061	-0.266
-632.551	399.728	0.086	-0.185
-631.536	-139.398	0.208	-0.023
-630.522	-135.810	0.039	-0.005
-629.507	-60.392	-0.402	0.174
-628.492	160.708	-0.143	0.204
-627.478	131.555	-0.207	-0.272
-626.463	18.841	0.052	0.043
-625.449	-200.000	-0.005	0.201
-624.434	421.876	-0.108	0.236
-623.419	84.443	0.237	-0.265
-622.405	19.392	-0.034	0.028
-621.390	109.740	-0.201	0.245
-620.376	-200.000	-0.043	0.219
-619.361	-200.000	-0.001	-0.468
-618.346	800.000	-0.059	-0.185
-617.332	-84.845	0.372	-0.119
-616.317	414.944	-0.072	-0.155
-615.303	-143.120	-0.050	-0.005
-614.288	752.706	-0.030	-0.082
-613.273	95.472	0.097	-0.113
-612.259	-99.095	-0.268	0.069
-611.244	-200.000	0.054	-0.283
-610.230	-66.897	0.180	0.073
-609.215	88.230	-0.117	0.132
-608.201	-142.331	0.241	-0.024
-607.186	80.349	0.084	0.092
-606.171	-54.143	-0.279	-0.129
-605.157	-55.058	-0.192	-0.088
-604.142	96.615	0.040	-0.047
-603.128	88.517	0.127	0.144
-602.113	4.356	0.097	-0.072
-601.098	-200.000	-0.011	-0.265
-600.084	18.085	0.343	-0.278
-599.069	800.000	-0.172	0.514
-598.055	-68.683	0.222	-0.088
-597.040	-200.000	-0.019	-0.141
-596.025	-149.954	0.148	0.012
-595.011	13.755	-0.099	0.078
-593.996	243.327	0.091	-0.155
-592.982	-73.273	0.286	0.107
-591.967	-61.195	0.091	0.039
-590.952	-174.286	-0.075	0.002
-589.938	-113.078	0.156	-0.031
-588.923	375.768	0.025	0.051
-587.909	-118.699	0.194	-0.035
-586.894	-63.515	-0.163	-0.068
-585.879	-15.666	-0.315	0.204
-584.865	-200.000	-0.016	0.201
-583.850	-171.197	0.054	0.002
-582.836	-83.060	-0.440	0.144
-581.821	608.299	0.016	0.041
-580.806	-200.000	-0.043	-0.471
-579.792	38.122	0.057	0.052
-578.777	-137.485	-0.120	0.014
-577.763	-45.956	-0.438	-0.220
-576.748	303.987	-0.106	-0.199
-575.733	-200.000	-0.017	-0.218
-574.719	23.463	-0.112	0.094
-573.704	-91.312	-0.130	-0.038
-572.690	-123.923	-0.282	-0.045
-571.675	86.081	0.121	0.135
-570.661	-34.400	0.243	0.135
-569.646	-76.424	-0.224	-0.080
-568.631	-200.000	0.071	-0.356
-567.617	-160.645	0.341	-0.018
-566.602	203.061	-0.058	0.092
-565.588	672.179	-0.123	-0.325
-564.573	-160.102	-0.327	-0.018
-563.558	47.385	-0.092	-0.087
-562.544	143.348	0.207	-0.280
-561.529	164.716	-0.209	0.299
-560.515	-128.390	-0.272	-0.039
-559.500	-200.000	0.073	0.345
-558.485	71.498	0.154	-0.163
-557.471	32.055	0.129	0.113
-556.456	-91.453	-0.210	0.061
-555.442	800.000	-0.052	-0.198
-554.427	74.019	0.267	-0.285
-553.412	-200.000	-0.008	-0.053
-552.398	-200.000	-0.042	0.279
-551.383	-200.000	0.015	-0.083
-550.369	509.514	0.083	0.197
-549.354	-130.497	0.062	-0.009
-548.339	-195.368	-0.354	-0.003
-547.325	-200.000	-0.035	-0.273
-546.310	-149.737	-0.074	-0.006
-545.296	800.000	-0.065	-0.235
-544.281	55.508	0.029	0.028
-543.266	41.173	0.245	-0.225
-542.252	-102.431	-0.082	0.020
-541.237	53.400	0.162	-0.158
-540.223	733.880	0.058	-0.159
-539.208	36.623	-0.240	-0.215
-538.193	-200.000	0.011	0.120
-537.179	76.420	0.227	0.244
-536.164	186.384	-0.080	-0.121
-535.150	35.213	-0.221	0.197
-534.135	-200.000	-0.017	-0.128
-533.121	-45.310	0.073	0.037
-532.106	226.468	-0.024	0.040
-531.091	-200.000	0.059	-0.549
-530.077	-100.010	-0.025	-0.006
-529.062	158.762	-0.294	0.415
-528.048	-14.430	0.077	0.050
-527.033	-75.137	0.164	0.060
-526.018	151.957	-0.111	0.153
-525.004	41.357	-0.159	0.146
-523.989	-152.548	0.196	-0.014
-522.975	-74.732	-0.300	0.110
-521.960	65.586	-0.197	-0.203
-520.945	93.482	0.145	-0.167
-519.931	-111.127	0.255	0.053
-518.916	74.115	-0.189	0.201
-517.902	523.121	0.048	-0.114
-516.887	580.307	0.106	-0.263
-515.872	800.000	0.043	0.127
-514.858	-23.337	0.190	0.116
-513.843	-49.146	0.192	-0.093
-512.829	-200.000	0.001	0.165
-511.814	33.700	-0.147	0.130
-510.799	430.751	0.128	-0.281
-509.785	272.174	-0.131	-0.234
-508.770	-122.791	-0.085	0.014
-507.756	44.028	-0.076	-0.071
-506.741	-200.000	0.030	0.238
-505.726	-200.000	-0.040	-0.316
-504.712	800.000	0.149	-0.501
-503.697	486.236	0.074	-0.172
-502.683	706.112	0.109	-0.292
-501.668	-200.000	0.009	0.271
-500.653	-103.065	0.153	0.037
-499.639	196.655	-0.235	0.364
-498.624	800.000	-0.071	0.271
-497.610	-163.058	0.121	0.006
-496.595	-56.435	-0.228	0.103
-495.581	86.777	-0.246	0.276
-494.566	-190.570	-0.116	-0.001
-493.551	-86.822	-0.101	0.031
-492.537	246.447	0.169	0.289
-491.522	338.934	0.074	-0.145
-490.508	132.730	-0.261	0.341
-489.493	800.000	0.079	0.222
-488.478	297.040	0.210	-0.391
-487.464	-0.464	-0.139	-0.100
-486.449	-40.213	0.164	-0.086
-485.435	-22.089	0.320	0.197
-484.420	800.000	-0.091	-0.360
-483.405	7.184	0.083	-0.063
-482.391	-200.000	0.043	-0.293
-481.376	4.448	-0.008	0.006
-480.362	741.600	-0.189	0.514
-479.347	133.957	0.196	0.258
-478.332	-14.263	0.242	-0.158
-477.318	-9.753	0.250	0.169
-476.303	58.971	-0.069	-0.069
-475.289	-32.679	-0.037	0.021
-474.274	-165.542	0.294	0.013
-473.259	109.237	-0.298	-0.361
-472.245	265.351	0.170	-0.300
-471.230	-111.149	-0.167	0.035
-470.216	-132.499	0.093	0.012
-469.201	3.228	-0.186	0.137
-468.186	-139.469	-0.118	-0.013
-467.172	-19.877	0.185	-0.116
-466.157	-108.965	-0.391	0.084
-465.143	38.213	0.352	-0.318
-464.128	109.956	-0.377	-0.458
-463.113	-200.000	0.018	0.193
-462.099	276.577	-0.079	-0.142
-461.084	-200.000	0.020	-0.310
-460.070	221.718	-0.066	-0.108
-459.055	-139.186	-0.202	0.022
-458.040	-200.000	0.024	-0.123
-457.026	-145.251	-0.168	0.015
-456.011	-114.275	0.301	-0.059
-454.997	-200.000	-0.061	0.324
-453.982	-117.015	-0.106	-0.020
-452.968	800.000	0.071	-0.290
-451.953	5.843	0.034	0.025
-450.938	-154.339	0.303	-0.021
-449.924	60.209	-0.055	-0.055
-448.909	186.247	0.079	0.119
-447.895	-84.297	0.555	-0.178
-446.880	-51.448	0.234	0.111
-445.865	135.641	-0.252	0.332
-444.851	-95.411	-0.071	-0.019
-443.836	-200.000	-0.020	0.289
-442.822	-108.797	0.252	0.055
-441.807	-53.794	0.124	-0.057
-440.792	83.819	-0.100	0.110
-439.778	-180.398	0.179	0.004
-438.763	-200.000	-0.011	-0.117
-437.749	360.257	-0.013	0.026
-436.734	51.971	0.233	0.224
-435.719	99.782	-0.207	0.242
-434.705	385.692	-0.045	-0.093
-433.690	58.418	0.087	0.087
-432.676	-115.799	-0.312	0.059
-431.661	197.963	0.130	-0.201
-430.646	279.686	-0.045	-0.081
-429.632	-48.178	0.044	0.022
-428.617	-200.000	0.030	-0.177
-427.603	166.652	0.093	-0.133
-426.588	-48.244	-0.079	0.038
-425.573	-200.000	-0.004	-0.030
-424.559	-200.000	0.039	0.246
-423.544	-52.094	-0.066	0.031
-422.530	-200.000	0.012	0.137
-421.515	-31.855	-0.034	-0.020
-420.500	336.577	-0.144	0.284
-419.486	-200.000	0.029	-0.168
-418.471	17.020	0.081	0.065
-417.457	140.806	-0.206	-0.276
-416.442	-174.250	-0.324	0.009
-415.428	-135.702	0.190	0.023
-414.413	59.334	0.256	-0.255
-413.398	800.000	-0.067	-0.249
-412.384	-200.000	-0.021	0.111
-411.369	32.574	0.147	-0.129
-410.355	-114.028	-0.429	-0.084
-409.340	24.253	-0.079	0.066
-408.325	633.007	0.038	-0.097
-407.311	-60.744	-0.313	-0.134
-406.296	-143.726	-0.188	-0.018
-405.282	-49.946	-0.159	0.076
-404.267	49.337	0.195	0.185
-403.252	-138.754	-0.189	0.021
-402.238	18.013	-0.187	-0.150
-401.223	-200.000	-0.080	0.506
-400.209	-107.250	-0.238	0.053
-399.194	172.066	-0.066	0.096
-398.179	-200.000	0.016	-0.168
-397.165	691.174	0.070	-0.185
-396.150	800.000	-0.058	-0.171
-395.136	-27.062	0.128	0.075
-394.121	-171.606	-0.164	-0.005
-393.106	205.947	-0.063	0.099
-392.092	-87.459	0.052	-0.016
-391.077	-200.000	-0.050	-0.276
-390.063	334.177	-0.058	-0.113
-389.048	-200.000	0.010	0.064
-388.033	-123.697	-0.205	-0.033
-387.019	-50.639	0.177	0.084
-386.004	-133.560	0.298	0.038
-384.990	-168.685	-0.087	-0.003
-383.975	493.010	0.095	-0.221
-382.960	-191.122	-0.264	-0.003
-381.946	58.191	0.186	-0.184
-380.931	424.493	-0.018	0.040
-379.917	-200.000	-0.007	-0.091
-378.902	-159.673	-0.134	0.007
-377.888	19.409	0.038	-0.031
-376.873	-200.000	0.026	-0.199
-375.858	311.587	0.084	-0.158
-374.844	635.648	0.047	0.122
-373.829	1.134	-0.216	0.157
-372.815	-148.137	0.036	0.003
-371.800	-112.683	-0.127	0.026
-370.785	-200.000	0.047	-0.228
-369.771	-132.199	0.092	0.012
-368.756	-109.266	-0.145	-0.031
-367.742	-162.065	0.348	-0.018
-366.727	-93.192	-0.198	0.055
-365.712	-172.091	-0.496	-0.016
-364.698	-117.890	-0.243	-0.044
-363.683	766.082	0.083	-0.227
-362.669	-128.960	-0.278	-0.039
-361.654	41.720	-0.119	0.109
-360.639	324.785	0.201	-0.388
-359.625	213.165	0.125	0.200
-358.610	167.349	-0.141	0.202
-357.596	-200.000	0.002	0.081
-356.581	-143.552	0.050	-0.005
-355.566	-133.074	0.383	-0.049
-354.552	178.060	0.067	0.098
-353.537	285.193	-0.103	-0.187
-352.523	27.661	0.270	-0.230
-351.508	-118.147	-0.233	-0.042
-350.493	-28.687	0.108	0.063
-349.479	85.356	0.107	-0.118
-348.464	-200.000	-0.041	0.197
-347.450	35.165	-0.221	0.196
-346.435	800.000	-0.041	-0.163
-345.420	-200.000	-0.000	0.181
-344.406	-49.196	-0.208	-0.100
-343.391	419.355	0.112	-0.241
-342.377	-200.000	-0.014	-0.131
-341.362	32.723	0.224	-0.195
-340.348	-127.752	0.122	0.018
-339.333	29.162	0.131	0.112
-338.318	483.495	-0.101	-0.232
-337.304	-115.298	-0.124	-0.024
-336.289	-200.000	0.003	0.072
-335.275	58.610	0.286	-0.283
-334.260	229.395	0.182	-0.299
-333.245	3.132	0.119	0.088
-332.231	689.466	0.107	0.282
-331.216	-113.079	0.274	-0.054
-330.202	-102.512	-0.181	-0.044
-329.187	135.763	0.186	0.244
-328.172	64.043	0.073	0.074
-327.158	-131.501	-0.036	-0.005
-326.143	-200.000	-0.027	-0.147
-325.129	-145.420	0.146	-0.013
-324.114	-200.000	-0.029	-0.193
-323.099	210.115	-0.089	-0.140
-322.085	-69.270	-0.152	-0.059
-321.070	-52.364	0.238	0.111
-320.056	204.603	-0.162	-0.254
-319.041	28.876	0.123	0.105
-318.026	-40.868	0.176	-0.092
-317.012	147.001	-0.126	0.170
-315.997	-136.295	0.220	0.026
-314.983	-200.000	0.012	-0.316
-313.968	-160.502	-0.255	-0.014
-312.953	45.870	-0.255	0.237
-311.939	-64.587	0.258	-0.105
-310.924	-200.000	0.000	0.105
-309.910	800.000	-0.065	0.256
-308.895	800.000	0.056	0.207
-307.880	564.133	-0.071	0.173
-306.866	272.311	0.082	-0.146
-305.851	800.000	-0.092	-0.276
-304.837	249.830	-0.209	-0.358
-303.822	-56.489	0.222	-0.099
-302.807	-30.382	0.295	0.168
-301.793	83.304	0.012	0.013
-300.778	3.281	-0.122	-0.089
-299.764	209.828	-0.191	-0.301
-298.749	-68.183	-0.292	-0.115
-297.735	338.503	0.081	0.158
-296.720	23.414	-0.070	0.058
-295.705	-55.173	-0.310	0.140
-294.691	800.000	0.051	0.176
-293.676	-120.366	0.330	0.056
-292.662	-30.731	-0.197	-0.112
-291.647	159.995	0.132	-0.185
-290.632	23.848	0.213	-0.177
-289.618	633.877	0.099	0.253
-288.603	-46.342	0.266	-0.131
-287.589	-85.619	0.106	-0.033
-286.574	60.213	0.204	-0.203
-285.559	-17.209	0.215	0.136
-284.545	-36.933	-0.168	0.091
-283.530	585.192	0.102	0.252
-282.516	272.687	0.035	0.061
-281.501	150.086	0.182	-0.249
-280.486	4.870	-0.235	-0.173
-279.472	119.771	-0.116	0.144
-278.457	-200.000	0.040	0.244
-277.443	-88.411	-0.240	-0.072
-276.428	-200.000	-0.066	-0.529
-275.413	654.322	0.048	0.123
-274.399	-22.845	-0.117	-0.071
-273.384	-156.137	-0.228	-0.014
-272.370	800.000	0.038	0.127
-271.355	-200.000	-0.020	-0.395
-270.340	-58.636	0.122	0.053
-269.326	-179.183	-0.195	0.004
-268.311	-119.559	0.313	0.054
-267.297	-116.621	-0.158	0.029
-266.282	103.999	0.305	0.360
-265.267	-44.434	-0.122	-0.062
-264.253	800.000	0.055	-0.188
-263.238	-200.000	0.008	0.104
-262.224	-110.189	-0.149	-0.031
-261.209	800.000	0.083	0.325
-260.195	-116.236	0.174	0.032
-259.180	133.177	0.155	0.201
-258.165	800.000	-0.103	0.400
-257.151	382.183	0.091	0.188
-256.136	-110.705	-0.060	-0.012
-255.122	-44.531	-0.340	0.171
-254.107	-4.534	0.445	0.309
-253.092	621.738	0.078	0.197
-252.078	143.057	0.152	0.203
-251.063	128.366	0.115	0.147
-250.049	717.624	0.051	-0.136
-249.034	-200.000	0.020	0.211
-248.019	-33.670	-0.237	-0.131
-247.005	-49.822	0.177	0.085
-245.990	-63.767	0.054	-0.022
-244.976	2.467	0.131	0.095
-243.961	58.930	0.226	-0.223
-242.946	-107.129	-0.168	-0.037
-241.932	369.212	0.063	0.128
-240.917	214.912	0.173	0.276
-239.903	-171.924	0.086	-0.003
-238.888	-23.887	0.220	0.132
-237.873	-132.218	-0.117	0.015
-236.859	-186.797	-0.195	0.003
-235.844	82.037	-0.124	0.134
-234.830	-143.282	-0.406	0.039
-233.815	-14.065	-0.054	0.035
-232.800	41.583	0.074	0.067
-231.786	384.933	0.038	0.078
-230.771	-103.234	0.261	-0.062
-229.757	36.371	0.036	-0.032
-228.742	-45.100	0.419	0.209
-227.727	6.918	0.104	-0.078
-226.713	120.780	0.184	0.229
-225.698	-97.698	0.104	0.027
-224.684	-200.000	0.008	0.244
-223.669	608.799	-0.077	-0.194
-222.655	-56.320	-0.121	-0.054
-221.640	58.910	0.156	0.153
-220.625	-110.926	-0.225	0.046
-219.611	184.823	0.165	-0.245
-218.596	-96.671	0.209	0.055
-217.582	364.964	-0.138	-0.280
-216.567	158.222	0.035	-0.049
-215.552	800.000	-0.020	-0.059
-214.538	-200.000	-0.025	0.283
-213.523	-119.737	0.301	0.052
-212.509	159.243	-0.041	-0.057
-211.494	-200.000	-0.005	0.047
-210.479	25.955	0.036	0.030
-209.465	243.941	-0.021	-0.035
-208.450	114.075	-0.179	-0.218
-207.436	800.000	-0.036	-0.120
-206.421	-200.000	-0.031	0.332
-205.406	-200.000	0.016	0.214
-204.392	-200.000	0.022	0.215
-203.377	32.809	0.085	0.074
-202.363	-52.564	0.290	0.134
-201.348	534.666	-0.087	0.207
-200.333	-137.148	-0.291	-0.033
-199.319	405.060	-0.130	-0.275
-198.304	-73.259	-0.199	0.073
-197.290	-7.094	0.166	-0.113
-196.275	550.952	-0.116	-0.279
-195.260	800.000	-0.053	0.161
-194.246	79.965	-0.154	-0.166
-193.231	-37.222	-0.188	-0.101
-192.217	-200.000	0.000	-0.177
-191.202	104.685	-0.187	-0.221
-190.187	118.906	0.135	-0.167
-189.173	87.418	0.189	-0.210
-188.158	-200.000	-0.060	0.395
-187.144	245.266	0.143	0.241
-186.129	-10.056	-0.326	-0.217
-185.114	800.000	-0.181	0.610
-184.100	27.211	0.178	0.150
-183.085	-200.000	0.013	0.102
-182.071	120.674	-0.071	-0.089
-181.056	290.396	0.069	-0.125
-180.042	206.569	-0.081	-0.127
-179.027	284.707	-0.043	0.078
-178.012	164.782	0.123	0.174
-176.998	800.000	-0.142	0.562
-175.983	534.144	0.207	0.491
-174.969	-2.750	0.032	0.022
-173.954	13.318	-0.116	-0.090
-172.939	121.692	0.026	-0.033
-171.925	86.574	0.180	0.199
-170.910	-89.341	0.134	0.040
-169.896	-44.505	0.114	-0.057
-168.881	241.211	-0.075	0.126
-167.866	102.479	-0.180	-0.211
-166.852	-200.000	-0.012	0.392
-165.837	-4.500	0.265	0.184
-164.823	-159.941	0.190	0.010
-163.808	-53.128	-0.448	0.206
-162.793	93.254	-0.203	0.230
-161.779	34.601	-0.368	0.321
-160.764	800.000	-0.039	-0.117
-159.750	104.223	-0.083	-0.098
-158.735	152.720	-0.262	-0.358
-157.720	105.910	0.079	0.094
-156.706	-39.582	0.086	-0.045
-155.691	-200.000	0.046	-0.270
-154.677	-200.000	-0.029	0.253
-153.662	-76.988	-0.085	-0.030
-152.647	118.468	-0.059	0.073
-151.633	-28.683	0.219	-0.126
-150.618	-54.352	0.254	-0.115
-149.604	-200.000	0.019	-0.192
-148.589	-84.997	-0.095	-0.030
-147.574	169.542	0.184	-0.263
-146.560	-183.926	0.414	0.007
-145.545	228.783	-0.053	0.086
-144.531	-81.900	-0.162	-0.053
-143.516	102.022	0.062	0.073
-142.502	25.483	0.177	-0.147
-141.487	800.000	0.041	-0.118
-140.472	-40.658	-0.413	-0.214
-139.458	-48.023	-0.347	-0.168
-138.443	360.257	0.211	0.422
-137.429	-55.291	-0.171	-0.077
-136.414	-87.930	-0.098	0.030
-135.399	-200.000	-0.002	0.391
-134.385	6.351	0.185	-0.137
-133.370	-200.000	-0.009	-0.052
-132.356	162.515	-0.111	0.155
-131.341	189.451	0.186	-0.279
-130.326	-83.607	0.248	-0.079
-129.312	-95.328	0.267	0.072
-128.297	-200.000	-0.020	0.380
-127.283	-160.463	-0.364	0.020
-126.268	-113.465	0.236	-0.046
-125.253	177.661	-0.035	0.051
-124.239	-135.283	0.181	0.022
-123.224	-99.575	0.167	0.042
-122.210	-65.748	-0.297	0.119
-121.195	24.908	-0.255	0.211
-120.180	-73.036	-0.212	0.078
-119.166	-51.198	0.242	-0.113
-118.151	-96.964	-0.125	-0.033
-117.137	800.000	-0.079	0.284
-116.122	-4.068	0.024	0.017
-115.107	-125.006	0.037	-0.006
-114.093	629.833	-0.052	0.132
-113.078	800.000	-0.121	0.371
-112.064	-113.081	-0.452	-0.089
-111.049	242.439	0.075	0.126
-110.034	133.891	0.125	-0.161
-109.020	-43.529	-0.223	0.113
-108.005	-83.114	0.259	0.083
-106.991	-25.791	0.109	0.064
-105.976	46.073	-0.029	-0.027
-104.962	800.000	-0.057	-0.209
-103.947	-200.000	-0.005	-0.615
-102.932	-102.513	0.359	0.086
-101.918	-200.000	0.029	-0.170
-100.903	-4.086	-0.207	0.144
-99.889	97.097	-0.155	-0.178
-98.874	800.000	0.076	0.248
-97.859	236.413	0.041	-0.067
-96.845	-200.000	-0.014	0.266
-95.830	338.385	0.061	-0.119
-94.816	-200.000	0.005	-0.167
-93.801	-98.413	0.197	-0.050
-92.786	-101.016	0.116	0.028
-91.772	-98.611	-0.196	-0.050
-90.757	-157.743	-0.139	0.008
-89.743	-108.249	0.292	0.063
-88.728	-32.238	0.130	0.073
-87.713	308.593	-0.067	-0.125
-86.699	522.726	-0.142	0.334
-85.684	-22.732	-0.059	-0.035
-84.670	61.265	0.129	-0.128
-83.655	296.249	0.107	0.196
-82.640	800.000	-0.019	-0.057
-81.626	251.266	-0.108	-0.184
-80.611	800.000	0.185	0.518
-79.597	-107.803	0.407	-0.088
-78.582	-187.177	-0.365	0.005
-77.567	-200.000	-0.006	-0.263
-76.553	-159.910	0.297	-0.016
-75.538	-6.486	-0.046	0.031
-74.524	-79.361	-0.343	0.116
-73.509	141.141	0.052	-0.069
-72.494	-200.000	-0.002	-0.050
-71.480	83.212	0.114	-0.123
-70.465	26.679	0.041	-0.034
-69.451	-200.000	0.024	-0.127
-68.436	426.333	-0.120	-0.258
-67.422	-200.000	-0.011	-0.181
-66.407	-115.603	0.165	0.031
-65.392	-144.702	0.330	0.030
-64.378	168.273	0.174	-0.247
-63.363	97.703	0.266	0.304
-62.349	-200.000	0.015	-0.076
-61.334	259.724	-0.412	-0.710
-60.319	173.759	0.268	0.386
-59.305	800.000	0.170	-0.738
-58.290	171.884	0.359	0.515
-57.276	409.902	0.751	1.585
-56.261	-200.000	75.122	546.693
-55.246	578.047	1300.728	3171.438
-54.232	146.165	2528.007	3381.144
-53.217	122.348	2226.165	2772.525
-52.203	55.847	1665.399	1609.452
-51.188	47.309	1383.292	1284.119
-50.173	43.124	1335.846	1214.876
-49.159	61.476	1369.848	1357.685
-48.144	69.307	1388.418	1423.500
-47.130	47.258	1350.532	1253.194
-46.115	42.932	1334.714	1212.492
-45.100	42.826	1329.731	1207.286
-44.086	42.779	1326.966	1204.447
-43.071	42.640	1324.845	1201.640
-42.057	42.610	1322.918	1199.667
-41.042	42.706	1320.966	1198.419
-40.027	42.784	1319.508	1197.516
-39.013	42.728	1317.531	1195.343
-37.998	42.794	1315.549	1193.887
-36.984	42.838	1313.924	1192.624
-35.969	42.901	1311.923	1191.131
-34.954	42.946	1310.153	1189.747
-33.940	42.906	1309.395	1188.775
-32.925	42.934	1307.488	1187.158
-31.911	43.037	1305.921	1186.297
-30.896	42.971	1304.462	1184.537
-29.881	43.022	1303.187	1183.631
-28.867	42.958	1302.049	1182.174
-27.852	43.042	1300.012	1180.769
-26.838	42.937	1298.787	1178.998
-25.823	42.922	1297.640	1177.819
-24.809	43.039	1296.080	1177.044
-23.794	42.957	1294.596	1175.167
-22.779	43.043	1292.817	1174.009
-21.765	43.005	1291.506	1172.550
-20.750	42.959	1290.143	1170.997
-19.736	42.934	1289.401	1170.132
-18.721	42.807	1287.829	1167.926
-17.706	42.901	1286.476	1167.196
-16.692	42.810	1285.397	1165.643
-15.677	42.848	1284.225	1164.752
-14.663	42.650	1283.578	1162.977
-13.648	42.630	1282.507	1161.845
-12.633	42.872	1281.040	1161.865
-11.619	42.852	1280.301	1161.031
-10.604	42.846	1279.670	1160.378
-9.590	42.680	1278.692	1158.494
-8.575	42.751	1277.322	1157.613
-7.560	42.837	1276.170	1157.017
-6.546	42.849	1275.576	1156.501
-5.531	42.801	1274.554	1155.254
-4.517	42.734	1274.050	1154.366
-3.502	42.823	1273.131	1153.998
-2.487	42.806	1272.174	1152.988
-1.473	42.810	1268.428	1149.571
-0.458	41.548	1253.285	1128.668
0.556	36.900	1232.637	1086.161
1.571	32.995	1235.876	1066.914
2.586	32.151	1251.359	1075.352
3.600	31.038	1241.434	1060.405
4.615	22.436	1163.483	947.661
5.629	8.058	1077.041	805.026
6.644	1.414	1051.977	753.356
7.659	0.956	1048.700	748.679
8.673	0.789	1047.748	747.109
9.688	0.762	1045.969	745.641
10.702	1.406	1045.069	748.102
11.717	9.892	1058.466	799.815
12.731	21.713	1074.933	871.324
13.746	24.797	1077.526	888.691
14.761	23.628	1075.796	881.388
15.775	23.385	1074.824	879.306
16.790	23.155	1073.948	877.370
17.804	23.095	1073.320	876.483
18.819	23.380	1072.507	877.155
19.834	23.203	1072.427	876.134
20.848	23.224	1071.699	875.567
21.863	23.326	1071.281	875.650
22.877	23.315	1070.472	874.855
23.892	23.243	1070.030	874.066
24.907	23.213	1069.241	873.195
25.921	23.210	1068.341	872.366
26.936	23.265	1066.699	871.221
27.950	23.013	1065.851	869.212
28.965	22.917	1063.613	866.837
29.980	23.059	1062.039	866.174
30.994	23.299	1060.836	866.289
32.009	23.293	1060.069	865.557
33.023	22.983	1058.989	863.086
34.038	23.044	1057.713	862.266
35.053	23.205	1057.591	862.877
36.067	23.093	1056.794	861.604
37.082	23.232	1055.812	861.404
38.096	23.449	1055.177	861.865
39.111	23.557	1054.568	861.816
40.126	23.333	1053.008	859.378
41.140	22.954	1051.739	856.427
42.155	22.832	1049.938	854.299
43.169	22.745	1049.416	853.378
44.184	22.847	1048.329	852.908
45.199	22.810	1047.084	851.640
46.213	22.814	1046.268	850.923
47.228	23.013	1045.416	851.111
48.242	23.054	1044.610	850.578
49.257	23.115	1044.001	850.298
50.271	23.248	1043.299	850.294
51.286	23.285	1042.138	849.449
52.301	23.210	1041.872	848.797
53.315	23.224	1040.489	847.662
54.330	23.242	1039.444	846.821
55.344	23.305	1038.853	846.568
56.359	23.150	1037.861	844.943
57.374	22.893	1037.418	843.283
58.388	23.027	1036.187	842.844
59.403	22.889	1035.589	841.627
60.417	22.667	1034.361	839.495
61.432	22.761	1033.979	839.562
62.447	23.000	1033.357	840.115
63.461	23.066	1032.452	839.620
64.476	22.992	1031.251	838.220
65.490	22.877	1030.593	837.066
66.505	23.031	1029.463	836.803
67.520	22.883	1029.117	835.748
68.534	22.859	1027.827	834.509
69.549	22.435	1026.915	831.692
70.563	22.525	1026.248	831.503
71.578	22.441	1025.247	830.222
72.593	22.345	1024.599	829.173
73.607	22.420	1024.132	829.077
74.622	22.749	1023.471	830.014
75.636	22.799	1022.651	829.513
76.651	22.659	1021.958	828.218
77.666	22.646	1021.074	827.370
78.680	22.623	1020.802	826.967
79.695	22.791	1019.731	826.811
80.709	22.777	1018.921	826.017
81.724	22.740	1018.301	825.267
82.739	22.891	1017.380	825.154
83.753	23.250	1016.408	825.969
84.768	23.560	1015.866	826.901
85.782	23.567	1015.196	826.316
86.797	23.472	1014.233	825.014
87.812	23.337	1013.220	823.490
88.826	23.403	1012.363	823.027
89.841	23.578	1011.227	822.842
90.855	23.551	1010.329	821.917
91.870	23.439	1009.275	820.468
92.884	23.299	1008.203	818.875
93.899	23.279	1007.286	817.964
94.914	23.474	1006.384	818.060
95.928	23.231	1006.050	816.594
96.943	23.163	1004.262	814.757
97.957	22.771	1003.497	812.265
98.972	22.721	1001.974	810.729
99.987	23.115	1001.954	812.448
101.001	23.202	1001.264	812.216
102.016	23.086	1000.328	810.854
103.030	23.034	999.278	809.692
104.045	22.919	998.327	808.325
105.060	22.815	997.237	806.895
106.074	22.893	996.821	806.845
107.089	23.322	995.615	807.752
108.103	23.187	994.853	806.449
109.118	22.923	993.482	804.064
110.133	22.994	992.760	803.730
111.147	22.747	991.352	801.400
112.162	22.649	990.335	800.062
113.176	22.926	989.936	800.925
114.191	22.861	988.765	799.613
115.206	22.575	987.928	797.569
116.220	22.626	987.005	796.986
117.235	22.683	986.117	796.454
118.249	22.665	985.247	795.600
119.264	22.541	984.221	794.144
120.279	22.639	983.435	793.879
121.293	22.732	982.853	793.760
122.308	22.815	982.101	793.456
123.322	22.664	980.743	791.610
124.337	22.497	979.965	790.163
125.352	22.174	977.750	786.860
126.366	22.018	976.958	785.455
127.381	22.640	977.340	788.477
128.395	23.224	976.523	790.356
129.410	23.373	975.605	790.208
130.424	23.220	974.572	788.618
131.439	23.165	973.760	787.645
132.454	23.201	972.920	787.058
133.468	23.151	972.336	786.292
134.483	23.320	971.192	786.051
135.497	23.609	970.357	786.586
136.512	23.377	970.400	785.520
137.527	23.480	968.913	784.704
138.541	23.539	967.883	784.062
139.556	23.615	967.290	783.847
140.570	23.537	967.095	783.277
141.585	23.706	965.495	782.654
142.600	23.569	964.523	781.196
143.614	23.828	963.778	781.660
144.629	23.873	963.259	781.369
145.643	23.753	961.826	779.610
146.658	23.629	960.514	777.937
147.673	23.457	959.425	776.231
148.687	23.257	958.647	774.661
149.702	23.193	957.632	773.492
150.716	23.210	956.583	772.648
151.731	23.447	956.101	773.225
152.746	23.531	955.793	773.275
153.760	23.646	954.786	772.892
154.775	23.698	954.398	772.736
155.789	23.451	953.569	770.920
156.804	23.505	952.526	770.243
157.819	23.608	951.877	770.098
158.833	23.723	950.929	769.762
159.848	23.854	949.855	769.393
160.862	23.646	948.451	767.286
161.877	23.505	947.801	766.087
162.892	23.635	946.844	765.805
163.906	23.589	945.559	764.500
164.921	23.550	945.040	763.844
165.935	23.542	944.653	763.429
166.950	23.507	942.981	761.862
167.964	23.520	941.916	760.987
168.979	23.377	941.234	759.757
169.994	23.398	939.969	758.758
171.008	23.662	939.388	759.352
172.023	23.538	938.803	758.281
173.037	23.496	937.379	756.887
174.052	23.300	936.623	755.371
175.067	23.328	936.352	755.207
176.081	23.314	935.741	754.588
177.096	23.310	935.288	754.137
178.110	23.047	933.985	751.903
179.125	22.904	932.873	750.332
180.140	23.014	932.713	750.606
181.154	23.122	932.250	750.625
182.169	23.443	932.062	751.766
183.183	23.520	932.071	752.034
184.198	23.532	930.534	750.778
185.213	23.505	930.380	750.475
186.227	23.534	929.498	749.817
187.242	23.478	928.899	749.034
188.256	23.623	927.825	748.710
189.271	23.477	927.711	747.937
190.286	23.394	926.395	746.461
191.300	22.893	924.632	742.868
192.315	22.033	923.574	738.338
193.329	22.000	922.779	737.498
194.344	22.907	922.950	741.377
195.359	23.339	923.167	743.301
196.373	23.485	922.983	743.697
197.388	23.373	922.067	742.426
198.402	23.324	921.255	741.501
199.417	23.568	920.259	741.653
200.432	23.331	919.283	739.810
201.446	23.127	918.862	738.556
202.461	23.072	918.420	737.904
203.475	22.194	917.081	733.106
204.490	21.584	915.048	728.874
205.504	22.265	916.114	732.498
206.519	22.907	915.711	734.781
207.534	23.081	915.138	734.980
208.548	23.503	914.883	736.463
209.563	23.282	914.005	734.776
210.577	23.246	913.098	733.831
211.592	23.807	912.406	735.533
212.607	23.659	911.913	734.458
213.621	23.738	911.214	734.155
214.636	23.585	910.569	732.942
215.650	23.614	909.839	732.406
216.665	23.789	909.281	732.615
217.680	23.635	908.634	731.393
218.694	23.388	907.050	729.040
219.709	22.965	907.133	727.300
220.723	23.366	906.390	728.288
221.738	23.509	905.712	728.267
222.753	23.363	905.542	727.467
223.767	23.519	904.988	727.595
224.782	23.930	904.280	728.649
225.796	23.730	903.956	727.505
226.811	23.156	902.590	723.993
227.826	22.372	901.000	719.450
228.840	22.600	900.744	720.113
229.855	22.696	899.996	719.841
230.869	22.422	898.959	717.832
231.884	22.616	899.026	718.615
232.899	23.358	898.860	721.437
233.913	23.475	898.200	721.323
234.928	23.420	897.840	720.746
235.942	23.385	897.166	720.000
236.957	22.976	896.479	717.723
237.972	23.140	895.665	717.671
238.986	23.104	895.257	717.138
240.001	23.165	894.237	716.501
241.015	23.211	894.092	716.509
242.030	23.438	893.423	716.826
243.045	23.521	893.139	716.870
244.059	23.602	892.537	716.650
245.074	23.466	891.521	715.224
246.088	23.183	890.384	713.107
247.103	23.264	890.495	713.460
248.117	23.869	890.573	715.896
249.132	24.130	889.994	716.419
250.147	24.185	889.314	716.028
251.161	24.311	888.910	716.148
252.176	24.353	887.793	715.351
253.190	24.348	887.809	715.280
254.205	24.557	887.249	715.603
255.220	24.587	886.421	714.993
256.234	24.269	886.046	713.356
257.249	24.263	884.926	712.366
258.263	24.243	884.222	711.657
259.278	24.407	883.697	711.825
260.293	24.370	883.224	711.235
261.307	24.382	882.462	710.603
262.322	24.297	881.388	709.339
263.336	23.462	879.650	704.560
264.351	22.393	878.167	699.069
265.366	22.426	877.670	698.740
266.380	23.394	878.415	703.114
267.395	23.928	878.199	704.996
268.409	23.927	877.132	704.075
269.424	24.129	876.714	704.476
270.439	24.105	876.271	703.962
271.453	24.251	875.895	704.175
272.468	24.423	875.391	704.387
273.482	24.546	874.550	704.134
274.497	24.041	873.726	701.416
275.512	23.679	872.799	699.184
276.526	24.026	872.793	700.486
277.541	24.347	872.183	701.195
278.555	24.027	871.536	699.357
279.570	23.898	870.732	698.142
280.585	23.976	870.205	697.967
281.599	23.861	869.556	696.934
282.614	23.436	868.067	694.015
283.628	23.441	867.557	693.564
284.643	23.708	867.827	694.762
285.657	23.465	866.375	692.592
286.672	23.196	865.411	690.710
287.687	23.655	865.561	692.558
288.701	23.681	865.130	692.253
289.716	23.399	864.193	690.345
290.730	23.366	863.490	689.594
291.745	23.171	862.065	687.636
292.760	23.384	862.166	688.482
293.774	24.381	862.431	692.507
294.789	24.719	862.284	693.638
295.803	24.697	861.976	693.246
296.818	24.883	861.176	693.261
297.833	24.404	859.967	690.371
298.847	24.094	859.150	688.458
299.862	24.543	858.721	689.785
300.876	24.801	858.707	690.711
301.891	24.578	857.945	689.176
302.906	24.131	857.110	686.721
303.920	24.302	856.794	687.065
304.935	24.719	856.489	688.368
305.949	24.701	855.816	687.695
306.964	24.298	855.235	685.620
307.979	24.426	854.631	685.567
308.993	24.848	854.357	686.906
310.008	24.863	853.580	686.277
311.022	24.474	853.039	684.290
312.037	24.502	851.939	683.456
313.052	24.226	851.203	681.750
314.066	23.332	850.223	677.487
315.081	22.975	849.288	675.316
316.095	23.766	849.427	678.389
317.110	24.442	849.059	680.614
318.125	23.554	847.828	676.186
319.139	22.598	846.392	671.341
320.154	22.633	845.880	671.008
321.168	23.415	846.491	674.412
322.183	24.131	846.511	677.089
323.197	24.220	846.471	677.337
324.212	24.406	846.010	677.615
325.227	24.430	845.168	676.969
326.241	24.242	844.542	675.696
327.256	24.295	843.845	675.278
328.270	24.219	843.394	674.571
329.285	24.086	842.593	673.369
330.300	23.931	841.663	671.980
331.314	24.063	841.516	672.302
332.329	24.398	841.556	673.538
333.343	24.554	841.277	673.843
334.358	24.382	840.855	672.797
335.373	24.571	840.583	673.233
336.387	24.902	840.007	673.958
337.402	25.023	839.831	674.214
338.416	24.952	839.434	673.570
339.431	25.019	839.206	673.579
340.446	25.098	838.878	673.553
341.460	25.010	838.658	672.985
342.475	24.932	837.914	672.033
343.489	24.911	837.518	671.579
344.504	25.290	837.116	672.617
345.519	25.384	836.748	672.616
346.533	25.381	836.433	672.290
347.548	25.506	835.735	672.137
348.562	25.430	835.171	671.339
349.577	25.327	834.771	670.576
350.592	25.142	833.873	669.105
351.606	25.249	833.305	668.989
352.621	25.204	832.395	668.029
353.635	25.322	831.058	667.336
354.650	24.609	830.053	663.824
355.665	23.562	828.894	658.952
356.679	23.958	828.734	660.235
357.694	24.551	828.043	661.827
358.708	24.431	827.472	660.865
359.723	24.662	827.526	661.705
360.738	25.050	827.567	663.115
361.752	25.082	826.634	662.430
362.767	25.423	826.233	663.307
363.781	25.796	826.172	664.576
364.796	25.530	825.983	663.385
365.810	25.838	825.291	663.906
366.825	25.819	824.916	663.474
367.840	25.414	824.124	661.290
368.854	25.053	823.122	659.100
369.869	25.043	822.984	658.892
370.883	24.990	822.577	658.315
371.898	25.091	821.794	658.000
372.913	25.145	821.564	657.956
373.927	25.212	821.225	657.872
374.942	25.412	820.891	658.280
375.956	25.452	820.261	657.864
376.971	25.650	819.674	658.058
377.986	25.645	819.800	658.083
379.000	25.733	819.044	657.739
380.015	25.460	818.294	656.079
381.029	25.594	818.038	656.306
382.044	25.612	817.863	656.172
383.059	25.688	816.948	655.658
384.073	25.624	816.061	654.656
385.088	25.709	815.965	654.831
386.102	25.458	814.589	652.757
387.117	25.398	814.403	652.331
388.132	25.179	813.475	650.736
389.146	24.709	812.071	647.854
390.161	24.915	812.198	648.643
391.175	25.414	812.277	650.456
392.190	25.180	811.040	648.564
393.205	23.810	809.185	642.076
394.219	22.332	807.232	635.138
395.234	22.194	807.096	634.478
396.248	23.819	808.481	641.379
397.263	25.203	809.463	647.099
398.278	25.350	808.794	647.036
399.292	24.892	808.500	645.092
400.307	25.073	807.733	645.075
401.321	25.133	807.194	644.803
402.336	25.356	807.360	645.680
403.350	25.803	807.516	647.356
404.365	26.127	807.023	648.065
405.380	26.446	806.545	648.769
406.394	26.479	806.328	648.657
407.409	26.301	805.431	647.240
408.423	26.391	805.350	647.440
409.438	26.338	805.020	646.927
410.453	26.520	803.995	646.698
411.467	26.214	803.859	645.437
412.482	26.393	803.341	645.603
413.496	26.628	802.952	646.072
414.511	26.470	802.823	645.346
415.526	26.410	802.270	644.632
416.540	26.236	801.574	643.396
417.555	26.203	800.255	642.162
418.569	26.083	800.197	641.634
419.584	26.071	799.956	641.341
420.599	26.042	799.151	640.536
421.613	88.487	1249.107	1333.061
422.628	75.526	1314.689	1333.166
