DTS Sentinel unit serial number:	SN413079Multiplexer serial number:	ORYXHardware model number:	OX4-SRSoftware version number:	ORYX F/W v4.00 Oryx Data Collector v3.7.2.0data status	okinstallation	princeton_trtdifferential loss correction	single-endedforward channel	channel 1reverse channel	N/Adate	2019/09/12time	07:12:11forward acquisition time	60.00reverse acquisition time	0.00gamma	496.2192k internal	0.2319k external	0.2319temperature offset calibration	1.0047default loss term (dB/km)	0.3790temperature slope calibration	1.0000multiplexer offset coefficient	1.0000multiplexer slope coefficient	1.0000fibre end	0.00T internal ref (°C)	32.19T ext. ref 1 (°C)	1.62T ext. ref 2 (°C)	28.03length (m)	temperature (°C)	Stokes	anti-Stokes-747.200	106.207	-0.032	-0.038
-746.185	-3.129	-0.305	0.216
-745.171	126.397	0.072	0.093
-744.156	608.355	-0.030	0.075
-743.142	-200.000	0.013	0.203
-742.127	0.843	-0.378	0.274
-741.112	-200.000	-0.049	-0.282
-740.098	636.644	-0.091	0.233
-739.083	-10.779	0.241	0.161
-738.069	370.857	-0.098	0.202
-737.054	215.499	-0.080	0.128
-736.039	37.083	0.109	-0.097
-735.025	74.954	0.029	0.031
-734.010	64.422	-0.040	0.040
-732.996	800.000	0.014	-0.056
-731.981	-200.000	-0.018	0.084
-730.966	-200.000	0.007	-0.188
-729.952	800.000	-0.043	-0.126
-728.937	-94.857	-0.226	0.062
-727.923	322.723	-0.031	0.060
-726.908	39.723	-0.119	0.108
-725.894	119.388	-0.140	-0.175
-724.879	-200.000	-0.031	-0.544
-723.864	64.640	0.138	-0.141
-722.850	-200.000	-0.015	0.219
-721.835	19.192	-0.145	-0.118
-720.821	-200.000	0.020	-0.479
-719.806	-121.857	0.189	0.032
-718.791	-149.138	0.128	0.010
-717.777	800.000	-0.043	0.120
-716.762	240.837	-0.237	-0.399
-715.748	16.164	-0.023	-0.018
-714.733	-200.000	-0.101	-0.464
-713.718	-200.000	0.131	0.000
-712.704	12.554	0.246	0.192
-711.689	22.788	-0.182	-0.150
-710.675	3.584	0.238	-0.175
-709.660	60.395	0.202	0.202
-708.645	0.574	-0.212	0.153
-707.631	70.868	-0.113	0.118
-706.616	-27.471	0.093	-0.054
-705.602	22.875	0.111	-0.092
-704.587	-150.729	0.193	0.015
-703.572	277.118	0.136	0.244
-702.558	-200.000	-0.013	-0.196
-701.543	433.591	0.124	0.272
-700.529	-51.384	-0.445	-0.210
-699.514	68.932	0.223	-0.231
-698.499	-139.505	0.638	-0.069
-697.485	800.000	0.045	0.175
-696.470	537.613	0.030	-0.073
-695.456	800.000	0.054	0.200
-694.441	302.035	0.135	-0.252
-693.426	-200.000	-0.013	-0.079
-692.412	-200.000	0.035	0.292
-691.397	-152.350	0.293	0.021
-690.383	-200.000	-0.002	-0.331
-689.368	-200.000	0.037	0.231
-688.354	15.579	-0.340	-0.270
-687.339	-200.000	0.006	0.159
-686.324	186.290	-0.096	0.144
-685.310	329.193	0.027	0.052
-684.295	-19.500	0.061	0.038
-683.281	-39.713	-0.159	0.084
-682.266	-200.000	0.007	-0.149
-681.251	81.501	-0.080	-0.087
-680.237	103.904	-0.185	-0.219
-679.222	55.287	-0.177	-0.173
-678.208	-200.000	0.012	-0.215
-677.193	-117.591	-0.242	-0.044
-676.178	800.000	-0.061	0.256
-675.164	5.276	-0.053	-0.039
-674.149	426.891	-0.048	-0.104
-673.135	277.341	0.154	-0.275
-672.120	91.885	-0.239	-0.271
-671.105	49.536	-0.100	0.095
-670.091	-140.363	-0.026	-0.003
-669.076	124.482	0.054	-0.069
-668.062	8.954	-0.181	-0.137
-667.047	-159.179	0.064	0.004
-666.032	23.611	-0.149	-0.124
-665.018	-126.587	0.374	-0.056
-664.003	-101.136	0.162	-0.040
-662.989	-94.491	0.161	-0.044
-661.974	-200.000	0.060	0.331
-660.959	800.000	0.077	-0.331
-659.945	-74.534	-0.241	0.088
-658.930	158.622	-0.106	0.149
-657.916	-83.952	-0.412	0.132
-656.901	47.937	-0.194	0.183
-655.886	282.994	0.022	0.040
-654.872	16.781	0.309	-0.246
-653.857	-200.000	-0.059	-0.302
-652.843	800.000	-0.014	-0.058
-651.828	-200.000	0.043	0.192
-650.814	-46.383	-0.328	0.162
-649.799	-200.000	0.026	-0.571
-648.784	-113.436	-0.405	0.080
-647.770	-200.000	0.021	-0.123
-646.755	35.921	0.081	-0.072
-645.741	-168.395	-0.444	0.017
-644.726	-42.400	0.198	-0.102
-643.711	287.084	-0.208	-0.379
-642.697	-200.000	-0.001	-0.313
-641.682	800.000	0.015	-0.068
-640.668	-124.736	-0.296	-0.046
-639.653	36.652	0.101	-0.090
-638.638	-200.000	0.008	0.122
-637.624	-81.864	0.103	0.034
-636.609	422.803	0.103	0.222
-635.595	800.000	0.041	-0.175
-634.580	223.926	-0.136	0.221
-633.565	299.514	-0.162	-0.300
-632.551	-122.509	0.059	-0.010
-631.536	800.000	-0.094	0.359
-630.522	87.951	-0.230	0.257
-629.507	135.108	-0.160	0.209
-628.492	-36.678	-0.097	-0.052
-627.478	-200.000	0.026	-0.302
-626.463	44.976	0.200	-0.185
-625.449	40.727	-0.248	-0.225
-624.434	-63.075	-0.209	-0.087
-623.419	-200.000	-0.007	0.210
-622.405	-200.000	0.008	-0.108
-621.390	-94.173	-0.155	0.043
-620.376	63.800	-0.352	-0.356
-619.361	90.235	0.071	0.079
-618.346	-200.000	-0.009	-0.169
-617.332	800.000	0.039	0.129
-616.317	800.000	0.077	-0.248
-615.303	26.315	0.273	0.229
-614.288	-79.921	0.217	-0.073
-613.273	69.391	-0.178	0.185
-612.259	269.495	0.081	0.144
-611.244	319.903	0.043	-0.082
-610.230	800.000	-0.054	0.229
-609.215	-126.361	0.099	-0.015
-608.201	178.283	-0.098	0.144
-607.186	14.268	-0.161	0.126
-606.171	-200.000	-0.014	0.179
-605.157	-41.764	-0.291	0.150
-604.142	625.475	0.065	0.164
-603.128	436.732	0.046	0.101
-602.113	-142.288	0.265	-0.026
-601.098	66.892	-0.239	-0.245
-600.084	-98.870	0.242	-0.062
-599.069	15.650	-0.110	-0.087
-598.055	214.182	0.025	0.040
-597.040	-200.000	-0.009	0.121
-596.025	-15.481	-0.083	-0.054
-595.011	-41.395	0.518	0.268
-593.996	130.860	0.148	0.191
-592.982	-22.229	0.206	0.126
-591.967	-145.074	0.113	-0.010
-590.952	-96.800	-0.257	-0.068
-589.938	-52.622	0.317	-0.147
-588.923	-24.883	0.136	-0.081
-587.909	-60.903	-0.040	0.017
-586.894	-54.232	-0.194	-0.089
-585.879	-158.101	0.280	0.017
-584.865	721.170	-0.055	-0.148
-583.850	800.000	0.082	-0.253
-582.836	200.213	-0.059	0.092
-581.821	143.394	-0.068	0.091
-580.806	-200.000	-0.009	-0.146
-579.792	639.295	-0.020	-0.051
-578.777	7.246	0.233	-0.175
-577.763	-200.000	0.005	0.048
-576.748	-200.000	-0.028	-0.309
-575.733	-1.661	0.202	-0.143
-574.719	-111.575	0.095	-0.019
-573.704	410.544	-0.089	0.190
-572.690	800.000	-0.063	0.199
-571.675	44.421	-0.299	-0.276
-570.661	126.346	0.037	0.046
-569.646	-80.322	0.165	-0.055
-568.631	528.655	-0.041	-0.098
-567.617	-49.281	0.277	0.133
-566.602	-87.043	0.169	0.052
-565.588	-167.706	-0.207	0.008
-564.573	-124.512	0.210	0.033
-563.558	5.816	0.056	-0.042
-562.544	-200.000	0.013	-0.227
-561.529	-133.356	-0.189	0.024
-560.515	-189.640	-0.386	-0.004
-559.500	-200.000	-0.021	0.144
-558.485	-111.376	-0.282	-0.058
-557.471	20.279	-0.220	0.178
-556.456	-197.563	-0.170	-0.001
-555.442	-13.806	-0.153	0.099
-554.427	192.555	-0.062	0.094
-553.412	147.406	0.095	0.129
-552.398	-29.360	-0.343	0.197
-551.383	498.716	0.056	0.129
-550.369	444.900	-0.089	-0.196
-549.354	-25.499	0.326	-0.193
-548.339	-62.433	-0.063	-0.026
-547.325	-85.795	-0.146	0.045
-546.310	-174.292	0.210	-0.006
-545.296	-65.625	-0.072	-0.029
-544.281	129.788	0.110	-0.142
-543.266	-133.705	0.277	0.035
-542.252	146.220	0.154	0.208
-541.237	-59.781	-0.275	0.118
-540.223	597.400	0.110	0.274
-539.208	-89.408	0.199	-0.059
-538.193	307.328	0.062	-0.116
-537.179	-200.000	0.002	-0.226
-536.164	-11.988	0.222	-0.146
-535.150	72.357	-0.229	-0.239
-534.135	-200.000	0.014	0.240
-533.121	-200.000	0.038	-0.214
-532.106	11.832	0.126	-0.097
-531.091	-200.000	0.054	-0.341
-530.077	-95.846	-0.483	0.129
-529.062	105.704	0.061	0.073
-528.048	800.000	0.086	-0.300
-527.033	77.915	-0.071	-0.076
-526.018	52.976	0.206	-0.198
-525.004	129.938	0.127	0.163
-523.989	309.195	0.043	0.080
-522.975	-25.599	0.181	-0.107
-521.960	66.105	-0.201	0.205
-520.945	-24.094	-0.185	-0.111
-519.931	526.270	-0.012	0.027
-518.916	200.184	-0.273	-0.420
-517.902	177.705	0.142	0.207
-516.887	800.000	-0.060	-0.226
-515.872	-200.000	0.004	-0.414
-514.858	-87.815	0.404	0.122
-513.843	105.960	-0.302	0.359
-512.829	-45.773	-0.099	-0.049
-511.814	457.766	0.047	0.105
-510.799	-55.647	-0.182	-0.082
-509.785	-54.053	0.329	-0.150
-508.770	-82.816	-0.168	0.055
-507.756	-113.243	-0.078	-0.015
-506.741	131.505	-0.175	-0.225
-505.726	-47.987	0.273	0.132
-504.712	-135.094	-0.285	-0.034
-503.697	59.085	0.085	-0.084
-502.683	15.143	0.043	0.034
-501.668	14.646	-0.385	0.301
-500.653	-199.583	0.390	-0.002
-499.639	-49.316	0.259	-0.124
-498.624	-6.958	-0.043	-0.029
-497.610	145.779	0.108	-0.145
-496.595	169.072	-0.127	0.182
-495.581	-200.000	0.009	0.352
-494.566	-200.000	0.010	0.364
-493.551	-122.498	-0.239	0.039
-492.537	-141.215	-0.405	0.041
-491.522	-200.000	-0.018	0.196
-490.508	-102.788	-0.012	0.003
-489.493	78.734	0.165	-0.176
-488.478	-66.550	-0.166	-0.066
-487.464	404.798	-0.070	-0.148
-486.449	-99.212	-0.171	0.043
-485.435	-92.261	-0.073	0.021
-484.420	31.591	-0.283	0.244
-483.405	-200.000	-0.002	-0.060
-482.391	69.528	-0.197	-0.203
-481.376	172.590	-0.124	-0.179
-480.362	-200.000	-0.026	0.184
-479.347	-200.000	0.063	0.294
-478.332	-29.374	-0.090	0.052
-477.318	-200.000	0.006	0.063
-476.303	-200.000	0.038	0.232
-475.289	8.050	-0.408	-0.306
-474.274	253.675	-0.275	-0.471
-473.259	-200.000	-0.028	-0.278
-472.245	-114.603	0.204	-0.039
-471.230	65.768	0.092	0.093
-470.216	-200.000	-0.040	-0.309
-469.201	92.504	-0.266	0.301
-468.186	-200.000	-0.021	-0.168
-467.172	403.436	-0.059	0.125
-466.157	800.000	-0.082	0.326
-465.143	800.000	-0.030	0.089
-464.128	-71.620	0.079	0.030
-463.113	360.890	0.167	-0.335
-462.099	108.540	0.190	0.228
-461.084	32.938	-0.190	-0.164
-460.070	-200.000	0.008	0.171
-459.055	-91.008	-0.199	0.057
-458.040	-163.008	0.225	0.011
-457.026	13.099	0.051	0.039
-456.011	124.656	0.039	-0.049
-454.997	-200.000	-0.014	-0.250
-453.982	-200.000	0.041	-0.290
-452.968	-78.667	0.173	-0.059
-451.953	-52.396	0.215	0.100
-450.938	106.791	0.069	-0.082
-449.924	-146.862	-0.466	0.040
-448.909	-84.101	0.454	-0.144
-447.895	-200.000	-0.038	-0.224
-446.880	-121.702	-0.069	0.011
-445.865	36.696	-0.252	-0.223
-444.851	-200.000	-0.023	-0.215
-443.836	-200.000	0.011	-0.162
-442.822	298.461	-0.130	0.240
-441.807	347.533	-0.021	0.042
-440.792	-83.859	-0.322	0.103
-439.778	252.840	0.134	0.229
-438.763	800.000	0.044	0.157
-437.749	11.677	0.333	0.256
-436.734	800.000	-0.076	-0.292
-435.719	256.362	0.153	-0.262
-434.705	40.393	-0.103	-0.093
-433.690	-200.000	-0.013	-0.240
-432.676	262.386	0.118	-0.205
-431.661	-19.824	0.131	-0.081
-430.646	-113.350	0.154	-0.030
-429.632	317.042	0.032	0.060
-428.617	800.000	-0.095	-0.280
-427.603	725.323	0.038	0.100
-426.588	-140.022	0.299	-0.031
-425.573	584.479	0.045	-0.111
-424.559	118.263	-0.321	0.396
-423.544	-14.161	-0.127	0.082
-422.530	57.009	-0.192	0.187
-421.515	33.743	-0.192	-0.167
-420.500	158.453	0.157	0.218
-419.486	-179.117	-0.175	0.004
-418.471	-27.100	0.285	0.166
-417.457	609.598	-0.054	0.135
-416.442	176.788	-0.101	0.147
-415.428	-97.404	-0.165	-0.043
-414.413	-200.000	-0.015	-0.270
-413.398	-93.983	-0.029	-0.008
-412.384	-200.000	0.029	-0.262
-411.369	-200.000	-0.049	0.410
-410.355	13.692	-0.114	0.089
-409.340	800.000	0.017	0.053
-408.325	55.389	-0.065	0.063
-407.311	-200.000	0.028	-0.227
-406.296	544.589	0.203	-0.485
-405.282	466.792	0.100	0.225
-404.267	-200.000	-0.019	0.099
-403.252	330.853	0.164	-0.315
-402.238	-200.000	0.003	-0.060
-401.223	-117.889	-0.338	0.060
-400.209	-38.662	-0.295	0.155
-399.194	800.000	-0.090	0.277
-398.179	164.235	-0.094	-0.132
-397.165	651.630	-0.073	0.186
-396.150	-78.258	0.164	-0.056
-395.136	72.858	0.081	-0.085
-394.121	148.162	0.071	-0.096
-393.106	517.870	-0.075	-0.175
-392.092	354.081	0.107	-0.213
-391.077	245.053	-0.160	0.268
-390.063	24.875	-0.354	0.293
-389.048	295.566	0.093	-0.170
-388.033	127.177	-0.074	-0.094
-387.019	-80.700	0.177	-0.059
-386.004	-93.608	0.121	0.033
-384.990	359.966	0.101	0.201
-383.975	800.000	-0.097	-0.289
-382.960	-101.738	-0.107	-0.026
-381.946	-200.000	-0.007	0.047
-380.931	-97.057	-0.294	0.077
-379.917	-144.441	0.229	0.021
-378.902	-200.000	0.009	-0.163
-377.888	800.000	-0.068	0.295
-376.873	-200.000	0.002	0.040
-375.858	42.045	-0.078	-0.070
-374.844	-139.744	-0.433	0.046
-373.829	-28.003	0.212	0.123
-372.815	-3.377	0.123	-0.086
-371.800	-55.412	0.119	-0.053
-370.785	-200.000	-0.012	0.171
-369.771	-107.563	0.290	0.063
-368.756	800.000	-0.059	-0.205
-367.742	-200.000	-0.020	0.191
-366.727	-57.632	-0.252	0.110
-365.712	700.466	-0.077	0.201
-364.698	-150.182	-0.197	0.015
-363.683	74.415	0.066	-0.069
-362.669	586.791	0.104	-0.254
-361.654	-61.572	-0.187	-0.078
-360.639	773.446	0.028	0.075
-359.625	349.904	0.216	0.425
-358.610	-200.000	0.010	-0.051
-357.596	39.470	-0.065	-0.058
-356.581	800.000	-0.076	-0.216
-355.566	589.280	-0.135	-0.332
-354.552	-111.049	0.324	0.066
-353.537	-79.251	-0.196	-0.066
-352.523	-200.000	0.008	0.072
-351.508	-200.000	-0.024	0.107
-350.493	94.574	-0.063	-0.071
-349.479	-125.316	0.079	-0.012
-348.464	527.122	-0.042	-0.098
-347.450	-106.548	-0.118	0.026
-346.435	-44.093	0.223	0.112
-345.420	1.783	-0.211	0.151
-344.406	407.269	0.125	0.264
-343.391	252.348	0.043	-0.073
-342.377	203.217	0.128	-0.197
-341.362	-196.541	0.422	-0.003
-340.348	-60.505	0.181	-0.076
-339.333	-0.169	0.092	0.065
-338.318	800.000	-0.032	-0.087
-337.304	-9.292	0.204	-0.136
-336.289	-27.973	0.178	-0.103
-335.275	-200.000	-0.003	-0.043
-334.260	246.245	-0.059	0.098
-333.245	58.971	-0.162	0.159
-332.231	-92.895	-0.128	-0.036
-331.216	800.000	-0.032	0.109
-330.202	-168.022	-0.196	0.008
-329.187	200.432	0.125	0.191
-328.172	144.262	-0.158	0.210
-327.158	678.528	-0.020	0.053
-326.143	-17.086	0.144	-0.090
-325.129	-200.000	0.009	-0.286
-324.114	-60.866	0.213	-0.090
-323.099	800.000	0.094	0.273
-322.085	-200.000	-0.071	-0.324
-321.070	0.926	0.059	0.042
-320.056	71.097	0.222	0.229
-319.041	-200.000	0.018	0.227
-318.026	800.000	-0.047	-0.133
-317.012	-144.265	0.154	-0.014
-315.997	-113.216	0.318	-0.062
-314.983	719.698	0.040	0.106
-313.968	-42.716	0.220	-0.111
-312.953	800.000	-0.076	0.298
-311.939	-57.320	-0.108	0.047
-310.924	800.000	0.080	0.314
-309.910	-34.230	-0.089	0.049
-308.895	354.578	-0.094	0.186
-307.880	-200.000	0.002	0.247
-306.866	92.739	-0.129	-0.144
-305.851	42.211	-0.133	-0.120
-304.837	232.009	0.150	0.245
-303.822	-200.000	-0.091	0.443
-302.807	-48.945	0.070	0.033
-301.793	-153.258	-0.420	0.029
-300.778	7.279	0.149	0.111
-299.764	-85.102	0.473	0.147
-298.749	-72.802	0.267	-0.098
-297.735	579.257	-0.080	-0.195
-296.720	160.328	0.062	0.086
-295.705	-13.806	-0.187	0.120
-294.691	-117.259	0.425	-0.077
-293.676	5.771	-0.163	0.120
-292.662	800.000	-0.012	-0.042
-291.647	-200.000	0.017	-0.180
-290.632	-191.545	0.046	-0.000
-289.618	-13.647	0.371	0.239
-288.603	57.329	0.209	0.203
-287.589	-116.258	-0.288	-0.053
-286.574	122.175	-0.089	-0.110
-285.559	-113.442	0.224	-0.044
-284.545	-22.537	-0.140	-0.084
-283.530	800.000	0.023	0.091
-282.516	800.000	-0.031	-0.107
-281.501	-123.127	-0.121	-0.019
-280.486	-170.440	-0.065	-0.002
-279.472	800.000	-0.070	0.200
-278.457	-82.970	0.329	-0.106
-277.443	-46.981	0.271	-0.132
-276.428	-52.583	-0.037	-0.017
-275.413	39.041	0.268	0.238
-274.399	-167.452	0.354	0.014
-273.384	-89.841	-0.119	-0.035
-272.370	46.819	0.068	0.062
-271.355	800.000	0.020	0.080
-270.340	-128.649	-0.153	-0.022
-269.326	16.036	0.098	0.076
-268.311	56.087	-0.134	-0.129
-267.297	39.834	-0.180	-0.160
-266.282	30.532	-0.257	0.218
-265.267	-200.000	-0.018	0.187
-264.253	48.123	-0.062	0.058
-263.238	-0.112	-0.140	-0.099
-262.224	-200.000	-0.026	0.238
-261.209	791.995	0.020	-0.056
-260.195	337.174	-0.081	0.156
-259.180	-77.613	0.385	-0.132
-258.165	73.964	-0.040	-0.042
-257.151	14.520	-0.014	-0.011
-256.136	30.638	-0.085	-0.072
-255.122	106.616	-0.168	0.198
-254.107	-200.000	0.016	-0.261
-253.092	457.518	0.162	-0.357
-252.078	-117.011	0.187	-0.034
-251.063	-17.108	0.323	0.202
-250.049	25.305	-0.111	-0.091
-249.034	262.761	0.122	0.210
-248.019	132.005	0.213	0.273
-247.005	-140.433	-0.249	-0.026
-245.990	180.853	-0.102	0.148
-244.976	-61.937	0.052	-0.021
-243.961	60.354	-0.121	0.119
-242.946	-52.067	0.152	0.070
-241.932	29.492	-0.168	-0.142
-240.917	407.433	-0.083	-0.174
-239.903	-20.584	0.081	0.049
-238.888	-87.599	-0.215	0.064
-237.873	-90.890	0.264	-0.075
-236.859	-200.000	-0.025	0.253
-235.844	26.973	0.091	0.076
-234.830	12.128	-0.237	0.181
-233.815	62.156	0.194	0.192
-232.800	-200.000	0.032	-0.152
-231.786	316.130	-0.153	-0.287
-230.771	431.275	0.106	-0.227
-229.757	-168.997	0.116	0.004
-228.742	-30.990	-0.211	0.118
-227.727	-200.000	0.080	0.534
-226.713	-11.276	-0.206	-0.135
-225.698	-200.000	-0.062	0.359
-224.684	-114.546	-0.181	0.034
-223.669	-200.000	0.030	0.273
-222.655	243.541	0.196	0.325
-221.640	-97.110	-0.092	0.024
-220.625	262.326	-0.078	-0.135
-219.611	-98.068	0.326	0.083
-218.596	-118.424	-0.292	0.051
-217.582	798.932	-0.101	0.276
-216.567	800.000	-0.036	0.118
-215.552	3.244	-0.234	-0.169
-214.538	294.668	0.204	0.370
-213.523	800.000	0.077	-0.283
-212.509	-200.000	0.045	0.264
-211.494	-200.000	-0.030	0.203
-210.479	-144.107	0.228	0.021
-209.465	242.149	0.072	0.119
-208.450	589.671	-0.049	0.119
-207.436	800.000	0.031	-0.134
-206.421	182.531	-0.165	0.241
-205.406	-200.000	-0.018	-0.086
-204.392	700.086	0.114	0.298
-203.377	117.217	0.087	0.106
-202.363	-12.636	0.120	-0.078
-201.348	-138.130	-0.305	-0.034
-200.333	-180.477	0.135	-0.003
-199.319	62.551	-0.096	-0.095
-198.304	265.857	-0.139	-0.240
-197.290	-76.338	0.306	0.107
-196.275	-163.516	0.223	0.010
-195.260	76.631	-0.131	-0.138
-194.246	800.000	0.055	0.212
-193.231	237.440	0.094	-0.155
-192.217	254.402	0.012	0.019
-191.202	124.268	-0.132	-0.165
-190.187	-76.174	0.359	0.125
-189.173	132.465	-0.259	-0.330
-188.158	8.076	-0.184	-0.137
-187.144	164.871	-0.034	-0.048
-186.129	-110.329	0.276	0.057
-185.114	19.381	0.183	0.145
-184.100	80.399	0.142	0.152
-183.085	-87.844	0.125	0.037
-182.071	-153.944	0.102	0.007
-181.056	-200.000	-0.022	0.104
-180.042	61.866	0.229	-0.226
-179.027	74.184	-0.069	0.072
-178.012	-200.000	-0.002	-0.247
-176.998	-80.635	0.059	-0.019
-175.983	508.605	0.052	-0.120
-174.969	-200.000	-0.166	0.000
-173.954	62.243	-0.183	-0.180
-172.939	706.014	-0.038	-0.099
-171.925	270.712	0.022	0.038
-170.910	-96.605	0.267	-0.070
-169.896	-108.770	0.258	-0.055
-168.881	-53.119	0.293	-0.133
-167.866	-7.177	0.048	0.032
-166.852	-6.447	-0.300	-0.202
-165.837	180.193	0.125	-0.181
-164.823	-39.269	0.124	-0.064
-163.808	-7.332	-0.060	-0.040
-162.793	166.643	-0.068	0.095
-161.779	-127.695	-0.123	0.018
-160.764	170.743	-0.213	-0.301
-159.750	550.775	-0.159	-0.378
-158.735	77.287	0.112	0.118
-157.720	-200.000	-0.002	0.254
-156.706	349.878	0.039	0.077
-155.691	-78.975	0.241	0.081
-154.677	800.000	0.111	-0.355
-153.662	-59.681	0.074	0.031
-152.647	800.000	-0.125	-0.437
-151.633	277.221	0.109	-0.191
-150.618	800.000	-0.095	-0.392
-149.604	46.563	-0.244	0.224
-148.589	-200.000	0.003	-0.104
-147.574	-200.000	-0.000	0.012
-146.560	-116.150	-0.492	-0.090
-145.545	-45.220	0.323	0.159
-144.531	-44.524	0.100	-0.049
-143.516	234.788	0.147	0.240
-142.502	362.798	0.050	0.098
-141.487	20.424	-0.074	0.059
-140.472	-73.841	0.100	-0.036
-139.458	-132.530	0.228	0.029
-138.443	-61.803	0.272	0.112
-137.429	214.806	0.157	-0.245
-136.414	-200.000	-0.008	-0.398
-135.399	304.676	0.287	-0.526
-134.385	13.369	0.063	-0.049
-133.370	152.547	0.112	-0.151
-132.356	281.111	-0.005	-0.009
-131.341	800.000	0.109	-0.340
-130.326	-200.000	-0.003	-0.628
-129.312	-89.917	0.249	-0.072
-128.297	-41.399	-0.248	-0.126
-127.283	-5.055	0.316	0.214
-126.268	100.083	-0.246	0.282
-125.253	-38.771	0.227	-0.118
-124.239	79.132	-0.093	0.098
-123.224	381.549	-0.130	-0.263
-122.210	233.089	-0.165	-0.268
-121.195	-74.585	0.118	0.042
-120.180	800.000	0.049	-0.167
-119.166	73.533	0.132	-0.137
-118.151	800.000	0.112	0.404
-117.137	-79.379	0.430	-0.144
-116.122	-29.270	-0.146	0.083
-115.107	-200.000	-0.099	0.492
-114.093	-78.334	-0.116	-0.039
-113.078	157.092	0.077	-0.104
-112.064	-2.491	0.230	0.159
-111.049	-85.750	-0.220	0.067
-110.034	78.602	-0.066	-0.069
-109.020	-113.603	0.274	0.053
-108.005	-0.872	-0.060	0.042
-106.991	800.000	-0.045	-0.161
-105.976	-139.498	-0.333	-0.035
-104.962	-200.000	-0.038	0.440
-103.947	-200.000	0.007	0.232
-102.932	-90.362	0.344	0.098
-101.918	-52.962	-0.199	-0.090
-100.903	-200.000	-0.002	0.017
-99.889	45.105	0.108	-0.098
-98.874	-45.950	0.186	0.091
-97.859	-36.312	0.060	0.032
-96.845	-200.000	-0.030	0.143
-95.830	206.081	0.223	0.343
-94.816	137.479	0.077	0.099
-93.801	-32.720	0.091	0.050
-92.786	-36.860	-0.305	0.161
-91.772	714.360	-0.176	-0.461
-90.757	-200.000	0.030	0.226
-89.743	52.521	0.272	0.256
-88.728	-129.364	-0.095	-0.013
-87.713	-131.804	0.069	0.009
-86.699	-91.790	0.257	-0.072
-85.684	-26.055	-0.106	0.061
-84.670	13.466	0.230	-0.176
-83.655	-5.526	0.177	0.119
-82.640	800.000	0.022	0.090
-81.626	800.000	-0.039	0.157
-80.611	-66.699	-0.259	-0.101
-79.597	148.161	-0.176	-0.233
-78.582	800.000	0.041	0.133
-77.567	248.993	-0.035	-0.059
-76.553	-62.395	-0.197	0.081
-75.538	-200.000	-0.002	0.041
-74.524	-76.276	-0.245	0.085
-73.509	-200.000	-0.042	-0.228
-72.494	25.131	0.272	-0.223
-71.480	-200.000	-0.002	-0.024
-70.465	-40.276	0.255	0.131
-69.451	-6.006	-0.250	-0.169
-68.436	409.253	0.119	0.249
-67.422	-122.025	-0.192	0.031
-66.407	402.600	0.063	-0.131
-65.392	-104.965	-0.099	0.022
-64.378	-177.246	0.343	0.008
-63.363	-20.079	0.332	0.202
-62.349	-158.550	-0.333	-0.019
-61.334	11.682	-1.064	-0.804
-60.319	431.914	0.344	0.734
-59.305	800.000	-0.288	-0.961
-58.290	507.991	0.528	1.207
-57.276	548.777	0.632	1.490
-56.261	-200.000	96.033	590.740
-55.246	558.915	1379.755	3278.833
-54.232	159.653	2558.505	3507.180
-53.217	113.181	2145.219	2561.707
-52.203	43.932	1605.580	1448.262
-51.188	35.687	1343.109	1161.888
-50.173	32.634	1300.963	1107.473
-49.159	54.773	1348.411	1280.718
-48.144	56.973	1365.010	1309.576
-47.130	35.900	1323.737	1146.213
-46.115	32.416	1306.511	1110.733
-45.100	32.204	1301.859	1105.489
-44.086	32.160	1298.757	1102.549
-43.071	32.123	1296.627	1100.480
-42.057	32.027	1294.547	1098.110
-41.042	32.093	1292.626	1096.825
-40.027	32.100	1291.370	1095.758
-39.013	32.083	1289.697	1094.196
-37.998	32.226	1287.677	1093.269
-36.984	32.207	1286.005	1091.697
-35.969	32.273	1283.759	1090.128
-34.954	32.230	1282.487	1088.753
-33.940	32.262	1281.136	1087.752
-32.925	32.191	1279.802	1086.166
-31.911	32.273	1277.964	1085.037
-30.896	32.331	1276.673	1084.232
-29.881	32.365	1275.168	1083.105
-28.867	32.270	1273.964	1081.492
-27.852	32.210	1272.919	1080.218
-26.838	32.285	1271.313	1079.242
-25.823	32.196	1270.111	1077.671
-24.809	32.265	1268.315	1076.499
-23.794	32.238	1267.373	1075.502
-22.779	32.281	1266.155	1074.667
-21.765	32.296	1264.425	1073.243
-20.750	32.235	1263.429	1072.010
-19.736	32.217	1261.860	1070.531
-18.721	32.152	1260.953	1069.352
-17.706	32.213	1259.357	1068.301
-16.692	32.171	1258.496	1067.287
-15.677	32.119	1257.626	1066.217
-14.663	32.127	1256.715	1065.444
-13.648	32.196	1255.256	1064.556
-12.633	32.169	1254.060	1063.346
-11.619	32.153	1253.598	1062.822
-10.604	32.106	1252.731	1061.784
-9.590	32.051	1251.571	1060.444
-8.575	32.075	1250.909	1059.976
-7.560	31.990	1250.064	1058.737
-6.546	32.026	1249.002	1058.000
-5.531	32.112	1248.209	1057.772
-4.517	32.076	1246.862	1056.384
-3.502	32.086	1246.419	1056.026
-2.487	32.191	1245.164	1055.507
-1.473	32.076	1241.532	1051.743
-0.458	30.823	1227.171	1032.596
0.556	27.427	1210.024	996.345
1.571	24.024	1215.405	981.952
2.586	23.171	1231.418	990.028
3.600	22.544	1219.932	977.232
4.615	16.005	1145.884	883.655
5.629	5.901	1069.979	775.339
6.644	1.906	1049.805	741.259
7.659	1.586	1047.339	737.903
8.673	1.460	1046.283	736.481
9.688	1.509	1044.788	735.600
10.702	1.646	1043.139	735.037
11.717	7.750	1051.410	770.443
12.731	17.987	1066.336	831.385
13.746	23.586	1073.969	864.625
14.761	24.856	1075.356	871.857
15.775	25.006	1074.272	871.632
16.790	24.713	1073.635	869.610
17.804	24.725	1073.062	869.129
18.819	24.832	1072.773	869.337
19.834	24.897	1072.582	869.422
20.848	25.042	1071.870	869.469
21.863	24.915	1071.555	868.522
22.877	24.976	1070.533	867.912
23.892	24.807	1070.287	866.820
24.907	24.860	1069.181	866.101
25.921	24.866	1068.417	865.434
26.936	24.911	1066.755	864.233
27.950	24.837	1065.161	862.505
28.965	24.721	1063.502	860.528
29.980	24.811	1062.447	860.030
30.994	25.008	1061.388	860.043
32.009	24.912	1060.367	858.679
33.023	24.824	1058.975	857.054
34.038	24.709	1058.617	856.140
35.053	24.991	1057.750	856.712
36.067	24.934	1057.054	855.799
37.082	25.028	1055.883	855.226
38.096	25.196	1055.508	855.647
39.111	25.406	1054.604	855.840
40.126	24.960	1053.331	852.606
41.140	24.703	1051.627	849.931
42.155	24.416	1050.075	847.236
43.169	24.568	1049.417	847.354
44.184	24.593	1048.696	846.813
45.199	24.522	1047.613	845.529
46.213	24.500	1046.558	844.497
47.228	24.843	1045.825	845.455
48.242	24.872	1044.668	844.582
49.257	24.857	1044.519	844.317
50.271	24.883	1043.677	843.684
51.286	25.128	1042.747	844.011
52.301	25.107	1041.819	843.086
53.315	24.911	1041.166	841.559
54.330	24.829	1040.229	840.343
55.344	24.897	1039.699	840.159
56.359	24.913	1038.524	839.212
57.374	24.636	1037.912	837.343
58.388	24.641	1037.161	836.688
59.403	24.591	1036.370	835.744
60.417	24.499	1035.492	834.530
61.432	24.592	1035.040	834.526
62.447	24.729	1033.853	834.134
63.461	24.729	1033.335	833.642
64.476	24.663	1032.238	832.376
65.490	24.573	1031.333	831.154
66.505	24.647	1030.457	830.720
67.520	24.696	1030.399	830.825
68.534	24.456	1028.591	828.183
69.549	24.230	1027.769	826.398
70.563	24.114	1027.016	825.183
71.578	24.215	1026.221	824.939
72.593	23.897	1025.686	822.966
73.607	24.160	1024.777	823.376
74.622	24.463	1024.705	824.647
75.636	24.424	1024.208	823.994
76.651	24.498	1022.954	823.254
77.666	24.368	1022.169	821.949
78.680	24.283	1021.873	821.249
79.695	24.416	1020.979	821.071
80.709	24.460	1020.404	820.734
81.724	24.474	1019.561	820.049
82.739	24.507	1018.974	819.655
83.753	24.961	1018.476	821.265
84.768	25.120	1017.868	821.432
85.782	25.185	1016.761	820.765
86.797	25.177	1016.131	820.146
87.812	24.933	1015.233	818.232
88.826	25.285	1013.898	818.690
89.841	25.274	1012.893	817.756
90.855	25.198	1012.005	816.620
91.870	25.256	1011.457	816.370
92.884	25.011	1010.225	814.189
93.899	25.034	1009.366	813.532
94.914	25.051	1008.699	813.000
95.928	24.927	1007.288	811.228
96.943	24.698	1006.047	809.121
97.957	24.613	1004.768	807.636
98.972	24.496	1004.348	806.696
99.987	24.709	1003.472	806.886
101.001	24.930	1003.160	807.559
102.016	24.881	1002.010	806.341
103.030	24.801	1000.945	805.054
104.045	24.512	1000.043	802.956
105.060	24.427	999.438	802.016
106.074	24.682	998.459	802.306
107.089	24.972	997.923	803.105
108.103	24.889	996.844	801.795
109.118	24.642	995.941	799.893
110.133	24.652	994.858	798.997
111.147	24.367	993.788	796.793
112.162	24.266	992.917	795.574
113.176	24.579	992.242	796.357
114.191	24.454	991.623	795.234
115.206	24.214	990.361	793.083
116.220	24.186	989.491	792.193
117.235	24.386	988.399	792.137
118.249	24.306	987.768	791.206
119.264	24.268	986.692	790.106
120.279	24.356	986.076	789.931
121.293	24.335	985.765	789.519
122.308	24.389	984.129	788.378
123.322	24.321	983.250	787.303
124.337	24.237	981.962	785.833
125.352	23.571	980.500	781.658
126.366	23.688	979.599	781.388
127.381	24.467	979.683	784.811
128.395	24.785	979.326	785.851
129.410	24.899	978.429	785.561
130.424	24.738	977.592	784.118
131.439	24.872	976.520	783.775
132.454	24.814	975.460	782.599
133.468	24.671	974.825	781.397
134.483	24.914	974.080	781.789
135.497	25.117	972.820	781.596
136.512	25.016	972.772	781.047
137.527	25.104	971.877	780.645
138.541	25.192	971.113	780.343
139.556	25.180	970.190	779.479
140.570	25.124	969.941	778.968
141.585	25.229	968.794	778.436
142.600	25.058	967.938	776.936
143.614	25.303	967.277	777.399
144.629	25.502	966.233	777.349
145.643	25.295	964.508	774.998
146.658	24.987	963.843	773.070
147.673	25.087	962.281	772.178
148.687	24.919	961.622	770.858
149.702	24.884	960.485	769.728
150.716	24.816	959.811	768.828
151.731	25.038	959.382	769.370
152.746	25.274	958.961	769.977
153.760	25.309	958.054	769.331
154.775	25.300	957.447	768.736
155.789	25.399	956.328	768.192
156.804	25.248	955.536	766.843
157.819	25.343	954.940	766.704
158.833	25.427	954.649	766.760
159.848	25.445	953.206	765.612
160.862	25.297	951.995	763.940
161.877	25.264	950.836	762.803
162.892	25.236	950.482	762.329
163.906	25.156	949.085	760.804
164.921	25.196	948.196	760.194
165.935	25.416	947.421	760.435
166.950	25.244	946.449	758.863
167.964	25.215	946.275	758.532
168.979	25.082	944.691	756.632
169.994	25.091	943.943	756.007
171.008	25.258	943.685	756.435
172.023	25.380	942.646	756.053
173.037	25.141	941.696	754.216
174.052	24.969	940.696	752.625
175.067	25.000	940.277	752.355
176.081	25.022	939.756	751.962
177.096	24.927	939.405	751.218
178.110	24.765	937.958	749.316
179.125	24.596	937.090	747.849
180.140	24.581	937.216	747.820
181.154	24.842	936.826	748.534
182.169	25.187	936.527	749.670
183.183	25.276	935.871	749.454
184.198	25.095	935.373	748.233
185.213	25.191	934.489	747.859
186.227	25.293	933.560	747.475
187.242	25.277	933.069	746.949
188.256	25.373	932.629	746.928
189.271	25.458	931.780	746.535
190.286	24.936	930.623	743.375
191.300	24.302	929.273	739.602
192.315	23.587	927.894	735.476
193.329	23.491	927.513	734.712
194.344	24.470	927.883	738.994
195.359	25.040	928.042	741.418
196.373	25.240	927.246	741.540
197.388	25.035	926.813	740.283
198.402	25.137	925.726	739.771
199.417	25.166	925.049	739.283
200.432	24.858	924.500	737.512
201.446	24.820	923.614	736.580
202.461	24.856	923.132	736.282
203.475	23.967	920.975	730.844
204.490	23.145	919.841	726.504
205.504	24.171	920.698	731.331
206.519	24.830	920.076	733.476
207.534	24.813	919.834	733.149
208.548	25.287	919.571	734.814
209.563	24.988	918.655	732.795
210.577	25.001	918.041	732.295
211.592	25.280	917.945	733.292
212.607	25.296	916.856	732.421
213.621	25.375	916.186	732.143
214.636	25.433	915.329	731.632
215.650	25.375	914.664	730.800
216.665	25.260	914.580	730.199
217.680	25.370	913.353	729.604
218.694	24.942	912.251	726.921
219.709	24.815	911.617	725.836
220.723	24.958	911.726	726.439
221.738	25.189	910.675	726.474
222.753	25.136	909.974	725.636
223.767	25.206	909.971	725.850
224.782	25.545	909.300	726.621
225.796	25.326	908.893	725.348
226.811	24.696	907.510	721.639
227.826	24.157	906.115	718.293
228.840	24.372	905.477	718.587
229.855	24.414	904.813	718.168
230.869	24.009	903.875	715.732
231.884	24.426	904.299	717.680
232.899	25.061	903.950	719.892
233.913	25.049	903.517	719.433
234.928	25.017	902.879	718.735
235.942	24.979	901.969	717.794
236.957	24.508	901.035	715.102
237.972	24.626	900.790	715.318
238.986	24.664	900.570	715.232
240.001	24.776	899.492	714.760
241.015	24.885	899.189	714.889
242.030	25.009	898.365	714.664
243.045	25.208	898.278	715.327
244.059	25.322	897.743	715.291
245.074	24.984	896.910	713.221
246.088	24.806	895.702	711.490
247.103	25.128	895.462	712.513
248.117	25.697	895.650	714.862
249.132	25.772	895.297	714.816
250.147	25.873	894.579	714.580
251.161	26.043	893.929	714.671
252.176	25.875	894.011	714.006
253.190	25.995	893.562	714.061
254.205	26.147	892.725	713.929
255.220	26.203	891.987	713.495
256.234	26.059	891.255	712.281
257.249	26.033	890.127	711.212
258.263	26.078	889.767	711.041
259.278	26.048	888.887	710.155
260.293	26.202	888.152	710.110
261.307	26.134	887.495	709.258
262.322	25.878	887.060	707.840
263.336	25.047	884.770	702.694
264.351	23.992	882.938	697.047
265.366	24.285	882.672	697.922
266.380	25.200	883.709	702.263
267.395	25.609	883.498	703.634
268.409	25.644	882.544	702.949
269.424	25.799	882.190	703.211
270.439	25.877	881.676	703.040
271.453	25.967	880.718	702.567
272.468	26.106	880.486	702.861
273.482	26.106	879.985	702.397
274.497	25.705	879.125	700.089
275.512	25.554	877.868	698.442
276.526	25.725	878.116	699.239
277.541	25.993	877.962	700.097
278.555	25.656	876.769	697.775
279.570	25.598	876.156	697.001
280.585	25.741	875.719	697.145
281.599	25.710	874.975	696.374
282.614	24.948	873.748	692.390
283.628	25.174	872.967	692.582
284.643	25.481	872.898	693.654
285.657	25.109	871.661	691.172
286.672	24.866	870.471	689.232
287.687	25.428	871.152	691.876
288.701	25.467	870.802	691.688
289.716	25.083	869.340	688.990
290.730	25.036	868.935	688.425
291.745	24.741	867.675	686.237
292.760	25.243	867.836	688.229
293.774	26.037	868.679	691.883
294.789	26.447	868.390	693.164
295.803	26.417	867.625	692.375
296.818	26.496	866.526	691.739
297.833	26.001	865.358	688.857
298.847	25.804	864.922	687.696
299.862	26.268	864.601	689.148
300.876	26.419	864.436	689.532
301.891	26.430	863.519	688.784
302.906	25.876	862.982	686.184
303.920	26.108	862.752	686.822
304.935	26.374	862.748	687.773
305.949	26.340	861.743	686.782
306.964	25.982	861.216	684.941
307.979	26.059	860.641	684.713
308.993	26.404	860.621	685.946
310.008	26.420	860.061	685.500
311.022	26.192	858.498	683.333
312.037	26.181	858.159	682.960
313.052	25.934	857.494	681.437
314.066	25.026	855.421	676.304
315.081	24.712	855.052	674.766
316.095	25.599	855.344	678.284
317.110	26.063	855.081	679.763
318.125	25.161	853.788	675.283
319.139	24.126	852.148	670.033
320.154	24.161	851.888	669.900
321.168	25.034	852.540	673.638
322.183	25.722	852.457	676.099
323.197	26.006	852.009	676.750
324.212	26.066	851.734	676.694
325.227	26.208	850.991	676.576
326.241	26.022	850.263	675.243
327.256	25.946	849.771	674.508
328.270	25.840	849.141	673.551
329.285	25.675	848.416	672.299
330.300	25.493	847.774	671.053
331.314	25.723	847.108	671.324
332.329	26.046	847.632	672.886
333.343	26.428	846.740	673.540
334.358	26.264	846.429	672.623
335.373	26.426	845.780	672.650
336.387	26.556	845.910	673.178
337.402	26.654	846.111	673.644
338.416	26.633	845.349	672.898
339.431	26.751	844.899	672.919
340.446	26.934	845.134	673.726
341.460	26.738	844.562	672.483
342.475	26.721	843.913	671.844
343.489	26.639	843.800	671.391
344.504	26.958	843.121	671.970
345.519	27.102	843.136	672.455
346.533	27.044	842.724	671.854
347.548	27.087	841.765	671.188
348.562	26.967	841.629	670.577
349.577	26.942	840.562	669.575
350.592	26.821	839.940	668.577
351.606	27.024	839.000	668.516
352.621	26.838	838.424	667.312
353.635	26.732	837.876	666.429
354.650	26.078	836.258	662.684
355.665	25.235	834.624	658.238
356.679	25.547	834.491	659.219
357.694	26.107	833.933	660.768
358.708	25.941	833.591	659.832
359.723	26.471	833.592	661.716
360.738	26.810	832.849	662.304
361.752	26.852	832.760	662.328
362.767	27.070	832.673	662.995
363.781	27.459	832.118	663.913
364.796	27.466	831.830	663.652
365.810	27.481	831.209	663.151
366.825	27.325	830.971	662.335
367.840	27.085	830.023	660.649
368.854	26.765	828.844	658.490
369.869	26.775	828.959	658.559
370.883	26.803	828.542	658.270
371.898	26.765	827.925	657.583
372.913	26.830	827.496	657.422
373.927	26.882	827.149	657.277
374.942	27.073	826.985	657.779
375.956	27.049	826.655	657.370
376.971	27.293	825.892	657.591
377.986	27.522	825.252	657.848
379.000	27.277	824.920	656.640
380.015	27.201	824.628	656.074
381.029	27.250	823.729	655.480
382.044	27.378	823.525	655.722
383.059	27.239	823.248	654.939
384.073	27.339	822.455	654.612
385.088	27.386	821.366	653.856
386.102	27.096	820.962	652.434
387.117	27.167	820.419	652.202
388.132	26.649	819.068	649.213
389.146	26.385	817.748	647.163
390.161	26.610	818.178	648.252
391.175	27.144	818.129	650.066
392.190	26.733	817.116	647.736
393.205	25.380	814.816	641.033
394.219	23.973	812.796	634.373
395.234	23.907	812.878	634.142
396.248	25.499	814.341	640.912
397.263	27.023	815.212	646.975
398.278	26.816	814.583	645.681
399.292	26.513	814.508	644.486
400.307	26.645	813.941	644.450
401.321	26.691	813.222	643.986
402.336	27.010	813.680	645.427
403.350	27.591	813.119	646.988
404.365	27.815	813.001	647.631
405.380	28.247	812.747	648.902
406.394	28.203	812.204	648.256
407.409	28.103	811.436	647.231
408.423	27.887	811.557	646.508
409.438	28.014	810.971	646.431
410.453	28.265	810.436	646.836
411.467	28.051	809.707	645.441
412.482	28.097	809.857	645.668
413.496	28.297	809.081	645.698
414.511	28.240	808.799	645.211
415.526	28.188	808.214	644.507
416.540	28.020	807.422	643.227
417.555	27.745	806.869	641.762
418.569	27.731	806.829	641.625
419.584	27.689	806.406	641.084
420.599	27.510	805.613	639.768
421.613	110.366	1286.498	1459.219
422.628	95.307	1356.577	1459.320
