DTS Sentinel unit serial number:	SN413079Multiplexer serial number:	ORYXHardware model number:	OX4-SRSoftware version number:	ORYX F/W v4.00 Oryx Data Collector v3.7.2.0data status	okinstallation	princeton_trtdifferential loss correction	single-endedforward channel	channel 1reverse channel	N/Adate	2019/09/14time	18:26:35forward acquisition time	60.00reverse acquisition time	0.00gamma	496.2192k internal	0.2302k external	0.2302temperature offset calibration	1.0041default loss term (dB/km)	0.3790temperature slope calibration	1.0000multiplexer offset coefficient	1.0000multiplexer slope coefficient	1.0000fibre end	0.00T internal ref (°C)	36.73T ext. ref 1 (°C)	4.93T ext. ref 2 (°C)	30.51length (m)	temperature (°C)	Stokes	anti-Stokes-747.200	800.000	0.013	0.050
-746.185	-73.265	0.159	-0.059
-745.171	-200.000	0.006	-0.130
-744.156	-112.973	-0.194	-0.039
-743.142	-132.726	0.404	0.053
-742.127	-53.462	0.208	0.097
-741.112	-69.546	-0.221	-0.086
-740.098	-108.432	0.367	-0.081
-739.083	214.336	-0.042	0.067
-738.069	-200.000	-0.080	0.501
-737.054	-153.263	-0.158	-0.011
-736.039	-200.000	0.055	0.343
-735.025	-13.231	0.268	0.178
-734.010	-41.138	0.212	-0.111
-732.996	28.229	-0.210	0.181
-731.981	-2.799	0.002	-0.001
-730.966	143.227	-0.030	0.041
-729.952	109.391	-0.161	-0.197
-728.937	-200.000	-0.024	-0.313
-727.923	133.664	-0.250	-0.329
-726.908	557.689	-0.067	-0.163
-725.894	18.778	0.075	-0.061
-724.879	800.000	-0.144	-0.618
-723.864	3.545	-0.104	0.077
-722.850	323.759	-0.114	-0.221
-721.835	65.454	0.214	0.221
-720.821	731.827	-0.064	-0.173
-719.806	-25.259	-0.207	-0.125
-718.791	-200.000	-0.001	0.136
-717.777	-96.420	-0.295	-0.079
-716.762	225.338	-0.177	-0.292
-715.748	800.000	-0.027	-0.097
-714.733	2.718	0.199	-0.147
-713.718	-44.420	-0.261	-0.133
-712.704	-200.000	0.028	-0.337
-711.689	-109.583	-0.233	0.050
-710.675	-139.331	-0.422	-0.046
-709.660	753.236	0.072	0.199
-708.645	-48.845	-0.206	0.101
-707.631	-43.235	-0.165	-0.085
-706.616	-2.700	0.115	-0.082
-705.602	800.000	0.063	-0.195
-704.587	63.970	-0.234	-0.239
-703.572	249.297	-0.079	-0.137
-702.558	-197.290	-0.257	0.002
-701.543	-52.096	-0.180	0.085
-700.529	-113.402	0.176	-0.035
-699.514	171.287	-0.154	-0.224
-698.499	-200.000	0.008	-0.257
-697.485	464.168	-0.167	-0.379
-696.470	2.243	-0.197	-0.145
-695.456	-85.898	-0.276	0.087
-694.441	800.000	-0.062	-0.181
-693.426	330.133	-0.132	-0.258
-692.412	-140.263	-0.051	-0.005
-691.397	800.000	-0.061	-0.234
-690.383	106.651	0.089	0.108
-689.368	-82.451	-0.169	-0.056
-688.354	800.000	-0.056	0.191
-687.339	-58.806	0.180	0.079
-686.324	800.000	-0.022	0.099
-685.310	800.000	-0.030	0.114
-684.295	-55.350	0.129	0.059
-683.281	-179.031	0.078	0.002
-682.266	-59.857	0.098	0.042
-681.251	800.000	0.065	-0.280
-680.237	-200.000	0.027	-0.165
-679.222	393.900	-0.197	-0.418
-678.208	-200.000	0.051	0.260
-677.193	-106.149	-0.321	0.073
-676.178	-117.890	-0.205	0.037
-675.164	-200.000	0.015	0.398
-674.149	132.983	0.123	0.161
-673.135	179.742	-0.134	0.200
-672.120	-200.000	0.008	-0.146
-671.105	4.834	0.057	0.043
-670.091	40.515	-0.250	-0.229
-669.076	98.763	-0.237	-0.278
-668.062	-200.000	0.026	0.190
-667.047	428.418	0.068	0.149
-666.032	800.000	-0.040	0.149
-665.018	435.237	-0.062	0.137
-664.003	137.553	0.036	-0.048
-662.989	-200.000	-0.062	-0.313
-661.974	-47.000	-0.086	-0.043
-660.959	-200.000	-0.016	0.097
-659.945	181.317	0.043	-0.064
-658.930	-200.000	0.039	0.272
-657.916	-64.572	-0.207	-0.085
-656.901	-48.427	-0.022	-0.011
-655.886	800.000	0.037	0.152
-654.872	-172.658	0.120	-0.004
-653.857	-128.898	-0.312	0.045
-652.843	45.490	-0.364	0.341
-651.828	345.490	0.044	0.088
-650.814	-77.771	-0.031	0.011
-649.799	-178.112	0.205	0.005
-648.784	113.146	-0.332	0.409
-647.770	-9.986	0.216	0.146
-646.755	-200.000	-0.038	-0.251
-645.741	800.000	0.088	0.271
-644.726	-200.000	0.025	-0.161
-643.711	-200.000	-0.081	-0.365
-642.697	-47.425	-0.305	0.151
-641.682	-15.633	-0.163	-0.106
-640.668	356.923	0.197	0.398
-639.653	82.013	-0.136	-0.150
-638.638	-34.574	0.084	-0.047
-637.624	229.878	-0.164	-0.273
-636.609	156.626	0.215	-0.301
-635.595	800.000	0.052	-0.155
-634.580	-6.814	0.310	-0.214
-633.565	-16.863	-0.257	0.165
-632.551	800.000	-0.070	0.310
-631.536	-35.362	-0.214	0.118
-630.522	356.831	-0.111	0.225
-629.507	-128.678	-0.448	0.064
-628.492	-134.815	0.140	-0.017
-627.478	108.730	-0.046	-0.056
-626.463	800.000	-0.026	-0.109
-625.449	96.357	0.045	-0.053
-624.434	800.000	-0.032	-0.128
-623.419	-121.705	0.052	-0.009
-622.405	-135.045	-0.061	-0.007
-621.390	-32.778	-0.106	0.060
-620.376	-91.634	0.087	-0.025
-619.361	15.969	-0.195	0.156
-618.346	-24.883	-0.166	-0.100
-617.332	-43.580	0.244	0.125
-616.317	119.884	-0.046	0.057
-615.303	-18.965	-0.083	-0.052
-614.288	-33.575	-0.204	-0.114
-613.273	622.001	-0.084	-0.216
-612.259	-123.011	0.174	-0.028
-611.244	-146.469	-0.274	0.024
-610.230	116.041	-0.147	0.182
-609.215	-110.928	-0.193	0.040
-608.201	40.841	-0.167	-0.153
-607.186	-200.000	0.016	0.100
-606.171	-42.347	0.252	0.131
-605.157	1.114	0.107	0.077
-604.142	-200.000	0.015	-0.280
-603.128	381.060	-0.091	-0.190
-602.113	-17.783	0.113	0.072
-601.098	152.299	-0.339	0.470
-600.084	157.668	0.241	0.338
-599.069	344.410	0.081	0.162
-598.055	-52.769	-0.302	-0.141
-597.040	-152.731	-0.206	0.015
-596.025	-73.793	0.333	-0.123
-595.011	-164.518	-0.106	-0.005
-593.996	-135.585	0.345	-0.042
-592.982	-49.620	-0.348	-0.168
-591.967	-123.551	-0.194	0.031
-590.952	140.702	-0.064	0.085
-589.938	416.143	-0.128	0.277
-588.923	-156.833	0.233	-0.015
-587.909	800.000	-0.040	-0.124
-586.894	-200.000	0.023	0.154
-585.879	-45.209	-0.071	0.036
-584.865	-65.388	0.186	-0.076
-583.850	-134.292	0.234	0.029
-582.836	438.991	-0.050	0.110
-581.821	-86.586	0.202	-0.063
-580.806	800.000	-0.091	0.259
-579.792	-32.791	0.023	-0.013
-578.777	-200.000	0.002	-0.336
-577.763	19.179	-0.108	0.088
-576.748	-78.059	-0.175	0.061
-575.733	-193.503	-0.375	0.003
-574.719	-121.340	-0.034	-0.006
-573.704	-5.490	-0.082	-0.057
-572.690	196.345	0.179	-0.276
-571.675	217.119	0.285	0.460
-570.661	118.757	-0.187	0.233
-569.646	31.204	-0.157	-0.137
-568.631	-39.165	0.023	-0.012
-567.617	-1.019	0.333	0.239
-566.602	-200.000	0.037	0.273
-565.588	-164.139	0.149	0.007
-564.573	-61.311	-0.241	-0.103
-563.558	800.000	-0.062	0.212
-562.544	517.181	-0.073	-0.172
-561.529	800.000	0.021	-0.073
-560.515	-200.000	0.010	0.184
-559.500	-159.914	0.188	0.010
-558.485	-200.000	-0.002	0.026
-557.471	34.247	0.100	-0.088
-556.456	57.743	-0.204	-0.202
-555.442	79.270	0.071	0.077
-554.427	-200.000	0.001	-0.486
-553.412	-31.602	-0.200	0.114
-552.398	-200.000	0.015	0.083
-551.383	800.000	-0.027	-0.096
-550.369	-106.920	0.390	-0.087
-549.354	108.401	-0.127	-0.154
-548.339	800.000	0.081	0.303
-547.325	-104.150	0.222	0.052
-546.310	381.480	-0.094	-0.195
-545.296	-51.162	0.190	0.090
-544.281	-200.000	0.020	0.123
-543.266	-147.652	-0.066	-0.006
-542.252	-91.213	-0.215	-0.062
-541.237	-96.378	0.116	-0.031
-540.223	-200.000	-0.002	-0.274
-539.208	-200.000	-0.009	0.043
-538.193	60.789	0.202	0.203
-537.179	68.807	-0.148	-0.153
-536.164	-97.845	0.260	-0.068
-535.150	113.674	0.066	0.082
-534.135	-133.687	0.141	-0.018
-533.121	153.386	-0.228	-0.315
-532.106	800.000	-0.137	0.600
-531.091	195.679	-0.109	0.167
-530.077	382.674	-0.243	0.504
-529.062	-200.000	0.055	0.508
-528.048	-64.743	-0.261	-0.107
-527.033	94.967	-0.051	0.059
-526.018	95.825	-0.057	-0.065
-525.004	-158.242	-0.247	0.015
-523.989	-56.581	-0.055	0.025
-522.975	-200.000	0.050	-0.308
-521.960	-105.925	-0.173	0.039
-520.945	-30.905	-0.060	0.034
-519.931	32.072	0.330	0.287
-518.916	-200.000	-0.023	-0.223
-517.902	800.000	0.050	0.196
-516.887	64.544	-0.284	0.289
-515.872	-94.096	-0.440	-0.122
-514.858	800.000	-0.095	-0.384
-513.843	239.297	-0.012	-0.021
-512.829	166.202	0.070	-0.101
-511.814	115.852	0.124	0.153
-510.799	-169.151	0.258	0.010
-509.785	-102.821	0.276	0.066
-508.770	-200.000	-0.031	0.138
-507.756	276.628	-0.102	0.183
-506.741	295.386	-0.056	-0.104
-505.726	-89.466	0.228	-0.068
-504.712	-104.957	-0.306	-0.071
-503.697	-26.097	0.395	0.234
-502.683	-200.000	0.035	0.206
-501.668	-172.735	-0.262	-0.008
-500.653	-12.678	0.231	-0.152
-499.639	1.976	0.057	-0.041
-498.624	65.719	-0.124	0.127
-497.610	-200.000	0.014	-0.166
-496.595	87.372	0.150	-0.168
-495.581	800.000	-0.042	0.122
-494.566	-91.605	-0.246	0.071
-493.551	-200.000	-0.003	0.064
-492.537	-200.000	0.028	0.195
-491.522	-21.093	-0.210	0.130
-490.508	-165.038	-0.195	0.009
-489.493	800.000	-0.023	0.099
-488.478	-174.339	-0.448	-0.013
-487.464	800.000	-0.039	-0.119
-486.449	-13.217	0.140	-0.092
-485.435	800.000	-0.029	0.091
-484.420	46.746	0.151	0.141
-483.405	-46.754	-0.192	0.095
-482.391	-160.876	-0.103	0.006
-481.376	-38.477	0.498	-0.266
-480.362	-196.154	-0.256	0.002
-479.347	-93.516	0.126	-0.035
-478.332	26.605	0.200	0.169
-477.318	201.327	0.129	0.200
-476.303	140.147	-0.113	0.151
-475.289	-2.188	-0.282	-0.199
-474.274	-113.301	-0.109	-0.022
-473.259	209.623	-0.061	0.096
-472.245	21.575	-0.152	0.125
-471.230	85.833	-0.212	-0.235
-470.216	68.719	-0.162	0.167
-469.201	63.331	-0.062	-0.063
-468.186	130.881	-0.201	-0.259
-467.172	220.662	0.104	0.168
-466.157	474.708	0.131	0.298
-465.143	560.538	0.117	-0.286
-464.128	-34.195	-0.164	-0.091
-463.113	-91.138	0.207	-0.060
-462.099	241.586	-0.156	0.262
-461.084	22.630	-0.294	-0.242
-460.070	318.565	0.224	-0.428
-459.055	-200.000	-0.003	-0.048
-458.040	800.000	0.027	-0.095
-457.026	-17.000	0.226	0.144
-456.011	-77.480	0.199	-0.070
-454.997	-43.899	0.155	0.079
-453.982	128.254	0.150	-0.193
-452.968	-61.316	0.115	0.049
-451.953	-165.279	0.194	-0.009
-450.938	17.749	-0.139	0.111
-449.924	800.000	0.095	0.413
-448.909	-139.912	0.068	-0.007
-447.895	42.339	0.030	-0.027
-446.880	296.591	0.038	-0.070
-445.865	-129.743	0.139	0.019
-444.851	-54.965	0.122	0.055
-443.836	800.000	-0.046	-0.187
-442.822	85.469	-0.107	-0.118
-441.807	470.429	0.032	-0.073
-440.792	357.240	0.131	0.263
-439.778	-200.000	-0.010	-0.094
-438.763	767.263	0.067	0.184
-437.749	800.000	0.051	0.177
-436.734	5.352	0.077	-0.057
-435.719	300.412	0.133	-0.248
-434.705	-116.619	0.162	0.030
-433.690	-42.277	-0.456	-0.234
-432.676	-173.185	0.135	0.004
-431.661	-83.661	0.369	0.119
-430.646	-91.358	-0.177	-0.051
-429.632	278.976	-0.065	-0.116
-428.617	-22.614	-0.209	0.127
-427.603	800.000	0.010	0.033
-426.588	-135.162	0.069	-0.008
-425.573	70.434	0.157	-0.164
-424.559	-64.897	-0.269	-0.109
-423.544	-132.957	-0.096	0.012
-422.530	-97.085	-0.023	-0.006
-421.515	-24.393	0.082	-0.049
-420.500	22.302	0.191	-0.157
-419.486	-200.000	0.002	0.098
-418.471	15.027	-0.153	-0.120
-417.457	-104.584	-0.181	0.042
-416.442	-200.000	0.012	0.096
-415.428	-41.263	0.084	0.044
-414.413	0.739	0.210	0.152
-413.398	-200.000	-0.061	0.372
-412.384	-89.011	-0.280	0.083
-411.369	800.000	0.028	-0.086
-410.355	227.728	-0.115	0.189
-409.340	-200.000	-0.007	-0.039
-408.325	-200.000	0.000	-0.183
-407.311	-3.040	-0.144	-0.101
-406.296	38.262	-0.064	0.057
-405.282	413.223	0.096	-0.206
-404.267	-200.000	0.047	-0.394
-403.252	119.830	-0.154	0.192
-402.238	3.160	0.115	-0.084
-401.223	63.974	0.029	0.029
-400.209	46.791	0.042	0.039
-399.194	-200.000	0.012	-0.233
-398.179	-130.199	0.475	0.065
-397.165	163.900	-0.139	-0.197
-396.150	-104.662	-0.020	-0.005
-395.136	247.655	-0.036	-0.061
-394.121	260.626	-0.092	-0.161
-393.106	800.000	-0.044	-0.150
-392.092	800.000	0.012	0.052
-391.077	-172.535	-0.088	-0.003
-390.063	800.000	-0.074	-0.207
-389.048	-200.000	-0.016	0.176
-388.033	777.617	-0.052	-0.143
-387.019	-45.216	-0.245	-0.122
-386.004	173.834	0.034	-0.050
-384.990	195.165	0.168	0.256
-383.975	-200.000	0.007	0.167
-382.960	87.149	0.054	-0.059
-381.946	800.000	-0.010	0.032
-380.931	707.559	-0.090	-0.239
-379.917	44.615	0.148	-0.136
-378.902	-200.000	0.080	-0.363
-377.888	-200.000	-0.022	0.115
-376.873	-144.640	-0.244	0.023
-375.858	54.131	-0.103	-0.100
-374.844	123.273	-0.190	0.240
-373.829	-154.909	0.085	0.006
-372.815	696.459	-0.010	0.025
-371.800	800.000	-0.081	-0.273
-370.785	260.444	0.036	0.062
-369.771	729.304	0.072	0.192
-368.756	-200.000	0.003	-0.290
-367.742	231.025	-0.118	-0.194
-366.727	222.591	-0.060	-0.097
-365.712	416.387	0.043	-0.092
-364.698	41.524	-0.185	-0.168
-363.683	69.779	0.051	-0.053
-362.669	-200.000	-0.023	0.269
-361.654	800.000	0.061	-0.253
-360.639	22.664	-0.406	0.334
-359.625	275.904	-0.055	0.097
-358.610	-86.728	0.102	-0.031
-357.596	29.986	0.063	0.054
-356.581	262.617	-0.156	-0.272
-355.566	-39.101	-0.315	-0.166
-354.552	-200.000	-0.026	-0.252
-353.537	706.347	-0.061	0.161
-352.523	131.713	-0.050	0.065
-351.508	-39.196	-0.427	-0.225
-350.493	-200.000	0.059	-0.342
-349.479	-86.673	0.050	-0.015
-348.464	-151.967	-0.152	0.011
-347.450	-107.352	-0.261	-0.058
-346.435	-64.104	0.130	0.053
-345.420	425.117	0.115	-0.249
-344.406	-200.000	-0.001	0.352
-343.391	106.112	0.075	0.089
-342.377	51.369	0.257	0.245
-341.362	-110.802	-0.395	-0.082
-340.348	109.222	-0.199	0.239
-339.333	-5.519	0.260	-0.179
-338.318	179.288	0.085	-0.125
-337.304	62.887	-0.254	-0.255
-336.289	800.000	-0.066	0.224
-335.275	-17.425	0.109	0.069
-334.260	-82.974	0.121	-0.039
-333.245	-66.911	-0.118	0.047
-332.231	-200.000	0.028	-0.132
-331.216	337.182	0.144	0.280
-330.202	-200.000	0.018	-0.293
-329.187	800.000	0.146	0.449
-328.172	53.825	-0.227	-0.219
-327.158	234.488	-0.170	-0.280
-326.143	542.083	-0.094	-0.224
-325.129	13.651	-0.010	0.008
-324.114	-62.982	0.061	0.025
-323.099	-32.542	0.163	-0.091
-322.085	-42.522	0.145	0.074
-321.070	800.000	0.095	0.319
-320.056	-14.245	-0.235	-0.152
-319.041	728.798	0.081	-0.217
-318.026	-200.000	0.011	0.053
-317.012	19.624	0.135	-0.109
-315.997	-200.000	-0.049	-0.216
-314.983	130.802	-0.052	0.067
-313.968	-18.851	-0.384	0.240
-312.953	428.637	-0.115	-0.250
-311.939	800.000	-0.041	-0.127
-310.924	-122.430	0.164	0.027
-309.910	-200.000	0.013	-0.173
-308.895	-107.984	-0.152	0.033
-307.880	216.508	0.287	0.458
-306.866	-200.000	-0.003	0.122
-305.851	399.635	-0.114	-0.240
-304.837	190.207	0.118	0.178
-303.822	128.802	0.117	0.149
-302.807	-58.748	0.113	-0.049
-301.793	-94.331	-0.310	-0.085
-300.778	800.000	0.043	0.136
-299.764	50.292	-0.291	-0.276
-298.749	-200.000	-0.005	-0.432
-297.735	-89.347	-0.048	-0.014
-296.720	-97.095	0.074	-0.019
-295.705	-149.889	0.153	-0.012
-294.691	-118.751	0.067	-0.012
-293.676	48.030	-0.228	-0.213
-292.662	473.964	-0.162	-0.366
-291.647	420.411	0.116	-0.250
-290.632	800.000	0.046	0.157
-289.618	-147.907	-0.076	-0.006
-288.603	687.813	0.061	-0.160
-287.589	-200.000	0.041	-0.230
-286.574	800.000	0.022	0.096
-285.559	-102.198	-0.115	0.028
-284.545	-52.254	0.252	0.117
-283.530	-200.000	0.025	-0.242
-282.516	238.250	0.079	-0.131
-281.501	800.000	0.031	-0.108
-280.486	238.499	-0.149	0.248
-279.472	-200.000	-0.005	-0.225
-278.457	90.447	-0.074	-0.082
-277.443	-165.715	0.110	0.005
-276.428	42.187	-0.202	0.184
-275.413	-169.716	0.329	0.012
-274.399	51.255	0.034	0.033
-273.384	765.573	-0.173	0.470
-272.370	-200.000	-0.030	0.135
-271.355	-200.000	0.021	-0.115
-270.340	800.000	-0.106	-0.339
-269.326	75.377	0.166	0.175
-268.311	346.413	0.094	0.185
-267.297	-114.379	0.105	0.020
-266.282	800.000	-0.076	-0.257
-265.267	-200.000	-0.017	0.127
-264.253	338.380	0.055	-0.107
-263.238	-13.619	0.441	-0.286
-262.224	-154.157	-0.092	0.006
-261.209	26.581	-0.218	-0.182
-260.195	393.172	-0.021	0.045
-259.180	800.000	0.138	0.477
-258.165	-106.511	0.112	0.025
-257.151	-60.406	0.173	0.074
-256.136	-113.353	0.165	-0.032
-255.122	68.250	0.179	0.184
-254.107	-91.898	0.315	-0.089
-253.092	-48.052	-0.199	0.096
-252.078	-110.409	0.240	0.050
-251.063	27.124	-0.205	0.172
-250.049	-53.371	0.063	0.029
-249.034	800.000	0.037	-0.158
-248.019	652.634	0.019	0.050
-247.005	-7.653	-0.170	0.115
-245.990	48.407	-0.087	-0.081
-244.976	-59.537	-0.160	-0.069
-243.961	137.654	-0.181	0.237
-242.946	-119.645	-0.026	-0.004
-241.932	-141.867	-0.212	-0.021
-240.917	800.000	0.050	-0.172
-239.903	13.315	0.195	0.151
-238.888	141.965	0.113	0.150
-237.873	282.476	0.190	0.340
-236.859	800.000	0.063	-0.193
-235.844	183.920	-0.154	-0.228
-234.830	106.583	0.109	-0.129
-233.815	323.503	0.042	-0.080
-232.800	182.874	-0.251	0.369
-231.786	-88.896	0.104	-0.031
-230.771	-101.954	0.220	-0.053
-229.757	78.350	0.063	0.067
-228.742	-200.000	0.032	0.324
-227.727	-7.841	-0.208	-0.141
-226.713	17.645	-0.242	-0.192
-225.698	72.894	0.080	0.084
-224.684	-60.205	0.236	-0.100
-223.669	137.455	-0.107	0.140
-222.655	-82.908	0.204	0.066
-221.640	516.556	-0.116	-0.270
-220.625	-131.243	-0.398	-0.053
-219.611	-145.293	-0.220	-0.020
-218.596	-102.419	0.211	0.050
-217.582	-75.034	0.049	-0.017
-216.567	152.236	0.126	-0.171
-215.552	0.117	-0.132	-0.094
-214.538	-103.231	0.222	0.052
-213.523	-85.349	-0.219	0.068
-212.509	34.107	0.204	0.177
-211.494	-200.000	0.018	-0.286
-210.479	-200.000	0.018	0.086
-209.465	-23.007	0.250	0.150
-208.450	137.782	0.242	0.316
-207.436	-200.000	0.023	0.218
-206.421	-43.346	-0.273	0.138
-205.406	-52.414	0.442	0.204
-204.392	21.977	0.217	0.176
-203.377	-200.000	-0.020	-0.126
-202.363	-121.892	-0.226	0.037
-201.348	441.975	-0.083	0.182
-200.333	18.322	-0.107	-0.085
-199.319	82.926	0.100	-0.108
-198.304	-82.582	-0.007	-0.002
-197.290	-183.857	0.210	-0.004
-196.275	-35.936	0.234	-0.126
-195.260	-200.000	-0.031	-0.170
-194.246	-200.000	-0.031	-0.172
-193.231	110.804	-0.035	0.042
-192.217	800.000	-0.066	-0.196
-191.202	-126.141	0.398	-0.059
-190.187	-26.957	0.051	0.030
-189.173	-51.694	0.242	0.113
-188.158	-153.249	0.107	0.007
-187.144	-50.052	0.258	0.122
-186.129	131.530	0.257	-0.330
-185.114	-135.202	0.284	0.034
-184.100	50.911	0.288	0.272
-183.085	119.120	-0.153	0.188
-182.071	169.518	0.110	0.157
-181.056	92.143	0.169	-0.190
-180.042	-108.616	0.390	0.083
-179.027	-10.334	-0.118	0.078
-178.012	160.141	0.138	-0.192
-176.998	56.848	0.198	0.192
-175.983	139.244	-0.216	-0.284
-174.969	-109.966	0.095	0.020
-173.954	722.255	0.122	0.324
-172.939	800.000	0.018	0.077
-171.925	337.324	0.082	0.159
-170.910	-27.854	-0.235	-0.136
-169.896	731.018	0.113	0.301
-168.881	-37.823	0.203	0.108
-167.866	-101.857	0.438	-0.105
-166.852	-200.000	-0.015	-0.349
-165.837	-159.842	0.095	-0.005
-164.823	-200.000	0.002	-0.040
-163.808	800.000	0.043	0.161
-162.793	-128.764	0.331	0.046
-161.779	-65.818	-0.278	-0.111
-160.764	-50.498	-0.192	-0.090
-159.750	-26.938	0.200	-0.116
-158.735	-200.000	-0.009	0.110
-157.720	800.000	-0.091	-0.336
-156.706	-200.000	-0.066	-0.000
-155.691	-200.000	0.021	0.489
-154.677	49.114	0.110	0.103
-153.662	-105.172	-0.182	-0.041
-152.647	-200.000	-0.022	-0.153
-151.633	778.303	-0.052	0.143
-150.618	-200.000	0.076	0.528
-149.604	-105.725	0.378	0.085
-148.589	-200.000	0.006	0.262
-147.574	-200.000	0.020	0.196
-146.560	111.289	0.077	0.092
-145.545	5.522	0.236	-0.173
-144.531	65.315	0.109	-0.110
-143.516	8.173	-0.106	0.079
-142.502	-35.159	-0.170	-0.092
-141.487	-200.000	0.009	-0.193
-140.472	-200.000	-0.059	-0.309
-139.458	-63.224	0.167	0.068
-138.443	800.000	0.050	-0.186
-137.429	-127.683	-0.125	-0.018
-136.414	199.203	0.059	0.089
-135.399	-109.695	-0.164	-0.034
-134.385	-0.584	0.333	0.235
-133.370	-129.025	0.114	-0.016
-132.356	752.971	0.071	0.191
-131.341	-175.301	-0.151	-0.004
-130.326	-67.897	-0.092	-0.036
-129.312	800.000	0.093	0.292
-128.297	247.035	0.139	-0.233
-127.283	-115.708	0.157	-0.029
-126.268	41.435	-0.279	-0.251
-125.253	4.229	0.082	0.060
-124.239	-166.720	-0.411	-0.017
-123.224	-96.581	0.445	-0.117
-122.210	800.000	0.149	0.441
-121.195	-115.766	-0.165	0.031
-120.180	13.102	0.058	-0.045
-119.166	-2.463	-0.244	0.170
-118.151	-200.000	0.029	0.176
-117.137	-78.742	0.279	0.095
-116.122	230.745	0.070	0.114
-115.107	-15.979	0.215	-0.136
-114.093	-106.879	-0.365	-0.080
-113.078	49.201	0.120	-0.112
-112.064	136.144	0.155	0.201
-111.049	-89.005	-0.358	0.105
-110.034	354.917	0.127	-0.251
-109.020	-75.821	0.321	0.113
-108.005	-153.950	-0.112	0.008
-106.991	800.000	0.058	-0.185
-105.976	745.941	-0.103	-0.275
-104.962	-15.780	-0.276	-0.175
-103.947	443.750	-0.075	0.163
-102.932	0.002	-0.224	-0.159
-101.918	-87.242	0.112	0.034
-100.903	-200.000	0.000	0.019
-99.889	575.031	0.105	-0.256
-98.874	26.401	0.259	-0.215
-97.859	-82.849	0.242	0.078
-96.845	800.000	0.145	0.466
-95.830	-101.469	-0.081	0.020
-94.816	-81.378	0.047	0.015
-93.801	1.124	-0.316	0.225
-92.786	-59.005	0.182	0.078
-91.772	-160.795	-0.217	-0.011
-90.757	-35.122	0.426	-0.230
-89.743	8.306	0.174	-0.130
-88.728	108.768	0.071	-0.085
-87.713	-37.879	-0.069	0.036
-86.699	-43.073	-0.396	0.199
-85.684	-108.100	0.125	-0.027
-84.670	139.632	0.141	-0.184
-83.655	105.364	0.224	0.263
-82.640	-172.119	-0.106	-0.003
-81.626	100.744	-0.137	-0.158
-80.611	-115.253	-0.253	0.048
-79.597	-200.000	-0.050	0.227
-78.582	169.530	0.173	-0.246
-77.567	252.362	0.059	-0.100
-76.553	-200.000	0.034	0.285
-75.538	-12.065	-0.175	-0.114
-74.524	-20.346	0.155	0.095
-73.509	-64.643	0.187	-0.075
-72.494	466.190	-0.087	0.193
-71.480	42.084	-0.199	-0.179
-70.465	18.544	0.029	-0.023
-69.451	10.432	-0.123	-0.093
-68.436	-9.492	0.171	-0.114
-67.422	280.387	-0.063	0.113
-66.407	-118.448	0.087	-0.015
-65.392	-69.629	0.139	-0.053
-64.378	160.244	0.099	0.138
-63.363	-82.365	-0.235	-0.076
-62.349	341.543	0.208	0.404
-61.334	144.731	-0.754	-1.000
-60.319	-133.805	0.290	0.036
-59.305	-200.000	-0.072	-0.824
-58.290	132.684	0.645	0.826
-57.276	723.653	0.659	1.741
-56.261	-200.000	90.558	530.076
-55.246	584.670	1379.561	3362.934
-54.232	188.148	2586.059	3833.991
-53.217	123.498	2188.449	2722.621
-52.203	48.237	1643.287	1525.163
-51.188	40.087	1377.507	1228.094
-50.173	36.987	1333.533	1170.168
-49.159	57.187	1380.047	1335.402
-48.144	61.860	1398.483	1381.842
-47.130	40.557	1354.773	1210.506
-46.115	36.861	1336.854	1172.132
-45.100	36.663	1332.440	1167.019
-44.086	36.663	1330.063	1164.894
-43.071	36.528	1327.555	1161.839
-42.057	36.543	1325.807	1160.354
-41.042	36.499	1324.024	1158.483
-40.027	36.564	1322.077	1157.125
-39.013	36.662	1319.941	1155.791
-37.998	36.677	1318.235	1154.343
-36.984	36.689	1316.661	1152.991
-35.969	36.798	1314.291	1151.516
-34.954	36.839	1312.873	1150.471
-33.940	36.832	1311.571	1149.247
-32.925	36.843	1309.800	1147.711
-31.911	36.832	1308.519	1146.482
-30.896	36.710	1307.506	1144.826
-29.881	36.738	1306.289	1143.880
-28.867	36.848	1304.314	1142.757
-27.852	36.926	1302.513	1141.588
-26.838	36.854	1301.021	1139.815
-25.823	36.701	1300.008	1137.981
-24.809	36.871	1298.089	1137.254
-23.794	36.870	1296.891	1136.153
-22.779	36.887	1295.326	1134.836
-21.765	36.858	1294.370	1133.786
-20.750	36.782	1293.279	1132.341
-19.736	36.758	1292.012	1131.042
-18.721	36.673	1291.397	1129.966
-17.706	36.682	1289.545	1128.352
-16.692	36.627	1288.502	1127.074
-15.677	36.647	1287.352	1126.142
-14.663	36.770	1285.801	1125.452
-13.648	36.638	1284.714	1123.690
-12.633	36.741	1283.883	1123.520
-11.619	36.676	1282.974	1122.301
-10.604	36.665	1281.970	1121.316
-9.590	36.543	1281.594	1120.235
-8.575	36.571	1280.432	1119.337
-7.560	36.755	1279.441	1119.490
-6.546	36.697	1278.805	1118.555
-5.531	36.549	1277.908	1116.871
-4.517	36.648	1276.546	1116.205
-3.502	36.771	1275.414	1115.883
-2.487	36.562	1275.010	1114.278
-1.473	36.573	1270.777	1110.597
-0.458	35.003	1254.576	1087.481
0.556	30.609	1234.394	1042.634
1.571	26.214	1238.694	1021.381
2.586	24.971	1253.287	1026.206
3.600	23.845	1242.122	1010.579
4.615	18.068	1168.738	919.792
5.629	9.201	1091.497	814.176
6.644	5.100	1070.024	777.680
7.659	4.743	1067.653	774.112
8.673	4.980	1066.599	774.458
9.688	4.877	1065.427	773.024
10.702	5.189	1063.311	772.968
11.717	9.947	1070.206	801.571
12.731	17.726	1081.156	848.563
13.746	20.245	1083.666	863.004
14.761	19.113	1081.602	855.661
15.775	18.021	1079.715	848.669
16.790	17.060	1077.298	841.934
17.804	16.274	1075.698	836.712
18.819	15.993	1074.211	834.092
19.834	15.673	1073.547	831.918
20.848	15.517	1072.650	830.378
21.863	15.325	1071.725	828.638
22.877	15.080	1071.579	827.243
23.892	15.066	1070.510	826.276
24.907	15.102	1069.822	825.850
25.921	15.181	1068.392	825.059
26.936	15.142	1067.085	823.788
27.950	15.158	1066.101	823.034
28.965	15.280	1064.480	822.309
29.980	15.515	1062.616	821.947
30.994	15.466	1062.108	821.237
32.009	15.429	1061.065	820.182
33.023	15.416	1059.962	819.192
34.038	15.273	1058.909	817.608
35.053	15.166	1057.670	816.058
36.067	15.143	1057.092	815.426
37.082	15.287	1056.104	815.293
38.096	15.408	1055.497	815.342
39.111	15.351	1054.844	814.487
40.126	15.142	1053.991	812.742
41.140	15.138	1052.139	811.222
42.155	15.062	1050.863	809.798
43.169	14.917	1049.998	808.362
44.184	15.064	1048.440	807.797
45.199	15.043	1047.488	806.891
46.213	15.085	1046.577	806.320
47.228	15.122	1045.873	805.887
48.242	15.272	1044.574	805.535
49.257	15.155	1043.772	804.282
50.271	15.259	1042.659	803.854
51.286	15.233	1042.011	803.158
52.301	15.354	1040.753	802.696
53.315	15.081	1039.866	800.634
54.330	14.943	1038.826	799.103
55.344	15.103	1037.876	799.066
56.359	15.035	1036.946	797.958
57.374	15.189	1035.754	797.702
58.388	15.008	1035.117	796.280
59.403	15.054	1034.232	795.745
60.417	14.948	1033.743	794.796
61.432	14.908	1033.079	794.027
62.447	14.877	1032.021	792.997
63.461	14.895	1031.310	792.463
64.476	14.904	1030.043	791.462
65.490	14.709	1029.668	790.182
66.505	14.934	1028.321	790.141
67.520	14.914	1028.069	789.784
68.534	14.847	1027.563	789.011
69.549	14.986	1026.495	788.776
70.563	14.817	1025.574	787.202
71.578	14.798	1024.898	786.524
72.593	14.815	1024.076	785.902
73.607	14.673	1023.580	784.787
74.622	14.744	1022.882	784.512
75.636	14.927	1021.727	784.415
76.651	14.918	1021.449	784.092
77.666	14.767	1021.160	783.093
78.680	14.877	1019.902	782.574
79.695	14.821	1019.533	781.958
80.709	15.009	1019.061	782.408
81.724	15.041	1017.815	781.530
82.739	15.018	1017.346	780.995
83.753	15.191	1016.439	781.034
84.768	15.274	1015.702	780.788
85.782	15.268	1015.569	780.588
86.797	15.425	1013.583	779.724
87.812	15.174	1013.117	778.128
88.826	15.279	1012.053	777.730
89.841	15.337	1010.677	776.872
90.855	15.435	1009.847	776.619
91.870	15.497	1009.224	776.359
92.884	15.413	1008.439	775.298
93.899	15.414	1007.585	774.576
94.914	15.479	1006.765	774.177
95.928	15.502	1005.793	773.468
96.943	15.392	1005.030	772.305
97.957	15.171	1004.253	770.624
98.972	15.308	1003.559	770.655
99.987	15.300	1002.386	769.645
101.001	15.380	1001.220	769.048
102.016	15.270	1000.615	768.015
103.030	15.285	999.453	767.124
104.045	15.382	998.917	767.088
105.060	15.307	998.295	766.199
106.074	15.075	997.287	764.297
107.089	15.107	996.022	763.408
108.103	14.963	995.355	762.171
109.118	14.993	994.562	761.635
110.133	14.967	993.532	760.661
111.147	15.037	992.543	760.154
112.162	15.097	991.659	759.679
113.176	15.154	990.733	759.163
114.191	15.090	990.558	758.670
115.206	15.220	989.505	758.386
116.220	15.033	988.791	756.927
117.235	15.098	987.520	756.181
118.249	14.904	986.923	754.781
119.264	15.122	986.044	755.024
120.279	15.047	985.293	754.045
121.293	15.045	984.324	753.227
122.308	15.047	983.172	752.287
123.322	14.901	982.768	751.255
124.337	14.992	981.268	750.452
125.352	14.890	980.699	749.491
126.366	14.908	979.569	748.645
127.381	14.854	978.554	747.560
128.395	14.869	977.947	747.096
129.410	15.064	976.812	747.032
130.424	15.094	975.866	746.378
131.439	15.119	975.287	745.981
132.454	15.172	974.398	745.472
133.468	15.236	973.766	745.205
134.483	15.281	972.540	744.400
135.497	15.266	971.685	743.615
136.512	15.191	971.219	742.862
137.527	15.188	970.356	742.121
138.541	15.195	969.901	741.740
139.556	15.215	969.228	741.248
140.570	15.345	968.756	741.393
141.585	15.352	967.600	740.474
142.600	15.432	966.982	740.289
143.614	15.412	966.402	739.691
144.629	15.578	965.316	739.525
145.643	15.505	963.980	738.116
146.658	15.287	963.207	736.504
147.673	15.257	962.385	735.677
148.687	15.258	961.569	734.993
149.702	15.197	960.342	733.723
150.716	15.093	959.718	732.725
151.731	15.255	958.792	732.664
152.746	15.216	958.083	731.883
153.760	15.300	957.504	731.745
154.775	15.370	957.227	731.774
155.789	15.422	956.675	731.513
156.804	15.354	955.890	730.553
157.819	15.374	955.080	729.955
158.833	15.488	954.679	730.082
159.848	15.592	953.892	729.866
160.862	15.433	953.028	728.450
161.877	15.296	951.872	726.908
162.892	15.182	950.430	725.247
163.906	15.378	949.364	725.220
164.921	15.146	949.266	724.075
165.935	15.287	948.378	723.943
166.950	15.366	947.382	723.461
167.964	15.396	946.508	722.859
168.979	15.211	945.520	721.243
169.994	15.323	944.584	720.949
171.008	15.413	943.807	720.675
172.023	15.630	943.084	720.993
173.037	15.590	942.399	720.232
174.052	15.511	941.777	719.358
175.067	15.305	941.375	718.103
176.081	15.333	940.516	717.504
177.096	15.255	940.070	716.768
178.110	15.463	939.318	717.020
179.125	15.401	938.473	716.046
180.140	15.574	938.099	716.436
181.154	15.570	937.685	716.037
182.169	15.526	937.596	715.720
183.183	15.544	936.917	715.213
184.198	15.563	936.105	714.614
185.213	15.661	935.410	714.433
186.227	15.670	934.480	713.701
187.242	15.784	933.650	713.487
188.256	15.817	933.382	713.358
189.271	15.730	932.523	712.269
190.286	15.571	931.470	710.728
191.300	15.345	930.985	709.342
192.315	15.160	930.469	708.105
193.329	15.380	929.756	708.427
194.344	15.350	929.578	708.101
195.359	15.437	929.067	708.016
196.373	15.666	928.126	708.203
197.388	15.747	927.725	708.173
198.402	15.883	927.289	708.350
199.417	15.856	927.086	708.020
200.432	15.983	925.920	707.600
201.446	15.973	925.534	707.202
202.461	16.039	924.768	706.830
203.475	16.035	924.359	706.440
204.490	15.975	923.539	705.498
205.504	15.878	922.445	704.192
206.519	15.833	921.610	703.306
207.534	15.738	921.614	702.849
208.548	15.731	920.690	702.053
209.563	15.835	920.148	702.013
210.577	15.885	919.263	701.482
211.592	16.058	918.981	701.924
212.607	16.120	917.792	701.215
213.621	16.063	917.103	700.390
214.636	15.951	916.606	699.483
215.650	16.139	915.746	699.544
216.665	16.167	915.219	699.194
217.680	16.152	914.409	698.453
218.694	16.092	913.539	697.476
219.709	16.198	913.198	697.594
220.723	16.186	912.250	696.761
221.738	16.148	911.488	695.957
222.753	16.191	911.142	695.812
223.767	16.187	910.200	695.015
224.782	16.226	910.309	695.196
225.796	16.235	909.770	694.760
226.811	16.235	909.057	694.151
227.826	16.205	908.159	693.281
228.840	16.165	907.413	692.487
229.855	16.111	906.445	691.468
230.869	16.084	905.669	690.703
231.884	16.087	904.873	690.045
232.899	16.011	904.558	689.434
233.913	16.146	903.399	689.040
234.928	16.218	902.877	688.877
235.942	16.113	902.657	688.217
236.957	16.142	901.741	687.578
237.972	16.178	901.286	687.317
238.986	16.148	900.384	686.444
240.001	16.155	900.046	686.156
241.015	16.206	899.327	685.756
242.030	16.293	899.038	685.826
243.045	16.325	898.341	685.364
244.059	16.259	897.551	684.434
245.074	16.203	897.232	683.904
246.088	16.391	896.487	684.036
247.103	16.338	895.992	683.384
248.117	16.530	895.566	683.774
249.132	16.658	894.793	683.642
250.147	16.806	894.292	683.792
251.161	16.682	893.778	682.842
252.176	16.779	893.106	682.659
253.190	16.769	892.195	681.858
254.205	16.856	891.681	681.759
255.220	16.874	891.176	681.382
256.234	16.891	890.406	680.803
257.249	16.896	889.664	680.195
258.263	16.843	889.019	679.428
259.278	16.886	888.334	679.019
260.293	16.897	887.741	678.547
261.307	16.986	887.497	678.660
262.322	16.906	886.667	677.643
263.336	16.959	885.828	677.154
264.351	17.070	885.004	676.909
265.366	17.059	884.437	676.369
266.380	17.007	884.013	675.780
267.395	17.052	883.020	675.139
268.409	17.033	882.447	674.566
269.424	16.824	881.818	673.195
270.439	17.012	881.244	673.444
271.453	16.809	880.351	671.896
272.468	16.875	879.794	671.672
273.482	17.008	879.178	671.669
274.497	16.862	878.749	670.707
275.512	16.906	877.978	670.232
276.526	17.092	877.382	670.453
277.541	17.117	876.931	670.144
278.555	17.035	876.751	669.627
279.570	17.136	876.074	669.447
280.585	17.217	874.807	668.737
281.599	17.138	873.957	667.719
282.614	17.082	873.187	666.852
283.628	17.018	872.658	666.139
284.643	17.149	872.084	666.155
285.657	17.089	871.506	665.417
286.672	17.234	870.971	665.521
287.687	17.132	870.467	664.675
288.701	17.205	869.952	664.511
289.716	17.227	869.479	664.175
290.730	17.142	868.917	663.355
291.745	17.313	867.964	663.236
292.760	17.300	867.598	662.846
293.774	17.341	866.772	662.319
294.789	17.343	866.109	661.759
295.803	17.214	865.647	660.846
296.818	17.197	864.739	660.030
297.833	17.233	864.126	659.644
298.847	17.274	863.672	659.397
299.862	17.417	862.935	659.330
300.876	17.479	862.554	659.220
301.891	17.355	862.393	658.559
302.906	17.596	861.452	658.713
303.920	17.578	861.033	658.267
304.935	17.699	860.371	658.168
305.949	17.593	859.626	657.133
306.964	17.553	859.017	656.456
307.979	17.460	858.665	655.770
308.993	17.512	858.504	655.786
310.008	17.684	857.560	655.669
311.022	17.578	856.917	654.715
312.037	17.401	856.358	653.547
313.052	17.408	855.659	652.985
314.066	17.387	855.098	652.417
315.081	17.405	854.440	651.925
316.095	17.453	853.680	651.472
317.110	17.329	853.512	650.813
318.125	17.310	853.208	650.448
319.139	17.501	852.411	650.513
320.154	17.493	852.219	650.282
321.168	17.578	851.530	650.020
322.183	17.553	850.815	649.324
323.197	17.814	849.940	649.594
324.212	17.683	850.031	649.106
325.227	17.604	849.098	648.035
326.241	17.705	848.398	647.825
327.256	17.479	848.198	646.758
328.270	17.496	847.405	646.161
329.285	17.566	846.986	646.048
330.300	17.628	846.429	645.803
331.314	17.512	845.578	644.656
332.329	17.684	845.521	645.209
333.343	17.697	845.290	645.022
334.358	17.691	844.741	644.524
335.373	17.659	844.364	644.061
336.387	17.681	844.372	644.092
337.402	17.778	843.694	643.885
338.416	17.859	843.529	644.005
339.431	18.038	843.036	644.247
340.446	18.008	842.382	643.578
341.460	17.996	842.204	643.339
342.475	18.086	841.501	643.085
343.489	18.135	841.230	643.003
344.504	18.219	840.420	642.643
345.519	18.191	840.439	642.497
346.533	18.183	839.644	641.803
347.548	17.970	839.511	640.844
348.562	17.938	838.792	640.119
349.577	18.035	837.528	639.462
350.592	17.925	837.606	639.050
351.606	17.925	836.774	638.360
352.621	17.975	836.043	637.933
353.635	18.025	835.293	637.493
354.650	17.958	834.847	636.842
355.665	18.052	834.048	636.529
356.679	18.068	833.507	636.120
357.694	18.050	832.947	635.568
358.708	18.298	831.911	635.644
359.723	18.142	831.501	634.693
360.738	18.200	830.974	634.451
361.752	18.287	830.559	634.399
362.767	18.453	829.968	634.507
363.781	18.337	829.745	633.850
364.796	18.547	828.852	633.889
365.810	18.557	828.627	633.698
366.825	18.446	828.599	633.210
367.840	18.522	827.837	632.854
368.854	18.461	827.279	632.145
369.869	18.329	827.085	631.456
370.883	18.577	826.569	631.920
371.898	18.572	826.433	631.741
372.913	18.553	825.798	631.128
373.927	18.561	825.515	630.887
374.942	18.539	824.949	630.316
375.956	18.612	824.147	629.918
376.971	18.733	823.589	629.879
377.986	18.618	823.484	629.320
379.000	18.672	823.196	629.243
380.015	18.820	822.254	629.009
381.029	18.695	821.686	628.060
382.044	18.627	821.716	627.781
383.059	18.769	820.357	627.206
384.073	18.752	820.074	626.871
385.088	18.681	819.729	626.292
386.102	18.521	819.145	625.206
387.117	18.743	818.020	625.101
388.132	18.614	817.477	624.163
389.146	18.554	817.163	623.651
390.161	18.634	817.196	623.909
391.175	18.674	816.697	623.618
392.190	18.715	816.032	623.206
393.205	18.639	815.399	622.392
394.219	18.604	815.278	622.118
395.234	18.686	814.372	621.667
396.248	18.620	814.131	621.189
397.263	18.495	813.797	620.428
398.278	18.585	813.334	620.344
399.292	18.496	812.995	619.708
400.307	18.480	812.386	619.132
401.321	18.596	811.761	619.019
402.336	18.576	811.693	618.842
403.350	18.690	810.865	618.567
404.365	18.753	811.013	618.850
405.380	18.848	810.180	618.504
406.394	18.969	809.325	618.232
407.409	19.110	809.224	618.603
408.423	19.107	809.023	618.388
409.438	19.126	808.373	617.904
410.453	19.302	807.644	617.923
411.467	19.283	807.588	617.755
412.482	19.111	807.252	616.828
413.496	19.294	807.074	617.295
414.511	19.221	806.837	616.794
415.526	19.140	806.176	615.946
416.540	19.161	805.584	615.515
417.555	19.304	805.116	615.613
418.569	19.129	804.956	614.811
419.584	19.217	804.296	614.567
420.599	19.333	803.535	614.346
421.613	154.058	1368.508	1786.397
422.628	133.650	1450.844	1786.514
