DTS Sentinel unit serial number:	SN413079Multiplexer serial number:	ORYXHardware model number:	OX4-SRSoftware version number:	ORYX F/W v4.00 Oryx Data Collector v3.7.2.0data status	okinstallation	princeton_trtdifferential loss correction	single-endedforward channel	channel 1reverse channel	N/Adate	2019/09/16time	03:34:35forward acquisition time	60.00reverse acquisition time	0.00gamma	496.2192k internal	0.2331k external	0.2331temperature offset calibration	0.9981default loss term (dB/km)	0.3790temperature slope calibration	1.0000multiplexer offset coefficient	1.0000multiplexer slope coefficient	1.0000fibre end	0.00T internal ref (°C)	27.62T ext. ref 1 (°C)	10.59T ext. ref 2 (°C)	21.69length (m)	temperature (°C)	Stokes	anti-Stokes-747.200	-200.000	0.004	0.316
-746.185	-130.156	-0.391	0.054
-745.171	-200.000	0.002	-0.084
-744.156	-113.712	0.025	-0.005
-743.142	-200.000	-0.011	-0.226
-742.127	7.254	-0.267	0.201
-741.112	-162.744	0.220	-0.011
-740.098	-146.737	0.298	0.026
-739.083	707.837	-0.031	0.082
-738.069	570.353	0.125	0.306
-737.054	-200.000	-0.033	0.192
-736.039	250.506	0.034	0.059
-735.025	77.746	-0.095	-0.102
-734.010	65.040	0.088	0.089
-732.996	-9.690	-0.291	-0.195
-731.981	110.905	0.019	-0.023
-730.966	-71.943	-0.242	-0.091
-729.952	139.678	-0.232	-0.308
-728.937	800.000	0.075	-0.282
-727.923	-83.453	0.343	-0.111
-726.908	-200.000	0.050	-0.561
-725.894	336.553	-0.019	-0.036
-724.879	-61.173	-0.157	0.066
-723.864	800.000	0.049	0.154
-722.850	17.400	0.082	-0.065
-721.835	800.000	-0.086	-0.285
-720.821	-48.752	-0.076	-0.037
-719.806	462.129	-0.059	0.133
-718.791	-57.132	0.034	-0.015
-717.777	800.000	0.040	0.140
-716.762	300.243	-0.131	0.244
-715.748	22.513	0.137	0.112
-714.733	-137.220	-0.227	0.026
-713.718	-200.000	-0.009	-0.064
-712.704	-100.828	-0.187	-0.046
-711.689	-20.003	-0.223	0.138
-710.675	-0.351	-0.116	-0.083
-709.660	-15.577	-0.090	-0.058
-708.645	-81.323	-0.063	0.021
-707.631	10.965	0.285	-0.219
-706.616	213.884	0.064	-0.101
-705.602	-117.114	-0.091	0.017
-704.587	244.567	-0.184	0.312
-703.572	58.298	-0.159	0.157
-702.558	-150.486	0.151	-0.012
-701.543	800.000	-0.087	0.268
-700.529	94.867	0.176	0.201
-699.514	114.028	-0.152	0.186
-698.499	-115.685	0.277	-0.052
-697.485	160.044	0.107	0.149
-696.470	348.189	0.169	-0.335
-695.456	-200.000	0.029	-0.260
-694.441	311.681	0.159	-0.300
-693.426	800.000	-0.049	-0.138
-692.412	59.013	0.111	-0.110
-691.397	-168.530	0.234	-0.009
-690.383	-63.596	-0.071	0.029
-689.368	-61.909	-0.160	-0.067
-688.354	173.343	-0.152	0.221
-687.339	85.766	0.084	0.092
-686.324	-88.310	-0.216	0.065
-685.310	-46.756	-0.134	0.066
-684.295	174.250	-0.023	0.033
-683.281	160.109	0.301	0.421
-682.266	-200.000	0.007	-0.228
-681.251	31.567	0.151	-0.131
-680.237	-61.594	-0.183	0.077
-679.222	-135.282	0.126	0.015
-678.208	-200.000	-0.015	0.167
-677.193	-153.030	0.200	0.014
-676.178	800.000	0.050	-0.156
-675.164	-94.464	-0.361	0.099
-674.149	-26.470	0.410	-0.241
-673.135	-200.000	-0.014	-0.185
-672.120	800.000	0.015	0.066
-671.105	165.402	0.150	-0.212
-670.091	-200.000	-0.067	0.312
-669.076	-142.833	0.063	0.006
-668.062	-70.458	-0.014	0.005
-667.047	-95.477	0.048	0.013
-666.032	26.528	-0.062	0.052
-665.018	-85.993	-0.277	-0.086
-664.003	-200.000	0.012	0.248
-662.989	-34.872	0.205	0.112
-661.974	800.000	0.073	-0.265
-660.959	-134.664	-0.521	-0.064
-659.945	-65.492	-0.221	-0.089
-658.930	-118.462	0.092	-0.016
-657.916	617.962	0.121	0.304
-656.901	312.859	0.040	0.075
-655.886	479.794	0.155	0.353
-654.872	-47.445	-0.195	0.095
-653.857	764.816	0.014	-0.037
-652.843	-126.328	0.103	-0.015
-651.828	-200.000	0.012	-0.087
-650.814	502.019	-0.041	-0.096
-649.799	-89.826	-0.218	0.064
-648.784	-55.789	-0.258	0.116
-647.770	664.220	-0.095	-0.247
-646.755	637.384	-0.206	-0.524
-645.741	187.591	-0.064	0.096
-644.726	96.570	0.078	-0.090
-643.711	800.000	-0.039	-0.117
-642.697	800.000	-0.090	0.275
-641.682	-88.689	-0.258	-0.077
-640.668	57.421	0.136	-0.133
-639.653	105.080	0.050	-0.059
-638.638	-181.239	-0.317	0.006
-637.624	-102.188	0.111	0.027
-636.609	9.724	-0.154	-0.117
-635.595	733.457	0.116	0.310
-634.580	-200.000	-0.086	-0.387
-633.565	-200.000	-0.002	-0.150
-632.551	-7.765	-0.203	0.137
-631.536	-62.200	0.349	0.146
-630.522	-180.345	0.096	0.002
-629.507	134.532	0.081	0.105
-628.492	249.307	-0.061	0.104
-627.478	-108.090	-0.070	-0.015
-626.463	-200.000	-0.025	0.387
-625.449	408.073	-0.196	0.415
-624.434	8.472	0.215	0.162
-623.419	-200.000	0.058	-0.299
-622.405	-3.120	-0.140	0.098
-621.390	-80.375	0.261	0.087
-620.376	11.905	-0.215	-0.166
-619.361	147.554	-0.031	0.041
-618.346	-180.462	-0.261	0.005
-617.332	-42.874	-0.242	-0.123
-616.317	147.687	0.068	-0.092
-615.303	800.000	0.096	0.375
-614.288	-110.404	0.096	-0.020
-613.273	-118.136	0.080	0.014
-612.259	-200.000	0.006	0.067
-611.244	-168.015	-0.329	0.013
-610.230	800.000	-0.039	-0.161
-609.215	273.615	0.082	0.146
-608.201	-29.498	-0.009	0.005
-607.186	-72.707	0.319	0.118
-606.171	166.668	-0.065	0.093
-605.157	800.000	-0.100	-0.437
-604.142	800.000	0.039	0.150
-603.128	266.011	0.095	-0.166
-602.113	21.670	0.146	0.119
-601.098	75.380	0.026	0.027
-600.084	-105.362	0.512	0.117
-599.069	-74.520	-0.121	-0.044
-598.055	-25.934	0.264	0.155
-597.040	-58.133	-0.100	0.044
-596.025	-200.000	0.011	-0.111
-595.011	800.000	-0.044	-0.142
-593.996	47.130	0.229	-0.214
-592.982	-2.527	-0.216	-0.151
-591.967	-172.005	0.560	0.018
-590.952	322.200	-0.105	0.199
-589.938	-86.606	0.054	0.017
-588.923	800.000	0.017	-0.065
-587.909	191.745	-0.331	-0.499
-586.894	-200.000	0.023	-0.125
-585.879	-200.000	0.005	0.088
-584.865	-114.821	-0.303	0.058
-583.850	-9.552	-0.336	0.224
-582.836	111.324	-0.099	0.119
-581.821	-102.736	-0.187	-0.045
-580.806	800.000	0.073	0.260
-579.792	-39.187	-0.151	-0.079
-578.777	594.974	-0.109	0.269
-577.763	603.789	0.126	0.315
-576.748	-200.000	0.013	0.109
-575.733	-93.126	-0.083	0.023
-574.719	108.484	-0.119	0.143
-573.704	-20.819	0.234	0.143
-572.690	64.659	0.174	0.175
-571.675	666.351	-0.082	0.212
-570.661	-68.392	0.044	-0.017
-569.646	-15.937	0.114	-0.073
-568.631	-105.744	0.282	-0.064
-567.617	170.340	0.100	-0.143
-566.602	-32.238	-0.035	0.020
-565.588	-8.549	-0.169	-0.114
-564.573	-200.000	-0.039	0.184
-563.558	-200.000	-0.032	-0.235
-562.544	466.656	-0.194	-0.434
-561.529	-114.520	-0.331	-0.063
-560.515	-200.000	-0.011	-0.154
-559.500	-43.515	0.381	0.192
-558.485	419.281	-0.084	-0.180
-557.471	10.002	0.053	-0.040
-556.456	-9.792	-0.080	0.053
-555.442	-150.858	0.183	0.014
-554.427	-200.000	0.036	-0.198
-553.412	53.759	-0.076	0.073
-552.398	10.596	-0.137	-0.105
-551.383	-78.519	0.176	0.060
-550.369	55.258	-0.200	-0.193
-549.354	-200.000	-0.028	0.427
-548.339	-84.923	0.256	0.080
-547.325	-10.831	-0.255	0.168
-546.310	-99.316	-0.232	0.058
-545.296	-171.678	0.205	-0.007
-544.281	-79.303	-0.006	0.002
-543.266	-200.000	0.027	-0.153
-542.252	17.843	-0.260	0.207
-541.237	-9.143	-0.124	-0.083
-540.223	-11.425	0.302	-0.198
-539.208	58.732	0.259	-0.254
-538.193	-85.718	-0.184	-0.057
-537.179	-200.000	-0.002	0.125
-536.164	-131.828	0.250	0.033
-535.150	-147.092	-0.232	0.020
-534.135	-2.095	0.062	-0.044
-533.121	-72.175	0.161	0.060
-532.106	30.096	-0.146	0.124
-531.091	0.597	0.178	0.127
-530.077	15.846	0.172	0.135
-529.062	800.000	-0.119	0.333
-528.048	-200.000	-0.006	-0.109
-527.033	55.793	-0.204	0.197
-526.018	-200.000	0.056	0.244
-525.004	-127.519	-0.128	0.018
-523.989	470.814	-0.087	-0.195
-522.975	-200.000	-0.034	-0.194
-521.960	105.152	0.174	-0.205
-520.945	-105.067	-0.143	0.033
-519.931	200.695	0.151	0.232
-518.916	-200.000	0.021	0.317
-517.902	-72.163	-0.159	-0.059
-516.887	-121.599	0.071	-0.012
-515.872	-20.492	-0.045	-0.027
-514.858	-75.629	-0.068	0.024
-513.843	-12.368	0.039	0.025
-512.829	-200.000	-0.011	-0.356
-511.814	53.280	-0.281	-0.268
-510.799	640.267	0.172	-0.437
-509.785	68.633	-0.046	-0.047
-508.770	203.288	-0.118	0.182
-507.756	-49.353	-0.439	-0.209
-506.741	-117.830	0.343	-0.061
-505.726	-185.905	-0.242	-0.004
-504.712	-33.599	0.141	-0.078
-503.697	-161.083	0.237	-0.012
-502.683	-59.170	0.236	-0.102
-501.668	-150.381	0.242	-0.019
-500.653	629.259	-0.190	-0.479
-499.639	-156.270	-0.162	-0.010
-498.624	-70.992	-0.149	-0.056
-497.610	-200.000	0.004	-0.042
-496.595	800.000	-0.084	-0.233
-495.581	-84.166	0.097	0.031
-494.566	273.541	0.158	-0.279
-493.551	321.501	0.085	-0.162
-492.537	127.450	0.087	-0.110
-491.522	-200.000	-0.016	0.093
-490.508	34.190	-0.180	-0.156
-489.493	-25.575	-0.174	-0.102
-488.478	-64.303	-0.420	-0.171
-487.464	-111.229	0.291	0.059
-486.449	-19.271	0.164	-0.101
-485.435	36.272	-0.213	-0.187
-484.420	76.871	-0.201	0.213
-483.405	10.083	0.174	-0.132
-482.391	-200.000	0.008	0.272
-481.376	-94.562	-0.277	0.075
-480.362	175.213	-0.198	0.286
-479.347	-200.000	0.000	-0.030
-478.332	35.751	-0.133	0.117
-477.318	401.392	0.169	-0.353
-476.303	-158.262	0.295	-0.017
-475.289	-15.054	0.509	-0.325
-474.274	13.219	0.222	0.171
-473.259	-177.052	0.090	-0.002
-472.245	508.348	0.109	-0.253
-471.230	-51.375	0.114	-0.053
-470.216	386.165	-0.150	-0.308
-469.201	-22.337	0.279	-0.169
-468.186	-200.000	-0.018	0.311
-467.172	800.000	0.037	-0.120
-466.157	49.444	0.182	-0.170
-465.143	-8.416	-0.103	0.069
-464.128	-122.416	-0.121	-0.020
-463.113	107.000	0.268	0.317
-462.099	-56.244	0.176	-0.078
-461.084	-200.000	-0.063	-0.308
-460.070	23.886	-0.293	0.241
-459.055	-35.667	-0.223	-0.120
-458.040	-120.619	-0.275	-0.046
-457.026	-200.000	-0.028	-0.131
-456.011	-96.241	0.118	0.031
-454.997	800.000	0.046	-0.152
-453.982	55.625	-0.044	0.043
-452.968	618.729	0.020	-0.049
-451.953	162.440	-0.147	-0.205
-450.938	-200.000	-0.003	0.057
-449.924	-200.000	0.027	0.218
-448.909	800.000	-0.026	0.104
-447.895	533.990	-0.020	0.048
-446.880	113.356	-0.182	-0.220
-445.865	-167.419	0.244	-0.010
-444.851	-138.910	-0.391	0.042
-443.836	236.028	-0.121	-0.199
-442.822	-130.130	-0.041	0.006
-441.807	-134.085	-0.211	0.026
-440.792	427.017	0.097	-0.208
-439.778	231.889	-0.068	0.112
-438.763	81.154	-0.223	-0.239
-437.749	-55.003	0.193	-0.086
-436.734	-106.666	0.090	0.020
-435.719	-163.138	0.101	0.005
-434.705	-26.078	-0.215	0.126
-433.690	286.258	0.048	0.086
-432.676	-200.000	0.014	0.082
-431.661	48.909	-0.164	0.153
-430.646	-70.867	-0.212	-0.079
-429.632	259.127	0.155	0.266
-428.617	-38.476	0.110	-0.058
-427.603	6.440	0.270	-0.199
-426.588	-138.721	-0.235	0.026
-425.573	-117.337	0.375	-0.068
-424.559	437.054	0.225	0.488
-423.544	313.961	0.108	0.202
-422.530	704.881	-0.160	0.419
-421.515	-200.000	-0.074	0.417
-420.500	-42.232	0.249	-0.126
-419.486	267.890	-0.047	-0.082
-418.471	130.091	-0.279	-0.355
-417.457	110.029	-0.064	0.077
-416.442	-103.170	0.207	0.049
-415.428	167.170	0.096	0.135
-414.413	-153.539	-0.181	0.012
-413.398	-96.144	0.113	0.030
-412.384	50.226	0.190	-0.179
-411.369	800.000	0.017	-0.050
-410.355	-50.720	0.221	0.103
-409.340	800.000	-0.145	-0.408
-408.325	195.298	0.188	-0.284
-407.311	-45.794	0.160	0.078
-406.296	232.985	-0.184	0.301
-405.282	-200.000	-0.020	-0.130
-404.267	-200.000	0.031	-0.259
-403.252	372.171	0.121	0.243
-402.238	140.641	-0.060	0.079
-401.223	531.102	-0.159	0.374
-400.209	196.704	0.067	-0.101
-399.194	-89.475	0.101	0.029
-398.179	-200.000	0.281	-0.001
-397.165	-101.110	-0.125	-0.031
-396.150	-200.000	-0.016	0.090
-395.136	70.079	0.070	0.071
-394.121	724.609	-0.122	-0.323
-393.106	800.000	0.135	0.373
-392.092	80.353	-0.022	-0.024
-391.077	195.246	-0.172	0.259
-390.063	196.708	0.220	-0.333
-389.048	-160.238	0.402	0.022
-388.033	264.600	-0.103	-0.178
-387.019	126.546	-0.106	-0.133
-386.004	-151.276	-0.424	0.031
-384.990	193.073	-0.172	0.258
-383.975	428.393	-0.131	0.281
-382.960	119.156	-0.084	-0.103
-381.946	37.366	-0.138	0.122
-380.931	-132.775	0.223	-0.028
-379.917	-200.000	0.004	0.317
-378.902	800.000	0.029	0.104
-377.888	800.000	0.004	0.011
-376.873	543.804	-0.103	0.244
-375.858	47.970	-0.092	0.085
-374.844	-200.000	0.001	-0.295
-373.829	473.833	-0.128	-0.286
-372.815	-61.722	0.203	0.084
-371.800	167.877	-0.025	-0.036
-370.785	20.470	0.182	0.146
-369.771	-133.628	0.054	-0.007
-368.756	-112.907	-0.207	0.041
-367.742	9.758	0.327	0.246
-366.727	-167.582	0.149	-0.006
-365.712	-27.246	0.286	-0.165
-364.698	-76.066	-0.271	-0.095
-363.683	-179.911	-0.328	0.007
-362.669	-92.867	0.194	-0.054
-361.654	189.923	0.182	0.271
-360.639	-30.280	0.221	-0.125
-359.625	-200.000	0.044	0.232
-358.610	-152.510	-0.300	-0.021
-357.596	800.000	0.046	0.130
-356.581	-96.959	-0.372	-0.097
-355.566	-89.105	-0.067	0.020
-354.552	87.949	0.118	0.129
-353.537	-9.244	0.286	-0.189
-352.523	118.353	-0.128	-0.157
-351.508	-55.715	-0.156	0.069
-350.493	-200.000	-0.007	0.034
-349.479	-20.504	0.532	0.324
-348.464	294.366	-0.113	0.205
-347.450	-200.000	-0.027	-0.157
-346.435	-123.968	0.277	-0.043
-345.420	-81.677	0.187	-0.061
-344.406	228.659	-0.129	-0.209
-343.391	-10.474	-0.381	-0.250
-342.377	255.498	0.238	-0.404
-341.362	47.120	0.096	0.088
-340.348	-114.836	0.141	0.027
-339.333	4.914	0.158	-0.115
-338.318	102.751	0.180	-0.209
-337.304	-46.222	0.179	0.087
-336.289	-200.000	0.025	-0.227
-335.275	169.069	0.192	-0.272
-334.260	249.525	-0.044	-0.075
-333.245	153.744	0.122	0.166
-332.231	-37.831	0.219	-0.116
-331.216	-200.000	-0.042	0.213
-330.202	107.471	-0.117	-0.138
-329.187	215.388	-0.209	-0.329
-328.172	-67.603	-0.118	0.046
-327.158	455.406	0.067	0.148
-326.143	800.000	0.054	-0.167
-325.129	411.515	0.040	0.085
-324.114	20.206	-0.346	-0.276
-323.099	-79.601	0.289	0.097
-322.085	88.504	-0.134	0.147
-321.070	-200.000	0.005	-0.210
-320.056	-102.808	-0.315	0.074
-319.041	404.627	-0.092	-0.192
-318.026	24.699	-0.060	-0.049
-317.012	16.624	0.094	0.073
-315.997	596.891	0.066	0.163
-314.983	800.000	0.080	0.314
-313.968	800.000	0.056	-0.224
-312.953	169.940	-0.080	0.114
-311.939	-34.911	-0.142	-0.077
-310.924	-200.000	-0.015	-0.129
-309.910	334.009	0.068	-0.130
-308.895	60.005	0.159	-0.156
-307.880	-48.101	0.154	-0.074
-306.866	-109.435	0.095	-0.020
-305.851	-40.182	0.123	-0.064
-304.837	-143.697	-0.239	0.022
-303.822	-163.688	-0.081	-0.004
-302.807	-182.151	0.241	-0.004
-301.793	-200.000	0.013	0.091
-300.778	91.662	0.168	-0.187
-299.764	88.330	0.021	-0.023
-298.749	661.883	-0.021	-0.053
-297.735	-92.642	-0.118	-0.033
-296.720	305.581	-0.036	-0.067
-295.705	-138.615	-0.184	-0.020
-294.691	-200.000	0.023	-0.126
-293.676	71.616	0.069	0.071
-292.662	-48.331	-0.218	-0.104
-291.647	-22.659	0.173	-0.103
-290.632	800.000	0.077	-0.224
-289.618	168.668	0.044	0.063
-288.603	-200.000	-0.070	0.410
-287.589	-182.577	0.349	-0.006
-286.574	124.110	0.115	0.143
-285.559	436.877	0.082	0.177
-284.545	-145.867	0.041	-0.004
-283.530	800.000	0.011	-0.036
-282.516	-59.024	0.354	0.151
-281.501	-200.000	0.007	-0.073
-280.486	623.402	-0.209	0.521
-279.472	-197.400	0.181	-0.001
-278.457	161.980	0.116	-0.161
-277.443	-5.672	0.208	-0.141
-276.428	15.423	-0.285	-0.221
-275.413	40.514	-0.033	0.030
-274.399	51.455	0.065	-0.061
-273.384	413.441	-0.140	-0.295
-272.370	431.946	0.072	-0.155
-271.355	710.434	-0.066	0.173
-270.340	-200.000	-0.019	-0.198
-269.326	-13.787	0.183	0.117
-268.311	60.321	-0.183	-0.179
-267.297	6.017	-0.114	0.083
-266.282	33.554	0.008	0.007
-265.267	-200.000	0.063	0.299
-264.253	-200.000	-0.043	0.384
-263.238	-200.000	-0.023	-0.164
-262.224	800.000	0.091	0.335
-261.209	-36.887	-0.221	0.117
-260.195	-59.440	-0.020	0.008
-259.180	-74.452	0.144	0.051
-258.165	-200.000	-0.054	0.490
-257.151	-61.487	0.299	-0.124
-256.136	11.986	0.090	-0.068
-255.122	107.109	-0.046	0.053
-254.107	62.709	0.132	0.130
-253.092	-125.698	0.088	0.013
-252.078	-20.064	0.314	0.191
-251.063	800.000	-0.064	-0.196
-250.049	-200.000	-0.035	-0.260
-249.034	-200.000	-0.021	-0.112
-248.019	-23.291	0.156	-0.093
-247.005	-90.732	-0.242	-0.069
-245.990	195.421	-0.163	0.244
-244.976	-33.639	0.135	-0.073
-243.961	-15.323	0.154	-0.097
-242.946	-200.000	0.013	-0.180
-241.932	-200.000	0.019	-0.104
-240.917	-71.647	-0.151	0.056
-239.903	15.385	-0.054	0.042
-238.888	800.000	-0.126	-0.408
-237.873	-20.715	-0.165	-0.100
-236.859	459.742	-0.091	-0.199
-235.844	-112.445	-0.221	-0.044
-234.830	242.377	0.008	0.013
-233.815	298.051	-0.045	-0.082
-232.800	-91.125	0.240	0.068
-231.786	132.670	-0.237	0.301
-230.771	28.232	-0.219	0.183
-229.757	766.080	-0.074	-0.199
-228.742	-200.000	0.014	-0.184
-227.727	800.000	-0.086	0.245
-226.713	368.018	0.090	0.180
-225.698	-200.000	0.113	0.000
-224.684	-200.000	0.020	-0.262
-223.669	-20.052	0.178	0.108
-222.655	-0.749	0.205	0.143
-221.640	-200.000	0.005	-0.164
-220.625	414.543	0.157	-0.331
-219.611	56.340	0.149	-0.143
-218.596	737.379	-0.049	0.129
-217.582	98.313	0.193	0.219
-216.567	142.587	-0.184	0.241
-215.552	177.131	-0.142	0.204
-214.538	-200.000	0.001	0.006
-213.523	209.058	0.092	-0.142
-212.509	-200.000	-0.023	-0.146
-211.494	-159.882	-0.154	-0.008
-210.479	-3.445	0.104	0.071
-209.465	-72.591	0.200	-0.073
-208.450	180.292	0.111	0.161
-207.436	5.997	-0.186	0.136
-206.421	300.806	-0.131	0.239
-205.406	290.277	0.206	0.370
-204.392	101.163	-0.062	-0.071
-203.377	667.805	0.112	-0.286
-202.363	-78.583	-0.594	0.200
-201.348	-4.922	0.135	0.092
-200.333	-200.000	-0.053	-0.302
-199.319	-200.000	-0.024	0.246
-198.304	-75.192	-0.125	0.044
-197.290	-29.682	-0.133	-0.075
-196.275	-22.605	0.103	0.062
-195.260	260.425	-0.061	-0.104
-194.246	-138.438	-0.298	-0.032
-193.231	480.281	-0.134	0.299
-192.217	-87.699	0.236	0.070
-191.202	137.857	-0.187	0.241
-190.187	86.504	0.110	-0.119
-189.173	-94.127	0.298	0.081
-188.158	-200.000	-0.110	0.520
-187.144	295.571	-0.139	-0.250
-186.129	-109.519	-0.064	0.013
-185.114	-180.063	0.136	-0.003
-184.100	800.000	-0.031	0.116
-183.085	-108.663	0.271	-0.057
-182.071	81.545	-0.270	0.288
-181.056	-72.328	-0.303	-0.111
-180.042	-200.000	-0.002	0.028
-179.027	-17.101	0.325	-0.202
-178.012	-200.000	0.020	-0.216
-176.998	-159.486	0.157	-0.009
-175.983	-20.292	-0.184	0.111
-174.969	627.715	-0.122	-0.303
-173.954	36.155	0.129	-0.112
-172.939	-200.000	0.039	0.389
-171.925	-79.572	0.145	-0.048
-170.910	-103.397	-0.236	-0.055
-169.896	348.956	-0.118	0.229
-168.881	247.812	-0.048	0.080
-167.866	222.044	-0.053	0.084
-166.852	2.197	-0.101	0.072
-165.837	174.436	-0.186	-0.265
-164.823	-43.461	-0.015	-0.008
-163.808	-89.359	-0.151	0.044
-162.793	-141.755	-0.251	0.025
-161.779	-49.615	0.114	0.053
-160.764	-200.000	0.112	0.507
-159.750	77.661	0.273	0.286
-158.735	229.456	-0.183	0.293
-157.720	84.396	0.099	0.107
-156.706	90.216	-0.182	0.201
-155.691	37.654	-0.158	0.138
-154.677	-141.563	0.366	0.036
-153.662	-157.471	0.205	0.012
-152.647	28.066	-0.451	-0.374
-151.633	800.000	0.078	-0.330
-150.618	135.510	-0.099	-0.127
-149.604	-200.000	-0.029	0.132
-148.589	-83.082	0.159	-0.050
-147.574	-200.000	0.001	0.086
-146.560	800.000	-0.052	-0.214
-145.545	-200.000	0.001	-0.005
-144.531	800.000	-0.126	0.438
-143.516	-200.000	0.029	-0.237
-142.502	-116.524	-0.200	-0.036
-141.487	-200.000	-0.062	0.278
-140.472	-98.609	0.381	0.096
-139.458	-47.403	-0.167	-0.080
-138.443	-122.414	-0.269	-0.043
-137.429	-110.587	0.316	-0.064
-136.414	-200.000	-0.012	0.128
-135.399	356.522	-0.160	0.313
-134.385	-115.426	0.238	-0.044
-133.370	108.139	-0.364	-0.426
-132.356	-27.776	-0.161	-0.092
-131.341	-10.376	0.065	-0.043
-130.326	800.000	0.033	0.098
-129.312	-130.234	0.261	-0.035
-128.297	49.226	-0.235	-0.217
-127.283	-101.892	-0.345	0.082
-126.268	-53.821	0.324	0.145
-125.253	142.793	0.042	-0.055
-124.239	-200.000	-0.044	0.369
-123.224	449.542	0.161	0.350
-122.210	98.403	0.141	0.160
-121.195	413.471	0.141	0.295
-120.180	-70.454	-0.135	0.050
-119.166	26.675	-0.222	0.183
-118.151	-77.770	0.212	-0.072
-117.137	-72.650	-0.114	-0.041
-116.122	-200.000	0.029	-0.176
-115.107	245.708	0.066	0.110
-114.093	495.846	-0.125	-0.282
-113.078	-192.295	-0.344	-0.003
-112.064	318.878	0.028	0.052
-111.049	-200.000	-0.004	-0.112
-110.034	389.970	0.061	0.124
-109.020	-99.732	-0.218	0.054
-108.005	196.488	0.075	0.111
-106.991	-15.590	0.128	-0.080
-105.976	366.484	0.037	-0.074
-104.962	800.000	-0.037	-0.141
-103.947	-38.223	-0.061	0.032
-102.932	79.034	0.240	0.252
-101.918	391.768	-0.035	-0.072
-100.903	-85.163	0.286	0.088
-99.889	8.867	0.025	-0.019
-98.874	800.000	0.095	0.403
-97.859	-200.000	0.045	0.200
-96.845	155.381	0.180	0.243
-95.830	213.313	0.197	-0.306
-94.816	-200.000	0.003	-0.043
-93.801	16.910	-0.092	-0.071
-92.786	-90.193	-0.161	0.046
-91.772	334.326	0.132	0.250
-90.757	-200.000	-0.011	0.079
-89.743	105.084	0.182	0.211
-88.728	128.101	-0.140	0.174
-87.713	-112.846	0.289	-0.056
-86.699	134.265	0.172	0.219
-85.684	-200.000	0.003	-0.097
-84.670	-200.000	0.021	-0.288
-83.655	8.786	0.215	-0.159
-82.640	800.000	-0.088	-0.356
-81.626	800.000	0.046	0.171
-80.611	-109.883	-0.148	-0.031
-79.597	28.489	0.193	0.160
-78.582	16.372	0.159	0.123
-77.567	-116.222	-0.260	-0.047
-76.553	-26.540	0.239	0.138
-75.538	-130.438	0.263	0.035
-74.524	-200.000	-0.018	-0.334
-73.509	591.092	0.103	0.249
-72.494	-91.386	0.212	0.059
-71.480	-90.463	-0.061	-0.017
-70.465	-90.988	-0.205	-0.058
-69.451	800.000	0.022	0.071
-68.436	-200.000	0.015	-0.083
-67.422	708.078	0.089	-0.230
-66.407	94.624	0.079	-0.088
-65.392	-73.266	-0.063	-0.023
-64.378	6.697	0.211	0.154
-63.363	-75.900	0.414	-0.144
-62.349	-200.000	0.049	0.325
-61.334	35.889	-1.053	-0.908
-60.319	-42.109	0.701	0.351
-59.305	-200.000	-0.033	-1.498
-58.290	800.000	0.367	1.256
-57.276	800.000	0.503	1.647
-56.261	-200.000	113.399	645.121
-55.246	470.776	1504.944	3315.832
-54.232	147.734	2668.542	3523.585
-53.217	103.599	2152.151	2475.049
-52.203	38.874	1602.627	1402.392
-51.188	30.871	1349.851	1132.729
-50.173	28.061	1312.086	1084.357
-49.159	55.741	1367.611	1298.283
-48.144	54.304	1382.247	1303.466
-47.130	31.344	1337.849	1125.324
-46.115	27.781	1320.456	1089.428
-45.100	27.494	1315.597	1083.671
-44.086	27.579	1313.136	1082.101
-43.071	27.534	1310.645	1079.741
-42.057	27.468	1308.980	1077.938
-41.042	27.537	1307.204	1076.837
-40.027	27.477	1305.724	1075.221
-39.013	27.594	1303.238	1073.823
-37.998	27.524	1301.609	1072.023
-36.984	27.631	1299.764	1071.093
-35.969	27.613	1298.091	1069.567
-34.954	27.588	1296.760	1068.281
-33.940	27.696	1295.327	1067.691
-32.925	27.633	1294.158	1066.316
-31.911	27.608	1293.029	1065.197
-30.896	27.775	1290.817	1064.308
-29.881	27.720	1289.554	1062.901
-28.867	27.746	1288.554	1062.187
-27.852	27.756	1286.601	1060.592
-26.838	27.768	1285.414	1059.640
-25.823	27.758	1284.179	1058.523
-24.809	27.763	1282.644	1057.246
-23.794	27.657	1281.621	1055.746
-22.779	27.757	1280.256	1055.159
-21.765	27.690	1278.775	1053.508
-20.750	27.732	1277.375	1052.559
-19.736	27.569	1276.590	1050.927
-18.721	27.509	1275.575	1049.708
-17.706	27.588	1273.953	1048.785
-16.692	27.504	1273.289	1047.712
-15.677	27.608	1272.068	1047.265
-14.663	27.615	1270.673	1046.114
-13.648	27.539	1269.988	1045.073
-12.633	27.619	1268.415	1044.195
-11.619	27.604	1267.813	1043.572
-10.604	27.539	1266.716	1042.254
-9.590	27.521	1265.858	1041.404
-8.575	27.528	1264.888	1040.608
-7.560	27.567	1263.825	1039.912
-6.546	27.552	1263.392	1039.428
-5.531	27.611	1261.940	1038.530
-4.517	27.548	1261.339	1037.636
-3.502	27.583	1260.911	1037.440
-2.487	27.499	1259.854	1036.052
-1.473	27.538	1255.673	1032.797
-0.458	26.015	1240.195	1011.492
0.556	20.996	1224.007	973.731
1.571	17.414	1229.789	958.113
2.586	16.607	1244.961	965.246
3.600	16.609	1233.779	956.498
4.615	15.150	1167.248	897.032
5.629	12.296	1100.671	831.365
6.644	10.730	1084.313	811.118
7.659	10.569	1082.196	808.663
8.673	10.551	1080.489	807.227
9.688	10.490	1079.361	806.006
10.702	10.651	1077.088	805.039
11.717	12.533	1078.606	815.438
12.731	15.413	1082.771	832.828
13.746	17.459	1084.839	844.506
14.761	17.514	1084.866	844.729
15.775	16.662	1082.590	838.662
16.790	15.594	1080.357	831.571
17.804	14.878	1079.064	826.965
18.819	14.410	1077.826	823.631
19.834	14.231	1076.329	821.528
20.848	13.922	1075.786	819.521
21.863	13.583	1075.193	817.320
22.877	13.503	1074.302	816.176
23.892	13.501	1073.666	815.614
24.907	13.465	1073.016	814.872
25.921	13.581	1071.622	814.308
26.936	13.663	1070.349	813.671
27.950	13.609	1068.922	812.252
28.965	13.770	1066.944	811.463
29.980	13.782	1065.785	810.572
30.994	13.856	1064.937	810.212
32.009	13.789	1063.871	809.003
33.023	13.894	1062.642	808.507
34.038	13.824	1061.983	807.596
35.053	13.695	1060.899	806.074
36.067	13.705	1059.396	804.909
37.082	13.697	1059.138	804.603
38.096	13.649	1058.864	804.091
39.111	13.701	1057.762	803.432
40.126	13.699	1056.206	802.169
41.140	13.530	1054.805	800.221
42.155	13.581	1053.619	799.494
43.169	13.408	1052.733	797.920
44.184	13.436	1051.763	797.247
45.199	13.430	1050.743	796.374
46.213	13.579	1049.312	795.936
47.228	13.477	1048.993	795.134
48.242	13.689	1047.145	794.678
49.257	13.443	1046.764	793.142
50.271	13.571	1045.715	792.889
51.286	13.671	1044.932	792.701
52.301	13.617	1044.003	791.667
53.315	13.700	1042.656	790.976
54.330	13.560	1042.043	789.772
55.344	13.657	1041.031	789.395
56.359	13.625	1040.012	788.400
57.374	13.671	1038.974	787.766
58.388	13.412	1038.704	786.260
59.403	13.457	1037.472	785.469
60.417	13.456	1036.638	784.765
61.432	13.532	1035.398	784.114
62.447	13.375	1035.173	783.135
63.461	13.500	1034.344	783.026
64.476	13.401	1033.127	781.570
65.490	13.361	1032.569	780.889
66.505	13.383	1032.064	780.545
67.520	13.458	1031.456	780.368
68.534	13.355	1030.923	779.412
69.549	13.348	1029.896	778.532
70.563	13.491	1028.938	778.413
71.578	13.332	1027.877	776.794
72.593	13.341	1027.438	776.433
73.607	13.483	1026.378	776.230
74.622	13.369	1025.819	775.206
75.636	13.363	1025.142	774.596
76.651	13.322	1024.645	773.959
77.666	13.319	1024.093	773.462
78.680	13.330	1023.376	772.904
79.695	13.372	1022.811	772.605
80.709	13.475	1022.065	772.453
81.724	13.492	1021.563	772.084
82.739	13.616	1020.438	771.743
83.753	13.648	1020.199	771.644
84.768	13.664	1018.567	770.415
85.782	13.867	1017.668	770.607
86.797	13.729	1017.476	769.753
87.812	13.571	1016.458	768.186
88.826	13.640	1015.292	767.554
89.841	13.804	1014.161	767.389
90.855	13.716	1013.358	766.308
91.870	13.643	1012.862	765.527
92.884	13.866	1011.984	765.823
93.899	13.822	1011.339	765.067
94.914	13.843	1010.519	764.475
95.928	13.822	1009.465	763.514
96.943	13.778	1008.493	762.507
97.957	13.769	1007.760	761.844
98.972	13.909	1006.276	761.299
99.987	13.895	1005.790	760.797
101.001	13.808	1004.884	759.648
102.016	13.734	1004.195	758.721
103.030	13.786	1003.297	758.213
104.045	13.694	1002.641	757.233
105.060	13.700	1001.808	756.561
106.074	13.555	1000.942	755.180
107.089	13.559	999.465	754.019
108.103	13.494	998.482	752.911
109.118	13.598	997.803	752.807
110.133	13.519	996.758	751.594
111.147	13.624	995.992	751.424
112.162	13.548	994.817	750.130
113.176	13.637	994.497	750.223
114.191	13.594	993.800	749.438
115.206	13.707	992.547	748.936
116.220	13.611	991.860	747.918
117.235	13.692	990.711	747.351
118.249	13.604	990.140	746.459
119.264	13.474	989.584	745.389
120.279	13.481	988.625	744.633
121.293	13.585	987.669	744.311
122.308	13.580	986.723	743.510
123.322	13.567	985.770	742.671
124.337	13.560	984.752	741.807
125.352	13.457	983.933	740.660
126.366	13.418	982.808	739.573
127.381	13.483	981.862	739.086
128.395	13.581	980.804	738.662
129.410	13.564	979.712	737.701
130.424	13.661	979.036	737.558
131.439	13.632	978.559	737.003
132.454	13.687	977.366	736.284
133.468	13.708	976.436	735.609
134.483	13.553	976.281	734.742
135.497	13.654	974.906	734.088
136.512	13.750	973.745	733.575
137.527	13.685	973.345	732.921
138.541	13.647	972.439	732.008
139.556	13.613	972.280	731.673
140.570	13.788	971.240	731.594
141.585	13.817	970.599	731.175
142.600	13.719	969.937	730.180
143.614	13.829	968.892	729.815
144.629	14.000	968.067	729.879
145.643	13.850	967.202	728.505
146.658	13.837	965.982	727.465
147.673	13.780	964.935	726.363
148.687	13.683	964.377	725.452
149.702	13.650	963.125	724.301
150.716	13.835	962.227	724.372
151.731	13.728	961.833	723.543
152.746	13.729	961.419	723.171
153.760	13.789	960.568	722.728
154.775	13.869	959.837	722.464
155.789	13.918	959.228	722.153
156.804	13.852	958.536	721.281
157.819	13.911	958.072	721.127
158.833	14.033	957.268	720.988
159.848	14.044	956.338	720.271
160.862	14.039	955.345	719.435
161.877	13.839	954.481	717.858
162.892	13.933	953.335	717.337
163.906	13.882	952.492	716.419
164.921	13.831	951.927	715.711
165.935	13.976	950.999	715.575
166.950	13.934	950.568	715.008
167.964	13.954	949.351	714.112
168.979	13.937	948.383	713.251
169.994	14.022	947.281	712.721
171.008	14.025	946.811	712.319
172.023	13.982	945.939	711.417
173.037	14.066	945.368	711.284
174.052	13.859	944.752	709.871
175.067	13.882	943.965	709.315
176.081	13.918	943.639	709.161
177.096	13.930	942.878	708.576
178.110	14.010	942.109	708.278
179.125	14.017	941.824	708.030
180.140	14.104	941.065	707.769
181.154	14.220	940.433	707.725
182.169	14.103	940.018	706.852
183.183	14.239	939.413	706.911
184.198	14.254	938.417	706.161
185.213	14.319	937.538	705.714
186.227	14.230	937.043	704.904
187.242	14.337	936.355	704.775
188.256	14.413	935.551	704.429
189.271	14.178	934.857	702.853
190.286	14.066	934.627	702.144
191.300	14.086	933.442	701.277
192.315	13.953	933.266	700.518
193.329	13.906	932.986	700.048
194.344	14.163	931.720	700.121
195.359	14.184	930.955	699.570
196.373	14.277	930.530	699.579
197.388	14.196	930.460	699.125
198.402	14.506	929.527	699.664
199.417	14.445	928.925	698.892
200.432	14.439	928.485	698.475
201.446	14.486	928.085	698.310
202.461	14.477	927.457	697.738
203.475	14.584	926.662	697.526
204.490	14.444	925.814	696.239
205.504	14.521	925.258	696.080
206.519	14.385	924.565	694.930
207.534	14.476	923.965	694.797
208.548	14.540	923.284	694.491
209.563	14.288	923.034	693.194
210.577	14.550	921.894	693.365
211.592	14.463	921.691	692.789
212.607	14.616	920.419	692.405
213.621	14.693	919.415	691.910
214.636	14.743	918.432	691.315
215.650	14.709	917.977	690.773
216.665	14.609	917.699	690.088
217.680	14.741	916.928	689.993
218.694	14.721	916.433	689.474
219.709	14.690	915.696	688.730
220.723	14.788	914.712	688.336
221.738	14.788	914.260	687.932
222.753	14.675	913.299	686.685
223.767	14.816	913.124	687.074
224.782	14.820	912.541	686.587
225.796	14.900	911.998	686.448
226.811	14.866	911.556	685.914
227.826	14.869	910.377	684.979
228.840	14.753	909.732	683.960
229.855	14.787	908.703	683.264
230.869	14.788	907.961	682.651
231.884	14.673	907.588	681.839
232.899	14.905	906.589	681.977
233.913	14.846	905.711	681.012
234.928	14.754	905.352	680.307
235.942	14.720	905.196	679.991
236.957	14.902	904.159	679.892
237.972	14.814	903.723	679.149
238.986	14.886	902.894	678.758
240.001	14.892	902.511	678.432
241.015	14.804	901.760	677.454
242.030	14.828	901.157	677.035
243.045	14.858	900.826	676.849
244.059	14.861	900.067	676.233
245.074	14.950	899.270	675.932
246.088	15.011	898.854	675.807
247.103	14.996	898.277	675.253
248.117	15.064	897.976	675.242
249.132	15.222	896.932	675.032
250.147	15.165	896.833	674.670
251.161	15.179	895.810	673.896
252.176	15.223	895.167	673.531
253.190	15.303	894.413	673.224
254.205	15.298	894.000	672.832
255.220	15.334	893.235	672.343
256.234	15.296	892.671	671.705
257.249	15.326	891.905	671.191
258.263	15.207	891.522	670.367
259.278	15.312	890.527	669.979
260.293	15.405	890.046	669.929
261.307	15.423	890.018	669.918
262.322	15.400	888.896	668.922
263.336	15.427	888.309	668.531
264.351	15.520	887.317	668.094
265.366	15.625	886.576	667.897
266.380	15.619	885.883	667.289
267.395	15.536	885.345	666.498
268.409	15.516	884.727	665.894
269.424	15.510	883.933	665.213
270.439	15.452	883.398	664.524
271.453	15.590	882.579	664.391
272.468	15.464	881.974	663.383
273.482	15.536	881.538	663.279
274.497	15.559	880.974	662.886
275.512	15.695	880.173	662.761
276.526	15.560	879.827	661.910
277.541	15.481	879.057	660.963
278.555	15.668	878.858	661.488
279.570	15.770	877.896	661.108
280.585	15.732	877.403	660.526
281.599	15.886	876.268	660.219
282.614	15.754	875.713	659.226
283.628	15.676	874.784	658.162
284.643	15.678	874.787	658.115
285.657	15.686	873.976	657.479
286.672	15.744	873.588	657.353
287.687	15.893	872.569	657.110
288.701	15.689	872.375	656.109
289.716	15.790	871.400	655.713
290.730	15.851	870.882	655.501
291.745	15.789	870.423	654.858
292.760	15.899	869.620	654.622
293.774	15.890	869.310	654.298
294.789	15.935	868.499	653.804
295.803	15.821	867.940	652.881
296.818	15.874	867.052	652.362
297.833	16.005	866.004	652.021
298.847	15.980	865.873	651.768
299.862	15.926	865.500	651.221
300.876	15.909	865.327	650.968
301.891	16.014	864.089	650.385
302.906	16.130	863.609	650.412
303.920	16.023	863.267	649.685
304.935	16.051	862.745	649.344
305.949	16.185	861.927	649.185
306.964	16.096	861.166	648.214
307.979	16.157	860.621	647.979
308.993	16.204	860.118	647.723
310.008	16.218	859.496	647.254
311.022	16.248	859.120	647.028
312.037	16.235	858.367	646.354
313.052	16.198	857.661	645.622
314.066	16.146	857.458	645.213
315.081	16.101	856.552	644.303
316.095	16.046	855.869	643.523
317.110	16.205	855.665	643.919
318.125	16.065	855.614	643.290
319.139	16.120	854.746	642.788
320.154	16.117	854.117	642.249
321.168	16.014	853.944	641.669
322.183	16.172	853.460	641.849
323.197	16.231	852.464	641.266
324.212	16.273	851.659	640.766
325.227	16.149	851.799	640.344
326.241	16.248	851.204	640.213
327.256	16.232	850.390	639.486
328.270	16.128	849.780	638.575
329.285	16.202	849.165	638.339
330.300	16.333	848.348	638.160
331.314	16.294	848.050	637.734
332.329	16.328	847.734	637.567
333.343	16.429	847.001	637.341
334.358	16.379	846.749	636.909
335.373	16.434	846.674	637.002
336.387	16.362	846.359	636.438
337.402	16.531	845.719	636.535
338.416	16.538	845.451	636.305
339.431	16.494	845.247	635.927
340.446	16.697	844.725	636.241
341.460	16.724	843.869	635.644
342.475	16.701	843.788	635.438
343.489	16.734	843.396	635.210
344.504	16.625	842.899	634.372
345.519	16.760	842.426	634.465
346.533	16.772	842.072	634.187
347.548	16.597	841.827	633.291
348.562	16.524	840.799	632.190
349.577	16.608	840.017	631.860
350.592	16.619	839.644	631.564
351.606	16.527	838.907	630.610
352.621	16.737	838.055	630.696
353.635	16.607	837.389	629.658
354.650	16.660	836.857	629.397
355.665	16.790	836.173	629.311
356.679	16.790	835.719	628.913
357.694	16.693	835.231	628.129
358.708	16.757	834.358	627.656
359.723	16.680	834.242	627.226
360.738	16.744	833.688	626.993
361.752	16.874	832.987	626.892
362.767	16.904	832.265	626.404
363.781	16.968	831.516	626.020
364.796	16.967	831.378	625.856
365.810	17.173	830.738	626.079
366.825	17.015	830.538	625.292
367.840	17.186	829.663	625.208
368.854	17.124	829.584	624.862
369.869	17.079	829.115	624.288
370.883	17.037	828.876	623.899
371.898	17.126	828.677	624.022
372.913	17.118	828.240	623.609
373.927	17.152	827.268	622.946
374.942	17.168	826.493	622.365
375.956	17.324	826.353	622.776
376.971	17.286	825.942	622.273
377.986	17.260	825.517	621.803
379.000	17.340	825.085	621.713
380.015	17.420	824.432	621.458
381.029	17.346	824.001	620.807
382.044	17.366	823.283	620.286
383.059	17.219	823.049	619.517
384.073	17.166	822.698	619.008
385.088	17.333	821.684	618.797
386.102	17.259	821.279	618.169
387.117	17.261	820.528	617.556
388.132	17.256	819.834	616.961
389.146	17.466	819.089	617.107
390.161	17.400	818.953	616.710
391.175	17.392	818.187	616.051
392.190	17.358	818.368	616.010
393.205	17.345	817.542	615.285
394.219	17.318	817.319	614.964
395.234	17.333	816.738	614.527
396.248	17.253	816.546	614.041
397.263	17.247	816.101	613.629
398.278	17.228	815.589	613.120
399.292	17.410	814.893	613.200
400.307	17.306	814.825	612.722
401.321	17.249	814.495	612.211
402.336	17.360	813.583	611.871
403.350	17.475	813.098	611.866
404.365	17.522	812.924	611.849
405.380	17.592	811.983	611.341
406.394	17.649	811.980	611.488
407.409	17.637	811.661	611.148
408.423	17.671	811.048	610.758
409.438	17.796	810.563	610.784
410.453	17.739	810.410	610.410
411.467	17.895	809.330	610.100
412.482	17.873	809.328	609.966
413.496	17.928	809.208	610.018
414.511	17.910	808.539	609.398
415.526	17.897	808.244	609.072
416.540	17.887	807.667	608.550
417.555	17.883	806.889	607.893
418.569	18.061	806.595	608.254
419.584	17.852	806.521	607.399
420.599	17.774	806.058	606.721
421.613	111.330	1294.826	1475.861
422.628	96.064	1366.019	1475.966
