DTS Sentinel unit serial number:	SN413079Multiplexer serial number:	ORYXHardware model number:	OX4-SRSoftware version number:	ORYX F/W v4.00 Oryx Data Collector v3.7.2.0data status	okinstallation	princeton_trtdifferential loss correction	single-endedforward channel	channel 1reverse channel	N/Adate	2019/09/14time	18:34:35forward acquisition time	60.00reverse acquisition time	0.00gamma	496.2192k internal	0.2303k external	0.2303temperature offset calibration	1.0037default loss term (dB/km)	0.3790temperature slope calibration	1.0000multiplexer offset coefficient	1.0000multiplexer slope coefficient	1.0000fibre end	0.00T internal ref (°C)	36.47T ext. ref 1 (°C)	4.91T ext. ref 2 (°C)	30.22length (m)	temperature (°C)	Stokes	anti-Stokes-747.200	193.128	0.085	0.131
-746.185	79.448	-0.079	0.086
-745.171	-87.245	0.093	0.029
-744.156	71.980	-0.279	0.295
-743.142	-200.000	-0.007	0.265
-742.127	266.781	0.195	-0.348
-741.112	-170.576	-0.308	-0.011
-740.098	36.156	-0.238	0.214
-739.083	800.000	-0.062	0.204
-738.069	-151.821	-0.360	-0.027
-737.054	45.720	0.253	-0.238
-736.039	-25.941	-0.233	-0.140
-735.025	-120.869	0.441	-0.076
-734.010	81.042	-0.063	0.069
-732.996	196.809	-0.059	-0.092
-731.981	-44.222	-0.129	0.066
-730.966	484.752	-0.103	-0.238
-729.952	190.477	-0.036	-0.055
-728.937	46.909	-0.328	-0.310
-727.923	-32.521	-0.314	0.178
-726.908	-95.378	-0.328	-0.090
-725.894	-200.000	-0.012	-0.299
-724.879	-8.240	0.183	-0.125
-723.864	-70.462	0.096	-0.037
-722.850	-24.792	-0.210	0.127
-721.835	235.371	-0.127	-0.214
-720.821	102.972	0.007	0.009
-719.806	-150.970	-0.318	0.024
-718.791	38.944	-0.202	-0.184
-717.777	230.006	-0.159	0.264
-716.762	-200.000	0.044	0.264
-715.748	108.880	-0.053	-0.065
-714.733	-128.922	-0.275	-0.039
-713.718	326.960	0.123	0.240
-712.704	-200.000	-0.007	0.192
-711.689	172.587	-0.089	0.130
-710.675	-7.915	-0.160	0.110
-709.660	-45.601	-0.181	-0.091
-708.645	-79.317	0.100	-0.034
-707.631	36.673	-0.159	0.143
-706.616	800.000	-0.074	-0.317
-705.602	40.921	-0.216	-0.198
-704.587	9.875	-0.171	0.132
-703.572	-46.447	-0.069	0.034
-702.558	-43.673	-0.092	0.047
-701.543	-118.818	0.098	0.018
-700.529	-15.227	-0.057	0.037
-699.514	-77.155	0.368	-0.130
-698.499	120.010	-0.082	-0.104
-697.485	-120.867	-0.189	0.032
-696.470	348.550	0.132	-0.264
-695.456	-200.000	-0.072	0.401
-694.441	-132.583	0.111	-0.014
-693.426	-96.627	0.287	-0.077
-692.412	-126.174	-0.141	0.022
-691.397	-101.811	-0.130	-0.032
-690.383	-128.563	-0.119	-0.017
-689.368	-19.536	0.342	0.215
-688.354	13.236	-0.157	-0.124
-687.339	800.000	0.040	0.159
-686.324	-200.000	0.013	0.082
-685.310	60.664	-0.267	-0.269
-684.295	400.546	0.092	0.195
-683.281	-124.976	-0.225	-0.035
-682.266	178.022	0.069	0.102
-681.251	-146.137	0.188	0.017
-680.237	-62.959	0.109	0.046
-679.222	219.686	-0.061	-0.099
-678.208	6.696	-0.170	0.128
-677.193	800.000	0.095	-0.284
-676.178	-46.205	-0.221	0.111
-675.164	68.876	0.173	0.180
-674.149	-45.109	-0.300	-0.152
-673.135	-116.614	0.137	-0.026
-672.120	-82.040	0.339	0.112
-671.105	-200.000	0.005	-0.252
-670.091	-57.086	0.048	-0.021
-669.076	-191.073	-0.200	0.002
-668.062	81.038	-0.054	0.059
-667.047	-193.056	0.455	-0.004
-666.032	-142.766	-0.143	-0.014
-665.018	-75.361	0.060	0.022
-664.003	-89.898	0.241	-0.072
-662.989	-150.043	-0.203	-0.016
-661.974	138.639	0.115	-0.153
-660.959	57.694	0.137	0.136
-659.945	-103.877	0.140	0.033
-658.930	1.633	0.259	-0.189
-657.916	399.651	0.080	-0.170
-656.901	91.325	-0.111	-0.127
-655.886	19.178	-0.182	-0.148
-654.872	266.493	0.148	0.262
-653.857	-61.479	0.084	-0.036
-652.843	-52.858	0.193	0.090
-651.828	98.260	0.278	-0.325
-650.814	-200.000	0.026	0.146
-649.799	-45.081	0.082	-0.041
-648.784	655.684	0.078	-0.204
-647.770	800.000	-0.064	-0.228
-646.755	800.000	0.106	0.314
-645.741	-200.000	-0.021	-0.159
-644.726	17.775	0.123	0.100
-643.711	22.729	0.028	-0.023
-642.697	358.174	-0.096	-0.195
-641.682	800.000	0.074	-0.262
-640.668	-200.000	-0.008	-0.139
-639.653	659.256	-0.079	0.207
-638.638	-200.000	0.001	0.215
-637.624	-2.173	-0.257	0.183
-636.609	-200.000	-0.009	0.077
-635.595	800.000	-0.180	-0.512
-634.580	-73.590	-0.362	-0.134
-633.565	-200.000	0.004	0.109
-632.551	800.000	-0.116	-0.410
-631.536	352.573	-0.096	-0.193
-630.522	-97.581	-0.243	-0.064
-629.507	-70.835	-0.430	0.164
-628.492	60.878	0.074	-0.075
-627.478	-43.122	0.228	-0.117
-626.463	580.353	-0.092	-0.229
-625.449	-200.000	0.045	-0.240
-624.434	-200.000	0.005	-0.193
-623.419	-6.444	0.349	-0.241
-622.405	-186.899	-0.319	0.004
-621.390	394.537	0.128	0.271
-620.376	-123.311	0.040	0.006
-619.361	94.333	0.047	0.054
-618.346	-159.901	-0.393	-0.022
-617.332	-200.000	-0.048	0.296
-616.317	-200.000	0.043	-0.460
-615.303	-58.392	0.192	-0.085
-614.288	-200.000	0.028	-0.134
-613.273	800.000	0.098	0.423
-612.259	-200.000	0.063	-0.349
-611.244	59.207	0.187	-0.186
-610.230	-200.000	-0.004	-0.107
-609.215	-200.000	-0.000	-0.063
-608.201	-84.140	0.211	-0.068
-607.186	29.288	0.263	0.226
-606.171	678.586	0.082	-0.217
-605.157	-56.884	-0.116	-0.052
-604.142	-10.116	-0.218	0.147
-603.128	122.861	-0.368	0.466
-602.113	182.705	-0.105	0.157
-601.098	-164.214	-0.394	0.018
-600.084	-162.976	-0.140	0.007
-599.069	-167.984	0.166	-0.007
-598.055	-59.128	0.389	-0.170
-597.040	-138.202	0.337	0.038
-596.025	-27.908	0.064	-0.038
-595.011	-200.000	0.020	-0.259
-593.996	-200.000	0.012	-0.212
-592.982	27.533	0.146	-0.125
-591.967	-40.950	0.195	-0.102
-590.952	-45.894	-0.333	-0.167
-589.938	-99.445	0.237	-0.060
-588.923	-183.269	0.040	0.001
-587.909	800.000	0.087	0.282
-586.894	-41.902	-0.200	-0.104
-585.879	-108.302	0.222	-0.049
-584.865	-137.264	-0.286	0.033
-583.850	120.939	0.015	-0.019
-582.836	-94.533	0.485	-0.134
-581.821	-102.882	0.341	-0.082
-580.806	133.184	0.008	-0.011
-579.792	60.702	0.091	-0.091
-578.777	-8.886	-0.059	0.040
-577.763	11.556	-0.100	-0.077
-576.748	-98.413	-0.311	0.080
-575.733	95.019	-0.230	-0.265
-574.719	-200.000	0.068	-0.557
-573.704	-36.224	-0.164	-0.090
-572.690	-200.000	-0.001	-0.083
-571.675	344.472	-0.014	-0.028
-570.661	10.630	-0.196	0.151
-569.646	-200.000	-0.019	-0.091
-568.631	-200.000	-0.049	0.219
-567.617	313.604	0.131	0.248
-566.602	-200.000	-0.065	0.360
-565.588	-119.056	-0.123	-0.022
-564.573	-105.553	-0.191	-0.044
-563.558	531.447	-0.161	-0.384
-562.544	298.280	-0.144	0.267
-561.529	-146.712	-0.113	-0.010
-560.515	-150.766	-0.040	0.003
-559.500	26.260	0.058	0.049
-558.485	-162.926	0.288	-0.014
-557.471	199.139	-0.181	-0.280
-556.456	175.992	0.021	-0.031
-555.442	539.001	0.112	-0.270
-554.427	-96.803	-0.290	-0.077
-553.412	106.796	-0.239	-0.287
-552.398	-200.000	0.053	-0.266
-551.383	339.092	-0.078	0.154
-550.369	-176.913	0.124	-0.003
-549.354	-200.000	-0.022	0.165
-548.339	104.546	0.141	0.168
-547.325	-25.375	0.197	-0.117
-546.310	-200.000	-0.017	0.188
-545.296	-200.000	0.021	0.257
-544.281	34.043	0.256	-0.225
-543.266	-200.000	-0.007	0.087
-542.252	-81.864	-0.109	0.036
-541.237	-200.000	-0.017	-0.169
-540.223	-134.154	-0.249	-0.031
-539.208	-200.000	-0.016	-0.177
-538.193	454.847	-0.041	0.091
-537.179	-129.407	-0.184	0.026
-536.164	139.578	0.201	-0.267
-535.150	-200.000	-0.026	0.128
-534.135	-45.290	-0.133	0.067
-533.121	-200.000	-0.005	-0.030
-532.106	24.155	-0.245	0.205
-531.091	-22.779	0.192	-0.117
-530.077	-200.000	-0.003	-0.117
-529.062	6.088	-0.081	-0.061
-528.048	-66.206	0.518	-0.208
-527.033	-45.405	-0.119	0.060
-526.018	-200.000	-0.030	-0.171
-525.004	-63.033	0.271	0.113
-523.989	112.319	0.170	-0.207
-522.975	-200.000	-0.062	-0.319
-521.960	-173.792	-0.222	0.007
-520.945	207.027	0.209	-0.330
-519.931	-102.406	0.296	0.072
-518.916	-54.490	-0.304	0.139
-517.902	-200.000	-0.004	0.066
-516.887	21.132	0.236	0.193
-515.872	-172.975	-0.339	-0.011
-514.858	-182.134	-0.100	-0.002
-513.843	-144.320	0.176	-0.017
-512.829	1.421	0.212	0.154
-511.814	-132.769	0.366	0.047
-510.799	-159.287	0.231	0.013
-509.785	51.153	0.182	-0.174
-508.770	-200.000	0.021	0.249
-507.756	-88.782	-0.302	-0.091
-506.741	800.000	0.025	-0.075
-505.726	75.501	0.089	-0.095
-504.712	14.165	-0.147	0.115
-503.697	-98.079	-0.195	-0.051
-502.683	-94.426	0.299	-0.082
-501.668	-200.000	0.003	0.048
-500.653	-39.756	-0.080	0.042
-499.639	16.890	-0.169	-0.135
-498.624	-130.331	-0.099	0.014
-497.610	132.468	-0.201	-0.262
-496.595	363.755	0.032	-0.064
-495.581	-82.556	0.264	0.086
-494.566	573.542	0.077	0.190
-493.551	-57.709	0.140	-0.062
-492.537	33.678	0.125	0.110
-491.522	-45.290	-0.079	0.039
-490.508	-147.302	-0.382	0.033
-489.493	5.231	-0.201	-0.149
-488.478	800.000	0.081	0.311
-487.464	678.706	0.069	0.180
-486.449	-200.000	0.014	-0.172
-485.435	800.000	0.044	0.156
-484.420	-158.781	0.103	-0.006
-483.405	-137.609	-0.032	-0.004
-482.391	800.000	0.045	-0.136
-481.376	98.372	0.083	0.097
-480.362	800.000	0.059	0.194
-479.347	402.607	-0.045	-0.094
-478.332	-133.930	-0.043	-0.005
-477.318	-91.187	-0.109	-0.032
-476.303	-72.357	-0.151	0.056
-475.289	-171.063	0.227	-0.008
-474.274	54.655	0.154	-0.150
-473.259	-10.031	-0.021	-0.014
-472.245	319.849	-0.100	0.192
-471.230	148.918	-0.161	0.219
-470.216	40.580	-0.136	-0.124
-469.201	228.563	0.086	-0.141
-468.186	-122.403	0.066	0.011
-467.172	-200.000	-0.009	-0.259
-466.157	-200.000	0.000	0.139
-465.143	182.873	-0.147	-0.218
-464.128	145.440	0.057	0.077
-463.113	119.441	-0.179	-0.223
-462.099	-200.000	-0.003	-0.058
-461.084	250.354	0.078	-0.134
-460.070	-98.025	0.405	-0.105
-459.055	-200.000	-0.033	-0.199
-458.040	-76.500	0.189	-0.067
-457.026	312.937	-0.085	0.162
-456.011	-190.612	-0.313	-0.003
-454.997	125.969	0.162	0.206
-453.982	149.110	0.026	0.035
-452.968	-130.552	-0.104	0.014
-451.953	134.482	0.283	-0.369
-450.938	100.640	0.020	0.023
-449.924	-127.026	-0.172	-0.025
-448.909	-195.448	0.174	0.001
-447.895	-124.467	0.330	-0.052
-446.880	800.000	-0.068	0.266
-445.865	29.583	0.058	0.049
-444.851	-72.338	-0.293	-0.109
-443.836	51.186	-0.222	0.212
-442.822	64.200	0.106	0.108
-441.807	-200.000	-0.022	0.185
-440.792	-99.232	-0.184	-0.047
-439.778	-98.615	0.200	0.051
-438.763	-175.969	0.241	-0.006
-437.749	-26.141	-0.215	0.127
-436.734	800.000	-0.076	0.282
-435.719	-132.815	-0.353	0.045
-434.705	-200.000	-0.040	0.184
-433.690	476.564	-0.178	-0.406
-432.676	-76.368	0.137	-0.048
-431.661	-113.686	0.167	0.033
-430.646	10.376	-0.179	-0.137
-429.632	-105.659	0.524	-0.119
-428.617	-158.582	-0.127	0.007
-427.603	-82.003	0.078	0.026
-426.588	164.777	-0.397	-0.563
-425.573	274.151	-0.037	-0.067
-424.559	85.322	-0.113	-0.125
-423.544	-115.844	-0.357	0.067
-422.530	227.463	0.109	0.178
-421.515	-77.326	-0.110	-0.038
-420.500	59.834	0.096	0.095
-419.486	-85.735	0.041	-0.013
-418.471	153.451	0.148	0.203
-417.457	-75.843	0.124	-0.044
-416.442	800.000	-0.059	-0.228
-415.428	118.693	0.047	-0.059
-414.413	81.801	0.091	0.099
-413.398	426.914	0.111	0.240
-412.384	-82.825	-0.152	-0.049
-411.369	-80.873	0.162	0.054
-410.355	668.585	0.061	-0.159
-409.340	-118.945	-0.346	-0.061
-408.325	413.693	-0.021	-0.045
-407.311	-200.000	-0.009	-0.081
-406.296	123.946	-0.034	-0.043
-405.282	104.961	-0.232	-0.275
-404.267	1.976	0.072	0.052
-403.252	176.740	0.161	0.235
-402.238	-187.903	0.133	0.002
-401.223	-6.858	-0.256	0.175
-400.209	209.972	0.165	0.259
-399.194	167.406	-0.296	0.423
-398.179	800.000	-0.108	-0.413
-397.165	98.233	-0.104	-0.120
-396.150	-186.159	0.104	-0.002
-395.136	-200.000	0.026	-0.429
-394.121	387.708	-0.109	0.227
-393.106	-77.330	-0.064	0.022
-392.092	241.931	0.081	-0.136
-391.077	-148.837	-0.126	-0.010
-390.063	10.431	0.188	0.144
-389.048	-108.301	-0.244	-0.053
-388.033	37.235	-0.088	-0.078
-387.019	-200.000	0.006	-0.247
-386.004	491.305	0.147	-0.337
-384.990	-74.909	-0.137	-0.049
-383.975	-200.000	0.054	0.380
-382.960	138.566	0.201	-0.264
-381.946	-200.000	0.016	-0.293
-380.931	134.054	0.226	-0.294
-379.917	-72.764	-0.472	0.174
-378.902	81.547	0.054	0.059
-377.888	31.128	-0.206	-0.178
-376.873	-78.391	-0.166	0.057
-375.858	17.425	-0.205	0.163
-374.844	800.000	0.050	0.214
-373.829	80.143	0.216	-0.233
-372.815	24.874	0.302	0.251
-371.800	-40.380	-0.102	-0.053
-370.785	-177.223	-0.347	0.009
-369.771	291.582	-0.069	-0.126
-368.756	114.363	-0.061	0.074
-367.742	59.473	-0.187	-0.185
-366.727	-200.000	0.017	0.252
-365.712	-200.000	-0.004	-0.185
-364.698	138.995	0.073	0.097
-363.683	-60.998	0.124	0.053
-362.669	800.000	0.072	0.237
-361.654	-200.000	-0.023	-0.444
-360.639	50.293	0.022	0.021
-359.625	311.334	-0.046	0.086
-358.610	-2.879	0.251	0.176
-357.596	63.239	0.106	-0.107
-356.581	-65.900	-0.160	-0.064
-355.566	-146.559	0.232	-0.020
-354.552	-112.015	-0.251	-0.051
-353.537	-83.787	-0.235	-0.075
-352.523	148.887	0.050	0.067
-351.508	-15.192	0.206	-0.132
-350.493	-56.633	-0.109	-0.048
-349.479	33.100	0.130	0.113
-348.464	291.511	0.033	-0.060
-347.450	221.702	-0.056	0.090
-346.435	-71.058	0.243	0.092
-345.420	-200.000	0.012	-0.133
-344.406	-200.000	-0.183	-0.001
-343.391	-69.574	-0.133	0.051
-342.377	-113.515	0.133	0.026
-341.362	-200.000	-0.066	0.334
-340.348	-175.284	-0.193	-0.005
-339.333	-200.000	0.003	-0.128
-338.318	594.080	-0.123	0.305
-337.304	800.000	0.026	0.099
-336.289	623.805	-0.057	-0.145
-335.275	145.274	-0.079	0.106
-334.260	122.830	0.073	-0.091
-333.245	-173.488	0.124	-0.004
-332.231	-141.043	0.140	-0.014
-331.216	-70.683	-0.199	-0.075
-330.202	-49.679	-0.311	0.148
-329.187	700.471	0.069	0.181
-328.172	-130.671	0.164	-0.022
-327.158	-67.268	0.218	0.086
-326.143	-26.140	0.115	-0.068
-325.129	65.077	0.168	-0.170
-324.114	-74.825	-0.159	0.057
-323.099	173.273	0.126	0.183
-322.085	17.327	0.100	-0.080
-321.070	11.968	-0.345	0.266
-320.056	239.831	0.140	0.233
-319.041	-200.000	0.037	-0.168
-318.026	-200.000	0.063	0.370
-317.012	112.951	0.051	0.062
-315.997	800.000	0.009	-0.032
-314.983	40.157	-0.075	0.067
-313.968	800.000	-0.093	-0.407
-312.953	-48.319	-0.053	-0.025
-311.939	-200.000	-0.026	0.288
-310.924	-68.505	0.145	0.056
-309.910	134.855	0.185	0.240
-308.895	599.353	0.109	-0.272
-307.880	-200.000	0.044	0.274
-306.866	-200.000	-0.055	0.243
-305.851	36.895	-0.246	0.218
-304.837	39.981	-0.103	0.093
-303.822	-200.000	-0.014	-0.075
-302.807	636.980	-0.036	-0.092
-301.793	75.755	0.125	-0.133
-300.778	800.000	-0.040	0.112
-299.764	-89.333	-0.287	0.085
-298.749	-200.000	-0.071	0.484
-297.735	36.771	0.095	0.084
-296.720	-2.258	0.214	0.150
-295.705	191.786	0.078	0.117
-294.691	-200.000	0.030	0.242
-293.676	-67.629	0.104	0.041
-292.662	-200.000	-0.012	0.082
-291.647	-158.119	-0.208	0.012
-290.632	-200.000	0.029	0.174
-289.618	-149.968	-0.309	0.024
-288.603	56.639	0.263	0.256
-287.589	98.444	0.170	0.196
-286.574	-192.670	-0.109	0.001
-285.559	-97.595	-0.104	0.027
-284.545	245.343	0.133	0.223
-283.530	99.168	0.171	0.197
-282.516	158.673	-0.065	-0.090
-281.501	-200.000	0.023	0.209
-280.486	-128.639	0.269	-0.038
-279.472	66.497	-0.063	0.064
-278.457	800.000	0.102	0.282
-277.443	722.855	0.138	-0.367
-276.428	-200.000	0.029	-0.304
-275.413	2.929	0.258	0.187
-274.399	32.815	0.031	-0.027
-273.384	-174.861	-0.223	0.006
-272.370	-200.000	0.006	0.159
-271.355	-118.688	0.109	-0.019
-270.340	-56.112	-0.382	0.170
-269.326	31.751	0.126	0.109
-268.311	238.570	-0.097	-0.162
-267.297	-19.000	-0.078	0.048
-266.282	71.085	-0.051	-0.053
-265.267	-87.415	0.044	0.013
-264.253	-40.731	-0.252	-0.131
-263.238	116.563	-0.207	0.253
-262.224	-149.735	-0.165	-0.013
-261.209	0.172	0.185	0.132
-260.195	218.969	-0.107	0.170
-259.180	-56.138	0.167	0.074
-258.165	143.077	-0.063	-0.083
-257.151	323.327	0.026	0.050
-256.136	391.679	0.007	-0.015
-255.122	-31.662	0.158	-0.089
-254.107	256.810	0.027	0.046
-253.092	13.317	0.281	0.218
-252.078	800.000	-0.097	-0.313
-251.063	-17.126	0.075	0.047
-250.049	500.347	0.178	0.410
-249.034	7.612	-0.292	-0.218
-248.019	51.215	-0.110	-0.104
-247.005	-79.364	0.190	-0.064
-245.990	171.915	-0.334	0.480
-244.976	-23.085	0.236	-0.142
-243.961	71.430	0.058	0.060
-242.946	-200.000	-0.234	0.000
-241.932	-200.000	0.000	-0.098
-240.917	-110.203	0.192	0.040
-239.903	-102.868	0.139	-0.033
-238.888	-15.469	-0.286	0.183
-237.873	29.493	-0.130	0.110
-236.859	130.843	0.273	0.350
-235.844	-70.120	0.241	-0.092
-234.830	-173.764	-0.229	-0.007
-233.815	177.033	-0.186	0.270
-232.800	390.496	0.043	0.088
-231.786	389.830	-0.101	0.209
-230.771	14.612	0.054	-0.042
-229.757	-106.655	-0.254	-0.056
-228.742	317.417	0.129	-0.243
-227.727	-15.844	-0.239	0.152
-226.713	-200.000	0.033	-0.183
-225.698	-75.886	0.128	0.045
-224.684	379.896	0.068	-0.140
-223.669	-26.108	0.041	-0.024
-222.655	0.035	0.033	-0.023
-221.640	-110.778	0.163	-0.034
-220.625	-200.000	0.011	0.058
-219.611	40.180	0.280	0.251
-218.596	369.090	-0.121	-0.245
-217.582	708.670	0.075	0.197
-216.567	21.292	0.160	0.129
-215.552	308.066	-0.201	0.375
-214.538	135.624	-0.200	-0.260
-213.523	-120.297	0.245	0.042
-212.509	-133.960	-0.245	0.030
-211.494	127.105	-0.162	-0.205
-210.479	9.645	-0.154	-0.117
-209.465	-73.509	0.190	-0.069
-208.450	-200.000	0.048	0.284
-207.436	800.000	-0.044	-0.152
-206.421	-200.000	0.002	-0.156
-205.406	28.329	-0.198	0.167
-204.392	-59.560	-0.360	-0.154
-203.377	-107.940	-0.246	-0.053
-202.363	-37.356	0.367	0.196
-201.348	-75.810	-0.163	0.058
-200.333	800.000	0.066	-0.277
-199.319	800.000	-0.090	-0.362
-198.304	150.441	0.249	-0.338
-197.290	241.326	-0.082	0.137
-196.275	23.324	-0.080	0.065
-195.260	800.000	0.095	0.399
-194.246	-147.031	-0.211	0.018
-193.231	-200.000	0.031	0.175
-192.217	-51.746	0.241	0.112
-191.202	110.318	0.118	-0.141
-190.187	-200.000	0.008	0.127
-189.173	-3.213	0.305	-0.212
-188.158	203.154	0.166	-0.255
-187.144	-200.000	-0.006	0.190
-186.129	-82.562	-0.231	0.075
-185.114	102.575	0.204	0.238
-184.100	-112.784	-0.055	0.011
-183.085	800.000	-0.087	0.241
-182.071	133.042	0.100	0.129
-181.056	-97.501	0.295	-0.076
-180.042	-22.027	-0.315	0.190
-179.027	-49.235	0.265	-0.126
-178.012	-115.667	0.093	-0.017
-176.998	800.000	0.099	-0.290
-175.983	572.153	-0.147	-0.357
-174.969	70.159	0.148	0.152
-173.954	-200.000	-0.017	0.209
-172.939	339.443	-0.041	-0.080
-171.925	800.000	-0.105	0.305
-170.910	-100.996	-0.250	0.061
-169.896	163.419	-0.111	0.155
-168.881	-113.908	0.606	-0.117
-167.866	91.451	0.194	0.217
-166.852	109.088	0.093	-0.111
-165.837	358.350	-0.130	0.259
-164.823	-112.286	0.115	0.023
-163.808	800.000	-0.060	0.190
-162.793	-122.604	0.278	-0.045
-161.779	-43.338	0.267	0.134
-160.764	-200.000	-0.062	-0.296
-159.750	-200.000	-0.014	-0.143
-158.735	-107.762	0.167	0.036
-157.720	-89.661	-0.077	0.022
-156.706	336.858	0.147	0.285
-155.691	-200.000	-0.044	-0.341
-154.677	71.318	-0.343	-0.354
-153.662	139.732	-0.113	0.148
-152.647	98.711	0.198	-0.228
-151.633	-119.333	0.423	0.073
-150.618	194.552	-0.098	0.148
-149.604	-78.187	0.144	-0.049
-148.589	-200.000	-0.015	0.346
-147.574	-145.956	-0.238	0.021
-146.560	-200.000	0.020	0.210
-145.545	-62.980	0.241	-0.099
-144.531	1.517	-0.059	0.042
-143.516	55.423	0.240	-0.231
-142.502	-200.000	0.022	-0.343
-141.487	174.381	0.149	-0.215
-140.472	169.211	0.124	-0.176
-139.458	109.041	0.100	0.119
-138.443	-51.725	0.350	0.162
-137.429	-173.674	0.181	0.005
-136.414	-73.170	-0.081	-0.030
-135.399	1.760	0.137	-0.098
-134.385	420.967	-0.157	-0.335
-133.370	-143.772	0.125	0.012
-132.356	800.000	0.022	-0.086
-131.341	-200.000	0.026	-0.181
-130.326	113.411	-0.162	0.196
-129.312	17.719	-0.234	0.185
-128.297	44.970	-0.059	-0.054
-127.283	25.307	0.222	-0.183
-126.268	800.000	-0.037	-0.127
-125.253	-48.628	0.118	-0.057
-124.239	-41.764	-0.195	-0.100
-123.224	800.000	-0.105	0.320
-122.210	274.287	0.156	0.274
-121.195	-102.468	-0.330	0.078
-120.180	-200.000	-0.013	0.061
-119.166	-200.000	-0.010	-0.167
-118.151	60.550	-0.109	-0.108
-117.137	-188.194	-0.085	0.001
-116.122	-200.000	-0.085	-0.502
-115.107	100.162	-0.172	-0.198
-114.093	83.345	-0.126	0.137
-113.078	-55.934	0.259	-0.115
-112.064	-92.772	0.365	0.101
-111.049	800.000	0.107	0.426
-110.034	378.723	-0.105	-0.214
-109.020	35.631	-0.347	0.303
-108.005	-22.743	0.230	-0.138
-106.991	-74.584	0.127	-0.045
-105.976	55.551	-0.141	0.135
-104.962	188.790	0.074	-0.110
-103.947	69.776	0.185	-0.190
-102.932	32.500	-0.262	-0.224
-101.918	-200.000	0.052	-0.319
-100.903	236.674	0.171	-0.282
-99.889	-200.000	-0.297	0.000
-98.874	-77.990	0.118	-0.041
-97.859	327.740	0.096	-0.184
-96.845	214.849	-0.003	0.005
-95.830	-200.000	0.014	-0.072
-94.816	300.257	0.168	0.307
-93.801	800.000	0.049	-0.167
-92.786	-103.564	0.086	-0.020
-91.772	800.000	-0.047	0.202
-90.757	800.000	0.038	0.148
-89.743	501.238	-0.071	-0.163
-88.728	109.605	-0.257	0.306
-87.713	0.190	0.066	-0.047
-86.699	-200.000	0.013	0.200
-85.684	239.136	-0.126	0.207
-84.670	280.291	-0.094	-0.166
-83.655	-200.000	0.008	-0.156
-82.640	99.658	-0.013	-0.015
-81.626	-110.295	0.235	-0.049
-80.611	-63.438	-0.051	-0.021
-79.597	-60.586	-0.427	0.180
-78.582	-82.786	0.208	-0.067
-77.567	-49.645	-0.174	0.082
-76.553	-96.820	-0.056	-0.015
-75.538	-69.007	-0.194	-0.074
-74.524	-24.632	0.331	-0.195
-73.509	13.227	0.210	-0.161
-72.494	800.000	-0.061	-0.264
-71.480	-116.673	0.084	0.015
-70.465	-200.000	0.029	-0.323
-69.451	111.780	0.177	-0.212
-68.436	612.420	-0.037	-0.091
-67.422	-5.277	0.215	0.147
-66.407	34.387	-0.104	0.090
-65.392	800.000	0.068	0.199
-64.378	-200.000	0.002	-0.243
-63.363	-139.490	0.329	0.035
-62.349	531.338	0.052	0.122
-61.334	54.306	-0.886	-0.846
-60.319	-200.000	0.060	0.444
-59.305	405.382	-0.363	-0.759
-58.290	171.834	0.573	0.817
-57.276	578.445	0.687	1.667
-56.261	-200.000	91.793	540.262
-55.246	597.806	1380.623	3392.867
-54.232	188.352	2586.881	3834.607
-53.217	124.008	2184.329	2720.142
-52.203	48.146	1639.038	1519.588
-51.188	39.868	1374.365	1223.161
-50.173	36.653	1330.682	1164.916
-49.159	57.564	1377.649	1334.521
-48.144	62.010	1396.307	1379.731
-47.130	40.432	1351.545	1206.098
-46.115	36.674	1334.295	1168.022
-45.100	36.437	1329.265	1162.148
-44.086	36.399	1326.640	1159.576
-43.071	36.319	1324.539	1157.216
-42.057	36.262	1323.018	1155.500
-41.042	36.371	1321.022	1154.359
-40.027	36.259	1319.640	1152.436
-39.013	36.369	1317.337	1151.036
-37.998	36.410	1315.346	1149.497
-36.984	36.512	1313.419	1148.373
-35.969	36.527	1311.817	1147.016
-34.954	36.563	1309.660	1145.295
-33.940	36.573	1308.353	1144.168
-32.925	36.473	1307.438	1142.729
-31.911	36.583	1306.184	1142.236
-30.896	36.593	1304.513	1140.794
-29.881	36.644	1302.849	1139.592
-28.867	36.649	1302.032	1138.863
-27.852	36.551	1299.802	1136.291
-26.838	36.580	1298.620	1135.383
-25.823	36.510	1297.417	1133.874
-24.809	36.532	1295.752	1132.504
-23.794	36.547	1294.345	1131.313
-22.779	36.666	1292.446	1130.306
-21.765	36.526	1291.971	1129.029
-20.750	36.429	1290.965	1127.538
-19.736	36.444	1289.594	1126.384
-18.721	36.357	1288.402	1124.791
-17.706	36.444	1286.948	1123.983
-16.692	36.373	1286.050	1122.744
-15.677	36.284	1285.258	1121.489
-14.663	36.431	1283.348	1120.627
-13.648	36.405	1282.416	1119.621
-12.633	36.408	1281.233	1118.559
-11.619	36.447	1280.526	1118.126
-10.604	36.377	1279.640	1116.903
-9.590	36.441	1278.568	1116.293
-8.575	36.342	1277.973	1115.156
-7.560	36.321	1277.062	1114.194
-6.546	36.432	1276.194	1114.035
-5.531	36.427	1275.031	1112.946
-4.517	36.434	1274.048	1112.083
-3.502	36.346	1273.526	1111.080
-2.487	36.413	1271.983	1110.073
-1.473	36.300	1268.308	1106.177
-0.458	34.830	1252.033	1083.613
0.556	30.205	1232.722	1038.691
1.571	25.802	1236.840	1017.267
2.586	24.562	1251.737	1022.336
3.600	23.642	1240.343	1007.715
4.615	17.747	1167.509	916.863
5.629	9.056	1090.368	812.390
6.644	5.122	1069.243	777.022
7.659	4.781	1067.102	773.704
8.673	4.870	1066.249	773.458
9.688	4.857	1064.823	772.289
10.702	5.030	1062.881	771.667
11.717	9.817	1069.976	800.551
12.731	17.453	1080.683	846.613
13.746	20.094	1083.013	861.510
14.761	19.021	1081.077	854.565
15.775	17.934	1078.756	847.266
16.790	16.951	1076.498	840.551
17.804	16.089	1075.598	835.501
18.819	15.725	1074.541	832.808
19.834	15.641	1073.126	831.220
20.848	15.374	1072.384	829.251
21.863	15.096	1071.828	827.377
22.877	15.051	1071.094	826.513
23.892	15.046	1070.240	825.756
24.907	14.959	1069.713	824.848
25.921	15.091	1067.830	823.970
26.936	15.042	1066.812	822.875
27.950	15.152	1065.380	822.237
28.965	15.061	1064.547	821.074
29.980	15.179	1062.850	820.268
30.994	15.219	1061.989	819.726
32.009	15.318	1060.529	819.012
33.023	15.302	1059.215	817.848
34.038	15.346	1058.308	817.288
35.053	15.094	1057.608	815.451
36.067	15.116	1056.534	814.656
37.082	15.265	1055.589	814.580
38.096	15.285	1055.207	814.310
39.111	15.182	1054.220	812.976
40.126	15.144	1053.053	811.822
41.140	14.906	1052.233	809.961
42.155	14.909	1050.346	808.454
43.169	14.823	1049.670	807.447
44.184	14.831	1048.646	806.627
45.199	14.867	1047.525	805.867
46.213	15.067	1046.028	805.607
47.228	15.124	1044.940	804.968
48.242	15.195	1044.212	804.678
49.257	15.108	1043.347	803.524
50.271	15.140	1042.809	803.190
51.286	15.199	1042.016	802.794
52.301	15.137	1040.989	801.633
53.315	15.102	1039.782	800.467
54.330	14.928	1039.157	799.081
55.344	15.114	1037.269	798.447
56.359	15.032	1036.949	797.738
57.374	14.883	1036.120	796.320
58.388	14.948	1034.929	795.647
59.403	14.883	1034.261	794.750
60.417	14.860	1033.769	794.196
61.432	14.704	1033.051	792.832
62.447	14.721	1032.017	792.051
63.461	14.572	1031.582	790.938
64.476	14.760	1030.330	790.796
65.490	14.712	1029.408	789.794
66.505	14.951	1028.440	790.109
67.520	14.834	1028.324	789.397
68.534	14.829	1027.228	788.463
69.549	14.770	1026.730	787.733
70.563	14.751	1025.753	786.824
71.578	14.749	1024.760	785.982
72.593	14.655	1024.286	785.110
73.607	14.692	1023.348	784.495
74.622	14.684	1022.730	783.915
75.636	14.752	1021.797	783.447
76.651	14.896	1021.099	783.517
77.666	14.752	1020.863	782.594
78.680	14.708	1020.392	781.958
79.695	14.815	1019.542	781.735
80.709	14.879	1018.979	781.536
81.724	14.886	1018.590	781.201
82.739	14.947	1017.666	780.706
83.753	15.136	1016.642	780.733
84.768	15.317	1015.980	781.001
85.782	15.386	1015.354	780.771
86.797	15.256	1014.336	779.315
87.812	15.146	1013.294	777.935
88.826	15.158	1012.253	777.123
89.841	15.212	1011.309	776.579
90.855	15.340	1010.441	776.437
91.870	15.270	1010.253	775.897
92.884	15.254	1008.918	774.733
93.899	15.310	1008.149	774.329
94.914	15.406	1007.506	774.212
95.928	15.338	1006.462	773.025
96.943	15.292	1005.211	771.785
97.957	15.281	1004.444	771.078
98.972	15.265	1003.674	770.346
99.987	15.301	1003.068	769.976
101.001	15.358	1001.888	769.265
102.016	15.416	1000.701	768.552
103.030	15.303	1000.500	767.809
104.045	15.217	999.571	766.638
105.060	15.070	998.791	765.300
106.074	15.086	997.483	764.300
107.089	14.907	996.424	762.608
108.103	14.873	995.631	761.776
109.118	15.011	994.429	761.419
110.133	14.811	993.736	759.909
111.147	14.881	992.671	759.348
112.162	14.964	991.972	759.121
113.176	14.953	991.175	758.393
114.191	14.977	990.687	758.065
115.206	15.089	989.670	757.727
116.220	14.896	988.966	756.247
117.235	14.982	987.945	755.787
118.249	14.915	987.361	754.969
119.264	14.918	986.489	754.250
120.279	15.050	985.181	753.780
121.293	14.874	985.092	752.850
122.308	14.843	983.988	751.799
123.322	14.806	982.785	750.649
124.337	14.855	981.696	749.970
125.352	14.776	980.854	748.909
126.366	14.798	979.929	748.236
127.381	14.844	979.126	747.758
128.395	14.845	977.894	746.757
129.410	14.910	976.810	746.153
130.424	14.899	976.594	745.872
131.439	14.984	975.667	745.479
132.454	15.070	974.517	744.916
133.468	15.075	973.914	744.414
134.483	15.053	972.873	743.453
135.497	15.008	972.388	742.818
136.512	15.087	971.088	742.109
137.527	15.112	970.252	741.515
138.541	15.098	969.806	741.045
139.556	15.238	969.106	741.065
140.570	15.306	968.081	740.517
141.585	15.271	967.734	740.031
142.600	15.313	966.766	739.410
143.614	15.453	965.575	739.052
144.629	15.430	964.985	738.432
145.643	15.371	963.669	737.101
146.658	15.245	962.691	735.732
147.673	15.311	961.569	735.100
148.687	15.234	960.933	734.212
149.702	15.110	959.870	732.794
150.716	15.057	959.360	732.107
151.731	15.124	958.896	731.980
152.746	15.158	957.572	731.052
153.760	15.154	957.190	730.678
154.775	15.303	956.972	731.097
155.789	15.238	956.352	730.277
156.804	15.360	955.070	729.763
157.819	15.379	954.725	729.519
158.833	15.490	954.059	729.429
159.848	15.476	953.460	728.844
160.862	15.431	952.514	727.863
161.877	15.177	951.610	726.004
162.892	15.192	950.572	725.215
163.906	15.160	949.320	724.054
164.921	15.211	948.284	723.424
165.935	15.223	948.040	723.222
166.950	15.273	946.639	722.306
167.964	15.371	946.336	722.435
168.979	15.262	945.147	720.994
169.994	15.279	944.511	720.517
171.008	15.352	943.728	720.168
172.023	15.414	943.064	719.864
173.037	15.539	941.969	719.501
174.052	15.474	941.535	718.827
175.067	15.233	941.315	717.563
176.081	15.212	940.577	716.850
177.096	15.282	939.981	716.628
178.110	15.283	939.392	716.122
179.125	15.466	938.142	715.885
180.140	15.387	938.108	715.458
181.154	15.438	937.682	715.290
182.169	15.477	937.280	715.083
183.183	15.537	936.843	714.944
184.198	15.483	936.315	714.249
185.213	15.686	934.841	713.923
186.227	15.596	934.501	713.219
187.242	15.581	933.648	712.438
188.256	15.750	933.229	712.773
189.271	15.650	932.503	711.732
190.286	15.445	931.619	710.128
191.300	15.268	930.598	708.540
192.315	15.159	929.951	707.522
193.329	15.113	929.821	707.166
194.344	15.365	928.948	707.503
195.359	15.439	928.076	707.090
196.373	15.454	927.987	707.020
197.388	15.554	927.777	707.218
198.402	15.761	926.899	707.360
199.417	15.764	926.377	706.912
200.432	15.928	925.735	707.044
201.446	15.890	925.252	706.454
202.461	15.924	925.010	706.352
203.475	15.868	924.177	705.418
204.490	15.740	923.438	704.255
205.504	15.663	922.972	703.514
206.519	15.756	921.809	702.954
207.534	15.819	921.271	702.746
208.548	15.693	920.563	701.619
209.563	15.823	919.722	701.455
210.577	15.904	918.993	701.175
211.592	15.915	918.437	700.736
212.607	15.955	917.744	700.310
213.621	15.933	917.244	699.774
214.636	15.875	916.632	699.004
215.650	15.872	915.998	698.447
216.665	15.958	915.100	698.060
217.680	16.052	914.627	698.024
218.694	16.162	913.479	697.543
219.709	15.967	913.301	696.539
220.723	16.188	912.363	696.672
221.738	16.042	911.620	695.443
222.753	16.031	911.110	694.946
223.767	16.044	910.792	694.697
224.782	16.280	909.768	694.823
225.796	16.187	909.211	693.955
226.811	16.254	908.842	693.888
227.826	16.017	908.171	692.342
228.840	16.121	907.135	691.915
229.855	16.012	906.373	690.829
230.869	15.995	905.716	690.197
231.884	16.010	905.317	689.894
232.899	16.093	904.152	689.283
233.913	16.019	903.400	688.348
234.928	16.016	902.694	687.735
235.942	15.914	902.410	687.041
236.957	15.934	901.899	686.675
237.972	16.046	901.419	686.704
238.986	15.969	900.706	685.786
240.001	16.075	899.798	685.464
241.015	16.099	899.302	685.124
242.030	16.210	898.914	685.220
243.045	16.099	898.374	684.295
244.059	16.160	897.638	683.920
245.074	16.042	897.412	683.212
246.088	16.189	896.587	683.118
247.103	16.312	895.725	682.898
248.117	16.439	895.380	683.088
249.132	16.553	894.957	683.167
250.147	16.598	894.651	683.054
251.161	16.686	893.519	682.483
252.176	16.629	892.931	681.743
253.190	16.681	892.358	681.457
254.205	16.834	890.991	680.966
255.220	16.761	890.943	680.574
256.234	16.692	890.356	679.789
257.249	16.848	889.696	679.853
258.263	16.703	889.455	679.027
259.278	16.735	888.179	678.120
260.293	16.797	887.975	678.153
261.307	16.847	887.112	677.635
262.322	16.856	886.685	677.283
263.336	16.899	885.900	676.795
264.351	17.025	885.091	676.621
265.366	16.877	884.660	675.642
266.380	16.885	883.957	675.077
267.395	16.741	883.583	674.158
268.409	16.846	882.591	673.757
269.424	16.785	881.903	672.930
270.439	16.787	881.202	672.344
271.453	16.811	880.379	671.754
272.468	16.947	879.131	671.278
273.482	16.830	879.344	670.921
274.497	16.783	878.877	670.320
275.512	16.894	878.195	670.179
276.526	16.858	878.092	669.896
277.541	16.976	876.930	669.417
278.555	16.994	876.384	669.011
279.570	17.213	875.835	669.394
280.585	17.039	875.242	668.197
281.599	16.948	874.790	667.437
282.614	17.103	873.325	666.870
283.628	16.914	872.998	665.819
284.643	17.148	872.552	666.335
285.657	16.981	872.076	665.261
286.672	17.040	871.277	664.823
287.687	16.960	870.765	664.060
288.701	17.133	869.938	664.048
289.716	17.034	869.791	663.490
290.730	17.141	869.330	663.495
291.745	17.219	868.266	662.931
292.760	17.169	867.601	662.169
293.774	17.312	866.724	661.998
294.789	17.316	866.363	661.678
295.803	17.124	865.796	660.442
296.818	17.187	865.022	660.035
297.833	17.232	864.304	659.605
298.847	17.182	864.013	659.132
299.862	17.169	863.680	658.769
300.876	17.313	862.818	658.610
301.891	17.308	862.434	658.241
302.906	17.463	861.736	658.247
303.920	17.412	861.177	657.564
304.935	17.504	860.735	657.527
305.949	17.430	860.048	656.656
306.964	17.349	859.454	655.834
307.979	17.336	858.872	655.280
308.993	17.495	857.902	655.095
310.008	17.528	857.639	654.962
311.022	17.351	857.224	653.907
312.037	17.329	856.579	653.273
313.052	17.325	855.648	652.490
314.066	17.395	855.244	652.393
315.081	17.261	854.699	651.406
316.095	17.268	854.083	650.905
317.110	17.327	853.420	650.569
318.125	17.276	853.302	650.224
319.139	17.242	852.723	649.595
320.154	17.409	851.937	649.577
321.168	17.444	851.697	649.472
322.183	17.395	851.120	648.786
323.197	17.364	850.950	648.480
324.212	17.493	850.000	648.190
325.227	17.523	849.410	647.799
326.241	17.522	848.514	647.054
327.256	17.486	848.297	646.694
328.270	17.446	847.711	646.037
329.285	17.491	846.960	645.580
330.300	17.348	846.773	644.838
331.314	17.538	845.855	644.800
332.329	17.529	845.548	644.475
333.343	17.617	845.053	644.374
334.358	17.508	844.920	643.803
335.373	17.548	844.522	643.593
336.387	17.758	843.824	643.798
337.402	17.792	843.601	643.699
338.416	17.768	843.622	643.568
339.431	17.712	843.439	643.161
340.446	17.866	842.670	643.096
341.460	17.805	842.330	642.550
342.475	17.884	841.869	642.441
343.489	17.991	841.359	642.396
344.504	18.043	840.685	642.019
345.519	18.021	840.288	641.578
346.533	18.044	839.540	641.037
347.548	17.928	839.091	640.203
348.562	17.840	838.172	639.115
349.577	17.839	837.650	638.655
350.592	17.730	837.248	637.885
351.606	17.736	836.487	637.272
352.621	17.861	836.021	637.328
353.635	17.825	835.427	636.684
354.650	17.936	834.548	636.370
355.665	17.962	834.139	636.098
356.679	18.068	833.538	635.978
357.694	17.986	833.131	635.307
358.708	18.090	832.409	635.088
359.723	18.099	831.390	634.289
360.738	18.036	831.258	633.896
361.752	18.163	830.283	633.568
362.767	18.294	829.655	633.518
363.781	18.403	829.219	633.532
364.796	18.372	829.156	633.312
365.810	18.375	828.309	632.621
366.825	18.448	828.278	632.811
367.840	18.403	827.870	632.278
368.854	18.216	827.295	631.091
369.869	18.390	827.014	631.462
370.883	18.356	826.244	630.693
371.898	18.325	826.280	630.551
372.913	18.383	825.657	630.234
373.927	18.317	825.231	629.609
374.942	18.398	824.557	629.339
375.956	18.551	824.003	629.420
376.971	18.604	823.787	629.395
377.986	18.558	823.318	628.813
379.000	18.620	822.715	628.521
380.015	18.493	822.280	627.671
381.029	18.620	821.549	627.520
382.044	18.663	820.875	627.106
383.059	18.611	820.537	626.604
384.073	18.623	819.700	625.952
385.088	18.408	819.387	624.875
386.102	18.502	818.729	624.659
387.117	18.566	817.952	624.243
388.132	18.503	817.688	623.758
389.146	18.568	816.976	623.398
390.161	18.619	816.514	623.174
391.175	18.571	816.396	622.855
392.190	18.423	815.940	621.915
393.205	18.557	815.135	621.730
394.219	18.626	814.533	621.468
395.234	18.573	814.220	620.982
396.248	18.495	813.627	620.191
397.263	18.441	813.237	619.646
398.278	18.366	813.049	619.177
399.292	18.475	812.532	619.123
400.307	18.579	811.958	619.005
401.321	18.456	811.464	618.129
402.336	18.719	810.849	618.553
403.350	18.543	810.951	617.943
404.365	18.722	810.625	618.285
405.380	18.782	809.841	617.847
406.394	18.909	809.309	617.844
407.409	18.979	809.025	617.823
408.423	18.870	809.097	617.432
409.438	18.882	808.377	616.873
410.453	18.903	808.166	616.733
411.467	18.937	807.630	616.388
412.482	19.068	806.937	616.276
413.496	19.063	806.920	616.190
414.511	19.097	806.458	615.904
415.526	19.052	805.797	615.184
416.540	19.062	805.221	614.726
417.555	19.093	804.622	614.323
418.569	19.011	804.395	613.803
419.584	19.066	804.072	613.701
420.599	19.215	803.699	613.891
421.613	154.106	1369.096	1786.944
422.628	133.687	1451.492	1787.052
