DTS Sentinel unit serial number:	SN413079Multiplexer serial number:	ORYXHardware model number:	OX4-SRSoftware version number:	ORYX F/W v4.00 Oryx Data Collector v3.7.2.0data status	okinstallation	princeton_trtdifferential loss correction	single-endedforward channel	channel 1reverse channel	N/Adate	2019/09/13time	17:46:35forward acquisition time	60.00reverse acquisition time	0.00gamma	496.2192k internal	0.2303k external	0.2303temperature offset calibration	1.0160default loss term (dB/km)	0.3790temperature slope calibration	1.0000multiplexer offset coefficient	1.0000multiplexer slope coefficient	1.0000fibre end	0.00T internal ref (°C)	35.62T ext. ref 1 (°C)	5.17T ext. ref 2 (°C)	29.17length (m)	temperature (°C)	Stokes	anti-Stokes-747.200	32.302	0.169	-0.149
-746.185	-9.296	-0.105	-0.071
-745.171	-200.000	-0.001	-0.212
-744.156	58.881	-0.114	0.114
-743.142	-200.000	-0.017	0.425
-742.127	192.155	-0.094	0.144
-741.112	-10.449	0.065	-0.044
-740.098	545.448	-0.033	0.081
-739.083	-200.000	-0.048	-0.253
-738.069	-200.000	-0.044	0.201
-737.054	40.569	0.242	-0.222
-736.039	-40.481	0.083	-0.044
-735.025	-138.034	0.231	-0.026
-734.010	21.469	-0.140	0.116
-732.996	147.064	-0.143	-0.196
-731.981	-200.000	0.016	-0.197
-730.966	125.282	0.215	0.275
-729.952	-178.806	-0.125	-0.003
-728.937	264.584	0.068	-0.121
-727.923	-68.927	-0.245	0.096
-726.908	-50.909	-0.072	-0.035
-725.894	301.325	-0.065	0.122
-724.879	79.564	0.152	0.166
-723.864	151.864	-0.109	-0.152
-722.850	36.744	-0.146	-0.131
-721.835	6.952	-0.104	-0.079
-720.821	3.415	0.120	-0.089
-719.806	4.838	-0.328	0.246
-718.791	91.086	0.137	-0.156
-717.777	-13.967	0.079	-0.052
-716.762	-172.440	-0.071	0.002
-715.748	76.858	-0.137	0.148
-714.733	-127.539	-0.118	-0.017
-713.718	147.643	-0.165	-0.227
-712.704	-11.047	-0.265	-0.178
-711.689	-17.724	0.160	0.103
-710.675	5.112	0.162	0.121
-709.660	4.849	0.135	0.101
-708.645	81.864	0.109	-0.120
-707.631	9.235	-0.026	0.020
-706.616	227.712	0.072	0.120
-705.602	800.000	-0.012	-0.047
-704.587	-95.775	-0.138	0.037
-703.572	445.490	0.039	-0.086
-702.558	-97.592	-0.212	0.056
-701.543	48.836	0.062	-0.060
-700.529	677.326	-0.125	-0.332
-699.514	510.805	-0.028	0.065
-698.499	-110.963	0.156	0.033
-697.485	-200.000	-0.004	0.437
-696.470	-72.543	0.165	-0.062
-695.456	61.962	-0.266	-0.270
-694.441	-114.600	0.205	0.040
-693.426	-13.971	0.139	-0.091
-692.412	43.073	0.243	-0.225
-691.397	-121.999	-0.146	0.024
-690.383	-200.000	0.014	0.090
-689.368	-38.384	0.045	-0.024
-688.354	-153.545	-0.064	0.005
-687.339	20.959	-0.269	0.222
-686.324	800.000	0.055	-0.243
-685.310	-200.000	-0.014	-0.398
-684.295	196.625	0.212	0.329
-683.281	-17.549	-0.146	0.093
-682.266	189.853	0.162	0.247
-681.251	334.500	0.027	-0.054
-680.237	129.260	0.176	-0.229
-679.222	800.000	-0.012	0.033
-678.208	22.970	0.184	0.153
-677.193	800.000	-0.085	-0.280
-676.178	-119.669	0.226	-0.040
-675.164	-37.079	0.233	0.127
-674.149	0.655	0.171	0.125
-673.135	141.906	-0.126	0.170
-672.120	-200.000	-0.040	0.344
-671.105	-200.000	0.006	0.089
-670.091	52.912	-0.187	0.182
-669.076	56.484	0.039	0.038
-668.062	587.364	-0.076	-0.190
-667.047	128.406	-0.164	-0.211
-666.032	43.585	0.193	-0.179
-665.018	-14.728	-0.108	-0.070
-664.003	800.000	-0.064	0.187
-662.989	513.127	0.168	0.398
-661.974	-109.696	-0.177	0.038
-660.959	-84.647	0.267	0.085
-659.945	-118.213	-0.075	-0.014
-658.930	684.104	-0.017	0.045
-657.916	-200.000	-0.036	-0.206
-656.901	-69.141	-0.463	-0.181
-655.886	-200.000	0.002	-0.355
-654.872	165.911	-0.087	0.125
-653.857	800.000	-0.152	0.431
-652.843	49.879	0.143	-0.137
-651.828	-35.920	-0.241	0.132
-650.814	138.826	-0.182	-0.243
-649.799	800.000	-0.013	0.042
-648.784	-9.202	0.108	-0.073
-647.770	9.513	0.272	0.209
-646.755	800.000	0.146	-0.418
-645.741	-200.000	-0.102	-0.471
-644.726	-64.403	0.126	0.052
-643.711	-125.924	0.215	0.033
-642.697	105.316	-0.154	-0.185
-641.682	201.474	-0.047	-0.073
-640.668	-200.000	0.021	0.113
-639.653	477.452	-0.019	-0.043
-638.638	-61.199	0.244	-0.104
-637.624	-90.838	0.097	-0.028
-636.609	-200.000	0.009	0.082
-635.595	150.389	0.155	0.213
-634.580	-11.775	0.049	0.033
-633.565	-101.692	0.146	-0.036
-632.551	707.549	-0.019	-0.050
-631.536	23.405	0.188	0.157
-630.522	419.519	-0.073	0.158
-629.507	507.214	0.022	-0.051
-628.492	-13.284	-0.006	0.004
-627.478	-116.182	-0.204	-0.038
-626.463	800.000	0.054	0.164
-625.449	-2.462	0.183	-0.130
-624.434	-200.000	-0.009	-0.216
-623.419	13.987	-0.337	0.266
-622.405	318.077	-0.114	0.219
-621.390	-60.331	0.209	-0.090
-620.376	-21.530	-0.043	-0.027
-619.361	-56.529	-0.277	-0.124
-618.346	800.000	-0.067	-0.229
-617.332	-113.858	0.119	0.023
-616.317	800.000	0.025	-0.090
-615.303	-110.311	-0.235	-0.050
-614.288	626.754	0.052	-0.134
-613.273	-53.408	0.303	-0.141
-612.259	95.752	-0.227	-0.263
-611.244	105.252	0.179	-0.215
-610.230	-200.000	0.043	0.251
-609.215	-19.353	-0.151	-0.095
-608.201	-193.801	0.234	-0.002
-607.186	800.000	-0.016	0.052
-606.171	291.075	-0.116	0.214
-605.157	800.000	-0.114	-0.380
-604.142	-36.584	-0.130	-0.071
-603.128	800.000	0.080	-0.224
-602.113	-200.000	0.029	-0.191
-601.098	800.000	0.072	-0.247
-600.084	-8.977	-0.344	0.234
-599.069	389.003	0.100	0.209
-598.055	59.839	-0.167	-0.167
-597.040	-104.009	-0.161	0.038
-596.025	-59.113	-0.132	0.058
-595.011	-200.000	-0.036	0.168
-593.996	45.072	0.180	0.168
-592.982	-67.123	0.016	0.006
-591.967	800.000	0.103	-0.293
-590.952	-159.735	0.179	0.010
-589.938	75.789	-0.123	-0.131
-588.923	-82.552	0.133	-0.044
-587.909	800.000	-0.017	0.056
-586.894	-200.000	-0.057	0.325
-585.879	103.208	0.099	0.118
-584.865	-26.429	-0.146	0.087
-583.850	800.000	-0.091	0.328
-582.836	-64.913	0.088	0.036
-581.821	-127.009	-0.124	0.018
-580.806	-0.510	-0.133	0.096
-579.792	155.325	-0.119	-0.166
-578.777	-63.082	-0.122	-0.051
-577.763	-47.795	-0.158	-0.078
-576.748	-107.617	-0.061	-0.013
-575.733	-184.151	-0.102	0.002
-574.719	-200.000	-0.003	-0.113
-573.704	83.785	-0.057	-0.063
-572.690	3.256	0.155	-0.114
-571.675	-9.672	-0.180	-0.121
-570.661	69.074	0.332	0.345
-569.646	101.101	0.159	-0.187
-568.631	-37.117	0.114	0.062
-567.617	-93.631	0.101	-0.028
-566.602	-55.573	-0.084	0.038
-565.588	-106.233	0.203	-0.046
-564.573	-28.998	-0.153	0.089
-563.558	-200.000	0.046	-0.336
-562.544	-146.967	-0.283	-0.025
-561.529	689.209	0.077	-0.203
-560.515	133.997	-0.140	-0.184
-559.500	121.860	-0.170	-0.214
-558.485	-105.673	-0.182	0.042
-557.471	-47.461	-0.431	0.212
-556.456	-106.990	-0.320	-0.071
-555.442	35.717	0.023	-0.020
-554.427	23.489	-0.017	0.014
-553.412	-200.000	-0.011	-0.124
-552.398	-200.000	0.040	-0.450
-551.383	43.010	-0.381	-0.352
-550.369	405.563	-0.085	0.182
-549.354	-112.000	-0.113	0.023
-548.339	500.258	-0.187	-0.436
-547.325	17.657	-0.095	-0.076
-546.310	-131.404	0.136	-0.018
-545.296	-54.191	0.587	0.270
-544.281	-137.214	0.034	0.004
-543.266	-200.000	-0.024	-0.136
-542.252	166.416	0.106	0.152
-541.237	-84.719	-0.344	0.109
-540.223	-128.370	-0.441	-0.063
-539.208	234.120	-0.120	0.199
-538.193	-24.025	0.051	-0.031
-537.179	330.924	-0.077	-0.149
-536.164	-200.000	-0.019	-0.140
-535.150	-52.701	0.186	0.087
-534.135	37.981	0.169	-0.152
-533.121	-200.000	-0.001	0.266
-532.106	-200.000	-0.019	-0.187
-531.091	141.866	0.310	-0.415
-530.077	-194.016	-0.097	0.001
-529.062	452.349	0.030	0.067
-528.048	403.277	-0.181	0.385
-527.033	-200.000	-0.035	0.255
-526.018	225.624	0.174	-0.285
-525.004	-104.500	-0.283	-0.066
-523.989	-23.492	-0.271	0.164
-522.975	-200.000	-0.040	-0.461
-521.960	22.549	0.166	-0.137
-520.945	-119.249	-0.215	0.038
-519.931	180.042	-0.143	0.211
-518.916	237.374	0.181	0.303
-517.902	334.026	0.030	0.059
-516.887	-200.000	0.009	0.210
-515.872	-98.940	-0.203	0.052
-514.858	-54.638	-0.107	-0.049
-513.843	800.000	-0.046	0.188
-512.829	374.901	0.065	-0.134
-511.814	-87.405	0.141	-0.043
-510.799	120.145	-0.034	-0.042
-509.785	140.221	-0.191	0.255
-508.770	-170.634	-0.329	-0.012
-507.756	-123.774	-0.208	0.033
-506.741	124.904	-0.188	0.239
-505.726	-73.597	0.176	-0.065
-504.712	-200.000	0.001	0.089
-503.697	-200.000	0.025	0.178
-502.683	-58.500	-0.125	0.055
-501.668	-200.000	-0.045	-0.265
-500.653	131.576	-0.114	0.148
-499.639	-51.716	0.115	0.054
-498.624	16.833	-0.205	-0.164
-497.610	-64.471	0.144	0.059
-496.595	167.674	0.223	0.320
-495.581	714.558	-0.134	-0.358
-494.566	-92.315	0.388	-0.110
-493.551	800.000	-0.033	0.107
-492.537	652.817	-0.067	0.174
-491.522	-117.596	-0.296	0.054
-490.508	800.000	-0.098	0.329
-489.493	-98.732	-0.308	0.079
-488.478	-200.000	-0.009	0.060
-487.464	-39.304	-0.363	0.192
-486.449	-62.130	-0.157	0.066
-485.435	-92.141	0.051	-0.015
-484.420	-200.000	0.003	-0.050
-483.405	800.000	-0.112	0.329
-482.391	87.253	0.126	0.141
-481.376	-14.217	0.203	-0.132
-480.362	800.000	-0.091	-0.324
-479.347	-5.413	-0.218	0.151
-478.332	-80.042	-0.173	-0.058
-477.318	106.632	0.157	0.188
-476.303	-172.165	0.085	-0.003
-475.289	-141.988	0.383	-0.039
-474.274	208.898	0.192	-0.304
-473.259	-200.000	0.024	0.110
-472.245	-43.828	-0.357	-0.181
-471.230	611.832	0.094	0.237
-470.216	691.377	-0.081	-0.213
-469.201	219.643	-0.139	-0.224
-468.186	59.147	0.133	0.132
-467.172	144.792	-0.119	-0.160
-466.157	-61.014	0.169	-0.072
-465.143	-49.486	0.296	-0.142
-464.128	146.330	0.170	0.230
-463.113	262.759	0.094	0.165
-462.099	0.990	-0.245	-0.177
-461.084	-200.000	-0.017	0.102
-460.070	82.647	-0.291	0.319
-459.055	22.491	0.197	-0.162
-458.040	78.183	0.156	0.167
-457.026	-76.882	-0.040	0.014
-456.011	-19.134	-0.357	0.224
-454.997	-200.000	0.056	0.327
-453.982	800.000	0.017	0.067
-452.968	92.212	0.222	0.252
-451.953	-132.864	0.257	-0.033
-450.938	79.008	0.085	-0.091
-449.924	135.627	-0.092	-0.120
-448.909	-35.878	0.107	-0.059
-447.895	-200.000	-0.003	0.104
-446.880	462.798	0.063	0.141
-445.865	183.841	-0.187	-0.278
-444.851	787.960	-0.078	-0.215
-443.836	-82.640	-0.309	-0.101
-442.822	-108.461	-0.274	0.059
-441.807	196.259	0.149	-0.228
-440.792	74.996	-0.221	0.234
-439.778	-1.504	0.210	-0.149
-438.763	-14.502	-0.142	-0.092
-437.749	-200.000	-0.075	-0.342
-436.734	-104.478	-0.143	0.033
-435.719	-101.841	0.387	-0.094
-434.705	16.991	0.119	0.095
-433.690	81.105	-0.105	-0.114
-432.676	97.029	-0.125	0.145
-431.661	-200.000	-0.027	-0.137
-430.646	124.656	-0.221	-0.280
-429.632	-26.115	0.136	-0.081
-428.617	-71.422	0.337	0.127
-427.603	800.000	0.044	0.182
-426.588	58.236	0.134	-0.132
-425.573	-90.442	-0.097	0.028
-424.559	23.835	0.177	0.147
-423.544	800.000	-0.038	-0.110
-422.530	374.053	0.111	0.227
-421.515	-133.987	0.146	-0.018
-420.500	30.078	0.136	0.117
-419.486	113.261	-0.037	-0.045
-418.471	-120.134	0.484	-0.083
-417.457	69.578	0.205	0.213
-416.442	25.671	0.161	-0.135
-415.428	48.648	-0.194	0.183
-414.413	177.493	0.101	-0.149
-413.398	-19.269	-0.051	0.032
-412.384	22.005	0.178	-0.146
-411.369	-84.685	0.282	0.089
-410.355	-200.000	-0.015	0.391
-409.340	-63.195	0.324	-0.134
-408.325	800.000	0.132	-0.396
-407.311	-110.665	-0.194	-0.040
-406.296	-23.618	-0.149	-0.090
-405.282	243.098	0.074	0.125
-404.267	60.466	-0.183	0.182
-403.252	-200.000	-0.009	0.084
-402.238	-137.106	0.208	-0.024
-401.223	-123.353	-0.069	-0.011
-400.209	293.838	-0.127	0.234
-399.194	-200.000	-0.096	0.465
-398.179	558.576	0.042	-0.101
-397.165	-91.259	0.168	0.048
-396.150	-44.994	0.053	-0.027
-395.136	290.493	0.189	0.345
-394.121	119.587	0.178	0.221
-393.106	-95.852	-0.426	-0.114
-392.092	-141.380	0.090	-0.009
-391.077	385.708	0.085	0.177
-390.063	-123.671	0.200	0.032
-389.048	545.205	-0.024	-0.059
-388.033	61.576	0.135	-0.135
-387.019	585.440	-0.100	-0.247
-386.004	-200.000	0.028	-0.445
-384.990	310.049	0.167	0.313
-383.975	-27.205	-0.161	-0.094
-382.960	161.490	0.060	0.085
-381.946	177.818	0.196	0.287
-380.931	-63.888	-0.318	-0.131
-379.917	125.594	0.170	-0.215
-378.902	-28.148	0.299	0.173
-377.888	32.078	0.194	0.168
-376.873	-200.000	-0.003	-0.029
-375.858	800.000	0.024	0.105
-374.844	-138.757	0.244	0.027
-373.829	-200.000	0.013	-0.406
-372.815	177.202	0.130	-0.191
-371.800	95.365	-0.100	-0.115
-370.785	-178.684	-0.016	0.000
-369.771	707.435	-0.115	0.306
-368.756	-13.177	-0.398	0.259
-367.742	-49.652	0.083	0.040
-366.727	161.072	-0.054	-0.076
-365.712	37.655	-0.088	-0.078
-364.698	108.682	0.207	-0.248
-363.683	-115.933	-0.142	0.027
-362.669	-200.000	0.010	-0.065
-361.654	-200.000	-0.044	-0.203
-360.639	-4.128	-0.176	-0.123
-359.625	242.244	-0.055	0.092
-358.610	-45.468	-0.094	-0.047
-357.596	76.718	0.075	-0.080
-356.581	106.843	0.088	-0.104
-355.566	800.000	0.052	-0.165
-354.552	800.000	-0.024	-0.066
-353.537	372.958	-0.121	-0.247
-352.523	63.401	0.066	-0.066
-351.508	-99.334	0.162	-0.041
-350.493	-101.554	0.070	0.017
-349.479	120.477	-0.178	0.222
-348.464	800.000	0.102	0.295
-347.450	-39.783	0.068	0.035
-346.435	283.380	-0.223	-0.401
-345.420	-24.303	-0.216	0.130
-344.406	-200.000	-0.000	-0.173
-343.391	83.132	-0.232	0.254
-342.377	642.219	-0.129	0.330
-341.362	-200.000	0.031	0.222
-340.348	221.699	-0.249	-0.402
-339.333	-93.550	0.312	-0.086
-338.318	-200.000	-0.023	0.119
-337.304	-75.666	-0.257	0.092
-336.289	238.440	0.082	0.137
-335.275	-6.839	-0.160	-0.109
-334.260	-43.223	0.160	0.081
-333.245	800.000	-0.063	0.246
-332.231	25.205	0.178	-0.149
-331.216	26.721	-0.052	0.043
-330.202	194.335	0.190	0.289
-329.187	-49.884	-0.206	0.098
-328.172	143.270	-0.095	-0.126
-327.158	-200.000	-0.040	-0.228
-326.143	-147.594	0.279	0.024
-325.129	-200.000	0.041	-0.287
-324.114	-200.000	-0.036	0.183
-323.099	77.279	0.117	-0.125
-322.085	800.000	0.040	-0.120
-321.070	137.782	-0.200	-0.262
-320.056	26.705	-0.079	0.066
-319.041	-45.194	-0.177	-0.088
-318.026	-119.164	0.183	0.032
-317.012	-151.047	-0.283	-0.021
-315.997	-64.039	-0.312	0.127
-314.983	150.963	0.097	0.132
-313.968	-193.601	-0.130	0.001
-312.953	800.000	-0.019	-0.070
-311.939	69.397	-0.183	0.189
-310.924	-100.109	0.110	-0.028
-309.910	-136.511	-0.053	0.006
-308.895	-111.872	-0.090	0.018
-307.880	74.015	0.101	-0.107
-306.866	-11.798	0.210	-0.138
-305.851	87.276	0.288	0.319
-304.837	101.595	-0.212	0.248
-303.822	216.947	-0.228	0.363
-302.807	800.000	0.050	0.220
-301.793	61.087	-0.045	0.045
-300.778	37.581	0.281	0.250
-299.764	60.136	0.207	0.205
-298.749	-73.650	-0.260	-0.095
-297.735	-46.523	-0.229	0.112
-296.720	-200.000	0.038	-0.266
-295.705	57.831	0.110	0.108
-294.691	-60.821	0.056	-0.024
-293.676	-200.000	-0.025	-0.134
-292.662	-200.000	0.027	-0.261
-291.647	-40.972	0.154	-0.080
-290.632	296.266	0.184	-0.338
-289.618	-200.000	-0.004	-0.054
-288.603	122.550	-0.209	-0.261
-287.589	211.402	0.095	0.150
-286.574	-83.124	-0.046	-0.015
-285.559	800.000	-0.029	0.097
-284.545	18.499	0.120	-0.096
-283.530	-104.485	0.301	-0.070
-282.516	-120.502	0.161	0.027
-281.501	41.681	0.053	0.048
-280.486	65.946	-0.226	0.229
-279.472	-122.187	-0.062	0.010
-278.457	-143.694	-0.187	0.018
-277.443	91.693	0.068	-0.076
-276.428	-20.865	0.266	0.163
-275.413	-14.374	0.125	0.080
-274.399	-56.850	0.029	0.013
-273.384	-131.541	0.418	-0.055
-272.370	551.687	0.116	0.279
-271.355	229.032	-0.063	-0.103
-270.340	-200.000	0.024	-0.122
-269.326	-115.987	-0.056	0.010
-268.311	-200.000	-0.037	0.270
-267.297	-23.900	-0.196	0.117
-266.282	40.301	-0.128	-0.115
-265.267	800.000	0.079	0.262
-264.253	23.444	-0.147	0.121
-263.238	19.535	0.244	0.196
-262.224	-86.107	0.237	0.073
-261.209	-200.000	0.030	-0.242
-260.195	-37.756	-0.108	0.058
-259.180	77.942	-0.391	0.417
-258.165	800.000	0.039	-0.115
-257.151	-8.692	-0.205	0.138
-256.136	-122.720	-0.128	0.021
-255.122	93.717	0.105	0.119
-254.107	28.179	0.187	-0.158
-253.092	-94.123	0.138	-0.038
-252.078	-24.088	0.051	-0.030
-251.063	800.000	0.137	0.385
-250.049	420.888	-0.230	0.493
-249.034	-123.854	0.051	0.008
-248.019	-15.058	0.180	0.115
-247.005	-200.000	0.060	-0.293
-245.990	-29.724	0.069	0.039
-244.976	-200.000	0.043	-0.321
-243.961	152.368	0.234	-0.319
-242.946	84.580	-0.191	-0.209
-241.932	-54.231	0.250	-0.113
-240.917	173.882	-0.135	0.195
-239.903	112.057	0.157	0.190
-238.888	295.451	-0.134	0.246
-237.873	-200.000	-0.019	0.123
-236.859	395.249	0.111	0.232
-235.844	-200.000	-0.005	0.150
-234.830	659.438	-0.064	-0.164
-233.815	651.112	-0.066	-0.168
-232.800	-29.748	-0.344	-0.196
-231.786	-200.000	-0.001	0.209
-230.771	-200.000	-0.054	0.326
-229.757	-37.284	0.320	-0.171
-228.742	-47.285	0.516	0.251
-227.727	417.140	-0.087	0.185
-226.713	113.172	0.247	0.299
-225.698	-0.059	-0.266	-0.189
-224.684	-200.000	0.013	-0.111
-223.669	-200.000	0.009	-0.175
-222.655	625.152	0.019	-0.048
-221.640	249.436	-0.023	-0.039
-220.625	388.129	-0.057	0.117
-219.611	-18.220	-0.260	-0.162
-218.596	124.681	0.150	-0.188
-217.582	-87.058	0.080	0.024
-216.567	76.910	-0.142	-0.151
-215.552	-66.574	0.357	-0.141
-214.538	-45.065	0.036	-0.018
-213.523	-200.000	0.002	0.256
-212.509	-100.523	0.122	0.030
-211.494	-31.578	0.272	0.153
-210.479	460.133	0.071	-0.158
-209.465	17.552	-0.089	-0.071
-208.450	22.315	0.246	-0.200
-207.436	800.000	-0.090	-0.320
-206.421	-13.112	0.108	-0.070
-205.406	-109.019	0.317	0.067
-204.392	-102.576	0.078	0.019
-203.377	-66.765	-0.199	0.079
-202.363	-58.532	0.472	-0.204
-201.348	-18.224	-0.076	-0.047
-200.333	-0.641	0.049	0.035
-199.319	-196.152	-0.482	-0.003
-198.304	-200.000	0.019	0.335
-197.290	-48.332	-0.143	0.069
-196.275	-108.339	0.300	-0.065
-195.260	28.273	-0.119	0.100
-194.246	702.541	0.028	-0.073
-193.231	311.249	0.023	-0.043
-192.217	89.337	0.217	-0.241
-191.202	-122.562	-0.160	-0.026
-190.187	-98.829	-0.383	-0.097
-189.173	56.239	0.072	-0.070
-188.158	50.392	0.078	-0.073
-187.144	-14.148	0.159	-0.102
-186.129	-37.026	-0.159	0.085
-185.114	-126.805	-0.163	-0.024
-184.100	179.782	0.134	-0.196
-183.085	-30.154	-0.238	0.135
-182.071	-142.510	-0.231	-0.023
-181.056	29.827	0.176	-0.150
-180.042	-45.261	0.169	-0.084
-179.027	103.509	-0.069	0.080
-178.012	320.264	-0.036	-0.068
-176.998	800.000	0.030	0.118
-175.983	-103.840	-0.144	-0.034
-174.969	0.365	-0.299	-0.213
-173.954	-200.000	0.002	-0.021
-172.939	-44.002	0.223	0.112
-171.925	-129.900	0.179	-0.024
-170.910	30.091	0.127	0.108
-169.896	-200.000	0.025	0.227
-168.881	-200.000	0.015	0.190
-167.866	-56.663	-0.066	0.029
-166.852	78.244	0.091	-0.097
-165.837	-200.000	0.055	-0.272
-164.823	-87.119	-0.089	0.027
-163.808	238.062	-0.202	-0.333
-162.793	610.261	0.090	-0.224
-161.779	33.192	-0.064	0.055
-160.764	-138.380	-0.080	-0.009
-159.750	-78.224	0.291	0.100
-158.735	-80.701	-0.033	-0.011
-157.720	-117.260	-0.169	0.031
-156.706	115.109	0.135	-0.164
-155.691	6.895	0.093	0.069
-154.677	-200.000	-0.025	0.290
-153.662	13.143	-0.307	0.237
-152.647	186.775	-0.102	0.151
-151.633	-200.000	0.070	-0.359
-150.618	-200.000	-0.030	-0.251
-149.604	80.289	0.118	0.127
-148.589	29.449	-0.196	0.165
-147.574	-200.000	0.053	-0.257
-146.560	-79.602	-0.307	-0.103
-145.545	-104.609	0.079	0.018
-144.531	735.648	-0.077	-0.206
-143.516	-200.000	-0.006	-0.150
-142.502	-9.983	0.121	0.080
-141.487	-133.133	0.326	0.041
-140.472	117.890	-0.075	0.091
-139.458	14.103	0.054	-0.041
-138.443	-190.064	0.193	0.002
-137.429	298.982	0.032	-0.058
-136.414	-200.000	-0.032	-0.217
-135.399	-101.623	0.069	-0.017
-134.385	-200.000	0.048	0.266
-133.370	-57.409	-0.153	0.067
-132.356	-200.000	0.015	0.263
-131.341	76.491	0.112	-0.118
-130.326	-189.410	0.288	-0.003
-129.312	37.468	0.069	0.061
-128.297	-76.123	0.072	-0.025
-127.283	-92.783	-0.143	-0.040
-126.268	61.212	-0.106	0.105
-125.253	-174.349	0.101	-0.003
-124.239	512.030	0.099	0.228
-123.224	144.241	0.205	-0.272
-122.210	403.051	0.097	0.203
-121.195	166.208	0.159	-0.224
-120.180	-200.000	0.040	0.182
-119.166	176.713	-0.031	-0.045
-118.151	-140.607	0.133	-0.014
-117.137	150.119	-0.123	-0.165
-116.122	33.529	0.152	-0.131
-115.107	94.261	0.170	-0.191
-114.093	-200.000	0.022	-0.099
-113.078	-86.246	0.124	-0.038
-112.064	312.430	0.142	0.266
-111.049	-200.000	0.001	0.011
-110.034	-200.000	0.042	-0.257
-109.020	-105.424	0.224	-0.051
-108.005	-127.774	-0.120	0.017
-106.991	-90.866	-0.213	-0.061
-105.976	-200.000	0.005	0.073
-104.962	38.133	-0.109	0.096
-103.947	51.162	0.190	0.179
-102.932	800.000	0.123	0.340
-101.918	-134.239	-0.122	-0.015
-100.903	-200.000	-0.065	-0.339
-99.889	800.000	0.098	-0.360
-98.874	-161.022	0.241	-0.013
-97.859	-102.555	0.407	0.097
-96.845	-10.315	-0.115	0.076
-95.830	800.000	-0.087	0.243
-94.816	-129.199	0.257	0.036
-93.801	-200.000	-0.015	0.127
-92.786	-8.431	0.252	0.169
-91.772	3.692	0.226	-0.164
-90.757	-75.425	-0.289	0.102
-89.743	800.000	-0.002	-0.007
-88.728	-124.705	0.141	-0.022
-87.713	102.984	0.183	0.213
-86.699	-200.000	-0.005	0.228
-85.684	278.010	-0.082	-0.145
-84.670	-200.000	0.028	-0.258
-83.655	-200.000	-0.034	-0.320
-82.640	545.734	0.080	-0.191
-81.626	-21.811	0.198	0.119
-80.611	-200.000	-0.024	-0.422
-79.597	165.110	-0.123	-0.172
-78.582	304.780	-0.025	0.046
-77.567	-53.087	0.240	0.110
-76.553	-29.609	-0.092	0.052
-75.538	311.684	-0.101	-0.187
-74.524	113.296	-0.090	0.109
-73.509	-200.000	-0.010	0.188
-72.494	-200.000	-0.009	-0.091
-71.480	20.612	0.239	0.192
-70.465	-97.167	-0.320	0.083
-69.451	-200.000	-0.013	0.286
-68.436	428.812	-0.064	-0.137
-67.422	-37.733	0.185	-0.098
-66.407	75.737	-0.120	0.126
-65.392	-41.890	0.296	0.151
-64.378	800.000	-0.022	-0.082
-63.363	130.913	0.181	-0.230
-62.349	468.909	0.115	-0.256
-61.334	64.669	-0.796	-0.796
-60.319	-200.000	0.107	0.526
-59.305	535.943	-0.480	-1.129
-58.290	43.398	0.588	0.533
-57.276	332.196	0.842	1.613
-56.261	-200.000	95.438	571.845
-55.246	644.463	1383.312	3500.161
-54.232	187.004	2595.190	3835.667
-53.217	124.225	2184.099	2722.314
-52.203	47.609	1638.521	1515.521
-51.188	39.188	1373.377	1218.337
-50.173	35.751	1331.248	1160.226
-49.159	56.551	1379.340	1330.303
-48.144	61.345	1397.210	1376.870
-47.130	39.422	1351.622	1200.279
-46.115	35.792	1333.889	1162.591
-45.100	35.527	1329.192	1156.858
-44.086	35.395	1327.045	1154.151
-43.071	35.392	1324.840	1152.166
-42.057	35.431	1322.322	1150.163
-41.042	35.482	1320.394	1148.746
-40.027	35.616	1318.320	1147.696
-39.013	35.518	1316.933	1145.858
-37.998	35.585	1315.315	1144.805
-36.984	35.660	1313.162	1143.334
-35.969	35.603	1311.577	1141.572
-34.954	35.712	1309.252	1140.147
-33.940	35.646	1308.024	1138.639
-32.925	35.787	1307.222	1138.734
-31.911	35.751	1305.515	1136.988
-30.896	35.771	1304.149	1135.870
-29.881	35.798	1302.796	1134.807
-28.867	35.788	1301.194	1133.307
-27.852	35.742	1300.369	1132.271
-26.838	35.773	1298.552	1130.829
-25.823	35.688	1297.169	1129.081
-24.809	35.707	1295.554	1127.738
-23.794	35.731	1294.289	1126.735
-22.779	35.788	1292.839	1125.762
-21.765	35.777	1291.566	1124.542
-20.750	35.619	1290.311	1122.482
-19.736	35.596	1289.087	1121.239
-18.721	35.509	1288.329	1120.030
-17.706	35.604	1286.379	1118.845
-16.692	35.631	1285.311	1118.028
-15.677	35.632	1283.990	1116.841
-14.663	35.458	1283.846	1115.657
-13.648	35.535	1282.170	1114.605
-12.633	35.487	1281.307	1113.529
-11.619	35.530	1280.298	1112.858
-10.604	35.505	1279.569	1112.036
-9.590	35.413	1278.643	1110.658
-8.575	35.558	1277.556	1110.504
-7.560	35.539	1276.790	1109.685
-6.546	35.495	1276.008	1108.709
-5.531	35.555	1274.573	1107.762
-4.517	35.564	1273.875	1107.165
-3.502	35.558	1272.951	1106.286
-2.487	35.517	1272.169	1105.321
-1.473	35.461	1267.760	1101.128
-0.458	33.708	1251.673	1077.170
0.556	30.863	1231.535	1029.049
1.571	25.894	1234.083	1003.496
2.586	24.284	1247.802	1005.490
3.600	22.625	1236.168	986.753
4.615	16.891	1163.516	898.380
5.629	8.958	1088.322	800.777
6.644	5.398	1068.109	768.365
7.659	5.051	1065.606	764.798
8.673	5.130	1064.598	764.396
9.688	5.101	1063.569	763.448
10.702	5.230	1061.438	762.480
11.717	9.261	1066.928	786.101
12.731	17.222	1077.886	833.298
13.746	21.559	1083.167	858.631
14.761	21.623	1082.941	858.687
15.775	20.716	1080.770	852.452
16.790	19.697	1079.052	846.034
17.804	18.860	1077.647	840.764
18.819	18.667	1076.394	838.769
19.834	18.446	1075.683	837.060
20.848	18.379	1074.630	835.840
21.863	18.201	1074.059	834.454
22.877	18.009	1073.263	832.828
23.892	18.035	1072.330	832.156
24.907	17.994	1071.803	831.474
25.921	17.919	1070.976	830.395
26.936	18.072	1069.071	829.584
27.950	18.127	1067.960	828.919
28.965	18.119	1066.247	827.473
29.980	18.208	1065.480	827.238
30.994	18.314	1064.222	826.702
32.009	18.323	1063.168	825.850
33.023	18.250	1062.093	824.593
34.038	18.226	1060.566	823.218
35.053	18.048	1060.186	821.991
36.067	18.097	1059.522	821.642
37.082	18.187	1058.361	821.099
38.096	18.347	1057.731	821.306
39.111	18.285	1057.113	820.457
40.126	17.977	1056.055	818.089
41.140	17.855	1054.134	815.946
42.155	17.785	1053.107	814.743
43.169	17.638	1051.886	813.024
44.184	17.640	1051.323	812.530
45.199	17.671	1049.920	811.519
46.213	17.978	1048.610	811.892
47.228	18.014	1048.054	811.562
48.242	18.151	1046.976	811.305
49.257	18.012	1046.640	810.312
50.271	18.121	1045.616	809.967
51.286	18.129	1044.583	809.131
52.301	18.227	1043.104	808.379
53.315	18.046	1042.078	806.658
54.330	17.927	1040.927	805.134
55.344	17.874	1040.260	804.295
56.359	17.958	1039.489	804.025
57.374	17.950	1038.410	803.080
58.388	17.599	1038.084	801.111
59.403	17.788	1036.555	800.747
60.417	17.718	1035.700	799.687
61.432	17.684	1035.351	799.187
62.447	17.634	1034.473	798.203
63.461	17.484	1033.629	796.780
64.476	17.562	1032.601	796.284
65.490	17.559	1031.989	795.723
66.505	17.633	1031.127	795.336
67.520	17.692	1030.757	795.256
68.534	17.625	1029.906	794.216
69.549	17.571	1028.982	793.180
70.563	17.505	1028.204	792.204
71.578	17.409	1027.386	791.060
72.593	17.425	1026.509	790.388
73.607	17.391	1025.822	789.632
74.622	17.452	1025.163	789.336
75.636	17.460	1024.883	789.087
76.651	17.541	1023.624	788.422
77.666	17.498	1023.169	787.803
78.680	17.648	1022.402	787.839
79.695	17.571	1022.313	787.345
80.709	17.783	1021.220	787.410
81.724	17.780	1020.653	786.891
82.739	17.796	1019.972	786.367
83.753	18.070	1018.923	786.753
84.768	18.377	1018.610	787.854
85.782	18.439	1017.676	787.347
86.797	18.318	1016.965	786.172
87.812	18.094	1016.037	784.358
88.826	18.197	1015.015	783.968
89.841	18.202	1014.105	783.218
90.855	18.243	1013.076	782.545
91.870	18.390	1012.163	782.439
92.884	18.435	1011.305	781.913
93.899	18.347	1010.678	780.957
94.914	18.430	1010.106	780.826
95.928	18.515	1008.477	779.883
96.943	18.244	1008.060	778.262
97.957	18.171	1007.034	777.067
98.972	18.304	1006.262	777.007
99.987	18.378	1005.066	776.351
101.001	18.256	1004.532	775.315
102.016	18.230	1003.836	774.592
103.030	18.285	1002.763	773.944
104.045	18.356	1001.812	773.461
105.060	18.220	1001.052	772.194
106.074	17.975	999.959	770.180
107.089	17.577	999.161	767.703
108.103	17.662	997.910	767.057
109.118	17.830	996.851	766.929
110.133	17.575	996.340	765.323
111.147	17.629	995.455	764.818
112.162	17.729	994.522	764.481
113.176	17.892	993.760	764.560
114.191	17.765	993.270	763.545
115.206	17.914	992.195	763.316
116.220	17.836	991.361	762.261
117.235	17.790	990.412	761.257
118.249	17.729	989.799	760.444
119.264	17.644	988.950	759.346
120.279	17.677	988.194	758.848
121.293	17.552	987.187	757.450
122.308	17.541	986.283	756.639
123.322	17.486	985.325	755.594
124.337	17.542	984.025	754.780
125.352	17.462	983.392	753.873
126.366	17.478	982.287	753.030
127.381	17.515	981.026	752.159
128.395	17.657	980.217	752.101
129.410	17.630	979.568	751.414
130.424	17.657	979.023	751.049
131.439	17.797	978.398	751.120
132.454	17.892	977.350	750.671
133.468	17.871	976.761	750.055
134.483	17.901	975.811	749.393
135.497	17.904	974.600	748.411
136.512	17.918	973.960	747.916
137.527	17.888	972.958	746.946
138.541	17.868	972.551	746.483
139.556	17.903	971.797	745.989
140.570	18.207	971.367	746.921
141.585	18.247	970.430	746.308
142.600	18.232	970.052	745.888
143.614	18.235	968.922	744.965
144.629	18.378	968.099	744.888
145.643	18.407	966.927	744.045
146.658	18.166	965.681	741.976
147.673	17.988	965.269	740.822
148.687	18.012	963.664	739.628
149.702	17.817	963.220	738.380
150.716	17.776	962.371	737.484
151.731	17.971	961.600	737.672
152.746	17.945	960.550	736.689
153.760	17.995	960.122	736.511
154.775	18.104	959.631	736.539
155.789	18.079	959.394	736.184
156.804	18.248	958.564	736.209
157.819	18.225	957.760	735.426
158.833	18.209	957.306	734.944
159.848	18.481	956.323	735.293
160.862	18.338	955.164	733.724
161.877	18.083	953.797	731.517
162.892	17.811	952.831	729.550
163.906	17.978	951.937	729.511
164.921	17.896	951.280	728.595
165.935	18.010	950.580	728.478
166.950	18.067	949.381	727.740
167.964	18.066	948.895	727.297
168.979	17.954	948.060	726.117
169.994	18.013	946.888	725.405
171.008	18.132	946.196	725.316
172.023	18.247	945.522	725.223
173.037	18.286	945.624	725.403
174.052	18.269	944.443	724.363
175.067	18.073	943.780	722.960
176.081	17.827	943.532	721.666
177.096	18.094	942.064	721.607
178.110	18.085	941.715	721.237
179.125	17.967	941.585	720.576
180.140	18.172	940.901	720.854
181.154	18.206	940.594	720.697
182.169	18.226	940.121	720.353
183.183	18.363	939.552	720.431
184.198	18.313	938.383	719.261
185.213	18.404	937.984	719.275
186.227	18.387	937.379	718.676
187.242	18.535	937.058	718.987
188.256	18.630	936.225	718.682
189.271	18.604	935.305	717.803
190.286	18.199	934.667	715.555
191.300	17.965	933.490	713.615
192.315	17.832	932.501	712.239
193.329	17.855	932.290	712.111
194.344	17.956	931.743	712.050
195.359	18.130	931.003	712.148
196.373	18.285	930.682	712.485
197.388	18.344	930.456	712.495
198.402	18.657	930.024	713.402
199.417	18.672	929.303	712.847
200.432	18.826	928.578	712.868
201.446	18.904	928.526	713.089
202.461	19.015	928.055	713.125
203.475	18.842	927.273	711.743
204.490	18.769	926.152	710.516
205.504	18.631	925.342	709.264
206.519	18.514	924.699	708.223
207.534	18.568	923.616	707.554
208.548	18.514	923.291	707.019
209.563	18.501	922.836	706.554
210.577	18.724	921.818	706.630
211.592	18.858	921.153	706.611
212.607	18.906	920.545	706.279
213.621	18.860	919.775	705.438
214.636	18.717	919.644	704.687
215.650	18.780	918.454	703.971
216.665	19.015	917.692	704.285
217.680	18.947	917.261	703.616
218.694	18.928	916.920	703.213
219.709	18.832	916.218	702.219
220.723	18.834	915.439	701.570
221.738	18.791	914.706	700.771
222.753	18.997	914.034	701.035
223.767	19.005	913.264	700.414
224.782	19.165	912.929	700.747
225.796	19.164	912.626	700.448
226.811	19.029	911.895	699.275
227.826	18.816	910.780	697.493
228.840	18.864	910.314	697.271
229.855	18.962	908.932	696.547
230.869	18.904	908.478	695.902
231.884	18.820	907.681	694.890
232.899	18.807	907.177	694.393
233.913	18.657	906.516	693.215
234.928	18.641	905.731	692.491
235.942	18.593	905.492	692.053
236.957	18.768	904.377	691.847
237.972	18.707	904.193	691.397
238.986	18.675	903.456	690.645
240.001	18.687	902.815	690.142
241.015	18.842	902.452	690.424
242.030	18.962	901.707	690.276
243.045	19.018	900.972	689.877
244.059	18.983	900.204	689.088
245.074	18.925	900.053	688.678
246.088	19.010	899.342	688.412
247.103	19.197	898.605	688.539
248.117	19.359	898.394	688.961
249.132	19.484	897.978	689.082
250.147	19.579	897.532	689.058
251.161	19.617	896.677	688.489
252.176	19.672	896.168	688.256
253.190	19.847	895.407	688.309
254.205	19.782	895.091	687.747
255.220	19.690	894.385	686.778
256.234	19.696	893.509	686.069
257.249	19.746	892.546	685.466
258.263	19.714	892.129	684.957
259.278	19.806	891.299	684.624
260.293	19.788	890.849	684.149
261.307	19.909	890.457	684.264
262.322	19.944	889.731	683.785
263.336	19.878	889.180	683.040
264.351	19.904	888.188	682.319
265.366	19.924	887.945	682.152
266.380	19.894	887.124	681.344
267.395	19.871	886.148	680.441
268.409	19.755	885.682	679.569
269.424	19.732	884.689	678.656
270.439	19.716	884.038	678.034
271.453	19.690	883.093	677.145
272.468	19.743	882.565	676.891
273.482	19.645	882.233	676.193
274.497	19.765	881.456	676.006
275.512	19.668	881.256	675.414
276.526	19.624	880.588	674.671
277.541	19.687	880.297	674.634
278.555	19.950	879.580	675.050
279.570	20.144	878.929	675.244
280.585	20.065	878.204	674.319
281.599	19.838	877.669	672.968
282.614	19.699	877.023	671.873
283.628	19.675	876.369	671.218
284.643	19.798	875.710	671.133
285.657	19.666	875.271	670.226
286.672	19.685	874.326	669.516
287.687	19.819	873.793	669.566
288.701	19.802	872.861	668.727
289.716	19.928	872.403	668.805
290.730	19.839	872.082	668.155
291.745	19.906	871.425	667.850
292.760	19.962	870.701	667.452
293.774	20.228	870.199	668.034
294.789	20.114	869.376	666.904
295.803	20.054	868.307	665.793
296.818	20.041	868.373	665.738
297.833	19.902	867.602	664.552
298.847	19.887	866.764	663.795
299.862	20.044	866.237	663.934
300.876	20.166	865.799	664.007
301.891	20.120	865.393	663.459
302.906	20.379	864.864	663.987
303.920	20.378	864.102	663.339
304.935	20.481	864.022	663.613
305.949	20.406	862.877	662.390
306.964	20.304	862.322	661.516
307.979	20.214	861.772	660.694
308.993	20.346	861.379	660.835
310.008	20.512	860.448	660.691
311.022	20.292	859.980	659.438
312.037	20.152	859.716	658.645
313.052	20.015	858.609	657.218
314.066	20.055	857.874	656.751
315.081	19.973	857.445	656.055
316.095	20.108	856.494	655.779
317.110	20.045	856.465	655.461
318.125	20.139	855.527	655.039
319.139	19.861	855.799	654.140
320.154	20.051	855.250	654.380
321.168	20.157	854.239	653.948
322.183	20.142	853.870	653.549
323.197	20.068	853.286	652.766
324.212	20.184	853.049	652.965
325.227	20.056	852.203	651.780
326.241	20.105	851.723	651.538
327.256	19.949	851.423	650.665
328.270	20.118	850.665	650.664
329.285	20.044	849.511	649.446
330.300	20.122	849.287	649.509
331.314	20.171	849.110	649.500
332.329	20.349	848.259	649.457
333.343	20.421	847.724	649.258
334.358	20.381	847.458	648.849
335.373	20.474	846.936	648.736
336.387	20.366	847.061	648.373
337.402	20.390	847.288	648.579
338.416	20.616	846.445	648.719
339.431	20.795	845.784	648.821
340.446	20.834	845.460	648.662
341.460	20.835	845.333	648.511
342.475	20.855	845.020	648.287
343.489	20.838	844.320	647.632
344.504	20.989	843.943	647.844
345.519	20.984	843.760	647.630
346.533	20.908	842.792	646.547
347.548	20.811	842.117	645.613
348.562	20.754	841.545	644.903
349.577	20.563	840.690	643.485
350.592	20.609	839.969	643.048
351.606	20.538	839.362	642.263
352.621	20.480	839.001	641.717
353.635	20.714	838.272	641.964
354.650	20.639	838.002	641.425
355.665	20.781	837.074	641.181
356.679	20.801	836.385	640.668
357.694	20.761	836.084	640.235
358.708	20.738	835.174	639.397
359.723	20.750	834.868	639.149
360.738	20.804	834.028	638.650
361.752	20.935	833.812	638.907
362.767	21.078	832.992	638.747
363.781	21.043	832.674	638.316
364.796	21.286	832.192	638.779
365.810	21.356	831.747	638.637
366.825	21.397	831.519	638.556
367.840	21.251	830.976	637.548
368.854	21.156	830.481	636.766
369.869	21.091	830.104	636.184
370.883	21.083	829.820	635.881
371.898	21.244	829.260	635.982
372.913	21.266	828.929	635.751
373.927	21.279	828.013	635.042
374.942	21.223	827.962	634.741
375.956	21.250	827.601	634.505
376.971	21.488	827.002	634.854
377.986	21.538	826.383	634.504
379.000	21.535	825.871	634.045
380.015	21.504	825.630	633.691
381.029	21.471	824.660	632.773
382.044	21.602	824.091	632.754
383.059	21.559	823.708	632.248
384.073	21.451	823.079	631.320
385.088	21.496	822.365	630.877
386.102	21.205	821.845	629.373
387.117	21.169	821.184	628.681
388.132	21.198	820.645	628.318
389.146	21.346	820.140	628.409
390.161	21.432	819.848	628.437
391.175	21.484	819.248	628.107
392.190	21.422	818.512	627.266
393.205	21.545	817.527	626.899
394.219	21.397	817.865	626.571
395.234	21.299	817.534	625.909
396.248	21.003	817.358	624.661
397.263	21.099	816.066	623.960
398.278	21.084	815.865	623.699
399.292	21.115	815.697	623.626
400.307	20.998	815.267	622.822
401.321	21.163	814.539	622.801
402.336	21.456	814.057	623.421
403.350	21.400	813.863	623.017
404.365	21.590	813.372	623.264
405.380	21.689	812.991	623.270
406.394	21.873	812.298	623.337
407.409	21.811	812.129	622.931
408.423	21.708	811.846	622.295
409.438	21.794	811.769	622.486
410.453	21.998	810.928	622.509
411.467	21.998	810.439	622.079
412.482	21.967	810.369	621.860
413.496	22.190	810.284	622.529
414.511	21.914	809.721	621.066
415.526	21.788	809.365	620.290
416.540	21.819	808.372	619.584
417.555	21.974	808.120	619.882
418.569	21.927	807.742	619.375
419.584	22.055	806.870	619.102
420.599	21.991	806.475	618.518
421.613	158.530	1369.883	1787.964
422.628	137.774	1451.984	1788.061
