DTS Sentinel unit serial number:	SN413079Multiplexer serial number:	ORYXHardware model number:	OX4-SRSoftware version number:	ORYX F/W v4.00 Oryx Data Collector v3.7.2.0data status	okinstallation	princeton_trtdifferential loss correction	single-endedforward channel	channel 1reverse channel	N/Adate	2019/09/13time	12:54:35forward acquisition time	60.00reverse acquisition time	0.00gamma	496.2192k internal	0.2306k external	0.2306temperature offset calibration	1.0167default loss term (dB/km)	0.3790temperature slope calibration	1.0000multiplexer offset coefficient	1.0000multiplexer slope coefficient	1.0000fibre end	0.00T internal ref (°C)	34.75T ext. ref 1 (°C)	4.57T ext. ref 2 (°C)	30.50length (m)	temperature (°C)	Stokes	anti-Stokes-747.200	11.062	0.121	-0.094
-746.185	-200.000	-0.042	-0.285
-745.171	62.737	0.147	0.149
-744.156	-47.224	-0.245	0.121
-743.142	0.559	0.188	0.136
-742.127	-61.700	0.285	0.122
-741.112	-25.364	0.078	-0.047
-740.098	-17.212	-0.403	0.258
-739.083	125.458	0.108	-0.138
-738.069	800.000	0.114	0.336
-737.054	-49.236	-0.143	-0.069
-736.039	-60.146	-0.425	0.184
-735.025	-38.054	0.138	0.074
-734.010	-121.175	-0.485	-0.083
-732.996	-52.530	-0.322	-0.152
-731.981	-32.784	-0.186	-0.105
-730.966	-52.443	0.058	0.027
-729.952	622.865	-0.033	-0.084
-728.937	-200.000	0.053	-0.238
-727.923	79.864	-0.077	-0.084
-726.908	27.086	-0.296	0.252
-725.894	517.755	-0.090	0.213
-724.879	-115.437	0.333	0.064
-723.864	115.622	-0.107	-0.133
-722.850	-43.206	-0.211	-0.109
-721.835	66.080	-0.196	-0.202
-720.821	-34.271	-0.232	0.129
-719.806	800.000	-0.045	-0.174
-718.791	-85.120	-0.044	-0.014
-717.777	-184.184	-0.180	0.003
-716.762	81.165	0.043	-0.047
-715.748	-65.797	-0.210	-0.085
-714.733	55.765	-0.164	-0.161
-713.718	-26.246	0.137	-0.082
-712.704	138.555	-0.154	0.205
-711.689	469.227	0.105	-0.239
-710.675	-181.324	0.336	-0.007
-709.660	-94.709	-0.343	0.095
-708.645	128.493	-0.136	0.176
-707.631	222.157	-0.109	-0.179
-706.616	312.024	0.030	0.057
-705.602	800.000	0.044	0.136
-704.587	221.224	-0.155	-0.252
-703.572	-200.000	0.002	-0.195
-702.558	13.434	-0.087	-0.069
-701.543	121.552	-0.058	-0.073
-700.529	-200.000	-0.004	-0.078
-699.514	-200.000	-0.043	-0.233
-698.499	224.122	0.053	0.087
-697.485	-111.182	-0.297	-0.062
-696.470	251.543	-0.217	0.375
-695.456	-132.881	-0.221	-0.029
-694.441	-21.366	-0.138	-0.086
-693.426	-175.982	-0.135	-0.004
-692.412	21.949	-0.409	-0.339
-691.397	-200.000	0.020	0.242
-690.383	-200.000	-0.085	-0.446
-689.368	-200.000	0.057	0.308
-688.354	557.625	-0.017	0.042
-687.339	-155.373	0.193	0.013
-686.324	-64.740	0.233	0.096
-685.310	249.152	-0.043	-0.074
-684.295	138.844	-0.210	-0.281
-683.281	71.386	-0.196	0.206
-682.266	596.042	0.123	0.309
-681.251	247.618	-0.144	0.248
-680.237	53.466	-0.125	-0.122
-679.222	98.195	0.112	0.131
-678.208	614.921	-0.154	-0.391
-677.193	-178.966	0.107	-0.002
-676.178	-35.707	0.165	-0.091
-675.164	800.000	-0.089	-0.303
-674.149	-54.675	-0.255	0.117
-673.135	-129.325	0.060	0.009
-672.120	-181.863	0.087	-0.002
-671.105	155.436	-0.157	0.219
-670.091	-143.137	0.230	0.022
-669.076	800.000	0.043	0.148
-668.062	356.542	0.063	-0.128
-667.047	705.712	0.094	-0.251
-666.032	-200.000	0.002	-0.042
-665.018	-139.713	-0.261	0.028
-664.003	-72.016	-0.040	0.015
-662.989	-200.000	-0.016	0.304
-661.974	656.727	0.114	-0.297
-660.959	86.740	-0.176	-0.197
-659.945	124.414	-0.163	-0.208
-658.930	-200.000	0.024	-0.414
-657.916	643.579	-0.119	-0.307
-656.901	-45.253	-0.251	0.126
-655.886	-61.517	0.091	0.039
-654.872	104.960	-0.067	-0.080
-653.857	-103.840	0.316	0.075
-652.843	-123.358	-0.241	-0.039
-651.828	-57.576	0.130	0.058
-650.814	-63.999	-0.133	0.055
-649.799	-174.700	0.122	0.004
-648.784	-200.000	-0.017	-0.154
-647.770	-200.000	-0.100	-0.555
-646.755	-0.534	0.073	-0.053
-645.741	110.791	-0.141	-0.172
-644.726	151.639	0.080	-0.110
-643.711	-99.541	-0.067	0.017
-642.697	800.000	-0.106	-0.386
-641.682	-161.965	0.198	-0.010
-640.668	158.783	-0.197	0.277
-639.653	-143.319	0.059	-0.006
-638.638	-58.814	0.205	0.090
-637.624	752.594	-0.113	0.310
-636.609	-88.481	-0.151	-0.046
-635.595	36.358	-0.343	0.306
-634.580	16.801	-0.189	-0.151
-633.565	643.553	-0.034	-0.088
-632.551	246.015	0.080	-0.136
-631.536	-60.824	0.228	0.098
-630.522	-90.742	0.169	-0.049
-629.507	542.612	-0.077	-0.186
-628.492	-187.803	0.274	0.004
-627.478	-55.973	-0.201	-0.091
-626.463	121.416	0.240	-0.303
-625.449	18.587	0.153	0.124
-624.434	41.205	-0.193	0.177
-623.419	-175.720	0.248	0.007
-622.405	202.567	-0.159	0.249
-621.390	-172.698	0.348	-0.011
-620.376	-164.656	-0.332	0.015
-619.361	505.062	-0.099	-0.233
-618.346	-200.000	0.058	-0.289
-617.332	-63.656	-0.193	0.080
-616.317	26.591	-0.091	-0.077
-615.303	-200.000	-0.004	0.130
-614.288	-49.285	0.430	0.208
-613.273	671.318	-0.100	-0.262
-612.259	-66.995	-0.063	-0.025
-611.244	-200.000	0.006	-0.397
-610.230	-6.008	-0.221	0.153
-609.215	-155.892	-0.289	0.019
-608.201	504.703	-0.140	-0.327
-607.186	-160.765	0.225	-0.012
-606.171	-83.492	-0.133	-0.043
-605.157	-101.730	-0.409	-0.100
-604.142	800.000	-0.048	-0.196
-603.128	-96.068	-0.157	-0.042
-602.113	-76.571	-0.140	-0.050
-601.098	-24.078	0.367	0.222
-600.084	375.392	-0.075	-0.156
-599.069	-190.333	0.086	-0.001
-598.055	109.641	-0.181	-0.220
-597.040	-200.000	0.033	0.247
-596.025	86.681	0.137	0.153
-595.011	-200.000	-0.004	0.171
-593.996	156.918	-0.129	0.181
-592.982	800.000	0.051	0.212
-591.967	800.000	0.041	-0.125
-590.952	800.000	0.042	0.125
-589.938	-16.992	0.188	-0.120
-588.923	213.931	-0.224	-0.358
-587.909	175.867	-0.149	-0.219
-586.894	-17.421	0.031	-0.020
-585.879	-120.329	0.154	-0.026
-584.865	-200.000	-0.060	0.404
-583.850	256.487	-0.090	0.156
-582.836	117.247	0.064	0.079
-581.821	102.124	-0.245	-0.290
-580.806	-200.000	0.034	0.196
-579.792	-152.890	0.287	0.021
-578.777	84.563	-0.171	-0.189
-577.763	800.000	0.106	-0.369
-576.748	-200.000	0.007	0.331
-575.733	74.155	-0.096	-0.102
-574.719	91.228	-0.147	-0.167
-573.704	366.667	0.080	-0.164
-572.690	240.416	-0.157	0.264
-571.675	13.892	-0.195	-0.153
-570.661	85.868	-0.162	-0.180
-569.646	146.992	-0.089	-0.121
-568.631	35.135	0.121	-0.107
-567.617	800.000	-0.088	-0.334
-566.602	-134.674	-0.117	-0.014
-565.588	61.269	-0.024	0.024
-564.573	-130.049	-0.067	-0.009
-563.558	-200.000	0.007	-0.113
-562.544	-84.358	0.219	-0.070
-561.529	308.458	0.108	-0.203
-560.515	669.923	0.041	-0.106
-559.500	800.000	-0.046	-0.201
-558.485	120.865	-0.084	0.106
-557.471	-163.746	-0.221	-0.010
-556.456	18.358	0.277	-0.223
-555.442	-67.080	0.258	0.103
-554.427	-27.206	0.235	0.138
-553.412	800.000	-0.048	0.159
-552.398	800.000	-0.108	0.311
-551.383	85.317	0.098	-0.108
-550.369	120.053	-0.060	0.076
-549.354	-200.000	0.041	-0.321
-548.339	44.383	-0.125	0.116
-547.325	-56.229	0.245	0.110
-546.310	-107.943	-0.121	0.026
-545.296	-44.702	-0.297	0.150
-544.281	45.603	-0.207	0.193
-543.266	800.000	0.077	0.242
-542.252	-200.000	-0.023	0.325
-541.237	800.000	-0.006	-0.022
-540.223	230.535	-0.010	-0.016
-539.208	434.399	0.099	-0.217
-538.193	206.892	-0.189	-0.298
-537.179	-112.161	-0.208	0.042
-536.164	472.074	-0.025	-0.057
-535.150	-200.000	-0.026	0.403
-534.135	562.996	0.081	-0.199
-533.121	706.571	0.115	0.308
-532.106	5.714	-0.188	-0.140
-531.091	145.751	-0.058	-0.078
-530.077	292.603	-0.098	-0.180
-529.062	158.071	-0.212	0.296
-528.048	-19.283	0.202	-0.127
-527.033	6.244	-0.102	-0.076
-526.018	800.000	-0.021	-0.086
-525.004	65.864	0.158	0.162
-523.989	-200.000	-0.012	0.073
-522.975	25.875	-0.316	-0.266
-521.960	-77.298	0.282	0.099
-520.945	580.317	0.104	-0.258
-519.931	800.000	0.030	0.108
-518.916	272.828	-0.137	-0.245
-517.902	202.978	0.047	-0.074
-516.887	-16.011	-0.136	0.087
-515.872	-92.311	0.305	0.087
-514.858	44.432	-0.151	0.140
-513.843	-100.553	-0.114	-0.028
-512.829	346.441	0.124	0.247
-511.814	-200.000	-0.010	0.181
-510.799	-73.755	-0.093	-0.034
-509.785	14.035	0.451	-0.354
-508.770	-200.000	-0.016	-0.207
-507.756	-107.736	0.122	-0.027
-506.741	-200.000	-0.093	0.499
-505.726	-8.869	0.058	0.039
-504.712	-102.966	0.118	0.028
-503.697	-174.801	0.217	0.006
-502.683	-200.000	0.033	0.203
-501.668	449.319	-0.063	0.139
-500.653	-86.501	-0.456	-0.141
-499.639	-137.830	-0.198	-0.022
-498.624	-44.072	0.169	-0.085
-497.610	5.202	-0.160	-0.119
-496.595	800.000	-0.064	-0.198
-495.581	-83.347	0.309	-0.100
-494.566	-200.000	0.025	-0.143
-493.551	223.984	-0.071	-0.116
-492.537	-100.500	0.170	0.042
-491.522	-200.000	0.003	0.401
-490.508	109.488	0.270	0.326
-489.493	84.469	-0.242	0.267
-488.478	-200.000	0.016	-0.149
-487.464	286.627	-0.231	-0.419
-486.449	-158.899	0.239	0.014
-485.435	-14.467	0.166	-0.108
-484.420	-21.608	-0.327	0.200
-483.405	214.099	-0.231	-0.368
-482.391	-200.000	-0.024	-0.116
-481.376	25.900	-0.044	-0.037
-480.362	172.313	0.035	-0.051
-479.347	130.498	-0.171	-0.221
-478.332	-200.000	0.017	0.128
-477.318	-9.350	-0.069	0.046
-476.303	50.324	0.201	0.191
-475.289	-117.715	0.278	-0.050
-474.274	-200.000	0.038	-0.257
-473.259	-30.851	0.297	0.169
-472.245	-200.000	-0.005	0.282
-471.230	-200.000	0.028	-0.379
-470.216	298.803	0.071	0.132
-469.201	384.724	-0.034	0.070
-468.186	-88.971	0.102	0.030
-467.172	800.000	-0.051	-0.199
-466.157	619.192	-0.138	-0.350
-465.143	-63.757	-0.340	-0.140
-464.128	800.000	-0.038	0.116
-463.113	-5.229	0.254	0.176
-462.099	-200.000	0.072	0.416
-461.084	51.592	0.115	-0.110
-460.070	45.450	-0.211	-0.196
-459.055	707.037	0.097	-0.257
-458.040	-200.000	-0.014	-0.146
-457.026	-200.000	-0.043	0.390
-456.011	-132.477	-0.084	-0.011
-454.997	-23.931	0.086	-0.052
-453.982	-129.271	0.184	0.026
-452.968	-200.000	-0.020	0.260
-451.953	273.800	0.081	0.144
-450.938	-43.895	0.161	0.082
-449.924	34.564	-0.146	0.128
-448.909	470.975	0.070	0.158
-447.895	-23.295	-0.446	-0.270
-446.880	800.000	-0.193	-0.554
-445.865	-95.705	0.023	0.006
-444.851	-200.000	-0.224	0.001
-443.836	40.064	-0.093	0.084
-442.822	254.451	0.069	0.119
-441.807	-172.264	0.302	-0.010
-440.792	47.801	0.147	-0.138
-439.778	-36.567	-0.276	0.149
-438.763	-200.000	0.008	-0.142
-437.749	93.085	0.130	-0.148
-436.734	352.558	-0.152	0.304
-435.719	-200.000	-0.037	0.176
-434.705	9.914	-0.170	-0.130
-433.690	9.672	-0.052	-0.040
-432.676	-136.673	0.296	-0.034
-431.661	331.667	-0.083	-0.160
-430.646	-33.952	0.367	-0.203
-429.632	12.444	0.059	-0.046
-428.617	800.000	-0.088	-0.348
-427.603	583.279	-0.094	-0.233
-426.588	47.044	0.327	0.305
-425.573	10.177	-0.273	0.208
-424.559	30.312	-0.084	0.072
-423.544	-33.904	0.129	0.071
-422.530	-144.189	0.304	-0.029
-421.515	525.522	0.111	-0.263
-420.500	-200.000	-0.038	0.178
-419.486	-61.867	0.098	-0.041
-418.471	-98.940	0.188	-0.048
-417.457	-200.000	0.008	-0.157
-416.442	-82.183	-0.206	-0.068
-415.428	521.112	0.048	-0.113
-414.413	800.000	-0.042	0.176
-413.398	39.104	0.119	-0.107
-412.384	-112.476	0.200	0.040
-411.369	357.322	-0.087	0.174
-410.355	800.000	0.075	0.228
-409.340	50.262	-0.148	-0.141
-408.325	124.479	-0.101	0.128
-407.311	359.215	-0.115	0.231
-406.296	-95.117	0.184	0.050
-405.282	50.008	-0.252	-0.239
-404.267	69.673	0.211	-0.218
-403.252	800.000	-0.095	0.349
-402.238	63.946	-0.312	0.315
-401.223	599.479	-0.126	0.314
-400.209	-149.804	0.338	0.027
-399.194	-125.772	0.217	-0.033
-398.179	-134.057	-0.384	-0.048
-397.165	24.403	0.230	0.191
-396.150	-11.633	-0.148	-0.098
-395.136	-200.000	-0.006	-0.060
-394.121	-105.890	0.081	-0.018
-393.106	28.416	-0.010	-0.009
-392.092	488.657	-0.109	0.250
-391.077	441.489	-0.061	-0.133
-390.063	-134.023	0.165	-0.021
-389.048	227.940	0.079	0.129
-388.033	-10.640	-0.196	-0.130
-387.019	-200.000	-0.001	-0.215
-386.004	-21.164	-0.292	-0.179
-384.990	800.000	-0.030	-0.129
-383.975	261.233	0.103	-0.179
-382.960	-131.960	-0.298	-0.039
-381.946	-200.000	0.055	-0.344
-380.931	-16.895	0.110	0.070
-379.917	184.187	0.093	-0.138
-378.902	-200.000	0.022	-0.167
-377.888	19.423	-0.047	-0.038
-376.873	800.000	0.093	0.367
-375.858	800.000	-0.127	0.500
-374.844	-76.766	0.237	-0.083
-373.829	-68.684	-0.126	-0.049
-372.815	800.000	-0.088	0.245
-371.800	9.211	-0.417	0.316
-370.785	420.335	-0.183	0.393
-369.771	-84.159	0.153	0.049
-368.756	-52.653	0.034	0.016
-367.742	-197.254	0.247	0.002
-366.727	800.000	0.028	-0.103
-365.712	27.411	0.012	-0.010
-364.698	-78.302	-0.219	-0.075
-363.683	-200.000	-0.021	0.154
-362.669	800.000	0.072	-0.250
-361.654	-123.859	-0.109	-0.017
-360.639	-40.885	0.211	-0.110
-359.625	54.307	-0.230	0.222
-358.610	70.853	0.150	0.156
-357.596	-200.000	-0.024	0.143
-356.581	199.935	-0.044	-0.067
-355.566	-122.104	0.328	0.054
-354.552	134.079	0.232	-0.302
-353.537	-200.000	0.022	0.172
-352.523	-134.667	-0.274	-0.033
-351.508	-185.419	0.112	0.002
-350.493	-88.238	0.029	-0.009
-349.479	481.345	0.086	-0.196
-348.464	-67.716	0.181	0.071
-347.450	-116.089	0.263	0.049
-346.435	-200.000	-0.028	-0.295
-345.420	-115.994	-0.271	0.051
-344.406	-73.783	-0.246	-0.090
-343.391	800.000	0.049	-0.198
-342.377	63.713	-0.092	-0.092
-341.362	-4.511	0.125	-0.086
-340.348	-200.000	-0.009	0.119
-339.333	-112.327	0.249	-0.050
-338.318	556.731	-0.104	0.252
-337.304	-73.681	-0.422	0.154
-336.289	-117.264	-0.288	-0.052
-335.275	-200.000	-0.004	-0.403
-334.260	45.655	-0.191	-0.177
-333.245	800.000	-0.010	-0.028
-332.231	112.755	-0.105	-0.128
-331.216	-73.218	0.259	0.095
-330.202	-103.925	-0.170	-0.040
-329.187	-63.674	0.304	-0.125
-328.172	415.546	-0.024	0.052
-327.158	-200.000	-0.009	-0.611
-326.143	800.000	0.082	-0.314
-325.129	800.000	0.033	-0.120
-324.114	-28.159	0.269	-0.156
-323.099	-77.015	-0.077	0.027
-322.085	91.130	-0.074	0.083
-321.070	-200.000	0.029	0.228
-320.056	52.130	0.160	0.152
-319.041	-71.694	0.361	0.135
-318.026	-104.788	-0.195	-0.045
-317.012	-200.000	-0.058	-0.287
-315.997	348.622	-0.131	0.259
-314.983	-51.514	0.296	0.139
-313.968	-133.829	-0.453	0.056
-312.953	-38.693	-0.077	-0.040
-311.939	95.918	0.207	0.237
-310.924	-200.000	0.029	0.229
-309.910	250.878	-0.015	-0.026
-308.895	-200.000	0.005	-0.033
-307.880	-28.410	0.111	0.064
-306.866	-3.527	-0.339	0.236
-305.851	-78.483	0.270	0.093
-304.837	-135.543	-0.214	0.025
-303.822	11.491	0.103	0.079
-302.807	-200.000	-0.024	0.167
-301.793	-165.281	0.234	-0.010
-300.778	-114.454	0.231	0.044
-299.764	800.000	0.119	0.365
-298.749	-103.851	-0.235	-0.055
-297.735	-200.000	-0.007	0.123
-296.720	-200.000	-0.054	-0.507
-295.705	-113.820	-0.344	0.067
-294.691	-200.000	0.034	0.178
-293.676	-136.353	0.067	-0.008
-292.662	-50.789	-0.080	-0.038
-291.647	100.092	-0.112	-0.129
-290.632	10.729	0.100	0.076
-289.618	-7.524	0.278	0.188
-288.603	-200.000	-0.021	0.133
-287.589	132.297	-0.042	-0.054
-286.574	-18.811	0.035	0.022
-285.559	-80.412	-0.312	-0.104
-284.545	-7.247	0.140	0.095
-283.530	242.146	-0.204	0.341
-282.516	800.000	-0.076	0.277
-281.501	172.072	0.178	0.256
-280.486	-44.372	0.398	0.199
-279.472	800.000	0.065	0.276
-278.457	238.491	0.057	0.095
-277.443	-108.086	0.312	-0.068
-276.428	-119.707	0.120	-0.021
-275.413	-142.917	0.244	0.024
-274.399	-200.000	0.034	-0.159
-273.384	148.905	0.122	0.164
-272.370	-8.107	0.146	-0.098
-271.355	800.000	0.054	-0.170
-270.340	800.000	-0.031	-0.122
-269.326	-17.026	0.265	0.167
-268.311	8.063	-0.075	0.056
-267.297	-16.715	0.165	0.104
-266.282	800.000	0.046	-0.129
-265.267	-16.650	0.234	0.148
-264.253	-200.000	-0.020	-0.265
-263.238	-41.094	0.247	-0.127
-262.224	156.189	-0.191	-0.263
-261.209	800.000	0.135	0.430
-260.195	-95.618	0.319	0.085
-259.180	108.662	-0.175	0.209
-258.165	-200.000	0.036	0.258
-257.151	-93.068	0.248	0.069
-256.136	-141.854	0.160	-0.016
-255.122	800.000	-0.017	0.051
-254.107	124.712	-0.154	0.193
-253.092	-186.891	0.081	-0.001
-252.078	-24.360	-0.149	-0.089
-251.063	-14.468	0.158	0.101
-250.049	-117.735	-0.265	0.048
-249.034	-68.718	0.150	-0.058
-248.019	-200.000	-0.016	-0.116
-247.005	800.000	-0.055	0.165
-245.990	26.564	0.100	-0.084
-244.976	26.080	-0.305	-0.254
-243.961	63.764	-0.173	0.174
-242.946	-64.447	0.263	-0.107
-241.932	-26.959	0.206	-0.120
-240.917	679.729	0.124	0.322
-239.903	-138.273	-0.116	-0.013
-238.888	-200.000	-0.005	0.257
-237.873	75.539	-0.152	-0.160
-236.859	-200.000	-0.006	-0.461
-235.844	218.669	-0.031	-0.050
-234.830	-91.249	0.114	-0.032
-233.815	800.000	0.032	-0.120
-232.800	800.000	-0.033	-0.094
-231.786	-109.039	-0.117	-0.025
-230.771	-187.326	-0.325	-0.004
-229.757	-200.000	-0.034	0.254
-228.742	-82.178	-0.134	0.044
-227.727	-65.850	-0.148	-0.059
-226.713	-106.331	-0.041	-0.009
-225.698	196.250	-0.069	0.105
-224.684	78.284	-0.032	-0.034
-223.669	-100.182	-0.243	-0.060
-222.655	-145.748	-0.522	0.046
-221.640	558.491	0.086	-0.207
-220.625	173.043	0.058	0.083
-219.611	-200.000	-0.026	-0.128
-218.596	244.853	0.139	0.233
-217.582	-200.000	-0.018	0.114
-216.567	800.000	-0.094	-0.291
-215.552	78.480	0.250	-0.266
-214.538	-142.190	-0.170	0.017
-213.523	-16.218	-0.041	0.026
-212.509	25.204	0.192	-0.159
-211.494	23.081	-0.160	0.131
-210.479	-86.249	0.586	-0.180
-209.465	-103.489	-0.103	0.024
-208.450	-29.468	0.032	0.018
-207.436	444.120	0.076	0.166
-206.421	21.124	-0.113	-0.091
-205.406	-200.000	-0.068	0.317
-204.392	50.326	0.164	-0.154
-203.377	-150.770	0.317	0.024
-202.363	-133.621	0.022	0.003
-201.348	-80.058	-0.217	-0.073
-200.333	7.729	-0.111	-0.083
-199.319	52.709	-0.297	-0.283
-198.304	-99.977	0.181	-0.045
-197.290	-83.022	-0.174	-0.056
-196.275	37.395	0.259	-0.229
-195.260	-107.142	0.272	0.060
-194.246	164.218	0.096	0.135
-193.231	105.526	0.123	-0.144
-192.217	-93.401	0.343	-0.095
-191.202	355.181	-0.161	0.319
-190.187	-50.831	0.138	-0.064
-189.173	-152.365	0.131	-0.009
-188.158	-200.000	-0.001	0.154
-187.144	72.902	-0.241	-0.250
-186.129	52.498	-0.243	0.231
-185.114	6.656	0.259	0.192
-184.100	-200.000	0.026	0.291
-183.085	-6.761	-0.219	0.148
-182.071	556.597	-0.044	0.105
-181.056	58.556	0.126	0.123
-180.042	223.507	-0.061	0.097
-179.027	-154.069	-0.141	-0.010
-178.012	34.990	0.015	-0.013
-176.998	-163.164	0.221	-0.011
-175.983	77.592	-0.054	0.057
-174.969	800.000	0.011	-0.043
-173.954	-200.000	-0.067	-0.340
-172.939	-27.668	-0.170	0.098
-171.925	520.288	0.039	-0.091
-170.910	-61.602	0.221	-0.092
-169.896	-59.658	-0.313	-0.133
-168.881	-200.000	-0.032	0.181
-167.866	130.274	0.119	0.151
-166.852	-200.000	-0.005	0.147
-165.837	536.076	0.196	0.462
-164.823	35.595	-0.091	-0.079
-163.808	-142.776	-0.198	-0.019
-162.793	800.000	-0.096	0.307
-161.779	454.047	0.040	0.087
-160.764	717.758	-0.074	-0.197
-159.750	-200.000	-0.030	-0.135
-158.735	87.375	-0.048	-0.053
-157.720	800.000	0.051	-0.165
-156.706	-64.438	-0.275	0.111
-155.691	-92.848	0.196	0.055
-154.677	250.792	-0.067	0.114
-153.662	800.000	0.030	-0.092
-152.647	-200.000	0.001	0.100
-151.633	800.000	0.094	0.286
-150.618	800.000	-0.130	0.387
-149.604	-200.000	-0.007	0.290
-148.589	45.531	0.075	0.069
-147.574	-132.685	0.287	0.037
-146.560	-156.980	0.130	-0.008
-145.545	68.002	0.196	-0.199
-144.531	76.228	-0.118	-0.124
-143.516	-200.000	-0.001	-0.077
-142.502	79.627	-0.188	0.201
-141.487	1.892	0.062	0.045
-140.472	82.981	-0.234	-0.253
-139.458	-118.282	0.198	0.035
-138.443	3.476	0.237	-0.171
-137.429	-77.176	0.238	-0.082
-136.414	-130.794	0.404	-0.054
-135.399	0.320	-0.236	-0.167
-134.385	207.007	-0.200	-0.309
-133.370	-200.000	-0.009	-0.170
-132.356	-200.000	-0.001	-0.140
-131.341	-200.000	-0.032	-0.218
-130.326	519.225	0.075	-0.174
-129.312	486.772	0.014	-0.031
-128.297	779.981	-0.058	0.158
-127.283	167.451	-0.041	0.058
-126.268	20.591	0.170	-0.137
-125.253	468.040	-0.246	0.548
-124.239	33.120	0.193	-0.166
-123.224	800.000	-0.068	0.264
-122.210	65.666	-0.196	0.197
-121.195	10.549	-0.234	-0.177
-120.180	46.318	0.245	0.226
-119.166	-200.000	-0.036	-0.191
-118.151	85.058	-0.158	-0.172
-117.137	-200.000	-0.013	0.160
-116.122	-27.952	-0.121	0.070
-115.107	-200.000	0.015	-0.156
-114.093	800.000	-0.054	-0.217
-113.078	-13.356	0.240	-0.155
-112.064	253.782	0.153	0.260
-111.049	97.863	0.176	-0.201
-110.034	228.430	-0.035	-0.057
-109.020	123.153	0.143	-0.178
-108.005	-200.000	0.006	0.082
-106.991	250.979	0.035	-0.060
-105.976	231.664	-0.042	0.068
-104.962	800.000	0.172	0.499
-103.947	-200.000	-0.002	-0.035
-102.932	-200.000	-0.024	0.165
-101.918	-97.560	0.344	-0.089
-100.903	-55.535	-0.262	0.117
-99.889	-101.052	-0.488	-0.119
-98.874	-60.682	-0.073	0.031
-97.859	-200.000	0.029	0.270
-96.845	-74.575	-0.281	-0.101
-95.830	-200.000	-0.013	-0.185
-94.816	-15.732	0.216	-0.136
-93.801	46.113	-0.150	0.138
-92.786	-200.000	0.025	0.112
-91.772	800.000	-0.002	-0.010
-90.757	-153.360	0.422	-0.029
-89.743	267.666	0.135	0.234
-88.728	-84.843	-0.364	-0.114
-87.713	-200.000	-0.028	-0.213
-86.699	-180.932	-0.212	-0.004
-85.684	106.784	-0.059	0.070
-84.670	-200.000	-0.005	-0.155
-83.655	214.028	0.024	-0.038
-82.640	-91.807	-0.068	0.019
-81.626	-36.162	-0.316	-0.169
-80.611	800.000	-0.061	0.176
-79.597	38.079	-0.203	0.179
-78.582	-45.709	0.378	-0.185
-77.567	77.719	0.181	-0.191
-76.553	-0.565	-0.145	-0.102
-75.538	-116.060	-0.233	0.043
-74.524	245.003	-0.112	0.187
-73.509	147.648	0.236	0.315
-72.494	800.000	0.070	0.204
-71.480	-61.003	-0.061	0.025
-70.465	-200.000	0.033	0.170
-69.451	-55.842	0.357	0.158
-68.436	-148.838	0.195	-0.016
-67.422	-19.572	0.406	0.249
-66.407	-200.000	0.017	0.332
-65.392	134.173	-0.224	0.288
-64.378	260.592	-0.282	-0.483
-63.363	-106.965	-0.268	0.059
-62.349	-200.000	-0.032	-0.152
-61.334	211.789	-0.727	-1.134
-60.319	106.483	0.412	0.483
-59.305	800.000	-0.270	-0.829
-58.290	211.191	0.626	0.975
-57.276	-200.000	0.278	1.592
-56.261	-200.000	95.780	563.350
-55.246	635.184	1386.769	3485.066
-54.232	184.668	2614.282	3837.716
-53.217	121.363	2200.285	2714.245
-52.203	46.682	1646.580	1514.204
-51.188	38.277	1380.335	1217.257
-50.173	34.903	1337.565	1159.089
-49.159	55.733	1386.390	1330.387
-48.144	60.123	1403.846	1374.124
-47.130	38.580	1358.436	1199.614
-46.115	34.890	1340.615	1161.466
-45.100	34.752	1335.759	1156.380
-44.086	34.651	1333.469	1153.743
-43.071	34.662	1330.946	1151.578
-42.057	34.618	1328.597	1149.234
-41.042	34.535	1327.641	1147.863
-40.027	34.773	1325.134	1147.078
-39.013	34.623	1323.776	1144.961
-37.998	34.708	1321.502	1143.458
-36.984	34.671	1319.917	1141.821
-35.969	34.722	1318.225	1140.614
-34.954	34.785	1316.553	1139.497
-33.940	34.728	1315.226	1137.965
-32.925	34.782	1314.084	1137.254
-31.911	34.832	1312.288	1135.951
-30.896	34.850	1310.755	1134.685
-29.881	34.782	1309.933	1133.523
-28.867	34.925	1307.493	1132.214
-27.852	34.873	1306.509	1131.009
-26.838	34.875	1305.027	1129.698
-25.823	34.964	1303.709	1129.032
-24.809	34.839	1302.349	1127.074
-23.794	34.823	1300.830	1125.623
-22.779	34.936	1299.277	1124.898
-21.765	34.803	1298.445	1123.353
-20.750	34.881	1297.099	1122.602
-19.736	34.750	1295.869	1120.720
-18.721	34.729	1294.681	1119.528
-17.706	34.668	1293.751	1118.324
-16.692	34.814	1292.101	1117.707
-15.677	34.761	1290.617	1116.067
-14.663	34.707	1289.771	1114.973
-13.648	34.665	1288.921	1113.950
-12.633	34.599	1287.883	1112.627
-11.619	34.728	1286.857	1112.444
-10.604	34.621	1286.490	1111.462
-9.590	34.713	1285.098	1110.752
-8.575	34.737	1283.909	1109.819
-7.560	34.603	1283.627	1108.754
-6.546	34.625	1282.455	1107.825
-5.531	34.622	1281.629	1107.051
-4.517	34.612	1280.840	1106.268
-3.502	34.717	1279.820	1105.952
-2.487	34.693	1278.771	1104.860
-1.473	34.640	1274.938	1101.195
-0.458	33.313	1259.227	1080.018
0.556	31.162	1239.845	1035.608
1.571	26.801	1242.687	1013.571
2.586	25.367	1256.974	1017.023
3.600	23.840	1244.494	998.263
4.615	17.867	1171.018	907.582
5.629	9.086	1094.520	804.390
6.644	4.971	1073.366	768.521
7.659	4.537	1070.876	764.537
8.673	4.387	1068.964	762.367
9.688	4.386	1067.753	761.429
10.702	4.966	1066.832	763.545
11.717	10.676	1075.102	797.516
12.731	19.030	1086.410	847.141
13.746	22.399	1089.480	866.065
14.761	22.014	1089.113	863.801
15.775	21.073	1087.494	857.819
16.790	20.230	1085.254	851.838
17.804	19.408	1083.724	846.527
18.819	19.240	1082.570	844.728
19.834	19.061	1081.709	843.105
20.848	18.943	1081.078	841.961
21.863	18.654	1080.469	839.996
22.877	18.522	1079.696	838.676
23.892	18.442	1079.150	837.784
24.907	18.549	1078.164	837.467
25.921	18.577	1076.779	836.457
26.936	18.485	1075.793	835.167
27.950	18.545	1074.358	834.269
28.965	18.586	1073.104	833.421
29.980	18.791	1071.465	833.073
30.994	18.917	1070.793	833.086
32.009	18.974	1069.720	832.455
33.023	18.911	1068.318	830.983
34.038	18.860	1067.035	829.664
35.053	18.613	1066.627	828.085
36.067	18.683	1065.295	827.312
37.082	18.667	1064.949	826.894
38.096	18.869	1063.895	826.976
39.111	18.868	1063.179	826.341
40.126	18.600	1062.245	824.254
41.140	18.405	1060.381	821.801
42.155	18.353	1059.331	820.665
43.169	18.226	1058.297	819.183
44.184	18.256	1057.180	818.388
45.199	18.296	1056.159	817.717
46.213	18.394	1055.397	817.523
47.228	18.601	1054.673	817.875
48.242	18.736	1053.415	817.471
49.257	18.589	1053.036	816.406
50.271	18.684	1052.143	816.090
51.286	18.730	1051.433	815.686
52.301	18.623	1050.254	814.194
53.315	18.460	1049.310	812.617
54.330	18.485	1047.876	811.549
55.344	18.428	1046.873	810.432
56.359	18.479	1046.061	809.974
57.374	18.370	1045.535	808.983
58.388	18.243	1044.475	807.491
59.403	18.258	1043.242	806.538
60.417	18.288	1042.922	806.357
61.432	18.263	1041.649	805.185
62.447	18.226	1040.565	804.104
63.461	18.125	1039.743	802.921
64.476	18.032	1039.022	801.857
65.490	18.020	1038.383	801.239
66.505	18.004	1038.118	800.885
67.520	18.142	1037.206	800.759
68.534	18.033	1036.421	799.571
69.549	18.026	1035.723	798.929
70.563	17.984	1034.479	797.704
71.578	17.844	1033.873	796.513
72.593	17.774	1033.227	795.619
73.607	17.842	1032.815	795.549
74.622	17.930	1031.639	794.979
75.636	17.812	1031.202	794.025
76.651	18.000	1030.218	794.071
77.666	18.015	1029.385	793.426
78.680	17.965	1028.887	792.742
79.695	17.957	1028.444	792.291
80.709	18.136	1027.992	792.704
81.724	18.155	1027.163	792.082
82.739	18.363	1026.647	792.577
83.753	18.554	1025.590	792.574
84.768	18.878	1025.368	793.831
85.782	18.919	1024.562	793.322
86.797	18.927	1023.289	792.303
87.812	18.660	1022.576	790.453
88.826	18.715	1021.292	789.642
89.841	18.918	1020.237	789.689
90.855	18.846	1019.833	788.976
91.870	18.863	1018.711	788.117
92.884	18.949	1017.871	787.794
93.899	18.878	1017.377	787.017
94.914	18.941	1016.211	786.330
95.928	18.879	1015.538	785.457
96.943	18.825	1014.268	784.159
97.957	18.666	1013.772	782.983
98.972	18.822	1012.582	782.702
99.987	18.896	1011.380	782.044
101.001	18.852	1010.922	781.421
102.016	18.828	1010.042	780.563
103.030	18.715	1009.250	779.365
104.045	18.772	1008.509	778.984
105.060	18.739	1007.302	777.835
106.074	18.423	1006.379	775.622
107.089	18.377	1004.493	773.890
108.103	18.175	1004.288	772.754
109.118	18.109	1003.424	771.722
110.133	18.149	1002.272	770.949
111.147	18.077	1001.471	769.939
112.162	18.183	1001.007	769.992
113.176	18.296	1000.356	769.931
114.191	18.244	999.739	769.154
115.206	18.394	998.545	768.838
116.220	18.253	997.743	767.523
117.235	18.307	996.564	766.791
118.249	18.190	996.250	765.958
119.264	18.181	995.040	764.919
120.279	18.099	994.442	764.024
121.293	18.098	993.381	763.137
122.308	17.990	992.783	762.130
123.322	17.947	991.292	760.726
124.337	18.063	990.195	760.333
125.352	17.888	989.599	759.027
126.366	17.973	988.070	758.166
127.381	18.042	987.015	757.594
128.395	18.039	986.324	756.986
129.410	18.056	985.562	756.409
130.424	18.201	985.267	756.754
131.439	18.362	984.195	756.576
132.454	18.434	983.360	756.187
133.468	18.304	982.455	754.849
134.483	18.375	981.737	754.546
135.497	18.434	980.601	753.864
136.512	18.329	980.156	752.992
137.527	18.408	979.131	752.488
138.541	18.419	978.574	752.042
139.556	18.509	977.707	751.703
140.570	18.617	977.297	751.793
141.585	18.867	976.489	752.202
142.600	18.817	975.926	751.481
143.614	18.931	974.932	751.148
144.629	18.912	974.350	750.549
145.643	18.953	973.169	749.752
146.658	18.687	971.816	747.485
147.673	18.496	970.684	745.719
148.687	18.461	970.448	745.317
149.702	18.363	969.473	744.076
150.716	18.321	968.318	742.944
151.731	18.392	967.677	742.693
152.746	18.390	966.930	742.045
153.760	18.449	966.311	741.760
154.775	18.628	966.065	742.280
155.789	18.753	965.071	741.993
156.804	18.679	964.322	741.032
157.819	18.845	963.550	741.089
158.833	18.959	962.711	740.870
159.848	19.013	962.352	740.757
160.862	18.956	961.209	739.570
161.877	18.441	959.820	736.221
162.892	18.484	958.360	735.221
163.906	18.337	957.527	733.886
164.921	18.429	956.513	733.439
165.935	18.511	956.033	733.356
166.950	18.514	955.584	732.959
167.964	18.494	954.652	732.097
168.979	18.496	953.355	731.043
169.994	18.435	952.432	730.014
171.008	18.610	952.269	730.567
172.023	18.966	951.261	731.246
173.037	18.891	950.846	730.542
174.052	18.706	949.625	728.753
175.067	18.583	948.732	727.483
176.081	18.416	948.186	726.289
177.096	18.450	947.783	726.061
178.110	18.531	946.870	725.640
179.125	18.569	946.729	725.632
180.140	18.427	946.058	724.453
181.154	18.736	945.546	725.301
182.169	18.934	945.216	725.820
183.183	18.808	944.744	724.862
184.198	18.944	943.468	724.391
185.213	18.899	943.189	723.924
186.227	18.895	942.662	723.438
187.242	19.122	941.719	723.604
188.256	19.146	941.280	723.303
189.271	19.178	940.461	722.745
190.286	18.736	939.378	719.996
191.300	18.474	938.669	718.289
192.315	18.339	937.307	716.621
193.329	18.473	937.149	716.994
194.344	18.528	936.782	716.881
195.359	18.608	936.252	716.748
196.373	18.869	935.469	717.171
197.388	18.812	935.586	716.962
198.402	19.152	935.042	717.901
199.417	19.171	934.209	717.277
200.432	19.298	933.707	717.355
201.446	19.358	933.680	717.522
202.461	19.522	932.626	717.330
203.475	19.466	931.775	716.378
204.490	19.179	930.923	714.470
205.504	19.072	930.052	713.292
206.519	19.123	929.342	712.900
207.534	19.027	928.786	712.011
208.548	19.150	928.159	711.975
209.563	19.015	928.003	711.235
210.577	19.178	927.015	711.086
211.592	19.296	926.589	711.187
212.607	19.233	926.152	710.526
213.621	19.245	925.079	709.689
214.636	19.317	923.901	709.021
215.650	19.226	923.569	708.327
216.665	19.289	923.011	708.096
217.680	19.426	922.627	708.300
218.694	19.457	921.599	707.578
219.709	19.359	921.213	706.818
220.723	19.427	920.502	706.486
221.738	19.365	919.558	705.447
222.753	19.379	919.116	705.100
223.767	19.370	918.421	704.472
224.782	19.557	918.267	705.054
225.796	19.676	917.635	704.991
226.811	19.499	916.943	703.676
227.826	19.370	915.787	702.200
228.840	19.404	915.239	701.855
229.855	19.257	914.482	700.616
230.869	19.286	913.743	700.104
231.884	19.268	913.062	699.450
232.899	19.114	912.341	698.210
233.913	19.158	911.460	697.654
234.928	19.127	911.139	697.221
235.942	19.120	910.035	696.284
236.957	19.104	909.968	696.106
237.972	19.084	909.917	695.927
238.986	19.183	908.781	695.394
240.001	19.266	907.978	695.053
241.015	19.213	907.685	694.553
242.030	19.363	906.979	694.559
243.045	19.372	906.219	693.948
244.059	19.391	905.685	693.555
245.074	19.568	905.129	693.780
246.088	19.499	904.682	693.099
247.103	19.657	904.104	693.229
248.117	19.760	903.982	693.486
249.132	19.973	903.369	693.808
250.147	20.099	902.835	693.843
251.161	20.166	902.289	693.628
252.176	20.265	901.529	693.379
253.190	20.347	900.855	693.127
254.205	20.426	900.538	693.139
255.220	20.255	899.789	691.815
256.234	20.360	898.890	691.484
257.249	20.245	898.455	690.631
258.263	20.325	897.352	690.037
259.278	20.229	896.678	689.076
260.293	20.421	896.407	689.572
261.307	20.393	896.249	689.277
262.322	20.481	895.310	688.842
263.336	20.353	894.568	687.703
264.351	20.520	893.700	687.637
265.366	20.528	892.826	686.934
266.380	20.509	892.587	686.617
267.395	20.214	891.983	684.924
268.409	20.317	890.972	684.494
269.424	20.187	889.973	683.155
270.439	20.228	889.290	682.733
271.453	20.127	888.616	681.757
272.468	20.018	888.220	680.962
273.482	20.119	887.702	680.904
274.497	20.136	887.160	680.494
275.512	20.232	886.168	680.050
276.526	20.181	885.803	679.508
277.541	20.157	885.690	679.269
278.555	20.495	885.160	680.125
279.570	20.491	884.889	679.842
280.585	20.476	883.832	678.909
281.599	20.455	882.623	677.839
282.614	20.348	881.858	676.773
283.628	20.329	881.317	676.226
284.643	20.207	881.047	675.483
285.657	20.349	880.021	675.190
286.672	20.212	879.884	674.490
287.687	20.461	878.932	674.667
288.701	20.393	878.450	673.976
289.716	20.394	877.637	673.296
290.730	20.431	877.282	673.107
291.745	20.434	876.774	672.670
292.760	20.426	876.489	672.360
293.774	20.666	875.742	672.655
294.789	20.561	874.880	671.527
295.803	20.389	874.007	670.137
296.818	20.439	873.261	669.696
297.833	20.445	872.625	669.174
298.847	20.469	872.335	668.983
299.862	20.470	871.685	668.432
300.876	20.547	871.620	668.618
301.891	20.650	871.071	668.535
302.906	20.801	870.474	668.596
303.920	20.910	870.056	668.633
304.935	21.034	869.298	668.467
305.949	20.865	868.631	667.249
306.964	20.779	867.480	665.976
307.979	20.802	867.062	665.685
308.993	20.921	866.830	665.903
310.008	20.985	866.282	665.667
311.022	20.832	865.903	664.731
312.037	20.552	864.785	662.749
313.052	20.660	864.069	662.552
314.066	20.475	863.737	661.532
315.081	20.331	863.086	660.427
316.095	20.534	862.294	660.535
317.110	20.597	861.737	660.289
318.125	20.368	861.628	659.280
319.139	20.485	860.846	659.066
320.154	20.582	860.086	658.794
321.168	20.636	859.858	658.764
322.183	20.713	859.124	658.435
323.197	20.670	858.501	657.738
324.212	20.670	858.265	657.500
325.227	20.724	857.434	657.008
326.241	20.719	856.775	656.425
327.256	20.371	856.743	655.030
328.270	20.539	855.653	654.770
329.285	20.531	855.088	654.251
330.300	20.648	854.431	654.130
331.314	20.661	853.657	653.530
332.329	20.890	853.421	654.150
333.343	20.947	853.205	654.140
334.358	20.840	853.109	653.606
335.373	21.052	852.104	653.573
336.387	21.027	852.146	653.456
337.402	20.988	852.051	653.179
338.416	21.193	851.585	653.532
339.431	21.370	851.492	654.065
340.446	21.296	851.293	653.576
341.460	21.245	850.754	652.916
342.475	21.343	850.396	652.948
343.489	21.341	850.027	652.599
344.504	21.421	849.520	652.451
345.519	21.469	849.075	652.229
346.533	21.559	848.207	651.840
347.548	21.298	847.751	650.460
348.562	21.109	846.784	648.959
349.577	20.863	846.167	647.516
350.592	20.952	845.612	647.364
351.606	20.852	845.063	646.515
352.621	20.991	844.010	646.168
353.635	21.109	843.737	646.336
354.650	21.100	842.877	645.590
355.665	21.159	842.574	645.518
356.679	21.209	841.878	645.112
357.694	21.245	841.057	644.557
358.708	21.266	840.620	644.244
359.723	21.156	839.958	643.275
360.738	21.384	839.337	643.582
361.752	21.335	838.849	642.969
362.767	21.487	838.483	643.190
363.781	21.711	837.626	643.299
364.796	21.749	837.330	643.153
365.810	21.876	837.046	643.346
366.825	21.898	837.191	643.480
367.840	21.884	836.114	642.545
368.854	21.642	835.537	641.160
369.869	21.608	835.035	640.591
370.883	21.496	835.247	640.287
371.898	21.723	834.732	640.665
372.913	21.773	833.873	640.134
373.927	21.797	833.037	639.523
374.942	21.754	832.991	639.274
375.956	21.797	832.478	638.982
376.971	21.690	832.694	638.699
377.986	22.020	832.121	639.405
379.000	22.172	831.226	639.214
380.015	22.053	830.597	638.243
381.029	21.975	830.087	637.509
382.044	22.054	829.672	637.420
383.059	22.133	828.794	636.975
384.073	21.942	828.171	635.749
385.088	21.826	827.228	634.548
386.102	21.780	826.575	633.828
387.117	21.798	825.933	633.343
388.132	21.678	825.370	632.421
389.146	21.723	825.455	632.592
390.161	21.914	824.917	632.814
391.175	21.898	824.597	632.454
392.190	21.930	823.746	631.862
393.205	22.011	823.072	631.581
394.219	21.611	823.239	630.215
395.234	21.586	822.384	629.412
396.248	21.503	822.216	628.930
397.263	21.368	821.749	628.033
398.278	21.561	821.106	628.179
399.292	21.481	820.630	627.471
400.307	21.712	819.798	627.606
401.321	21.603	819.432	626.881
402.336	21.757	819.229	627.220
403.350	21.713	818.806	626.686
404.365	22.029	818.502	627.526
405.380	22.127	818.120	627.528
406.394	22.305	817.478	627.617
407.409	22.102	817.390	626.768
408.423	22.143	817.280	626.774
409.438	22.336	816.674	626.942
410.453	22.455	816.002	626.796
411.467	22.531	815.544	626.656
412.482	22.555	815.433	626.601
413.496	22.500	815.277	626.230
414.511	22.463	814.857	625.723
415.526	22.489	814.226	625.275
416.540	22.396	813.536	624.357
417.555	22.289	813.595	623.970
418.569	22.445	812.624	623.722
419.584	22.510	812.328	623.670
420.599	22.557	811.798	623.372
421.613	159.639	1370.168	1790.071
422.628	138.955	1451.548	1790.182
