DTS Sentinel unit serial number:	SN413079Multiplexer serial number:	ORYXHardware model number:	OX4-SRSoftware version number:	ORYX F/W v4.00 Oryx Data Collector v3.7.2.0data status	okinstallation	princeton_trtdifferential loss correction	single-endedforward channel	channel 1reverse channel	N/Adate	2019/09/19time	11:50:35forward acquisition time	60.00reverse acquisition time	0.00gamma	496.2192k internal	0.2337k external	0.2337temperature offset calibration	1.0011default loss term (dB/km)	0.3790temperature slope calibration	1.0000multiplexer offset coefficient	1.0000multiplexer slope coefficient	1.0000fibre end	0.00T internal ref (°C)	25.81T ext. ref 1 (°C)	0.82T ext. ref 2 (°C)	21.71length (m)	temperature (°C)	Stokes	anti-Stokes-747.200	431.073	-0.191	0.414
-746.185	-41.552	-0.137	0.071
-745.171	-42.960	0.361	-0.184
-744.156	-53.632	-0.329	0.151
-743.142	-200.000	0.055	0.319
-742.127	235.530	-0.123	0.204
-741.112	-200.000	0.032	-0.222
-740.098	184.350	0.032	-0.048
-739.083	-77.393	0.090	0.031
-738.069	800.000	0.103	0.289
-737.054	-30.449	0.230	-0.131
-736.039	-26.657	-0.274	0.161
-735.025	-30.071	-0.360	0.205
-734.010	-200.000	0.068	-0.438
-732.996	-76.321	0.106	0.037
-731.981	800.000	-0.043	0.124
-730.966	-200.000	0.005	-0.048
-729.952	-125.233	-0.235	0.036
-728.937	-39.460	-0.086	-0.045
-727.923	8.229	-0.308	0.232
-726.908	800.000	0.038	0.158
-725.894	-200.000	0.000	-0.320
-724.879	-200.000	-0.020	0.294
-723.864	-89.209	-0.133	-0.039
-722.850	-200.000	-0.005	-0.042
-721.835	-79.034	0.155	-0.053
-720.821	800.000	-0.048	-0.199
-719.806	-3.580	-0.401	-0.280
-718.791	-200.000	-0.016	-0.132
-717.777	112.021	-0.334	-0.405
-716.762	202.550	0.070	-0.108
-715.748	-12.415	0.217	0.142
-714.733	-67.162	-0.346	0.137
-713.718	62.632	0.137	0.137
-712.704	-70.241	-0.225	-0.086
-711.689	-12.531	-0.223	-0.146
-710.675	282.266	0.113	-0.203
-709.660	-99.478	-0.014	-0.004
-708.645	503.453	-0.100	-0.231
-707.631	12.000	0.086	-0.066
-706.616	504.954	0.065	0.151
-705.602	-136.034	0.164	-0.019
-704.587	-129.760	0.247	0.034
-703.572	28.026	0.091	0.077
-702.558	-41.608	0.221	0.114
-701.543	102.653	-0.119	-0.140
-700.529	-43.625	0.139	-0.070
-699.514	-24.962	-0.194	-0.116
-698.499	197.310	0.095	-0.145
-697.485	153.936	-0.318	-0.436
-696.470	287.863	0.074	0.134
-695.456	-125.613	-0.146	0.022
-694.441	60.498	0.149	-0.148
-693.426	-29.226	-0.029	-0.017
-692.412	234.770	-0.112	0.186
-691.397	-24.424	-0.220	-0.131
-690.383	-129.750	0.074	0.010
-689.368	280.225	0.121	-0.216
-688.354	-142.908	0.104	0.010
-687.339	376.902	-0.201	0.412
-686.324	127.803	0.119	0.151
-685.310	-4.427	0.243	-0.168
-684.295	-200.000	0.012	-0.221
-683.281	191.517	-0.105	-0.158
-682.266	0.043	-0.097	0.069
-681.251	-61.973	-0.250	0.104
-680.237	-200.000	-0.241	-0.001
-679.222	-79.733	-0.300	0.101
-678.208	-200.000	0.092	-0.450
-677.193	800.000	-0.030	0.121
-676.178	51.031	-0.111	-0.105
-675.164	445.001	-0.028	0.061
-674.149	68.202	0.148	-0.152
-673.135	-200.000	0.049	-0.239
-672.120	61.962	-0.133	0.132
-671.105	91.879	-0.258	-0.291
-670.091	245.242	-0.100	-0.169
-669.076	-200.000	0.018	0.164
-668.062	78.486	0.229	0.245
-667.047	235.913	0.063	0.104
-666.032	-136.779	0.248	0.029
-665.018	-11.712	0.238	-0.156
-664.003	229.784	-0.048	0.079
-662.989	403.083	0.014	0.030
-661.974	181.017	0.020	-0.029
-660.959	800.000	0.099	0.279
-659.945	-66.759	0.419	0.166
-658.930	638.414	-0.107	0.271
-657.916	-82.247	0.097	-0.032
-656.901	204.443	0.114	-0.177
-655.886	-200.000	0.020	0.358
-654.872	-49.810	0.338	0.160
-653.857	216.818	-0.055	-0.087
-652.843	-90.124	0.107	-0.031
-651.828	-6.173	-0.099	-0.068
-650.814	-1.780	-0.145	-0.102
-649.799	-200.000	0.047	-0.408
-648.784	-200.000	0.004	-0.262
-647.770	-200.000	-0.015	0.178
-646.755	-28.824	-0.161	-0.093
-645.741	-200.000	-0.056	0.470
-644.726	-12.668	-0.133	-0.087
-643.711	-47.912	0.033	0.016
-642.697	159.927	-0.070	0.098
-641.682	35.276	0.095	-0.083
-640.668	190.204	0.194	-0.291
-639.653	-62.545	-0.164	-0.068
-638.638	15.715	-0.142	-0.111
-637.624	-151.167	0.340	0.026
-636.609	-148.393	0.190	0.016
-635.595	-62.260	-0.269	-0.112
-634.580	-104.830	-0.223	-0.051
-633.565	299.646	-0.111	-0.205
-632.551	528.251	0.032	0.074
-631.536	-200.000	0.131	0.000
-630.522	93.061	0.155	0.175
-629.507	91.263	-0.151	-0.169
-628.492	388.285	0.013	0.028
-627.478	46.250	-0.108	-0.100
-626.463	-200.000	0.013	0.061
-625.449	72.424	0.057	-0.060
-624.434	271.400	-0.002	0.003
-623.419	-200.000	0.003	-0.089
-622.405	-200.000	0.030	0.375
-621.390	-109.085	-0.077	0.016
-620.376	581.679	-0.077	-0.189
-619.361	-84.650	-0.095	-0.030
-618.346	-145.870	0.124	-0.011
-617.332	3.004	0.203	0.148
-616.317	-200.000	0.007	-0.057
-615.303	790.757	-0.052	-0.144
-614.288	-200.000	-0.007	0.068
-613.273	108.959	0.261	-0.311
-612.259	30.695	-0.175	0.149
-611.244	-71.705	0.159	-0.059
-610.230	-128.109	-0.174	-0.025
-609.215	-200.000	0.036	0.324
-608.201	221.175	0.058	-0.092
-607.186	-27.182	-0.021	-0.012
-606.171	158.539	-0.193	-0.268
-605.157	-173.166	0.107	-0.003
-604.142	-35.307	-0.176	0.095
-603.128	-22.885	-0.224	-0.135
-602.113	748.906	-0.141	-0.379
-601.098	-200.000	0.047	0.351
-600.084	-200.000	0.015	0.237
-599.069	-33.742	-0.258	-0.142
-598.055	-57.124	0.073	0.032
-597.040	63.125	-0.078	0.078
-596.025	115.616	-0.118	-0.144
-595.011	-62.352	-0.205	-0.085
-593.996	-200.000	-0.004	0.458
-592.982	-98.366	-0.154	0.039
-591.967	-200.000	0.041	0.183
-590.952	679.276	-0.191	-0.496
-589.938	-24.001	-0.240	0.143
-588.923	-34.660	-0.094	-0.051
-587.909	22.657	0.034	-0.028
-586.894	-87.518	0.187	0.056
-585.879	16.485	-0.224	0.177
-584.865	-148.565	-0.193	0.016
-583.850	350.924	-0.063	-0.124
-582.836	-200.000	0.000	0.243
-581.821	-15.367	-0.068	-0.044
-580.806	63.310	0.231	-0.231
-579.792	-200.000	-0.021	-0.189
-578.777	800.000	-0.076	-0.245
-577.763	-54.946	-0.452	0.203
-576.748	800.000	-0.118	-0.348
-575.733	-104.217	-0.299	0.069
-574.719	132.132	0.127	0.164
-573.704	800.000	-0.047	-0.170
-572.690	637.196	0.186	-0.472
-571.675	235.752	0.083	-0.137
-570.661	-139.239	-0.309	0.033
-569.646	470.452	-0.050	0.113
-568.631	800.000	0.114	0.408
-567.617	-182.100	-0.174	0.003
-566.602	-72.464	-0.082	-0.030
-565.588	-25.237	0.184	0.108
-564.573	-56.489	0.191	0.085
-563.558	-200.000	0.011	0.096
-562.544	308.794	0.164	0.306
-561.529	800.000	0.022	0.075
-560.515	-21.319	0.332	0.202
-559.500	401.792	-0.100	-0.209
-558.485	-200.000	0.020	0.297
-557.471	-200.000	-0.037	0.187
-556.456	78.945	0.223	-0.237
-555.442	800.000	-0.027	-0.092
-554.427	-48.874	0.263	-0.126
-553.412	-111.360	0.218	-0.044
-552.398	-26.331	-0.270	0.158
-551.383	-200.000	0.014	0.074
-550.369	76.161	-0.125	-0.132
-549.354	17.910	0.173	0.137
-548.339	9.217	0.199	0.150
-547.325	800.000	0.031	-0.130
-546.310	-200.000	-0.015	0.149
-545.296	-78.152	0.220	-0.075
-544.281	90.029	-0.054	0.060
-543.266	-188.881	-0.343	-0.004
-542.252	-200.000	-0.075	-0.572
-541.237	-92.332	-0.234	0.066
-540.223	-64.931	-0.285	0.115
-539.208	392.573	-0.113	-0.234
-538.193	-136.607	-0.090	-0.010
-537.179	-200.000	0.014	-0.130
-536.164	84.346	0.149	-0.162
-535.150	77.070	-0.118	-0.125
-534.135	-200.000	-0.062	-0.439
-533.121	67.018	-0.175	0.178
-532.106	-99.771	-0.202	-0.050
-531.091	269.096	0.205	-0.358
-530.077	800.000	-0.080	-0.230
-529.062	46.745	0.169	0.156
-528.048	-39.850	0.302	0.157
-527.033	180.645	-0.278	-0.406
-526.018	-112.995	-0.261	0.051
-525.004	-45.317	0.184	-0.091
-523.989	-81.819	0.221	-0.072
-522.975	309.598	0.011	-0.020
-521.960	800.000	-0.092	0.375
-520.945	800.000	-0.060	0.237
-519.931	800.000	0.069	-0.227
-518.916	435.148	-0.199	-0.431
-517.902	61.799	0.116	0.115
-516.887	800.000	0.069	-0.190
-515.872	26.868	-0.244	0.203
-514.858	-200.000	-0.013	0.142
-513.843	-200.000	-0.061	-0.354
-512.829	-90.758	0.192	0.055
-511.814	-200.000	0.011	-0.134
-510.799	83.806	0.163	-0.177
-509.785	-71.655	0.221	-0.082
-508.770	-86.839	0.082	-0.025
-507.756	-26.405	0.198	0.115
-506.741	228.581	-0.026	0.043
-505.726	-58.688	0.176	-0.076
-504.712	-200.000	0.005	0.141
-503.697	93.236	0.183	0.206
-502.683	78.072	-0.090	0.096
-501.668	-51.217	-0.063	0.029
-500.653	750.660	0.055	-0.148
-499.639	268.775	-0.126	0.220
-498.624	-157.608	0.332	-0.020
-497.610	-200.000	0.028	0.301
-496.595	201.513	-0.113	0.173
-495.581	-200.000	-0.080	-0.361
-494.566	-200.000	0.067	0.000
-493.551	-200.000	-0.002	-0.299
-492.537	-108.425	-0.042	-0.009
-491.522	-103.230	0.345	0.081
-490.508	412.575	0.076	0.160
-489.493	-155.772	0.332	-0.021
-488.478	-200.000	0.224	0.000
-487.464	-5.958	0.102	-0.070
-486.449	-200.000	-0.033	0.258
-485.435	310.110	0.143	-0.265
-484.420	291.639	0.142	-0.256
-483.405	-67.041	0.255	-0.100
-482.391	-15.234	0.028	0.018
-481.376	-61.116	-0.238	-0.100
-480.362	-123.733	-0.215	-0.034
-479.347	-53.373	-0.243	-0.111
-478.332	439.931	0.065	0.140
-477.318	69.393	0.132	0.135
-476.303	61.919	0.102	-0.101
-475.289	-26.053	-0.227	-0.133
-474.274	-200.000	0.014	0.142
-473.259	-111.238	-0.563	0.114
-472.245	114.399	-0.239	-0.289
-471.230	-200.000	0.030	-0.246
-470.216	269.406	0.066	0.115
-469.201	399.358	-0.062	0.130
-468.186	276.915	0.136	-0.241
-467.172	-148.619	0.249	0.020
-466.157	-152.286	-0.122	0.009
-465.143	316.618	-0.150	0.282
-464.128	315.002	0.236	0.442
-463.113	800.000	0.035	-0.111
-462.099	-128.247	0.584	0.083
-461.084	-83.796	-0.227	0.072
-460.070	145.150	0.046	-0.061
-459.055	113.591	-0.074	-0.090
-458.040	254.721	-0.117	0.199
-457.026	-93.332	-0.371	0.102
-456.011	-111.551	0.254	-0.051
-454.997	326.879	-0.073	-0.138
-453.982	-135.587	-0.391	-0.046
-452.968	-44.927	0.173	0.086
-451.953	-166.732	-0.253	-0.010
-450.938	121.781	-0.165	0.204
-449.924	-136.186	0.227	-0.026
-448.909	-10.857	0.086	0.056
-447.895	98.351	0.121	0.139
-446.880	-57.644	0.200	-0.087
-445.865	-150.617	0.080	-0.006
-444.851	86.330	0.073	-0.080
-443.836	-200.000	0.034	0.148
-442.822	-200.000	-0.033	0.224
-441.807	89.774	0.130	0.144
-440.792	-200.000	-0.028	0.281
-439.778	234.190	-0.018	-0.029
-438.763	-34.166	0.412	0.225
-437.749	-200.000	-0.035	0.171
-436.734	586.095	-0.103	-0.250
-435.719	-50.507	-0.134	-0.063
-434.705	-145.739	0.106	-0.009
-433.690	-200.000	-0.024	-0.133
-432.676	26.427	-0.230	-0.191
-431.661	396.103	0.066	0.137
-430.646	-200.000	-0.003	-0.103
-429.632	-50.339	-0.212	-0.100
-428.617	91.393	-0.318	-0.355
-427.603	-81.010	0.385	-0.127
-426.588	81.377	-0.174	0.186
-425.573	-147.163	-0.291	-0.025
-424.559	-200.000	-0.088	-0.490
-423.544	-143.209	0.106	-0.010
-422.530	27.712	-0.182	-0.152
-421.515	-78.511	0.108	-0.036
-420.500	-200.000	0.027	0.195
-419.486	-32.882	-0.396	-0.218
-418.471	800.000	-0.043	0.174
-417.457	-198.712	0.376	0.002
-416.442	-153.905	0.158	0.011
-415.428	-112.574	-0.252	0.050
-414.413	-200.000	0.040	-0.308
-413.398	6.655	0.243	-0.179
-412.384	-200.000	-0.016	-0.320
-411.369	800.000	-0.017	-0.067
-410.355	-15.179	-0.162	0.103
-409.340	-135.287	0.179	0.021
-408.325	625.966	0.010	0.025
-407.311	64.865	0.254	-0.254
-406.296	-200.000	-0.003	0.245
-405.282	72.264	0.121	-0.125
-404.267	-123.126	-0.167	-0.027
-403.252	384.774	-0.150	0.305
-402.238	51.188	-0.150	-0.141
-401.223	-58.979	-0.196	0.084
-400.209	12.026	0.114	0.087
-399.194	-200.000	0.024	0.139
-398.179	76.622	0.284	-0.298
-397.165	-200.000	-0.026	-0.248
-396.150	-36.786	-0.147	0.078
-395.136	-142.066	-0.539	-0.053
-394.121	398.719	0.201	0.417
-393.106	800.000	0.105	-0.435
-392.092	-57.462	0.279	-0.121
-391.077	-200.000	0.047	0.317
-390.063	-200.000	-0.035	0.228
-389.048	179.177	-0.052	-0.075
-388.033	324.104	0.083	-0.158
-387.019	56.592	0.169	0.162
-386.004	-126.315	0.218	-0.032
-384.990	-200.000	-0.060	-0.330
-383.975	460.102	0.075	0.165
-382.960	488.671	-0.130	-0.294
-381.946	-8.219	0.128	-0.086
-380.931	30.865	0.396	0.335
-379.917	-3.433	-0.183	0.126
-378.902	-200.000	0.091	-0.424
-377.888	121.481	0.104	-0.129
-376.873	431.321	0.118	0.253
-375.858	-108.938	0.117	-0.025
-374.844	-67.831	-0.218	-0.084
-373.829	-64.596	-0.184	-0.074
-372.815	-120.660	0.074	0.012
-371.800	34.189	-0.187	0.161
-370.785	235.497	0.008	0.014
-369.771	83.578	0.162	0.175
-368.756	108.825	0.211	-0.249
-367.742	-15.670	0.256	0.161
-366.727	-38.326	0.272	0.142
-365.712	-200.000	-0.020	0.233
-364.698	-154.739	-0.077	-0.005
-363.683	-200.000	0.003	-0.096
-362.669	240.553	0.162	-0.266
-361.654	670.849	-0.101	-0.259
-360.639	10.708	0.096	0.072
-359.625	-87.399	0.338	0.101
-358.610	-120.001	0.099	-0.017
-357.596	263.776	0.087	0.150
-356.581	800.000	0.043	-0.137
-355.566	55.405	0.055	-0.052
-354.552	-119.620	-0.479	0.082
-353.537	-94.520	-0.293	-0.079
-352.523	-173.112	-0.239	0.007
-351.508	23.945	-0.182	-0.149
-350.493	589.677	-0.153	-0.374
-349.479	34.189	-0.194	0.168
-348.464	-99.735	-0.240	-0.059
-347.450	-200.000	-0.031	0.209
-346.435	225.299	0.061	-0.097
-345.420	-77.935	0.119	-0.041
-344.406	-74.446	0.172	-0.061
-343.391	169.266	-0.100	0.142
-342.377	-73.430	-0.403	-0.145
-341.362	-200.000	-0.018	-0.328
-340.348	-25.886	0.118	0.069
-339.333	664.850	0.066	-0.168
-338.318	-112.957	-0.185	-0.036
-337.304	285.348	0.049	0.087
-336.289	32.803	0.078	-0.066
-335.275	101.264	0.161	0.185
-334.260	-103.120	-0.152	-0.035
-333.245	159.077	-0.058	-0.080
-332.231	578.970	0.050	-0.121
-331.216	83.017	-0.098	-0.105
-330.202	272.761	0.111	0.193
-329.187	800.000	0.045	0.129
-328.172	495.210	0.081	0.184
-327.158	-123.912	-0.231	-0.036
-326.143	-200.000	-0.009	-0.065
-325.129	-196.813	0.090	0.001
-324.114	-121.700	-0.105	0.017
-323.099	-200.000	-0.033	-0.375
-322.085	-200.000	-0.002	-0.203
-321.070	-200.000	-0.053	-0.247
-320.056	731.441	0.106	-0.279
-319.041	-131.377	0.134	0.018
-318.026	-175.184	0.136	-0.004
-317.012	630.320	-0.120	-0.299
-315.997	-77.477	-0.042	-0.015
-314.983	86.389	-0.204	-0.222
-313.968	800.000	-0.080	0.242
-312.953	338.745	-0.073	0.139
-311.939	295.387	-0.137	-0.247
-310.924	491.179	-0.135	-0.305
-309.910	67.505	-0.076	-0.077
-308.895	240.531	0.011	-0.019
-307.880	-200.000	-0.008	0.042
-306.866	32.079	-0.072	0.061
-305.851	158.275	0.051	0.069
-304.837	-71.588	-0.084	0.031
-303.822	-200.000	-0.066	-0.410
-302.807	-200.000	0.018	-0.492
-301.793	-200.000	0.009	-0.174
-300.778	-23.170	0.411	0.244
-299.764	-90.393	-0.049	0.014
-298.749	-156.101	-0.093	0.006
-297.735	-141.710	-0.205	-0.020
-296.720	-118.159	-0.197	0.035
-295.705	-39.987	0.240	-0.124
-294.691	-200.000	-0.007	0.155
-293.676	-37.687	0.112	-0.059
-292.662	-200.000	0.015	0.459
-291.647	-95.353	-0.261	-0.069
-290.632	-33.509	0.324	0.176
-289.618	-171.454	-0.077	0.003
-288.603	-49.563	0.256	0.120
-287.589	-28.270	0.216	0.123
-286.574	438.345	-0.040	0.086
-285.559	264.786	0.100	0.171
-284.545	778.810	-0.084	-0.227
-283.530	-34.865	0.300	-0.161
-282.516	280.366	-0.056	0.098
-281.501	800.000	0.050	-0.205
-280.486	-200.000	0.022	0.240
-279.472	507.646	0.133	0.303
-278.457	2.073	-0.332	-0.236
-277.443	635.833	0.125	-0.313
-276.428	654.068	0.108	-0.274
-275.413	-200.000	0.025	0.240
-274.399	-100.296	-0.036	0.009
-273.384	-10.747	-0.070	-0.046
-272.370	177.763	-0.126	-0.182
-271.355	-168.388	-0.204	-0.008
-270.340	-200.000	-0.026	-0.153
-269.326	-200.000	-0.025	0.160
-268.311	3.436	0.034	0.024
-267.297	348.813	-0.101	-0.197
-266.282	-2.575	-0.089	0.062
-265.267	-141.639	-0.127	0.013
-264.253	-157.104	0.097	-0.006
-263.238	221.038	0.063	-0.100
-262.224	-87.511	-0.168	-0.050
-261.209	-21.653	0.131	0.078
-260.195	-200.000	-0.054	0.543
-259.180	63.094	0.044	-0.043
-258.165	-121.945	0.321	0.052
-257.151	-145.154	-0.428	0.038
-256.136	-108.996	-0.289	-0.061
-255.122	800.000	-0.034	0.119
-254.107	-8.992	-0.149	-0.098
-253.092	28.357	0.114	0.095
-252.078	629.869	-0.048	0.120
-251.063	-132.719	0.206	-0.026
-250.049	800.000	0.050	-0.157
-249.034	471.993	-0.184	0.407
-248.019	-133.320	0.208	0.026
-247.005	365.935	0.180	-0.357
-245.990	-138.123	-0.155	-0.017
-244.976	-200.000	-0.008	-0.132
-243.961	800.000	-0.019	0.054
-242.946	53.708	0.094	-0.089
-241.932	197.481	0.222	0.334
-240.917	-200.000	0.047	0.211
-239.903	-42.425	-0.145	0.073
-238.888	-200.000	0.011	0.102
-237.873	-54.680	0.201	0.089
-236.859	-3.051	0.286	0.196
-235.844	800.000	0.089	0.357
-234.830	199.343	0.151	0.228
-233.815	12.820	0.092	0.070
-232.800	20.941	-0.258	0.206
-231.786	-200.000	0.030	0.279
-230.771	-71.312	0.199	-0.073
-229.757	-81.225	-0.089	0.029
-228.742	-67.724	0.217	0.084
-227.727	-200.000	0.036	0.494
-226.713	8.302	-0.160	0.118
-225.698	7.450	0.132	0.097
-224.684	91.699	0.057	-0.064
-223.669	-200.000	-0.026	-0.122
-222.655	165.318	0.025	-0.034
-221.640	366.814	0.106	0.211
-220.625	506.338	0.132	0.301
-219.611	-200.000	-0.043	-0.191
-218.596	615.739	0.103	0.253
-217.582	111.504	-0.104	-0.123
-216.567	-200.000	0.025	0.189
-215.552	-158.762	0.388	-0.022
-214.538	-47.361	0.203	0.097
-213.523	-200.000	0.048	0.271
-212.509	-200.000	-0.018	0.252
-211.494	-91.267	-0.171	0.048
-210.479	-200.000	0.031	0.412
-209.465	-111.073	-0.113	-0.023
-208.450	63.161	0.226	0.222
-207.436	-200.000	-0.004	0.047
-206.421	219.722	0.047	0.073
-205.406	-3.710	-0.337	-0.230
-204.392	442.558	-0.106	0.227
-203.377	201.100	-0.072	-0.108
-202.363	-66.673	-0.098	0.038
-201.348	-25.792	0.118	-0.068
-200.333	-52.547	-0.259	0.118
-199.319	-200.000	-0.026	0.371
-198.304	-71.673	0.062	0.023
-197.290	7.241	0.049	-0.036
-196.275	-200.000	-0.003	0.127
-195.260	361.432	-0.180	-0.355
-194.246	-200.000	0.066	0.312
-193.231	416.171	0.017	-0.036
-192.217	-200.000	0.065	0.367
-191.202	-135.637	0.184	0.022
-190.187	-134.707	0.392	-0.047
-189.173	-180.633	0.081	0.002
-188.158	-67.877	-0.230	0.088
-187.144	497.202	0.191	0.432
-186.129	-59.236	0.237	-0.100
-185.114	800.000	-0.036	-0.097
-184.100	378.377	-0.111	-0.222
-183.085	274.017	-0.059	-0.102
-182.071	322.826	-0.082	-0.154
-181.056	26.859	0.346	-0.285
-180.042	247.058	-0.104	0.172
-179.027	-82.263	0.233	0.074
-178.012	237.442	-0.079	0.129
-176.998	52.101	-0.097	0.091
-175.983	-200.000	-0.014	-0.138
-174.969	800.000	0.024	0.074
-173.954	128.503	0.110	-0.138
-172.939	-38.827	0.224	0.116
-171.925	149.456	0.034	-0.045
-170.910	757.069	0.091	0.242
-169.896	800.000	-0.066	0.232
-168.881	-119.857	-0.227	0.038
-167.866	81.867	-0.061	-0.065
-166.852	-200.000	0.004	0.102
-165.837	46.312	0.115	0.104
-164.823	-56.337	-0.099	0.043
-163.808	421.490	0.033	-0.069
-162.793	-119.394	-0.539	-0.092
-161.779	260.886	0.036	0.061
-160.764	-102.013	0.173	0.041
-159.750	-110.517	0.088	-0.018
-158.735	-200.000	-0.008	0.450
-157.720	-157.732	-0.521	-0.030
-156.706	-59.159	0.275	-0.116
-155.691	44.743	-0.009	0.008
-154.677	-200.000	0.010	0.109
-153.662	-73.824	0.205	-0.073
-152.647	-19.370	-0.186	0.113
-151.633	-27.482	-0.176	-0.101
-150.618	36.478	-0.213	0.184
-149.604	189.797	-0.088	-0.130
-148.589	91.817	-0.154	-0.170
-147.574	-200.000	0.037	-0.228
-146.560	293.744	-0.116	-0.208
-145.545	118.113	0.225	-0.272
-144.531	284.834	0.163	-0.287
-143.516	-200.000	-0.060	0.272
-142.502	-200.000	0.001	0.053
-141.487	-31.281	0.104	0.057
-140.472	-16.771	0.134	0.083
-139.458	-46.343	-0.245	-0.118
-138.443	-200.000	-0.055	0.247
-137.429	-113.642	-0.249	-0.048
-136.414	-151.182	0.085	0.006
-135.399	-109.638	0.236	-0.049
-134.385	800.000	-0.065	0.212
-133.370	476.444	0.089	-0.197
-132.356	-53.139	0.301	-0.135
-131.341	-200.000	0.031	-0.434
-130.326	-137.550	-0.345	-0.038
-129.312	-200.000	-0.060	0.356
-128.297	62.228	-0.067	0.066
-127.283	143.656	0.072	-0.095
-126.268	-82.570	0.135	-0.043
-125.253	2.035	-0.253	0.179
-124.239	-132.887	0.174	-0.022
-123.224	92.013	0.195	-0.215
-122.210	800.000	0.054	0.209
-121.195	-200.000	0.002	0.162
-120.180	207.373	0.068	0.104
-119.166	800.000	0.051	0.215
-118.151	-200.000	-0.014	-0.179
-117.137	102.252	0.065	0.074
-116.122	25.230	0.387	-0.315
-115.107	235.163	-0.133	-0.215
-114.093	-47.628	0.217	0.103
-113.078	455.372	0.067	0.145
-112.064	76.697	-0.225	-0.234
-111.049	85.064	0.111	-0.119
-110.034	336.850	0.209	0.398
-109.020	-200.000	-0.014	-0.152
-108.005	-23.206	0.287	0.169
-106.991	800.000	0.068	-0.207
-105.976	-32.604	0.131	0.072
-104.962	-64.096	0.062	-0.025
-103.947	-200.000	-0.021	-0.236
-102.932	107.892	0.046	-0.053
-101.918	-93.414	-0.061	0.016
-100.903	-126.203	0.379	-0.055
-99.889	-150.067	-0.047	-0.004
-98.874	154.579	-0.093	0.126
-97.859	-112.299	0.209	0.041
-96.845	-148.097	-0.110	0.009
-95.830	-8.866	0.019	0.012
-94.816	-86.556	0.223	-0.067
-93.801	-164.843	0.156	-0.007
-92.786	-41.879	-0.088	0.044
-91.772	294.208	-0.148	-0.265
-90.757	800.000	0.024	-0.087
-89.743	-158.233	0.293	0.017
-88.728	-147.693	0.193	-0.016
-87.713	-130.970	-0.141	0.018
-86.699	-200.000	-0.010	0.125
-85.684	-15.227	-0.231	-0.145
-84.670	-200.000	-0.005	-0.359
-83.655	43.778	-0.273	0.244
-82.640	-120.211	0.287	-0.048
-81.626	70.316	-0.140	-0.141
-80.611	-93.511	0.070	-0.019
-79.597	101.069	-0.188	0.214
-78.582	-49.642	0.100	0.047
-77.567	-200.000	-0.020	0.138
-76.553	487.373	0.083	-0.185
-75.538	-200.000	0.078	0.445
-74.524	168.480	0.204	0.285
-73.509	800.000	0.060	0.221
-72.494	-200.000	-0.050	-0.326
-71.480	-159.517	0.368	0.020
-70.465	-200.000	-0.067	-0.393
-69.451	-200.000	-0.033	-0.218
-68.436	-131.893	0.324	0.041
-67.422	800.000	0.059	0.235
-66.407	73.620	0.210	-0.215
-65.392	117.295	0.082	0.098
-64.378	-10.191	-0.455	0.295
-63.363	0.623	0.247	-0.173
-62.349	-50.620	-0.228	-0.105
-61.334	8.302	-0.946	-0.695
-60.319	-15.601	1.047	0.653
-59.305	198.604	-0.551	-0.824
-58.290	-200.000	0.368	1.649
-57.276	485.236	0.685	1.525
-56.261	-200.000	117.180	618.214
-55.246	412.184	1550.874	3218.959
-54.232	140.360	2738.687	3531.476
-53.217	98.804	2190.650	2470.262
-52.203	37.613	1618.338	1403.259
-51.188	29.053	1359.267	1126.452
-50.173	26.379	1319.598	1077.620
-49.159	51.801	1378.675	1281.613
-48.144	50.141	1392.100	1283.937
-47.130	29.245	1345.491	1116.022
-46.115	26.037	1327.360	1081.740
-45.100	25.797	1322.494	1076.295
-44.086	25.743	1319.931	1073.847
-43.071	25.695	1317.628	1071.647
-42.057	25.656	1315.533	1069.668
-41.042	25.667	1314.427	1068.789
-40.027	25.645	1312.616	1067.143
-39.013	25.678	1311.129	1066.091
-37.998	25.733	1308.565	1064.284
-36.984	25.834	1306.774	1063.385
-35.969	25.824	1305.018	1061.853
-34.954	25.756	1303.374	1060.074
-33.940	25.785	1302.150	1059.207
-32.925	25.833	1300.580	1058.173
-31.911	25.827	1298.806	1056.652
-30.896	25.846	1297.785	1055.886
-29.881	25.841	1296.372	1054.667
-28.867	25.915	1295.062	1053.990
-27.852	26.104	1292.872	1053.272
-26.838	25.902	1292.296	1051.580
-25.823	25.884	1290.575	1050.032
-24.809	25.910	1289.534	1049.300
-23.794	25.973	1287.735	1048.158
-22.779	25.842	1287.020	1046.776
-21.765	25.858	1285.692	1045.747
-20.750	25.834	1284.187	1044.342
-19.736	25.847	1282.682	1043.151
-18.721	25.747	1281.495	1041.565
-17.706	25.818	1280.192	1040.877
-16.692	25.816	1278.898	1039.769
-15.677	25.802	1278.049	1038.958
-14.663	25.748	1277.240	1037.948
-13.648	25.751	1275.826	1036.775
-12.633	25.701	1275.072	1035.830
-11.619	25.754	1273.996	1035.224
-10.604	25.781	1273.128	1034.628
-9.590	25.860	1271.766	1033.939
-8.575	25.717	1271.607	1032.948
-7.560	25.786	1270.150	1032.118
-6.546	25.797	1269.431	1031.555
-5.531	25.736	1268.405	1030.329
-4.517	25.693	1268.017	1029.731
-3.502	25.749	1267.014	1029.192
-2.487	25.816	1265.977	1028.691
-1.473	25.881	1261.683	1025.531
-0.458	24.521	1247.469	1006.283
0.556	20.413	1232.203	971.433
1.571	16.854	1240.172	957.556
2.586	15.906	1255.486	963.874
3.600	15.904	1243.304	954.424
4.615	11.877	1170.196	876.701
5.629	4.529	1096.161	784.187
6.644	1.016	1077.896	753.601
7.659	0.721	1076.275	750.934
8.673	0.757	1074.913	750.095
9.688	0.806	1073.817	749.506
10.702	1.071	1071.121	748.867
11.717	5.322	1077.245	774.178
12.731	12.527	1086.237	816.451
13.746	16.497	1091.307	839.950
14.761	17.239	1091.943	844.051
15.775	16.552	1090.312	839.306
16.790	15.561	1087.954	832.508
17.804	14.893	1086.704	828.171
18.819	14.583	1085.612	825.734
19.834	14.440	1084.397	824.029
20.848	14.035	1083.808	821.507
21.863	13.905	1082.356	819.692
22.877	13.754	1081.808	818.459
23.892	13.729	1081.035	817.680
24.907	13.671	1080.508	816.921
25.921	13.634	1080.006	816.285
26.936	13.804	1078.623	816.007
27.950	13.747	1078.113	815.270
28.965	13.853	1076.439	814.449
29.980	13.849	1075.037	813.299
30.994	13.882	1074.215	812.766
32.009	13.920	1072.913	811.893
33.023	13.886	1071.805	810.817
34.038	13.823	1070.835	809.705
35.053	13.844	1070.207	809.259
36.067	13.926	1068.883	808.586
37.082	13.746	1068.244	807.159
38.096	13.915	1067.335	807.222
39.111	13.861	1066.703	806.409
40.126	13.854	1065.987	805.762
41.140	13.861	1064.275	804.431
42.155	13.753	1063.479	803.236
43.169	13.659	1062.185	801.730
44.184	13.667	1061.374	801.085
45.199	13.729	1059.958	800.248
46.213	13.745	1059.009	799.535
47.228	13.716	1058.165	798.689
48.242	13.806	1056.650	797.907
49.257	13.693	1055.978	796.789
50.271	13.766	1055.323	796.574
51.286	13.873	1054.242	796.198
52.301	13.862	1052.836	795.014
53.315	13.758	1052.196	793.964
54.330	13.770	1051.282	793.261
55.344	13.719	1050.319	792.218
56.359	13.720	1049.797	791.759
57.374	13.749	1048.473	790.832
58.388	13.547	1047.745	789.247
59.403	13.672	1046.823	789.082
60.417	13.649	1046.184	788.418
61.432	13.668	1045.164	787.671
62.447	13.654	1044.380	786.944
63.461	13.659	1043.486	786.222
64.476	13.593	1042.548	785.134
65.490	13.663	1041.774	784.816
66.505	13.653	1041.370	784.392
67.520	13.664	1040.666	783.846
68.534	13.619	1040.161	783.184
69.549	13.828	1038.748	783.037
70.563	13.740	1038.083	782.049
71.578	13.710	1037.468	781.375
72.593	13.570	1036.857	780.189
73.607	13.568	1035.919	779.403
74.622	13.675	1035.364	779.420
75.636	13.562	1034.729	778.344
76.651	13.549	1034.032	777.686
77.666	13.585	1033.442	777.343
78.680	13.659	1032.729	777.086
79.695	13.737	1031.908	776.763
80.709	13.648	1031.538	776.001
81.724	13.705	1030.352	775.304
82.739	13.800	1029.532	775.063
83.753	13.730	1028.698	774.041
84.768	13.804	1027.734	773.593
85.782	13.920	1026.858	773.406
86.797	13.853	1026.027	772.401
87.812	13.834	1025.259	771.666
88.826	13.820	1023.999	770.583
89.841	13.908	1023.182	770.306
90.855	13.781	1022.526	769.158
91.870	13.892	1021.809	769.066
92.884	13.873	1020.765	768.121
93.899	13.973	1019.665	767.691
94.914	13.886	1019.259	766.914
95.928	14.002	1018.462	766.783
96.943	13.939	1017.452	765.662
97.957	13.861	1016.562	764.565
98.972	13.995	1015.317	764.179
99.987	13.830	1014.806	762.967
101.001	13.828	1013.765	762.108
102.016	13.849	1013.112	761.644
103.030	13.957	1012.263	761.436
104.045	13.880	1011.622	760.532
105.060	13.823	1010.626	759.457
106.074	13.916	1009.691	759.110
107.089	13.715	1009.195	757.755
108.103	13.554	1008.112	756.137
109.118	13.802	1006.844	756.249
110.133	13.770	1005.999	755.405
111.147	13.731	1004.956	754.376
112.162	13.723	1004.377	753.839
113.176	13.851	1003.547	753.730
114.191	13.971	1002.492	753.415
115.206	13.970	1001.792	752.815
116.220	13.849	1001.063	751.658
117.235	13.904	1000.098	751.115
118.249	13.737	999.481	749.829
119.264	13.900	998.700	749.914
120.279	13.792	998.152	748.947
121.293	13.867	997.165	748.476
122.308	13.858	995.883	747.409
123.322	13.786	995.416	746.668
124.337	13.894	994.163	746.148
125.352	13.855	992.950	744.997
126.366	13.828	991.743	743.905
127.381	13.869	990.904	743.393
128.395	13.831	990.396	742.778
129.410	13.944	988.674	741.925
130.424	14.061	988.128	741.970
131.439	13.963	987.284	740.836
132.454	13.970	986.910	740.517
133.468	13.964	986.356	740.009
134.483	13.906	984.677	738.429
135.497	14.022	984.000	738.370
136.512	13.922	983.287	737.326
137.527	13.933	982.626	736.816
138.541	13.833	982.053	735.874
139.556	13.896	981.073	735.357
140.570	13.892	980.511	734.851
141.585	13.939	979.906	734.542
142.600	14.110	978.603	734.254
143.614	14.094	977.799	733.516
144.629	13.995	977.309	732.647
145.643	14.062	976.167	732.019
146.658	14.033	974.914	730.889
147.673	13.995	974.249	730.160
148.687	14.024	973.714	729.819
149.702	13.906	973.345	728.960
150.716	13.892	972.239	728.006
151.731	13.922	971.287	727.363
152.746	14.060	970.592	727.382
153.760	14.064	969.595	726.588
154.775	14.119	969.049	726.354
155.789	14.100	968.590	725.863
156.804	14.145	967.695	725.325
157.819	14.063	966.746	724.191
158.833	14.160	966.250	724.175
159.848	14.163	965.954	723.903
160.862	14.224	964.885	723.306
161.877	14.280	963.321	722.312
162.892	14.024	962.896	720.819
163.906	14.067	961.836	720.146
164.921	14.040	961.072	719.395
165.935	14.196	960.156	719.321
166.950	14.264	959.329	718.930
167.964	14.192	958.575	717.993
168.979	14.153	957.487	716.943
169.994	14.196	956.428	716.272
171.008	14.239	955.818	715.936
172.023	14.238	955.796	715.853
173.037	14.306	954.876	715.392
174.052	14.273	954.063	714.581
175.067	14.173	953.478	713.648
176.081	14.217	952.629	713.137
177.096	14.360	951.807	713.074
178.110	14.244	951.574	712.338
179.125	14.268	950.728	711.744
180.140	14.336	950.544	711.834
181.154	14.375	949.771	711.359
182.169	14.363	949.591	711.111
183.183	14.423	948.645	710.593
184.198	14.489	948.001	710.330
185.213	14.455	947.284	709.588
186.227	14.501	946.230	708.929
187.242	14.497	945.752	708.491
188.256	14.575	945.355	708.463
189.271	14.557	944.594	707.752
190.286	14.480	943.748	706.731
191.300	14.336	942.961	705.469
192.315	14.334	942.343	704.936
193.329	14.383	941.984	704.811
194.344	14.362	941.310	704.157
195.359	14.405	940.454	703.634
196.373	14.432	939.843	703.229
197.388	14.596	939.399	703.526
198.402	14.641	938.893	703.277
199.417	14.647	938.263	702.768
200.432	14.619	937.826	702.261
201.446	14.705	937.111	702.023
202.461	14.726	936.769	701.794
203.475	14.609	936.458	701.005
204.490	14.814	935.298	700.938
205.504	14.704	934.071	699.495
206.519	14.592	933.796	698.756
207.534	14.693	933.097	698.594
208.548	14.703	932.445	698.088
209.563	14.713	932.046	697.769
210.577	14.678	930.990	696.770
211.592	14.867	930.105	696.834
212.607	14.956	929.486	696.677
213.621	14.852	929.168	695.947
214.636	14.790	928.397	695.047
215.650	14.928	927.410	694.821
216.665	15.076	926.371	694.594
217.680	14.982	925.943	693.825
218.694	14.927	925.550	693.238
219.709	14.870	925.048	692.566
220.723	14.952	923.894	691.982
221.738	15.029	923.223	691.737
222.753	15.013	923.002	691.443
223.767	14.996	922.307	690.792
224.782	15.070	921.832	690.678
225.796	15.079	921.405	690.335
226.811	15.062	920.742	689.705
227.826	15.067	919.800	688.959
228.840	15.065	918.722	688.083
229.855	15.001	918.138	687.324
230.869	15.022	917.232	686.669
231.884	14.982	917.002	686.274
232.899	15.061	916.273	685.989
233.913	15.112	915.313	685.421
234.928	15.064	915.070	684.980
235.942	15.166	914.315	684.774
236.957	15.190	913.398	684.124
237.972	15.161	912.872	683.549
238.986	15.179	912.536	683.310
240.001	15.082	912.197	682.601
241.015	15.222	911.170	682.344
242.030	15.142	910.636	681.556
243.045	15.112	909.920	680.840
244.059	15.201	909.179	680.585
245.074	15.210	908.532	680.079
246.088	15.195	907.648	679.292
247.103	15.249	906.958	678.937
248.117	15.237	906.849	678.745
249.132	15.372	905.944	678.553
250.147	15.496	904.872	678.194
251.161	15.432	904.502	677.599
252.176	15.463	904.225	677.457
253.190	15.457	903.292	676.671
254.205	15.475	902.622	676.181
255.220	15.544	902.138	676.037
256.234	15.685	901.145	675.799
257.249	15.575	900.619	674.904
258.263	15.575	899.492	674.000
259.278	15.618	898.992	673.738
260.293	15.512	898.946	673.220
261.307	15.704	898.050	673.259
262.322	15.692	897.597	672.812
263.336	15.719	896.376	671.942
264.351	15.714	895.447	671.166
265.366	15.715	895.204	670.930
266.380	15.876	894.503	670.987
267.395	15.865	894.078	670.565
268.409	15.760	893.007	669.287
269.424	15.754	892.559	668.867
270.439	15.823	891.554	668.327
271.453	15.672	891.079	667.313
272.468	15.753	890.698	667.292
273.482	15.813	890.260	667.143
274.497	15.895	889.297	666.685
275.512	15.872	889.037	666.342
276.526	16.018	888.144	666.190
277.541	15.805	887.724	664.973
278.555	15.961	887.285	665.203
279.570	16.104	886.370	665.021
280.585	16.064	885.796	664.374
281.599	16.032	884.955	663.559
282.614	16.058	884.232	663.059
283.628	16.027	883.553	662.370
284.643	16.089	883.160	662.262
285.657	16.007	882.584	661.448
286.672	16.153	881.790	661.365
287.687	16.149	881.260	660.896
288.701	16.159	880.824	660.548
289.716	16.054	879.968	659.437
290.730	16.110	879.498	659.247
291.745	16.173	879.022	659.079
292.760	16.225	878.453	658.794
293.774	16.088	877.907	657.791
294.789	16.207	877.294	657.738
295.803	16.082	876.402	656.527
296.818	16.160	875.751	656.284
297.833	16.193	874.925	655.733
298.847	16.205	874.409	655.335
299.862	16.114	873.957	654.587
300.876	16.185	873.076	654.144
301.891	16.383	872.297	654.269
302.906	16.243	871.977	653.430
303.920	16.567	871.506	654.274
304.935	16.492	870.927	653.488
305.949	16.489	870.056	652.766
306.964	16.285	870.020	651.896
307.979	16.458	869.130	651.836
308.993	16.534	868.708	651.757
310.008	16.275	868.367	650.444
311.022	16.426	867.537	650.348
312.037	16.463	866.665	649.778
313.052	16.369	866.450	649.196
314.066	16.423	865.862	648.909
315.081	16.470	865.232	648.557
316.095	16.321	864.915	647.691
317.110	16.474	863.965	647.509
318.125	16.455	863.713	647.191
319.139	16.434	863.117	646.604
320.154	16.475	862.699	646.394
321.168	16.565	862.113	646.239
322.183	16.574	861.190	645.527
323.197	16.603	861.060	645.480
324.212	16.651	860.373	645.092
325.227	16.558	859.713	644.186
326.241	16.561	859.393	643.901
327.256	16.688	858.524	643.676
328.270	16.529	858.352	642.886
329.285	16.736	857.567	643.027
330.300	16.650	857.089	642.284
331.314	16.554	856.412	641.358
332.329	16.768	856.115	641.888
333.343	16.695	855.597	641.165
334.358	16.830	854.871	641.079
335.373	16.634	854.567	640.051
336.387	16.839	854.421	640.658
337.402	16.811	854.132	640.282
338.416	16.783	853.917	639.957
339.431	16.814	853.551	639.742
340.446	16.775	853.071	639.181
341.460	16.829	852.763	639.095
342.475	17.042	851.645	639.005
343.489	16.861	851.745	638.341
344.504	16.884	851.134	637.912
345.519	17.003	850.673	637.959
346.533	17.103	849.796	637.618
347.548	16.956	849.552	636.829
348.562	16.988	849.192	636.623
349.577	16.961	848.188	635.713
350.592	16.940	847.752	635.248
351.606	16.967	847.237	634.911
352.621	16.942	846.559	634.250
353.635	16.935	845.803	633.603
354.650	16.945	845.239	633.161
355.665	17.119	844.453	633.167
356.679	17.040	844.027	632.495
357.694	17.033	843.284	631.855
358.708	17.056	842.645	631.408
359.723	17.030	842.177	630.905
360.738	17.123	841.441	630.643
361.752	17.219	840.625	630.331
362.767	17.171	840.503	630.008
363.781	17.202	839.741	629.496
364.796	17.208	839.418	629.218
365.810	17.230	838.844	628.815
366.825	17.366	838.783	629.214
367.840	17.278	838.404	628.549
368.854	17.327	837.438	627.953
369.869	17.460	837.006	628.064
370.883	17.506	836.874	628.079
371.898	17.464	836.356	627.477
372.913	17.335	836.145	626.790
373.927	17.409	835.330	626.394
374.942	17.427	835.163	626.280
375.956	17.421	834.745	625.891
376.971	17.538	834.017	625.719
377.986	17.605	833.268	625.349
379.000	17.699	832.638	625.165
380.015	17.622	832.480	624.706
381.029	17.555	832.009	624.054
382.044	17.571	831.407	623.604
383.059	17.655	830.748	623.365
384.073	17.659	830.123	622.855
385.088	17.664	829.548	622.387
386.102	17.473	829.366	621.496
387.117	17.572	828.295	621.001
388.132	17.710	827.758	621.046
389.146	17.799	827.193	620.889
390.161	17.748	827.001	620.506
391.175	17.617	826.493	619.591
392.190	17.720	826.117	619.632
393.205	17.705	825.601	619.133
394.219	17.691	825.131	618.675
395.234	17.705	824.828	618.444
396.248	17.681	824.684	618.197
397.263	17.686	823.756	617.465
398.278	17.815	823.495	617.681
399.292	17.735	823.152	617.079
400.307	17.697	822.602	616.473
401.321	17.799	822.171	616.465
402.336	17.792	821.727	616.053
403.350	17.697	821.502	615.487
404.365	17.740	820.816	615.075
405.380	17.778	820.322	614.785
406.394	17.969	819.440	614.758
407.409	17.893	819.369	614.377
408.423	18.005	818.819	614.311
409.438	17.975	818.821	614.152
410.453	18.080	818.293	614.078
411.467	18.270	817.608	614.192
412.482	18.083	817.173	613.139
413.496	18.173	816.936	613.229
414.511	18.128	816.623	612.782
415.526	18.252	815.859	612.595
416.540	18.110	815.474	611.746
417.555	18.184	815.216	611.761
418.569	18.191	814.363	611.094
419.584	18.114	814.254	610.681
420.599	18.230	813.907	610.783
421.613	113.914	1298.100	1483.931
422.628	98.621	1368.591	1484.013
