DTS Sentinel unit serial number:	SN413079Multiplexer serial number:	ORYXHardware model number:	OX4-SRSoftware version number:	ORYX F/W v4.00 Oryx Data Collector v3.7.2.0data status	okinstallation	princeton_trtdifferential loss correction	single-endedforward channel	channel 1reverse channel	N/Adate	2019/09/12time	18:24:34forward acquisition time	15.00reverse acquisition time	0.00gamma	496.2192k internal	0.2318k external	0.2318temperature offset calibration	1.0107default loss term (dB/km)	0.3790temperature slope calibration	1.0000multiplexer offset coefficient	1.0000multiplexer slope coefficient	1.0000fibre end	0.00T internal ref (°C)	33.37T ext. ref 1 (°C)	2.99T ext. ref 2 (°C)	28.04length (m)	temperature (°C)	Stokes	anti-Stokes-747.200	-176.496	-0.662	0.017
-746.185	176.131	-0.380	0.558
-745.171	-43.564	0.487	0.249
-744.156	-97.793	-0.294	0.077
-743.142	-95.947	0.781	0.210
-742.127	-89.245	0.433	-0.129
-741.112	-37.019	-0.613	-0.333
-740.098	-200.000	0.027	0.204
-739.083	-46.215	-0.154	-0.077
-738.069	-200.000	-0.058	0.745
-737.054	428.141	-0.209	0.458
-736.039	68.155	-0.499	0.517
-735.025	148.069	0.568	0.776
-734.010	-200.000	0.107	-0.795
-732.996	-200.000	0.099	-0.494
-731.981	-87.615	-0.395	-0.121
-730.966	-20.822	0.738	0.458
-729.952	-200.000	0.051	0.582
-728.937	0.935	-0.239	0.173
-727.923	-105.968	0.615	-0.140
-726.908	-200.000	0.014	0.378
-725.894	-200.000	-0.222	1.011
-724.879	15.624	-0.686	0.545
-723.864	-42.768	0.255	-0.131
-722.850	183.603	0.139	0.208
-721.835	-114.737	0.317	0.061
-720.821	-127.529	0.705	0.103
-719.806	386.624	-0.321	-0.670
-718.791	-131.567	0.664	-0.088
-717.777	554.124	-0.360	-0.876
-716.762	106.610	-0.579	0.694
-715.748	-200.000	0.013	0.221
-714.733	-57.672	-0.425	0.188
-713.718	800.000	-0.105	-0.355
-712.704	684.692	-0.109	-0.288
-711.689	7.423	0.489	0.369
-710.675	-111.021	-1.380	-0.286
-709.660	-39.240	0.287	-0.152
-708.645	-29.570	-0.734	0.424
-707.631	-200.000	0.085	-0.579
-706.616	-47.947	-0.095	-0.047
-705.602	185.329	0.262	0.392
-704.587	42.891	-0.513	0.473
-703.572	61.341	0.400	-0.402
-702.558	-200.000	-0.668	0.003
-701.543	-32.938	0.470	-0.264
-700.529	-143.559	-0.265	-0.026
-699.514	-72.305	0.146	-0.055
-698.499	-146.877	-0.457	0.040
-697.485	277.590	-0.241	-0.433
-696.470	420.912	-0.334	0.723
-695.456	94.927	-0.239	-0.275
-694.441	69.743	-0.360	0.375
-693.426	-39.725	0.366	-0.193
-692.412	-200.000	0.058	-0.283
-691.397	97.615	-0.248	-0.288
-690.383	48.267	0.420	-0.396
-689.368	523.454	-0.284	0.673
-688.354	800.000	0.134	-0.425
-687.339	119.486	-0.471	0.589
-686.324	-92.541	-0.566	-0.161
-685.310	-49.655	-0.541	-0.260
-684.295	651.451	-0.269	-0.696
-683.281	-42.063	-0.243	-0.126
-682.266	-32.489	-0.837	-0.471
-681.251	-70.942	-0.415	-0.158
-680.237	192.810	-0.424	0.647
-679.222	800.000	0.092	-0.269
-678.208	-13.349	-0.545	0.357
-677.193	-191.995	-0.192	0.002
-676.178	-109.175	0.154	0.033
-675.164	-200.000	-0.015	-0.485
-674.149	197.554	0.401	0.619
-673.135	-57.561	-0.552	-0.244
-672.120	800.000	0.122	-0.421
-671.105	800.000	0.101	0.363
-670.091	-200.000	-0.173	-1.013
-669.076	685.968	0.278	0.732
-668.062	473.594	-0.108	0.247
-667.047	259.268	-0.424	-0.738
-666.032	800.000	0.213	0.772
-665.018	800.000	0.088	-0.360
-664.003	800.000	0.190	-0.800
-662.989	800.000	-0.325	-1.135
-661.974	-16.632	-0.225	0.144
-660.959	256.681	-0.401	0.695
-659.945	125.732	-0.363	0.462
-658.930	9.992	-0.714	-0.547
-657.916	-200.000	0.035	0.536
-656.901	-57.566	-0.403	0.178
-655.886	418.649	0.310	-0.669
-654.872	307.803	0.208	0.392
-653.857	250.546	-0.333	-0.571
-652.843	83.869	0.192	-0.212
-651.828	-59.767	0.761	0.329
-650.814	-200.000	-0.048	-0.429
-649.799	97.743	-0.517	-0.599
-648.784	84.941	0.214	-0.236
-647.770	-200.000	0.104	-1.018
-646.755	-11.565	-0.383	-0.254
-645.741	-171.639	0.088	0.003
-644.726	-78.117	0.384	-0.133
-643.711	-200.000	-0.048	0.536
-642.697	-89.515	-0.719	-0.213
-641.682	800.000	0.033	-0.100
-640.668	599.670	-0.085	-0.214
-639.653	-62.484	0.316	0.132
-638.638	-83.392	0.226	0.073
-637.624	60.724	-0.638	-0.637
-636.609	-200.000	-0.120	-0.876
-635.595	-200.000	-0.071	-0.923
-634.580	-66.975	0.177	0.070
-633.565	290.377	-0.446	-0.816
-632.551	-23.586	-0.390	-0.236
-631.536	800.000	-0.122	0.478
-630.522	227.226	-0.278	0.455
-629.507	232.805	-0.241	0.399
-628.492	-158.733	0.215	-0.012
-627.478	-120.296	0.619	0.106
-626.463	-98.691	0.623	0.160
-625.449	-5.642	-0.432	-0.299
-624.434	-163.665	-0.878	0.042
-623.419	-200.000	0.078	-0.391
-622.405	-164.817	-0.607	-0.027
-621.390	130.332	0.298	0.384
-620.376	-200.000	-0.042	-0.217
-619.361	-34.902	0.643	-0.353
-618.346	215.811	-0.376	0.601
-617.332	2.379	0.101	-0.074
-616.317	800.000	0.255	1.040
-615.303	-101.820	0.952	0.232
-614.288	142.460	-0.337	0.451
-613.273	137.514	-0.110	0.146
-612.259	-192.191	0.733	-0.007
-611.244	277.393	0.181	-0.324
-610.230	178.769	-0.507	0.745
-609.215	23.343	-0.305	-0.252
-608.201	351.554	-0.095	-0.189
-607.186	-72.776	-0.526	0.195
-606.171	-66.492	0.193	0.077
-605.157	105.211	0.329	-0.391
-604.142	-200.000	0.120	0.732
-603.128	-40.538	-0.805	-0.420
-602.113	-200.000	-0.008	-0.376
-601.098	-200.000	-0.023	0.387
-600.084	-170.909	-0.610	-0.021
-599.069	-59.582	0.586	0.253
-598.055	36.247	0.294	-0.261
-597.040	-53.304	-0.097	-0.045
-596.025	-18.151	-0.203	-0.128
-595.011	74.823	0.268	0.284
-593.996	-149.275	0.988	-0.079
-592.982	-76.148	-0.633	-0.225
-591.967	52.252	0.414	0.397
-590.952	71.054	0.183	-0.191
-589.938	-39.741	-0.176	-0.093
-588.923	-38.421	-0.247	0.132
-587.909	80.483	-0.169	-0.184
-586.894	-200.000	0.104	0.488
-585.879	-112.227	-0.395	-0.080
-584.865	-146.493	0.454	-0.040
-583.850	89.175	0.212	0.238
-582.836	-98.193	-0.167	0.043
-581.821	800.000	0.102	0.366
-580.806	36.757	-0.738	0.655
-579.792	-57.509	-0.831	-0.367
-578.777	28.961	-0.418	-0.356
-577.763	-34.314	0.924	0.510
-576.748	6.977	0.154	-0.116
-575.733	-116.288	-0.496	-0.092
-574.719	248.904	0.334	-0.568
-573.704	-200.000	-0.010	-1.063
-572.690	-149.052	-0.464	0.037
-571.675	9.749	0.417	0.318
-570.661	-188.842	0.612	0.007
-569.646	170.812	0.403	0.580
-568.631	-29.862	-0.260	0.149
-567.617	70.316	0.931	-0.967
-566.602	-165.592	-0.085	0.004
-565.588	-16.260	0.564	-0.360
-564.573	273.466	0.263	-0.467
-563.558	88.920	0.308	-0.344
-562.544	-200.000	-0.024	-0.243
-561.529	19.601	0.114	0.093
-560.515	-200.000	-0.004	-0.602
-559.500	-200.000	-0.030	0.282
-558.485	268.603	-0.304	-0.535
-557.471	377.118	-0.081	0.166
-556.456	800.000	0.227	0.631
-555.442	-138.036	0.912	-0.102
-554.427	197.017	0.494	0.757
-553.412	-67.629	-0.031	-0.012
-552.398	-168.387	-0.392	-0.015
-551.383	318.070	0.267	0.508
-550.369	-19.027	0.918	0.574
-549.354	73.705	0.311	-0.328
-548.339	-145.527	0.121	0.011
-547.325	-5.425	0.765	0.527
-546.310	-28.235	-0.681	0.395
-545.296	116.236	0.295	0.363
-544.281	182.334	0.417	-0.617
-543.266	-200.000	0.080	-0.625
-542.252	-106.444	0.679	-0.152
-541.237	63.575	-0.247	0.249
-540.223	-92.051	0.840	-0.239
-539.208	-111.985	0.160	-0.032
-538.193	412.945	0.266	-0.568
-537.179	-39.778	0.736	-0.386
-536.164	-29.569	-0.709	0.406
-535.150	-33.244	-0.498	0.277
-534.135	-23.148	-0.546	0.330
-533.121	274.212	-0.315	0.559
-532.106	113.383	-0.177	-0.216
-531.091	80.921	0.209	0.226
-530.077	800.000	0.131	-0.573
-529.062	-200.000	-0.023	0.627
-528.048	-200.000	0.064	0.521
-527.033	36.625	-0.544	0.482
-526.018	-27.951	0.586	-0.340
-525.004	-81.992	0.864	0.283
-523.989	-200.000	-0.069	-0.473
-522.975	-137.063	0.371	-0.042
-521.960	109.133	-0.222	0.267
-520.945	570.567	0.145	0.353
-519.931	-85.420	-0.257	0.080
-518.916	-183.012	0.448	0.008
-517.902	-200.000	-0.140	0.693
-516.887	53.870	0.048	0.047
-515.872	-173.998	0.788	0.023
-514.858	80.970	-0.283	0.307
-513.843	209.038	0.344	0.540
-512.829	-2.432	0.732	-0.514
-511.814	-200.000	-0.135	-0.758
-510.799	800.000	0.253	-0.746
-509.785	-200.000	-0.121	-0.901
-508.770	-71.873	-0.937	0.350
-507.756	-88.949	-0.319	0.095
-506.741	201.967	0.376	-0.581
-505.726	-200.000	-0.069	0.339
-504.712	-111.947	-0.663	-0.134
-503.697	-19.466	-0.929	0.577
-502.683	-200.000	-0.022	-0.260
-501.668	210.413	-0.397	-0.625
-500.653	-200.000	-0.036	-0.271
-499.639	-65.571	-0.730	-0.294
-498.624	-200.000	-0.049	-1.016
-497.610	-23.779	0.481	0.289
-496.595	55.081	0.296	0.287
-495.581	-20.316	-0.546	0.337
-494.566	-200.000	-0.096	-0.891
-493.551	-200.000	0.076	-0.409
-492.537	-33.318	0.234	-0.130
-491.522	112.476	0.466	0.565
-490.508	-200.000	-0.056	-0.446
-489.493	79.144	-0.383	-0.411
-488.478	148.704	-0.778	-1.053
-487.464	-200.000	-0.369	-0.001
-486.449	33.781	-0.305	0.265
-485.435	-43.239	-0.203	0.103
-484.420	260.540	-0.206	0.357
-483.405	-200.000	-0.072	0.518
-482.391	-23.041	-0.726	-0.438
-481.376	18.589	0.338	0.271
-480.362	387.480	-0.642	-1.330
-479.347	-141.059	0.544	0.056
-478.332	190.621	-0.465	-0.700
-477.318	-200.000	0.010	-0.397
-476.303	-108.349	-1.039	-0.224
-475.289	-174.987	-0.618	0.017
-474.274	57.303	-0.251	0.245
-473.259	-97.155	0.491	-0.129
-472.245	-159.190	0.116	0.007
-471.230	-116.218	-0.124	0.023
-470.216	-200.000	0.101	-0.634
-469.201	-138.568	0.556	0.061
-468.186	-127.235	-0.446	0.065
-467.172	-12.076	-1.121	-0.735
-466.157	40.481	-0.255	-0.230
-465.143	-200.000	-0.000	0.209
-464.128	-49.893	0.145	0.069
-463.113	275.209	-0.052	-0.093
-462.099	98.895	-0.294	0.340
-461.084	-49.909	0.645	0.306
-460.070	-53.218	-0.697	-0.320
-459.055	-141.378	-0.245	-0.025
-458.040	86.604	-0.476	-0.525
-457.026	797.535	-0.136	0.375
-456.011	530.800	0.154	-0.364
-454.997	79.790	0.328	-0.353
-453.982	230.041	-0.371	-0.607
-452.968	-120.949	0.340	-0.057
-451.953	-200.000	-0.042	-0.312
-450.938	-22.943	0.444	0.268
-449.924	-140.337	0.423	0.044
-448.909	263.581	-0.117	-0.204
-447.895	-77.953	0.527	0.182
-446.880	-103.241	-0.486	-0.115
-445.865	81.271	-0.310	-0.335
-444.851	391.789	0.228	-0.474
-443.836	-70.273	-0.432	0.164
-442.822	-28.638	0.647	-0.373
-441.807	-73.304	0.483	-0.177
-440.792	-200.000	-0.027	-0.159
-439.778	-18.155	0.431	-0.270
-438.763	147.800	-0.232	0.313
-437.749	17.083	-0.897	-0.711
-436.734	800.000	0.219	0.610
-435.719	-131.314	0.476	0.063
-434.705	198.701	-0.164	0.251
-433.690	407.352	-0.361	0.763
-432.676	99.531	-0.296	-0.342
-431.661	112.016	0.398	0.481
-430.646	-65.269	0.234	0.094
-429.632	-200.000	0.004	0.145
-428.617	-200.000	0.106	-0.676
-427.603	355.252	0.107	-0.212
-426.588	169.924	-0.091	0.130
-425.573	-184.419	-0.614	0.010
-424.559	393.028	0.314	-0.654
-423.544	177.334	-0.482	-0.702
-422.530	172.746	0.191	0.275
-421.515	38.719	0.461	-0.411
-420.500	-200.000	-0.077	-0.432
-419.486	121.407	0.189	0.235
-418.471	-200.000	-0.041	0.552
-417.457	82.339	0.401	0.434
-416.442	-107.902	0.683	-0.148
-415.428	22.616	0.531	0.434
-414.413	-85.228	0.657	-0.205
-413.398	131.115	-0.216	0.277
-412.384	-200.000	-0.068	1.226
-411.369	-8.395	0.346	-0.232
-410.355	-200.000	0.008	-0.257
-409.340	-200.000	0.113	-0.562
-408.325	-76.000	-0.625	0.221
-407.311	47.091	-0.156	0.145
-406.296	19.191	0.153	-0.122
-405.282	-43.769	0.205	0.103
-404.267	-118.275	0.043	-0.008
-403.252	537.785	-0.114	-0.270
-402.238	78.209	0.507	0.541
-401.223	-200.000	0.064	0.989
-400.209	207.856	-0.716	1.117
-399.194	198.389	0.076	-0.117
-398.179	-88.490	0.135	0.040
-397.165	-88.537	0.570	0.170
-396.150	89.607	0.200	-0.223
-395.136	181.771	-0.472	0.694
-394.121	132.900	0.297	-0.383
-393.106	-71.000	-0.235	0.088
-392.092	538.913	0.086	0.203
-391.077	13.202	-0.354	0.274
-390.063	-75.063	-0.307	0.110
-389.048	-200.000	0.017	0.418
-388.033	89.933	-0.218	0.243
-387.019	-19.990	-0.514	0.317
-386.004	284.924	-0.458	0.823
-384.990	-200.000	0.055	-0.715
-383.975	25.301	0.358	-0.297
-382.960	-200.000	0.044	0.565
-381.946	295.016	-0.256	-0.467
-380.931	-54.104	1.064	-0.483
-379.917	-55.163	-0.277	-0.125
-378.902	800.000	-0.113	-0.406
-377.888	227.707	0.230	-0.373
-376.873	-200.000	-0.233	1.264
-375.858	528.979	-0.151	-0.355
-374.844	46.069	-0.657	-0.607
-373.829	-200.000	-0.102	0.605
-372.815	-200.000	0.110	0.496
-371.800	-130.082	0.561	0.076
-370.785	-43.343	0.398	0.201
-369.771	524.653	0.157	-0.369
-368.756	800.000	0.015	0.065
-367.742	101.733	-0.237	-0.275
-366.727	800.000	0.277	1.093
-365.712	382.093	0.091	0.187
-364.698	32.677	-0.604	-0.521
-363.683	160.707	0.306	0.427
-362.669	-200.000	-0.010	0.131
-361.654	28.222	0.308	0.260
-360.639	-120.864	-0.541	-0.091
-359.625	-200.000	0.079	-0.699
-358.610	-200.000	0.018	-0.559
-357.596	800.000	-0.116	0.484
-356.581	-200.000	-0.050	-0.340
-355.566	84.818	0.531	-0.580
-354.552	97.780	0.074	0.085
-353.537	800.000	0.083	-0.286
-352.523	-97.351	-0.806	0.209
-351.508	-49.880	-0.290	0.137
-350.493	135.028	-0.349	-0.452
-349.479	-200.000	-0.040	0.206
-348.464	4.046	0.832	0.606
-347.450	-112.486	0.506	-0.101
-346.435	140.263	0.640	-0.841
-345.420	462.006	-0.141	-0.313
-344.406	-56.208	0.882	-0.391
-343.391	800.000	-0.300	-0.966
-342.377	5.284	-0.356	0.261
-341.362	658.481	0.160	-0.410
-340.348	313.989	0.379	0.711
-339.333	301.999	0.265	-0.488
-338.318	-200.000	-0.006	-0.417
-337.304	251.781	0.453	0.768
-336.289	-122.930	-0.670	0.107
-335.275	-9.659	-0.631	0.419
-334.260	-66.989	0.330	-0.130
-333.245	129.775	-0.511	0.651
-332.231	220.290	0.106	-0.170
-331.216	-200.000	-0.108	0.874
-330.202	-135.467	-0.333	0.040
-329.187	439.800	0.539	1.172
-328.172	153.736	-0.410	0.559
-327.158	-20.860	0.799	0.488
-326.143	800.000	0.044	-0.188
-325.129	-77.878	0.727	-0.250
-324.114	-200.000	0.022	-0.192
-323.099	445.063	-0.264	-0.578
-322.085	-177.194	0.415	-0.010
-321.070	-99.376	0.356	-0.089
-320.056	610.252	-0.266	0.660
-319.041	-200.000	0.026	-0.558
-318.026	41.544	0.478	0.431
-317.012	-143.091	-0.772	-0.074
-315.997	141.304	-0.217	-0.286
-314.983	105.026	-0.499	0.586
-313.968	-107.241	-0.423	0.093
-312.953	-164.722	0.385	-0.017
-311.939	-3.643	-0.342	0.236
-310.924	-9.192	0.275	-0.183
-309.910	163.463	0.147	-0.206
-308.895	800.000	0.149	0.539
-307.880	-200.000	0.009	-0.163
-306.866	230.092	-0.357	-0.580
-305.851	444.591	0.223	-0.487
-304.837	521.457	-0.292	-0.683
-303.822	-102.194	0.205	0.049
-302.807	-60.130	0.423	-0.179
-301.793	-112.023	0.216	0.043
-300.778	60.010	-0.782	-0.768
-299.764	567.250	-0.434	1.047
-298.749	106.678	0.130	-0.154
-297.735	-58.618	0.801	-0.345
-296.720	-63.908	0.158	-0.064
-295.705	-69.168	-0.475	-0.182
-294.691	270.445	-0.252	-0.441
-293.676	319.718	-0.027	0.050
-292.662	301.122	-0.125	-0.229
-291.647	67.669	0.524	-0.532
-290.632	-58.077	-0.431	0.187
-289.618	-35.145	-0.173	0.094
-288.603	800.000	-0.091	-0.383
-287.589	-200.000	0.014	-0.441
-286.574	162.869	-0.259	-0.362
-285.559	200.362	-0.135	0.207
-284.545	313.161	-0.306	-0.572
-283.530	-123.710	-0.577	-0.091
-282.516	800.000	-0.184	-0.541
-281.501	-7.047	-0.127	-0.086
-280.486	-200.000	0.112	-0.641
-279.472	-139.618	-0.364	-0.039
-278.457	-160.179	0.306	-0.016
-277.443	-44.475	-0.962	0.478
-276.428	-51.225	-0.446	0.208
-275.413	-174.963	-0.400	0.011
-274.399	312.140	0.295	-0.550
-273.384	91.377	-0.161	0.180
-272.370	35.333	-0.230	-0.200
-271.355	-55.189	0.199	0.089
-270.340	706.934	-0.169	-0.443
-269.326	-37.109	0.532	0.283
-268.311	91.795	0.363	0.406
-267.297	-146.179	-0.881	-0.077
-266.282	-200.000	-0.007	-0.332
-265.267	72.048	-0.355	0.367
-264.253	356.316	0.222	0.440
-263.238	800.000	-0.059	0.209
-262.224	194.101	0.069	0.103
-261.209	-72.872	0.223	0.082
-260.195	301.677	0.544	0.999
-259.180	-27.391	-0.781	0.451
-258.165	225.870	-0.355	-0.571
-257.151	58.418	0.641	0.624
-256.136	31.486	0.177	0.151
-255.122	-136.375	-0.512	0.059
-254.107	-200.000	-0.010	0.061
-253.092	-200.000	0.064	0.376
-252.078	60.930	-0.283	0.279
-251.063	-124.909	0.257	-0.039
-250.049	763.484	-0.049	0.131
-249.034	800.000	-0.011	-0.046
-248.019	-37.376	-0.379	0.201
-247.005	2.157	-0.664	-0.476
-245.990	-99.108	0.737	-0.185
-244.976	158.794	-0.564	-0.777
-243.961	-4.247	-0.791	0.543
-242.946	638.427	0.179	0.451
-241.932	-64.154	-0.331	0.134
-240.917	-62.194	0.355	0.147
-239.903	-168.084	-0.116	0.004
-238.888	176.512	-0.081	-0.117
-237.873	-200.000	-0.033	0.306
-236.859	800.000	0.125	-0.495
-235.844	-200.000	0.048	-0.910
-234.830	-52.380	0.621	0.285
-233.815	524.083	0.091	-0.213
-232.800	534.272	-0.115	0.270
-231.786	-25.120	0.422	-0.248
-230.771	-93.369	0.465	0.128
-229.757	-200.000	-0.108	-0.489
-228.742	-30.948	0.136	-0.076
-227.727	302.687	-0.150	-0.276
-226.713	484.709	-0.102	-0.231
-225.698	800.000	-0.155	-0.575
-224.684	92.056	0.454	-0.506
-223.669	-200.000	-0.288	1.364
-222.655	800.000	-0.224	0.660
-221.640	800.000	0.551	1.532
-220.625	-83.658	0.206	-0.065
-219.611	-200.000	0.087	-0.598
-218.596	-86.656	-0.203	0.062
-217.582	-172.166	1.212	-0.039
-216.567	-47.357	0.600	0.289
-215.552	4.720	0.759	-0.553
-214.538	319.029	-0.217	0.407
-213.523	443.084	-0.406	0.881
-212.509	320.428	-0.196	0.368
-211.494	-62.758	0.397	0.163
-210.479	255.358	-0.256	0.436
-209.465	64.555	-0.406	0.406
-208.450	149.319	0.019	-0.025
-207.436	-73.123	-0.281	0.102
-206.421	716.459	0.456	1.199
-205.406	-200.000	0.083	-0.519
-204.392	-200.000	-0.110	-0.767
-203.377	800.000	0.169	0.655
-202.363	-11.958	-0.658	0.427
-201.348	-91.396	0.198	0.056
-200.333	-28.890	0.649	0.369
-199.319	-200.000	0.083	0.513
-198.304	-200.000	0.160	0.717
-197.290	-97.986	-0.234	0.060
-196.275	257.862	0.385	-0.656
-195.260	-171.154	-0.419	-0.014
-194.246	360.108	0.241	-0.477
-193.231	258.559	-0.312	0.532
-192.217	-41.989	0.578	-0.293
-191.202	-91.182	0.372	0.106
-190.187	207.550	0.555	-0.858
-189.173	-17.521	-0.423	0.263
-188.158	-51.907	-0.393	0.181
-187.144	-105.617	-1.142	-0.256
-186.129	412.204	0.294	-0.619
-185.114	-200.000	0.028	0.478
-184.100	-33.524	-0.312	0.171
-183.085	652.174	0.149	0.379
-182.071	800.000	-0.227	0.797
-181.056	-40.410	1.220	0.628
-180.042	129.568	0.358	0.453
-179.027	52.195	0.801	0.756
-178.012	-200.000	0.022	-0.510
-176.998	-5.261	0.560	0.381
-175.983	800.000	-0.096	-0.356
-174.969	22.924	-0.549	0.445
-173.954	164.900	0.346	0.484
-172.939	-76.702	-0.721	0.250
-171.925	387.528	-0.075	0.153
-170.910	52.131	-0.210	0.198
-169.896	-26.467	-0.253	0.147
-168.881	-116.214	-0.655	-0.120
-167.866	137.971	0.249	0.323
-166.852	-30.742	-0.586	0.328
-165.837	299.561	-0.163	0.297
-164.823	197.308	-0.392	0.592
-163.808	-39.692	0.552	0.286
-162.793	-50.104	0.850	-0.398
-161.779	7.052	0.801	0.591
-160.764	61.162	-0.703	-0.691
-159.750	13.405	0.270	-0.207
-158.735	93.482	0.281	-0.314
-157.720	-200.000	-0.118	-1.078
-156.706	-69.151	-0.543	-0.207
-155.691	245.722	-0.308	-0.514
-154.677	-69.306	0.642	0.244
-153.662	19.872	-0.328	-0.262
-152.647	-14.478	-0.829	0.528
-151.633	-110.223	0.301	-0.062
-150.618	-94.267	-0.667	0.180
-149.604	-166.438	1.418	0.059
-148.589	-200.000	0.057	0.924
-147.574	-86.969	0.254	-0.077
-146.560	-21.144	0.510	-0.308
-145.545	-20.562	-0.355	0.215
-144.531	204.094	-0.094	-0.145
-143.516	-74.375	0.319	0.114
-142.502	800.000	0.134	-0.475
-141.487	-200.000	0.030	-0.524
-140.472	125.318	0.251	0.313
-139.458	-136.239	-0.468	0.054
-138.443	-44.008	0.404	0.201
-137.429	11.949	-0.751	0.570
-136.414	78.728	0.754	0.797
-135.399	-12.945	0.438	-0.282
-134.385	-200.000	-0.079	-0.547
-133.370	-13.623	-0.264	0.169
-132.356	154.993	-0.175	0.237
-131.341	-150.314	0.623	0.047
-130.326	-33.948	0.703	0.382
-129.312	-55.953	0.900	0.397
-128.297	800.000	0.261	0.847
-127.283	-103.360	0.160	0.037
-126.268	-58.532	-0.183	0.079
-125.253	723.167	-0.193	-0.507
-124.239	-200.000	0.004	-0.040
-123.224	-200.000	-0.116	-0.976
-122.210	-112.268	0.393	0.078
-121.195	141.921	0.345	0.452
-120.180	89.031	0.235	0.258
-119.166	-116.926	0.600	0.108
-118.151	274.796	0.318	-0.556
-117.137	-136.566	-0.185	-0.021
-116.122	-30.444	0.714	-0.400
-115.107	46.371	0.250	-0.229
-114.093	-25.789	0.561	0.326
-113.078	190.158	-0.491	0.728
-112.064	285.609	0.535	0.953
-111.049	-14.407	-0.417	0.265
-110.034	48.016	0.471	-0.435
-109.020	13.166	0.788	0.603
-108.005	-200.000	0.240	-1.075
-106.991	-8.191	0.422	-0.281
-105.976	378.825	-0.208	0.421
-104.962	529.677	-0.465	-1.084
-103.947	86.452	-0.705	-0.767
-102.932	-135.495	0.399	0.047
-101.918	-200.000	0.051	0.532
-100.903	34.336	-0.375	0.323
-99.889	128.150	-0.332	0.417
-98.874	619.352	0.129	-0.319
-97.859	-105.205	-0.082	0.018
-96.845	26.908	0.173	0.143
-95.830	-121.564	-0.958	-0.157
-94.816	102.560	0.112	0.129
-93.801	92.718	-0.213	0.237
-92.786	352.073	0.145	-0.284
-91.772	73.708	-0.770	0.796
-90.757	46.004	0.417	0.380
-89.743	-86.644	-0.479	0.145
-88.728	-200.000	-0.059	0.281
-87.713	13.163	0.383	0.293
-86.699	2.021	-0.192	-0.137
-85.684	800.000	-0.106	0.447
-84.670	-200.000	0.015	0.407
-83.655	-100.507	0.280	-0.068
-82.640	800.000	-0.031	0.133
-81.626	-123.612	-0.092	-0.014
-80.611	96.300	0.200	-0.226
-79.597	-160.575	-1.055	-0.056
-78.582	3.974	-0.331	-0.239
-77.567	-200.000	-0.030	0.593
-76.553	191.645	-0.225	-0.335
-75.538	-91.935	-0.416	0.116
-74.524	10.690	0.724	-0.544
-73.509	-67.885	-0.327	-0.126
-72.494	-6.499	0.314	0.211
-71.480	-139.884	-0.716	0.075
-70.465	-88.577	0.512	0.150
-69.451	-200.000	0.176	0.769
-68.436	480.135	-0.190	-0.424
-67.422	255.773	0.234	-0.396
-66.407	-76.061	-0.207	0.072
-65.392	236.088	0.280	0.456
-64.378	10.632	0.426	-0.320
-63.363	386.150	-0.174	0.353
-62.349	-46.264	-0.213	0.103
-61.334	590.864	0.152	-0.369
-60.319	66.515	0.398	0.399
-59.305	368.432	0.442	-0.881
-58.290	-200.000	-0.168	1.149
-57.276	-200.000	0.236	2.087
-56.261	-200.000	95.665	569.815
-55.246	635.920	1370.992	3428.572
-54.232	199.660	2540.007	3838.492
-53.217	118.063	2131.307	2587.538
-52.203	44.972	1599.509	1450.927
-51.188	37.042	1338.044	1166.255
-50.173	33.764	1297.468	1111.686
-49.159	57.022	1347.826	1294.086
-48.144	57.801	1364.597	1314.783
-47.130	37.170	1321.328	1152.261
-46.115	33.950	1303.533	1117.800
-45.100	33.317	1299.952	1110.971
-44.086	33.321	1296.311	1107.835
-43.071	33.299	1294.413	1106.045
-42.057	33.174	1293.122	1104.164
-41.042	33.339	1290.280	1102.659
-40.027	33.188	1288.843	1100.504
-39.013	33.217	1286.929	1098.999
-37.998	32.962	1286.790	1097.353
-36.984	33.302	1283.759	1096.694
-35.969	33.419	1281.497	1095.395
-34.954	33.318	1281.453	1094.732
-33.940	33.433	1279.226	1093.447
-32.925	33.412	1277.796	1092.060
-31.911	33.395	1276.387	1090.719
-30.896	33.409	1275.096	1089.653
-29.881	33.494	1273.360	1088.614
-28.867	33.581	1272.039	1087.939
-27.852	33.417	1270.807	1085.901
-26.838	33.873	1268.138	1086.183
-25.823	33.439	1267.191	1082.853
-24.809	33.398	1267.380	1082.736
-23.794	33.488	1265.477	1081.583
-22.779	33.489	1264.301	1080.537
-21.765	33.595	1263.579	1080.483
-20.750	33.608	1260.703	1078.056
-19.736	33.406	1259.926	1076.202
-18.721	33.317	1259.179	1075.016
-17.706	33.317	1258.686	1074.549
-16.692	33.527	1256.677	1073.983
-15.677	33.303	1256.597	1072.602
-14.663	33.523	1254.533	1072.044
-13.648	33.057	1254.506	1069.340
-12.633	33.287	1252.693	1069.052
-11.619	33.198	1252.125	1068.022
-10.604	33.400	1250.656	1067.867
-9.590	33.149	1250.858	1066.578
-8.575	33.364	1249.474	1066.566
-7.560	33.209	1248.247	1064.605
-6.546	33.398	1247.883	1065.318
-5.531	33.293	1247.945	1064.735
-4.517	33.451	1245.048	1063.108
-3.502	33.268	1245.043	1062.033
-2.487	33.120	1244.548	1060.742
-1.473	33.021	1241.883	1057.871
-0.458	31.858	1225.056	1037.070
0.556	28.961	1207.179	996.982
1.571	25.274	1212.280	980.993
2.586	24.251	1227.328	987.421
3.600	23.701	1217.024	976.020
4.615	17.444	1145.420	886.042
5.629	7.746	1069.199	779.665
6.644	3.360	1048.395	743.303
7.659	2.994	1046.196	739.915
8.673	2.771	1045.314	738.153
9.688	2.836	1043.265	736.952
10.702	3.171	1041.983	737.589
11.717	9.206	1049.821	772.144
12.731	18.896	1065.328	830.529
13.746	24.105	1071.242	860.302
14.761	25.485	1072.206	867.663
15.775	25.413	1071.524	866.689
16.790	25.313	1070.679	865.446
17.804	25.264	1069.585	864.250
18.819	25.106	1069.924	863.688
19.834	25.450	1068.779	864.340
20.848	25.718	1068.596	865.403
21.863	25.630	1067.932	864.369
22.877	25.451	1067.363	862.974
23.892	25.315	1067.049	861.986
24.907	25.097	1066.849	860.706
25.921	25.544	1065.269	861.493
26.936	25.305	1063.049	858.480
27.950	25.391	1062.320	858.227
28.965	25.345	1060.091	856.133
29.980	25.708	1058.853	856.782
30.994	25.352	1058.542	854.765
32.009	25.269	1057.971	853.829
33.023	25.579	1055.639	853.346
34.038	25.558	1055.428	853.000
35.053	25.331	1054.667	851.231
36.067	25.374	1054.056	850.868
37.082	25.609	1052.764	850.863
38.096	25.755	1051.581	850.521
39.111	25.561	1052.358	850.157
40.126	25.125	1050.913	846.854
41.140	25.277	1049.055	845.997
42.155	24.915	1048.101	843.448
43.169	25.023	1046.615	842.688
44.184	25.162	1046.374	843.071
45.199	25.013	1045.294	841.428
46.213	25.136	1044.085	840.958
47.228	25.180	1044.236	841.210
48.242	25.287	1043.386	840.954
49.257	25.528	1042.459	841.258
50.271	25.587	1041.253	840.486
51.286	25.638	1040.847	840.323
52.301	25.554	1040.117	839.268
53.315	25.224	1039.225	836.935
54.330	25.418	1037.719	836.553
55.344	25.319	1037.477	835.819
56.359	25.370	1035.683	834.540
57.374	25.427	1034.660	833.907
58.388	25.178	1035.576	833.414
59.403	25.181	1034.181	832.232
60.417	25.333	1032.454	831.471
61.432	25.151	1032.600	830.669
62.447	25.297	1031.941	830.743
63.461	25.321	1030.841	829.896
64.476	25.543	1029.393	829.681
65.490	24.964	1029.850	827.300
66.505	25.368	1028.973	828.390
67.520	25.423	1026.900	826.901
68.534	24.801	1027.069	824.098
69.549	24.915	1025.485	823.277
70.563	24.878	1025.108	822.731
71.578	24.641	1024.535	821.110
72.593	24.577	1023.802	820.158
73.607	24.914	1023.014	820.998
74.622	24.989	1022.126	820.557
75.636	25.119	1022.199	821.141
76.651	24.845	1021.097	818.930
77.666	24.802	1021.368	818.874
78.680	25.053	1020.203	819.018
79.695	25.019	1019.712	818.394
80.709	25.142	1018.968	818.287
81.724	25.005	1018.057	816.857
82.739	25.266	1017.447	817.485
83.753	25.479	1016.646	817.738
84.768	25.732	1016.477	818.681
85.782	26.134	1015.205	819.408
86.797	25.886	1014.346	817.518
87.812	25.730	1013.424	815.996
88.826	25.793	1012.507	815.472
89.841	25.644	1011.979	814.299
90.855	25.686	1011.485	814.019
91.870	25.649	1010.511	812.997
92.884	25.500	1009.385	811.346
93.899	25.364	1008.665	810.082
94.914	25.822	1007.131	810.840
95.928	25.652	1006.781	809.722
96.943	25.658	1004.853	808.127
97.957	25.205	1004.338	805.608
98.972	25.414	1002.905	805.323
99.987	25.159	1004.006	804.991
101.001	25.795	1001.655	805.885
102.016	25.723	1000.680	804.706
103.030	25.713	999.472	803.620
104.045	25.530	998.961	802.319
105.060	25.552	997.380	801.079
106.074	25.779	997.350	801.994
107.089	25.607	996.995	800.870
108.103	25.579	995.399	799.394
109.118	25.195	994.890	797.207
110.133	25.347	993.385	796.606
111.147	25.138	991.978	794.483
112.162	25.247	991.094	794.184
113.176	25.266	990.536	793.751
114.191	25.234	990.065	793.162
115.206	24.854	988.931	790.504
116.220	24.915	988.377	790.261
117.235	24.983	988.826	790.852
118.249	25.206	986.588	789.976
119.264	24.938	986.857	788.941
120.279	25.142	985.088	788.350
121.293	25.317	984.373	788.479
122.308	25.165	983.385	786.953
123.322	24.990	982.548	785.444
124.337	24.830	982.012	784.245
125.352	24.345	980.667	780.978
126.366	24.450	979.669	780.572
127.381	25.271	978.765	783.369
128.395	25.352	979.463	784.215
129.410	25.623	977.644	783.866
130.424	25.500	976.985	782.735
131.439	25.706	975.910	782.701
132.454	25.475	975.466	781.271
133.468	25.641	974.416	781.081
134.483	25.604	973.689	780.267
135.497	25.730	973.672	780.732
136.512	26.072	971.821	780.660
137.527	25.960	971.093	779.523
138.541	25.843	970.698	778.628
139.556	25.663	970.475	777.606
140.570	25.634	969.363	776.520
141.585	25.674	969.265	776.546
142.600	25.689	967.272	774.943
143.614	25.956	967.200	775.967
144.629	26.163	965.718	775.598
145.643	26.093	964.933	774.597
146.658	25.838	962.763	771.695
147.673	25.983	961.963	771.607
148.687	25.648	961.040	769.368
149.702	25.883	959.857	769.354
150.716	25.870	959.572	769.004
151.731	25.881	958.818	768.378
152.746	26.036	958.438	768.665
153.760	26.241	957.958	769.087
154.775	26.120	956.504	767.336
155.789	26.037	956.846	767.191
156.804	25.777	955.555	764.982
157.819	26.249	953.821	765.527
158.833	26.251	954.785	766.239
159.848	26.375	953.220	765.443
160.862	26.133	952.134	763.480
161.877	25.982	950.378	761.366
162.892	25.723	950.817	760.558
163.906	25.918	949.157	759.985
164.921	25.913	948.338	759.238
165.935	25.812	948.459	758.844
166.950	25.922	946.761	757.880
167.964	26.192	945.558	757.985
168.979	25.874	943.865	755.229
169.994	25.898	942.921	754.506
171.008	26.389	942.478	756.140
172.023	26.382	942.434	756.007
173.037	26.139	940.846	753.650
174.052	26.153	939.620	752.661
175.067	26.057	940.072	752.558
176.081	25.968	939.929	752.004
177.096	25.910	937.842	750.026
178.110	25.545	937.082	747.833
179.125	25.380	937.198	747.176
180.140	25.726	936.744	748.187
181.154	25.506	936.558	747.055
182.169	25.882	936.786	748.733
183.183	25.956	936.251	748.547
184.198	26.109	934.565	747.769
185.213	26.215	934.358	747.973
186.227	26.233	933.605	747.379
187.242	26.345	932.717	747.064
188.256	26.426	931.120	746.056
189.271	26.055	931.830	745.025
190.286	25.633	931.092	742.630
191.300	25.183	928.379	738.546
192.315	24.382	928.472	735.257
193.329	24.633	926.554	734.706
194.344	25.407	927.718	738.746
195.359	25.767	927.706	740.152
196.373	26.238	926.598	741.135
197.388	26.145	926.370	740.506
198.402	26.239	926.445	740.887
199.417	26.233	926.162	740.570
200.432	26.047	923.935	737.964
201.446	25.527	924.481	736.204
202.461	25.618	923.834	735.997
203.475	25.428	922.060	733.744
204.490	24.407	919.905	727.798
205.504	25.395	920.451	732.199
206.519	25.920	920.426	734.253
207.534	25.568	919.519	732.028
208.548	26.233	920.356	735.340
209.563	25.943	919.336	733.280
210.577	25.939	918.318	732.389
211.592	26.392	917.766	733.723
212.607	26.368	917.182	733.093
213.621	26.614	915.688	732.831
214.636	26.184	916.665	731.803
215.650	26.311	914.986	730.914
216.665	26.578	914.473	731.517
217.680	26.439	913.941	730.466
218.694	25.859	912.677	727.049
219.709	25.729	911.802	725.766
220.723	26.128	912.370	727.763
221.738	26.365	910.852	727.439
222.753	26.717	909.809	727.958
223.767	26.625	909.391	727.191
224.782	26.421	909.508	726.398
225.796	26.483	909.120	726.275
226.811	25.968	908.482	723.633
227.826	25.241	907.443	719.829
228.840	25.424	905.851	719.232
229.855	25.626	905.028	719.324
230.869	25.196	904.198	716.884
231.884	25.392	904.224	717.621
232.899	26.153	903.644	720.137
233.913	26.040	903.639	719.619
234.928	26.212	903.111	719.818
235.942	25.702	903.622	718.130
236.957	25.809	901.246	716.603
237.972	25.796	901.127	716.394
238.986	26.190	899.688	716.750
240.001	25.902	899.831	715.658
241.015	25.728	900.340	715.309
242.030	26.118	898.692	715.479
243.045	25.969	898.275	714.494
244.059	26.175	897.701	714.790
245.074	26.142	897.082	714.102
246.088	26.106	896.358	713.323
247.103	26.375	896.605	714.518
248.117	26.491	896.171	714.568
249.132	27.261	895.493	717.002
250.147	27.247	895.399	716.807
251.161	27.142	895.022	716.028
252.176	27.274	893.872	715.565
253.190	27.372	892.298	714.627
254.205	27.451	892.854	715.318
255.220	27.361	891.767	714.029
256.234	27.349	890.864	713.197
257.249	27.036	890.745	711.813
258.263	27.110	889.572	711.102
259.278	27.402	889.693	712.277
260.293	27.301	889.239	711.456
261.307	27.030	887.716	709.118
262.322	26.853	887.631	708.295
263.336	25.913	886.451	703.623
264.351	25.399	885.170	700.541
265.366	25.490	883.762	699.718
266.380	26.548	884.832	704.627
267.395	26.888	884.579	705.683
268.409	26.894	883.694	704.939
269.424	27.120	882.653	704.922
270.439	27.143	882.462	704.797
271.453	27.082	881.560	703.777
272.468	27.025	881.820	703.704
273.482	27.016	881.130	703.057
274.497	26.741	880.005	701.031
275.512	26.629	879.654	700.257
276.526	26.800	878.864	700.228
277.541	26.878	878.299	700.016
278.555	26.711	878.271	699.287
279.570	26.816	877.834	699.280
280.585	26.835	877.015	698.639
281.599	26.866	876.039	697.920
282.614	26.468	874.520	695.119
283.628	26.420	873.803	694.303
284.643	26.331	874.997	694.847
285.657	26.362	872.555	692.970
286.672	26.101	871.953	691.428
287.687	26.667	872.448	693.930
288.701	26.575	871.490	692.752
289.716	26.224	871.183	691.103
290.730	26.364	870.051	690.679
291.745	26.276	869.152	689.568
292.760	26.337	869.034	689.650
293.774	27.381	869.211	693.709
294.789	27.592	869.227	694.464
295.803	27.599	868.300	693.688
296.818	27.560	867.212	692.609
297.833	26.939	866.520	689.636
298.847	26.677	866.655	688.688
299.862	27.389	865.149	690.130
300.876	27.623	865.187	690.989
301.891	27.370	864.743	689.612
302.906	27.332	863.058	688.062
303.920	26.757	864.380	686.880
304.935	27.452	864.380	689.450
305.949	27.603	863.293	689.094
306.964	27.340	862.543	687.440
307.979	26.998	861.958	685.622
308.993	27.756	860.856	687.545
310.008	27.524	860.897	686.640
311.022	27.463	860.374	685.932
312.037	27.335	859.381	684.598
313.052	27.119	858.626	683.126
314.066	26.212	857.125	678.466
315.081	25.530	857.546	676.174
316.095	26.551	856.722	679.297
317.110	27.352	855.789	681.498
318.125	26.376	854.954	677.121
319.139	25.447	854.092	672.901
320.154	25.266	853.269	671.516
321.168	26.532	853.701	676.532
322.183	26.712	853.849	677.261
323.197	26.858	853.927	677.809
324.212	27.622	852.027	679.090
325.227	27.079	852.546	677.419
326.241	26.949	851.131	675.750
327.256	27.114	850.956	676.166
328.270	26.979	849.775	674.666
329.285	26.709	849.344	673.260
330.300	26.486	848.625	671.802
331.314	26.749	848.151	672.345
332.329	27.295	848.560	674.633
333.343	27.518	847.147	674.277
334.358	27.517	847.145	674.210
335.373	27.628	846.723	674.226
336.387	27.692	846.791	674.455
337.402	27.864	847.458	675.565
338.416	27.662	846.592	674.067
339.431	27.845	846.448	674.570
340.446	27.824	846.151	674.198
341.460	28.039	845.001	674.013
342.475	28.127	844.999	674.276
343.489	27.904	844.736	673.184
344.504	28.024	844.381	673.285
345.519	27.988	844.460	673.155
346.533	28.134	843.449	672.828
347.548	28.497	842.316	673.198
348.562	27.641	842.820	670.393
349.577	27.989	841.875	670.860
350.592	27.972	841.433	670.388
351.606	28.044	840.422	669.788
352.621	27.924	838.922	668.093
353.635	28.123	838.052	668.068
354.650	27.532	836.689	664.766
355.665	26.510	836.132	660.538
356.679	26.687	835.680	660.767
357.694	27.438	835.169	663.042
358.708	27.402	834.340	662.194
359.723	27.816	833.678	663.112
360.738	27.838	834.296	663.626
361.752	27.655	833.416	662.202
362.767	28.302	832.357	663.650
363.781	28.417	833.419	664.855
364.796	28.669	832.577	665.036
365.810	28.519	832.456	664.336
366.825	28.099	832.232	662.579
367.840	28.333	830.119	661.682
368.854	27.888	830.834	660.586
369.869	28.032	829.923	660.324
370.883	27.987	829.739	659.956
371.898	28.008	828.727	659.167
372.913	28.124	828.546	659.384
373.927	27.861	828.172	658.078
374.942	28.290	827.294	658.867
375.956	28.168	827.408	658.461
376.971	28.219	827.387	658.570
377.986	28.335	827.034	658.646
379.000	28.375	825.409	657.439
380.015	28.166	825.995	657.095
381.029	27.924	825.343	655.652
382.044	28.176	824.603	655.909
383.059	28.557	823.373	656.237
384.073	28.520	823.545	656.183
385.088	27.823	823.099	653.276
386.102	28.027	821.369	652.573
387.117	27.737	821.741	651.777
388.132	27.693	820.886	650.882
389.146	27.302	820.158	648.855
390.161	27.883	819.486	650.336
391.175	28.028	818.962	650.377
392.190	27.857	818.564	649.394
393.205	26.796	815.906	643.464
394.219	25.239	814.937	637.120
395.234	25.523	814.013	637.349
396.248	26.728	815.391	642.647
397.263	27.618	815.836	646.098
398.278	27.610	815.208	645.512
399.292	27.218	815.145	644.018
400.307	27.298	813.508	642.953
401.321	27.430	813.614	643.445
402.336	28.179	813.221	645.720
403.350	28.157	814.054	646.248
404.365	28.312	814.535	647.122
405.380	28.562	813.364	647.015
406.394	28.868	812.432	647.294
407.409	28.726	813.334	647.455
408.423	28.689	811.741	645.999
409.438	28.744	810.744	645.343
410.453	28.486	811.965	645.347
411.467	28.350	810.495	643.645
412.482	28.427	810.780	644.087
413.496	28.676	810.668	644.815
414.511	28.666	809.922	644.127
415.526	28.844	809.459	644.328
416.540	28.727	808.715	643.268
417.555	28.435	807.321	641.081
418.569	28.726	806.476	641.371
419.584	28.433	806.826	640.567
420.599	28.624	805.823	640.382
421.613	159.547	1371.475	1792.359
422.628	138.621	1453.950	1792.412
