DTS Sentinel unit serial number:	SN413079Multiplexer serial number:	ORYXHardware model number:	OX4-SRSoftware version number:	ORYX F/W v4.00 Oryx Data Collector v3.7.2.0data status	okinstallation	princeton_trtdifferential loss correction	single-endedforward channel	channel 1reverse channel	N/Adate	2019/09/11time	22:56:11forward acquisition time	60.00reverse acquisition time	0.00gamma	496.2192k internal	0.2316k external	0.2316temperature offset calibration	1.0067default loss term (dB/km)	0.3790temperature slope calibration	1.0000multiplexer offset coefficient	1.0000multiplexer slope coefficient	1.0000fibre end	0.00T internal ref (°C)	34.67T ext. ref 1 (°C)	1.83T ext. ref 2 (°C)	29.38length (m)	temperature (°C)	Stokes	anti-Stokes-747.200	-130.924	0.106	-0.014
-746.185	-54.190	-0.236	-0.109
-745.171	-118.991	0.319	-0.057
-744.156	779.481	-0.080	0.220
-743.142	92.791	-0.205	0.234
-742.127	140.786	0.140	0.187
-741.112	-113.330	0.237	-0.047
-740.098	448.541	-0.144	0.322
-739.083	28.836	-0.240	0.206
-738.069	82.029	0.259	0.284
-737.054	-200.000	0.003	-0.016
-736.039	800.000	-0.032	-0.133
-735.025	91.007	0.212	0.240
-734.010	158.163	0.177	-0.249
-732.996	-200.000	-0.000	0.126
-731.981	-200.000	0.006	-0.158
-730.966	413.405	-0.068	0.146
-729.952	418.593	0.143	-0.310
-728.937	101.622	-0.079	-0.093
-727.923	139.779	0.203	-0.271
-726.908	140.813	-0.100	0.133
-725.894	410.705	-0.075	0.162
-724.879	-43.922	-0.142	0.072
-723.864	-45.441	-0.252	-0.126
-722.850	-135.625	0.285	0.034
-721.835	-200.000	-0.014	0.083
-720.821	103.566	-0.220	-0.261
-719.806	-74.354	-0.160	0.059
-718.791	194.540	0.076	0.117
-717.777	-49.332	0.182	-0.088
-716.762	92.908	-0.293	-0.335
-715.748	-57.664	-0.203	0.090
-714.733	585.536	0.188	0.469
-713.718	-57.568	0.127	0.056
-712.704	53.594	-0.179	-0.173
-711.689	108.440	-0.050	-0.060
-710.675	141.186	-0.150	0.201
-709.660	79.179	-0.114	-0.124
-708.645	55.923	-0.244	-0.240
-707.631	-60.258	-0.197	0.085
-706.616	-58.195	0.085	0.037
-705.602	-200.000	0.025	0.137
-704.587	-200.000	-0.015	-0.096
-703.572	649.960	-0.014	0.037
-702.558	-108.832	0.258	-0.056
-701.543	-200.000	-0.012	-0.317
-700.529	-200.000	-0.027	-0.263
-699.514	-135.522	-0.245	0.030
-698.499	15.374	0.068	0.054
-697.485	-200.000	0.021	0.150
-696.470	452.755	-0.104	-0.232
-695.456	-200.000	0.060	0.303
-694.441	-42.512	-0.232	-0.119
-693.426	-128.090	-0.194	-0.028
-692.412	-82.308	-0.392	-0.129
-691.397	-103.006	-0.092	0.022
-690.383	-6.314	-0.058	-0.040
-689.368	-39.526	-0.292	-0.155
-688.354	-11.964	0.217	-0.144
-687.339	154.583	0.158	0.220
-686.324	-102.350	-0.338	0.082
-685.310	66.352	0.128	-0.132
-684.295	-60.261	-0.096	-0.041
-683.281	-98.518	0.128	-0.033
-682.266	74.885	-0.095	0.101
-681.251	-4.466	-0.025	0.017
-680.237	90.239	-0.087	0.098
-679.222	448.700	-0.268	0.597
-678.208	9.062	0.390	0.298
-677.193	-121.135	0.312	0.053
-676.178	800.000	0.168	0.504
-675.164	-64.875	-0.238	0.097
-674.149	-200.000	-0.048	0.374
-673.135	-108.613	-0.083	-0.018
-672.120	-140.470	-0.213	-0.022
-671.105	28.664	0.194	-0.166
-670.091	8.207	0.120	-0.091
-669.076	800.000	-0.042	0.118
-668.062	-200.000	0.036	0.381
-667.047	205.447	-0.194	0.304
-666.032	-50.204	0.254	-0.121
-665.018	14.097	-0.160	-0.126
-664.003	-40.861	-0.278	0.145
-662.989	472.663	-0.020	-0.045
-661.974	-200.000	-0.054	0.316
-660.959	-200.000	-0.012	0.231
-659.945	800.000	0.029	-0.106
-658.930	260.620	0.060	-0.105
-657.916	-200.000	0.005	0.098
-656.901	-77.432	0.291	-0.102
-655.886	121.377	-0.077	0.096
-654.872	800.000	0.066	-0.190
-653.857	-185.697	0.435	0.007
-652.843	12.167	0.179	-0.139
-651.828	175.860	-0.076	-0.111
-650.814	56.653	0.100	-0.098
-649.799	436.474	-0.129	0.284
-648.784	209.879	0.166	-0.262
-647.770	273.242	0.064	0.114
-646.755	92.952	0.128	0.146
-645.741	800.000	0.048	-0.166
-644.726	-104.626	0.184	0.043
-643.711	199.674	-0.118	-0.182
-642.697	-15.898	-0.111	-0.072
-641.682	-200.000	-0.033	-0.399
-640.668	-158.130	-0.267	-0.016
-639.653	800.000	0.042	-0.132
-638.638	-200.000	0.005	-0.081
-637.624	129.338	-0.058	0.074
-636.609	655.463	0.125	-0.324
-635.595	-200.000	-0.041	-0.292
-634.580	-65.655	-0.210	-0.085
-633.565	-200.000	0.003	-0.070
-632.551	800.000	-0.066	-0.196
-631.536	-11.647	-0.153	0.101
-630.522	-200.000	0.024	-0.148
-629.507	800.000	-0.056	-0.224
-628.492	71.138	-0.152	-0.159
-627.478	800.000	0.017	-0.051
-626.463	561.948	0.075	0.184
-625.449	800.000	-0.041	0.123
-624.434	-9.629	0.226	0.152
-623.419	-56.431	-0.180	-0.081
-622.405	-200.000	-0.037	-0.194
-621.390	-128.243	0.203	-0.029
-620.376	-200.000	-0.012	0.144
-619.361	-184.932	-0.182	-0.003
-618.346	-4.244	0.160	-0.112
-617.332	-39.297	0.197	0.104
-616.317	-80.541	-0.134	0.045
-615.303	-84.382	-0.351	-0.112
-614.288	124.805	-0.245	0.311
-613.273	-200.000	-0.012	0.428
-612.259	-34.957	-0.162	0.089
-611.244	-14.788	-0.077	-0.050
-610.230	-104.587	0.440	0.102
-609.215	-72.944	0.203	-0.075
-608.201	180.430	0.144	-0.213
-607.186	345.666	0.086	0.171
-606.171	-200.000	-0.017	-0.247
-605.157	-200.000	0.096	-0.450
-604.142	-83.966	-0.276	0.088
-603.128	431.196	0.079	-0.171
-602.113	800.000	-0.111	-0.324
-601.098	95.624	-0.007	0.008
-600.084	35.866	0.165	-0.146
-599.069	191.969	-0.136	0.207
-598.055	-109.508	-0.209	0.045
-597.040	128.514	0.072	0.092
-596.025	-200.000	-0.101	-0.474
-595.011	-116.624	0.493	-0.091
-593.996	-200.000	-0.016	-0.177
-592.982	-58.265	0.165	-0.072
-591.967	-86.896	-0.166	0.051
-590.952	103.762	0.047	-0.055
-589.938	19.482	0.182	-0.147
-588.923	36.132	0.387	0.343
-587.909	-200.000	-0.051	-0.366
-586.894	78.365	-0.146	-0.157
-585.879	-29.189	0.288	-0.166
-584.865	-200.000	0.072	0.346
-583.850	-109.478	0.253	0.054
-582.836	-129.893	0.379	-0.052
-581.821	-141.513	0.162	-0.017
-580.806	-154.763	-0.433	-0.029
-579.792	-41.814	0.042	-0.022
-578.777	-200.000	0.041	0.359
-577.763	800.000	-0.040	-0.131
-576.748	-200.000	-0.026	0.251
-575.733	243.632	0.003	-0.005
-574.719	-200.000	0.031	-0.204
-573.704	-200.000	0.037	-0.348
-572.690	102.889	-0.202	0.237
-571.675	-100.238	-0.085	-0.021
-570.661	-200.000	0.004	0.073
-569.646	-200.000	-0.037	-0.184
-568.631	-102.374	-0.070	0.017
-567.617	-200.000	-0.002	0.242
-566.602	240.197	0.065	0.109
-565.588	16.574	0.063	0.050
-564.573	-200.000	-0.011	-0.153
-563.558	139.447	-0.043	-0.057
-562.544	446.432	-0.048	-0.106
-561.529	-152.429	0.206	-0.015
-560.515	-200.000	0.029	-0.160
-559.500	-97.149	-0.166	-0.044
-558.485	-86.012	-0.165	0.051
-557.471	-91.401	-0.143	0.041
-556.456	-200.000	-0.011	-0.243
-555.442	238.493	-0.141	0.235
-554.427	-34.346	0.238	0.131
-553.412	-7.535	0.037	0.025
-552.398	-200.000	-0.083	-0.428
-551.383	128.767	-0.125	-0.160
-550.369	-200.000	0.069	-0.769
-549.354	57.734	-0.078	0.076
-548.339	73.303	-0.019	0.020
-547.325	-118.080	-0.097	-0.017
-546.310	-200.000	0.027	-0.294
-545.296	-39.796	-0.126	-0.066
-544.281	-157.681	0.172	0.010
-543.266	38.202	-0.175	-0.157
-542.252	-1.264	-0.152	0.108
-541.237	40.242	-0.277	-0.250
-540.223	-14.006	-0.296	0.192
-539.208	-147.162	0.065	0.006
-538.193	-56.591	0.274	-0.122
-537.179	800.000	0.071	0.231
-536.164	-200.000	-0.042	0.226
-535.150	348.171	0.118	0.235
-534.135	800.000	-0.042	0.161
-533.121	800.000	-0.037	-0.139
-532.106	-200.000	-0.001	-0.055
-531.091	41.293	0.109	0.099
-530.077	-200.000	0.075	0.412
-529.062	262.888	0.090	0.157
-528.048	-82.260	0.068	0.022
-527.033	-200.000	0.008	0.183
-526.018	-67.179	0.058	-0.023
-525.004	-40.060	0.444	-0.232
-523.989	220.267	-0.073	0.117
-522.975	-200.000	-0.041	0.214
-521.960	-200.000	0.029	-0.223
-520.945	1.337	0.243	0.175
-519.931	147.711	0.108	0.146
-518.916	715.197	-0.052	-0.139
-517.902	-200.000	0.000	0.169
-516.887	-17.661	-0.334	-0.211
-515.872	-173.590	0.022	0.001
-514.858	57.018	-0.158	0.154
-513.843	88.881	-0.199	-0.222
-512.829	-79.413	0.194	0.066
-511.814	-40.719	-0.305	-0.158
-510.799	-200.000	0.019	-0.133
-509.785	96.189	0.152	0.175
-508.770	18.738	-0.011	0.008
-507.756	-18.180	0.108	-0.068
-506.741	-110.755	0.189	0.039
-505.726	2.411	-0.133	-0.097
-504.712	129.711	0.103	0.132
-503.697	-41.880	-0.089	0.046
-502.683	-83.440	-0.342	0.110
-501.668	-200.000	0.033	0.373
-500.653	-162.105	-0.339	-0.017
-499.639	32.250	-0.168	0.146
-498.624	769.086	-0.021	0.056
-497.610	-200.000	-0.010	-0.076
-496.595	-87.593	0.444	-0.135
-495.581	27.960	-0.214	-0.181
-494.566	-168.562	-0.105	-0.004
-493.551	39.468	-0.154	-0.138
-492.537	800.000	-0.061	0.260
-491.522	-71.928	-0.223	-0.083
-490.508	800.000	-0.077	0.259
-489.493	-98.842	0.313	-0.080
-488.478	-200.000	0.013	0.274
-487.464	439.522	-0.056	-0.123
-486.449	-47.331	0.198	-0.097
-485.435	114.606	0.190	0.233
-484.420	-60.811	0.265	-0.113
-483.405	800.000	-0.042	-0.117
-482.391	74.945	-0.107	-0.113
-481.376	-114.867	0.056	0.011
-480.362	-5.526	0.418	-0.288
-479.347	395.531	-0.164	0.344
-478.332	800.000	-0.067	0.268
-477.318	64.371	0.145	0.146
-476.303	370.453	0.068	0.138
-475.289	-4.400	0.388	0.269
-474.274	-34.111	-0.091	-0.050
-473.259	66.167	0.287	0.291
-472.245	177.327	0.181	0.263
-471.230	237.910	-0.070	-0.116
-470.216	-200.000	-0.051	-0.364
-469.201	800.000	0.066	0.281
-468.186	-200.000	-0.001	0.078
-467.172	800.000	-0.088	-0.282
-466.157	322.924	0.037	-0.070
-465.143	-84.088	-0.377	-0.120
-464.128	-141.118	-0.263	-0.027
-463.113	-145.553	0.645	-0.058
-462.099	59.498	-0.078	-0.077
-461.084	800.000	-0.058	-0.165
-460.070	-200.000	-0.089	-0.394
-459.055	-108.531	-0.258	0.056
-458.040	728.832	0.055	-0.148
-457.026	-162.055	0.110	-0.006
-456.011	-11.033	-0.305	0.201
-454.997	-154.376	0.299	0.020
-453.982	-40.747	0.175	-0.091
-452.968	-9.218	0.202	-0.135
-451.953	-200.000	0.024	0.175
-450.938	-200.000	-0.030	-0.175
-449.924	615.005	0.102	0.256
-448.909	-109.234	0.219	-0.047
-447.895	57.855	-0.077	-0.075
-446.880	318.054	-0.068	0.129
-445.865	-33.836	-0.104	0.057
-444.851	-200.000	-0.014	-0.159
-443.836	800.000	0.027	-0.094
-442.822	390.800	-0.040	0.083
-441.807	35.549	0.145	0.127
-440.792	13.125	0.093	-0.072
-439.778	199.882	-0.153	-0.235
-438.763	48.269	0.331	0.310
-437.749	-105.851	-0.068	0.015
-436.734	424.728	-0.135	0.291
-435.719	-56.649	0.080	0.036
-434.705	800.000	0.049	-0.190
-433.690	-151.086	-0.192	-0.014
-432.676	-35.279	-0.126	-0.069
-431.661	478.640	0.129	0.292
-430.646	602.940	0.037	0.091
-429.632	121.689	-0.312	-0.390
-428.617	-30.855	0.068	0.038
-427.603	-80.384	-0.051	0.017
-426.588	800.000	0.074	0.285
-425.573	-162.006	-0.198	-0.010
-424.559	-121.885	0.380	0.063
-423.544	33.937	0.063	0.054
-422.530	20.293	-0.238	0.192
-421.515	194.335	-0.187	-0.283
-420.500	-200.000	0.004	-0.073
-419.486	70.445	0.197	-0.204
-418.471	-57.861	0.230	-0.101
-417.457	-200.000	-0.037	0.365
-416.442	-83.639	-0.304	-0.097
-415.428	-105.375	0.074	0.017
-414.413	-119.945	-0.083	0.014
-413.398	488.789	0.118	-0.271
-412.384	99.786	0.107	0.124
-411.369	10.154	-0.473	-0.360
-410.355	96.438	-0.105	-0.120
-409.340	639.079	-0.055	-0.141
-408.325	800.000	-0.092	-0.268
-407.311	-168.242	0.035	-0.001
-406.296	-83.270	0.135	0.043
-405.282	-69.682	-0.351	0.134
-404.267	-107.521	0.238	0.052
-403.252	334.943	-0.111	0.215
-402.238	800.000	0.053	0.214
-401.223	667.908	-0.070	0.182
-400.209	-87.816	0.362	0.109
-399.194	-97.132	-0.172	-0.045
-398.179	4.562	0.074	-0.055
-397.165	163.461	0.038	0.054
-396.150	672.224	-0.100	0.259
-395.136	-74.311	0.049	0.018
-394.121	39.657	-0.030	0.027
-393.106	-122.405	0.205	0.033
-392.092	74.239	0.046	-0.049
-391.077	67.231	-0.056	0.057
-390.063	34.213	-0.204	-0.178
-389.048	531.136	0.165	-0.391
-388.033	-104.749	0.335	-0.077
-387.019	587.689	0.063	-0.155
-386.004	193.453	0.079	-0.119
-384.990	-88.911	-0.179	0.053
-383.975	800.000	-0.028	-0.085
-382.960	-81.951	-0.038	0.012
-381.946	800.000	-0.099	0.366
-380.931	-13.035	0.211	0.137
-379.917	-19.425	-0.275	0.170
-378.902	-142.607	0.019	0.002
-377.888	800.000	-0.028	0.094
-376.873	75.325	-0.348	-0.366
-375.858	240.335	0.087	-0.146
-374.844	-200.000	-0.013	-0.162
-373.829	800.000	-0.095	0.346
-372.815	84.128	0.111	0.121
-371.800	17.020	-0.254	0.201
-370.785	63.505	0.089	-0.089
-369.771	182.815	-0.293	0.432
-368.756	149.887	0.146	0.198
-367.742	-46.135	0.226	-0.111
-366.727	-200.000	0.085	-0.409
-365.712	-200.000	0.006	-0.074
-364.698	-200.000	-0.005	-0.160
-363.683	150.973	0.198	0.269
-362.669	164.712	-0.241	0.339
-361.654	-0.194	-0.017	0.012
-360.639	111.718	-0.276	0.332
-359.625	-81.233	-0.041	-0.014
-358.610	-74.073	0.182	-0.066
-357.596	100.614	-0.149	-0.173
-356.581	186.169	0.226	-0.336
-355.566	-34.143	0.305	0.167
-354.552	-200.000	-0.001	-0.347
-353.537	52.329	-0.105	-0.100
-352.523	-151.466	0.346	0.026
-351.508	572.954	0.092	0.225
-350.493	800.000	-0.031	0.126
-349.479	6.849	-0.189	0.140
-348.464	59.963	-0.079	0.078
-347.450	215.722	0.098	0.156
-346.435	-117.309	-0.378	-0.068
-345.420	-200.000	0.069	-0.311
-344.406	-63.223	0.124	0.051
-343.391	315.584	0.104	-0.196
-342.377	115.429	-0.196	-0.239
-341.362	-31.967	0.143	-0.080
-340.348	-2.061	-0.206	0.144
-339.333	-48.564	0.195	-0.094
-338.318	-113.246	-0.329	-0.064
-337.304	1.577	0.271	-0.194
-336.289	246.844	-0.149	-0.251
-335.275	-200.000	-0.044	-0.333
-334.260	37.964	0.360	0.319
-333.245	249.661	0.139	0.236
-332.231	-200.000	-0.095	0.561
-331.216	72.546	-0.040	0.042
-330.202	-58.757	0.362	0.156
-329.187	800.000	0.005	-0.017
-328.172	-71.050	0.236	0.088
-327.158	104.513	-0.227	-0.266
-326.143	-28.279	0.191	0.110
-325.129	468.352	-0.166	-0.370
-324.114	-65.452	-0.388	-0.155
-323.099	-142.004	-0.137	0.014
-322.085	746.549	-0.104	-0.279
-321.070	26.017	0.084	-0.070
-320.056	493.355	-0.055	0.127
-319.041	35.602	-0.349	0.305
-318.026	75.675	-0.080	0.084
-317.012	-200.000	-0.013	-0.159
-315.997	486.165	-0.124	0.282
-314.983	242.345	0.120	0.199
-313.968	269.964	-0.132	0.231
-312.953	266.412	0.145	-0.253
-311.939	194.284	0.109	-0.164
-310.924	-46.623	-0.290	-0.142
-309.910	-200.000	0.022	-0.163
-308.895	-109.700	0.088	-0.018
-307.880	-3.342	-0.113	0.078
-306.866	-113.270	0.061	-0.012
-305.851	255.412	0.127	-0.217
-304.837	732.416	-0.161	-0.429
-303.822	-166.804	0.268	-0.011
-302.807	-200.000	-0.001	-0.240
-301.793	-135.529	-0.089	0.011
-300.778	-100.664	0.052	0.013
-299.764	-118.693	-0.224	0.039
-298.749	800.000	0.032	0.110
-297.735	-156.200	-0.101	0.006
-296.720	307.707	0.095	0.176
-295.705	-34.127	-0.161	-0.088
-294.691	154.962	0.221	0.303
-293.676	-20.537	-0.105	-0.064
-292.662	-112.107	0.087	-0.017
-291.647	685.928	0.139	0.362
-290.632	-200.000	-0.005	-0.322
-289.618	-200.000	-0.011	0.247
-288.603	-121.816	-0.219	0.036
-287.589	-172.455	-0.114	-0.004
-286.574	-61.265	-0.205	0.086
-285.559	134.485	-0.076	-0.099
-284.545	23.416	0.168	0.137
-283.530	800.000	0.079	-0.243
-282.516	338.349	-0.035	-0.068
-281.501	-186.303	0.146	-0.002
-280.486	393.428	-0.108	0.223
-279.472	-67.290	0.369	0.144
-278.457	20.649	-0.380	0.306
-277.443	-80.457	-0.196	-0.065
-276.428	9.616	0.262	-0.197
-275.413	10.126	-0.204	0.154
-274.399	474.484	-0.076	0.169
-273.384	-156.281	-0.181	-0.011
-272.370	800.000	0.052	0.172
-271.355	-192.185	0.326	0.003
-270.340	-129.841	0.335	-0.046
-269.326	64.273	0.094	0.094
-268.311	-113.492	-0.340	-0.066
-267.297	-4.109	0.070	-0.048
-266.282	145.502	-0.137	-0.183
-265.267	-138.946	0.337	-0.036
-264.253	234.643	0.076	-0.125
-263.238	-111.238	-0.286	-0.058
-262.224	-98.046	-0.460	-0.118
-261.209	-124.352	0.084	0.013
-260.195	-200.000	-0.024	0.132
-259.180	15.771	0.216	0.169
-258.165	-34.143	-0.157	-0.086
-257.151	421.791	-0.169	0.361
-256.136	151.269	-0.045	-0.061
-255.122	-20.376	0.126	-0.077
-254.107	-136.911	-0.230	0.026
-253.092	142.884	0.112	-0.147
-252.078	27.379	0.235	0.196
-251.063	-114.842	-0.275	-0.052
-250.049	-23.849	-0.169	0.100
-249.034	-27.528	-0.304	-0.176
-248.019	546.527	0.210	-0.499
-247.005	-200.000	0.030	0.332
-245.990	103.551	0.190	-0.222
-244.976	800.000	0.013	-0.034
-243.961	332.059	-0.068	-0.130
-242.946	-63.998	-0.214	-0.087
-241.932	178.998	0.167	0.242
-240.917	-129.019	0.051	-0.007
-239.903	97.707	-0.109	-0.124
-238.888	16.869	0.017	-0.014
-237.873	266.346	-0.112	0.194
-236.859	800.000	0.067	0.256
-235.844	-200.000	-0.008	0.128
-234.830	19.152	0.148	-0.118
-233.815	-31.553	-0.203	-0.113
-232.800	540.891	0.095	-0.225
-231.786	55.643	0.099	0.096
-230.771	302.783	-0.075	0.137
-229.757	18.111	-0.105	-0.083
-228.742	-5.637	0.463	0.315
-227.727	83.063	0.041	0.045
-226.713	-200.000	-0.040	0.216
-225.698	57.906	-0.193	-0.188
-224.684	800.000	0.020	0.068
-223.669	800.000	0.044	0.131
-222.655	236.261	-0.168	0.275
-221.640	-171.902	-0.310	0.010
-220.625	7.100	0.258	-0.191
-219.611	37.083	0.128	-0.112
-218.596	-200.000	0.013	-0.248
-217.582	800.000	-0.078	0.281
-216.567	-120.505	0.181	0.030
-215.552	-33.005	-0.071	0.039
-214.538	-95.750	0.281	0.074
-213.523	213.064	0.132	-0.207
-212.509	800.000	0.097	-0.417
-211.494	-129.695	-0.070	-0.010
-210.479	-40.657	0.274	0.141
-209.465	-35.129	-0.225	0.121
-208.450	-105.110	-0.040	-0.009
-207.436	-200.000	0.003	-0.037
-206.421	800.000	0.080	0.248
-205.406	15.343	-0.329	0.256
-204.392	-200.000	0.080	-0.371
-203.377	173.087	0.204	-0.292
-202.363	-41.179	0.342	0.175
-201.348	-11.985	-0.232	-0.150
-200.333	-200.000	-0.047	0.499
-199.319	103.252	-0.172	0.199
-198.304	-200.000	0.057	0.369
-197.290	-82.965	-0.135	0.043
-196.275	43.625	-0.062	0.056
-195.260	-185.799	0.265	0.004
-194.246	-90.754	-0.064	-0.018
-193.231	24.538	0.106	-0.087
-192.217	198.936	-0.216	0.328
-191.202	-105.661	0.398	0.089
-190.187	56.501	-0.262	0.253
-189.173	55.062	-0.200	0.191
-188.158	58.279	-0.015	0.015
-187.144	-93.504	-0.173	0.048
-186.129	201.383	0.053	-0.081
-185.114	6.734	0.254	-0.187
-184.100	88.340	0.042	0.047
-183.085	-144.597	-0.166	-0.015
-182.071	-95.372	-0.259	-0.069
-181.056	-119.573	0.004	0.001
-180.042	-34.976	0.221	0.119
-179.027	800.000	-0.136	-0.405
-178.012	412.319	0.025	-0.053
-176.998	-200.000	0.007	0.216
-175.983	-99.454	0.499	0.124
-174.969	-200.000	0.046	0.318
-173.954	473.269	0.177	0.396
-172.939	315.541	0.079	0.147
-171.925	-126.412	-0.544	0.080
-170.910	209.739	0.169	-0.263
-169.896	-67.368	0.270	0.105
-168.881	-50.342	0.033	0.015
-167.866	115.611	0.174	-0.211
-166.852	48.940	-0.140	0.130
-165.837	24.085	-0.062	-0.051
-164.823	-118.817	-0.225	-0.039
-163.808	800.000	0.042	0.181
-162.793	-80.794	-0.210	-0.069
-161.779	432.467	-0.117	-0.251
-160.764	444.189	0.154	-0.334
-159.750	800.000	-0.034	0.144
-158.735	81.143	0.190	-0.203
-157.720	611.692	0.020	0.049
-156.706	-85.791	-0.118	-0.036
-155.691	800.000	-0.114	-0.332
-154.677	800.000	-0.048	0.143
-153.662	-78.008	0.098	0.034
-152.647	149.315	0.155	0.208
-151.633	800.000	-0.072	0.258
-150.618	-90.533	0.407	0.116
-149.604	-200.000	0.016	-0.117
-148.589	-80.481	-0.285	-0.094
-147.574	-99.490	-0.117	0.029
-146.560	-130.421	-0.056	0.007
-145.545	459.758	0.120	0.264
-144.531	610.306	0.066	0.163
-143.516	292.929	0.056	-0.102
-142.502	12.261	0.139	0.106
-141.487	-200.000	-0.028	-0.388
-140.472	38.183	0.420	0.370
-139.458	-200.000	0.027	-0.127
-138.443	-200.000	0.024	0.126
-137.429	53.411	-0.025	-0.023
-136.414	58.590	0.162	0.157
-135.399	73.342	0.199	0.206
-134.385	-101.307	-0.455	-0.110
-133.370	248.329	-0.161	-0.269
-132.356	-54.608	0.254	0.114
-131.341	9.859	-0.158	-0.119
-130.326	33.686	-0.087	-0.075
-129.312	685.473	0.099	0.255
-128.297	283.326	-0.144	0.255
-127.283	146.138	-0.168	-0.223
-126.268	-200.000	-0.012	0.235
-125.253	-200.000	-0.013	0.238
-124.239	26.789	0.243	-0.202
-123.224	92.585	-0.044	-0.049
-122.210	800.000	-0.039	-0.166
-121.195	-20.553	-0.068	-0.041
-120.180	-191.199	0.285	-0.003
-119.166	-122.416	0.254	0.041
-118.151	102.068	0.194	0.224
-117.137	-23.644	-0.221	0.131
-116.122	-200.000	-0.070	0.345
-115.107	-8.630	0.105	0.070
-114.093	138.494	0.219	-0.284
-113.078	215.063	0.059	0.092
-112.064	-105.102	0.173	0.039
-111.049	-89.716	0.118	-0.034
-110.034	800.000	0.050	0.168
-109.020	705.322	0.179	0.466
-108.005	425.892	0.137	-0.291
-106.991	-200.000	0.050	-0.464
-105.976	138.694	0.198	-0.257
-104.962	45.931	0.452	-0.413
-103.947	232.368	0.092	0.149
-102.932	-200.000	0.018	-0.172
-101.918	80.991	0.181	0.193
-100.903	800.000	0.087	-0.375
-99.889	-30.474	-0.185	0.103
-98.874	-87.844	-0.014	-0.004
-97.859	55.079	-0.104	-0.100
-96.845	-200.000	-0.023	0.126
-95.830	14.430	-0.113	0.087
-94.816	36.585	0.078	0.068
-93.801	-116.600	-0.253	-0.046
-92.786	-200.000	0.061	0.454
-91.772	-61.795	0.188	-0.078
-90.757	-122.863	-0.153	0.024
-89.743	-92.026	-0.231	-0.065
-88.728	-200.000	0.022	-0.134
-87.713	800.000	-0.043	0.173
-86.699	-79.464	-0.111	-0.037
-85.684	657.278	0.140	0.356
-84.670	-31.764	-0.224	0.124
-83.655	15.214	-0.159	-0.123
-82.640	-200.000	-0.013	-0.143
-81.626	354.662	0.108	0.212
-80.611	-200.000	-0.032	-0.152
-79.597	27.296	0.092	0.076
-78.582	-200.000	0.015	-0.125
-77.567	-130.183	0.167	-0.022
-76.553	-138.007	-0.370	0.041
-75.538	11.589	0.240	-0.182
-74.524	-15.500	0.406	0.256
-73.509	-134.556	0.213	-0.026
-72.494	-107.678	-0.227	-0.049
-71.480	-49.083	-0.087	0.041
-70.465	-146.029	0.128	-0.011
-69.451	-21.543	-0.297	0.179
-68.436	-26.532	0.243	0.141
-67.422	800.000	0.062	-0.207
-66.407	800.000	0.062	0.264
-65.392	231.466	-0.107	0.173
-64.378	49.867	0.092	0.085
-63.363	-200.000	0.095	0.457
-62.349	-29.813	-0.248	0.139
-61.334	82.553	-0.727	-0.779
-60.319	128.803	0.261	0.328
-59.305	800.000	-0.299	-1.121
-58.290	179.012	0.573	0.826
-57.276	800.000	0.477	1.492
-56.261	-200.000	97.081	589.919
-55.246	565.491	1383.781	3307.779
-54.232	153.968	2585.561	3494.776
-53.217	116.695	2159.190	2611.549
-52.203	46.613	1614.767	1477.558
-51.188	38.349	1351.216	1186.485
-50.173	34.799	1309.356	1128.759
-49.159	58.172	1359.122	1312.663
-48.144	62.342	1376.949	1354.812
-47.130	38.556	1331.059	1169.834
-46.115	34.731	1313.391	1131.656
-45.100	34.614	1308.152	1126.410
-44.086	34.605	1306.149	1124.588
-43.071	34.520	1303.659	1121.898
-42.057	34.505	1301.534	1119.935
-41.042	34.517	1299.697	1118.381
-40.027	34.559	1298.806	1117.814
-39.013	34.608	1296.936	1116.446
-37.998	34.566	1294.909	1114.413
-36.984	34.665	1292.927	1113.243
-35.969	34.743	1291.082	1112.061
-34.954	34.778	1289.126	1110.535
-33.940	34.716	1288.470	1109.568
-32.925	34.749	1286.790	1108.268
-31.911	34.711	1285.777	1107.133
-30.896	34.665	1284.393	1105.630
-29.881	34.684	1283.339	1104.787
-28.867	34.758	1281.637	1103.705
-27.852	34.729	1280.261	1102.311
-26.838	34.732	1278.684	1100.924
-25.823	34.827	1277.003	1099.980
-24.809	34.825	1275.644	1098.757
-23.794	34.790	1274.414	1097.450
-22.779	34.782	1272.760	1095.941
-21.765	34.770	1271.992	1095.164
-20.750	34.775	1270.348	1093.738
-19.736	34.717	1269.065	1092.255
-18.721	34.587	1268.588	1091.058
-17.706	34.556	1267.644	1090.024
-16.692	34.572	1265.998	1088.661
-15.677	34.656	1264.858	1088.115
-14.663	34.682	1263.559	1087.099
-13.648	34.548	1262.816	1085.654
-12.633	34.659	1261.880	1085.440
-11.619	34.664	1260.495	1084.232
-10.604	34.606	1260.193	1083.604
-9.590	34.628	1259.028	1082.682
-8.575	34.639	1258.361	1082.130
-7.560	34.658	1257.358	1081.327
-6.546	34.565	1256.508	1080.027
-5.531	34.468	1255.771	1078.804
-4.517	34.605	1254.758	1078.664
-3.502	34.664	1254.009	1078.313
-2.487	34.634	1252.467	1076.776
-1.473	34.570	1248.730	1073.156
-0.458	33.249	1234.026	1053.135
0.556	30.058	1215.623	1014.655
1.571	26.322	1220.810	998.302
2.586	25.382	1236.251	1005.576
3.600	24.649	1224.953	992.232
4.615	17.899	1151.499	897.295
5.629	6.958	1073.358	782.449
6.644	2.207	1051.521	743.393
7.659	1.832	1048.749	739.548
8.673	1.683	1047.303	737.738
9.688	1.599	1046.256	736.531
10.702	2.282	1044.740	738.700
11.717	8.999	1054.566	778.255
12.731	19.249	1069.274	839.213
13.746	24.062	1074.829	867.003
14.761	24.813	1075.942	871.483
15.775	24.883	1075.492	871.380
16.790	24.726	1074.103	869.414
17.804	24.620	1073.599	868.414
18.819	24.843	1072.989	868.928
19.834	24.810	1073.036	868.731
20.848	24.973	1072.361	868.894
21.863	24.983	1071.583	868.238
22.877	24.932	1071.298	867.682
23.892	24.731	1070.760	866.195
24.907	24.894	1069.901	866.213
25.921	24.789	1068.672	864.637
26.936	24.897	1067.139	863.837
27.950	24.794	1065.961	862.312
28.965	24.650	1064.199	860.117
29.980	24.575	1062.866	858.606
30.994	24.971	1061.430	859.268
32.009	24.790	1060.857	857.864
33.023	24.683	1059.740	856.370
34.038	24.764	1058.722	855.858
35.053	24.945	1058.014	856.077
36.067	24.999	1057.016	855.450
37.082	25.031	1056.561	855.160
38.096	25.038	1056.655	855.191
39.111	25.196	1055.433	854.880
40.126	25.074	1053.748	852.861
41.140	24.705	1052.196	849.778
42.155	24.379	1050.797	847.022
43.169	24.503	1049.849	846.773
44.184	24.497	1048.926	845.927
45.199	24.348	1048.171	844.535
46.213	24.480	1047.153	844.263
47.228	24.620	1046.654	844.447
48.242	24.753	1045.604	844.153
49.257	24.886	1044.849	844.099
50.271	24.853	1044.275	843.403
51.286	25.008	1043.535	843.462
52.301	25.001	1042.299	842.354
53.315	24.866	1041.447	840.958
54.330	24.752	1040.531	839.608
55.344	24.810	1040.018	839.391
56.359	24.904	1038.572	838.591
57.374	24.644	1037.858	836.724
58.388	24.601	1037.373	836.057
59.403	24.628	1036.172	835.142
60.417	24.471	1035.599	833.872
61.432	24.521	1034.878	833.453
62.447	24.609	1034.335	833.351
63.461	24.753	1033.710	833.443
64.476	24.580	1032.329	831.452
65.490	24.517	1031.715	830.594
66.505	24.596	1031.026	830.332
67.520	24.645	1030.316	829.912
68.534	24.467	1028.986	827.943
69.549	24.088	1028.362	825.610
70.563	24.110	1027.563	824.997
71.578	24.133	1026.463	824.147
72.593	23.968	1025.495	822.536
73.607	24.114	1025.287	822.970
74.622	24.408	1024.534	823.649
75.636	24.365	1024.181	823.097
76.651	24.327	1022.482	821.480
77.666	24.176	1022.145	820.444
78.680	24.337	1021.117	820.288
79.695	24.356	1021.085	820.276
80.709	24.373	1020.482	819.794
81.724	24.344	1019.809	819.049
82.739	24.535	1018.590	818.872
83.753	24.838	1018.344	819.995
84.768	25.029	1017.777	820.337
85.782	25.219	1016.533	820.131
86.797	25.019	1015.976	818.696
87.812	24.974	1014.711	817.401
88.826	25.043	1013.924	817.007
89.841	25.054	1013.310	816.488
90.855	25.159	1012.329	816.103
91.870	25.118	1011.476	815.158
92.884	25.073	1009.890	813.605
93.899	24.981	1009.138	812.510
94.914	25.137	1008.565	812.686
95.928	24.921	1007.873	811.076
96.943	24.680	1006.366	808.702
97.957	24.549	1005.287	807.171
98.972	24.328	1004.218	805.242
99.987	24.690	1003.695	806.385
101.001	24.805	1002.826	806.136
102.016	24.847	1001.771	805.404
103.030	24.788	1000.810	804.297
104.045	24.558	999.636	802.249
105.060	24.592	998.655	801.543
106.074	24.756	998.396	801.996
107.089	24.938	997.947	802.381
108.103	24.802	996.713	800.711
109.118	24.690	995.298	799.000
110.133	24.672	994.311	798.058
111.147	24.311	993.223	795.505
112.162	24.314	992.469	794.845
113.176	24.754	991.690	796.109
114.191	24.334	990.900	793.535
115.206	24.129	989.891	791.747
116.220	24.125	989.278	791.167
117.235	24.327	988.467	791.344
118.249	24.236	987.617	790.191
119.264	24.220	986.929	789.499
120.279	24.173	986.223	788.659
121.293	24.350	985.232	788.580
122.308	24.313	984.754	787.964
123.322	24.240	983.497	786.566
124.337	24.143	982.357	785.157
125.352	23.744	980.568	781.902
126.366	23.532	979.484	780.037
127.381	24.342	979.658	783.667
128.395	24.764	979.459	785.289
129.410	24.768	978.535	784.498
130.424	24.877	977.560	784.122
131.439	24.819	976.446	782.907
132.454	24.703	975.530	781.595
133.468	24.797	974.592	781.187
134.483	24.856	974.273	781.119
135.497	25.052	973.295	781.119
136.512	25.112	972.642	780.790
137.527	25.047	971.836	779.789
138.541	25.048	970.966	779.026
139.556	25.156	969.747	778.448
140.570	25.288	969.103	778.438
141.585	25.235	968.415	777.585
142.600	25.168	967.463	776.463
143.614	25.110	966.728	775.549
144.629	25.471	965.408	775.984
145.643	25.171	964.483	773.876
146.658	25.181	962.821	772.517
147.673	25.004	961.804	770.873
148.687	24.929	960.777	769.659
149.702	24.928	959.906	768.886
150.716	24.665	959.405	767.289
151.731	24.756	958.911	767.218
152.746	25.171	957.766	768.012
153.760	25.259	957.676	768.246
154.775	25.439	956.972	768.386
155.789	25.225	956.034	766.648
156.804	25.244	955.089	765.904
157.819	25.290	954.609	765.647
158.833	25.395	954.026	765.562
159.848	25.377	952.865	764.483
160.862	25.173	951.556	762.498
161.877	25.161	950.971	761.913
162.892	25.242	949.484	760.995
163.906	25.216	948.531	760.055
164.921	25.053	947.865	758.764
165.935	25.296	946.944	758.987
166.950	25.344	945.854	758.250
167.964	25.296	945.016	757.310
168.979	25.037	943.983	755.321
169.994	25.002	943.141	754.434
171.008	25.257	942.588	754.997
172.023	25.193	941.787	754.023
173.037	25.114	940.565	752.644
174.052	24.951	939.335	750.911
175.067	24.998	939.076	750.834
176.081	25.074	938.667	750.760
177.096	24.883	937.924	749.296
178.110	24.823	936.658	747.971
179.125	24.659	935.884	746.599
180.140	24.670	935.707	746.438
181.154	24.791	935.474	746.690
182.169	24.945	935.438	747.239
183.183	25.304	934.782	748.146
184.198	25.263	933.472	746.859
185.213	25.203	932.830	746.030
186.227	25.168	932.303	745.398
187.242	25.182	932.094	745.225
188.256	25.349	931.481	745.363
189.271	25.496	929.842	744.593
190.286	25.052	929.198	742.171
191.300	24.360	927.700	738.048
192.315	23.607	926.297	733.753
193.329	23.604	925.693	733.199
194.344	24.594	926.473	737.844
195.359	25.115	926.460	739.917
196.373	25.218	925.767	739.724
197.388	25.012	925.283	738.423
198.402	24.955	924.892	737.810
199.417	25.222	923.961	738.104
200.432	24.863	922.771	735.612
201.446	24.710	922.323	734.558
202.461	24.733	922.011	734.340
203.475	23.758	920.319	728.929
204.490	23.179	918.475	725.035
205.504	24.152	918.578	729.037
206.519	24.852	918.589	731.845
207.534	24.800	918.488	731.484
208.548	25.307	918.159	733.231
209.563	24.951	916.985	730.775
210.577	24.896	916.233	729.888
211.592	25.337	915.994	731.428
212.607	25.175	915.698	730.466
213.621	25.266	914.640	729.929
214.636	25.317	913.791	729.396
215.650	25.246	913.142	728.525
216.665	25.377	912.737	728.669
217.680	25.401	911.889	728.025
218.694	24.945	910.681	725.147
219.709	24.781	910.317	724.131
220.723	25.027	910.112	724.898
221.738	25.139	908.995	724.398
222.753	25.136	908.296	723.763
223.767	25.317	907.787	724.025
224.782	25.419	907.900	724.461
225.796	25.336	907.437	723.696
226.811	24.728	905.673	719.778
227.826	24.010	904.510	715.901
228.840	24.376	903.743	716.704
229.855	24.417	903.261	716.420
230.869	23.918	902.645	713.868
231.884	24.489	902.151	715.701
232.899	25.171	902.134	718.358
233.913	25.102	901.466	717.487
234.928	25.038	901.106	716.880
235.942	25.007	900.298	716.052
236.957	24.828	899.251	714.440
237.972	24.759	898.940	713.856
238.986	24.871	898.598	713.966
240.001	24.736	897.979	712.873
241.015	24.879	897.444	712.955
242.030	25.135	896.808	713.405
243.045	25.218	896.251	713.228
244.059	25.327	895.895	713.314
245.074	24.968	895.067	711.170
246.088	24.818	894.083	709.728
247.103	25.034	893.515	710.072
248.117	25.533	893.926	712.314
249.132	25.948	893.123	713.252
250.147	25.873	892.949	712.753
251.161	26.193	892.207	713.361
252.176	25.897	892.061	712.013
253.190	26.064	891.576	712.222
254.205	26.174	890.571	711.790
255.220	26.122	890.061	711.113
256.234	26.039	889.376	710.180
257.249	25.956	888.838	709.359
258.263	25.993	887.996	708.770
259.278	25.910	887.679	708.127
260.293	26.034	887.153	708.133
261.307	25.859	886.100	706.544
262.322	25.765	885.245	705.430
263.336	25.061	883.165	700.957
264.351	23.849	881.752	695.037
265.366	24.189	880.845	695.590
266.380	25.094	882.302	700.217
267.395	25.570	881.843	701.649
268.409	25.616	881.156	701.217
269.424	25.773	880.367	701.139
270.439	25.826	880.119	701.085
271.453	25.858	879.235	700.445
272.468	26.026	879.226	701.027
273.482	26.096	878.512	700.667
274.497	25.491	877.345	697.331
275.512	25.374	876.594	696.218
276.526	25.752	876.639	697.658
277.541	25.822	875.978	697.342
278.555	25.738	875.610	696.659
279.570	25.567	874.694	695.208
280.585	25.660	874.270	695.170
281.599	25.650	873.267	694.273
282.614	25.002	871.995	690.701
283.628	24.976	871.600	690.229
284.643	25.327	871.188	691.190
285.657	24.886	870.522	688.905
286.672	24.653	869.312	686.993
287.687	25.344	869.245	689.534
288.701	25.488	868.453	689.396
289.716	25.155	867.684	687.446
290.730	25.081	867.321	686.816
291.745	24.837	866.443	685.126
292.760	25.136	866.410	686.185
293.774	26.024	866.955	689.951
294.789	26.302	866.444	690.548
295.803	26.378	866.069	690.476
296.818	26.388	865.055	689.645
297.833	26.020	863.832	687.208
298.847	25.728	863.453	685.732
299.862	26.278	863.269	687.622
300.876	26.427	863.017	687.925
301.891	26.249	862.415	686.709
302.906	25.763	861.264	683.888
303.920	25.878	861.067	684.107
304.935	26.439	860.681	685.866
305.949	26.340	859.676	684.632
306.964	25.993	859.089	682.788
307.979	26.042	858.802	682.685
308.993	26.543	858.494	684.274
310.008	26.648	857.619	683.912
311.022	26.269	856.968	681.903
312.037	26.086	856.445	680.735
313.052	25.821	855.562	678.977
314.066	24.919	853.935	674.228
315.081	24.767	853.240	673.050
316.095	25.418	853.821	675.897
317.110	26.027	853.211	677.643
318.125	25.170	852.197	673.562
319.139	24.097	850.622	668.235
320.154	24.124	850.105	667.870
321.168	25.171	850.230	671.831
322.183	25.686	850.767	674.128
323.197	25.749	850.684	674.239
324.212	26.101	849.864	674.846
325.227	26.269	849.288	674.955
326.241	26.053	848.239	673.256
327.256	25.888	847.978	672.372
328.270	25.819	846.941	671.233
329.285	25.678	846.524	670.321
330.300	25.366	845.610	668.378
331.314	25.456	845.879	668.866
332.329	26.141	845.242	670.848
333.343	26.235	844.955	670.910
334.358	26.394	843.900	670.602
335.373	26.215	844.163	670.087
336.387	26.631	843.790	671.274
337.402	26.748	843.480	671.403
338.416	26.630	843.217	670.697
339.431	26.720	843.107	670.883
340.446	26.906	842.854	671.310
341.460	26.705	842.619	670.320
342.475	26.589	841.684	669.090
343.489	26.585	841.505	668.874
344.504	27.097	840.961	670.270
345.519	26.965	840.773	669.573
346.533	27.046	840.573	669.654
347.548	26.926	839.818	668.552
348.562	27.055	838.894	668.234
349.577	27.100	838.505	668.028
350.592	26.863	837.966	666.669
351.606	27.002	836.826	666.214
352.621	26.830	836.513	665.275
353.635	26.822	835.889	664.690
354.650	26.167	833.725	660.514
355.665	25.178	832.762	656.079
356.679	25.562	832.386	657.127
357.694	25.962	832.017	658.239
358.708	25.852	831.572	657.427
359.723	26.337	831.453	659.042
360.738	26.724	830.978	660.016
361.752	26.640	830.571	659.331
362.767	27.141	829.907	660.567
363.781	27.475	829.474	661.377
364.796	27.397	829.496	661.052
365.810	27.422	829.085	660.757
366.825	27.485	828.913	660.790
367.840	27.018	827.990	658.303
368.854	26.692	827.010	656.284
369.869	26.715	826.677	656.046
370.883	26.850	826.077	656.000
371.898	26.769	825.554	655.234
372.913	26.811	825.286	655.116
373.927	26.875	825.066	655.115
374.942	26.936	824.552	654.866
375.956	27.198	823.866	655.208
376.971	27.156	823.981	655.090
377.986	27.456	823.650	655.852
379.000	27.393	822.993	655.044
380.015	27.269	821.734	653.538
381.029	27.261	821.700	653.425
382.044	27.380	821.155	653.359
383.059	27.322	820.761	652.779
384.073	27.339	820.490	652.569
385.088	27.273	819.506	651.490
386.102	27.134	818.433	650.083
387.117	27.143	817.653	649.440
388.132	26.653	816.964	647.084
389.146	26.337	815.948	645.093
390.161	26.728	816.101	646.553
391.175	27.151	815.607	647.613
392.190	26.828	814.240	645.320
393.205	25.470	812.611	639.148
394.219	23.789	811.367	632.138
395.234	23.792	811.059	631.853
396.248	25.425	812.194	638.490
397.263	26.982	812.555	644.247
398.278	26.850	812.654	643.801
399.292	26.559	811.977	642.173
400.307	26.585	811.726	642.010
401.321	26.827	810.794	642.073
402.336	27.041	810.972	642.915
403.350	27.427	811.085	644.314
404.365	27.901	810.758	645.674
405.380	28.117	810.411	646.103
406.394	28.096	809.846	645.523
407.409	28.123	809.254	645.089
408.423	27.947	808.915	644.139
409.438	28.137	808.697	644.581
410.453	28.047	808.545	644.084
411.467	27.977	807.827	643.209
412.482	28.208	807.208	643.471
413.496	28.126	806.855	642.845
414.511	28.137	806.441	642.498
415.526	28.105	806.084	642.042
416.540	27.937	805.579	640.996
417.555	27.590	804.837	639.131
418.569	27.739	804.407	639.255
419.584	27.792	803.775	638.883
420.599	27.602	802.873	637.445
421.613	109.048	1282.133	1446.728
422.628	94.089	1351.980	1446.832
