DTS Sentinel unit serial number:	SN413079Multiplexer serial number:	ORYXHardware model number:	OX4-SRSoftware version number:	ORYX F/W v4.00 Oryx Data Collector v3.7.2.0data status	okinstallation	princeton_trtdifferential loss correction	single-endedforward channel	channel 1reverse channel	N/Adate	2019/09/13time	23:10:35forward acquisition time	60.00reverse acquisition time	0.00gamma	496.2192k internal	0.2336k external	0.2336temperature offset calibration	1.0087default loss term (dB/km)	0.3790temperature slope calibration	1.0000multiplexer offset coefficient	1.0000multiplexer slope coefficient	1.0000fibre end	0.00T internal ref (°C)	27.19T ext. ref 1 (°C)	3.20T ext. ref 2 (°C)	21.10length (m)	temperature (°C)	Stokes	anti-Stokes-747.200	389.105	0.115	-0.239
-746.185	-95.538	-0.097	-0.026
-745.171	-200.000	-0.005	0.143
-744.156	-200.000	-0.023	0.266
-743.142	91.873	-0.280	-0.316
-742.127	-136.755	-0.253	0.029
-741.112	80.119	0.100	-0.108
-740.098	9.994	-0.123	-0.094
-739.083	-98.798	-0.220	0.056
-738.069	-55.746	-0.167	-0.075
-737.054	-155.830	0.207	-0.013
-736.039	33.959	-0.351	-0.307
-735.025	59.047	0.201	0.199
-734.010	-145.652	0.126	0.011
-732.996	394.422	0.044	-0.093
-731.981	-109.882	-0.246	0.052
-730.966	581.263	-0.073	-0.180
-729.952	-7.189	-0.136	0.093
-728.937	62.162	-0.119	0.119
-727.923	713.631	0.105	-0.279
-726.908	568.826	-0.090	-0.220
-725.894	-22.583	-0.040	0.024
-724.879	-159.096	0.110	0.006
-723.864	9.799	-0.158	-0.120
-722.850	-200.000	-0.001	-0.118
-721.835	462.459	0.184	-0.411
-720.821	94.732	0.136	0.155
-719.806	759.334	-0.080	-0.217
-718.791	79.435	-0.182	-0.196
-717.777	-56.035	0.084	0.037
-716.762	225.552	-0.094	-0.153
-715.748	800.000	-0.106	-0.358
-714.733	-50.594	0.169	0.080
-713.718	-63.816	0.378	-0.155
-712.704	189.923	-0.259	-0.389
-711.689	-36.555	0.220	-0.119
-710.675	800.000	0.082	0.269
-709.660	25.293	-0.363	-0.303
-708.645	-30.705	0.203	0.115
-707.631	-192.473	-0.165	0.002
-706.616	38.084	0.056	0.050
-705.602	-24.790	-0.100	0.060
-704.587	302.186	-0.114	-0.211
-703.572	800.000	-0.098	-0.341
-702.558	-17.842	0.202	0.127
-701.543	-200.000	-0.024	-0.182
-700.529	-200.000	-0.004	-0.469
-699.514	11.438	-0.192	0.147
-698.499	17.107	0.080	-0.063
-697.485	37.788	-0.189	-0.168
-696.470	-199.836	0.180	-0.001
-695.456	-108.343	-0.172	0.037
-694.441	-200.000	0.000	0.093
-693.426	-139.099	-0.335	0.036
-692.412	-200.000	-0.043	-0.290
-691.397	68.732	0.181	-0.186
-690.383	327.797	-0.127	0.244
-689.368	40.311	-0.230	-0.208
-688.354	201.172	0.061	0.094
-687.339	227.201	-0.158	-0.257
-686.324	800.000	0.022	0.064
-685.310	-116.333	-0.528	-0.098
-684.295	-89.650	-0.059	0.017
-683.281	-200.000	-0.164	-0.000
-682.266	28.228	0.090	0.076
-681.251	-43.391	-0.175	0.089
-680.237	-109.914	-0.292	0.061
-679.222	-200.000	-0.007	0.184
-678.208	-42.403	-0.304	-0.155
-677.193	-200.000	0.078	0.381
-676.178	62.763	-0.230	0.231
-675.164	-152.102	-0.478	0.035
-674.149	-200.000	-0.019	0.235
-673.135	-129.353	-0.219	0.031
-672.120	53.824	0.126	-0.122
-671.105	468.457	-0.118	-0.266
-670.091	-200.000	-0.019	-0.291
-669.076	-200.000	-0.096	-0.429
-668.062	296.219	0.107	0.197
-667.047	280.889	-0.092	0.165
-666.032	-44.769	-0.188	0.094
-665.018	-111.382	0.387	0.079
-664.003	720.635	0.063	0.167
-662.989	-200.000	0.026	0.202
-661.974	-45.265	-0.316	0.157
-660.959	90.005	-0.245	0.274
-659.945	104.686	-0.412	-0.486
-658.930	-200.000	-0.000	-0.262
-657.916	800.000	-0.046	0.192
-656.901	381.647	0.029	-0.059
-655.886	800.000	-0.070	0.227
-654.872	-200.000	0.007	-0.065
-653.857	14.875	-0.157	-0.123
-652.843	-40.140	-0.168	-0.088
-651.828	80.897	0.340	-0.367
-650.814	-15.666	-0.146	-0.093
-649.799	244.452	0.072	0.121
-648.784	329.496	-0.080	-0.154
-647.770	145.051	0.088	-0.117
-646.755	-114.671	-0.281	-0.054
-645.741	-2.338	-0.143	-0.100
-644.726	-152.682	0.024	0.002
-643.711	-35.084	-0.064	0.035
-642.697	-65.327	-0.091	0.036
-641.682	270.656	-0.078	-0.138
-640.668	97.189	0.103	0.119
-639.653	368.817	0.147	0.297
-638.638	-200.000	0.087	0.444
-637.624	-137.643	0.347	0.039
-636.609	800.000	0.073	-0.214
-635.595	44.950	-0.061	-0.056
-634.580	800.000	0.032	0.110
-633.565	-200.000	-0.014	-0.219
-632.551	-23.219	0.334	0.201
-631.536	-0.586	-0.334	-0.237
-630.522	60.815	0.231	0.229
-629.507	800.000	0.015	0.049
-628.492	20.193	0.015	0.012
-627.478	4.659	0.225	0.166
-626.463	181.960	-0.124	0.183
-625.449	-100.213	-0.365	0.091
-624.434	-64.018	-0.085	0.035
-623.419	125.128	0.280	-0.353
-622.405	800.000	0.035	-0.099
-621.390	-55.398	0.211	0.095
-620.376	78.396	-0.149	0.159
-619.361	-200.000	-0.018	-0.162
-618.346	-33.965	0.185	-0.102
-617.332	670.221	-0.093	0.240
-616.317	56.833	0.185	0.180
-615.303	-138.671	-0.225	0.025
-614.288	28.411	-0.183	0.154
-613.273	-200.000	0.021	-0.121
-612.259	800.000	-0.060	0.168
-611.244	800.000	0.075	-0.220
-610.230	-77.760	-0.269	0.093
-609.215	29.668	0.066	-0.056
-608.201	8.968	0.267	-0.201
-607.186	187.323	-0.144	-0.214
-606.171	-131.289	0.187	0.025
-605.157	800.000	-0.024	0.074
-604.142	-19.922	0.243	-0.150
-603.128	800.000	0.035	0.115
-602.113	40.720	0.043	-0.039
-601.098	-200.000	0.004	0.528
-600.084	226.824	0.132	0.214
-599.069	-15.246	-0.236	0.151
-598.055	800.000	0.055	-0.194
-597.040	-116.801	-0.314	0.057
-596.025	-94.434	0.338	-0.092
-595.011	800.000	0.030	0.108
-593.996	-89.040	-0.043	-0.013
-592.982	41.283	0.129	0.117
-591.967	-13.260	-0.301	-0.195
-590.952	-200.000	0.033	0.173
-589.938	84.755	-0.246	-0.269
-588.923	-117.797	0.305	-0.055
-587.909	-200.000	-0.038	-0.175
-586.894	685.653	0.004	-0.011
-585.879	636.853	-0.048	-0.123
-584.865	-91.501	-0.126	-0.036
-583.850	135.895	-0.279	-0.363
-582.836	-147.316	0.278	0.024
-581.821	745.163	-0.094	-0.254
-580.806	647.874	-0.117	-0.299
-579.792	-11.641	0.084	0.055
-578.777	294.594	0.112	0.204
-577.763	-32.475	-0.251	0.139
-576.748	-57.698	-0.288	-0.126
-575.733	-97.121	-0.111	-0.029
-574.719	-200.000	0.006	-0.052
-573.704	-43.803	-0.257	0.129
-572.690	512.677	0.105	-0.245
-571.675	51.309	0.127	0.120
-570.661	-35.347	-0.041	-0.022
-569.646	124.898	0.029	-0.036
-568.631	-60.813	0.074	0.031
-567.617	309.326	0.080	-0.150
-566.602	800.000	0.065	0.215
-565.588	-200.000	0.001	0.052
-564.573	747.289	0.070	0.188
-563.558	74.525	0.113	0.118
-562.544	550.936	0.070	-0.167
-561.529	-91.782	-0.126	-0.036
-560.515	82.805	0.122	-0.132
-559.500	31.484	0.214	-0.183
-558.485	338.484	-0.092	0.179
-557.471	-200.000	0.051	0.508
-556.456	-161.618	-0.192	-0.010
-555.442	-200.000	0.040	-0.255
-554.427	240.233	0.028	0.047
-553.412	-71.798	-0.235	0.087
-552.398	13.793	0.365	-0.283
-551.383	-43.097	-0.106	-0.053
-550.369	-200.000	0.038	-0.197
-549.354	800.000	-0.031	-0.114
-548.339	-200.000	0.003	-0.141
-547.325	739.552	-0.140	0.374
-546.310	-143.655	0.058	-0.006
-545.296	-111.765	0.415	0.084
-544.281	800.000	-0.086	-0.243
-543.266	-200.000	0.022	-0.308
-542.252	-151.518	0.346	0.026
-541.237	345.141	-0.034	0.066
-540.223	-97.228	-0.367	-0.095
-539.208	800.000	0.177	0.500
-538.193	-75.943	-0.140	-0.049
-537.179	-59.300	0.402	-0.172
-536.164	225.175	0.213	-0.344
-535.150	92.122	0.060	-0.067
-534.135	68.696	0.158	-0.162
-533.121	15.476	-0.276	0.216
-532.106	482.115	0.151	-0.341
-531.091	-145.304	0.334	-0.030
-530.077	800.000	0.043	0.138
-529.062	194.093	-0.083	0.125
-528.048	119.688	0.007	0.008
-527.033	19.307	0.192	-0.154
-526.018	-200.000	0.025	-0.236
-525.004	-179.921	0.192	-0.004
-523.989	800.000	0.058	-0.185
-522.975	197.698	-0.104	-0.158
-521.960	-79.910	0.201	0.067
-520.945	366.196	-0.062	0.124
-519.931	800.000	-0.030	-0.110
-518.916	596.725	0.070	-0.173
-517.902	-46.754	-0.141	0.069
-516.887	776.906	0.073	-0.200
-515.872	16.795	-0.142	-0.112
-514.858	-69.053	0.455	0.175
-513.843	-57.098	0.344	-0.151
-512.829	-200.000	-0.019	-0.166
-511.814	-37.144	0.149	0.079
-510.799	-200.000	0.081	-0.353
-509.785	70.104	0.253	-0.260
-508.770	117.602	-0.117	0.143
-507.756	-1.896	0.437	0.306
-506.741	-53.962	-0.050	-0.023
-505.726	77.793	-0.084	0.089
-504.712	-93.677	-0.230	-0.063
-503.697	800.000	-0.051	-0.184
-502.683	-63.874	-0.232	-0.095
-501.668	722.578	-0.097	0.257
-500.653	43.589	-0.132	-0.120
-499.639	-200.000	-0.013	-0.102
-498.624	27.140	0.238	-0.198
-497.610	-56.504	0.164	-0.072
-496.595	-4.545	0.074	0.051
-495.581	-157.398	-0.305	-0.018
-494.566	800.000	-0.167	-0.472
-493.551	-200.000	-0.003	0.141
-492.537	-86.758	0.178	0.054
-491.522	707.897	0.019	-0.050
-490.508	456.622	0.096	-0.211
-489.493	245.475	0.043	0.071
-488.478	175.408	-0.280	-0.403
-487.464	86.572	0.023	-0.025
-486.449	-58.891	-0.098	0.042
-485.435	-6.149	-0.087	0.059
-484.420	-149.208	-0.304	-0.024
-483.405	-12.108	0.259	0.169
-482.391	800.000	-0.024	-0.069
-481.376	-200.000	0.049	0.258
-480.362	132.061	0.125	0.160
-479.347	105.752	0.208	-0.245
-478.332	29.423	0.131	0.111
-477.318	-121.419	0.230	0.038
-476.303	-141.646	-0.265	-0.027
-475.289	141.278	0.114	-0.150
-474.274	800.000	0.143	0.608
-473.259	800.000	0.064	0.180
-472.245	-125.516	0.241	0.036
-471.230	158.433	0.058	0.080
-470.216	-44.822	-0.179	0.089
-469.201	-11.097	0.222	-0.145
-468.186	-115.711	0.268	0.050
-467.172	-65.596	-0.083	-0.033
-466.157	52.571	0.066	-0.063
-465.143	26.322	-0.271	0.225
-464.128	340.746	-0.091	0.176
-463.113	178.743	-0.115	-0.168
-462.099	-117.849	-0.185	0.033
-461.084	-46.418	-0.107	-0.052
-460.070	800.000	-0.046	0.197
-459.055	-29.822	-0.107	0.061
-458.040	33.884	0.053	0.045
-457.026	84.831	-0.398	0.433
-456.011	800.000	0.101	0.291
-454.997	-200.000	-0.003	0.337
-453.982	800.000	0.039	0.163
-452.968	800.000	0.045	0.142
-451.953	138.735	0.122	0.159
-450.938	-8.431	0.217	0.145
-449.924	-65.749	0.198	0.079
-448.909	800.000	0.017	0.052
-447.895	25.570	0.212	0.175
-446.880	295.770	-0.136	0.246
-445.865	-200.000	-0.010	0.125
-444.851	731.823	-0.111	0.294
-443.836	-56.266	0.095	-0.042
-442.822	-167.624	-0.199	0.008
-441.807	-121.154	0.147	0.024
-440.792	192.705	0.090	0.134
-439.778	71.983	-0.231	-0.239
-438.763	800.000	-0.075	-0.213
-437.749	230.501	-0.155	0.252
-436.734	-170.265	0.148	0.005
-435.719	211.252	0.179	-0.280
-434.705	35.546	-0.397	-0.346
-433.690	590.200	-0.097	-0.237
-432.676	57.155	-0.262	-0.254
-431.661	55.646	0.134	-0.128
-430.646	-37.045	0.294	-0.157
-429.632	-15.544	-0.300	-0.190
-428.617	270.636	-0.178	0.310
-427.603	-7.692	-0.197	0.132
-426.588	-43.733	0.482	-0.241
-425.573	-89.760	0.454	-0.132
-424.559	800.000	0.052	0.220
-423.544	-200.000	0.005	-0.044
-422.530	-78.075	-0.090	0.031
-421.515	-200.000	0.009	0.555
-420.500	-181.940	-0.214	-0.004
-419.486	433.166	0.107	0.230
-418.471	-50.806	-0.135	0.063
-417.457	135.051	-0.073	-0.093
-416.442	-103.925	-0.197	-0.046
-415.428	800.000	-0.055	0.236
-414.413	-83.509	0.288	0.091
-413.398	-58.537	0.238	0.103
-412.384	800.000	-0.062	0.181
-411.369	-68.395	-0.109	-0.042
-410.355	-57.800	-0.186	0.081
-409.340	752.799	0.143	-0.384
-408.325	51.840	-0.189	0.178
-407.311	-117.366	-0.230	0.041
-406.296	121.178	0.174	-0.215
-405.282	-59.758	-0.283	0.120
-404.267	800.000	-0.011	-0.033
-403.252	371.246	0.160	0.322
-402.238	188.247	-0.154	0.228
-401.223	-200.000	-0.000	-0.168
-400.209	-10.916	0.184	-0.121
-399.194	-24.076	-0.034	-0.020
-398.179	-86.141	-0.264	0.081
-397.165	-200.000	-0.013	0.070
-396.150	-200.000	0.026	-0.161
-395.136	-7.118	-0.115	0.077
-394.121	105.537	0.133	0.156
-393.106	800.000	-0.033	-0.103
-392.092	46.372	-0.155	0.142
-391.077	-65.347	0.476	0.190
-390.063	55.593	-0.145	-0.139
-389.048	-200.000	-0.048	-0.237
-388.033	-200.000	0.001	0.207
-387.019	0.082	0.243	-0.171
-386.004	-113.887	-0.364	0.070
-384.990	-96.111	0.524	-0.138
-383.975	-200.000	-0.003	-0.045
-382.960	-200.000	0.022	-0.155
-381.946	79.598	0.115	-0.123
-380.931	800.000	0.097	-0.353
-379.917	86.182	0.042	-0.046
-378.902	136.622	-0.187	-0.241
-377.888	800.000	0.048	0.144
-376.873	20.828	-0.201	0.161
-375.858	-114.824	-0.187	-0.035
-374.844	-113.916	-0.117	0.022
-373.829	214.838	-0.228	-0.357
-372.815	-150.964	-0.059	-0.004
-371.800	227.445	-0.298	-0.479
-370.785	498.847	-0.084	-0.192
-369.771	230.262	-0.045	-0.072
-368.756	-81.105	-0.468	0.153
-367.742	65.496	0.126	0.126
-366.727	191.936	0.098	0.146
-365.712	129.478	-0.020	0.026
-364.698	-151.834	0.228	-0.017
-363.683	27.183	0.461	-0.383
-362.669	-133.794	-0.074	0.009
-361.654	-170.418	-0.326	-0.011
-360.639	-85.223	0.161	0.050
-359.625	-121.453	-0.155	-0.026
-358.610	-145.025	-0.171	-0.015
-357.596	-89.410	0.318	0.092
-356.581	106.391	0.060	0.071
-355.566	-84.085	0.183	-0.057
-354.552	-116.658	0.133	0.024
-353.537	-161.890	-0.177	0.009
-352.523	27.608	-0.199	-0.165
-351.508	212.318	-0.069	0.108
-350.493	-113.546	0.152	0.029
-349.479	513.583	0.165	0.380
-348.464	215.395	-0.059	-0.093
-347.450	-42.529	0.281	-0.142
-346.435	109.204	-0.195	-0.231
-345.420	261.450	-0.090	0.155
-344.406	318.447	0.113	0.211
-343.391	-63.275	0.280	-0.114
-342.377	-1.026	0.241	-0.168
-341.362	-143.307	-0.266	-0.025
-340.348	-50.824	0.071	0.033
-339.333	33.699	-0.181	-0.155
-338.318	800.000	-0.062	0.228
-337.304	162.598	0.075	0.104
-336.289	-200.000	-0.018	-0.261
-335.275	-152.372	0.041	0.003
-334.260	-200.000	0.151	0.000
-333.245	-46.845	-0.080	0.039
-332.231	242.890	-0.219	0.362
-331.216	66.987	-0.176	0.177
-330.202	-140.756	-0.216	0.022
-329.187	59.540	-0.133	0.129
-328.172	184.124	-0.299	0.437
-327.158	-6.402	0.169	-0.114
-326.143	64.140	0.022	-0.022
-325.129	-200.000	-0.019	0.284
-324.114	-110.940	0.296	0.060
-323.099	-144.039	-0.181	-0.017
-322.085	-77.396	-0.599	-0.206
-321.070	-94.531	0.224	-0.060
-320.056	148.577	-0.109	0.146
-319.041	-88.331	0.125	0.037
-318.026	114.338	0.196	-0.236
-317.012	325.588	0.087	-0.164
-315.997	-70.187	0.366	-0.137
-314.983	800.000	-0.034	-0.099
-313.968	-33.363	-0.188	-0.103
-312.953	-35.999	0.254	0.136
-311.939	405.397	0.123	-0.257
-310.924	-63.061	0.319	0.130
-309.910	-200.000	0.005	0.280
-308.895	-42.574	-0.275	0.138
-307.880	203.583	-0.074	0.114
-306.866	800.000	0.084	-0.280
-305.851	-84.849	-0.232	0.072
-304.837	800.000	-0.039	-0.131
-303.822	251.349	-0.218	0.366
-302.807	-200.000	0.007	0.167
-301.793	-97.210	0.117	0.030
-300.778	-74.887	-0.129	0.046
-299.764	-200.000	-0.012	0.241
-298.749	-200.000	0.009	-0.047
-297.735	16.667	-0.188	0.147
-296.720	123.705	0.153	0.190
-295.705	-137.102	0.069	-0.008
-294.691	292.290	0.205	-0.368
-293.676	800.000	0.062	0.219
-292.662	50.145	-0.220	0.205
-291.647	-200.000	-0.116	0.511
-290.632	6.770	0.085	0.062
-289.618	138.697	-0.152	0.198
-288.603	-200.000	0.021	-0.282
-287.589	-200.000	-0.036	0.400
-286.574	-10.250	-0.041	0.027
-285.559	-200.000	0.010	-0.145
-284.545	-133.695	-0.068	-0.008
-283.530	-200.000	0.010	-0.388
-282.516	-51.696	0.115	-0.053
-281.501	495.874	0.119	0.269
-280.486	127.062	0.085	0.106
-279.472	16.067	-0.032	-0.025
-278.457	214.224	0.000	-0.001
-277.443	221.511	-0.118	-0.186
-276.428	40.749	0.255	-0.227
-275.413	-44.764	0.199	-0.098
-274.399	-49.239	-0.147	0.069
-273.384	800.000	0.055	0.194
-272.370	-200.000	0.024	0.219
-271.355	296.977	-0.127	-0.229
-270.340	800.000	0.054	-0.210
-269.326	-160.730	0.161	-0.008
-268.311	-70.399	-0.197	0.074
-267.297	7.968	0.117	0.087
-266.282	328.326	0.016	0.031
-265.267	-124.760	0.282	0.043
-264.253	-15.738	-0.462	-0.290
-263.238	392.141	-0.035	-0.071
-262.224	-200.000	-0.012	0.075
-261.209	-120.203	-0.097	-0.016
-260.195	69.351	0.048	0.049
-259.180	57.309	0.141	0.135
-258.165	-200.000	-0.010	-0.146
-257.151	3.779	-0.222	-0.160
-256.136	17.364	-0.255	-0.200
-255.122	-94.730	-0.246	0.066
-254.107	197.572	0.253	0.381
-253.092	293.821	0.103	-0.186
-252.078	-7.751	-0.178	0.118
-251.063	275.189	-0.053	-0.093
-250.049	-200.000	0.006	-0.030
-249.034	80.630	-0.334	-0.355
-248.019	-63.659	-0.087	0.035
-247.005	-80.714	-0.119	-0.039
-245.990	185.057	-0.074	0.108
-244.976	35.505	-0.188	0.162
-243.961	165.785	0.053	0.074
-242.946	-200.000	0.048	-0.242
-241.932	-114.070	0.230	0.044
-240.917	200.639	0.130	-0.197
-239.903	-33.503	-0.354	-0.192
-238.888	-200.000	0.020	-0.278
-237.873	-129.573	0.191	-0.026
-236.859	65.764	0.070	0.070
-235.844	-200.000	0.007	0.219
-234.830	-27.087	-0.086	-0.050
-233.815	-200.000	0.058	-0.262
-232.800	-200.000	-0.032	-0.355
-231.786	-184.626	-0.130	0.002
-230.771	-86.175	0.192	-0.058
-229.757	103.562	-0.073	0.084
-228.742	36.682	0.136	-0.119
-227.727	225.390	-0.058	0.092
-226.713	176.153	-0.080	-0.114
-225.698	-157.005	0.136	-0.008
-224.684	800.000	-0.051	0.185
-223.669	-109.797	-0.350	0.072
-222.655	182.891	-0.199	0.289
-221.640	-170.129	0.162	-0.006
-220.625	-115.336	0.146	-0.027
-219.611	43.929	-0.072	-0.065
-218.596	-200.000	-0.078	-0.349
-217.582	-94.629	-0.185	0.050
-216.567	800.000	0.028	0.091
-215.552	-200.000	0.004	-0.042
-214.538	-56.686	0.310	0.135
-213.523	-45.846	-0.081	-0.039
-212.509	-122.439	-0.176	0.028
-211.494	800.000	0.066	0.267
-210.479	526.787	-0.058	0.133
-209.465	241.210	-0.154	0.253
-208.450	28.660	0.254	0.211
-207.436	800.000	0.074	0.255
-206.421	-200.000	0.006	0.247
-205.406	345.054	0.105	-0.202
-204.392	406.380	0.144	-0.298
-203.377	31.078	0.214	0.180
-202.363	-200.000	0.023	0.609
-201.348	-160.287	-0.255	-0.014
-200.333	23.940	-0.187	-0.152
-199.319	-113.519	-0.189	-0.036
-198.304	-200.000	0.002	-0.259
-197.290	345.304	-0.055	0.107
-196.275	-43.354	-0.096	0.048
-195.260	800.000	-0.070	-0.259
-194.246	800.000	-0.081	-0.235
-193.231	800.000	0.151	-0.511
-192.217	-117.711	0.241	-0.043
-191.202	210.062	0.103	0.159
-190.187	-200.000	0.005	-0.276
-189.173	-200.000	0.009	0.253
-188.158	-53.482	0.229	0.103
-187.144	-144.746	0.319	-0.029
-186.129	-161.253	0.196	0.010
-185.114	-200.000	0.001	0.169
-184.100	800.000	0.025	-0.104
-183.085	14.889	-0.056	-0.043
-182.071	65.693	-0.104	0.103
-181.056	0.484	0.114	0.080
-180.042	710.182	-0.056	0.146
-179.027	499.773	-0.002	0.006
-178.012	-38.314	-0.235	0.122
-176.998	-3.445	0.234	-0.160
-175.983	44.155	-0.242	-0.218
-174.969	33.307	0.195	0.166
-173.954	86.547	-0.125	-0.135
-172.939	-123.244	-0.149	0.023
-171.925	123.978	0.126	0.155
-170.910	-139.721	-0.125	0.013
-169.896	-185.949	-0.168	0.002
-168.881	800.000	-0.093	0.304
-167.866	-109.856	-0.255	-0.052
-166.852	93.993	0.089	-0.099
-165.837	-200.000	-0.012	-0.104
-164.823	227.644	0.076	-0.121
-163.808	667.143	0.103	0.260
-162.793	800.000	0.016	-0.053
-161.779	158.421	-0.270	-0.368
-160.764	130.760	-0.052	0.065
-159.750	-200.000	-0.024	-0.125
-158.735	-70.220	-0.248	-0.093
-157.720	-138.874	0.124	-0.013
-156.706	-138.307	0.077	-0.008
-155.691	-192.427	-0.233	0.002
-154.677	-200.000	-0.024	-0.141
-153.662	94.031	0.035	0.039
-152.647	204.658	-0.130	-0.198
-151.633	-200.000	0.000	-0.285
-150.618	-72.916	0.150	-0.054
-149.604	800.000	0.129	0.368
-148.589	-200.000	0.009	-0.133
-147.574	111.968	-0.138	-0.163
-146.560	-123.827	0.329	-0.051
-145.545	-200.000	0.009	-0.129
-144.531	-149.607	-0.301	-0.023
-143.516	-200.000	-0.064	-0.439
-142.502	-116.276	0.261	-0.047
-141.487	-84.024	-0.235	0.073
-140.472	335.323	-0.022	-0.041
-139.458	-154.636	0.224	0.015
-138.443	-158.706	0.465	-0.026
-137.429	34.350	0.202	0.173
-136.414	800.000	-0.037	0.127
-135.399	-122.931	-0.240	-0.038
-134.385	260.278	0.127	0.215
-133.370	-139.494	0.179	-0.019
-132.356	255.135	-0.008	0.013
-131.341	-200.000	0.023	0.161
-130.326	193.981	0.061	0.091
-129.312	12.491	-0.062	-0.047
-128.297	39.626	-0.315	0.277
-127.283	-41.321	0.148	0.075
-126.268	800.000	0.060	-0.255
-125.253	-106.275	0.017	-0.004
-124.239	-71.130	-0.073	0.027
-123.224	153.006	0.061	-0.081
-122.210	342.563	-0.066	-0.127
-121.195	-139.927	-0.193	0.020
-120.180	-200.000	-0.022	0.258
-119.166	-16.493	-0.268	0.167
-118.151	-138.891	-0.465	0.050
-117.137	42.782	0.176	-0.157
-116.122	-119.071	-0.290	0.050
-115.107	-118.141	0.094	-0.016
-114.093	-196.338	-0.356	-0.002
-113.078	800.000	0.140	-0.536
-112.064	-200.000	0.018	-0.242
-111.049	92.556	-0.177	-0.196
-110.034	70.792	0.068	0.069
-109.020	-26.537	0.126	0.072
-108.005	-136.260	0.299	-0.034
-106.991	-200.000	0.028	0.147
-105.976	-48.723	-0.260	-0.122
-104.962	65.428	-0.258	-0.255
-103.947	-200.000	-0.017	0.085
-102.932	-32.140	0.102	-0.056
-101.918	-100.834	-0.269	-0.065
-100.903	286.962	0.142	-0.251
-99.889	-200.000	-0.018	-0.224
-98.874	-62.157	-0.047	-0.019
-97.859	-114.712	0.212	0.040
-96.845	-132.919	0.229	0.029
-95.830	14.465	0.131	-0.100
-94.816	-200.000	0.051	-0.304
-93.801	-200.000	-0.057	-0.422
-92.786	384.590	0.023	-0.046
-91.772	119.891	-0.139	-0.169
-90.757	-144.039	0.290	0.027
-89.743	11.118	0.194	0.145
-88.728	123.141	-0.155	0.190
-87.713	-8.862	0.109	-0.072
-86.699	102.423	0.205	-0.234
-85.684	-97.906	0.411	-0.104
-84.670	-66.550	-0.050	-0.019
-83.655	101.279	0.069	0.078
-82.640	230.597	-0.175	-0.280
-81.626	28.828	0.222	-0.184
-80.611	-56.398	0.250	0.109
-79.597	-163.928	-0.476	-0.022
-78.582	180.134	0.115	-0.166
-77.567	-113.452	0.263	-0.050
-76.553	448.084	0.080	-0.173
-75.538	-200.000	0.018	0.235
-74.524	473.300	0.089	-0.196
-73.509	233.292	-0.173	0.278
-72.494	460.427	-0.066	0.145
-71.480	308.580	0.165	-0.301
-70.465	522.220	0.051	-0.117
-69.451	277.071	-0.102	0.177
-68.436	-37.519	0.179	0.093
-67.422	-40.013	0.266	0.136
-66.407	-107.078	-0.064	-0.014
-65.392	-200.000	0.084	-0.444
-64.378	-136.823	0.181	0.020
-63.363	278.230	-0.121	-0.211
-62.349	-107.510	0.161	-0.035
-61.334	13.928	-1.435	-1.092
-60.319	-17.393	0.657	0.405
-59.305	113.595	-0.960	-1.141
-58.290	400.652	0.451	0.924
-57.276	800.000	0.371	1.376
-56.261	-200.000	115.672	659.276
-55.246	534.431	1522.140	3527.608
-54.232	178.734	2688.574	3841.310
-53.217	108.294	2145.512	2502.665
-52.203	38.741	1588.077	1385.912
-51.188	30.482	1334.204	1114.995
-50.173	27.597	1295.942	1066.133
-49.159	54.770	1353.673	1276.731
-48.144	52.967	1367.563	1279.036
-47.130	30.762	1322.187	1106.442
-46.115	27.309	1304.243	1071.095
-45.100	27.250	1299.173	1066.541
-44.086	26.956	1297.070	1063.052
-43.071	27.005	1294.511	1061.200
-42.057	27.113	1292.560	1060.190
-41.042	27.007	1291.020	1058.268
-40.027	27.094	1289.030	1057.101
-39.013	27.073	1287.357	1055.564
-37.998	27.162	1285.677	1054.658
-36.984	27.068	1284.185	1052.848
-35.969	27.134	1282.185	1051.550
-34.954	27.287	1280.037	1050.628
-33.940	27.259	1279.233	1049.768
-32.925	27.390	1277.676	1049.201
-31.911	27.304	1276.250	1047.495
-30.896	27.217	1274.854	1045.807
-29.881	27.261	1273.726	1045.094
-28.867	27.264	1272.272	1043.877
-27.852	27.331	1270.675	1042.906
-26.838	27.352	1269.651	1042.145
-25.823	27.234	1268.302	1040.321
-24.809	27.203	1266.823	1038.891
-23.794	27.261	1265.375	1037.992
-22.779	27.190	1264.053	1036.464
-21.765	27.214	1262.866	1035.588
-20.750	27.361	1261.649	1035.383
-19.736	27.211	1260.496	1033.541
-18.721	27.200	1259.192	1032.371
-17.706	27.038	1258.780	1031.073
-16.692	27.152	1257.084	1030.286
-15.677	27.247	1255.820	1029.751
-14.663	27.236	1254.608	1028.654
-13.648	27.052	1253.849	1026.947
-12.633	27.155	1252.863	1026.685
-11.619	27.091	1252.301	1025.818
-10.604	27.213	1251.165	1025.535
-9.590	27.084	1250.301	1024.060
-8.575	27.093	1249.435	1023.363
-7.560	27.149	1248.378	1022.768
-6.546	27.043	1247.677	1021.558
-5.531	27.064	1246.566	1020.729
-4.517	27.121	1245.613	1020.225
-3.502	27.152	1245.197	1020.017
-2.487	27.172	1243.420	1018.636
-1.473	27.165	1239.301	1015.178
-0.458	25.439	1224.532	993.508
0.556	22.165	1207.564	954.969
1.571	18.180	1213.045	937.426
2.586	17.287	1227.203	943.325
3.600	16.816	1215.581	931.720
4.615	12.624	1144.890	855.707
5.629	6.188	1074.390	771.457
6.644	3.334	1056.994	745.105
7.659	3.089	1054.814	742.321
8.673	3.246	1053.394	742.014
9.688	3.152	1052.197	740.651
10.702	3.370	1049.801	739.945
11.717	7.142	1054.704	761.505
12.731	14.454	1065.451	804.609
13.746	19.238	1070.780	831.714
14.761	19.876	1071.605	835.363
15.775	19.067	1070.059	830.182
16.790	18.131	1067.412	823.549
17.804	17.405	1066.140	819.000
18.819	17.177	1065.186	817.098
19.834	16.965	1064.758	815.678
20.848	16.817	1064.141	814.423
21.863	16.584	1063.184	812.500
22.877	16.481	1062.851	811.678
23.892	16.360	1061.687	810.140
24.907	16.501	1060.810	810.071
25.921	16.469	1059.751	809.036
26.936	16.490	1058.438	808.064
27.950	16.504	1057.122	807.057
28.965	16.601	1055.607	806.292
29.980	16.655	1054.509	805.636
30.994	16.810	1053.116	805.237
32.009	16.819	1052.417	804.674
33.023	16.832	1051.180	803.720
34.038	16.530	1050.217	801.482
35.053	16.591	1049.137	800.876
36.067	16.559	1048.320	800.029
37.082	16.584	1047.739	799.635
38.096	16.812	1046.672	799.823
39.111	16.742	1046.462	799.265
40.126	16.592	1044.898	797.292
41.140	16.360	1043.434	795.012
42.155	16.344	1042.321	794.019
43.169	16.200	1041.176	792.399
44.184	16.264	1040.216	791.899
45.199	16.322	1039.494	791.549
46.213	16.371	1038.682	791.095
47.228	16.533	1037.805	791.111
48.242	16.641	1036.352	790.442
49.257	16.585	1035.685	789.599
50.271	16.509	1034.953	788.617
51.286	16.556	1034.138	788.143
52.301	16.627	1032.495	787.153
53.315	16.496	1031.646	785.826
54.330	16.314	1031.184	784.560
55.344	16.334	1030.001	783.683
56.359	16.493	1029.473	783.952
57.374	16.371	1028.135	782.300
58.388	16.183	1027.444	780.831
59.403	16.266	1026.257	780.244
60.417	16.295	1025.613	779.821
61.432	16.169	1025.137	778.807
62.447	16.117	1024.214	777.800
63.461	16.010	1023.483	776.680
64.476	16.166	1022.154	776.323
65.490	16.136	1021.504	775.620
66.505	16.202	1020.436	775.043
67.520	16.098	1020.410	774.478
68.534	16.123	1019.218	773.620
69.549	16.064	1018.727	772.910
70.563	16.184	1017.944	772.797
71.578	15.996	1016.858	771.045
72.593	16.002	1015.860	770.246
73.607	15.953	1015.609	769.764
74.622	15.994	1015.188	769.560
75.636	15.954	1014.490	768.783
76.651	16.034	1013.558	768.373
77.666	16.069	1013.103	768.121
78.680	15.922	1012.503	766.930
79.695	16.058	1011.704	766.876
80.709	16.275	1011.031	767.281
81.724	16.223	1010.549	766.611
82.739	16.337	1009.619	766.356
83.753	16.638	1009.100	767.257
84.768	16.757	1008.605	767.356
85.782	16.783	1007.789	766.782
86.797	16.863	1006.182	765.856
87.812	16.741	1005.515	764.727
88.826	16.609	1004.793	763.517
89.841	16.675	1003.830	763.015
90.855	16.774	1003.187	762.902
91.870	16.797	1002.521	762.432
92.884	16.727	1001.881	761.564
93.899	16.735	1000.705	760.637
94.914	16.932	999.717	760.705
95.928	16.861	998.565	759.440
96.943	16.806	997.842	758.581
97.957	16.689	997.184	757.490
98.972	16.779	996.146	757.035
99.987	16.688	995.264	755.890
101.001	16.791	994.400	755.628
102.016	16.696	993.265	754.273
103.030	16.813	992.760	754.344
104.045	16.736	991.939	753.310
105.060	16.560	991.447	752.089
106.074	16.400	990.077	750.272
107.089	16.270	988.451	748.399
108.103	16.321	987.558	747.881
109.118	16.187	987.148	746.911
110.133	16.179	985.808	745.798
111.147	16.121	985.374	745.145
112.162	16.208	984.707	744.961
113.176	16.422	983.584	744.989
114.191	16.486	982.913	744.697
115.206	16.304	982.570	743.569
116.220	16.211	981.828	742.534
117.235	16.278	980.957	742.101
118.249	16.177	979.669	740.619
119.264	16.192	979.064	740.162
120.279	16.201	978.172	739.460
121.293	16.113	977.240	738.306
122.308	16.239	976.139	737.962
123.322	16.007	975.359	736.293
124.337	15.979	974.161	735.200
125.352	15.971	973.473	734.580
126.366	16.085	972.097	733.973
127.381	16.079	970.992	733.047
128.395	16.130	970.657	732.951
129.410	16.176	969.556	732.255
130.424	16.177	968.901	731.701
131.439	16.402	967.952	731.894
132.454	16.354	967.584	731.343
133.468	16.416	966.582	730.790
134.483	16.337	965.584	729.628
135.497	16.336	965.038	729.147
136.512	16.410	964.185	728.757
137.527	16.333	963.472	727.823
138.541	16.348	962.666	727.212
139.556	16.489	961.734	727.051
140.570	16.578	961.388	727.109
141.585	16.781	960.011	726.872
142.600	16.833	959.290	726.487
143.614	16.777	958.782	725.800
144.629	16.773	958.253	725.316
145.643	16.789	957.056	724.415
146.658	16.666	956.225	723.196
147.673	16.563	955.129	721.862
148.687	16.456	954.059	720.534
149.702	16.431	953.226	719.735
150.716	16.409	952.676	719.162
151.731	16.495	951.934	718.906
152.746	16.433	951.370	718.152
153.760	16.587	950.806	718.315
154.775	16.602	950.407	718.016
155.789	16.674	949.222	717.362
156.804	16.751	948.432	717.028
157.819	16.783	948.038	716.802
158.833	16.785	947.663	716.461
159.848	17.103	946.316	716.724
160.862	16.802	945.691	714.917
161.877	16.702	944.307	713.384
162.892	16.391	943.348	711.287
163.906	16.420	942.845	710.971
164.921	16.456	942.343	710.680
165.935	16.592	940.901	710.097
166.950	16.615	940.022	709.469
167.964	16.592	939.212	708.701
168.979	16.621	938.248	708.032
169.994	16.493	937.663	706.991
171.008	16.683	937.016	707.235
172.023	16.790	936.299	707.078
173.037	16.886	935.796	707.035
174.052	16.931	934.538	706.212
175.067	16.657	933.707	704.378
176.081	16.579	933.467	703.810
177.096	16.581	932.990	703.399
178.110	16.646	932.135	702.963
179.125	16.479	932.312	702.339
180.140	16.725	931.453	702.650
181.154	16.805	931.201	702.731
182.169	16.822	930.844	702.467
183.183	16.912	930.056	702.182
184.198	16.942	929.505	701.831
185.213	17.000	928.495	701.246
186.227	17.015	928.148	700.981
187.242	16.960	927.415	700.139
188.256	17.093	926.648	700.049
189.271	16.988	926.185	699.203
190.286	16.742	925.126	697.329
191.300	16.417	924.238	695.263
192.315	16.445	923.595	694.830
193.329	16.508	923.134	694.683
194.344	16.614	922.500	694.579
195.359	16.743	922.078	694.728
196.373	16.942	921.376	694.952
197.388	16.897	921.610	694.882
198.402	17.078	920.866	695.005
199.417	17.360	919.829	695.310
200.432	17.304	919.601	694.849
201.446	17.347	919.153	694.626
202.461	17.432	918.502	694.418
203.475	17.379	917.850	693.647
204.490	17.155	916.858	691.924
205.504	16.983	916.498	690.891
206.519	17.040	915.571	690.363
207.534	17.053	914.954	689.890
208.548	17.119	914.223	689.544
209.563	17.129	913.337	688.858
210.577	17.065	912.936	688.234
211.592	17.258	912.337	688.505
212.607	17.336	911.544	688.159
213.621	17.358	910.410	687.332
214.636	17.176	910.379	686.511
215.650	17.340	909.302	686.301
216.665	17.447	908.876	686.351
217.680	17.603	908.037	686.284
218.694	17.419	907.851	685.340
219.709	17.494	906.937	684.895
220.723	17.556	905.947	684.332
221.738	17.365	905.490	683.160
222.753	17.508	904.449	682.888
223.767	17.498	904.341	682.706
224.782	17.464	904.198	682.402
225.796	17.511	903.635	682.106
226.811	17.468	903.294	681.615
227.826	17.468	901.770	680.406
228.840	17.438	901.171	679.772
229.855	17.287	900.270	678.431
230.869	17.349	899.594	678.107
231.884	17.370	899.028	677.707
232.899	17.444	897.930	677.114
233.913	17.240	897.165	675.663
234.928	17.235	896.825	675.327
235.942	17.221	896.685	675.108
236.957	17.298	895.735	674.637
237.972	17.106	895.620	673.729
238.986	17.345	894.405	673.702
240.001	17.387	894.060	673.551
241.015	17.450	893.458	673.288
242.030	17.552	892.608	672.987
243.045	17.434	892.280	672.218
244.059	17.471	891.607	671.797
245.074	17.599	891.233	671.960
246.088	17.678	890.365	671.557
247.103	17.555	890.216	670.899
248.117	17.850	889.359	671.356
249.132	18.108	889.117	672.130
250.147	18.031	888.837	671.554
251.161	18.161	888.188	671.514
252.176	18.193	887.316	670.923
253.190	18.165	886.918	670.452
254.205	18.162	886.353	669.954
255.220	18.236	885.437	669.494
256.234	18.276	884.717	669.044
257.249	18.412	883.916	668.912
258.263	18.189	883.452	667.631
259.278	18.119	882.844	666.837
260.293	18.191	882.319	666.665
261.307	18.335	881.528	666.567
262.322	18.428	881.042	666.502
263.336	18.426	880.245	665.832
264.351	18.420	879.550	665.227
265.366	18.486	878.890	664.923
266.380	18.460	878.671	664.597
267.395	18.447	877.561	663.650
268.409	18.485	876.492	662.928
269.424	18.398	876.030	662.185
270.439	18.185	875.227	660.698
271.453	18.218	874.484	660.205
272.468	18.170	874.171	659.725
273.482	18.229	873.948	659.727
274.497	18.274	873.065	659.172
275.512	18.289	872.631	658.846
276.526	18.294	872.026	658.350
277.541	18.328	871.795	658.249
278.555	18.468	871.007	658.131
279.570	18.589	870.252	657.968
280.585	18.626	869.820	657.725
281.599	18.518	868.710	656.413
282.614	18.308	868.311	655.250
283.628	18.291	867.917	654.832
284.643	18.317	867.358	654.449
285.657	18.423	866.223	653.942
286.672	18.570	865.660	654.017
287.687	18.432	865.416	653.250
288.701	18.457	864.409	652.529
289.716	18.428	864.150	652.164
290.730	18.477	863.554	651.841
291.745	18.391	863.367	651.318
292.760	18.566	862.599	651.345
293.774	18.640	861.940	651.070
294.789	18.592	861.088	650.188
295.803	18.591	860.571	649.735
296.818	18.409	859.962	648.528
297.833	18.432	859.221	647.998
298.847	18.548	858.692	647.982
299.862	18.490	858.284	647.399
300.876	18.788	857.339	647.749
301.891	18.799	857.131	647.580
302.906	18.805	856.491	647.059
303.920	18.981	855.928	647.239
304.935	18.992	855.637	647.002
305.949	18.917	854.672	645.935
306.964	18.786	853.927	644.824
307.979	18.792	853.981	644.830
308.993	18.927	852.968	644.514
310.008	19.001	852.390	644.297
311.022	18.878	851.843	643.364
312.037	18.737	851.279	642.354
313.052	18.740	850.260	641.542
314.066	18.743	849.756	641.115
315.081	18.615	849.550	640.425
316.095	18.703	848.804	640.136
317.110	18.528	848.450	639.158
318.125	18.465	847.708	638.308
319.139	18.733	847.369	638.996
320.154	18.671	847.002	638.431
321.168	18.772	846.508	638.378
322.183	18.729	846.002	637.778
323.197	18.810	845.519	637.660
324.212	18.852	844.816	637.228
325.227	18.762	844.344	636.484
326.241	18.682	843.413	635.428
327.256	18.640	843.499	635.281
328.270	18.802	842.137	634.799
329.285	18.814	841.529	634.326
330.300	18.670	841.135	633.445
331.314	18.745	841.224	633.732
332.329	18.867	840.833	633.831
333.343	18.923	840.238	633.530
334.358	18.865	839.716	632.868
335.373	19.022	839.143	632.959
336.387	18.983	839.132	632.752
337.402	19.261	838.249	633.049
338.416	19.215	838.670	633.143
339.431	19.300	838.309	633.127
340.446	19.406	837.553	632.888
341.460	19.314	837.664	632.579
342.475	19.336	837.092	632.170
343.489	19.393	836.233	631.676
344.504	19.438	836.104	631.688
345.519	19.335	836.048	631.213
346.533	19.367	835.358	630.754
347.548	19.466	834.012	630.041
348.562	19.214	833.478	628.663
349.577	19.241	832.669	628.094
350.592	19.000	832.390	626.951
351.606	19.184	831.375	626.803
352.621	19.169	830.971	626.387
353.635	19.123	830.334	625.682
354.650	19.355	829.897	626.141
355.665	19.195	829.546	625.240
356.679	19.321	828.939	625.184
357.694	19.450	827.808	624.745
358.708	19.394	827.382	624.166
359.723	19.340	826.765	623.449
360.738	19.407	826.198	623.209
361.752	19.516	825.495	623.017
362.767	19.540	825.150	622.787
363.781	19.636	824.656	622.706
364.796	19.899	824.136	623.203
365.810	19.891	824.015	623.030
366.825	19.557	824.268	621.963
367.840	19.829	823.592	622.374
368.854	19.629	822.535	620.803
369.869	19.729	821.950	620.665
370.883	19.730	821.682	620.413
371.898	19.825	821.412	620.495
372.913	19.863	821.093	620.335
373.927	19.677	820.467	619.142
374.942	19.642	820.332	618.858
375.956	19.824	819.869	619.105
376.971	19.990	819.185	619.128
377.986	19.961	818.826	618.699
379.000	20.062	818.462	618.728
380.015	19.934	817.875	617.774
381.029	19.905	817.070	617.007
382.044	19.958	816.910	617.020
383.059	20.031	816.132	616.639
384.073	19.984	815.414	615.873
385.088	19.893	814.485	614.796
386.102	19.862	814.160	614.385
387.117	19.649	813.778	613.286
388.132	19.742	812.695	612.746
389.146	19.840	812.581	612.955
390.161	20.191	811.662	613.448
391.175	19.965	811.762	612.670
392.190	19.956	810.997	612.005
393.205	19.861	810.136	610.968
394.219	19.775	810.239	610.686
395.234	19.712	809.726	610.024
396.248	19.743	809.027	609.553
397.263	19.701	808.801	609.179
398.278	19.644	808.479	608.681
399.292	19.685	808.164	608.537
400.307	19.687	807.336	607.868
401.321	19.768	806.533	607.493
402.336	19.869	806.351	607.657
403.350	19.883	806.181	607.522
404.365	20.022	805.880	607.731
405.380	20.223	805.164	607.841
406.394	20.381	804.636	607.944
407.409	20.307	804.232	607.325
408.423	20.203	804.501	607.110
409.438	20.286	804.292	607.189
410.453	20.312	803.250	606.439
411.467	20.367	802.806	606.242
412.482	20.448	802.908	606.548
413.496	20.363	802.636	605.993
414.511	20.523	802.024	606.036
415.526	20.499	801.176	605.258
416.540	20.560	800.808	605.138
417.555	20.525	800.498	604.727
418.569	20.350	800.176	603.823
419.584	20.369	799.759	603.521
420.599	20.436	799.081	603.189
421.613	162.023	1372.704	1795.675
422.628	140.627	1456.271	1795.758
