DTS Sentinel unit serial number:	SN413079Multiplexer serial number:	ORYXHardware model number:	OX4-SRSoftware version number:	ORYX F/W v4.00 Oryx Data Collector v3.7.2.0data status	okinstallation	princeton_trtdifferential loss correction	single-endedforward channel	channel 1reverse channel	N/Adate	2019/09/13time	17:30:35forward acquisition time	60.00reverse acquisition time	0.00gamma	496.2192k internal	0.2298k external	0.2298temperature offset calibration	1.0133default loss term (dB/km)	0.3790temperature slope calibration	1.0000multiplexer offset coefficient	1.0000multiplexer slope coefficient	1.0000fibre end	0.00T internal ref (°C)	36.12T ext. ref 1 (°C)	5.28T ext. ref 2 (°C)	29.78length (m)	temperature (°C)	Stokes	anti-Stokes-747.200	147.415	-0.099	-0.136
-746.185	-200.000	-0.017	-0.255
-745.171	34.892	-0.301	0.268
-744.156	-67.082	-0.051	0.020
-743.142	-125.176	0.184	0.029
-742.127	61.590	0.229	0.232
-741.112	780.135	-0.015	0.041
-740.098	800.000	0.091	0.348
-739.083	800.000	-0.060	-0.199
-738.069	-44.932	0.251	0.128
-737.054	-135.220	-0.046	-0.006
-736.039	-13.857	0.229	0.151
-735.025	-63.151	0.370	0.156
-734.010	-111.496	-0.239	-0.050
-732.996	-167.262	-0.128	-0.005
-731.981	-93.156	-0.333	-0.094
-730.966	-60.729	-0.060	0.026
-729.952	289.881	-0.232	0.430
-728.937	655.127	-0.115	0.302
-727.923	-66.883	-0.205	0.083
-726.908	-200.000	-0.005	0.060
-725.894	443.871	-0.095	0.212
-724.879	-192.074	-0.157	0.002
-723.864	-200.000	-0.017	-0.215
-722.850	470.459	0.120	0.275
-721.835	367.727	-0.124	-0.256
-720.821	74.721	-0.158	0.170
-719.806	-185.085	0.030	0.000
-718.791	-30.214	-0.103	-0.059
-717.777	-200.000	-0.032	-0.271
-716.762	125.912	-0.277	-0.357
-715.748	430.141	0.033	0.073
-714.733	-200.000	-0.001	-0.291
-713.718	-122.192	-0.345	0.058
-712.704	-159.939	0.204	-0.011
-711.689	125.419	-0.158	-0.203
-710.675	800.000	-0.070	0.241
-709.660	-200.000	0.045	0.349
-708.645	666.424	-0.047	0.124
-707.631	217.198	0.142	0.230
-706.616	-175.037	-0.108	-0.003
-705.602	-132.422	-0.252	-0.033
-704.587	45.943	-0.237	-0.223
-703.572	1.447	0.140	-0.103
-702.558	-84.753	0.404	0.130
-701.543	8.141	-0.185	-0.142
-700.529	-200.000	-0.019	0.165
-699.514	-119.202	-0.074	0.013
-698.499	-79.573	0.181	-0.062
-697.485	-110.494	-0.122	0.026
-696.470	-110.809	-0.115	-0.024
-695.456	-163.362	-0.138	0.007
-694.441	600.806	0.153	-0.386
-693.426	-118.274	0.289	-0.052
-692.412	-200.000	-0.010	0.079
-691.397	37.381	0.104	0.094
-690.383	14.357	0.032	-0.025
-689.368	800.000	-0.038	-0.130
-688.354	800.000	-0.031	-0.091
-687.339	471.643	0.078	0.178
-686.324	-200.000	0.035	0.234
-685.310	-107.485	-0.023	0.005
-684.295	62.983	-0.151	0.154
-683.281	173.945	0.197	0.290
-682.266	-200.000	-0.003	-0.076
-681.251	39.255	-0.207	-0.188
-680.237	800.000	-0.063	-0.201
-679.222	-200.000	-0.003	-0.178
-678.208	128.407	0.129	0.168
-677.193	-77.039	-0.309	-0.110
-676.178	217.113	-0.126	-0.205
-675.164	-28.318	-0.131	0.077
-674.149	-200.000	-0.001	-0.468
-673.135	-40.986	-0.100	-0.053
-672.120	-78.984	-0.162	-0.056
-671.105	56.067	-0.158	0.156
-670.091	-73.796	0.146	0.054
-669.076	-115.985	-0.235	-0.045
-668.062	258.054	0.080	0.141
-667.047	6.988	-0.370	0.281
-666.032	800.000	-0.058	-0.227
-665.018	150.849	-0.095	0.132
-664.003	800.000	0.093	-0.279
-662.989	-139.932	0.113	-0.012
-661.974	52.460	-0.029	-0.028
-660.959	-91.598	0.245	0.071
-659.945	-200.000	-0.005	-0.053
-658.930	800.000	-0.043	0.189
-657.916	70.350	-0.111	-0.116
-656.901	-94.489	0.098	-0.027
-655.886	-94.828	-0.343	-0.094
-654.872	366.952	0.043	0.087
-653.857	-200.000	0.038	-0.238
-652.843	26.343	0.155	-0.132
-651.828	800.000	-0.030	-0.085
-650.814	197.190	-0.220	-0.341
-649.799	-200.000	0.006	-0.048
-648.784	79.501	-0.234	-0.255
-647.770	-200.000	-0.032	-0.245
-646.755	262.272	0.134	0.236
-645.741	38.943	-0.284	-0.258
-644.726	773.133	0.019	-0.053
-643.711	800.000	-0.130	-0.495
-642.697	-200.000	-0.000	-0.064
-641.682	-200.000	0.001	-0.043
-640.668	-200.000	-0.002	-0.024
-639.653	-68.365	-0.095	-0.038
-638.638	370.712	-0.191	-0.393
-637.624	-200.000	0.013	0.066
-636.609	-200.000	-0.005	0.357
-635.595	-200.000	0.004	0.088
-634.580	-60.927	-0.183	0.079
-633.565	-27.414	-0.216	-0.127
-632.551	17.389	-0.283	-0.228
-631.536	340.199	0.131	-0.259
-630.522	43.577	0.055	-0.051
-629.507	800.000	-0.063	-0.193
-628.492	-195.401	-0.251	-0.002
-627.478	-73.017	0.090	-0.033
-626.463	590.826	-0.097	-0.244
-625.449	195.876	0.217	0.335
-624.434	800.000	0.076	-0.316
-623.419	8.419	0.058	0.044
-622.405	450.334	0.077	-0.173
-621.390	-45.541	-0.198	0.100
-620.376	-149.061	0.118	-0.010
-619.361	-200.000	-0.020	0.292
-618.346	281.748	0.242	0.440
-617.332	72.770	-0.340	-0.360
-616.317	800.000	-0.045	0.151
-615.303	800.000	0.047	0.206
-614.288	-200.000	-0.034	0.219
-613.273	117.522	-0.070	-0.088
-612.259	-200.000	0.019	0.259
-611.244	-9.778	0.240	0.163
-610.230	69.924	-0.146	-0.153
-609.215	-68.177	-0.328	0.130
-608.201	-131.597	-0.244	0.033
-607.186	800.000	-0.023	0.082
-606.171	157.363	0.148	0.208
-605.157	67.503	-0.272	0.282
-604.142	130.470	0.124	-0.161
-603.128	-155.518	-0.175	0.011
-602.113	114.787	-0.154	-0.190
-601.098	104.950	0.176	0.210
-600.084	-200.000	0.014	0.181
-599.069	21.035	0.363	-0.299
-598.055	-186.469	0.146	0.002
-597.040	-200.000	-0.013	0.091
-596.025	-137.038	-0.210	0.024
-595.011	-26.202	0.145	0.086
-593.996	167.757	0.079	-0.114
-592.982	33.538	0.101	-0.089
-591.967	-200.000	-0.007	0.224
-590.952	-127.671	-0.250	0.037
-589.938	501.380	0.109	-0.255
-588.923	-16.271	0.315	-0.203
-587.909	-66.601	0.361	-0.145
-586.894	136.488	-0.143	-0.189
-585.879	227.527	-0.206	0.341
-584.865	800.000	-0.035	-0.105
-583.850	23.887	0.137	0.114
-582.836	224.094	-0.038	-0.062
-581.821	-133.401	0.124	0.016
-580.806	146.848	-0.020	0.027
-579.792	-200.000	0.377	-0.001
-578.777	-37.873	0.074	0.040
-577.763	534.457	-0.077	-0.185
-576.748	568.002	0.127	-0.314
-575.733	-27.007	-0.180	-0.107
-574.719	-200.000	0.009	0.206
-573.704	-74.991	0.135	0.049
-572.690	323.926	0.023	0.045
-571.675	132.768	0.223	-0.292
-570.661	2.257	0.032	-0.024
-569.646	-83.455	0.120	-0.039
-568.631	83.139	0.178	-0.196
-567.617	199.162	-0.132	-0.205
-566.602	129.448	-0.263	-0.341
-565.588	-48.583	0.062	0.030
-564.573	-200.000	-0.037	0.247
-563.558	-200.000	-0.085	-0.417
-562.544	-53.549	-0.171	-0.079
-561.529	-147.052	-0.171	-0.015
-560.515	-19.333	0.176	0.111
-559.500	50.069	-0.182	-0.174
-558.485	-79.844	0.028	0.010
-557.471	-53.666	-0.105	-0.049
-556.456	679.563	0.063	0.166
-555.442	16.193	-0.247	-0.197
-554.427	146.478	0.101	0.137
-553.412	639.392	0.157	-0.405
-552.398	-73.180	-0.237	0.088
-551.383	-66.667	0.169	0.068
-550.369	-200.000	-0.041	-0.210
-549.354	-1.396	0.239	0.171
-548.339	-30.223	-0.157	-0.090
-547.325	800.000	0.041	0.119
-546.310	-1.632	-0.356	0.254
-545.296	167.336	0.110	0.158
-544.281	-200.000	0.017	-0.086
-543.266	-98.206	0.174	-0.045
-542.252	505.148	-0.040	-0.094
-541.237	763.306	-0.078	-0.214
-540.223	292.631	0.031	0.057
-539.208	-23.580	0.215	0.131
-538.193	-90.703	0.172	0.050
-537.179	-200.000	0.018	0.110
-536.164	47.667	0.191	-0.181
-535.150	-127.337	-0.303	0.045
-534.135	-91.184	-0.301	0.087
-533.121	-200.000	-0.044	-0.215
-532.106	-100.227	-0.231	0.058
-531.091	23.014	0.030	0.025
-530.077	-200.000	0.024	0.124
-529.062	-118.963	-0.145	0.026
-528.048	-53.143	-0.343	-0.159
-527.033	352.439	-0.084	-0.169
-526.018	119.964	0.120	-0.150
-525.004	-16.766	0.118	0.076
-523.989	800.000	-0.112	-0.430
-522.975	-200.000	0.002	-0.090
-521.960	-73.020	-0.150	0.056
-520.945	-49.157	0.384	0.186
-519.931	-146.042	-0.182	-0.016
-518.916	-169.512	-0.395	0.015
-517.902	8.658	0.089	-0.068
-516.887	56.914	-0.182	-0.180
-515.872	-131.824	-0.147	0.019
-514.858	800.000	0.063	-0.183
-513.843	-79.859	-0.191	-0.065
-512.829	-200.000	0.013	-0.186
-511.814	174.776	-0.133	-0.195
-510.799	49.373	-0.183	0.174
-509.785	-58.884	-0.127	-0.055
-508.770	-83.152	-0.334	-0.109
-507.756	18.758	-0.112	0.091
-506.741	118.038	-0.221	0.276
-505.726	-200.000	0.008	0.371
-504.712	-173.944	-0.215	0.006
-503.697	-75.386	0.029	-0.011
-502.683	-200.000	0.010	0.382
-501.668	405.357	-0.078	0.167
-500.653	126.622	-0.204	0.261
-499.639	54.003	-0.271	0.264
-498.624	60.326	-0.083	0.083
-497.610	209.941	0.099	0.156
-496.595	47.506	0.213	-0.201
-495.581	-200.000	0.006	-0.039
-494.566	285.139	0.083	-0.152
-493.551	-102.519	0.194	-0.047
-492.537	-80.085	0.328	-0.111
-491.522	-132.103	-0.265	0.035
-490.508	-60.594	0.356	0.153
-489.493	-3.183	0.051	0.036
-488.478	83.290	0.036	0.039
-487.464	626.234	-0.086	0.218
-486.449	36.991	0.131	0.117
-485.435	-126.272	0.077	-0.012
-484.420	-200.000	-0.006	-0.277
-483.405	-122.017	0.323	-0.054
-482.391	149.196	-0.165	-0.226
-481.376	10.466	0.199	-0.153
-480.362	23.979	0.151	-0.126
-479.347	-87.828	0.282	-0.086
-478.332	54.777	-0.043	-0.042
-477.318	207.217	0.122	0.192
-476.303	4.094	-0.123	0.091
-475.289	169.033	-0.135	-0.195
-474.274	-169.056	0.147	0.006
-473.259	-75.225	-0.247	0.089
-472.245	-143.221	-0.061	-0.006
-471.230	-92.507	0.208	0.059
-470.216	6.193	0.118	-0.088
-469.201	457.716	0.171	-0.385
-468.186	178.308	0.129	-0.189
-467.172	66.966	-0.109	0.112
-466.157	-48.063	-0.215	-0.105
-465.143	23.200	0.209	0.173
-464.128	-200.000	0.030	0.175
-463.113	-88.636	0.087	-0.026
-462.099	-200.000	-0.035	-0.307
-461.084	-200.000	-0.012	-0.251
-460.070	104.989	0.224	-0.266
-459.055	55.241	0.090	0.087
-458.040	202.956	0.072	0.113
-457.026	-156.544	-0.297	-0.019
-456.011	46.466	0.184	0.172
-454.997	90.899	0.291	-0.329
-453.982	-12.444	0.126	-0.083
-452.968	78.903	0.272	-0.293
-451.953	-82.665	0.358	0.117
-450.938	-34.693	0.059	-0.033
-449.924	-47.053	-0.084	0.042
-448.909	-200.000	0.027	-0.208
-447.895	30.174	-0.192	0.166
-446.880	-83.648	-0.200	-0.064
-445.865	-65.820	0.139	-0.056
-444.851	592.428	0.089	-0.221
-443.836	-34.523	0.255	0.141
-442.822	213.823	-0.008	0.014
-441.807	-81.241	0.218	0.073
-440.792	800.000	-0.048	-0.177
-439.778	800.000	0.104	0.456
-438.763	65.598	-0.221	0.226
-437.749	13.493	-0.213	-0.167
-436.734	257.868	0.106	0.184
-435.719	50.018	-0.112	-0.106
-434.705	-34.570	0.318	-0.175
-433.690	-168.303	-0.182	-0.007
-432.676	179.556	-0.451	-0.665
-431.661	-12.867	-0.184	0.121
-430.646	-92.541	-0.201	0.057
-429.632	402.296	0.066	0.140
-428.617	-64.045	0.061	0.025
-427.603	800.000	0.092	-0.281
-426.588	-200.000	0.201	-0.000
-425.573	159.070	0.160	0.224
-424.559	376.107	0.145	0.298
-423.544	55.744	0.128	0.125
-422.530	800.000	0.070	-0.220
-421.515	-5.372	-0.217	0.150
-420.500	37.311	0.062	0.055
-419.486	-14.321	-0.135	0.088
-418.471	493.671	-0.209	0.483
-417.457	604.528	-0.158	0.397
-416.442	800.000	0.026	-0.087
-415.428	-115.832	-0.181	0.034
-414.413	150.166	0.219	0.299
-413.398	-78.831	0.190	-0.065
-412.384	-200.000	-0.035	0.264
-411.369	-200.000	0.086	0.496
-410.355	-111.501	0.285	0.058
-409.340	699.292	-0.057	-0.152
-408.325	-100.729	-0.417	-0.104
-407.311	-113.568	-0.155	0.030
-406.296	-12.064	-0.165	-0.109
-405.282	800.000	0.115	-0.346
-404.267	-102.935	0.214	-0.051
-403.252	232.257	-0.071	-0.118
-402.238	65.871	0.229	-0.234
-401.223	361.716	0.065	-0.131
-400.209	21.007	-0.096	0.079
-399.194	782.496	-0.104	-0.288
-398.179	3.114	-0.040	0.030
-397.165	800.000	-0.070	-0.300
-396.150	27.577	0.150	0.127
-395.136	-200.000	-0.012	-0.103
-394.121	-6.112	0.061	-0.042
-393.106	-134.484	0.236	-0.029
-392.092	359.057	-0.045	0.091
-391.077	-153.866	-0.199	0.014
-390.063	126.931	0.142	0.181
-389.048	145.338	-0.218	0.294
-388.033	-122.886	0.097	-0.016
-387.019	-200.000	0.034	0.407
-386.004	92.520	-0.019	0.021
-384.990	149.045	0.090	0.123
-383.975	-9.261	-0.094	0.063
-382.960	119.112	0.036	-0.045
-381.946	99.910	0.063	0.074
-380.931	-144.772	0.196	0.018
-379.917	-3.287	-0.420	0.295
-378.902	23.353	-0.026	0.021
-377.888	-117.039	0.108	-0.020
-376.873	432.561	-0.085	-0.186
-375.858	77.720	0.043	0.046
-374.844	-68.769	-0.206	-0.080
-373.829	-114.069	-0.109	-0.021
-372.815	714.796	0.108	0.289
-371.800	-52.271	-0.369	-0.172
-370.785	-60.906	-0.181	0.077
-369.771	16.499	-0.147	-0.116
-368.756	67.165	-0.236	-0.242
-367.742	33.281	0.167	-0.146
-366.727	-54.523	0.198	0.090
-365.712	114.547	0.161	-0.197
-364.698	-18.108	-0.023	-0.014
-363.683	-39.164	0.284	-0.150
-362.669	-200.000	0.009	-0.141
-361.654	-200.000	0.019	-0.167
-360.639	-200.000	0.000	-0.248
-359.625	114.158	0.186	-0.228
-358.610	12.412	0.061	0.047
-357.596	-200.000	0.014	0.108
-356.581	507.751	0.084	0.195
-355.566	264.954	-0.087	0.153
-354.552	92.771	0.113	0.129
-353.537	-114.944	-0.199	-0.038
-352.523	64.845	-0.083	0.084
-351.508	-141.930	-0.055	0.006
-350.493	-90.931	-0.282	0.082
-349.479	238.646	-0.154	0.257
-348.464	206.755	-0.089	0.140
-347.450	323.025	-0.044	-0.084
-346.435	-34.019	0.260	0.144
-345.420	58.893	0.080	0.079
-344.406	800.000	-0.070	0.210
-343.391	-200.000	-0.053	0.268
-342.377	800.000	0.039	0.145
-341.362	800.000	-0.030	0.124
-340.348	64.349	-0.285	0.289
-339.333	41.943	0.116	-0.106
-338.318	-161.890	-0.250	-0.013
-337.304	230.555	-0.135	-0.223
-336.289	64.189	0.149	0.151
-335.275	-153.443	-0.088	0.006
-334.260	67.118	-0.208	-0.213
-333.245	49.350	0.230	0.217
-332.231	-200.000	0.027	0.186
-331.216	34.424	-0.119	0.105
-330.202	-145.588	-0.219	-0.020
-329.187	377.959	0.077	-0.159
-328.172	800.000	-0.113	0.397
-327.158	-200.000	-0.036	-0.185
-326.143	800.000	0.023	0.091
-325.129	-10.589	-0.147	0.098
-324.114	66.081	0.177	-0.180
-323.099	-15.061	0.250	-0.161
-322.085	-56.962	0.114	0.051
-321.070	398.552	0.025	0.052
-320.056	-136.963	-0.185	0.021
-319.041	-76.888	0.065	0.023
-318.026	-200.000	0.037	-0.264
-317.012	259.126	0.012	0.020
-315.997	-101.612	-0.402	-0.098
-314.983	-200.000	-0.004	-0.028
-313.968	-178.485	-0.161	0.004
-312.953	371.229	-0.123	-0.250
-311.939	-200.000	-0.032	0.210
-310.924	717.132	0.050	-0.134
-309.910	-23.067	0.163	-0.099
-308.895	-51.225	-0.136	-0.064
-307.880	-60.782	0.073	0.031
-306.866	-11.235	0.224	0.148
-305.851	800.000	0.020	-0.076
-304.837	14.084	0.404	0.316
-303.822	4.109	-0.217	0.159
-302.807	-142.623	-0.246	-0.024
-301.793	-7.751	-0.257	0.174
-300.778	-29.470	0.289	-0.166
-299.764	-1.955	0.298	0.210
-298.749	-27.071	-0.105	-0.062
-297.735	-86.891	-0.119	0.036
-296.720	31.242	0.147	0.126
-295.705	-151.488	-0.107	-0.008
-294.691	-109.249	-0.256	-0.054
-293.676	-128.958	0.269	-0.038
-292.662	619.902	0.118	0.298
-291.647	343.827	-0.208	-0.409
-290.632	-61.863	0.081	-0.034
-289.618	143.865	0.107	0.143
-288.603	596.828	0.030	-0.075
-287.589	688.846	0.121	-0.316
-286.574	27.456	-0.187	0.158
-285.559	800.000	0.039	0.164
-284.545	66.007	0.187	0.190
-283.530	-200.000	0.037	0.249
-282.516	69.807	-0.216	0.223
-281.501	-200.000	0.004	0.217
-280.486	180.003	0.125	0.184
-279.472	-53.115	0.199	-0.092
-278.457	592.334	0.154	-0.382
-277.443	-176.955	0.145	-0.004
-276.428	-124.558	0.044	0.007
-275.413	207.284	-0.088	0.138
-274.399	462.564	0.132	0.295
-273.384	-200.000	0.051	-0.387
-272.370	-200.000	-0.029	0.597
-271.355	-20.092	-0.269	0.167
-270.340	-75.919	-0.311	-0.110
-269.326	14.824	0.253	-0.199
-268.311	-31.950	0.044	-0.025
-267.297	-82.772	0.348	-0.113
-266.282	-200.000	-0.015	-0.219
-265.267	-27.702	0.319	0.185
-264.253	7.381	-0.358	0.268
-263.238	-48.181	0.152	0.073
-262.224	-33.936	-0.236	0.130
-261.209	653.441	-0.084	-0.215
-260.195	-135.679	0.402	-0.048
-259.180	-139.578	-0.276	-0.029
-258.165	-31.738	-0.131	-0.073
-257.151	408.124	-0.039	0.083
-256.136	-200.000	0.007	-0.478
-255.122	401.815	0.111	-0.234
-254.107	343.964	0.048	-0.095
-253.092	-200.000	0.016	0.073
-252.078	-200.000	-0.056	0.388
-251.063	-129.034	-0.179	0.025
-250.049	-60.701	-0.027	-0.012
-249.034	81.698	0.067	-0.073
-248.019	121.956	-0.068	0.085
-247.005	-132.156	0.308	-0.040
-245.990	-200.000	-0.036	0.225
-244.976	-73.603	-0.182	-0.066
-243.961	133.154	-0.051	0.065
-242.946	-10.043	0.080	0.053
-241.932	-82.626	0.301	-0.098
-240.917	-200.000	0.049	0.331
-239.903	7.626	0.030	0.023
-238.888	91.646	0.346	0.389
-237.873	-74.905	-0.290	-0.104
-236.859	11.052	0.140	-0.107
-235.844	21.929	0.112	-0.092
-234.830	-200.000	-0.028	-0.146
-233.815	-0.534	0.156	-0.111
-232.800	-200.000	-0.019	-0.188
-231.786	-94.234	-0.194	-0.053
-230.771	-114.627	-0.100	-0.019
-229.757	-56.131	0.346	0.154
-228.742	800.000	-0.037	0.130
-227.727	-16.067	0.153	0.097
-226.713	-188.431	0.323	0.004
-225.698	526.587	0.019	0.044
-224.684	-128.335	-0.212	0.030
-223.669	-139.691	0.409	0.044
-222.655	13.033	0.249	-0.193
-221.640	-80.426	0.133	0.044
-220.625	-135.212	0.320	-0.038
-219.611	-14.712	-0.214	-0.137
-218.596	234.254	-0.173	0.285
-217.582	-60.605	0.367	0.156
-216.567	131.486	-0.083	-0.106
-215.552	101.576	-0.090	-0.105
-214.538	18.104	0.039	-0.031
-213.523	258.942	-0.044	-0.075
-212.509	-200.000	0.014	-0.116
-211.494	177.619	0.255	0.372
-210.479	800.000	0.043	-0.174
-209.465	59.325	0.138	-0.136
-208.450	-110.765	-0.236	-0.049
-207.436	800.000	0.090	-0.329
-206.421	-28.954	-0.105	-0.060
-205.406	-200.000	0.007	-0.176
-204.392	-139.391	-0.291	0.031
-203.377	408.430	-0.211	-0.446
-202.363	800.000	0.033	-0.137
-201.348	-66.819	0.185	-0.073
-200.333	-200.000	0.034	-0.165
-199.319	-200.000	0.017	0.125
-198.304	-129.663	0.221	0.030
-197.290	-200.000	-0.042	0.204
-196.275	16.094	-0.328	-0.259
-195.260	44.249	0.117	0.107
-194.246	76.881	0.155	0.164
-193.231	-103.810	0.108	0.025
-192.217	-146.160	-0.155	-0.014
-191.202	49.366	-0.058	-0.055
-190.187	283.101	0.027	0.049
-189.173	-187.256	0.190	0.003
-188.158	14.269	-0.096	0.075
-187.144	-200.000	0.003	0.108
-186.129	800.000	0.014	-0.055
-185.114	184.225	-0.056	0.083
-184.100	310.538	-0.023	0.042
-183.085	121.964	-0.173	-0.216
-182.071	100.184	-0.147	-0.170
-181.056	-200.000	-0.046	0.275
-180.042	-149.176	0.195	0.016
-179.027	800.000	0.025	0.082
-178.012	800.000	-0.051	0.208
-176.998	-143.242	0.140	0.013
-175.983	-164.056	-0.296	0.014
-174.969	61.816	0.251	0.250
-173.954	-9.626	-0.077	-0.051
-172.939	-200.000	-0.012	-0.052
-171.925	334.686	-0.102	0.197
-170.910	168.580	0.041	0.058
-169.896	-200.000	-0.014	-0.175
-168.881	-200.000	-0.005	0.057
-167.866	-46.652	0.072	-0.035
-166.852	-93.150	-0.082	-0.023
-165.837	36.580	0.317	-0.280
-164.823	-200.000	0.030	0.262
-163.808	-15.521	-0.213	0.136
-162.793	696.141	-0.010	-0.026
-161.779	-192.069	0.313	0.003
-160.764	22.464	-0.176	-0.144
-159.750	57.431	0.124	-0.121
-158.735	-88.297	-0.210	0.063
-157.720	800.000	0.045	0.166
-156.706	3.020	0.260	0.189
-155.691	-20.911	-0.228	-0.139
-154.677	-144.586	-0.053	-0.005
-153.662	-91.572	0.164	0.046
-152.647	-108.169	-0.336	0.073
-151.633	-200.000	-0.038	0.236
-150.618	69.748	-0.053	0.055
-149.604	-30.085	0.159	0.090
-148.589	800.000	0.048	0.151
-147.574	-30.663	0.159	0.090
-146.560	-200.000	-0.026	0.188
-145.545	-148.159	-0.310	0.026
-144.531	-106.560	0.503	-0.112
-143.516	117.138	0.158	-0.193
-142.502	800.000	-0.071	-0.227
-141.487	-13.864	0.232	-0.149
-140.472	-158.644	0.079	0.005
-139.458	165.920	-0.060	0.085
-138.443	-200.000	0.013	-0.155
-137.429	-52.642	-0.343	-0.158
-136.414	-127.847	0.278	-0.040
-135.399	-82.918	-0.056	0.018
-134.385	397.465	0.018	-0.037
-133.370	-43.419	0.250	-0.126
-132.356	14.192	0.110	-0.086
-131.341	800.000	0.042	-0.174
-130.326	-156.791	0.323	-0.020
-129.312	346.462	-0.153	0.300
-128.297	134.078	-0.044	0.057
-127.283	22.490	-0.312	0.254
-126.268	-82.372	0.379	0.123
-125.253	266.487	-0.130	-0.226
-124.239	15.943	0.354	0.278
-123.224	342.556	-0.109	0.213
-122.210	800.000	0.102	-0.423
-121.195	166.614	-0.139	0.196
-120.180	405.819	0.070	0.147
-119.166	493.890	-0.018	-0.040
-118.151	322.716	0.068	-0.129
-117.137	-86.025	0.394	0.121
-116.122	-189.625	-0.008	0.000
-115.107	800.000	0.239	0.743
-114.093	243.058	0.074	0.124
-113.078	-90.205	0.107	-0.031
-112.064	-132.276	0.155	0.020
-111.049	308.080	-0.104	-0.193
-110.034	-200.000	-0.009	-0.042
-109.020	-200.000	-0.033	-0.192
-108.005	-40.793	0.173	-0.089
-106.991	-200.000	-0.027	-0.368
-105.976	-200.000	0.022	-0.391
-104.962	-184.999	-0.083	-0.001
-103.947	86.138	-0.122	-0.134
-102.932	-83.803	-0.285	-0.090
-101.918	-200.000	-0.013	-0.195
-100.903	37.419	-0.162	-0.143
-99.889	114.819	-0.208	-0.252
-98.874	-200.000	0.072	0.335
-97.859	800.000	0.061	-0.177
-96.845	61.671	0.020	-0.020
-95.830	-200.000	0.018	0.255
-94.816	-28.574	-0.205	0.117
-93.801	9.044	0.032	0.024
-92.786	-200.000	0.014	-0.077
-91.772	-200.000	-0.078	-0.000
-90.757	7.297	0.162	0.121
-89.743	123.158	-0.051	-0.064
-88.728	800.000	-0.110	-0.419
-87.713	-200.000	-0.033	-0.226
-86.699	-10.543	-0.081	-0.054
-85.684	25.372	-0.051	0.042
-84.670	-200.000	0.005	0.242
-83.655	51.057	-0.160	0.151
-82.640	-135.311	0.028	0.003
-81.626	-200.000	0.025	-0.134
-80.611	-52.222	-0.255	-0.118
-79.597	-113.104	-0.272	0.053
-78.582	202.336	-0.088	-0.135
-77.567	-65.078	0.029	0.011
-76.553	16.352	-0.304	0.239
-75.538	-111.069	0.141	0.029
-74.524	-76.497	-0.288	0.101
-73.509	197.175	-0.037	-0.056
-72.494	-142.889	0.544	0.053
-71.480	-63.355	0.110	0.045
-70.465	-200.000	0.006	0.320
-69.451	-109.036	-0.190	-0.040
-68.436	-200.000	0.029	-0.192
-67.422	-73.355	-0.004	-0.002
-66.407	-31.270	0.122	0.068
-65.392	30.910	-0.131	-0.111
-64.378	800.000	0.006	0.023
-63.363	472.810	-0.056	-0.125
-62.349	-200.000	-0.062	0.469
-61.334	92.075	-0.994	-1.113
-60.319	-200.000	0.030	0.318
-59.305	356.530	-0.203	-0.402
-58.290	800.000	0.198	0.824
-57.276	359.492	0.713	1.417
-56.261	-200.000	91.952	543.626
-55.246	593.542	1388.447	3410.283
-54.232	185.316	2597.877	3832.290
-53.217	122.869	2200.016	2736.062
-52.203	47.739	1649.188	1529.480
-51.188	39.608	1381.932	1231.073
-50.173	36.218	1339.436	1172.604
-49.159	57.019	1385.817	1342.158
-48.144	61.335	1403.917	1386.258
-47.130	40.026	1359.926	1213.844
-46.115	36.275	1341.974	1174.986
-45.100	35.999	1337.552	1169.394
-44.086	36.068	1334.462	1167.060
-43.071	35.992	1332.333	1164.696
-42.057	35.908	1330.304	1162.367
-41.042	36.035	1328.006	1161.077
-40.027	36.060	1326.677	1160.022
-39.013	36.041	1325.149	1158.526
-37.998	36.009	1323.082	1156.482
-36.984	36.039	1321.404	1155.149
-35.969	36.259	1318.997	1154.312
-34.954	36.192	1317.188	1152.282
-33.940	36.246	1316.269	1151.756
-32.925	36.293	1314.747	1150.661
-31.911	36.263	1313.013	1148.916
-30.896	36.292	1311.718	1147.913
-29.881	36.353	1310.213	1146.913
-28.867	36.215	1309.565	1145.480
-27.852	36.210	1307.707	1143.782
-26.838	36.281	1305.793	1142.482
-25.823	36.217	1304.377	1140.819
-24.809	36.233	1302.911	1139.586
-23.794	36.285	1301.196	1138.349
-22.779	36.205	1300.338	1137.078
-21.765	36.170	1299.104	1135.746
-20.750	36.144	1297.758	1134.376
-19.736	36.202	1296.046	1133.172
-18.721	35.932	1295.756	1131.288
-17.706	36.068	1294.251	1130.727
-16.692	36.085	1292.775	1129.492
-15.677	36.066	1291.855	1128.532
-14.663	36.138	1290.539	1127.760
-13.648	36.026	1289.213	1125.901
-12.633	35.926	1288.587	1124.724
-11.619	35.976	1287.799	1124.283
-10.604	36.090	1286.195	1123.502
-9.590	35.964	1285.627	1122.230
-8.575	36.086	1284.567	1121.972
-7.560	36.015	1284.224	1121.216
-6.546	35.988	1283.430	1120.318
-5.531	35.979	1282.134	1119.088
-4.517	36.001	1281.031	1118.211
-3.502	35.965	1280.889	1117.832
-2.487	36.081	1279.189	1116.977
-1.473	36.128	1274.674	1113.263
-0.458	34.354	1259.165	1089.542
0.556	31.192	1238.353	1041.441
1.571	26.026	1241.420	1014.945
2.586	24.163	1255.267	1015.566
3.600	22.397	1243.184	995.719
4.615	16.627	1170.164	906.343
5.629	8.995	1094.410	809.225
6.644	5.447	1074.250	776.658
7.659	5.184	1072.035	773.685
8.673	5.278	1070.465	772.949
9.688	5.231	1069.266	771.779
10.702	5.278	1067.017	770.321
11.717	9.137	1072.267	793.133
12.731	16.775	1083.488	839.348
13.746	20.964	1088.630	864.062
14.761	21.114	1087.957	864.196
15.775	20.259	1086.653	858.854
16.790	19.210	1084.105	851.582
17.804	18.493	1082.460	846.671
18.819	18.068	1081.499	843.746
19.834	17.973	1080.913	842.746
20.848	17.907	1080.275	841.848
21.863	17.665	1079.607	840.061
22.877	17.610	1078.297	838.699
23.892	17.566	1077.496	837.783
24.907	17.387	1077.502	836.834
25.921	17.490	1075.963	836.072
26.936	17.729	1074.293	835.871
27.950	17.519	1073.324	834.015
28.965	17.753	1071.451	833.627
29.980	17.766	1070.265	832.698
30.994	17.860	1069.006	832.101
32.009	17.891	1068.353	831.670
33.023	17.865	1067.085	830.481
34.038	17.755	1065.718	828.813
35.053	17.701	1064.580	827.591
36.067	17.604	1063.983	826.585
37.082	17.677	1063.512	826.499
38.096	17.801	1062.508	826.246
39.111	17.758	1061.924	825.509
40.126	17.660	1060.843	824.121
41.140	17.405	1059.361	821.667
42.155	17.333	1058.039	820.223
43.169	17.330	1056.580	819.002
44.184	17.314	1055.759	818.220
45.199	17.222	1054.951	817.079
46.213	17.390	1053.291	816.527
47.228	17.598	1052.697	816.992
48.242	17.740	1051.694	816.819
49.257	17.718	1050.579	815.775
50.271	17.704	1050.247	815.378
51.286	17.715	1049.149	814.506
52.301	17.718	1048.258	813.760
53.315	17.471	1047.178	811.669
54.330	17.479	1045.550	810.375
55.344	17.382	1045.105	809.495
56.359	17.406	1044.334	808.942
57.374	17.357	1043.740	808.179
58.388	17.213	1042.509	806.467
59.403	17.360	1041.237	806.111
60.417	17.272	1040.752	805.246
61.432	17.204	1040.153	804.389
62.447	17.150	1039.498	803.559
63.461	17.006	1038.720	802.202
64.476	17.052	1037.345	801.290
65.490	17.093	1036.355	800.645
66.505	17.181	1036.132	800.819
67.520	17.087	1035.339	799.690
68.534	17.167	1034.629	799.447
69.549	17.108	1033.738	798.413
70.563	16.980	1033.239	797.354
71.578	16.959	1032.095	796.300
72.593	16.841	1031.418	795.157
73.607	16.882	1030.449	794.529
74.622	16.892	1030.328	794.412
75.636	17.027	1029.057	793.993
76.651	16.994	1028.429	793.284
77.666	17.029	1027.985	793.035
78.680	16.978	1027.598	792.429
79.695	17.093	1026.867	792.333
80.709	17.272	1025.940	792.384
81.724	17.304	1025.596	792.193
82.739	17.402	1024.899	792.041
83.753	17.530	1024.224	792.048
84.768	17.841	1023.220	792.645
85.782	18.002	1022.415	792.698
86.797	17.689	1022.184	790.997
87.812	17.641	1020.685	789.547
88.826	17.709	1020.033	789.286
89.841	17.731	1018.969	788.495
90.855	17.959	1017.915	788.661
91.870	17.799	1017.424	787.472
92.884	17.947	1016.533	787.396
93.899	17.811	1015.637	786.006
94.914	17.954	1014.903	786.029
95.928	17.774	1014.009	784.437
96.943	17.701	1013.080	783.313
97.957	17.695	1012.357	782.660
98.972	17.760	1011.588	782.292
99.987	17.746	1010.712	781.482
101.001	17.863	1009.651	781.129
102.016	17.739	1008.966	779.960
103.030	17.820	1007.999	779.515
104.045	17.839	1006.990	778.752
105.060	17.597	1006.419	777.137
106.074	17.462	1005.038	775.386
107.089	17.343	1003.439	773.546
108.103	17.284	1002.478	772.467
109.118	17.271	1001.442	771.542
110.133	17.108	1000.882	770.301
111.147	17.112	999.914	769.505
112.162	17.216	999.179	769.345
113.176	17.440	998.330	769.634
114.191	17.381	997.769	768.870
115.206	17.433	996.777	768.271
116.220	17.322	996.147	767.215
117.235	17.359	994.783	766.265
118.249	17.322	994.131	765.528
119.264	17.118	993.419	763.993
120.279	17.202	992.842	763.859
121.293	17.166	991.766	762.803
122.308	17.144	990.799	761.894
123.322	16.975	990.249	760.646
124.337	16.954	988.989	759.517
125.352	16.979	987.808	758.653
126.366	17.010	986.856	757.993
127.381	17.035	985.831	757.252
128.395	17.004	985.035	756.433
129.410	17.251	983.654	756.406
130.424	17.369	983.038	756.392
131.439	17.533	982.479	756.624
132.454	17.382	982.107	755.601
133.468	17.328	980.741	754.241
134.483	17.418	979.744	753.806
135.497	17.492	979.117	753.586
136.512	17.540	978.105	752.950
137.527	17.434	977.506	751.956
138.541	17.488	976.946	751.695
139.556	17.477	976.380	751.149
140.570	17.643	976.011	751.530
141.585	17.895	974.849	751.675
142.600	17.784	973.987	750.458
143.614	17.915	973.324	750.454
144.629	17.900	972.273	749.515
145.643	17.773	971.624	748.391
146.658	17.650	970.372	746.820
147.673	17.552	968.978	745.252
148.687	17.654	967.924	744.821
149.702	17.477	966.879	743.181
150.716	17.359	966.443	742.264
151.731	17.400	965.954	742.003
152.746	17.428	964.940	741.276
153.760	17.582	964.179	741.298
154.775	17.697	963.693	741.357
155.789	17.681	963.307	740.927
156.804	17.749	962.208	740.310
157.819	17.688	961.954	739.784
158.833	17.811	961.925	740.230
159.848	17.887	960.606	739.479
160.862	17.751	959.258	737.787
161.877	17.578	958.200	736.163
162.892	17.445	957.257	734.800
163.906	17.464	956.216	734.014
164.921	17.539	955.180	733.480
165.935	17.617	954.758	733.428
166.950	17.730	953.347	732.764
167.964	17.513	953.085	731.564
168.979	17.608	951.950	731.038
169.994	17.675	950.657	730.268
171.008	17.694	950.382	730.071
172.023	17.752	949.830	729.831
173.037	18.019	948.866	730.167
174.052	17.738	948.047	728.273
175.067	17.592	947.187	726.923
176.081	17.551	946.548	726.196
177.096	17.417	946.021	725.153
178.110	17.405	945.716	724.804
179.125	17.606	944.622	724.756
180.140	17.735	944.057	724.811
181.154	17.881	944.055	725.364
182.169	17.979	943.571	725.342
183.183	17.979	943.333	725.096
184.198	17.867	942.156	723.652
185.213	17.842	941.623	723.073
186.227	17.977	940.670	722.849
187.242	18.065	940.583	723.090
188.256	18.217	939.918	723.157
189.271	18.304	938.850	722.639
190.286	17.788	938.083	719.810
191.300	17.362	937.564	717.549
192.315	17.385	936.493	716.762
193.329	17.506	936.190	716.976
194.344	17.563	935.505	716.631
195.359	17.696	934.813	716.596
196.373	17.822	934.082	716.499
197.388	17.916	934.053	716.811
198.402	18.060	933.561	716.971
199.417	18.290	932.698	717.212
200.432	18.423	932.435	717.503
201.446	18.442	931.774	717.010
202.461	18.502	931.623	717.079
203.475	18.371	930.821	715.853
204.490	18.253	929.711	714.444
205.504	18.049	928.945	712.938
206.519	17.943	928.446	712.050
207.534	18.017	927.735	711.750
208.548	17.984	927.343	711.251
209.563	18.038	926.301	710.614
210.577	18.207	925.542	710.670
211.592	18.284	924.945	710.468
212.607	18.370	924.344	710.300
213.621	18.278	923.631	709.307
214.636	18.149	922.901	708.151
215.650	18.188	921.991	707.550
216.665	18.365	921.434	707.792
217.680	18.562	920.953	708.173
218.694	18.397	920.324	706.946
219.709	18.459	919.608	706.589
220.723	18.512	918.580	705.958
221.738	18.480	917.948	705.278
222.753	18.397	917.586	704.596
223.767	18.450	917.327	704.550
224.782	18.634	917.092	705.064
225.796	18.671	916.197	704.467
226.811	18.613	915.192	703.394
227.826	18.414	914.582	702.046
228.840	18.449	913.600	701.376
229.855	18.412	912.824	700.567
230.869	18.477	912.119	700.229
231.884	18.312	911.619	699.109
232.899	18.319	910.701	698.369
233.913	18.365	909.670	697.704
234.928	18.261	909.406	697.018
235.942	18.161	908.821	696.101
236.957	18.221	908.075	695.713
237.972	18.137	907.626	694.965
238.986	18.202	906.929	694.632
240.001	18.263	906.402	694.416
241.015	18.392	905.824	694.435
242.030	18.472	904.893	693.983
243.045	18.449	904.720	693.697
244.059	18.372	904.059	692.818
245.074	18.524	903.317	692.803
246.088	18.758	902.506	693.063
247.103	18.754	902.077	692.656
248.117	18.809	902.043	692.789
249.132	18.982	901.516	693.022
250.147	19.304	900.676	693.609
251.161	19.141	900.182	692.512
252.176	19.243	900.132	692.824
253.190	19.289	898.985	692.063
254.205	19.260	898.664	691.638
255.220	19.308	897.562	690.924
256.234	19.306	896.957	690.388
257.249	19.168	896.338	689.295
258.263	19.012	895.907	688.282
259.278	19.253	894.756	688.299
260.293	19.396	894.134	688.331
261.307	19.403	893.862	688.088
262.322	19.419	893.387	687.725
263.336	19.450	892.366	687.002
264.351	19.478	891.673	686.518
265.366	19.474	891.344	686.191
266.380	19.358	890.536	685.046
267.395	19.397	889.507	684.349
268.409	19.426	888.606	683.709
269.424	19.250	888.438	682.822
270.439	19.141	887.781	681.823
271.453	19.197	886.852	681.272
272.468	19.300	885.933	680.914
273.482	19.185	886.082	680.513
274.497	19.176	885.318	679.830
275.512	19.211	884.535	679.306
276.526	19.211	884.180	678.975
277.541	19.392	883.327	678.973
278.555	19.502	882.965	679.067
279.570	19.582	882.617	679.054
280.585	19.571	881.773	678.299
281.599	19.345	881.315	677.002
282.614	19.349	880.726	676.503
283.628	19.385	879.638	675.751
284.643	19.292	878.901	674.759
285.657	19.323	878.207	674.287
286.672	19.426	877.642	674.198
287.687	19.493	877.169	674.034
288.701	19.351	876.760	673.109
289.716	19.387	876.336	672.864
290.730	19.406	875.791	672.459
291.745	19.457	875.094	672.062
292.760	19.686	874.259	672.252
293.774	19.736	873.780	672.020
294.789	19.627	873.115	671.026
295.803	19.375	872.295	669.357
296.818	19.532	871.976	669.662
297.833	19.381	871.027	668.289
298.847	19.534	870.255	668.231
299.862	19.541	869.808	667.857
300.876	19.582	869.630	667.819
301.891	19.736	868.981	667.856
302.906	19.760	868.660	667.642
303.920	19.878	868.279	667.748
304.935	20.110	867.616	668.072
305.949	19.916	866.703	666.563
306.964	19.779	865.857	665.327
307.979	19.801	865.092	664.764
308.993	19.969	864.801	665.127
310.008	19.950	864.451	664.727
311.022	19.777	863.820	663.518
312.037	19.708	863.063	662.614
313.052	19.490	862.435	661.239
314.066	19.593	861.921	661.179
315.081	19.489	861.367	660.300
316.095	19.493	860.594	659.663
317.110	19.698	859.905	659.859
318.125	19.635	859.668	659.376
319.139	19.509	859.189	658.472
320.154	19.661	858.685	658.608
321.168	19.691	857.973	658.115
322.183	19.707	857.787	657.977
323.197	19.652	857.194	657.253
324.212	19.655	856.585	656.739
325.227	19.466	855.980	655.499
326.241	19.760	854.814	655.664
327.256	19.746	854.491	655.306
328.270	19.620	854.075	654.451
329.285	19.653	853.199	653.846
330.300	19.500	852.781	652.891
331.314	19.680	852.327	653.167
332.329	20.002	851.936	654.025
333.343	20.041	851.423	653.718
334.358	19.980	850.825	652.971
335.373	19.986	850.748	652.877
336.387	20.003	850.487	652.684
337.402	20.100	850.387	652.914
338.416	20.158	849.742	652.579
339.431	20.253	849.341	652.573
340.446	20.248	849.406	652.543
341.460	20.268	849.034	652.277
342.475	20.369	848.606	652.271
343.489	20.412	848.166	652.037
344.504	20.416	847.707	651.639
345.519	20.524	847.069	651.495
346.533	20.361	846.380	650.300
347.548	20.246	845.546	649.172
348.562	20.180	845.052	648.486
349.577	20.185	844.487	648.015
350.592	20.051	843.946	647.041
351.606	19.840	843.124	645.566
352.621	20.140	842.136	645.870
353.635	20.196	841.923	645.860
354.650	20.211	841.128	645.249
355.665	20.203	840.384	644.589
356.679	20.483	839.775	645.107
357.694	20.408	839.322	644.423
358.708	20.354	838.263	643.351
359.723	20.332	838.082	643.075
360.738	20.230	837.707	642.354
361.752	20.317	836.980	642.061
362.767	20.529	836.379	642.325
363.781	20.524	836.102	642.038
364.796	20.852	835.702	642.883
365.810	20.849	835.656	642.779
366.825	20.889	834.817	642.227
367.840	20.847	834.536	641.797
368.854	20.708	833.974	640.797
369.869	20.644	833.221	639.927
370.883	20.641	832.794	639.532
371.898	20.605	832.979	639.483
372.913	20.923	832.396	640.150
373.927	20.795	831.738	639.116
374.942	20.719	831.140	638.323
375.956	20.872	830.750	638.527
376.971	21.089	829.925	638.629
377.986	21.168	829.895	638.839
379.000	21.134	829.298	638.201
380.015	20.956	828.756	637.076
381.029	20.876	828.472	636.508
382.044	20.958	827.769	636.209
383.059	21.035	826.957	635.812
384.073	20.975	826.179	634.939
385.088	20.745	825.950	633.868
386.102	20.636	825.032	632.712
387.117	20.577	824.726	632.205
388.132	20.799	824.084	632.466
389.146	20.894	823.359	632.196
390.161	20.892	823.307	632.093
391.175	21.002	822.600	631.893
392.190	20.809	822.257	630.875
393.205	20.825	821.702	630.450
394.219	20.696	821.474	629.754
395.234	20.777	820.995	629.626
396.248	20.622	820.296	628.473
397.263	20.551	819.599	627.627
398.278	20.572	819.289	627.408
399.292	20.520	819.199	627.095
400.307	20.617	818.595	626.928
401.321	20.708	818.059	626.790
402.336	20.776	817.726	626.726
403.350	20.718	817.377	626.193
404.365	20.972	816.933	626.713
405.380	21.231	816.381	627.163
406.394	21.115	815.928	626.341
407.409	21.145	815.392	625.984
408.423	21.348	815.283	626.570
409.438	21.310	814.751	625.971
410.453	21.441	814.517	626.206
411.467	21.416	814.084	625.727
412.482	21.483	813.809	625.699
413.496	21.551	813.353	625.539
414.511	21.489	812.916	624.926
415.526	21.449	812.389	624.323
416.540	21.389	812.102	623.832
417.555	21.430	811.323	623.324
418.569	21.425	811.116	623.090
419.584	21.464	810.778	622.917
420.599	21.565	810.507	623.011
421.613	156.151	1369.619	1784.608
422.628	135.763	1451.081	1784.712
