DTS Sentinel unit serial number:	SN413079Multiplexer serial number:	ORYXHardware model number:	OX4-SRSoftware version number:	ORYX F/W v4.00 Oryx Data Collector v3.7.2.0data status	okinstallation	princeton_trtdifferential loss correction	single-endedforward channel	channel 1reverse channel	N/Adate	2019/09/16time	21:18:35forward acquisition time	60.00reverse acquisition time	0.00gamma	496.2192k internal	0.2324k external	0.2324temperature offset calibration	0.9949default loss term (dB/km)	0.3790temperature slope calibration	1.0000multiplexer offset coefficient	1.0000multiplexer slope coefficient	1.0000fibre end	0.00T internal ref (°C)	31.67T ext. ref 1 (°C)	0.04T ext. ref 2 (°C)	25.51length (m)	temperature (°C)	Stokes	anti-Stokes-747.200	-8.176	-0.104	0.071
-746.185	-200.000	0.031	0.334
-745.171	136.721	0.064	0.084
-744.156	-200.000	0.044	0.379
-743.142	-0.709	-0.154	0.110
-742.127	-146.481	-0.318	-0.028
-741.112	47.836	-0.065	0.062
-740.098	-170.502	-0.264	0.009
-739.083	-111.548	0.159	0.033
-738.069	60.516	-0.209	0.209
-737.054	-100.638	-0.115	-0.029
-736.039	114.635	0.035	-0.043
-735.025	-158.926	0.113	-0.006
-734.010	-200.000	0.017	-0.083
-732.996	-133.339	-0.556	-0.071
-731.981	-0.246	-0.075	0.054
-730.966	-148.954	0.266	0.022
-729.952	-69.145	-0.370	0.144
-728.937	20.624	-0.221	0.180
-727.923	617.921	-0.168	-0.427
-726.908	222.744	-0.190	-0.309
-725.894	425.483	-0.085	-0.186
-724.879	-86.575	-0.344	-0.106
-723.864	-200.000	-0.014	-0.183
-722.850	260.489	-0.089	0.156
-721.835	106.650	-0.155	-0.185
-720.821	-55.758	-0.128	-0.058
-719.806	1.474	-0.228	0.165
-718.791	689.488	-0.052	-0.138
-717.777	-5.364	-0.155	-0.107
-716.762	800.000	0.056	-0.188
-715.748	144.303	-0.182	0.244
-714.733	103.744	0.045	0.053
-713.718	130.782	-0.074	-0.096
-712.704	-200.000	-0.075	0.398
-711.689	641.406	-0.031	-0.081
-710.675	127.281	0.087	0.112
-709.660	-200.000	-0.080	0.360
-708.645	19.115	-0.272	-0.220
-707.631	800.000	0.014	-0.041
-706.616	-200.000	0.040	-0.203
-705.602	-81.708	0.081	0.027
-704.587	-200.000	0.011	0.109
-703.572	332.353	-0.063	-0.122
-702.558	496.702	-0.062	0.144
-701.543	-38.032	0.054	-0.029
-700.529	-200.000	-0.017	-0.184
-699.514	-66.553	0.178	0.071
-698.499	-200.000	0.016	0.145
-697.485	-127.717	-0.173	-0.025
-696.470	-171.491	-0.069	-0.002
-695.456	-47.344	-0.137	-0.067
-694.441	577.347	0.091	0.223
-693.426	800.000	0.047	0.141
-692.412	26.287	0.216	-0.182
-691.397	102.809	-0.051	-0.060
-690.383	-45.710	0.151	0.075
-689.368	800.000	-0.065	-0.246
-688.354	143.464	0.079	-0.105
-687.339	800.000	-0.073	0.254
-686.324	231.604	-0.075	-0.124
-685.310	38.049	0.104	-0.093
-684.295	-200.000	0.013	-0.580
-683.281	-16.384	-0.158	-0.101
-682.266	333.885	0.039	0.076
-681.251	506.484	0.039	-0.090
-680.237	-200.000	-0.039	-0.437
-679.222	-155.445	-0.165	-0.011
-678.208	800.000	-0.036	-0.111
-677.193	73.685	0.027	-0.029
-676.178	615.646	0.049	-0.123
-675.164	380.827	0.066	0.136
-674.149	800.000	-0.051	-0.212
-673.135	-127.719	-0.083	-0.012
-672.120	800.000	-0.069	-0.244
-671.105	359.767	0.197	-0.397
-670.091	-200.000	0.061	-0.316
-669.076	-101.942	-0.310	0.075
-668.062	-17.960	-0.062	0.039
-667.047	800.000	-0.084	-0.314
-666.032	-8.577	-0.265	0.179
-665.018	800.000	0.111	0.464
-664.003	-200.000	-0.023	0.145
-662.989	-144.284	-0.205	0.019
-661.974	-112.274	-0.467	0.094
-660.959	309.643	-0.089	-0.167
-659.945	-36.054	-0.160	-0.087
-658.930	1.839	0.074	0.054
-657.916	42.028	-0.132	0.120
-656.901	-200.000	0.025	-0.206
-655.886	-140.547	-0.227	-0.024
-654.872	-72.632	0.195	-0.073
-653.857	309.865	0.147	-0.277
-652.843	-127.721	-0.105	-0.015
-651.828	282.736	-0.034	-0.061
-650.814	800.000	-0.055	-0.171
-649.799	-64.316	0.204	0.084
-648.784	-200.000	0.038	-0.175
-647.770	-14.511	0.131	0.085
-646.755	152.693	-0.145	-0.199
-645.741	141.322	0.139	0.186
-644.726	-81.364	-0.162	-0.054
-643.711	391.148	-0.110	0.230
-642.697	800.000	0.026	-0.087
-641.682	-200.000	-0.009	0.084
-640.668	14.869	-0.120	-0.094
-639.653	91.375	0.127	0.143
-638.638	800.000	0.048	-0.159
-637.624	-12.733	-0.104	-0.068
-636.609	386.721	0.093	-0.193
-635.595	86.702	-0.193	-0.214
-634.580	-7.636	-0.221	-0.150
-633.565	147.255	0.268	-0.362
-632.551	-193.287	0.061	0.001
-631.536	-200.000	0.026	-0.163
-630.522	-100.464	-0.034	-0.008
-629.507	280.834	0.078	0.141
-628.492	-110.966	-0.322	0.066
-627.478	-161.902	-0.366	-0.019
-626.463	-78.331	-0.331	0.114
-625.449	30.271	-0.328	-0.282
-624.434	-58.115	0.218	-0.096
-623.419	68.572	0.076	-0.078
-622.405	-109.966	0.283	-0.059
-621.390	-200.000	0.046	0.230
-620.376	-200.000	0.007	0.241
-619.361	-94.953	0.230	-0.063
-618.346	-22.864	0.252	-0.153
-617.332	-91.605	-0.110	-0.032
-616.317	206.712	-0.117	0.182
-615.303	800.000	-0.120	0.335
-614.288	84.293	0.134	0.147
-613.273	-141.461	-0.213	-0.022
-612.259	-92.291	-0.045	-0.013
-611.244	667.727	-0.263	-0.684
-610.230	273.564	0.112	-0.198
-609.215	-127.805	-0.118	-0.017
-608.201	800.000	0.076	0.219
-607.186	14.598	-0.073	-0.057
-606.171	-200.000	0.017	0.114
-605.157	-118.961	-0.085	-0.015
-604.142	146.882	0.027	-0.036
-603.128	-159.873	-0.098	0.005
-602.113	-88.885	-0.114	-0.034
-601.098	446.295	0.068	-0.150
-600.084	-175.283	-0.126	-0.003
-599.069	800.000	0.066	0.184
-598.055	-179.335	0.531	-0.012
-597.040	431.053	0.066	0.144
-596.025	-38.758	-0.216	-0.114
-595.011	-94.588	-0.509	-0.139
-593.996	34.766	0.111	0.097
-592.982	206.031	0.121	-0.188
-591.967	18.150	-0.215	-0.172
-590.952	-59.862	-0.231	0.099
-589.938	48.467	0.125	0.117
-588.923	707.162	0.015	0.040
-587.909	800.000	-0.054	-0.184
-586.894	-88.517	0.035	-0.011
-585.879	-200.000	0.061	-0.456
-584.865	-62.627	0.063	0.026
-583.850	461.805	-0.057	0.126
-582.836	-51.935	-0.192	0.089
-581.821	-42.826	0.119	-0.061
-580.806	-25.610	-0.156	0.092
-579.792	186.352	0.031	-0.047
-578.777	24.339	-0.160	0.133
-577.763	327.503	-0.152	0.293
-576.748	-200.000	-0.028	0.214
-575.733	800.000	-0.093	-0.296
-574.719	-200.000	-0.011	0.176
-573.704	-200.000	-0.012	-0.308
-572.690	-113.923	0.154	0.030
-571.675	173.704	0.054	0.078
-570.661	-200.000	-0.068	0.372
-569.646	-0.212	-0.305	0.217
-568.631	-148.485	0.030	0.002
-567.617	148.658	-0.116	-0.158
-566.602	-42.416	0.250	-0.128
-565.588	80.251	-0.064	0.069
-564.573	-92.557	-0.373	0.105
-563.558	-66.320	0.354	0.141
-562.544	11.841	-0.167	-0.129
-561.529	-7.619	0.383	0.259
-560.515	-200.000	-0.008	-0.094
-559.500	-12.012	-0.046	0.030
-558.485	-41.170	-0.031	0.016
-557.471	650.426	0.086	0.220
-556.456	245.827	0.108	0.182
-555.442	146.859	-0.078	-0.105
-554.427	-200.000	0.042	-0.220
-553.412	632.167	0.078	-0.198
-552.398	-200.000	0.009	0.176
-551.383	800.000	0.010	0.039
-550.369	104.010	-0.077	0.090
-549.354	-94.953	0.041	0.011
-548.339	-200.000	-0.017	0.092
-547.325	460.962	0.154	0.344
-546.310	-93.686	0.269	0.074
-545.296	800.000	0.035	0.126
-544.281	20.805	0.037	0.030
-543.266	-159.175	-0.193	-0.011
-542.252	5.641	-0.129	0.095
-541.237	-200.000	-0.047	-0.248
-540.223	16.405	-0.248	0.196
-539.208	17.565	0.031	0.025
-538.193	800.000	-0.053	-0.201
-537.179	-163.087	-0.115	-0.006
-536.164	13.634	0.102	0.080
-535.150	61.135	-0.202	0.201
-534.135	-158.445	0.245	-0.014
-533.121	9.085	-0.109	0.082
-532.106	-53.550	-0.276	-0.126
-531.091	-89.535	0.311	0.092
-530.077	59.115	0.213	-0.210
-529.062	196.260	-0.131	-0.199
-528.048	107.008	-0.145	-0.173
-527.033	59.652	-0.282	-0.278
-526.018	-90.612	-0.176	0.051
-525.004	233.423	0.126	0.207
-523.989	19.601	-0.257	0.207
-522.975	608.178	-0.035	-0.087
-521.960	-79.209	-0.054	-0.018
-520.945	-162.442	-0.070	-0.003
-519.931	-147.732	-0.380	-0.032
-518.916	800.000	-0.120	0.447
-517.902	345.853	0.135	-0.266
-516.887	68.566	-0.170	-0.174
-515.872	-122.139	0.246	-0.040
-514.858	177.782	-0.136	-0.198
-513.843	99.765	0.347	-0.402
-512.829	-150.654	-0.083	0.006
-511.814	-172.323	0.323	-0.010
-510.799	0.073	-0.274	0.196
-509.785	41.221	-0.089	0.080
-508.770	-161.416	-0.246	-0.013
-507.756	-200.000	-0.021	0.128
-506.741	-25.589	-0.190	0.112
-505.726	-179.706	0.168	-0.004
-504.712	157.573	-0.128	0.178
-503.697	-111.191	0.247	-0.051
-502.683	-159.234	0.099	0.006
-501.668	800.000	-0.069	-0.249
-500.653	71.996	0.211	0.220
-499.639	800.000	-0.070	0.214
-498.624	-123.975	-0.234	-0.037
-497.610	39.512	-0.135	0.120
-496.595	800.000	-0.071	-0.206
-495.581	-98.006	-0.400	0.103
-494.566	-110.338	0.059	-0.012
-493.551	-4.103	-0.026	-0.018
-492.537	-7.758	0.327	-0.221
-491.522	-108.448	-0.116	-0.025
-490.508	153.030	0.098	-0.133
-489.493	-56.407	0.306	-0.136
-488.478	-4.034	0.096	-0.067
-487.464	-111.571	0.181	-0.037
-486.449	-4.136	-0.179	-0.124
-485.435	46.816	0.128	0.119
-484.420	-111.874	0.334	-0.067
-483.405	-153.411	0.174	0.012
-482.391	102.321	-0.158	0.184
-481.376	152.206	-0.113	0.154
-480.362	267.787	0.206	0.361
-479.347	462.898	0.028	0.062
-478.332	582.882	0.085	-0.209
-477.318	800.000	0.140	0.456
-476.303	-101.387	0.107	0.026
-475.289	162.023	0.178	-0.250
-474.274	-10.755	-0.197	-0.130
-473.259	-200.000	-0.043	-0.274
-472.245	-200.000	0.002	0.219
-471.230	-65.873	0.289	-0.115
-470.216	-5.540	0.257	0.176
-469.201	800.000	0.057	0.177
-468.186	103.682	0.140	0.164
-467.172	-200.000	0.007	-0.245
-466.157	586.724	-0.136	0.335
-465.143	223.647	-0.185	0.299
-464.128	325.869	-0.029	0.056
-463.113	6.018	-0.094	0.070
-462.099	-147.264	0.213	0.018
-461.084	-200.000	0.015	0.262
-460.070	-22.654	0.282	0.170
-459.055	-128.928	-0.128	-0.018
-458.040	800.000	0.073	-0.215
-457.026	-200.000	-0.027	-0.135
-456.011	-200.000	0.011	0.279
-454.997	-200.000	0.228	-0.001
-453.982	-55.772	-0.051	-0.023
-452.968	-200.000	-0.009	-0.055
-451.953	800.000	0.064	-0.240
-450.938	706.244	-0.035	-0.091
-449.924	-116.781	0.104	0.019
-448.909	109.959	-0.141	0.169
-447.895	-30.727	-0.065	0.037
-446.880	-83.585	-0.226	0.072
-445.865	-166.345	-0.299	0.013
-444.851	569.988	-0.059	0.143
-443.836	-106.074	-0.133	-0.030
-442.822	-117.940	0.247	-0.044
-441.807	-93.386	0.074	0.021
-440.792	52.752	0.231	0.220
-439.778	406.814	-0.053	-0.112
-438.763	-200.000	0.027	-0.189
-437.749	-1.343	-0.418	-0.295
-436.734	-75.235	-0.095	-0.034
-435.719	-108.955	-0.194	-0.041
-434.705	800.000	-0.074	-0.211
-433.690	800.000	-0.032	-0.112
-432.676	-180.255	-0.259	0.005
-431.661	235.118	-0.175	0.289
-430.646	800.000	0.041	-0.121
-429.632	228.404	0.074	-0.120
-428.617	119.488	-0.023	-0.028
-427.603	-200.000	0.033	-0.213
-426.588	143.607	-0.255	0.338
-425.573	105.229	0.174	-0.205
-424.559	-159.726	-0.431	0.024
-423.544	-163.653	-0.201	0.009
-422.530	70.761	-0.176	-0.182
-421.515	26.284	-0.287	-0.239
-420.500	-93.496	0.185	0.051
-419.486	161.809	-0.111	0.155
-418.471	-122.146	0.103	-0.017
-417.457	-116.832	0.584	0.107
-416.442	-109.529	0.193	0.041
-415.428	-44.675	-0.088	-0.044
-414.413	-200.000	0.020	-0.400
-413.398	185.682	0.203	0.300
-412.384	-71.144	-0.272	-0.102
-411.369	27.421	-0.088	-0.074
-410.355	-41.398	0.234	0.120
-409.340	-121.339	-0.132	0.022
-408.325	91.100	0.166	-0.185
-407.311	146.126	-0.101	0.134
-406.296	112.675	0.178	0.214
-405.282	271.673	-0.133	-0.234
-404.267	112.935	0.332	0.401
-403.252	460.268	-0.095	0.212
-402.238	800.000	0.025	-0.102
-401.223	-121.399	0.049	0.008
-400.209	147.577	0.159	-0.213
-399.194	44.714	-0.057	0.052
-398.179	-95.539	-0.211	0.056
-397.165	252.331	-0.092	-0.155
-396.150	-76.944	-0.084	0.029
-395.136	142.276	-0.124	-0.164
-394.121	-200.000	0.047	-0.332
-393.106	342.812	0.179	-0.348
-392.092	-200.000	0.006	-0.096
-391.077	190.868	0.178	-0.267
-390.063	145.520	-0.048	-0.064
-389.048	-157.647	0.273	-0.016
-388.033	-103.864	-0.232	-0.054
-387.019	-200.000	-0.051	0.404
-386.004	-193.526	-0.321	-0.003
-384.990	234.643	0.009	-0.014
-383.975	50.732	-0.127	-0.120
-382.960	129.458	-0.140	-0.178
-381.946	-200.000	0.011	0.064
-380.931	317.309	0.043	0.080
-379.917	536.902	0.060	0.142
-378.902	-200.000	0.052	-0.471
-377.888	800.000	-0.059	0.184
-376.873	585.651	-0.070	0.172
-375.858	800.000	-0.051	-0.146
-374.844	-47.840	0.190	-0.092
-373.829	-45.924	-0.088	0.043
-372.815	-188.585	-0.068	0.001
-371.800	-149.913	0.049	-0.004
-370.785	23.513	-0.074	-0.060
-369.771	-200.000	0.057	-0.267
-368.756	93.044	0.093	-0.105
-367.742	-139.954	0.091	0.010
-366.727	122.036	0.281	0.349
-365.712	800.000	0.109	0.398
-364.698	-101.956	0.179	-0.043
-363.683	-147.121	0.190	-0.016
-362.669	-138.699	-0.547	-0.059
-361.654	20.703	0.265	-0.213
-360.639	17.319	0.078	0.062
-359.625	-200.000	-0.005	-0.026
-358.610	6.243	-0.212	-0.157
-357.596	93.086	0.082	-0.092
-356.581	122.591	0.254	0.315
-355.566	-22.346	0.095	-0.057
-354.552	207.752	0.147	-0.228
-353.537	-25.839	-0.252	-0.148
-352.523	127.945	0.128	0.162
-351.508	-200.000	-0.045	0.000
-350.493	-8.612	-0.361	0.241
-349.479	-82.945	-0.292	0.094
-348.464	310.084	-0.100	0.186
-347.450	-200.000	-0.011	-0.221
-346.435	132.742	-0.118	0.151
-345.420	-200.000	-0.045	0.242
-344.406	800.000	0.063	-0.262
-343.391	20.718	0.155	-0.124
-342.377	-200.000	0.005	0.067
-341.362	571.178	0.015	0.036
-340.348	84.354	-0.065	-0.070
-339.333	-87.730	-0.096	-0.029
-338.318	-200.000	0.001	0.094
-337.304	-200.000	-0.040	0.176
-336.289	-200.000	0.062	-0.271
-335.275	-96.367	-0.142	0.037
-334.260	101.413	-0.348	0.403
-333.245	-200.000	-0.042	0.428
-332.231	213.120	0.088	0.138
-331.216	-145.066	0.195	-0.018
-330.202	-122.121	0.287	0.047
-329.187	-60.399	0.268	0.113
-328.172	422.706	0.097	0.208
-327.158	-125.182	0.155	-0.024
-326.143	800.000	-0.082	-0.235
-325.129	-22.504	0.121	-0.073
-324.114	800.000	0.050	-0.146
-323.099	-41.724	-0.193	-0.098
-322.085	526.225	-0.043	0.100
-321.070	36.348	-0.355	0.311
-320.056	800.000	0.059	-0.257
-319.041	259.807	-0.137	-0.235
-318.026	583.262	0.098	0.238
-317.012	-122.862	0.314	-0.050
-315.997	41.183	-0.010	-0.009
-314.983	800.000	-0.142	-0.428
-313.968	-95.106	0.166	-0.045
-312.953	-2.161	-0.011	0.008
-311.939	426.996	0.112	0.240
-310.924	800.000	-0.021	-0.061
-309.910	-104.672	0.118	-0.027
-308.895	-11.292	-0.212	0.139
-307.880	-91.272	-0.313	0.089
-306.866	-138.730	-0.451	0.049
-305.851	-200.000	-0.003	-0.066
-304.837	7.512	0.065	0.048
-303.822	20.817	0.071	0.057
-302.807	-18.927	0.197	-0.122
-301.793	-44.527	0.104	-0.052
-300.778	-200.000	-0.043	0.236
-299.764	163.286	-0.059	0.082
-298.749	800.000	0.037	0.103
-297.735	409.939	-0.102	-0.215
-296.720	-100.760	-0.130	-0.032
-295.705	-200.000	0.001	0.031
-294.691	-140.419	0.106	-0.011
-293.676	-49.024	-0.106	-0.050
-292.662	-170.641	0.024	0.001
-291.647	169.932	0.177	0.252
-290.632	-200.000	0.031	0.202
-289.618	-134.399	0.335	0.041
-288.603	-121.149	0.153	0.025
-287.589	217.966	0.146	0.231
-286.574	-26.491	-0.097	-0.056
-285.559	-55.589	-0.164	-0.073
-284.545	800.000	-0.070	-0.202
-283.530	-200.000	0.022	0.236
-282.516	97.664	-0.201	-0.229
-281.501	-31.795	0.060	-0.034
-280.486	-165.683	0.151	-0.006
-279.472	-154.241	-0.176	-0.012
-278.457	733.638	0.064	0.171
-277.443	23.702	-0.268	0.219
-276.428	-140.660	0.040	-0.004
-275.413	-200.000	-0.024	0.243
-274.399	-70.952	0.437	-0.163
-273.384	-39.921	-0.085	0.044
-272.370	676.472	0.040	0.104
-271.355	-200.000	-0.023	0.153
-270.340	-84.037	0.341	-0.107
-269.326	-4.670	-0.023	-0.015
-268.311	800.000	0.034	0.109
-267.297	-40.063	0.145	0.075
-266.282	-200.000	0.021	0.105
-265.267	800.000	0.109	-0.407
-264.253	-80.490	-0.269	0.089
-263.238	-157.825	0.583	-0.034
-262.224	10.013	0.076	0.057
-261.209	-21.625	-0.214	-0.129
-260.195	800.000	0.078	0.314
-259.180	160.412	-0.062	0.085
-258.165	107.798	0.192	-0.227
-257.151	-163.162	0.179	-0.009
-256.136	800.000	-0.061	-0.232
-255.122	32.494	-0.143	0.122
-254.107	-200.000	-0.052	-0.288
-253.092	-34.893	0.093	0.050
-252.078	39.425	0.161	-0.143
-251.063	-173.591	-0.067	-0.002
-250.049	800.000	0.164	0.578
-249.034	112.280	0.149	0.179
-248.019	-36.713	0.215	0.114
-247.005	800.000	-0.084	-0.337
-245.990	-62.248	0.259	-0.107
-244.976	-55.754	-0.141	0.062
-243.961	800.000	-0.046	-0.136
-242.946	84.985	0.065	-0.070
-241.932	800.000	-0.092	0.318
-240.917	98.784	-0.068	-0.077
-239.903	-25.482	0.130	-0.076
-238.888	-200.000	0.025	-0.283
-237.873	-99.614	-0.328	-0.081
-236.859	-200.000	0.037	-0.251
-235.844	85.888	0.105	0.114
-234.830	-114.524	-0.189	0.036
-233.815	-8.395	0.166	0.111
-232.800	192.250	-0.155	0.232
-231.786	-200.000	0.048	-0.227
-230.771	-72.282	0.277	0.101
-229.757	-139.608	-0.320	0.034
-228.742	573.248	0.062	-0.149
-227.727	7.001	0.077	0.056
-226.713	200.806	0.078	0.119
-225.698	174.242	0.070	-0.100
-224.684	336.691	-0.044	0.085
-223.669	292.120	-0.058	-0.104
-222.655	-83.186	0.101	0.032
-221.640	800.000	-0.046	-0.197
-220.625	-200.000	0.075	-0.338
-219.611	-73.951	-0.085	0.030
-218.596	155.926	0.096	0.131
-217.582	430.086	0.069	-0.147
-216.567	124.533	-0.127	0.157
-215.552	-200.000	-0.026	0.198
-214.538	-103.736	-0.380	-0.088
-213.523	77.765	-0.130	-0.137
-212.509	31.760	0.116	0.099
-211.494	714.800	-0.075	0.195
-210.479	11.238	0.146	-0.111
-209.465	-200.000	0.031	-0.167
-208.450	10.146	0.068	0.051
-207.436	-11.491	-0.102	0.066
-206.421	-200.000	0.032	0.232
-205.406	-200.000	-0.046	-0.232
-204.392	-15.865	0.195	-0.123
-203.377	-75.104	0.287	-0.101
-202.363	2.506	0.132	-0.094
-201.348	-11.686	0.035	-0.023
-200.333	-200.000	0.023	-0.113
-199.319	106.614	0.160	0.188
-198.304	55.460	0.193	-0.185
-197.290	800.000	0.045	0.171
-196.275	800.000	0.034	0.122
-195.260	800.000	0.056	0.190
-194.246	184.115	0.144	-0.210
-193.231	-57.917	-0.134	-0.058
-192.217	-200.000	0.009	-0.129
-191.202	-200.000	-0.030	-0.235
-190.187	43.017	0.118	0.106
-189.173	-200.000	-0.063	-0.304
-188.158	128.580	-0.163	0.205
-187.144	-158.467	0.186	-0.011
-186.129	86.842	-0.187	0.204
-185.114	31.640	0.074	-0.062
-184.100	-179.964	0.166	0.004
-183.085	-200.000	0.040	0.182
-182.071	489.371	0.080	-0.181
-181.056	6.138	-0.205	-0.150
-180.042	54.706	0.186	-0.177
-179.027	37.178	-0.168	0.147
-178.012	29.578	-0.104	-0.087
-176.998	-70.780	0.105	0.039
-175.983	-137.300	-0.246	0.028
-174.969	-83.952	0.232	0.073
-173.954	-105.805	0.157	-0.035
-172.939	-110.745	-0.069	0.014
-171.925	514.740	0.072	0.167
-170.910	-87.963	-0.249	-0.074
-169.896	21.949	0.138	-0.111
-168.881	800.000	0.046	-0.195
-167.866	-38.093	0.031	0.016
-166.852	-164.025	0.245	-0.011
-165.837	256.974	-0.030	0.051
-164.823	-179.540	-0.038	0.001
-163.808	-16.076	-0.206	0.129
-162.793	-117.364	0.224	-0.040
-161.779	239.172	-0.180	0.296
-160.764	93.893	0.160	0.179
-159.750	20.688	-0.036	-0.028
-158.735	43.567	0.057	0.051
-157.720	-200.000	-0.010	-0.083
-156.706	324.456	0.010	-0.018
-155.691	800.000	0.069	-0.203
-154.677	7.011	0.229	0.168
-153.662	-109.520	-0.390	-0.081
-152.647	-80.335	-0.162	0.054
-151.633	263.134	0.082	-0.140
-150.618	-200.000	0.040	0.362
-149.604	-200.000	-0.041	-0.222
-148.589	43.002	0.114	0.103
-147.574	-200.000	-0.006	0.216
-146.560	166.016	-0.102	-0.142
-145.545	-146.998	0.071	0.006
-144.531	-112.698	0.117	0.023
-143.516	-97.380	0.246	0.063
-142.502	-130.607	-0.338	0.045
-141.487	203.798	-0.082	-0.125
-140.472	186.709	0.231	0.339
-139.458	-135.301	0.262	-0.031
-138.443	-200.000	-0.015	-0.161
-137.429	261.736	-0.106	-0.180
-136.414	-200.000	0.016	0.242
-135.399	-161.571	-0.386	0.020
-134.385	-41.025	-0.057	-0.029
-133.370	800.000	0.070	0.252
-132.356	-71.629	0.136	0.050
-131.341	125.037	0.157	-0.195
-130.326	35.791	-0.158	-0.137
-129.312	141.838	0.272	-0.356
-128.297	-165.751	-0.204	-0.009
-127.283	243.690	0.195	0.322
-126.268	-116.776	0.157	0.028
-125.253	-91.920	0.503	-0.140
-124.239	633.579	0.140	-0.351
-123.224	-84.628	-0.126	-0.039
-122.210	-80.177	0.165	-0.054
-121.195	-172.427	-0.163	-0.005
-120.180	-200.000	0.044	-0.201
-119.166	-156.270	0.253	-0.016
-118.151	596.989	0.180	0.440
-117.137	-92.539	-0.151	0.042
-116.122	188.259	0.099	-0.146
-115.107	800.000	0.024	-0.086
-114.093	-200.000	0.064	0.420
-113.078	-8.910	0.013	0.009
-112.064	-16.966	-0.140	0.087
-111.049	-135.165	-0.374	-0.044
-110.034	-200.000	-0.014	0.352
-109.020	-136.758	0.346	-0.039
-108.005	-41.575	-0.281	0.142
-106.991	194.104	0.115	-0.171
-105.976	800.000	-0.083	-0.274
-104.962	196.925	0.153	-0.230
-103.947	-127.369	0.178	0.025
-102.932	160.671	-0.044	0.061
-101.918	-35.218	-0.320	0.171
-100.903	-200.000	-0.035	0.169
-99.889	322.054	0.038	-0.072
-98.874	437.164	-0.078	0.168
-97.859	645.789	0.120	-0.301
-96.845	-118.103	-0.126	0.022
-95.830	-200.000	-0.058	0.545
-94.816	283.347	-0.061	-0.108
-93.801	800.000	0.040	-0.131
-92.786	-88.014	0.228	-0.067
-91.772	85.385	-0.246	0.265
-90.757	-200.000	-0.284	-0.001
-89.743	163.547	0.100	0.139
-88.728	800.000	0.111	-0.419
-87.713	-90.888	-0.223	0.063
-86.699	-198.377	-0.194	-0.001
-85.684	-34.528	0.203	-0.109
-84.670	-38.934	0.142	-0.074
-83.655	-154.460	0.157	-0.010
-82.640	135.213	-0.112	0.144
-81.626	328.134	-0.101	0.191
-80.611	112.623	-0.063	-0.075
-79.597	425.168	-0.072	-0.152
-78.582	-194.679	0.142	-0.001
-77.567	-158.769	-0.271	-0.015
-76.553	-116.513	-0.365	-0.066
-75.538	485.839	-0.110	-0.247
-74.524	-50.657	0.043	-0.020
-73.509	128.234	-0.191	-0.239
-72.494	-200.000	0.017	0.180
-71.480	170.038	-0.121	0.171
-70.465	800.000	0.025	0.069
-69.451	11.329	-0.045	-0.034
-68.436	20.559	-0.088	0.070
-67.422	800.000	-0.018	0.053
-66.407	-118.140	-0.296	-0.052
-65.392	-200.000	0.007	0.296
-64.378	-105.200	-0.155	-0.035
-63.363	561.781	0.092	0.220
-62.349	-90.438	-0.087	-0.025
-61.334	190.560	-0.561	-0.828
-60.319	-62.417	0.908	0.371
-59.305	751.160	-0.433	-1.147
-58.290	276.641	0.549	0.959
-57.276	420.400	0.609	1.281
-56.261	-200.000	97.663	595.744
-55.246	535.863	1387.503	3234.404
-54.232	161.330	2554.813	3509.745
-53.217	113.401	2133.589	2543.954
-52.203	43.624	1593.646	1432.086
-51.188	35.228	1331.251	1146.295
-50.173	31.953	1289.611	1091.382
-49.159	55.115	1337.890	1269.869
-48.144	56.751	1355.155	1295.889
-47.130	35.368	1313.415	1131.585
-46.115	31.812	1295.703	1095.540
-45.100	31.572	1290.596	1089.780
-44.086	31.597	1288.307	1087.951
-43.071	31.435	1286.012	1085.029
-42.057	31.459	1283.771	1083.235
-41.042	31.578	1282.322	1082.655
-40.027	31.641	1280.656	1081.575
-39.013	31.608	1278.687	1079.678
-37.998	31.601	1276.984	1078.152
-36.984	31.689	1275.468	1077.338
-35.969	31.686	1273.589	1075.691
-34.954	31.673	1271.884	1074.137
-33.940	31.722	1270.772	1073.431
-32.925	31.852	1268.849	1072.507
-31.911	31.767	1267.995	1071.258
-30.896	31.900	1266.065	1070.345
-29.881	31.735	1265.317	1068.729
-28.867	31.780	1263.761	1067.628
-27.852	31.776	1262.240	1066.282
-26.838	31.753	1260.848	1064.928
-25.823	31.825	1259.494	1064.150
-24.809	31.757	1258.380	1062.782
-23.794	31.717	1257.078	1061.414
-22.779	31.832	1254.951	1060.231
-21.765	31.732	1254.464	1059.209
-20.750	31.688	1253.231	1057.878
-19.736	31.635	1251.436	1056.022
-18.721	31.622	1250.229	1054.886
-17.706	31.593	1249.742	1054.269
-16.692	31.674	1248.173	1053.361
-15.677	31.558	1247.548	1052.141
-14.663	31.576	1245.827	1050.749
-13.648	31.571	1244.881	1049.883
-12.633	31.709	1243.720	1049.635
-11.619	31.567	1243.287	1048.430
-10.604	31.564	1242.816	1047.976
-9.590	31.589	1241.745	1047.171
-8.575	31.538	1240.654	1045.924
-7.560	31.582	1239.457	1045.116
-6.546	31.616	1238.768	1044.685
-5.531	31.581	1238.217	1043.983
-4.517	31.572	1237.418	1043.218
-3.502	31.724	1236.230	1043.025
-2.487	31.698	1235.158	1041.931
-1.473	31.518	1231.425	1037.744
-0.458	30.052	1215.785	1016.487
0.556	24.291	1198.833	977.473
1.571	20.472	1203.597	960.207
2.586	19.514	1217.650	965.974
3.600	19.111	1206.986	955.198
4.615	14.107	1134.783	871.803
5.629	4.852	1058.296	767.540
6.644	0.424	1037.666	731.081
7.659	-0.048	1035.767	727.392
8.673	-0.168	1034.924	726.157
9.688	-0.047	1033.034	725.350
10.702	0.161	1031.578	725.266
11.717	5.498	1038.997	756.263
12.731	14.172	1050.231	806.590
13.746	17.744	1053.476	826.350
14.761	16.976	1052.084	821.467
15.775	15.866	1050.206	814.559
16.790	14.840	1047.855	807.710
17.804	14.147	1046.578	803.307
18.819	13.773	1045.777	800.819
19.834	13.619	1044.048	798.681
20.848	13.369	1043.846	797.252
21.863	13.134	1042.505	795.027
22.877	13.022	1041.757	793.845
23.892	12.889	1041.122	792.654
24.907	12.884	1040.693	792.231
25.921	12.769	1040.424	791.404
26.936	13.021	1039.250	791.651
27.950	13.027	1038.195	790.804
28.965	13.230	1036.952	790.760
29.980	13.232	1035.150	789.325
30.994	13.274	1034.394	788.878
32.009	13.298	1033.612	788.327
33.023	13.127	1032.785	786.813
34.038	13.212	1031.363	786.066
35.053	13.090	1031.026	785.156
36.067	13.146	1030.032	784.599
37.082	13.127	1029.502	784.035
38.096	13.258	1028.334	783.698
39.111	13.184	1027.937	782.975
40.126	13.066	1026.922	781.573
41.140	13.040	1025.592	780.368
42.155	12.838	1024.697	778.663
43.169	12.928	1023.539	778.141
44.184	12.874	1022.809	777.261
45.199	12.862	1021.843	776.404
46.213	12.886	1020.999	775.807
47.228	13.006	1019.808	775.396
48.242	13.014	1018.331	774.243
49.257	13.013	1017.753	773.730
50.271	13.033	1017.248	773.370
51.286	13.134	1016.140	772.931
52.301	13.047	1015.174	771.724
53.315	13.080	1014.067	770.968
54.330	13.075	1012.840	769.941
55.344	13.041	1011.902	769.002
56.359	12.959	1011.391	768.165
57.374	13.023	1010.658	767.837
58.388	12.902	1010.023	766.723
59.403	12.914	1009.022	765.951
60.417	12.975	1008.268	765.598
61.432	12.881	1007.213	764.290
62.447	12.900	1006.417	763.707
63.461	12.775	1005.933	762.694
64.476	12.782	1005.336	762.207
65.490	12.798	1004.378	761.486
66.505	12.886	1003.583	761.224
67.520	12.788	1003.123	760.354
68.534	12.947	1002.029	760.193
69.549	12.845	1001.930	759.578
70.563	12.872	1000.524	758.570
71.578	12.849	999.812	757.856
72.593	12.771	999.229	756.991
73.607	12.810	998.379	756.459
74.622	12.787	997.973	755.977
75.636	12.827	996.984	755.346
76.651	12.830	996.563	754.973
77.666	12.781	995.831	754.127
78.680	12.865	995.293	754.035
79.695	12.853	994.420	753.255
80.709	12.919	993.907	753.102
81.724	12.875	993.198	752.295
82.739	12.882	992.690	751.877
83.753	13.164	991.421	752.131
84.768	13.167	990.906	751.691
85.782	13.082	990.156	750.669
86.797	13.218	989.106	750.421
87.812	13.102	988.045	749.023
88.826	13.078	987.168	748.185
89.841	13.186	986.284	747.938
90.855	13.253	985.540	747.611
91.870	13.096	985.220	746.590
92.884	13.168	984.531	746.328
93.899	13.187	983.342	745.448
94.914	13.222	982.320	744.763
95.928	13.292	981.555	744.431
96.943	13.123	981.044	743.219
97.957	13.125	980.288	742.589
98.972	13.156	979.294	741.912
99.987	13.151	978.302	741.070
101.001	13.082	977.288	739.929
102.016	13.126	976.612	739.548
103.030	13.161	976.117	739.263
104.045	13.106	974.962	738.077
105.060	13.138	974.360	737.701
106.074	13.027	973.497	736.484
107.089	12.993	972.209	735.295
108.103	12.945	971.689	734.625
109.118	12.996	970.726	734.055
110.133	13.046	969.783	733.501
111.147	12.863	969.302	732.259
112.162	13.088	967.955	732.173
113.176	12.980	967.378	731.195
114.191	12.980	966.760	730.664
115.206	13.048	965.776	730.157
116.220	12.974	965.299	729.404
117.235	13.057	964.331	728.976
118.249	13.138	963.465	728.612
119.264	13.135	962.330	727.676
120.279	12.982	961.880	726.598
121.293	13.077	960.984	726.274
122.308	13.066	959.952	725.382
123.322	13.058	959.033	724.588
124.337	13.138	958.110	724.178
125.352	12.990	957.361	722.898
126.366	13.080	956.083	722.262
127.381	12.792	955.791	720.719
128.395	12.993	954.649	720.673
129.410	13.010	953.859	720.088
130.424	13.115	952.674	719.586
131.439	13.096	951.827	718.800
132.454	13.087	951.565	718.499
133.468	13.124	950.589	717.858
134.483	13.167	949.246	716.970
135.497	13.307	948.176	716.705
136.512	13.232	947.902	716.106
137.527	13.061	947.587	715.067
138.541	13.215	946.348	714.736
139.556	13.233	945.748	714.295
140.570	13.192	945.191	713.634
141.585	13.141	944.032	712.478
142.600	13.373	943.146	712.746
143.614	13.373	942.323	712.058
144.629	13.318	941.936	711.465
145.643	13.363	940.499	710.511
146.658	13.183	940.110	709.384
147.673	13.172	939.143	708.544
148.687	13.130	938.654	707.933
149.702	13.298	937.656	707.836
150.716	13.114	937.122	706.581
151.731	13.183	936.243	706.151
152.746	13.197	935.455	705.556
153.760	13.354	934.225	705.237
154.775	13.110	934.491	704.331
155.789	13.289	933.645	704.395
156.804	13.304	933.362	704.182
157.819	13.403	932.144	703.623
158.833	13.495	931.615	703.551
159.848	13.496	930.412	702.587
160.862	13.329	930.007	701.508
161.877	13.427	928.654	700.841
162.892	13.337	927.986	699.897
163.906	13.185	927.061	698.494
164.921	13.301	926.499	698.499
165.935	13.313	925.776	697.942
166.950	13.283	924.759	696.986
167.964	13.232	924.021	696.154
168.979	13.418	922.602	695.807
169.994	13.283	922.245	694.909
171.008	13.476	921.179	694.852
172.023	13.530	920.733	694.680
173.037	13.481	920.131	693.960
174.052	13.397	919.485	693.059
175.067	13.354	918.950	692.414
176.081	13.376	918.394	692.027
177.096	13.428	917.798	691.733
178.110	13.516	917.092	691.508
179.125	13.598	916.289	691.182
180.140	13.480	915.941	690.368
181.154	13.532	915.451	690.155
182.169	13.486	915.146	689.671
183.183	13.637	914.299	689.599
184.198	13.611	913.530	688.849
185.213	13.615	912.777	688.241
186.227	13.679	912.151	687.970
187.242	13.535	912.052	687.237
188.256	13.702	910.720	686.867
189.271	13.659	910.510	686.470
190.286	13.621	909.735	685.668
191.300	13.540	908.941	684.673
192.315	13.476	908.486	684.003
193.329	13.525	907.806	683.635
194.344	13.512	907.094	682.986
195.359	13.589	906.713	682.955
196.373	13.661	906.044	682.685
197.388	13.739	905.573	682.591
198.402	13.816	905.420	682.735
199.417	13.787	904.737	682.040
200.432	13.886	904.037	681.858
201.446	13.974	903.693	681.899
202.461	14.009	902.926	681.403
203.475	13.970	902.319	680.727
204.490	13.945	901.417	679.882
205.504	13.816	900.904	678.906
206.519	13.784	900.364	678.309
207.534	13.861	899.593	677.984
208.548	13.861	899.103	677.552
209.563	13.986	898.026	677.191
210.577	13.902	897.609	676.476
211.592	14.060	896.568	676.275
212.607	14.073	896.096	675.910
213.621	14.028	895.751	675.407
214.636	14.112	894.903	675.047
215.650	14.149	894.332	674.711
216.665	13.997	893.220	673.196
217.680	13.954	892.924	672.739
218.694	14.188	892.088	672.995
219.709	14.155	891.577	672.415
220.723	14.055	891.540	671.926
221.738	14.095	890.636	671.347
222.753	14.081	889.454	670.341
223.767	14.157	889.018	670.257
224.782	14.200	888.622	670.073
225.796	14.118	887.899	669.141
226.811	14.282	887.461	669.408
227.826	14.204	886.509	668.318
228.840	14.231	885.798	667.832
229.855	14.296	885.051	667.468
230.869	14.053	884.778	666.229
231.884	14.241	883.874	666.245
232.899	14.222	883.163	665.573
233.913	14.138	882.240	664.482
234.928	14.053	882.262	664.103
235.942	14.139	881.603	663.891
236.957	14.349	880.671	663.964
237.972	14.093	880.349	662.646
238.986	14.203	879.476	662.368
240.001	14.176	878.883	661.755
241.015	14.284	878.217	661.624
242.030	14.322	877.978	661.534
243.045	14.293	877.104	660.704
244.059	14.290	876.582	660.241
245.074	14.310	876.212	659.980
246.088	14.360	875.514	659.598
247.103	14.472	874.523	659.235
248.117	14.470	874.374	659.056
249.132	14.591	873.760	659.012
250.147	14.714	872.649	658.601
251.161	14.666	872.657	658.360
252.176	14.624	871.761	657.458
253.190	14.631	871.383	657.144
254.205	14.786	870.763	657.227
255.220	14.743	869.897	656.345
256.234	14.807	869.221	656.032
257.249	14.725	868.487	655.098
258.263	14.656	867.732	654.200
259.278	14.711	867.317	654.042
260.293	14.856	866.683	654.077
261.307	14.891	866.214	653.801
262.322	14.892	865.380	653.117
263.336	14.845	864.614	652.300
264.351	14.933	863.922	652.059
265.366	14.925	863.517	651.665
266.380	15.067	862.554	651.436
267.395	14.912	862.004	650.356
268.409	14.872	861.324	649.631
269.424	14.963	860.908	649.616
270.439	14.909	859.856	648.553
271.453	14.945	858.870	647.891
272.468	14.903	858.871	647.673
273.482	14.956	858.292	647.382
274.497	15.069	857.490	647.159
275.512	14.952	856.986	646.271
276.526	15.078	856.575	646.387
277.541	15.016	856.438	645.990
278.555	15.040	855.520	645.333
279.570	15.208	855.157	645.649
280.585	15.186	854.027	644.654
281.599	15.015	853.282	643.377
282.614	15.036	853.020	643.202
283.628	15.124	852.181	642.850
284.643	15.057	851.730	642.197
285.657	15.125	850.780	641.685
286.672	15.162	850.225	641.349
287.687	15.111	849.594	640.623
288.701	15.202	849.184	640.603
289.716	15.142	848.833	640.056
290.730	15.167	848.236	639.644
291.745	15.293	847.717	639.674
292.760	15.238	846.956	638.837
293.774	15.190	846.339	638.132
294.789	15.344	845.826	638.273
295.803	15.348	844.859	637.502
296.818	15.296	844.288	636.819
297.833	15.480	843.530	636.887
298.847	15.398	843.135	636.224
299.862	15.354	842.568	635.570
300.876	15.437	842.296	635.624
301.891	15.319	841.583	634.584
302.906	15.420	841.091	634.540
303.920	15.517	840.631	634.502
304.935	15.549	839.973	634.070
305.949	15.535	838.924	633.171
306.964	15.500	838.717	632.826
307.979	15.456	837.924	632.006
308.993	15.574	837.698	632.221
310.008	15.563	837.219	631.764
311.022	15.624	836.516	631.406
312.037	15.594	836.031	630.870
313.052	15.487	835.503	630.015
314.066	15.504	835.228	629.817
315.081	15.502	834.724	629.372
316.095	15.547	833.777	628.773
317.110	15.673	833.231	628.774
318.125	15.575	833.130	628.278
319.139	15.665	832.035	627.732
320.154	15.581	831.732	627.136
321.168	15.668	831.436	627.180
322.183	15.519	830.917	626.177
323.197	15.604	830.242	625.929
324.212	15.742	829.589	625.898
325.227	15.638	829.120	625.099
326.241	15.622	828.462	624.492
327.256	15.616	828.372	624.343
328.270	15.740	827.515	624.104
329.285	15.656	826.900	623.275
330.300	15.742	826.275	623.067
331.314	15.740	825.721	622.583
332.329	15.743	825.509	622.383
333.343	16.027	824.832	622.865
334.358	16.008	824.575	622.545
335.373	15.850	824.273	621.678
336.387	15.879	824.115	621.613
337.402	15.819	824.051	621.287
338.416	15.890	823.580	621.141
339.431	16.019	823.061	621.168
340.446	16.093	822.549	621.001
341.460	15.943	822.164	620.102
342.475	16.016	822.018	620.206
343.489	16.114	821.347	620.003
344.504	16.191	820.606	619.675
345.519	16.273	820.220	619.627
346.533	16.148	819.662	618.695
347.548	15.864	819.527	617.496
348.562	16.089	818.721	617.657
349.577	16.068	818.063	617.028
350.592	16.046	817.742	616.652
351.606	16.028	816.786	615.810
352.621	16.223	815.790	615.716
353.635	16.181	815.475	615.272
354.650	16.107	815.262	614.786
355.665	16.058	814.550	614.016
356.679	16.144	813.657	613.604
357.694	16.281	812.979	613.534
358.708	16.280	812.232	612.911
359.723	16.240	812.198	612.689
360.738	16.056	811.859	611.710
361.752	16.264	811.091	611.830
362.767	16.448	810.633	612.099
363.781	16.373	809.788	611.134
364.796	16.546	809.468	611.466
365.810	16.549	809.018	611.083
366.825	16.496	808.770	610.648
367.840	16.455	808.014	609.878
368.854	16.436	807.823	609.608
369.869	16.451	807.397	609.287
370.883	16.462	807.107	609.053
371.898	16.542	806.214	608.615
372.913	16.557	806.070	608.506
373.927	16.548	805.515	608.000
374.942	16.658	804.933	607.902
375.956	16.540	804.943	607.434
376.971	16.761	804.752	608.027
377.986	16.694	803.946	607.125
379.000	16.739	803.338	606.775
380.015	16.728	802.534	606.074
381.029	16.818	801.872	605.843
382.044	16.646	802.123	605.362
383.059	16.775	801.181	605.059
384.073	16.875	800.195	604.616
385.088	16.752	799.732	603.776
386.102	16.802	799.304	603.576
387.117	16.763	798.951	603.118
388.132	16.755	798.487	602.687
389.146	16.676	798.092	602.053
390.161	16.765	797.560	601.918
391.175	16.850	796.980	601.729
392.190	16.829	796.656	601.354
393.205	16.857	795.979	600.890
394.219	16.780	795.964	600.551
395.234	16.835	795.104	600.045
396.248	16.811	794.678	599.586
397.263	16.683	794.303	598.796
398.278	16.784	794.114	598.957
399.292	16.774	793.818	598.647
400.307	16.744	793.310	598.105
401.321	16.931	792.334	597.975
402.336	16.860	792.090	597.487
403.350	16.791	791.877	597.032
404.365	16.867	791.337	596.838
405.380	16.933	790.844	596.645
406.394	16.993	790.500	596.546
407.409	17.014	789.681	595.948
408.423	17.024	790.027	596.191
409.438	17.168	789.262	596.068
410.453	17.148	788.800	595.595
411.467	17.209	787.895	595.072
412.482	17.325	787.715	595.289
413.496	17.211	787.884	594.966
414.511	17.324	787.156	594.758
415.526	17.288	786.746	594.270
416.540	17.267	786.137	593.685
417.555	17.337	785.561	593.440
418.569	17.274	785.459	593.092
419.584	17.405	784.807	593.003
420.599	17.400	784.133	592.424
421.613	108.137	1288.720	1461.754
422.628	92.591	1362.229	1461.849
