DTS Sentinel unit serial number:	SN413079Multiplexer serial number:	ORYXHardware model number:	OX4-SRSoftware version number:	ORYX F/W v4.00 Oryx Data Collector v3.7.2.0data status	okinstallation	princeton_trtdifferential loss correction	single-endedforward channel	channel 1reverse channel	N/Adate	2019/09/11time	07:36:11forward acquisition time	60.00reverse acquisition time	0.00gamma	496.2192k internal	0.2325k external	0.2325temperature offset calibration	0.9916default loss term (dB/km)	0.3790temperature slope calibration	1.0000multiplexer offset coefficient	1.0000multiplexer slope coefficient	1.0000fibre end	0.00T internal ref (°C)	31.30T ext. ref 1 (°C)	-0.04T ext. ref 2 (°C)	27.83length (m)	temperature (°C)	Stokes	anti-Stokes-747.200	750.945	-0.114	-0.311
-746.185	-120.491	-0.266	-0.046
-745.171	554.329	0.039	-0.094
-744.156	-200.000	0.022	0.107
-743.142	185.781	-0.136	-0.203
-742.127	-200.000	-0.115	0.538
-741.112	-58.549	-0.049	-0.022
-740.098	-200.000	0.063	0.358
-739.083	456.888	-0.088	-0.197
-738.069	800.000	-0.036	0.122
-737.054	-37.954	0.096	-0.051
-736.039	61.360	-0.045	0.045
-735.025	-173.889	0.308	-0.009
-734.010	-170.695	-0.098	-0.003
-732.996	-126.525	-0.083	0.012
-731.981	800.000	0.063	-0.225
-730.966	-200.000	-0.014	-0.089
-729.952	800.000	-0.022	0.068
-728.937	-56.935	-0.274	0.122
-727.923	-200.000	-0.023	-0.157
-726.908	-200.000	0.003	0.037
-725.894	-200.000	0.043	0.385
-724.879	-65.156	-0.260	-0.106
-723.864	684.281	0.052	-0.136
-722.850	33.176	-0.269	-0.235
-721.835	482.063	-0.060	-0.137
-720.821	0.612	-0.177	-0.128
-719.806	-200.000	0.014	-0.094
-718.791	16.487	-0.079	0.063
-717.777	0.220	-0.148	0.106
-716.762	800.000	-0.155	-0.447
-715.748	61.398	0.169	-0.169
-714.733	141.205	-0.150	-0.200
-713.718	74.824	-0.044	-0.046
-712.704	66.917	0.179	-0.184
-711.689	97.115	0.104	0.120
-710.675	40.002	-0.336	0.304
-709.660	-26.023	0.139	0.082
-708.645	-110.816	-0.145	0.030
-707.631	44.207	0.057	0.052
-706.616	402.992	-0.118	-0.251
-705.602	-200.000	0.022	-0.170
-704.587	191.825	0.147	-0.223
-703.572	-71.578	0.195	-0.073
-702.558	-200.000	-0.049	0.238
-701.543	800.000	-0.053	0.185
-700.529	37.360	0.257	-0.229
-699.514	-46.865	-0.217	-0.107
-698.499	-127.888	-0.073	-0.011
-697.485	100.912	0.064	-0.075
-696.470	338.439	-0.073	0.143
-695.456	424.748	0.141	-0.305
-694.441	-38.731	-0.224	-0.119
-693.426	-200.000	0.001	-0.302
-692.412	-152.672	-0.105	-0.008
-691.397	123.368	-0.113	0.143
-690.383	-120.242	-0.259	-0.045
-689.368	800.000	-0.038	0.121
-688.354	-200.000	-0.005	0.085
-687.339	-113.127	0.265	0.053
-686.324	-144.448	0.366	0.034
-685.310	-144.565	-0.059	0.005
-684.295	-200.000	0.001	0.184
-683.281	-163.079	0.043	0.002
-682.266	61.048	0.224	-0.223
-681.251	-25.240	-0.206	0.123
-680.237	-200.000	-0.029	-0.148
-679.222	409.223	-0.124	0.265
-678.208	-200.000	0.018	-0.297
-677.193	-200.000	0.023	-0.296
-676.178	-120.064	-0.256	-0.044
-675.164	84.973	0.051	0.056
-674.149	-200.000	0.008	0.304
-673.135	14.451	-0.188	0.148
-672.120	109.001	-0.095	-0.114
-671.105	800.000	0.056	-0.195
-670.091	353.182	0.018	-0.037
-669.076	-184.317	-0.315	-0.005
-668.062	370.070	0.120	-0.244
-667.047	405.729	-0.124	0.263
-666.032	-136.159	0.291	-0.034
-665.018	488.765	-0.067	0.154
-664.003	800.000	0.118	0.384
-662.989	40.392	0.221	0.200
-661.974	800.000	-0.053	-0.152
-660.959	-95.232	-0.090	0.024
-659.945	798.472	-0.073	0.202
-658.930	-66.093	-0.190	-0.076
-657.916	-32.513	0.137	0.077
-656.901	-64.208	0.383	-0.157
-655.886	-24.612	-0.367	0.220
-654.872	-106.519	-0.308	-0.069
-653.857	-158.605	-0.433	-0.025
-652.843	-129.920	-0.239	-0.033
-651.828	-200.000	-0.004	-0.190
-650.814	-200.000	-0.002	0.081
-649.799	-200.000	0.022	-0.258
-648.784	-123.812	-0.259	0.041
-647.770	345.670	-0.081	0.160
-646.755	-200.000	0.039	0.407
-645.741	614.440	-0.133	-0.336
-644.726	87.009	0.082	0.091
-643.711	76.553	-0.230	0.245
-642.697	81.859	0.197	0.214
-641.682	-200.000	0.037	0.508
-640.668	800.000	0.050	0.169
-639.653	329.274	-0.117	0.225
-638.638	746.683	0.109	0.294
-637.624	98.032	-0.169	0.196
-636.609	117.111	0.234	0.289
-635.595	63.480	-0.034	-0.034
-634.580	-53.919	-0.278	-0.127
-633.565	-0.679	-0.113	-0.081
-632.551	107.893	0.247	0.295
-631.536	326.202	0.106	0.204
-630.522	-200.000	-0.014	0.144
-629.507	-150.325	-0.187	-0.015
-628.492	161.853	0.127	-0.178
-627.478	-200.000	0.000	-0.342
-626.463	-94.188	0.137	0.038
-625.449	-134.488	-0.129	-0.016
-624.434	-118.762	0.243	0.043
-623.419	90.175	0.085	-0.096
-622.405	-61.166	0.287	-0.121
-621.390	-106.113	-0.128	-0.029
-620.376	184.138	-0.100	-0.148
-619.361	-58.520	-0.015	0.007
-618.346	212.164	0.156	-0.246
-617.332	163.308	-0.163	-0.230
-616.317	-200.000	-0.026	0.169
-615.303	523.818	-0.117	-0.276
-614.288	-99.083	0.096	0.024
-613.273	-142.781	-0.114	0.011
-612.259	-28.008	-0.556	-0.323
-611.244	-10.762	-0.302	-0.200
-610.230	-200.000	-0.049	-0.268
-609.215	-24.439	0.295	-0.176
-608.201	-200.000	0.032	-0.540
-607.186	-82.124	-0.288	-0.094
-606.171	23.597	0.218	0.180
-605.157	-140.436	-0.109	-0.011
-604.142	44.088	0.024	-0.022
-603.128	-102.720	0.322	-0.077
-602.113	193.720	0.192	-0.292
-601.098	-123.411	0.146	-0.023
-600.084	-64.615	0.042	0.017
-599.069	-200.000	-0.057	0.283
-598.055	-165.238	0.164	0.007
-597.040	94.159	-0.137	-0.156
-596.025	-136.859	-0.171	0.020
-595.011	-200.000	0.042	0.392
-593.996	800.000	-0.056	-0.195
-592.982	800.000	-0.107	0.337
-591.967	-200.000	-0.010	-0.203
-590.952	-200.000	0.002	-0.074
-589.938	-200.000	0.004	-0.113
-588.923	800.000	-0.105	-0.321
-587.909	183.966	-0.149	-0.221
-586.894	-87.905	0.141	0.043
-585.879	-2.333	0.192	-0.135
-584.865	-60.253	0.266	0.114
-583.850	-79.651	-0.215	0.073
-582.836	-200.000	0.048	-0.335
-581.821	76.763	-0.176	0.188
-580.806	89.008	-0.066	-0.074
-579.792	-95.092	-0.078	0.021
-578.777	-200.000	-0.012	-0.088
-577.763	-105.088	-0.251	-0.057
-576.748	107.346	-0.078	0.093
-575.733	-50.623	-0.108	0.051
-574.719	-55.451	-0.309	0.139
-573.704	302.036	0.106	-0.196
-572.690	-9.325	-0.113	-0.076
-571.675	800.000	0.067	0.187
-570.661	-101.738	0.156	0.038
-569.646	-70.141	0.040	-0.015
-568.631	56.894	0.177	-0.173
-567.617	67.656	0.064	-0.066
-566.602	164.048	0.120	-0.170
-565.588	-200.000	0.039	0.248
-564.573	-24.711	0.089	0.053
-563.558	-126.101	-0.413	0.062
-562.544	-16.520	-0.160	0.102
-561.529	112.179	-0.046	0.055
-560.515	-16.932	0.299	0.189
-559.500	-133.055	-0.315	0.040
-558.485	-200.000	0.038	0.219
-557.471	-77.080	-0.120	0.042
-556.456	91.866	-0.112	-0.126
-555.442	-12.231	0.264	-0.173
-554.427	-80.269	0.391	0.131
-553.412	-109.303	0.240	-0.051
-552.398	-200.000	-0.000	-0.091
-551.383	-66.993	0.134	-0.053
-550.369	-25.339	-0.248	-0.147
-549.354	173.258	0.136	-0.196
-548.339	800.000	-0.097	-0.349
-547.325	431.549	-0.103	-0.224
-546.310	-129.739	-0.301	0.041
-545.296	-75.768	0.061	0.022
-544.281	27.366	0.099	0.083
-543.266	-127.081	0.337	-0.049
-542.252	-94.960	0.114	0.031
-541.237	-42.148	0.184	-0.094
-540.223	800.000	0.060	-0.237
-539.208	800.000	0.065	0.210
-538.193	-113.991	0.390	0.076
-537.179	47.076	0.030	0.028
-536.164	481.796	0.040	0.090
-535.150	361.916	0.087	0.175
-534.135	274.389	-0.172	-0.305
-533.121	303.173	0.140	0.259
-532.106	-200.000	0.051	-0.232
-531.091	309.592	-0.168	0.315
-530.077	214.842	-0.139	0.221
-529.062	-120.777	-0.198	0.033
-528.048	144.238	-0.046	-0.061
-527.033	5.329	0.223	-0.165
-526.018	-66.875	-0.112	0.044
-525.004	142.267	-0.115	0.153
-523.989	114.141	0.181	-0.220
-522.975	-32.475	0.156	0.087
-521.960	11.212	0.321	-0.245
-520.945	112.940	0.073	0.088
-519.931	-10.538	-0.079	0.052
-518.916	-200.000	-0.005	0.067
-517.902	-62.117	-0.159	-0.066
-516.887	-117.341	-0.367	0.067
-515.872	44.502	0.178	-0.163
-514.858	89.438	0.148	-0.165
-513.843	800.000	-0.030	0.124
-512.829	486.381	-0.067	0.153
-511.814	-29.891	-0.201	-0.114
-510.799	-101.487	-0.262	0.064
-509.785	-60.470	-0.192	0.082
-508.770	287.036	-0.122	-0.221
-507.756	-165.910	0.311	-0.013
-506.741	-200.000	0.018	0.154
-505.726	186.300	0.016	0.024
-504.712	55.006	0.111	0.107
-503.697	800.000	-0.105	0.371
-502.683	-66.316	-0.182	0.072
-501.668	-200.000	0.005	0.028
-500.653	-111.513	-0.164	-0.033
-499.639	-11.989	-0.067	0.044
-498.624	184.092	-0.165	-0.244
-497.610	20.466	0.122	-0.098
-496.595	-163.165	0.139	0.007
-495.581	780.734	-0.110	-0.302
-494.566	800.000	-0.049	-0.138
-493.551	512.923	-0.021	-0.049
-492.537	-151.651	0.284	-0.021
-491.522	-200.000	0.035	-0.185
-490.508	-200.000	-0.025	-0.286
-489.493	-97.279	0.367	-0.096
-488.478	800.000	-0.053	0.185
-487.464	-42.487	0.271	0.138
-486.449	-85.142	-0.307	-0.096
-485.435	-132.996	-0.214	-0.027
-484.420	84.771	0.075	-0.082
-483.405	-141.797	0.181	-0.018
-482.391	800.000	0.084	-0.297
-481.376	800.000	0.054	0.204
-480.362	-119.464	0.267	-0.046
-479.347	14.844	0.154	-0.120
-478.332	206.086	-0.145	0.225
-477.318	800.000	-0.097	0.282
-476.303	-75.890	-0.158	0.056
-475.289	138.658	-0.252	-0.330
-474.274	-200.000	0.028	0.161
-473.259	-2.535	0.033	0.023
-472.245	19.599	-0.075	-0.061
-471.230	800.000	0.017	0.058
-470.216	-12.145	-0.220	-0.144
-469.201	-124.617	0.162	0.025
-468.186	-200.000	-0.006	0.268
-467.172	-34.951	-0.068	-0.037
-466.157	21.246	-0.042	-0.034
-465.143	640.943	0.111	0.281
-464.128	-8.985	0.129	0.086
-463.113	-200.000	-0.018	-0.129
-462.099	168.212	-0.131	-0.186
-461.084	-114.862	0.108	-0.020
-460.070	419.439	0.050	0.106
-459.055	189.940	0.237	-0.355
-458.040	-157.084	-0.415	0.025
-457.026	-134.967	-0.152	0.018
-456.011	-137.529	0.074	-0.008
-454.997	-200.000	-0.033	-0.225
-453.982	-23.553	0.018	0.011
-452.968	18.208	-0.332	0.264
-451.953	2.867	0.101	-0.073
-450.938	-200.000	0.015	-0.313
-449.924	239.313	0.126	0.210
-448.909	-200.000	-0.034	0.265
-447.895	199.639	0.190	0.291
-446.880	171.982	0.050	0.071
-445.865	306.912	-0.220	0.409
-444.851	-57.710	0.160	-0.070
-443.836	6.696	0.120	-0.089
-442.822	52.991	0.190	0.182
-441.807	5.416	-0.124	0.091
-440.792	-72.744	0.277	0.102
-439.778	-100.531	-0.261	0.064
-438.763	176.468	-0.176	-0.255
-437.749	-58.422	0.221	0.096
-436.734	-200.000	0.020	0.289
-435.719	5.900	0.242	-0.179
-434.705	435.897	0.032	0.069
-433.690	24.305	0.124	0.102
-432.676	140.577	-0.184	0.242
-431.661	-200.000	-0.008	0.161
-430.646	-200.000	0.013	-0.404
-429.632	709.581	-0.102	-0.268
-428.617	-200.000	0.011	-0.239
-427.603	-200.000	-0.009	0.059
-426.588	-32.924	0.023	-0.013
-425.573	64.747	0.090	-0.091
-424.559	-94.595	0.301	-0.081
-423.544	300.947	0.140	-0.258
-422.530	-40.458	0.184	-0.095
-421.515	473.386	0.084	0.188
-420.500	-200.000	-0.005	0.184
-419.486	-200.000	-0.027	-0.294
-418.471	-96.033	0.273	0.072
-417.457	96.555	-0.066	-0.075
-416.442	-144.233	0.178	0.017
-415.428	800.000	-0.107	0.321
-414.413	-200.000	-0.022	0.183
-413.398	-127.510	0.190	-0.027
-412.384	13.827	0.186	0.144
-411.369	-200.000	-0.000	-0.034
-410.355	64.996	0.118	-0.119
-409.340	-200.000	0.022	-0.122
-408.325	-18.193	-0.193	0.120
-407.311	709.037	-0.143	-0.377
-406.296	-68.994	-0.356	0.137
-405.282	189.787	-0.145	0.216
-404.267	-200.000	-0.067	-0.327
-403.252	-109.261	-0.247	0.052
-402.238	-200.000	0.033	0.212
-401.223	290.448	-0.026	0.047
-400.209	-59.332	-0.292	-0.125
-399.194	-200.000	0.005	0.293
-398.179	680.431	0.025	-0.065
-397.165	-109.670	-0.488	0.102
-396.150	-82.620	0.342	-0.110
-395.136	63.752	-0.057	-0.057
-394.121	203.844	-0.047	-0.072
-393.106	-39.538	0.046	0.024
-392.092	486.608	-0.042	-0.096
-391.077	-142.735	-0.260	-0.025
-390.063	365.242	-0.092	0.185
-389.048	-200.000	0.014	0.120
-388.033	-200.000	0.054	0.270
-387.019	800.000	-0.097	0.412
-386.004	-68.283	-0.253	0.098
-384.990	436.352	0.047	0.101
-383.975	-200.000	0.006	-0.199
-382.960	132.807	0.122	0.157
-381.946	-18.160	0.147	0.092
-380.931	370.831	-0.130	-0.262
-379.917	-34.500	0.039	-0.021
-378.902	800.000	0.048	0.164
-377.888	694.320	-0.048	-0.126
-376.873	-200.000	-0.023	-0.253
-375.858	-195.679	-0.221	-0.002
-374.844	327.709	-0.176	-0.336
-373.829	-72.721	0.371	-0.136
-372.815	462.492	0.043	0.097
-371.800	-200.000	-0.024	0.438
-370.785	-200.000	-0.012	0.076
-369.771	525.595	-0.095	-0.222
-368.756	800.000	-0.063	-0.203
-367.742	-200.000	0.047	0.310
-366.727	21.573	0.132	0.107
-365.712	-95.032	0.133	-0.036
-364.698	-200.000	0.057	-0.333
-363.683	-39.604	-0.116	0.060
-362.669	76.818	0.081	0.086
-361.654	800.000	-0.033	0.101
-360.639	536.727	0.146	-0.345
-359.625	-95.266	0.051	0.014
-358.610	-108.585	0.059	0.013
-357.596	386.931	-0.064	-0.131
-356.581	-70.676	-0.210	-0.079
-355.566	-130.090	0.121	-0.016
-354.552	800.000	-0.032	0.099
-353.537	-141.430	-0.067	0.007
-352.523	167.844	0.134	0.189
-351.508	800.000	-0.026	0.098
-350.493	282.935	-0.055	0.098
-349.479	-51.080	0.364	-0.169
-348.464	-200.000	-0.029	0.201
-347.450	-10.748	0.434	-0.285
-346.435	-10.481	0.101	-0.067
-345.420	16.709	-0.122	-0.096
-344.406	228.125	-0.150	0.243
-343.391	-200.000	-0.054	0.475
-342.377	-107.206	-0.157	-0.034
-341.362	-103.298	0.121	-0.028
-340.348	-15.557	-0.271	-0.172
-339.333	-18.143	-0.428	0.266
-338.318	499.975	0.136	0.312
-337.304	120.113	0.075	-0.093
-336.289	56.605	0.184	0.177
-335.275	42.247	-0.261	-0.236
-334.260	-200.000	-0.018	0.140
-333.245	-94.108	0.157	-0.043
-332.231	-101.789	0.230	-0.055
-331.216	-19.036	-0.104	-0.064
-330.202	-200.000	-0.071	-0.549
-329.187	495.459	-0.022	-0.049
-328.172	90.799	-0.084	-0.094
-327.158	-200.000	-0.055	0.401
-326.143	-17.448	0.122	-0.076
-325.129	85.609	0.202	0.220
-324.114	-154.014	-0.194	-0.013
-323.099	-200.000	0.001	0.474
-322.085	-53.187	-0.109	0.050
-321.070	800.000	0.035	-0.127
-320.056	-117.322	0.205	0.037
-319.041	764.486	-0.131	-0.352
-318.026	52.761	0.262	-0.248
-317.012	-7.405	0.015	0.010
-315.997	-157.684	-0.224	-0.013
-314.983	800.000	0.068	0.198
-313.968	800.000	0.144	-0.539
-312.953	244.038	0.118	-0.196
-311.939	-200.000	-0.080	0.405
-310.924	136.457	0.088	-0.113
-309.910	-81.217	-0.183	0.060
-308.895	-200.000	-0.009	-0.304
-307.880	-200.000	0.011	-0.143
-306.866	180.448	-0.117	-0.170
-305.851	559.617	-0.103	0.247
-304.837	650.074	0.052	-0.131
-303.822	800.000	0.032	0.130
-302.807	-68.654	-0.117	0.045
-301.793	314.395	-0.092	0.172
-300.778	333.530	-0.071	0.136
-299.764	30.992	-0.034	-0.029
-298.749	-108.636	0.173	-0.037
-297.735	155.469	-0.021	0.028
-296.720	800.000	-0.062	-0.229
-295.705	-200.000	0.058	-0.312
-294.691	-54.880	-0.172	-0.077
-293.676	-14.251	-0.209	-0.134
-292.662	67.890	0.267	-0.270
-291.647	-107.227	-0.095	0.021
-290.632	-20.867	-0.078	0.047
-289.618	-32.069	-0.063	-0.035
-288.603	645.620	-0.078	-0.198
-287.589	-200.000	0.022	-0.296
-286.574	-200.000	0.014	-0.201
-285.559	143.779	0.234	0.309
-284.545	123.939	0.136	0.169
-283.530	1.302	-0.130	-0.093
-282.516	34.426	-0.273	0.236
-281.501	36.592	0.165	-0.144
-280.486	-200.000	0.001	0.184
-279.472	-72.491	0.226	-0.083
-278.457	-35.554	-0.178	0.096
-277.443	-128.829	-0.047	0.007
-276.428	-62.149	-0.125	-0.052
-275.413	90.069	0.054	0.060
-274.399	8.971	0.139	0.104
-273.384	-76.862	0.247	-0.086
-272.370	-155.748	-0.093	-0.006
-271.355	-61.406	0.262	0.109
-270.340	25.902	-0.184	0.152
-269.326	800.000	0.159	0.472
-268.311	-141.696	-0.427	0.043
-267.297	452.688	-0.122	-0.268
-266.282	800.000	0.031	0.122
-265.267	191.054	0.077	0.115
-264.253	193.073	-0.133	0.199
-263.238	94.906	0.099	-0.111
-262.224	-58.841	0.241	0.103
-261.209	105.709	-0.186	0.218
-260.195	-36.539	-0.233	-0.124
-259.180	596.636	0.045	-0.110
-258.165	66.042	-0.184	0.185
-257.151	66.692	-0.227	-0.229
-256.136	324.572	-0.054	0.102
-255.122	-18.466	0.250	-0.154
-254.107	-168.417	-0.244	0.009
-253.092	16.305	0.066	-0.051
-252.078	43.294	0.158	-0.143
-251.063	259.392	-0.129	-0.221
-250.049	88.813	-0.171	-0.188
-249.034	-19.713	0.444	0.271
-248.019	-1.398	0.148	0.103
-247.005	591.796	-0.030	0.073
-245.990	157.999	0.102	-0.140
-244.976	-200.000	0.007	-0.122
-243.961	-62.841	0.307	-0.126
-242.946	-200.000	-0.015	-0.267
-241.932	-200.000	0.018	0.138
-240.917	-200.000	0.035	0.155
-239.903	90.652	0.148	-0.164
-238.888	800.000	-0.012	-0.035
-237.873	197.050	0.106	0.160
-236.859	798.262	-0.051	-0.140
-235.844	-79.452	0.311	0.104
-234.830	-200.000	-0.007	0.086
-233.815	800.000	-0.084	0.267
-232.800	-200.000	0.008	-0.135
-231.786	-200.000	0.041	0.369
-230.771	237.859	-0.049	-0.080
-229.757	800.000	-0.077	-0.247
-228.742	-136.080	0.164	-0.019
-227.727	-121.381	0.341	-0.056
-226.713	-8.001	0.199	0.132
-225.698	-100.074	-0.170	0.042
-224.684	-7.878	0.310	-0.207
-223.669	48.267	0.089	0.082
-222.655	187.280	-0.197	-0.291
-221.640	-90.896	-0.199	0.057
-220.625	-149.257	-0.086	0.007
-219.611	-31.833	0.120	0.067
-218.596	-80.144	-0.231	0.077
-217.582	-140.440	-0.122	-0.013
-216.567	-87.636	0.240	0.072
-215.552	-85.846	-0.366	-0.112
-214.538	-96.772	-0.203	0.053
-213.523	27.548	0.154	-0.128
-212.509	30.797	0.200	-0.169
-211.494	21.674	-0.194	0.156
-210.479	580.078	0.045	0.109
-209.465	194.336	0.060	-0.090
-208.450	800.000	-0.048	-0.204
-207.436	-60.630	-0.136	0.057
-206.421	77.606	-0.151	0.159
-205.406	628.099	-0.143	-0.357
-204.392	800.000	0.080	-0.313
-203.377	84.250	0.044	-0.047
-202.363	252.480	0.042	0.071
-201.348	-23.152	0.374	-0.222
-200.333	106.190	-0.288	0.337
-199.319	217.624	0.268	0.421
-198.304	-21.953	-0.259	-0.156
-197.290	-82.694	0.116	-0.037
-196.275	-11.271	-0.074	-0.048
-195.260	800.000	-0.041	0.152
-194.246	-49.041	0.255	0.121
-193.231	431.759	0.071	-0.151
-192.217	800.000	0.044	-0.171
-191.202	54.617	-0.107	0.102
-190.187	-200.000	-0.006	0.063
-189.173	284.133	0.048	0.086
-188.158	583.306	0.085	-0.207
-187.144	105.898	-0.139	-0.163
-186.129	800.000	0.044	-0.154
-185.114	-21.771	-0.193	-0.116
-184.100	290.665	0.098	0.177
-183.085	-200.000	0.042	-0.296
-182.071	-200.000	0.007	0.043
-181.056	-110.709	-0.099	-0.020
-180.042	-57.041	0.300	-0.131
-179.027	800.000	-0.051	0.196
-178.012	-200.000	-0.018	-0.157
-176.998	-41.322	0.205	-0.104
-175.983	776.546	0.111	0.298
-174.969	-112.655	0.274	-0.054
-173.954	354.607	0.079	-0.155
-172.939	800.000	0.007	0.026
-171.925	55.756	-0.319	0.305
-170.910	800.000	-0.051	-0.151
-169.896	352.236	-0.110	-0.214
-168.881	133.295	-0.215	0.274
-167.866	-146.716	0.122	-0.010
-166.852	-200.000	-0.061	0.291
-165.837	150.335	-0.101	-0.135
-164.823	598.069	-0.053	0.129
-163.808	-101.419	-0.363	-0.087
-162.793	-92.120	-0.127	0.035
-161.779	66.769	-0.117	-0.117
-160.764	74.623	-0.217	0.225
-159.750	-200.000	0.053	0.285
-158.735	-98.451	-0.195	0.049
-157.720	57.995	0.146	0.141
-156.706	47.530	0.171	0.157
-155.691	-200.000	0.097	0.446
-154.677	-35.260	0.263	0.141
-153.662	81.664	-0.275	0.294
-152.647	-23.068	0.097	0.058
-151.633	-41.860	0.137	0.069
-150.618	-11.635	0.281	-0.182
-149.604	178.936	-0.176	0.254
-148.589	-64.864	0.068	0.027
-147.574	12.345	-0.005	0.004
-146.560	800.000	-0.063	-0.252
-145.545	-5.861	0.215	-0.145
-144.531	469.096	0.118	0.261
-143.516	-200.000	0.055	0.322
-142.502	-53.895	0.106	0.048
-141.487	155.991	-0.068	-0.092
-140.472	-43.603	0.090	0.045
-139.458	2.134	-0.149	-0.106
-138.443	-69.805	-0.181	0.068
-137.429	-70.316	0.082	0.031
-136.414	570.277	-0.080	0.191
-135.399	-167.879	0.272	0.011
-134.385	-55.540	0.252	-0.111
-133.370	23.143	-0.024	0.020
-132.356	146.686	-0.069	-0.091
-131.341	1.388	0.449	0.318
-130.326	-129.398	0.084	0.011
-129.312	-200.000	0.015	-0.164
-128.297	3.381	0.122	0.087
-127.283	46.013	-0.086	0.078
-126.268	40.643	-0.225	-0.200
-125.253	-108.478	-0.309	0.065
-124.239	-200.000	-0.045	-0.395
-123.224	-141.067	-0.086	-0.009
-122.210	800.000	0.106	0.294
-121.195	-77.578	-0.175	0.060
-120.180	-108.634	0.281	0.059
-119.166	-32.379	-0.301	-0.165
-118.151	35.173	-0.270	0.233
-117.137	144.747	-0.193	0.254
-116.122	246.189	0.087	-0.144
-115.107	-170.774	-0.136	-0.005
-114.093	-200.000	-0.021	0.130
-113.078	-101.434	-0.175	0.042
-112.064	82.515	0.189	0.202
-111.049	-82.908	-0.080	0.025
-110.034	192.655	-0.039	-0.058
-109.020	28.665	0.221	0.184
-108.005	-200.000	-0.058	-0.324
-106.991	-81.902	0.218	0.070
-105.976	-143.847	0.068	0.006
-104.962	13.789	-0.171	0.131
-103.947	94.184	0.152	0.169
-102.932	-95.809	0.095	-0.025
-101.918	-178.683	0.417	0.009
-100.903	37.346	-0.131	0.114
-99.889	-200.000	-0.027	0.176
-98.874	-8.272	0.064	0.042
-97.859	-200.000	-0.016	-0.137
-96.845	800.000	-0.007	-0.022
-95.830	-200.000	-0.008	0.112
-94.816	379.138	-0.144	0.290
-93.801	-119.692	0.128	0.022
-92.786	25.183	0.328	0.268
-91.772	-108.969	-0.308	-0.065
-90.757	800.000	0.080	0.284
-89.743	5.372	0.255	-0.185
-88.728	-132.130	-0.120	0.015
-87.713	-200.000	-0.057	0.249
-86.699	-92.920	-0.129	-0.035
-85.684	800.000	0.038	-0.115
-84.670	585.079	0.047	-0.114
-83.655	204.233	-0.221	-0.336
-82.640	800.000	-0.072	-0.239
-81.626	327.461	-0.008	-0.015
-80.611	-6.548	0.123	-0.082
-79.597	57.274	-0.320	0.307
-78.582	-43.218	-0.072	0.036
-77.567	21.495	-0.202	0.161
-76.553	-200.000	0.084	0.396
-75.538	234.424	0.121	-0.195
-74.524	-200.000	0.031	-0.172
-73.509	-41.802	0.204	0.103
-72.494	-47.337	-0.456	-0.218
-71.480	-200.000	-0.005	-0.090
-70.465	-122.187	-0.113	0.018
-69.451	-44.356	-0.194	-0.095
-68.436	-200.000	-0.002	0.085
-67.422	-200.000	0.008	-0.173
-66.407	-6.357	0.002	0.001
-65.392	82.905	0.129	0.137
-64.378	-36.433	0.133	-0.071
-63.363	800.000	-0.057	0.229
-62.349	-87.735	0.161	-0.048
-61.334	77.752	-0.884	-0.925
-60.319	373.178	0.205	0.410
-59.305	800.000	-0.226	-0.957
-58.290	800.000	0.276	1.061
-57.276	800.000	0.411	1.531
-56.261	-200.000	98.885	616.270
-55.246	615.053	1433.736	3528.764
-54.232	185.556	2634.931	3843.481
-53.217	118.634	2170.086	2631.267
-52.203	43.829	1613.809	1451.150
-51.188	34.898	1349.727	1159.783
-50.173	31.701	1308.598	1105.567
-49.159	54.596	1358.500	1285.889
-48.144	56.577	1373.552	1311.961
-47.130	35.049	1330.720	1144.175
-46.115	31.552	1313.294	1108.470
-45.100	31.302	1308.885	1103.229
-44.086	31.243	1306.166	1100.548
-43.071	31.174	1303.915	1098.203
-42.057	31.165	1301.316	1095.914
-41.042	31.135	1300.133	1094.700
-40.027	31.215	1298.688	1093.911
-39.013	31.107	1297.339	1092.095
-37.998	31.326	1294.652	1091.070
-36.984	31.306	1292.826	1089.375
-35.969	31.273	1291.349	1087.894
-34.954	31.328	1289.531	1086.636
-33.940	31.385	1288.529	1086.081
-32.925	31.414	1287.034	1084.945
-31.911	31.463	1285.213	1083.654
-30.896	31.425	1284.005	1082.371
-29.881	31.487	1282.755	1081.632
-28.867	31.363	1281.795	1080.067
-27.852	31.471	1279.552	1078.755
-26.838	31.400	1278.562	1077.467
-25.823	31.430	1276.864	1076.168
-24.809	31.398	1275.603	1074.878
-23.794	31.444	1274.046	1073.789
-22.779	31.333	1273.393	1072.555
-21.765	31.446	1271.637	1071.681
-20.750	31.374	1270.314	1070.113
-19.736	31.321	1268.423	1068.175
-18.721	31.313	1267.657	1067.443
-17.706	31.138	1266.862	1065.731
-16.692	31.290	1265.077	1065.052
-15.677	31.230	1264.423	1064.116
-14.663	31.237	1263.335	1063.199
-13.648	31.151	1261.647	1061.247
-12.633	30.962	1261.997	1060.428
-11.619	31.135	1260.400	1060.024
-10.604	31.327	1259.378	1060.214
-9.590	31.219	1258.356	1058.699
-8.575	31.162	1257.983	1058.018
-7.560	31.184	1256.826	1057.129
-6.546	31.179	1255.503	1055.945
-5.531	31.292	1254.574	1055.758
-4.517	31.266	1253.586	1054.740
-3.502	31.179	1252.918	1053.645
-2.487	31.234	1252.051	1053.184
-1.473	31.257	1248.014	1049.876
-0.458	30.274	1233.932	1032.520
0.556	24.785	1216.776	997.837
1.571	21.537	1222.100	983.888
2.586	20.811	1236.750	991.461
3.600	20.164	1226.398	979.425
4.615	15.099	1153.699	894.300
5.629	5.384	1077.045	786.159
6.644	0.345	1056.088	745.899
7.659	-0.045	1053.054	741.768
8.673	-0.239	1051.826	739.879
9.688	-0.219	1049.913	738.570
10.702	0.362	1049.402	741.000
11.717	6.781	1058.263	778.929
12.731	15.987	1071.070	834.058
13.746	20.134	1076.278	858.625
14.761	20.953	1077.189	863.332
15.775	20.993	1077.043	863.338
16.790	20.708	1075.777	860.838
17.804	20.882	1075.359	861.286
18.819	20.811	1075.046	860.610
19.834	20.979	1074.654	861.048
20.848	20.961	1074.135	860.467
21.863	20.958	1073.451	859.830
22.877	20.897	1073.056	859.137
23.892	20.836	1072.255	858.121
24.907	20.943	1071.741	858.159
25.921	20.963	1070.262	856.997
26.936	20.827	1068.941	855.194
27.950	20.810	1067.141	853.594
28.965	20.686	1065.650	851.721
29.980	20.757	1064.118	850.767
30.994	21.007	1062.915	850.949
32.009	20.948	1061.785	849.682
33.023	20.804	1060.426	847.821
34.038	20.889	1059.849	847.698
35.053	20.974	1058.962	847.327
36.067	20.933	1057.795	846.117
37.082	21.034	1057.638	846.409
38.096	21.173	1056.867	846.390
39.111	21.141	1056.240	845.660
40.126	20.985	1054.698	843.596
41.140	20.591	1052.808	840.104
42.155	20.554	1051.118	838.503
43.169	20.729	1050.192	838.533
44.184	20.743	1049.124	837.675
45.199	20.482	1048.849	836.123
46.213	20.590	1047.791	835.726
47.228	20.721	1046.746	835.447
48.242	20.945	1045.469	835.427
49.257	20.815	1045.321	834.614
50.271	21.019	1044.333	834.729
51.286	21.045	1043.345	833.989
52.301	20.898	1042.585	832.605
53.315	20.809	1041.554	831.281
54.330	20.887	1040.580	830.801
55.344	20.874	1040.114	830.298
56.359	20.805	1039.095	829.079
57.374	20.712	1038.020	827.705
58.388	20.580	1038.142	827.101
59.403	20.762	1036.225	826.368
60.417	20.596	1035.657	825.055
61.432	20.567	1034.471	823.896
62.447	20.726	1034.346	824.477
63.461	20.801	1033.859	824.374
64.476	20.762	1032.565	823.085
65.490	20.611	1031.532	821.473
66.505	20.641	1031.441	821.470
67.520	20.778	1030.422	821.231
68.534	20.528	1029.298	819.085
69.549	20.105	1028.556	816.432
70.563	20.217	1027.557	816.094
71.578	20.197	1026.644	815.200
72.593	20.081	1025.531	813.700
73.607	20.148	1025.364	813.810
74.622	20.575	1024.793	815.288
75.636	20.610	1023.522	814.368
76.651	20.295	1022.733	812.198
77.666	20.340	1022.284	811.976
78.680	20.458	1021.474	811.813
79.695	20.491	1020.881	811.425
80.709	20.533	1020.276	811.069
81.724	20.423	1019.259	809.674
82.739	20.622	1018.689	810.075
83.753	20.951	1017.838	810.861
84.768	21.254	1016.954	811.491
85.782	21.205	1016.214	810.601
86.797	21.137	1015.166	809.380
87.812	21.010	1014.370	808.084
88.826	21.203	1013.143	807.930
89.841	21.200	1012.350	807.213
90.855	21.220	1011.217	806.326
91.870	21.249	1010.040	805.453
92.884	20.861	1009.798	803.397
93.899	20.929	1008.283	802.437
94.914	21.238	1007.537	803.193
95.928	20.996	1006.681	801.325
96.943	20.741	1005.424	799.084
97.957	20.570	1003.919	797.036
98.972	20.372	1002.794	795.163
99.987	20.688	1002.502	796.307
101.001	20.966	1001.229	796.496
102.016	20.830	1000.789	795.454
103.030	20.858	999.583	794.555
104.045	20.682	998.425	792.761
105.060	20.528	997.543	791.288
106.074	20.691	997.025	791.551
107.089	21.020	996.432	792.504
108.103	20.864	995.297	790.826
109.118	20.705	994.000	789.003
110.133	20.717	992.671	787.933
111.147	20.502	991.582	786.028
112.162	20.528	990.574	785.274
113.176	20.619	990.394	785.475
114.191	20.480	989.132	783.776
115.206	20.161	987.998	781.369
116.220	20.374	986.841	781.348
117.235	20.404	986.779	781.363
118.249	20.428	986.019	780.801
119.264	20.309	984.528	779.018
120.279	20.351	983.961	778.689
121.293	20.495	983.134	778.606
122.308	20.522	982.096	777.838
123.322	20.346	980.628	775.822
124.337	20.290	979.555	774.654
125.352	19.823	977.483	770.863
126.366	19.717	976.456	769.514
127.381	20.517	976.337	772.911
128.395	20.835	976.339	774.261
129.410	20.954	975.914	774.385
130.424	20.974	974.411	773.209
131.439	20.946	973.805	772.537
132.454	20.839	973.090	771.429
133.468	20.753	971.889	770.025
134.483	20.960	971.643	770.677
135.497	21.109	970.698	770.521
136.512	21.180	969.395	769.730
137.527	21.237	968.059	768.853
138.541	21.091	968.199	768.254
139.556	21.156	967.500	767.915
140.570	21.245	965.922	766.988
141.585	21.155	964.933	765.739
142.600	21.065	964.370	764.829
143.614	21.194	963.797	764.873
144.629	21.402	963.021	765.100
145.643	21.166	961.558	762.839
146.658	21.014	960.264	761.081
147.673	21.042	959.412	760.459
148.687	20.924	958.590	759.225
149.702	20.798	957.625	757.849
150.716	20.815	956.836	757.228
151.731	21.222	955.690	758.023
152.746	21.197	955.448	757.655
153.760	21.230	955.076	757.438
154.775	21.320	954.112	756.993
155.789	21.203	953.411	755.863
156.804	21.274	952.357	755.272
157.819	21.354	951.590	754.939
158.833	21.500	951.101	755.115
159.848	21.459	949.746	753.797
160.862	21.204	948.819	751.896
161.877	21.266	947.750	751.248
162.892	21.435	946.618	751.009
163.906	21.332	945.278	749.439
164.921	21.276	944.523	748.535
165.935	21.302	943.527	747.792
166.950	21.439	942.592	747.571
167.964	21.399	941.703	746.629
168.979	21.114	940.805	744.634
169.994	21.086	940.163	743.941
171.008	21.391	939.289	744.482
172.023	21.377	938.362	743.620
173.037	21.128	937.442	741.768
174.052	21.080	936.369	740.649
175.067	20.962	935.845	739.670
176.081	21.156	935.368	740.048
177.096	21.175	934.373	739.275
178.110	20.793	933.402	736.828
179.125	20.581	933.026	735.567
180.140	20.809	932.375	735.953
181.154	20.825	932.273	735.876
182.169	21.200	931.953	737.141
183.183	21.412	931.018	737.231
184.198	21.292	930.518	736.263
185.213	21.214	930.188	735.609
186.227	21.286	929.010	734.915
187.242	21.328	928.229	734.409
188.256	21.318	927.414	733.658
189.271	21.343	927.008	733.375
190.286	21.059	925.606	731.013
191.300	20.557	924.736	728.159
192.315	19.802	923.047	723.604
193.329	19.845	922.428	723.235
194.344	20.717	922.815	727.122
195.359	21.121	922.838	728.763
196.373	21.238	922.387	728.828
197.388	20.973	921.705	727.120
198.402	21.061	920.861	726.758
199.417	21.217	920.045	726.700
200.432	20.818	919.239	724.339
201.446	20.711	918.457	723.212
202.461	20.823	917.843	723.132
203.475	19.805	916.239	717.581
204.490	19.368	914.459	714.313
205.504	20.232	915.279	718.473
206.519	20.754	915.138	720.461
207.534	20.905	914.743	720.710
208.548	21.244	914.588	721.926
209.563	21.044	913.523	720.194
210.577	20.967	912.933	719.348
211.592	21.349	912.350	720.399
212.607	21.249	911.471	719.231
213.621	21.447	910.724	719.394
214.636	21.475	909.909	718.798
215.650	21.421	909.048	717.834
216.665	21.519	908.793	717.972
217.680	21.303	908.269	716.609
218.694	20.874	906.598	713.471
219.709	20.789	906.160	712.712
220.723	21.048	905.710	713.355
221.738	21.208	905.509	713.788
222.753	21.182	904.733	713.006
223.767	21.209	904.165	712.606
224.782	21.488	903.828	713.415
225.796	21.433	903.170	712.609
226.811	20.754	901.866	708.754
227.826	20.209	900.498	705.402
228.840	20.417	900.230	705.973
229.855	20.510	899.174	705.461
230.869	20.002	898.410	702.740
231.884	20.486	898.292	704.549
232.899	21.185	898.201	707.245
233.913	21.030	897.506	706.010
234.928	21.259	896.776	706.299
235.942	21.083	896.056	704.956
236.957	20.787	895.086	702.936
237.972	20.799	894.735	702.647
238.986	20.946	894.171	702.737
240.001	20.844	893.767	701.945
241.015	20.986	893.210	702.017
242.030	21.101	892.663	701.988
243.045	21.180	892.035	701.749
244.059	21.420	891.324	702.094
245.074	21.131	890.722	700.394
246.088	20.823	889.540	698.171
247.103	21.043	889.595	699.033
248.117	21.581	889.490	701.042
249.132	21.731	889.114	701.286
250.147	21.873	887.927	700.855
251.161	22.037	887.952	701.468
252.176	22.145	887.019	701.101
253.190	22.083	886.856	700.661
254.205	22.201	886.114	700.483
255.220	22.177	885.479	699.823
256.234	22.046	884.740	698.655
257.249	21.819	883.940	697.060
258.263	21.890	882.931	696.484
259.278	22.046	882.618	696.794
260.293	22.027	882.353	696.448
261.307	22.031	881.232	695.520
262.322	21.722	880.671	693.792
263.336	21.036	878.426	689.250
264.351	20.025	876.481	683.675
265.366	20.200	876.711	684.484
266.380	21.255	877.213	688.982
267.395	21.596	876.745	689.895
268.409	21.609	876.025	689.319
269.424	21.821	875.442	689.634
270.439	21.868	874.784	689.240
271.453	22.059	874.174	689.447
272.468	22.185	873.806	689.590
273.482	22.025	873.847	688.935
274.497	21.652	872.849	686.623
275.512	21.405	871.367	684.432
276.526	21.869	871.481	686.276
277.541	21.856	871.054	685.828
278.555	21.643	870.468	684.474
279.570	21.505	869.188	682.867
280.585	21.736	868.873	683.460
281.599	21.676	867.999	682.479
282.614	21.068	866.847	679.147
283.628	21.088	866.587	678.962
284.643	21.493	866.220	680.187
285.657	21.001	865.183	677.402
286.672	20.835	864.316	676.022
287.687	21.417	863.859	677.861
288.701	21.418	863.451	677.485
289.716	21.129	862.361	675.452
290.730	21.313	861.345	675.306
291.745	20.816	860.841	672.933
292.760	21.131	861.191	674.362
293.774	22.118	861.416	678.290
294.789	22.383	860.756	678.734
295.803	22.525	860.468	678.994
296.818	22.406	859.853	677.990
297.833	21.966	858.549	675.209
298.847	21.984	857.475	674.375
299.862	22.252	857.577	675.423
300.876	22.334	857.695	675.772
301.891	22.325	856.433	674.686
302.906	21.879	855.535	672.207
303.920	21.957	855.341	672.295
304.935	22.249	855.228	673.264
305.949	22.216	854.396	672.424
306.964	22.077	853.630	671.231
307.979	22.074	853.604	671.138
308.993	22.534	853.288	672.587
310.008	22.507	851.907	671.338
311.022	22.209	851.273	669.643
312.037	21.987	851.186	668.669
313.052	21.831	850.126	667.182
314.066	20.975	848.423	662.539
315.081	20.742	847.712	661.038
316.095	21.700	847.842	664.718
317.110	22.019	847.962	665.965
318.125	21.220	846.708	661.894
319.139	20.201	845.189	656.789
320.154	20.253	844.823	656.643
321.168	21.206	844.911	660.260
322.183	21.938	844.816	662.894
323.197	21.986	844.584	662.835
324.212	22.184	843.952	663.027
325.227	22.236	843.811	663.053
326.241	22.008	843.386	661.799
327.256	21.910	842.708	660.840
328.270	21.910	841.674	659.972
329.285	21.773	840.717	658.650
330.300	21.493	839.829	656.841
331.314	21.802	839.766	657.897
332.329	22.165	839.698	659.147
333.343	22.257	839.184	659.028
334.358	22.221	838.886	658.601
335.373	22.409	838.306	658.791
336.387	22.688	838.334	659.799
337.402	22.658	838.522	659.776
338.416	22.518	838.092	658.855
339.431	22.784	837.439	659.280
340.446	22.795	837.081	658.980
341.460	22.648	836.594	657.987
342.475	22.452	836.203	656.892
343.489	22.714	835.670	657.390
344.504	22.922	835.559	658.020
345.519	23.082	834.993	658.112
346.533	23.065	834.498	657.602
347.548	23.044	834.103	657.153
348.562	22.975	833.346	656.243
349.577	22.907	833.079	655.724
350.592	22.940	832.189	655.086
351.606	23.023	831.336	654.665
352.621	22.812	830.797	653.399
353.635	22.842	829.825	652.690
354.650	22.040	828.529	648.650
355.665	21.243	827.023	644.474
356.679	21.782	826.655	646.118
357.694	21.892	826.343	646.224
358.708	22.065	825.854	646.419
359.723	22.408	825.917	647.676
360.738	22.711	825.340	648.280
361.752	22.882	824.993	648.574
362.767	23.212	824.553	649.383
363.781	23.291	824.340	649.449
364.796	23.346	823.681	649.073
365.810	23.433	823.500	649.193
366.825	23.246	823.217	648.226
367.840	23.059	822.512	646.928
368.854	22.680	821.238	644.488
369.869	22.836	820.887	644.723
370.883	22.698	820.794	644.089
371.898	22.637	820.142	643.297
372.913	22.790	819.985	643.676
373.927	22.896	819.311	643.475
374.942	23.108	818.804	643.795
375.956	23.328	818.161	644.029
376.971	23.166	818.264	643.466
377.986	23.283	817.800	643.468
379.000	23.446	817.015	643.385
380.015	23.127	816.794	641.998
381.029	23.104	816.511	641.635
382.044	23.343	815.443	641.604
383.059	23.343	815.092	641.273
384.073	23.479	814.399	641.160
385.088	23.313	813.925	640.132
386.102	23.033	813.202	638.493
387.117	23.159	812.563	638.391
388.132	22.764	811.384	635.986
389.146	22.368	810.503	633.811
390.161	22.510	810.814	634.512
391.175	22.914	810.361	635.554
392.190	22.754	809.433	634.194
393.205	21.319	807.546	627.511
394.219	20.017	805.543	621.234
395.234	20.003	805.222	620.881
396.248	21.559	806.748	627.587
397.263	23.085	807.725	633.763
398.278	23.090	806.951	633.119
399.292	22.694	806.759	631.492
400.307	22.755	805.801	630.908
401.321	22.878	805.327	630.918
402.336	23.318	805.286	632.403
403.350	23.611	805.345	633.437
404.365	23.859	805.000	633.997
405.380	23.943	804.933	634.186
406.394	24.076	804.485	634.252
407.409	23.916	803.689	632.999
408.423	23.882	803.424	632.611
409.438	24.132	803.183	633.257
410.453	23.939	802.868	632.266
411.467	24.039	802.218	632.052
412.482	23.946	801.861	631.385
413.496	23.970	801.800	631.366
414.511	24.001	801.051	630.831
415.526	24.022	800.682	630.560
416.540	23.753	799.770	628.832
417.555	23.596	799.128	627.716
418.569	23.653	798.990	627.755
419.584	23.598	798.410	627.049
420.599	23.509	797.737	626.152
421.613	155.995	1365.696	1796.395
422.628	135.275	1448.437	1796.522
