DTS Sentinel unit serial number:	SN413079Multiplexer serial number:	ORYXHardware model number:	OX4-SRSoftware version number:	ORYX F/W v4.00 Oryx Data Collector v3.7.2.0data status	okinstallation	princeton_trtdifferential loss correction	single-endedforward channel	channel 1reverse channel	N/Adate	2019/09/19time	00:30:35forward acquisition time	60.00reverse acquisition time	0.00gamma	496.2192k internal	0.2342k external	0.2342temperature offset calibration	1.0023default loss term (dB/km)	0.3790temperature slope calibration	1.0000multiplexer offset coefficient	1.0000multiplexer slope coefficient	1.0000fibre end	0.00T internal ref (°C)	22.44T ext. ref 1 (°C)	0.73T ext. ref 2 (°C)	15.39length (m)	temperature (°C)	Stokes	anti-Stokes-747.200	-16.438	0.419	-0.266
-746.185	800.000	-0.112	0.389
-745.171	261.523	0.012	-0.021
-744.156	429.085	-0.190	0.411
-743.142	-23.219	0.179	0.108
-742.127	-3.833	0.255	0.177
-741.112	391.862	-0.143	0.298
-740.098	-56.820	0.204	-0.090
-739.083	-57.545	0.222	0.097
-738.069	129.414	-0.065	-0.083
-737.054	415.722	0.079	-0.169
-736.039	-19.164	-0.441	-0.274
-735.025	-200.000	-0.012	0.259
-734.010	126.888	-0.283	-0.359
-732.996	-89.179	0.305	-0.090
-731.981	418.851	-0.127	0.272
-730.966	800.000	-0.045	0.192
-729.952	-200.000	-0.021	0.202
-728.937	-8.664	0.330	-0.221
-727.923	-19.659	-0.335	-0.208
-726.908	153.708	0.075	0.103
-725.894	800.000	-0.051	-0.150
-724.879	-195.959	-0.263	-0.002
-723.864	85.145	-0.142	-0.156
-722.850	94.699	-0.141	-0.160
-721.835	800.000	0.021	-0.074
-720.821	800.000	-0.065	0.252
-719.806	-116.336	0.206	0.038
-718.791	-200.000	0.045	-0.202
-717.777	-200.000	0.024	-0.292
-716.762	-91.022	0.132	-0.038
-715.748	-200.000	0.000	-0.243
-714.733	-63.745	-0.128	0.052
-713.718	484.355	-0.103	-0.234
-712.704	-76.987	0.170	0.059
-711.689	86.261	0.205	-0.226
-710.675	-200.000	0.028	-0.200
-709.660	-106.070	-0.169	-0.038
-708.645	123.483	0.182	-0.228
-707.631	33.965	0.343	-0.299
-706.616	59.757	-0.129	-0.128
-705.602	-200.000	-0.006	-0.043
-704.587	135.048	-0.303	0.394
-703.572	-109.842	0.507	0.106
-702.558	73.068	0.073	0.076
-701.543	435.087	-0.100	0.216
-700.529	-112.401	0.174	0.035
-699.514	-200.000	0.038	0.420
-698.499	-200.000	0.023	-0.363
-697.485	642.348	-0.063	0.159
-696.470	-19.628	0.191	-0.118
-695.456	229.999	-0.203	0.331
-694.441	800.000	-0.038	0.109
-693.426	800.000	0.059	-0.246
-692.412	355.510	-0.069	0.137
-691.397	-103.009	-0.109	-0.026
-690.383	-23.303	0.204	0.122
-689.368	-82.832	-0.228	0.074
-688.354	-94.498	-0.116	0.032
-687.339	-22.110	-0.180	0.109
-686.324	-92.449	-0.235	-0.066
-685.310	35.958	-0.281	-0.247
-684.295	9.129	-0.238	0.179
-683.281	-200.000	0.003	-0.126
-682.266	-44.393	-0.308	-0.154
-681.251	-53.412	0.018	0.008
-680.237	-200.000	-0.018	0.080
-679.222	125.436	0.109	-0.137
-678.208	800.000	-0.035	0.130
-677.193	-119.866	0.086	-0.015
-676.178	338.792	0.049	-0.096
-675.164	-74.648	-0.125	0.045
-674.149	12.915	-0.126	-0.097
-673.135	-200.000	-0.055	-0.302
-672.120	-200.000	0.001	0.205
-671.105	-80.456	-0.271	-0.090
-670.091	800.000	0.037	0.149
-669.076	-92.383	0.401	0.113
-668.062	-200.000	0.000	-0.064
-667.047	-134.681	-0.059	0.007
-666.032	-26.925	0.070	0.041
-665.018	-96.417	0.159	0.042
-664.003	-200.000	-0.017	-0.075
-662.989	-95.347	0.052	0.014
-661.974	312.856	0.142	-0.267
-660.959	84.945	-0.116	-0.127
-659.945	-21.115	-0.091	0.056
-658.930	-77.232	0.215	0.075
-657.916	324.635	0.122	-0.232
-656.901	-200.000	-0.021	-0.144
-655.886	-200.000	0.015	-0.201
-654.872	136.492	0.004	-0.006
-653.857	-71.548	-0.296	0.111
-652.843	-163.404	-0.316	-0.015
-651.828	78.666	0.287	0.306
-650.814	-200.000	0.067	-0.327
-649.799	74.208	-0.231	0.242
-648.784	287.986	0.137	0.247
-647.770	-200.000	-0.035	-0.208
-646.755	-111.891	0.462	-0.093
-645.741	-161.284	-0.067	-0.003
-644.726	-84.064	0.119	0.038
-643.711	-11.204	-0.142	0.094
-642.697	-200.000	0.025	0.209
-641.682	-109.095	-0.149	-0.032
-640.668	-200.000	0.010	0.212
-639.653	591.914	-0.142	-0.349
-638.638	-111.150	-0.029	0.006
-637.624	352.067	-0.044	0.086
-636.609	-91.922	-0.413	-0.117
-635.595	-47.966	0.290	0.140
-634.580	-200.000	0.014	0.177
-633.565	46.495	-0.068	0.063
-632.551	-91.943	-0.380	0.108
-631.536	-15.380	0.213	-0.136
-630.522	556.086	-0.135	0.325
-629.507	85.456	0.061	0.067
-628.492	-200.000	-0.041	-0.259
-627.478	-144.121	0.174	-0.016
-626.463	457.989	-0.152	0.338
-625.449	610.432	0.102	0.254
-624.434	-87.567	-0.310	-0.094
-623.419	800.000	0.103	-0.314
-622.405	800.000	-0.021	-0.074
-621.390	-77.244	-0.160	-0.055
-620.376	204.726	0.147	-0.228
-619.361	277.960	-0.087	0.155
-618.346	-69.099	0.296	-0.114
-617.332	-178.661	-0.288	0.007
-616.317	-31.588	-0.042	-0.024
-615.303	216.430	0.045	-0.071
-614.288	28.181	0.080	-0.068
-613.273	800.000	0.063	0.255
-612.259	-153.186	-0.160	-0.011
-611.244	-157.300	-0.528	0.032
-610.230	198.256	0.160	0.243
-609.215	-200.000	0.021	-0.262
-608.201	-62.608	-0.605	-0.250
-607.186	-49.118	0.200	-0.095
-606.171	-47.579	-0.131	0.063
-605.157	-200.000	0.035	0.223
-604.142	-32.561	0.323	-0.179
-603.128	0.719	-0.244	-0.174
-602.113	-165.037	-0.105	-0.005
-601.098	394.652	0.183	0.380
-600.084	-16.379	0.098	0.062
-599.069	45.717	0.233	-0.215
-598.055	-200.000	-0.003	0.240
-597.040	-34.057	0.272	-0.149
-596.025	-200.000	0.034	0.166
-595.011	111.246	-0.026	0.031
-593.996	-200.000	0.045	-0.291
-592.982	800.000	0.071	0.209
-591.967	800.000	0.062	0.267
-590.952	-200.000	0.244	-0.001
-589.938	493.658	-0.093	-0.213
-588.923	-200.000	0.020	-0.143
-587.909	129.730	-0.066	-0.084
-586.894	188.336	0.141	0.210
-585.879	66.541	0.162	0.164
-584.865	-118.795	-0.196	-0.034
-583.850	6.743	-0.204	-0.151
-582.836	146.072	-0.022	-0.029
-581.821	567.662	-0.097	-0.234
-580.806	320.770	-0.125	0.237
-579.792	-56.522	0.188	-0.083
-578.777	29.537	0.059	0.050
-577.763	25.112	-0.399	0.330
-576.748	685.804	0.083	0.215
-575.733	-143.348	-0.203	0.019
-574.719	126.600	-0.223	-0.281
-573.704	-200.000	-0.030	0.133
-572.690	-85.264	-0.042	-0.013
-571.675	34.662	0.133	-0.116
-570.661	89.878	-0.289	0.321
-569.646	22.023	-0.280	0.227
-568.631	-19.924	-0.079	0.049
-567.617	-200.000	-0.055	0.343
-566.602	-27.395	-0.137	-0.079
-565.588	19.410	0.185	0.148
-564.573	-200.000	-0.057	0.388
-563.558	129.054	-0.011	0.014
-562.544	-159.009	0.214	0.012
-561.529	-50.643	0.081	-0.038
-560.515	175.220	0.129	-0.186
-559.500	630.577	-0.050	-0.126
-558.485	-46.556	0.104	-0.051
-557.471	122.832	-0.150	0.186
-556.456	-150.461	0.022	-0.002
-555.442	14.831	0.101	-0.079
-554.427	574.956	0.069	-0.169
-553.412	-200.000	0.020	-0.184
-552.398	800.000	0.049	-0.186
-551.383	-41.460	-0.277	0.142
-550.369	-39.817	0.213	0.110
-549.354	-55.470	0.145	0.065
-548.339	-174.091	-0.161	0.005
-547.325	-139.374	-0.218	0.023
-546.310	-51.605	-0.143	0.066
-545.296	-161.418	0.192	-0.010
-544.281	800.000	-0.044	-0.139
-543.266	-31.302	-0.219	-0.123
-542.252	-98.953	-0.091	-0.023
-541.237	-160.073	-0.479	0.026
-540.223	-200.000	0.009	-0.087
-539.208	800.000	0.052	0.158
-538.193	-200.000	0.059	0.310
-537.179	-200.000	0.013	-0.296
-536.164	-200.000	0.044	0.302
-535.150	-200.000	0.047	0.380
-534.135	508.402	0.042	-0.098
-533.121	-73.601	-0.162	-0.059
-532.106	-200.000	0.003	-0.145
-531.091	-34.511	-0.244	-0.133
-530.077	-200.000	-0.035	-0.437
-529.062	36.359	0.374	0.327
-528.048	147.097	0.256	-0.343
-527.033	28.802	-0.138	-0.116
-526.018	-21.772	-0.233	0.141
-525.004	-200.000	0.000	-0.233
-523.989	-200.000	-0.028	-0.158
-522.975	800.000	-0.054	0.227
-521.960	211.619	-0.085	0.133
-520.945	90.070	-0.135	0.150
-519.931	-200.000	-0.034	-0.204
-518.916	148.423	-0.058	0.078
-517.902	368.946	0.050	-0.101
-516.887	385.396	-0.146	-0.299
-515.872	673.608	-0.159	-0.408
-514.858	300.989	0.129	0.236
-513.843	620.842	0.108	-0.270
-512.829	-74.810	0.209	0.075
-511.814	-189.827	0.309	0.003
-510.799	-58.046	0.128	-0.055
-509.785	591.377	-0.135	0.331
-508.770	123.051	0.284	0.353
-507.756	-200.000	0.004	-0.055
-506.741	800.000	0.039	-0.143
-505.726	-200.000	-0.001	-0.030
-504.712	282.908	-0.109	-0.195
-503.697	-127.600	-0.057	0.008
-502.683	-19.048	0.127	-0.079
-501.668	82.774	-0.164	-0.177
-500.653	-61.067	0.342	-0.143
-499.639	5.267	-0.214	-0.156
-498.624	-47.274	0.155	0.075
-497.610	-200.000	-0.026	0.154
-496.595	4.065	-0.428	0.311
-495.581	-95.154	0.149	0.040
-494.566	177.790	0.146	0.211
-493.551	39.709	0.188	0.168
-492.537	-200.000	0.025	-0.297
-491.522	394.235	-0.065	0.135
-490.508	575.460	-0.107	0.258
-489.493	312.447	0.102	-0.191
-488.478	800.000	-0.042	-0.153
-487.464	-59.527	0.077	-0.033
-486.449	238.917	-0.157	0.259
-485.435	800.000	0.048	0.159
-484.420	-148.575	0.175	0.014
-483.405	800.000	-0.083	0.245
-482.391	-155.905	0.340	0.021
-481.376	218.836	0.170	-0.269
-480.362	-79.497	-0.192	-0.064
-479.347	-200.000	-0.015	0.066
-478.332	-90.996	-0.234	0.067
-477.318	-109.287	-0.425	0.089
-476.303	193.185	0.053	-0.080
-475.289	-106.284	-0.171	-0.038
-474.274	-200.000	0.059	-0.359
-473.259	5.809	0.121	-0.089
-472.245	-162.805	-0.088	0.004
-471.230	-200.000	-0.047	0.508
-470.216	-103.854	0.235	-0.055
-469.201	-125.788	-0.190	0.028
-468.186	-24.787	-0.213	0.126
-467.172	65.481	0.164	-0.164
-466.157	119.075	-0.116	0.142
-465.143	30.921	-0.066	-0.056
-464.128	123.691	-0.260	-0.324
-463.113	133.697	-0.113	-0.145
-462.099	800.000	0.045	-0.147
-461.084	-10.420	-0.319	-0.209
-460.070	-60.958	0.398	-0.167
-459.055	-104.979	-0.201	-0.046
-458.040	-185.358	-0.511	-0.008
-457.026	-37.476	0.313	0.166
-456.011	-111.173	0.158	-0.032
-454.997	-79.115	0.298	-0.100
-453.982	142.632	0.191	0.251
-452.968	-168.276	-0.115	-0.004
-451.953	-200.000	-0.017	-0.281
-450.938	-114.408	-0.177	-0.034
-449.924	-136.011	0.220	-0.026
-448.909	-44.087	-0.262	0.130
-447.895	-80.555	0.354	0.117
-446.880	713.973	0.055	-0.143
-445.865	-200.000	-0.050	-0.337
-444.851	-80.590	0.364	-0.120
-443.836	800.000	0.053	0.219
-442.822	14.011	-0.095	0.073
-441.807	342.659	-0.059	0.115
-440.792	56.613	-0.065	-0.063
-439.778	-141.100	-0.336	-0.034
-438.763	-64.676	-0.100	-0.040
-437.749	-200.000	0.006	-0.254
-436.734	531.001	0.050	-0.117
-435.719	-51.363	0.161	-0.074
-434.705	-115.898	-0.162	-0.030
-433.690	-59.984	0.187	-0.079
-432.676	-200.000	-0.002	0.044
-431.661	87.418	0.102	-0.112
-430.646	-36.152	0.079	0.042
-429.632	57.288	-0.053	0.051
-428.617	-200.000	-0.001	0.027
-427.603	-200.000	-0.043	0.202
-426.588	-57.510	-0.103	0.045
-425.573	149.196	0.106	0.142
-424.559	-200.000	-0.074	-0.384
-423.544	-156.967	0.227	0.014
-422.530	-22.474	0.073	-0.044
-421.515	-74.544	0.069	-0.025
-420.500	43.699	-0.279	-0.252
-419.486	-200.000	0.004	-0.016
-418.471	-149.502	-0.173	-0.014
-417.457	28.912	-0.124	-0.104
-416.442	-7.920	-0.249	0.166
-415.428	-64.917	0.102	0.041
-414.413	-200.000	-0.001	-0.179
-413.398	319.059	0.131	0.246
-412.384	-67.142	-0.191	-0.074
-411.369	-28.645	-0.098	0.056
-410.355	-200.000	-0.045	-0.216
-409.340	27.552	-0.407	-0.339
-408.325	313.997	0.193	-0.358
-407.311	292.997	-0.178	0.320
-406.296	120.000	0.082	0.100
-405.282	46.389	-0.086	-0.079
-404.267	-138.683	-0.180	0.020
-403.252	-200.000	-0.037	-0.317
-402.238	620.740	0.118	-0.294
-401.223	-147.822	-0.184	-0.015
-400.209	142.659	0.245	0.322
-399.194	75.150	0.069	0.071
-398.179	-19.252	0.137	-0.084
-397.165	-1.050	0.149	0.104
-396.150	265.608	0.075	0.130
-395.136	-1.386	-0.141	-0.099
-394.121	67.006	0.094	-0.095
-393.106	-103.067	0.151	0.035
-392.092	800.000	0.101	-0.435
-391.077	-61.987	-0.195	0.080
-390.063	-145.941	0.065	-0.006
-389.048	-82.953	0.246	-0.078
-388.033	730.702	-0.075	-0.198
-387.019	-122.644	0.229	0.037
-386.004	-200.000	-0.029	-0.288
-384.990	-200.000	-0.003	0.059
-383.975	-147.290	-0.321	-0.027
-382.960	-45.020	0.206	-0.101
-381.946	-112.052	0.219	-0.044
-380.931	-153.944	0.129	-0.009
-379.917	-151.912	-0.067	-0.005
-378.902	-154.459	0.161	0.011
-377.888	52.618	0.044	-0.041
-376.873	36.399	0.200	-0.174
-375.858	24.348	0.050	0.041
-374.844	-200.000	0.027	0.145
-373.829	-150.520	0.117	-0.009
-372.815	-200.000	0.010	-0.232
-371.800	327.181	-0.109	-0.206
-370.785	432.410	0.140	0.300
-369.771	232.344	-0.212	0.344
-368.756	62.897	-0.063	0.062
-367.742	190.889	-0.039	0.058
-366.727	-42.555	0.551	0.277
-365.712	-200.000	0.006	0.059
-364.698	-121.005	0.213	-0.035
-363.683	800.000	-0.027	-0.099
-362.669	-200.000	-0.030	0.223
-361.654	-200.000	-0.003	0.205
-360.639	-200.000	-0.032	-0.229
-359.625	-151.053	0.173	-0.013
-358.610	800.000	0.088	0.241
-357.596	440.891	-0.124	-0.268
-356.581	-23.859	-0.324	0.192
-355.566	-119.386	-0.169	0.029
-354.552	-51.215	-0.044	0.020
-353.537	231.234	0.056	-0.090
-352.523	-9.782	0.236	0.155
-351.508	-73.088	0.137	0.050
-350.493	53.447	0.222	-0.210
-349.479	219.489	-0.065	0.103
-348.464	285.878	-0.070	-0.124
-347.450	-181.151	0.231	-0.005
-346.435	-171.100	-0.242	-0.008
-345.420	-200.000	-0.055	0.319
-344.406	-136.120	0.295	0.034
-343.391	800.000	-0.026	-0.076
-342.377	57.919	-0.206	-0.199
-341.362	-200.000	0.011	0.241
-340.348	-55.876	-0.090	-0.040
-339.333	288.442	0.288	0.514
-338.318	-98.286	0.251	0.063
-337.304	-117.166	0.094	0.017
-336.289	-50.854	-0.204	0.095
-335.275	380.661	0.194	-0.391
-334.260	800.000	-0.071	0.249
-333.245	269.251	-0.046	-0.080
-332.231	-130.208	0.397	-0.053
-331.216	104.401	0.029	0.033
-330.202	-200.000	0.033	-0.175
-329.187	800.000	0.060	0.187
-328.172	-200.000	-0.048	0.392
-327.158	-74.467	-0.170	0.060
-326.143	-147.327	-0.123	-0.010
-325.129	-11.949	-0.167	0.108
-324.114	-200.000	-0.004	0.175
-323.099	-110.474	-0.125	0.026
-322.085	171.018	0.267	-0.377
-321.070	32.311	0.253	-0.215
-320.056	-100.089	-0.341	-0.084
-319.041	509.845	-0.107	0.245
-318.026	-67.890	0.148	0.057
-317.012	188.123	0.159	0.235
-315.997	800.000	-0.010	0.036
-314.983	50.952	-0.077	0.071
-313.968	-200.000	0.003	0.154
-312.953	-139.094	0.289	0.031
-311.939	-110.723	0.112	0.023
-310.924	-200.000	-0.030	0.339
-309.910	800.000	-0.037	0.118
-308.895	210.579	0.026	-0.040
-307.880	-200.000	-0.008	0.224
-306.866	-100.531	0.197	0.048
-305.851	-106.073	-0.146	-0.032
-304.837	82.046	-0.075	-0.080
-303.822	36.718	-0.071	-0.062
-302.807	127.845	0.157	-0.197
-301.793	366.209	0.090	0.178
-300.778	-200.000	0.001	-0.016
-299.764	-5.849	-0.169	-0.114
-298.749	-41.930	0.027	0.014
-297.735	-200.000	0.045	-0.324
-296.720	236.327	0.066	-0.107
-295.705	139.388	-0.056	0.073
-294.691	595.956	-0.019	0.047
-293.676	-82.858	-0.168	-0.053
-292.662	580.727	0.159	0.382
-291.647	-200.000	0.016	-0.358
-290.632	54.462	0.071	-0.067
-289.618	-200.000	0.006	-0.062
-288.603	648.865	-0.102	-0.257
-287.589	-200.000	-0.041	0.240
-286.574	-138.238	0.155	0.017
-285.559	16.124	0.277	0.215
-284.545	-165.959	0.157	0.007
-283.530	-82.930	-0.141	-0.045
-282.516	99.412	0.015	-0.017
-281.501	-7.239	-0.430	0.287
-280.486	514.272	-0.156	-0.358
-279.472	-200.000	-0.032	0.524
-278.457	82.071	-0.074	0.078
-277.443	-58.036	0.082	0.035
-276.428	-200.000	-0.033	0.213
-275.413	-200.000	0.018	-0.170
-274.399	-46.052	0.122	-0.059
-273.384	83.459	-0.113	-0.121
-272.370	210.937	-0.267	-0.412
-271.355	-61.233	0.296	0.123
-270.340	180.619	-0.170	0.245
-269.326	-138.085	-0.143	0.016
-268.311	10.368	0.165	-0.124
-267.297	129.662	0.190	0.239
-266.282	-81.928	0.099	-0.032
-265.267	-60.430	0.120	-0.050
-264.253	-102.463	0.178	0.042
-263.238	86.325	0.325	-0.352
-262.224	108.664	-0.065	0.076
-261.209	-84.115	0.104	-0.033
-260.195	-90.847	0.089	-0.025
-259.180	378.957	0.108	-0.218
-258.165	-200.000	-0.017	0.312
-257.151	-154.762	-0.190	-0.012
-256.136	390.473	0.015	0.030
-255.122	800.000	-0.030	0.095
-254.107	70.248	-0.155	0.158
-253.092	-200.000	-0.051	-0.312
-252.078	653.618	0.089	-0.224
-251.063	800.000	-0.097	0.408
-250.049	-22.362	-0.368	-0.219
-249.034	235.669	-0.179	-0.290
-248.019	800.000	-0.045	-0.174
-247.005	-132.796	-0.267	-0.033
-245.990	338.111	0.072	0.138
-244.976	128.309	0.072	0.091
-243.961	-97.374	0.286	0.073
-242.946	585.406	-0.207	-0.499
-241.932	-200.000	-0.026	0.141
-240.917	-97.015	0.274	-0.071
-239.903	155.596	0.045	-0.060
-238.888	71.099	0.174	-0.177
-237.873	-81.092	0.261	-0.085
-236.859	205.891	-0.068	0.104
-235.844	-200.000	-0.009	-0.125
-234.830	800.000	-0.132	-0.535
-233.815	521.015	0.097	0.223
-232.800	-113.351	-0.423	-0.082
-231.786	-87.125	0.218	-0.065
-230.771	321.917	0.139	0.259
-229.757	-40.953	0.037	-0.019
-228.742	613.550	-0.088	-0.217
-227.727	-98.906	-0.222	0.055
-226.713	22.362	0.273	-0.219
-225.698	9.371	-0.122	0.091
-224.684	79.769	-0.172	0.181
-223.669	-164.479	0.204	0.009
-222.655	132.847	-0.171	0.217
-221.640	-86.755	-0.147	0.044
-220.625	-200.000	-0.035	-0.405
-219.611	166.939	0.137	0.191
-218.596	-200.000	-0.063	0.273
-217.582	327.550	0.122	-0.230
-216.567	14.980	-0.163	0.125
-215.552	-85.280	-0.131	-0.040
-214.538	-82.599	0.245	-0.078
-213.523	-200.000	0.013	-0.248
-212.509	100.099	-0.316	-0.359
-211.494	551.081	0.022	0.051
-210.479	-150.665	0.368	0.028
-209.465	99.255	-0.312	0.354
-208.450	800.000	-0.049	0.195
-207.436	-125.405	0.235	-0.035
-206.421	-176.126	0.140	-0.004
-205.406	139.815	-0.112	0.144
-204.392	81.954	-0.087	-0.093
-203.377	-98.336	0.282	-0.071
-202.363	74.734	0.195	-0.201
-201.348	-200.000	-0.009	0.228
-200.333	23.506	-0.165	-0.133
-199.319	-200.000	-0.073	0.423
-198.304	243.528	0.077	0.126
-197.290	271.193	0.074	-0.128
-196.275	-135.122	0.094	0.011
-195.260	769.608	-0.150	0.401
-194.246	608.198	-0.081	-0.199
-193.231	-166.574	-0.151	-0.006
-192.217	-61.756	-0.043	-0.018
-191.202	-66.934	-0.346	0.134
-190.187	-200.000	-0.003	0.094
-189.173	-105.509	0.265	-0.059
-188.158	374.490	-0.110	0.219
-187.144	156.741	0.061	-0.082
-186.129	-200.000	0.062	-0.270
-185.114	-200.000	-0.013	0.170
-184.100	-144.780	0.083	0.008
-183.085	366.054	-0.146	0.288
-182.071	-200.000	-0.036	-0.186
-181.056	-66.011	-0.208	-0.082
-180.042	347.867	-0.035	-0.067
-179.027	-39.029	0.223	-0.115
-178.012	-144.938	0.375	-0.034
-176.998	-200.000	-0.041	0.246
-175.983	108.882	0.278	-0.325
-174.969	-27.236	-0.233	0.133
-173.954	-181.972	-0.332	0.006
-172.939	479.469	-0.057	-0.126
-171.925	-151.118	0.148	0.011
-170.910	-200.000	0.020	0.237
-169.896	44.595	-0.072	-0.065
-168.881	137.753	-0.115	0.147
-167.866	149.416	0.043	0.058
-166.852	-200.000	-0.004	-0.305
-165.837	800.000	-0.052	-0.154
-164.823	17.435	0.319	0.248
-163.808	343.810	0.083	-0.160
-162.793	800.000	0.062	-0.259
-161.779	193.039	-0.307	-0.454
-160.764	800.000	0.023	-0.086
-159.750	-102.554	0.148	0.035
-158.735	553.345	0.065	-0.154
-157.720	95.771	-0.276	0.309
-156.706	-200.000	-0.005	0.255
-155.691	-14.443	-0.187	0.118
-154.677	-200.000	-0.031	-0.229
-153.662	-105.595	0.434	0.096
-152.647	-55.253	0.205	0.090
-151.633	366.101	0.133	0.262
-150.618	178.565	-0.046	0.065
-149.604	139.546	-0.147	0.189
-148.589	-200.000	0.035	0.181
-147.574	-100.046	-0.131	0.032
-146.560	-200.000	-0.029	0.142
-145.545	169.938	0.183	-0.256
-144.531	218.441	-0.153	-0.239
-143.516	-142.356	0.136	-0.013
-142.502	-181.534	-0.144	-0.003
-141.487	-53.631	-0.353	0.158
-140.472	-200.000	0.027	0.145
-139.458	-5.896	-0.286	0.192
-138.443	-130.698	-0.272	0.036
-137.429	35.698	-0.195	0.167
-136.414	-79.808	0.245	-0.081
-135.399	-23.379	-0.445	-0.262
-134.385	-148.279	-0.154	0.012
-133.370	-200.000	0.014	0.110
-132.356	26.872	0.174	-0.142
-131.341	-83.199	-0.018	0.006
-130.326	145.682	0.157	0.206
-129.312	122.210	-0.027	-0.033
-128.297	22.869	0.040	0.032
-127.283	179.516	-0.095	-0.136
-126.268	800.000	0.057	-0.167
-125.253	-74.986	0.189	0.066
-124.239	279.049	0.297	-0.518
-123.224	-103.623	-0.215	0.049
-122.210	198.446	0.221	-0.331
-121.195	56.223	-0.115	0.109
-120.180	-95.958	-0.345	0.090
-119.166	-200.000	0.019	-0.097
-118.151	-28.069	0.258	-0.146
-117.137	800.000	-0.127	0.385
-116.122	326.720	-0.133	0.249
-115.107	-126.194	0.121	-0.018
-114.093	192.525	-0.085	0.125
-113.078	104.290	0.137	0.157
-112.064	800.000	0.084	0.247
-111.049	-57.310	-0.277	0.119
-110.034	800.000	0.006	-0.020
-109.020	60.789	-0.021	-0.020
-108.005	8.588	0.127	0.093
-106.991	52.554	-0.439	0.410
-105.976	39.936	0.149	0.131
-104.962	-55.532	0.395	-0.173
-103.947	776.203	-0.088	0.234
-102.932	-147.857	0.030	-0.002
-101.918	800.000	0.025	0.101
-100.903	-200.000	0.010	0.430
-99.889	800.000	-0.069	0.204
-98.874	-200.000	0.035	-0.171
-97.859	-25.156	0.120	0.070
-96.845	-26.779	0.536	0.306
-95.830	177.418	0.022	-0.031
-94.816	-43.741	-0.277	-0.136
-93.801	768.787	-0.067	0.178
-92.786	800.000	0.134	0.398
-91.772	-200.000	0.015	0.206
-90.757	-200.000	0.013	0.062
-89.743	-86.253	-0.169	0.051
-88.728	303.876	0.219	0.397
-87.713	110.342	-0.112	-0.132
-86.699	67.508	0.077	0.077
-85.684	-110.191	-0.121	0.025
-84.670	-200.000	0.010	0.095
-83.655	-106.261	-0.231	0.051
-82.640	135.676	0.115	0.147
-81.626	152.389	0.236	-0.315
-80.611	-200.000	0.006	0.304
-79.597	-200.000	-0.024	0.299
-78.582	-83.351	-0.176	0.055
-77.567	-168.216	0.072	0.003
-76.553	228.914	-0.108	0.172
-75.538	-14.830	0.264	0.165
-74.524	800.000	-0.031	0.098
-73.509	50.014	-0.156	-0.143
-72.494	-99.752	-0.187	-0.046
-71.480	138.237	0.056	-0.071
-70.465	-35.778	0.294	0.155
-69.451	-200.000	-0.031	0.137
-68.436	-76.109	-0.022	0.008
-67.422	-131.834	0.072	-0.009
-66.407	405.884	-0.160	-0.330
-65.392	-55.124	0.180	0.079
-64.378	-166.194	-0.297	0.012
-63.363	-60.252	0.211	-0.088
-62.349	800.000	0.055	0.229
-61.334	139.130	-1.010	-1.296
-60.319	-28.354	0.984	0.554
-59.305	613.828	-0.477	-1.164
-58.290	268.637	0.742	1.268
-57.276	800.000	0.456	1.420
-56.261	-200.000	131.653	695.700
-55.246	373.339	1649.853	3271.697
-54.232	134.772	2795.104	3537.982
-53.217	93.609	2163.112	2388.501
-52.203	33.888	1591.141	1350.351
-51.188	25.571	1336.715	1084.473
-50.173	23.393	1298.873	1040.951
-49.159	51.161	1371.455	1268.383
-48.144	47.735	1381.234	1256.683
-47.130	25.813	1328.690	1079.239
-46.115	22.594	1309.045	1044.206
-45.100	22.363	1303.456	1038.342
-44.086	22.294	1301.353	1036.223
-43.071	22.376	1298.933	1034.732
-42.057	22.240	1296.983	1032.338
-41.042	22.305	1294.997	1031.100
-40.027	22.347	1293.609	1030.200
-39.013	22.363	1291.754	1028.777
-37.998	22.343	1289.867	1027.114
-36.984	22.466	1288.124	1026.407
-35.969	22.420	1286.408	1024.726
-34.954	22.420	1284.492	1023.158
-33.940	22.410	1284.068	1022.724
-32.925	22.446	1282.151	1021.366
-31.911	22.467	1280.450	1020.091
-30.896	22.466	1279.322	1019.149
-29.881	22.534	1278.318	1018.699
-28.867	22.535	1276.625	1017.317
-27.852	22.468	1275.542	1016.026
-26.838	22.600	1273.796	1015.354
-25.823	22.609	1272.619	1014.430
-24.809	22.395	1271.890	1012.578
-23.794	22.508	1270.395	1011.994
-22.779	22.522	1268.988	1010.916
-21.765	22.500	1267.782	1009.789
-20.750	22.555	1266.426	1008.983
-19.736	22.514	1264.812	1007.424
-18.721	22.509	1263.333	1006.176
-17.706	22.476	1262.663	1005.412
-16.692	22.321	1261.658	1003.691
-15.677	22.344	1260.400	1002.777
-14.663	22.417	1259.417	1002.377
-13.648	22.365	1257.947	1000.871
-12.633	22.367	1257.401	1000.408
-11.619	22.464	1256.570	1000.258
-10.604	22.361	1255.862	999.067
-9.590	22.389	1255.050	998.539
-8.575	22.393	1253.791	997.525
-7.560	22.437	1252.944	997.056
-6.546	22.328	1252.458	996.013
-5.531	22.373	1251.359	995.355
-4.517	22.334	1250.438	994.362
-3.502	22.371	1249.918	994.121
-2.487	22.360	1249.143	993.404
-1.473	22.256	1244.475	989.066
-0.458	20.608	1228.815	967.419
0.556	15.897	1212.990	928.280
1.571	12.104	1220.541	912.897
2.586	11.260	1236.252	919.804
3.600	11.416	1223.831	911.357
4.615	8.526	1153.281	843.515
5.629	3.274	1084.185	766.807
6.644	1.028	1067.968	744.244
7.659	0.680	1065.822	740.975
8.673	0.600	1065.217	740.101
9.688	0.613	1064.270	739.440
10.702	0.832	1061.509	738.523
11.717	4.005	1064.963	756.385
12.731	10.409	1073.821	794.074
13.746	15.682	1079.986	824.491
14.761	17.270	1081.781	833.582
15.775	16.533	1080.305	828.761
16.790	15.583	1077.717	822.053
17.804	14.948	1076.499	817.948
18.819	14.733	1075.282	815.900
19.834	14.439	1074.691	813.947
20.848	14.154	1073.568	811.633
21.863	13.919	1072.426	809.552
22.877	13.692	1072.361	808.322
23.892	13.677	1071.477	807.515
24.907	13.781	1070.209	806.993
25.921	13.648	1069.902	806.040
26.936	13.795	1068.726	805.797
27.950	13.789	1068.224	805.320
28.965	13.848	1067.033	804.638
29.980	13.851	1065.533	803.447
30.994	13.822	1064.570	802.510
32.009	13.891	1063.284	801.804
33.023	13.967	1062.347	801.395
34.038	13.907	1061.597	800.468
35.053	13.795	1060.575	799.086
36.067	13.844	1059.743	798.627
37.082	13.699	1059.266	797.499
38.096	13.962	1058.198	797.888
39.111	13.872	1057.618	796.946
40.126	13.812	1056.607	795.824
41.140	13.745	1055.362	794.498
42.155	13.788	1053.807	793.464
43.169	13.854	1052.914	793.036
44.184	13.623	1052.249	791.362
45.199	13.559	1051.137	790.150
46.213	13.687	1049.931	789.782
47.228	13.670	1049.464	789.283
48.242	13.793	1048.157	788.810
49.257	13.687	1047.573	787.798
50.271	13.876	1046.349	787.708
51.286	13.764	1045.359	786.359
52.301	13.738	1044.187	785.285
53.315	13.805	1042.988	784.633
54.330	13.726	1042.146	783.558
55.344	13.646	1041.330	782.496
56.359	13.718	1040.630	782.240
57.374	13.764	1039.067	781.212
58.388	13.686	1038.744	780.531
59.403	13.716	1037.612	779.755
60.417	13.667	1036.820	778.860
61.432	13.687	1035.994	778.263
62.447	13.656	1034.982	777.292
63.461	13.634	1034.506	776.760
64.476	13.722	1032.990	775.966
65.490	13.726	1032.596	775.620
66.505	13.639	1032.055	774.737
67.520	13.754	1031.079	774.472
68.534	13.735	1030.616	773.970
69.549	13.695	1029.822	773.117
70.563	13.565	1029.467	772.176
71.578	13.596	1028.404	771.457
72.593	13.637	1027.283	770.738
73.607	13.596	1026.857	770.160
74.622	13.463	1026.473	769.185
75.636	13.670	1025.657	769.466
76.651	13.630	1024.850	768.605
77.666	13.648	1024.169	768.111
78.680	13.594	1023.473	767.272
79.695	13.486	1023.238	766.529
80.709	13.622	1022.549	766.573
81.724	13.631	1021.860	766.029
82.739	13.706	1021.124	765.759
83.753	13.710	1020.261	765.061
84.768	13.783	1018.994	764.378
85.782	13.876	1018.039	764.021
86.797	13.814	1017.335	763.140
87.812	13.807	1016.127	762.138
88.826	13.779	1015.566	761.517
89.841	13.766	1014.676	760.723
90.855	13.828	1013.853	760.325
91.870	13.843	1013.224	759.855
92.884	13.904	1012.059	759.191
93.899	13.867	1011.462	758.506
94.914	13.978	1010.295	758.070
95.928	13.822	1009.847	756.956
96.943	13.877	1008.694	756.276
97.957	13.954	1007.885	755.955
98.972	13.995	1006.824	755.277
99.987	14.025	1006.068	754.779
101.001	13.852	1005.101	753.202
102.016	13.829	1004.752	752.769
103.030	13.893	1003.909	752.363
104.045	13.942	1002.819	751.700
105.060	13.812	1002.160	750.554
106.074	13.827	1000.913	749.621
107.089	13.947	999.819	749.277
108.103	13.787	999.015	747.884
109.118	13.709	998.052	746.748
110.133	13.711	997.457	746.245
111.147	13.856	996.255	745.932
112.162	13.790	995.434	744.952
113.176	13.852	994.697	744.613
114.191	13.945	993.855	744.337
115.206	13.771	993.528	743.244
116.220	13.812	992.680	742.729
117.235	13.918	991.377	742.160
118.249	13.783	990.493	740.833
119.264	13.725	989.848	740.024
120.279	13.896	988.932	740.036
121.293	13.859	987.960	739.077
122.308	13.834	987.332	738.433
123.322	13.892	986.205	737.784
124.337	13.772	985.072	736.339
125.352	13.818	984.128	735.769
126.366	13.870	982.803	734.944
127.381	13.861	981.916	734.178
128.395	13.788	981.126	733.197
129.410	13.813	980.269	732.604
130.424	13.911	979.350	732.285
131.439	13.838	978.543	731.294
132.454	13.917	977.926	731.117
133.468	13.954	977.282	730.732
134.483	13.833	976.034	729.202
135.497	13.819	975.424	728.622
136.512	13.906	974.836	728.498
137.527	13.691	973.980	726.851
138.541	13.781	973.069	726.505
139.556	13.845	972.292	726.140
140.570	13.859	971.309	725.401
141.585	14.073	970.175	725.425
142.600	14.037	969.403	724.625
143.614	13.975	969.247	724.174
144.629	14.059	968.038	723.572
145.643	13.994	967.282	722.663
146.658	14.083	966.029	722.047
147.673	14.012	965.515	721.290
148.687	13.925	964.812	720.325
149.702	13.981	963.871	719.801
150.716	14.005	963.166	719.314
151.731	13.855	962.450	718.067
152.746	14.021	961.821	718.251
153.760	14.041	961.127	717.757
154.775	14.140	960.184	717.415
155.789	14.105	959.794	716.910
156.804	14.122	959.437	716.652
157.819	14.188	958.261	715.996
158.833	14.104	957.904	715.303
159.848	14.273	956.547	714.952
160.862	14.167	955.924	713.971
161.877	14.120	954.776	712.848
162.892	14.248	953.759	712.572
163.906	14.118	952.787	711.227
164.921	13.979	952.574	710.414
165.935	14.084	951.630	710.092
166.950	14.290	950.452	710.031
167.964	14.203	949.584	708.951
168.979	14.181	949.112	708.439
169.994	14.186	947.968	707.546
171.008	14.158	947.391	706.933
172.023	14.195	946.584	706.427
173.037	14.293	946.192	706.484
174.052	14.307	945.651	706.077
175.067	14.174	944.830	704.839
176.081	14.328	943.881	704.720
177.096	14.316	943.236	704.128
178.110	14.343	942.978	703.987
179.125	14.373	941.947	703.279
180.140	14.226	941.714	702.424
181.154	14.245	941.458	702.252
182.169	14.385	940.359	701.956
183.183	14.415	939.878	701.664
184.198	14.375	939.243	700.958
185.213	14.406	938.735	700.650
186.227	14.414	937.791	699.917
187.242	14.452	937.163	699.544
188.256	14.591	936.314	699.431
189.271	14.471	935.741	698.439
190.286	14.310	935.030	697.171
191.300	14.352	934.279	696.725
192.315	14.377	933.508	696.192
193.329	14.393	933.122	695.910
194.344	14.387	932.371	695.267
195.359	14.542	931.958	695.542
196.373	14.470	931.377	694.747
197.388	14.429	930.989	694.227
198.402	14.557	930.151	694.070
199.417	14.765	929.359	694.284
200.432	14.650	929.085	693.538
201.446	14.726	928.399	693.280
202.461	14.823	927.823	693.194
203.475	14.709	927.402	692.344
204.490	14.750	926.711	691.938
205.504	14.712	925.725	690.984
206.519	14.650	925.425	690.442
207.534	14.677	924.511	689.809
208.548	14.684	923.832	689.269
209.563	14.520	923.562	688.332
210.577	14.666	922.717	688.241
211.592	14.785	922.066	688.187
212.607	14.841	921.433	687.884
213.621	14.708	920.594	686.648
214.636	14.999	919.363	686.867
215.650	15.009	918.751	686.387
216.665	14.928	918.185	685.573
217.680	14.844	918.037	685.058
218.694	14.919	916.886	684.445
219.709	14.825	916.599	683.786
220.723	14.980	915.379	683.449
221.738	14.862	914.870	682.524
222.753	14.921	914.257	682.249
223.767	15.005	913.701	682.115
224.782	15.108	913.109	682.033
225.796	15.014	912.578	681.191
226.811	15.044	911.948	680.784
227.826	14.949	911.028	679.650
228.840	15.096	909.864	679.320
229.855	14.967	909.347	678.350
230.869	14.978	908.750	677.888
231.884	15.082	908.181	677.828
232.899	15.079	907.461	677.217
233.913	14.902	907.082	676.159
234.928	15.018	906.203	675.913
235.942	14.935	905.857	675.261
236.957	15.011	905.532	675.261
237.972	15.042	904.891	674.852
238.986	15.048	904.014	674.160
240.001	15.145	903.205	673.887
241.015	15.081	902.725	673.214
242.030	15.160	902.090	672.998
243.045	15.225	901.064	672.435
244.059	15.173	900.913	672.053
245.074	15.154	900.391	671.528
246.088	15.251	899.495	671.187
247.103	15.321	898.295	670.512
248.117	15.142	898.658	670.012
249.132	15.288	897.859	669.939
250.147	15.358	896.853	669.406
251.161	15.313	896.203	668.682
252.176	15.430	895.823	668.808
253.190	15.443	894.891	668.104
254.205	15.551	894.252	667.995
255.220	15.466	893.710	667.197
256.234	15.471	892.793	666.473
257.249	15.639	891.995	666.484
258.263	15.636	891.082	665.731
259.278	15.640	891.037	665.655
260.293	15.631	890.557	665.202
261.307	15.695	889.628	664.701
262.322	15.755	888.872	664.315
263.336	15.631	888.462	663.461
264.351	15.673	887.765	663.047
265.366	15.697	887.006	662.516
266.380	15.691	886.703	662.207
267.395	15.765	885.840	661.795
268.409	15.760	884.988	661.080
269.424	15.712	884.247	660.279
270.439	15.861	883.644	660.357
271.453	15.763	882.724	659.225
272.468	15.807	882.639	659.275
273.482	15.789	882.256	658.861
274.497	15.794	881.410	658.189
275.512	15.904	880.568	657.934
276.526	15.660	880.453	656.836
277.541	15.916	879.669	657.194
278.555	15.866	879.062	656.485
279.570	15.971	878.409	656.350
280.585	15.982	877.677	655.788
281.599	15.956	876.715	654.908
282.614	16.027	876.002	654.595
283.628	15.895	875.943	653.980
284.643	15.947	875.493	653.788
285.657	16.082	874.611	653.594
286.672	16.126	873.761	653.071
287.687	16.166	873.083	652.662
288.701	16.090	873.004	652.249
289.716	16.200	872.054	651.909
290.730	16.163	871.710	651.450
291.745	16.297	870.745	651.187
292.760	16.223	870.566	650.714
293.774	16.253	869.752	650.163
294.789	16.184	868.900	649.202
295.803	16.035	868.894	648.565
296.818	16.140	867.703	648.024
297.833	16.202	867.017	647.693
298.847	16.119	866.475	646.911
299.862	16.272	865.773	646.915
300.876	16.168	865.287	646.097
301.891	16.267	864.600	645.907
302.906	16.346	864.514	646.085
303.920	16.402	863.947	645.821
304.935	16.370	863.423	645.250
305.949	16.410	862.310	644.514
306.964	16.457	862.111	644.487
307.979	16.470	861.643	644.129
308.993	16.371	861.326	643.460
310.008	16.460	860.288	642.965
311.022	16.443	860.001	642.627
312.037	16.486	859.024	642.006
313.052	16.533	858.447	641.693
314.066	16.409	857.762	640.656
315.081	16.518	857.215	640.605
316.095	16.492	856.832	640.160
317.110	16.541	856.296	639.888
318.125	16.476	855.718	639.157
319.139	16.434	855.412	638.712
320.154	16.513	854.687	638.415
321.168	16.604	854.334	638.435
322.183	16.598	853.339	637.613
323.197	16.470	853.369	637.097
324.212	16.654	852.455	637.051
325.227	16.673	851.671	636.481
326.241	16.722	851.290	636.325
327.256	16.583	851.128	635.624
328.270	16.524	850.556	634.917
329.285	16.609	849.708	634.547
330.300	16.607	848.842	633.837
331.314	16.486	848.691	633.214
332.329	16.688	848.066	633.451
333.343	16.763	847.309	633.109
334.358	16.671	847.436	632.803
335.373	16.598	847.356	632.413
336.387	16.662	846.740	632.139
337.402	16.667	846.521	631.937
338.416	16.683	846.233	631.726
339.431	16.923	845.691	632.159
340.446	16.746	845.576	631.358
341.460	16.854	844.800	631.124
342.475	16.872	844.360	630.808
343.489	16.933	843.959	630.681
344.504	16.860	843.601	630.084
345.519	16.997	842.991	630.082
346.533	16.965	842.300	629.390
347.548	16.863	842.213	628.892
348.562	16.921	841.125	628.239
349.577	17.036	840.435	628.094
350.592	16.922	840.108	627.370
351.606	16.900	839.251	626.597
352.621	16.982	838.644	626.390
353.635	17.015	837.933	625.924
354.650	17.049	837.284	625.510
355.665	17.053	836.659	625.000
356.679	17.098	836.244	624.801
357.694	17.085	835.703	624.295
358.708	17.170	834.967	624.002
359.723	17.147	834.611	623.594
360.738	17.102	833.976	622.904
361.752	17.254	832.998	622.672
362.767	17.329	832.622	622.613
363.781	17.401	832.122	622.447
364.796	17.381	831.699	622.000
365.810	17.221	831.432	621.161
366.825	17.208	831.027	620.758
367.840	17.294	830.631	620.720
368.854	17.198	830.251	620.031
369.869	17.316	829.718	620.007
370.883	17.408	829.049	619.789
371.898	17.297	829.393	619.587
372.913	17.553	828.401	619.721
373.927	17.334	828.370	618.848
374.942	17.376	827.655	618.412
375.956	17.519	827.085	618.448
376.971	17.353	826.525	617.373
377.986	17.765	825.651	618.160
379.000	17.620	825.661	617.588
380.015	17.529	825.096	616.782
381.029	17.703	824.270	616.738
382.044	17.726	823.847	616.451
383.059	17.757	823.207	616.028
384.073	17.619	822.566	614.995
385.088	17.657	821.787	614.497
386.102	17.601	821.543	614.057
387.117	17.665	821.350	614.090
388.132	17.510	820.805	613.069
389.146	17.621	819.696	612.585
390.161	17.758	819.342	612.758
391.175	17.880	818.660	612.634
392.190	17.684	818.406	611.687
393.205	17.606	818.281	611.258
394.219	17.695	817.938	611.269
395.234	17.646	817.479	610.695
396.248	17.703	817.084	610.548
397.263	17.669	816.299	609.789
398.278	17.766	815.895	609.780
399.292	17.901	815.604	609.988
400.307	17.700	815.020	608.782
401.321	17.715	814.604	608.471
402.336	17.782	814.126	608.298
403.350	17.763	813.661	607.829
404.365	17.972	813.122	608.116
405.380	17.936	812.715	607.631
406.394	17.896	812.277	607.107
407.409	17.889	812.094	606.893
408.423	17.982	811.712	606.884
409.438	17.966	811.601	606.690
410.453	18.052	810.410	606.050
411.467	18.085	809.808	605.662
412.482	18.290	809.355	605.998
413.496	18.058	809.351	605.120
414.511	18.179	809.181	605.367
415.526	18.318	808.147	605.031
416.540	18.174	808.063	604.406
417.555	18.124	807.593	603.825
418.569	18.244	807.029	603.774
419.584	18.210	806.588	603.268
420.599	18.150	806.488	602.929
421.613	115.964	1299.697	1490.874
422.628	100.261	1371.481	1490.940
