DTS Sentinel unit serial number:	SN413079Multiplexer serial number:	ORYXHardware model number:	OX4-SRSoftware version number:	ORYX F/W v4.00 Oryx Data Collector v3.7.2.0data status	okinstallation	princeton_trtdifferential loss correction	single-endedforward channel	channel 1reverse channel	N/Adate	2019/09/17time	09:30:35forward acquisition time	60.00reverse acquisition time	0.00gamma	496.2192k internal	0.2324k external	0.2324temperature offset calibration	0.9957default loss term (dB/km)	0.3790temperature slope calibration	1.0000multiplexer offset coefficient	1.0000multiplexer slope coefficient	1.0000fibre end	0.00T internal ref (°C)	29.00T ext. ref 1 (°C)	0.14T ext. ref 2 (°C)	25.49length (m)	temperature (°C)	Stokes	anti-Stokes-747.200	-200.000	-0.023	0.156
-746.185	-139.724	0.240	-0.026
-745.171	108.392	0.147	-0.177
-744.156	-200.000	-0.071	0.450
-743.142	-128.088	-0.549	0.079
-742.127	800.000	-0.152	0.445
-741.112	-200.000	0.002	0.448
-740.098	131.415	0.048	0.062
-739.083	-66.090	0.059	0.024
-738.069	-130.469	-0.102	0.014
-737.054	296.246	-0.070	0.130
-736.039	247.413	-0.035	-0.060
-735.025	800.000	-0.107	-0.331
-734.010	277.350	-0.058	0.103
-732.996	288.328	-0.207	-0.377
-731.981	-118.336	-0.171	-0.031
-730.966	-87.709	-0.166	0.051
-729.952	342.849	-0.150	-0.296
-728.937	-13.383	0.081	-0.053
-727.923	-200.000	0.012	0.102
-726.908	-29.599	-0.423	0.244
-725.894	34.317	0.171	-0.151
-724.879	-135.344	-0.080	0.010
-723.864	-80.783	-0.247	0.083
-722.850	-79.766	-0.170	0.058
-721.835	-122.913	0.065	0.011
-720.821	800.000	0.061	-0.243
-719.806	-116.821	-0.250	-0.046
-718.791	-50.881	0.171	-0.081
-717.777	-18.600	-0.211	0.133
-716.762	380.164	-0.157	0.325
-715.748	-200.000	0.001	0.066
-714.733	21.243	-0.310	0.254
-713.718	-200.000	0.025	-0.120
-712.704	-200.000	0.018	-0.103
-711.689	-10.058	0.314	-0.210
-710.675	-46.817	-0.273	-0.135
-709.660	-66.587	-0.258	-0.103
-708.645	335.083	-0.064	0.124
-707.631	-18.780	0.023	0.015
-706.616	-146.852	0.060	0.005
-705.602	-200.000	0.027	-0.179
-704.587	207.292	0.225	-0.354
-703.572	-172.552	-0.246	-0.008
-702.558	-15.084	0.369	-0.238
-701.543	-200.000	0.022	-0.414
-700.529	-85.507	-0.155	0.049
-699.514	-47.877	-0.256	0.125
-698.499	-67.304	0.150	0.059
-697.485	800.000	0.040	-0.134
-696.470	-106.489	0.455	-0.102
-695.456	266.493	0.122	-0.215
-694.441	207.377	-0.112	-0.177
-693.426	110.857	-0.280	0.339
-692.412	372.407	0.075	0.154
-691.397	-138.044	0.160	0.018
-690.383	22.939	-0.180	-0.149
-689.368	-124.873	-0.131	0.020
-688.354	39.830	-0.047	-0.042
-687.339	-55.856	-0.155	0.070
-686.324	47.385	0.059	0.056
-685.310	222.458	0.171	0.278
-684.295	-65.687	0.067	0.027
-683.281	32.518	0.346	-0.301
-682.266	412.174	-0.211	-0.452
-681.251	800.000	-0.083	-0.315
-680.237	61.968	-0.045	0.045
-679.222	97.118	-0.113	0.130
-678.208	218.087	-0.203	-0.327
-677.193	158.829	0.110	-0.153
-676.178	7.239	0.075	0.056
-675.164	365.848	0.148	-0.301
-674.149	-95.021	-0.090	0.025
-673.135	183.562	0.123	0.183
-672.120	85.583	0.167	-0.184
-671.105	132.685	-0.252	0.327
-670.091	385.325	-0.070	-0.145
-669.076	-58.628	-0.199	-0.087
-668.062	723.847	-0.053	-0.141
-667.047	800.000	0.049	0.172
-666.032	800.000	0.077	-0.298
-665.018	7.795	0.211	-0.159
-664.003	4.583	0.295	-0.218
-662.989	-94.007	0.141	-0.039
-661.974	-93.553	-0.048	0.013
-660.959	80.249	0.250	0.270
-659.945	22.312	-0.105	-0.086
-658.930	170.888	-0.118	-0.171
-657.916	-107.805	-0.140	0.031
-656.901	-20.715	-0.090	-0.055
-655.886	-145.893	-0.216	0.019
-654.872	293.751	-0.048	0.088
-653.857	-29.197	0.206	-0.119
-652.843	-159.186	-0.488	0.028
-651.828	129.403	0.091	-0.117
-650.814	381.726	0.027	-0.055
-649.799	571.395	0.100	-0.246
-648.784	-10.417	0.067	0.045
-647.770	-200.000	0.042	0.306
-646.755	-115.852	0.301	-0.057
-645.741	-71.820	-0.378	0.142
-644.726	-21.189	-0.265	-0.163
-643.711	143.834	0.088	-0.118
-642.697	-107.991	-0.428	-0.093
-641.682	-152.724	-0.085	-0.006
-640.668	385.396	0.196	-0.406
-639.653	-41.130	-0.013	0.007
-638.638	800.000	0.047	0.196
-637.624	-147.554	0.384	0.033
-636.609	-85.640	0.304	-0.095
-635.595	-70.346	-0.244	0.093
-634.580	-45.059	-0.186	-0.093
-633.565	-14.196	0.255	0.165
-632.551	-24.038	0.259	-0.156
-631.536	-200.000	0.011	-0.099
-630.522	638.650	0.009	0.024
-629.507	296.878	0.093	-0.171
-628.492	211.479	0.191	-0.302
-627.478	-200.000	-0.012	0.266
-626.463	-116.950	-0.205	0.038
-625.449	800.000	0.125	0.485
-624.434	-14.258	0.240	0.155
-623.419	-82.617	-0.136	0.044
-622.405	80.021	-0.103	-0.111
-621.390	-153.057	0.158	0.011
-620.376	49.995	-0.252	-0.238
-619.361	160.430	0.149	-0.208
-618.346	-200.000	0.012	0.075
-617.332	-65.352	0.143	-0.058
-616.317	-63.809	0.074	-0.030
-615.303	21.493	-0.213	-0.174
-614.288	-114.377	-0.410	0.079
-613.273	18.143	-0.242	-0.194
-612.259	11.586	-0.101	-0.077
-611.244	800.000	-0.065	0.192
-610.230	-200.000	-0.003	0.110
-609.215	-50.625	-0.246	-0.116
-608.201	-200.000	-0.037	-0.206
-607.186	17.832	-0.052	-0.042
-606.171	489.924	-0.194	-0.446
-605.157	-110.760	0.216	0.045
-604.142	6.906	0.142	-0.106
-603.128	800.000	0.107	0.307
-602.113	75.909	0.141	-0.150
-601.098	-96.002	-0.204	-0.055
-600.084	-200.000	0.072	0.336
-599.069	-93.036	0.204	-0.057
-598.055	-132.323	-0.243	-0.032
-597.040	90.478	0.020	0.022
-596.025	-146.286	0.280	0.025
-595.011	100.248	0.182	-0.212
-593.996	29.403	-0.222	0.189
-592.982	-135.627	0.375	0.045
-591.967	-139.210	-0.234	-0.025
-590.952	-200.000	-0.039	0.171
-589.938	145.319	-0.211	0.283
-588.923	800.000	-0.090	0.358
-587.909	-200.000	-0.014	-0.133
-586.894	-200.000	0.005	-0.266
-585.879	-200.000	0.097	-0.481
-584.865	95.018	-0.139	0.159
-583.850	800.000	-0.062	-0.193
-582.836	-122.891	0.283	-0.046
-581.821	-200.000	0.009	0.247
-580.806	-4.255	0.088	-0.061
-579.792	-200.000	0.078	-0.415
-578.777	-124.816	-0.283	-0.044
-577.763	142.196	-0.062	-0.083
-576.748	195.024	0.140	-0.213
-575.733	207.179	-0.180	-0.281
-574.719	-99.514	-0.230	-0.058
-573.704	-47.425	-0.155	-0.076
-572.690	26.384	-0.202	-0.169
-571.675	-123.328	0.128	-0.020
-570.661	-200.000	0.021	-0.097
-569.646	-200.000	-0.011	0.065
-568.631	-60.459	-0.244	0.104
-567.617	-92.770	-0.228	0.064
-566.602	-200.000	-0.051	-0.253
-565.588	-123.617	-0.116	-0.019
-564.573	51.367	0.025	-0.024
-563.558	-200.000	-0.022	-0.148
-562.544	-99.707	-0.138	0.035
-561.529	56.950	0.182	-0.178
-560.515	52.865	-0.054	-0.052
-559.500	-81.333	0.315	0.104
-558.485	-0.131	-0.426	-0.304
-557.471	-60.046	-0.204	0.087
-556.456	79.788	-0.105	0.113
-555.442	-21.878	0.177	-0.108
-554.427	-200.000	-0.016	0.102
-553.412	-51.031	-0.094	-0.044
-552.398	-200.000	-0.051	0.319
-551.383	-46.332	-0.116	0.057
-550.369	22.353	-0.371	0.303
-549.354	-61.984	0.060	-0.025
-548.339	800.000	0.069	0.215
-547.325	-200.000	-0.020	0.375
-546.310	-45.131	0.488	0.243
-545.296	273.588	-0.182	0.321
-544.281	17.626	-0.239	-0.191
-543.266	-146.116	0.104	-0.009
-542.252	-200.000	-0.036	0.366
-541.237	-200.000	-0.016	-0.129
-540.223	-50.228	0.237	-0.112
-539.208	-66.589	0.135	-0.054
-538.193	49.247	0.153	0.144
-537.179	-115.005	0.250	-0.048
-536.164	-5.486	0.191	-0.131
-535.150	-84.360	0.124	0.039
-534.135	-1.317	0.299	-0.211
-533.121	128.729	0.058	0.074
-532.106	297.242	0.120	-0.220
-531.091	1.455	-0.237	0.171
-530.077	-200.000	0.022	-0.148
-529.062	-200.000	-0.013	0.179
-528.048	-112.639	-0.089	0.018
-527.033	-200.000	0.000	0.025
-526.018	-86.391	-0.232	0.071
-525.004	800.000	-0.007	-0.024
-523.989	94.879	0.016	-0.018
-522.975	-200.000	-0.003	-0.246
-521.960	-129.363	-0.322	-0.045
-520.945	228.105	0.140	-0.228
-519.931	-128.552	-0.207	0.029
-518.916	-200.000	0.024	-0.296
-517.902	-182.988	0.334	0.006
-516.887	218.142	-0.150	-0.240
-515.872	394.366	-0.065	0.136
-514.858	-200.000	0.004	-0.220
-513.843	-66.606	0.192	0.076
-512.829	-33.539	0.150	-0.083
-511.814	31.026	0.232	-0.199
-510.799	-200.000	-0.000	-0.080
-509.785	-4.380	-0.336	-0.232
-508.770	-81.091	0.143	-0.047
-507.756	263.503	0.139	0.241
-506.741	-46.357	-0.274	0.135
-505.726	-200.000	0.029	0.527
-504.712	255.207	0.204	0.349
-503.697	12.491	0.184	-0.142
-502.683	-35.867	-0.191	-0.103
-501.668	-200.000	-0.014	-0.489
-500.653	268.195	0.155	0.271
-499.639	132.196	0.165	0.213
-498.624	78.660	-0.131	0.140
-497.610	46.205	-0.201	0.186
-496.595	-151.400	0.260	0.019
-495.581	66.359	-0.132	-0.134
-494.566	-114.277	-0.152	0.029
-493.551	800.000	-0.038	0.147
-492.537	800.000	0.078	-0.302
-491.522	-200.000	-0.027	-0.186
-490.508	-73.455	-0.174	-0.063
-489.493	800.000	0.070	-0.210
-488.478	-200.000	-0.014	0.116
-487.464	-104.016	-0.150	0.035
-486.449	800.000	0.075	0.270
-485.435	-200.000	0.016	0.120
-484.420	27.312	-0.085	0.072
-483.405	613.724	-0.052	-0.129
-482.391	61.484	-0.029	0.028
-481.376	174.196	-0.035	-0.051
-480.362	-88.048	0.324	-0.097
-479.347	57.979	0.153	0.150
-478.332	-200.000	-0.004	-0.179
-477.318	-200.000	-0.004	0.139
-476.303	-68.035	0.057	-0.022
-475.289	800.000	-0.053	0.218
-474.274	-56.431	-0.290	0.129
-473.259	-20.577	0.097	0.060
-472.245	-105.197	-0.115	0.026
-471.230	-147.533	-0.122	0.010
-470.216	13.091	0.082	0.063
-469.201	800.000	0.013	0.048
-468.186	-78.000	-0.146	-0.050
-467.172	-32.894	-0.154	0.085
-466.157	-111.029	-0.167	0.034
-465.143	634.325	0.070	0.176
-464.128	-159.539	-0.172	0.010
-463.113	141.746	-0.116	0.153
-462.099	-15.688	-0.107	0.068
-461.084	-200.000	-0.002	0.202
-460.070	61.928	0.105	-0.104
-459.055	-85.199	-0.201	-0.063
-458.040	-86.884	-0.319	0.097
-457.026	142.066	-0.131	-0.174
-456.011	57.090	-0.104	-0.101
-454.997	-100.392	-0.248	-0.061
-453.982	-126.693	0.407	0.060
-452.968	-103.347	0.262	0.062
-451.953	-200.000	0.019	0.290
-450.938	18.872	0.154	0.123
-449.924	-53.855	-0.170	-0.077
-448.909	-98.770	-0.254	-0.065
-447.895	11.024	0.025	0.019
-446.880	-164.611	0.529	0.024
-445.865	-28.062	-0.227	-0.131
-444.851	-200.000	-0.035	-0.239
-443.836	800.000	0.029	0.126
-442.822	800.000	0.142	0.447
-441.807	-86.672	-0.066	-0.020
-440.792	128.436	-0.252	0.320
-439.778	-14.746	0.032	-0.020
-438.763	66.807	-0.108	0.110
-437.749	800.000	-0.073	0.266
-436.734	134.946	-0.100	-0.129
-435.719	-110.210	-0.144	-0.030
-434.705	-41.856	0.187	0.096
-433.690	-200.000	-0.056	0.257
-432.676	6.481	0.081	0.060
-431.661	-154.362	-0.106	-0.007
-430.646	24.254	0.209	0.172
-429.632	-200.000	-0.020	0.164
-428.617	-200.000	0.008	0.084
-427.603	-40.036	0.312	0.162
-426.588	30.906	0.146	0.125
-425.573	-15.565	0.328	0.209
-424.559	453.699	-0.121	-0.267
-423.544	-200.000	-0.032	0.467
-422.530	-153.726	0.210	-0.014
-421.515	800.000	-0.100	0.373
-420.500	278.256	-0.030	-0.053
-419.486	-16.175	0.251	0.159
-418.471	-32.236	0.329	0.183
-417.457	800.000	0.027	0.098
-416.442	800.000	-0.030	-0.115
-415.428	800.000	0.129	-0.369
-414.413	-200.000	0.048	-0.310
-413.398	16.109	-0.337	0.265
-412.384	-200.000	0.038	-0.269
-411.369	-72.618	0.131	-0.048
-410.355	-200.000	-0.030	-0.297
-409.340	-200.000	-0.051	0.407
-408.325	48.342	0.057	0.053
-407.311	-40.410	0.266	0.138
-406.296	-152.543	-0.152	0.011
-405.282	188.890	-0.058	-0.086
-404.267	-200.000	-0.019	0.094
-403.252	31.826	0.071	-0.061
-402.238	-149.503	-0.392	0.031
-401.223	800.000	-0.006	0.023
-400.209	-65.610	0.205	0.082
-399.194	-200.000	-0.010	0.165
-398.179	-82.554	-0.012	0.004
-397.165	-53.010	0.154	-0.070
-396.150	-127.012	-0.224	-0.033
-395.136	-44.718	0.073	-0.036
-394.121	198.660	0.196	-0.299
-393.106	-63.530	0.279	-0.114
-392.092	-21.832	-0.143	-0.087
-391.077	-16.302	-0.289	0.182
-390.063	800.000	-0.040	0.132
-389.048	229.837	-0.216	0.351
-388.033	338.906	-0.155	0.300
-387.019	66.020	0.149	0.151
-386.004	-127.572	-0.400	0.058
-384.990	77.105	0.158	-0.167
-383.975	-48.498	0.307	-0.147
-382.960	-200.000	0.008	0.038
-381.946	-200.000	0.076	0.370
-380.931	162.922	0.298	0.416
-379.917	-200.000	0.004	0.285
-378.902	-37.695	-0.211	-0.112
-377.888	-200.000	0.013	-0.104
-376.873	83.086	-0.088	0.095
-375.858	-24.398	-0.244	0.144
-374.844	449.450	0.073	-0.159
-373.829	-45.730	-0.265	-0.130
-372.815	336.096	-0.114	0.221
-371.800	-200.000	0.007	0.082
-370.785	-81.030	-0.273	-0.090
-369.771	-58.140	0.213	0.092
-368.756	102.860	-0.056	0.065
-367.742	-177.562	0.246	0.006
-366.727	454.412	-0.136	-0.301
-365.712	-200.000	0.024	-0.253
-364.698	-200.000	-0.021	-0.159
-363.683	-200.000	-0.035	0.179
-362.669	529.590	-0.038	0.089
-361.654	671.476	-0.123	-0.318
-360.639	422.570	0.044	-0.093
-359.625	-146.332	-0.402	-0.035
-358.610	-156.652	-0.112	0.007
-357.596	800.000	-0.103	0.395
-356.581	10.363	0.124	0.094
-355.566	-156.401	-0.371	0.023
-354.552	547.240	-0.083	-0.196
-353.537	252.354	0.069	0.116
-352.523	-65.208	0.326	-0.131
-351.508	-200.000	0.063	-0.295
-350.493	175.627	0.078	-0.113
-349.479	-200.000	0.007	0.079
-348.464	800.000	0.098	-0.290
-347.450	-39.318	-0.311	0.162
-346.435	10.632	-0.090	0.068
-345.420	39.385	0.037	0.033
-344.406	123.351	-0.185	-0.231
-343.391	-200.000	-0.005	-0.142
-342.377	715.609	-0.050	-0.133
-341.362	-200.000	-0.021	0.126
-340.348	46.293	0.157	-0.145
-339.333	-166.995	-0.202	0.008
-338.318	550.225	0.110	-0.263
-337.304	800.000	0.099	-0.285
-336.289	-200.000	-0.003	0.313
-335.275	35.570	-0.071	0.062
-334.260	-125.447	0.316	-0.048
-333.245	800.000	0.032	-0.141
-332.231	59.199	-0.165	-0.161
-331.216	102.636	0.197	0.229
-330.202	80.207	0.250	-0.267
-329.187	800.000	0.015	0.045
-328.172	85.334	-0.046	0.050
-327.158	-109.691	0.410	-0.086
-326.143	-118.590	-0.325	-0.057
-325.129	-96.407	0.019	-0.005
-324.114	289.107	0.137	-0.247
-323.099	50.248	0.234	-0.219
-322.085	-102.007	0.199	-0.048
-321.070	-200.000	-0.002	-0.055
-320.056	-31.823	0.110	-0.061
-319.041	-200.000	-0.013	0.061
-318.026	800.000	0.077	0.251
-317.012	123.452	0.171	-0.213
-315.997	-89.893	-0.110	-0.032
-314.983	5.343	0.139	-0.102
-313.968	-148.834	-0.420	0.034
-312.953	153.815	-0.214	-0.291
-311.939	653.636	0.111	0.282
-310.924	-169.084	0.250	0.009
-309.910	556.737	0.029	0.070
-308.895	-165.115	0.350	-0.015
-307.880	208.515	0.153	-0.238
-306.866	-200.000	0.009	-0.121
-305.851	18.455	-0.230	0.182
-304.837	-14.467	-0.148	-0.095
-303.822	-151.517	0.239	0.018
-302.807	673.867	0.102	-0.262
-301.793	36.012	0.183	-0.160
-300.778	107.505	0.145	0.171
-299.764	-200.000	-0.043	-0.237
-298.749	333.454	0.014	0.026
-297.735	-123.427	-0.151	0.024
-296.720	268.165	0.050	-0.087
-295.705	-192.152	0.395	0.004
-294.691	-150.214	0.311	-0.024
-293.676	-147.445	-0.197	0.017
-292.662	20.411	0.116	-0.093
-291.647	-133.012	-0.108	-0.014
-290.632	-108.754	0.186	-0.039
-289.618	800.000	0.064	0.211
-288.603	55.896	-0.262	0.252
-287.589	-3.597	-0.258	0.178
-286.574	-200.000	-0.002	-0.229
-285.559	7.241	0.155	-0.115
-284.545	-79.932	-0.105	0.035
-283.530	403.991	0.215	0.448
-282.516	-81.552	0.208	-0.068
-281.501	4.055	-0.193	-0.140
-280.486	-200.000	0.012	0.132
-279.472	-127.687	0.205	0.029
-278.457	-10.968	0.089	0.058
-277.443	-116.202	0.097	-0.018
-276.428	-200.000	0.072	0.583
-275.413	223.312	-0.113	-0.180
-274.399	-200.000	0.006	-0.082
-273.384	-200.000	0.021	0.111
-272.370	-126.099	-0.327	0.049
-271.355	-13.205	0.216	-0.139
-270.340	-78.025	-0.337	-0.115
-269.326	16.354	-0.110	0.086
-268.311	-102.245	0.240	-0.057
-267.297	800.000	0.070	0.305
-266.282	-35.422	0.273	-0.147
-265.267	144.141	0.076	0.101
-264.253	24.651	0.128	0.105
-263.238	-52.590	0.208	-0.095
-262.224	621.670	0.047	-0.117
-261.209	-47.248	0.114	-0.055
-260.195	-200.000	0.051	-0.282
-259.180	-72.522	0.175	-0.064
-258.165	632.983	-0.176	-0.441
-257.151	-200.000	-0.019	0.145
-256.136	-81.444	-0.139	-0.045
-255.122	45.417	-0.414	0.378
-254.107	74.593	-0.115	0.120
-253.092	145.890	0.070	0.092
-252.078	-4.312	-0.068	0.047
-251.063	-40.224	0.204	0.105
-250.049	-51.385	-0.281	-0.130
-249.034	-53.946	-0.364	0.164
-248.019	63.944	0.209	0.208
-247.005	-200.000	-0.037	0.234
-245.990	-68.378	-0.375	0.144
-244.976	198.435	0.120	0.182
-243.961	800.000	0.069	-0.250
-242.946	-101.430	-0.185	0.045
-241.932	23.907	0.273	-0.223
-240.917	-83.903	-0.461	0.145
-239.903	-16.217	-0.167	0.105
-238.888	-43.152	0.231	-0.116
-237.873	-26.099	-0.069	0.040
-236.859	-106.242	-0.326	-0.072
-235.844	52.247	-0.220	0.208
-234.830	240.739	-0.128	0.212
-233.815	490.903	0.090	0.204
-232.800	363.880	-0.099	-0.197
-231.786	321.152	-0.057	0.108
-230.771	-75.496	-0.194	0.068
-229.757	-200.000	0.025	-0.109
-228.742	-58.104	0.131	-0.056
-227.727	10.444	0.277	-0.209
-226.713	-137.332	-0.252	-0.028
-225.698	-140.451	-0.328	-0.034
-224.684	-145.256	-0.451	-0.040
-223.669	63.786	0.140	-0.139
-222.655	-21.883	-0.161	-0.097
-221.640	-167.712	-0.071	-0.003
-220.625	-200.000	0.028	0.298
-219.611	-53.551	-0.228	0.103
-218.596	-3.134	0.178	0.123
-217.582	404.421	0.122	-0.254
-216.567	49.507	-0.149	-0.139
-215.552	-121.755	0.353	0.058
-214.538	-161.944	0.123	0.006
-213.523	-200.000	0.053	-0.244
-212.509	78.946	-0.281	-0.298
-211.494	172.421	-0.205	-0.291
-210.479	-93.986	0.351	-0.095
-209.465	-22.031	0.194	0.117
-208.450	286.944	0.024	-0.044
-207.436	-151.842	-0.209	0.015
-206.421	-116.578	0.321	0.058
-205.406	-168.022	0.262	0.010
-204.392	434.156	0.121	-0.260
-203.377	503.258	0.077	-0.175
-202.363	-48.573	-0.251	0.119
-201.348	-50.770	0.098	-0.045
-200.333	-39.711	0.329	0.170
-199.319	-109.368	-0.312	0.065
-198.304	-200.000	0.012	-0.251
-197.290	360.148	0.163	-0.322
-196.275	-200.000	0.003	-0.069
-195.260	72.683	0.170	0.175
-194.246	176.516	0.054	-0.078
-193.231	79.843	-0.327	-0.347
-192.217	-116.587	-0.250	-0.046
-191.202	800.000	0.045	0.129
-190.187	-60.198	0.085	-0.036
-189.173	-145.736	-0.292	0.026
-188.158	-96.333	0.319	-0.083
-187.144	800.000	0.023	-0.087
-186.129	-4.052	0.231	0.158
-185.114	493.220	-0.086	-0.195
-184.100	-149.068	0.331	-0.026
-183.085	-110.584	-0.264	-0.054
-182.071	-200.000	-0.059	0.370
-181.056	-61.152	-0.343	0.143
-180.042	286.682	-0.275	-0.490
-179.027	-200.000	0.005	0.138
-178.012	-102.481	0.163	0.038
-176.998	260.186	0.082	0.140
-175.983	67.510	-0.232	-0.234
-174.969	-118.739	0.243	-0.042
-173.954	21.723	-0.038	-0.030
-172.939	-19.870	0.214	-0.130
-171.925	15.815	0.314	0.244
-170.910	200.306	-0.060	0.091
-169.896	-76.022	0.128	0.045
-168.881	-63.997	-0.084	-0.034
-167.866	60.988	0.091	-0.089
-166.852	120.590	0.243	0.298
-165.837	-200.000	0.000	-0.357
-164.823	395.767	-0.175	-0.361
-163.808	-88.029	-0.241	0.071
-162.793	-95.811	0.173	-0.046
-161.779	90.135	-0.271	0.299
-160.764	591.882	0.041	-0.100
-159.750	-46.315	0.226	-0.110
-158.735	-75.503	0.222	0.078
-157.720	800.000	-0.051	0.217
-156.706	800.000	-0.102	0.341
-155.691	120.667	0.193	-0.236
-154.677	46.085	-0.047	-0.043
-153.662	114.962	0.131	0.157
-152.647	117.140	0.192	0.233
-151.633	45.203	0.199	-0.181
-150.618	253.076	0.037	0.062
-149.604	-116.400	0.293	0.053
-148.589	-126.434	-0.238	0.035
-147.574	-200.000	-0.133	0.000
-146.560	800.000	-0.061	-0.252
-145.545	-73.512	-0.207	-0.075
-144.531	-200.000	-0.017	0.342
-143.516	-200.000	0.002	-0.446
-142.502	800.000	0.066	-0.210
-141.487	321.298	0.162	0.303
-140.472	-200.000	0.015	-0.206
-139.458	4.880	0.140	-0.101
-138.443	9.642	-0.398	0.297
-137.429	-200.000	0.036	0.211
-136.414	162.095	-0.062	0.086
-135.399	316.361	-0.229	0.427
-134.385	460.285	0.061	0.134
-133.370	112.980	-0.142	0.169
-132.356	-200.000	0.034	0.277
-131.341	93.223	-0.050	-0.055
-130.326	68.336	-0.135	-0.137
-129.312	-93.444	-0.139	-0.038
-128.297	-114.830	-0.287	-0.054
-127.283	-42.186	-0.246	-0.124
-126.268	800.000	0.102	-0.338
-125.253	800.000	0.106	-0.342
-124.239	107.398	0.270	-0.316
-123.224	238.853	-0.175	-0.287
-122.210	-128.160	-0.329	-0.046
-121.195	9.614	-0.136	-0.102
-120.180	455.106	0.089	0.195
-119.166	217.639	0.232	-0.364
-118.151	-92.055	-0.174	-0.049
-117.137	752.299	-0.108	0.288
-116.122	-13.146	-0.192	-0.123
-115.107	-105.339	-0.221	0.050
-114.093	141.961	0.214	0.279
-113.078	229.185	0.081	0.131
-112.064	61.429	0.163	-0.160
-111.049	10.510	0.098	-0.073
-110.034	-108.443	-0.145	-0.031
-109.020	-200.000	-0.049	0.251
-108.005	-200.000	-0.004	0.030
-106.991	630.419	0.056	-0.140
-105.976	38.559	0.173	0.152
-104.962	46.874	-0.201	0.184
-103.947	-11.819	0.212	-0.137
-102.932	-8.656	-0.146	-0.096
-101.918	98.726	0.079	0.090
-100.903	-156.988	-0.059	-0.004
-99.889	-94.978	0.180	-0.048
-98.874	129.881	0.166	0.208
-97.859	83.924	0.148	-0.159
-96.845	554.576	-0.172	-0.407
-95.830	117.993	-0.219	0.266
-94.816	800.000	-0.039	-0.124
-93.801	-200.000	-0.039	-0.233
-92.786	800.000	0.034	0.107
-91.772	-89.171	0.066	-0.019
-90.757	-200.000	-0.068	0.386
-89.743	38.987	-0.192	-0.169
-88.728	328.148	-0.027	-0.051
-87.713	-13.792	0.289	-0.184
-86.699	-200.000	-0.005	-0.373
-85.684	-200.000	-0.022	-0.145
-84.670	-77.105	0.159	-0.054
-83.655	-95.540	-0.373	0.098
-82.640	-200.000	-0.020	0.151
-81.626	-79.033	-0.553	-0.185
-80.611	126.365	0.189	-0.235
-79.597	99.921	-0.199	0.227
-78.582	-120.120	0.045	-0.008
-77.567	-149.191	-0.215	-0.017
-76.553	182.992	0.092	-0.134
-75.538	383.005	0.107	-0.216
-74.524	-47.360	-0.282	0.135
-73.509	800.000	0.088	-0.301
-72.494	-200.000	0.037	0.297
-71.480	-80.895	0.240	-0.078
-70.465	-126.551	-0.156	-0.023
-69.451	-200.000	0.056	0.354
-68.436	189.255	-0.196	-0.288
-67.422	-15.957	-0.206	0.129
-66.407	217.714	0.009	0.014
-65.392	-200.000	0.012	0.263
-64.378	-200.000	0.268	0.001
-63.363	-31.794	0.120	-0.066
-62.349	416.704	0.090	0.189
-61.334	47.457	-1.010	-0.925
-60.319	76.585	0.477	0.497
-59.305	800.000	-0.348	-0.954
-58.290	800.000	0.292	0.992
-57.276	206.219	0.870	1.331
-56.261	-200.000	107.098	582.646
-55.246	438.813	1485.961	3186.099
-54.232	145.000	2678.087	3518.625
-53.217	104.489	2170.741	2511.034
-52.203	40.311	1613.989	1426.559
-51.188	32.258	1352.348	1146.387
-50.173	29.409	1311.301	1094.673
-49.159	52.976	1364.467	1282.330
-48.144	53.235	1380.469	1298.884
-47.130	32.585	1336.219	1134.508
-46.115	29.183	1318.026	1098.762
-45.100	29.016	1313.169	1093.679
-44.086	28.894	1310.813	1090.950
-43.071	28.902	1308.312	1088.875
-42.057	28.761	1306.350	1086.365
-41.042	28.882	1304.529	1085.518
-40.027	28.970	1302.478	1084.292
-39.013	28.822	1301.205	1082.313
-37.998	28.963	1298.904	1081.187
-36.984	28.953	1297.466	1079.890
-35.969	29.018	1295.613	1078.682
-34.954	29.097	1293.890	1077.671
-33.940	29.077	1292.664	1076.489
-32.925	28.994	1291.757	1075.205
-31.911	29.141	1289.863	1074.442
-30.896	29.135	1288.079	1072.878
-29.881	29.193	1287.128	1072.385
-28.867	29.034	1285.855	1070.355
-27.852	29.121	1284.100	1069.356
-26.838	29.176	1282.631	1068.411
-25.823	29.053	1281.730	1066.903
-24.809	29.086	1279.837	1065.477
-23.794	28.995	1279.221	1064.399
-22.779	29.109	1277.498	1063.577
-21.765	29.095	1275.743	1061.996
-20.750	29.106	1274.624	1061.086
-19.736	29.008	1273.272	1059.353
-18.721	29.012	1272.367	1058.578
-17.706	28.998	1270.898	1057.237
-16.692	29.014	1270.271	1056.761
-15.677	28.959	1269.295	1055.595
-14.663	28.952	1267.511	1054.031
-13.648	28.950	1266.774	1053.362
-12.633	28.961	1265.902	1052.657
-11.619	28.886	1265.449	1051.813
-10.604	28.865	1264.779	1051.095
-9.590	28.844	1263.728	1050.058
-8.575	28.857	1262.522	1049.085
-7.560	28.904	1261.232	1048.242
-6.546	28.993	1260.506	1048.102
-5.531	28.862	1259.700	1046.649
-4.517	28.843	1258.772	1045.725
-3.502	28.956	1258.029	1045.710
-2.487	28.925	1257.202	1044.805
-1.473	28.935	1253.477	1041.727
-0.458	27.725	1238.757	1022.672
0.556	22.938	1222.475	988.404
1.571	19.520	1228.898	974.252
2.586	18.814	1243.654	981.831
3.600	18.422	1232.648	970.832
4.615	13.542	1158.644	886.411
5.629	4.708	1082.529	783.771
6.644	0.436	1063.081	748.457
7.659	0.124	1060.741	745.199
8.673	0.037	1059.522	743.842
9.688	-0.036	1058.471	742.678
10.702	0.411	1055.973	743.064
11.717	5.387	1063.531	772.965
12.731	13.603	1074.330	821.630
13.746	17.212	1077.691	842.046
14.761	17.089	1076.306	840.279
15.775	15.955	1075.073	833.634
16.790	14.891	1073.030	826.716
17.804	14.290	1071.614	822.584
18.819	13.833	1070.936	819.734
19.834	13.708	1069.127	817.659
20.848	13.407	1068.475	815.606
21.863	13.140	1067.647	813.588
22.877	12.965	1067.064	812.209
23.892	13.075	1066.014	811.878
24.907	13.078	1065.124	811.147
25.921	13.145	1064.470	810.903
26.936	13.095	1063.767	810.050
27.950	13.198	1062.552	809.561
28.965	13.247	1061.800	809.154
29.980	13.288	1060.386	808.205
30.994	13.386	1058.906	807.487
32.009	13.404	1058.180	806.949
33.023	13.264	1057.376	805.579
34.038	13.269	1056.322	804.728
35.053	13.264	1055.727	804.180
36.067	13.251	1054.798	803.338
37.082	13.317	1053.719	802.768
38.096	13.170	1053.097	801.512
39.111	13.295	1052.220	801.376
40.126	13.097	1051.203	799.572
41.140	13.092	1049.843	798.443
42.155	12.962	1048.895	797.024
43.169	12.994	1048.131	796.529
44.184	13.038	1047.065	795.858
45.199	13.031	1046.160	795.068
46.213	13.010	1044.944	793.973
47.228	13.071	1043.850	793.361
48.242	13.148	1042.676	792.769
49.257	13.139	1041.560	791.809
50.271	13.150	1040.644	791.095
51.286	13.194	1039.879	790.654
52.301	13.192	1038.689	789.668
53.315	13.248	1037.390	788.878
54.330	13.107	1036.433	787.407
55.344	13.194	1035.487	787.037
56.359	13.119	1035.039	786.270
57.374	13.150	1033.860	785.450
58.388	13.083	1033.167	784.536
59.403	13.042	1032.151	783.501
60.417	13.050	1031.225	782.767
61.432	12.997	1030.982	782.260
62.447	12.976	1029.598	781.044
63.461	12.924	1029.109	780.355
64.476	12.936	1028.262	779.702
65.490	12.880	1027.801	779.017
66.505	12.911	1026.541	778.143
67.520	12.988	1025.781	777.857
68.534	13.003	1025.272	777.477
69.549	12.946	1024.329	776.421
70.563	12.877	1024.175	775.911
71.578	12.921	1023.387	775.455
72.593	12.881	1022.517	774.539
73.607	12.908	1021.597	773.902
74.622	12.923	1020.765	773.271
75.636	12.877	1020.408	772.714
76.651	12.948	1019.503	772.296
77.666	12.838	1019.204	771.488
78.680	12.938	1018.244	771.157
79.695	12.905	1017.803	770.602
80.709	13.030	1016.933	770.458
81.724	13.042	1016.302	769.969
82.739	13.090	1015.439	769.471
83.753	13.090	1014.753	768.882
84.768	13.121	1014.139	768.493
85.782	13.143	1012.611	767.370
86.797	13.193	1012.194	767.219
87.812	13.153	1011.197	766.210
88.826	13.139	1010.401	765.473
89.841	13.279	1009.179	765.129
90.855	13.258	1008.631	764.547
91.870	13.235	1007.363	763.413
92.884	13.203	1006.760	762.740
93.899	13.239	1006.204	762.416
94.914	13.252	1004.958	761.464
95.928	13.261	1004.270	760.917
96.943	13.258	1003.449	760.217
97.957	13.275	1002.595	759.579
98.972	13.298	1001.493	758.781
99.987	13.303	1000.537	758.014
101.001	13.177	999.552	756.624
102.016	13.252	998.887	756.398
103.030	13.268	997.953	755.696
104.045	13.312	997.097	755.180
105.060	13.253	996.140	754.120
106.074	13.148	995.730	753.265
107.089	13.120	994.429	752.086
108.103	13.073	993.522	751.120
109.118	13.038	992.755	750.314
110.133	13.071	991.740	749.632
111.147	13.024	991.142	748.900
112.162	13.126	990.113	748.518
113.176	12.990	989.629	747.469
114.191	13.133	988.485	747.187
115.206	13.096	987.722	746.378
116.220	13.080	987.020	745.707
117.235	13.112	985.780	744.851
118.249	13.081	985.485	744.421
119.264	13.187	984.137	743.815
120.279	13.132	983.947	743.358
121.293	13.037	983.092	742.219
122.308	13.103	981.863	741.521
123.322	13.069	981.433	740.977
124.337	13.106	979.763	739.818
125.352	13.108	978.915	739.121
126.366	13.035	977.685	737.802
127.381	13.140	976.729	737.483
128.395	13.118	976.003	736.770
129.410	13.144	975.039	736.094
130.424	13.122	974.161	735.269
131.439	13.207	973.528	735.102
132.454	13.227	972.493	734.344
133.468	13.244	971.784	733.821
134.483	13.180	970.810	732.738
135.497	13.085	970.219	731.806
136.512	13.225	969.126	731.534
137.527	13.189	968.613	730.925
138.541	13.136	968.096	730.233
139.556	13.229	967.204	729.910
140.570	13.277	966.476	729.505
141.585	13.313	965.405	728.791
142.600	13.411	964.368	728.377
143.614	13.409	963.561	727.691
144.629	13.337	963.240	727.071
145.643	13.277	962.430	726.128
146.658	13.375	960.958	725.386
147.673	13.291	959.967	724.205
148.687	13.211	959.462	723.412
149.702	13.094	958.729	722.283
150.716	13.310	957.457	722.203
151.731	13.231	957.302	721.678
152.746	13.433	955.926	721.455
153.760	13.479	955.102	720.972
154.775	13.287	955.266	720.195
155.789	13.437	954.302	720.058
156.804	13.485	953.650	719.710
157.819	13.352	952.961	718.550
158.833	13.410	952.245	718.198
159.848	13.537	951.551	718.162
160.862	13.518	950.856	717.489
161.877	13.394	949.864	716.141
162.892	13.463	948.397	715.268
163.906	13.373	948.038	714.549
164.921	13.298	947.089	713.443
165.935	13.362	946.027	712.857
166.950	13.456	945.231	712.601
167.964	13.398	944.588	711.805
168.979	13.437	943.359	710.980
169.994	13.453	942.637	710.442
171.008	13.517	941.906	710.103
172.023	13.553	941.090	709.578
173.037	13.522	940.749	709.129
174.052	13.551	939.731	708.421
175.067	13.499	939.021	707.599
176.081	13.434	938.686	707.007
177.096	13.560	938.032	706.990
178.110	13.572	937.533	706.604
179.125	13.468	936.785	705.536
180.140	13.582	936.361	705.638
181.154	13.679	935.515	705.350
182.169	13.616	935.534	705.036
183.183	13.757	934.799	705.018
184.198	13.670	933.471	703.584
185.213	13.610	933.264	703.112
186.227	13.715	932.379	702.827
187.242	13.658	931.950	702.202
188.256	13.841	931.224	702.365
189.271	13.720	930.609	701.330
190.286	13.468	930.144	699.849
191.300	13.550	929.104	699.350
192.315	13.572	928.064	698.598
193.329	13.532	928.079	698.380
194.344	13.654	927.188	698.164
195.359	13.586	926.613	697.381
196.373	13.776	925.899	697.579
197.388	13.804	925.416	697.273
198.402	13.845	924.820	696.933
199.417	13.907	924.153	696.630
200.432	13.822	923.683	695.860
201.446	13.980	923.015	695.956
202.461	13.940	922.592	695.406
203.475	13.930	922.100	694.934
204.490	14.044	921.198	694.669
205.504	13.842	920.923	693.553
206.519	13.891	920.001	693.007
207.534	13.831	919.224	692.107
208.548	13.902	918.829	692.045
209.563	13.996	917.626	691.470
210.577	14.074	917.062	691.307
211.592	14.101	916.614	691.019
212.607	14.142	915.322	690.155
213.621	14.146	914.570	689.544
214.636	14.135	914.250	689.196
215.650	14.222	913.204	688.706
216.665	14.218	912.633	688.199
217.680	14.206	912.055	687.650
218.694	14.268	911.354	687.320
219.709	14.164	910.803	686.414
220.723	14.195	910.540	686.281
221.738	14.285	909.470	685.784
222.753	14.269	908.972	685.286
223.767	14.323	908.243	684.894
224.782	14.364	907.911	684.751
225.796	14.274	907.249	683.823
226.811	14.306	906.973	683.685
227.826	14.199	905.921	682.393
228.840	14.190	905.173	681.734
229.855	14.246	904.490	681.389
230.869	14.342	903.404	680.902
231.884	14.276	902.728	680.064
232.899	14.145	902.164	679.045
233.913	14.241	901.177	678.633
234.928	14.201	900.587	677.963
235.942	14.172	900.136	677.448
236.957	14.329	899.367	677.447
237.972	14.182	899.162	676.636
238.986	14.424	898.208	676.838
240.001	14.330	897.834	676.115
241.015	14.496	896.915	676.037
242.030	14.357	896.453	675.066
243.045	14.424	895.663	674.682
244.059	14.495	895.399	674.710
245.074	14.268	894.932	673.383
246.088	14.456	894.196	673.527
247.103	14.405	893.313	672.595
248.117	14.469	893.161	672.681
249.132	14.678	891.930	672.538
250.147	14.679	891.413	672.092
251.161	14.598	891.104	671.475
252.176	14.790	890.132	671.453
253.190	14.886	889.762	671.501
254.205	14.754	889.049	670.371
255.220	14.749	888.450	669.842
256.234	14.785	887.770	669.413
257.249	14.764	886.734	668.490
258.263	14.850	886.074	668.278
259.278	14.778	885.776	667.706
260.293	14.844	885.006	667.328
261.307	15.037	884.209	667.440
262.322	15.114	883.752	667.344
263.336	14.869	882.983	665.725
264.351	14.851	882.073	664.911
265.366	14.986	882.028	665.353
266.380	14.929	881.442	664.626
267.395	14.877	880.404	663.577
268.409	14.984	879.582	663.325
269.424	15.124	878.754	663.195
270.439	14.928	878.127	661.887
271.453	15.051	877.596	661.918
272.468	14.958	877.008	661.045
273.482	14.980	876.683	660.829
274.497	14.947	875.799	659.977
275.512	15.053	875.420	660.048
276.526	14.989	875.137	659.524
277.541	15.050	874.555	659.268
278.555	15.162	873.720	659.021
279.570	15.153	873.151	658.498
280.585	15.196	872.455	658.084
281.599	15.080	871.163	656.598
282.614	15.203	871.272	657.103
283.628	15.151	870.312	656.117
284.643	15.262	869.793	656.105
285.657	15.368	869.148	655.972
286.672	15.188	868.582	654.784
287.687	15.140	867.865	653.998
288.701	15.325	867.662	654.507
289.716	15.242	866.914	653.564
290.730	15.367	866.208	653.460
291.745	15.312	865.862	652.925
292.760	15.254	865.265	652.193
293.774	15.416	864.625	652.285
294.789	15.397	863.885	651.592
295.803	15.367	863.440	651.083
296.818	15.317	862.662	650.244
297.833	15.424	861.616	649.816
298.847	15.540	860.951	649.704
299.862	15.333	860.845	648.764
300.876	15.504	860.152	648.846
301.891	15.516	859.660	648.466
302.906	15.534	858.997	647.978
303.920	15.496	858.671	647.528
304.935	15.708	857.919	647.720
305.949	15.601	857.453	646.898
306.964	15.544	856.693	646.046
307.979	15.571	856.557	645.992
308.993	15.547	855.876	645.327
310.008	15.692	854.990	645.162
311.022	15.570	854.682	644.402
312.037	15.730	853.814	644.303
313.052	15.631	853.387	643.545
314.066	15.565	853.047	642.979
315.081	15.630	852.197	642.530
316.095	15.551	851.892	641.944
317.110	15.583	851.478	641.698
318.125	15.583	850.819	641.145
319.139	15.788	849.886	641.165
320.154	15.744	849.446	640.607
321.168	15.751	849.206	640.396
322.183	15.652	848.677	639.564
323.197	15.632	848.574	639.353
324.212	15.703	847.583	638.822
325.227	15.747	846.683	638.252
326.241	15.792	846.326	638.099
327.256	15.714	845.788	637.341
328.270	15.668	845.252	636.705
329.285	15.647	844.611	636.088
330.300	15.772	844.092	636.114
331.314	15.702	843.783	635.560
332.329	15.902	843.113	635.755
333.343	15.917	842.585	635.357
334.358	15.887	842.438	635.076
335.373	15.812	841.993	634.402
336.387	15.893	841.667	634.405
337.402	15.962	841.026	634.124
338.416	16.022	840.988	634.264
339.431	15.958	840.439	633.553
340.446	16.024	840.029	633.438
341.460	16.104	839.729	633.456
342.475	16.119	839.163	633.030
343.489	16.157	838.863	632.889
344.504	16.219	838.392	632.712
345.519	16.055	838.219	631.909
346.533	16.219	837.369	631.826
347.548	16.216	836.632	631.205
348.562	16.128	836.334	630.592
349.577	16.035	835.877	629.847
350.592	15.953	835.044	628.857
351.606	16.098	834.674	629.065
352.621	16.179	834.204	628.956
353.635	16.209	833.183	628.241
354.650	16.246	832.251	627.620
355.665	16.216	831.696	627.035
356.679	16.135	831.531	626.557
357.694	16.168	830.899	626.145
358.708	16.211	830.376	625.855
359.723	16.234	829.632	625.327
360.738	16.271	828.717	624.718
361.752	16.435	828.049	624.765
362.767	16.493	827.463	624.479
363.781	16.374	827.117	623.725
364.796	16.366	826.597	623.250
365.810	16.477	826.269	623.356
366.825	16.549	826.028	623.386
367.840	16.573	825.831	623.267
368.854	16.431	825.343	622.321
369.869	16.446	824.670	621.813
370.883	16.636	823.896	621.876
371.898	16.564	824.014	621.645
372.913	16.545	823.684	621.268
373.927	16.644	823.084	621.124
374.942	16.603	822.398	620.402
375.956	16.771	822.058	620.708
376.971	16.751	821.653	620.272
377.986	16.779	820.845	619.710
379.000	16.709	821.017	619.528
380.015	16.697	819.945	618.622
381.029	16.910	819.276	618.840
382.044	16.895	818.738	618.323
383.059	16.805	818.168	617.510
384.073	16.819	817.862	617.277
385.088	16.765	817.444	616.711
386.102	16.826	816.545	616.200
387.117	16.791	816.193	615.751
388.132	16.892	815.346	615.423
389.146	16.848	814.848	614.834
390.161	16.880	814.758	614.829
391.175	16.696	814.508	613.918
392.190	16.885	813.800	614.015
393.205	16.812	813.291	613.313
394.219	16.771	812.961	612.862
395.234	16.884	812.513	612.876
396.248	16.920	811.907	612.496
397.263	16.935	811.492	612.183
398.278	16.782	811.127	611.302
399.292	16.825	810.884	611.220
400.307	16.957	810.135	611.076
401.321	16.941	809.870	610.766
402.336	16.986	809.263	610.414
403.350	16.909	809.175	610.018
404.365	17.004	808.690	609.939
405.380	16.965	808.246	609.410
406.394	17.202	807.424	609.586
407.409	17.218	806.788	609.110
408.423	17.144	806.881	608.863
409.438	17.127	806.438	608.413
410.453	17.306	805.875	608.573
411.467	17.288	805.031	607.817
412.482	17.237	805.185	607.699
413.496	17.203	805.103	607.462
414.511	17.240	804.448	607.047
415.526	17.355	803.402	606.611
416.540	17.286	803.392	606.306
417.555	17.361	802.536	605.871
418.569	17.360	802.507	605.792
419.584	17.468	802.400	606.045
420.599	17.253	801.992	604.918
421.613	109.394	1292.207	1470.830
422.628	94.210	1363.603	1470.939
