DTS Sentinel unit serial number:	SN413079Multiplexer serial number:	ORYXHardware model number:	OX4-SRSoftware version number:	ORYX F/W v4.00 Oryx Data Collector v3.7.2.0data status	okinstallation	princeton_trtdifferential loss correction	single-endedforward channel	channel 1reverse channel	N/Adate	2019/09/13time	05:26:35forward acquisition time	60.00reverse acquisition time	0.00gamma	496.2192k internal	0.2336k external	0.2336temperature offset calibration	1.0163default loss term (dB/km)	0.3790temperature slope calibration	1.0000multiplexer offset coefficient	1.0000multiplexer slope coefficient	1.0000fibre end	0.00T internal ref (°C)	26.30T ext. ref 1 (°C)	4.04T ext. ref 2 (°C)	20.90length (m)	temperature (°C)	Stokes	anti-Stokes-747.200	3.626	-0.173	-0.127
-746.185	-118.381	-0.332	0.059
-745.171	136.148	0.069	0.090
-744.156	800.000	0.037	0.161
-743.142	35.753	-0.183	-0.161
-742.127	800.000	0.054	-0.197
-741.112	350.326	-0.188	-0.373
-740.098	-170.752	-0.412	-0.014
-739.083	-200.000	0.012	0.157
-738.069	545.248	0.117	0.281
-737.054	493.807	-0.134	0.309
-736.039	45.519	-0.204	0.189
-735.025	453.706	0.099	0.219
-734.010	-165.861	-0.097	-0.004
-732.996	800.000	-0.047	0.179
-731.981	-42.580	-0.231	-0.118
-730.966	261.434	0.031	-0.054
-729.952	-200.000	-0.075	-0.548
-728.937	-200.000	-0.001	-0.231
-727.923	-91.201	-0.108	-0.031
-726.908	114.584	-0.128	0.156
-725.894	88.164	-0.352	-0.392
-724.879	352.584	-0.153	-0.304
-723.864	220.110	-0.072	-0.116
-722.850	-200.000	0.012	0.200
-721.835	-132.846	0.296	-0.038
-720.821	-200.000	0.043	-0.285
-719.806	310.120	-0.165	-0.310
-718.791	88.563	-0.294	0.328
-717.777	-124.301	-0.494	-0.077
-716.762	-102.473	-0.200	0.048
-715.748	-200.000	-0.009	0.097
-714.733	-9.742	0.139	-0.093
-713.718	-167.083	-0.381	0.016
-712.704	496.057	-0.147	-0.339
-711.689	61.351	-0.056	0.056
-710.675	-42.646	0.144	-0.074
-709.660	-172.017	0.173	0.006
-708.645	43.260	-0.344	0.315
-707.631	-200.000	0.026	-0.261
-706.616	33.087	-0.282	-0.245
-705.602	800.000	0.092	-0.266
-704.587	264.326	-0.205	-0.359
-703.572	-138.018	0.242	0.027
-702.558	-200.000	-0.025	0.238
-701.543	-177.325	0.221	0.005
-700.529	210.143	-0.165	-0.260
-699.514	800.000	0.039	-0.113
-698.499	-163.515	0.333	-0.016
-697.485	202.428	0.144	-0.222
-696.470	-145.238	0.280	0.025
-695.456	458.219	-0.057	-0.126
-694.441	320.319	0.070	0.134
-693.426	-52.391	0.307	-0.142
-692.412	-58.389	0.061	0.026
-691.397	-17.012	-0.339	-0.215
-690.383	198.888	0.040	-0.061
-689.368	-65.890	-0.423	-0.169
-688.354	483.604	0.117	-0.267
-687.339	-53.867	-0.359	-0.164
-686.324	-97.907	-0.271	0.070
-685.310	-200.000	-0.009	-0.053
-684.295	62.172	-0.142	-0.142
-683.281	476.545	-0.068	-0.155
-682.266	-2.660	0.133	0.093
-681.251	-13.421	0.154	0.100
-680.237	378.358	-0.084	0.172
-679.222	800.000	0.103	-0.420
-678.208	158.514	0.113	-0.158
-677.193	-200.000	-0.011	-0.218
-676.178	-109.415	0.285	-0.060
-675.164	154.931	-0.124	0.171
-674.149	230.838	-0.025	0.041
-673.135	41.284	0.552	-0.500
-672.120	-62.202	-0.310	-0.129
-671.105	800.000	0.084	0.264
-670.091	-69.949	0.227	0.087
-669.076	-87.747	-0.116	-0.035
-668.062	-141.274	0.345	-0.035
-667.047	-18.833	0.212	-0.132
-666.032	-109.593	-0.072	-0.015
-665.018	53.767	-0.043	0.041
-664.003	125.141	0.297	0.374
-662.989	258.644	-0.046	0.079
-661.974	301.686	0.038	-0.070
-660.959	63.410	-0.006	-0.006
-659.945	135.790	-0.103	0.134
-658.930	16.948	-0.196	-0.155
-657.916	-200.000	0.004	0.137
-656.901	-19.425	0.116	-0.072
-655.886	-200.000	0.032	0.166
-654.872	-40.891	0.319	0.165
-653.857	-0.802	-0.161	-0.114
-652.843	286.380	-0.093	-0.169
-651.828	-69.024	-0.218	-0.084
-650.814	222.733	-0.097	-0.157
-649.799	-68.825	0.137	0.053
-648.784	23.678	-0.084	0.069
-647.770	-84.262	0.383	-0.121
-646.755	-46.224	-0.186	0.091
-645.741	-200.000	0.011	-0.063
-644.726	800.000	0.099	-0.368
-643.711	103.470	0.108	-0.127
-642.697	431.268	-0.049	-0.106
-641.682	125.834	-0.192	-0.243
-640.668	-61.612	-0.050	0.021
-639.653	-131.770	0.332	0.043
-638.638	-12.435	0.272	-0.178
-637.624	-200.000	-0.023	-0.197
-636.609	-118.317	0.364	-0.065
-635.595	800.000	0.085	0.327
-634.580	-87.297	-0.162	-0.049
-633.565	602.193	-0.025	-0.061
-632.551	800.000	0.024	-0.086
-631.536	-8.798	-0.155	-0.104
-630.522	-143.481	0.235	0.022
-629.507	-94.685	0.126	0.034
-628.492	228.973	0.192	-0.313
-627.478	359.981	0.049	0.098
-626.463	-200.000	0.049	0.221
-625.449	-123.526	0.185	0.029
-624.434	409.756	0.074	-0.157
-623.419	-21.067	0.138	0.085
-622.405	-79.434	0.138	-0.047
-621.390	-200.000	-0.038	0.194
-620.376	-200.000	-0.037	0.169
-619.361	275.474	-0.101	-0.179
-618.346	-82.684	-0.042	0.014
-617.332	-200.000	-0.065	0.356
-616.317	593.218	0.047	-0.115
-615.303	597.444	0.051	-0.127
-614.288	19.262	-0.206	0.165
-613.273	800.000	0.077	0.253
-612.259	-117.948	0.132	-0.024
-611.244	49.354	0.148	0.139
-610.230	-200.000	-0.014	0.218
-609.215	543.699	-0.011	0.026
-608.201	-97.174	-0.147	-0.038
-607.186	-69.983	0.150	0.057
-606.171	-96.316	-0.297	0.078
-605.157	800.000	0.019	0.070
-604.142	214.074	-0.127	0.201
-603.128	217.233	-0.180	0.286
-602.113	800.000	0.043	-0.173
-601.098	-145.819	0.156	0.014
-600.084	-200.000	0.032	0.402
-599.069	-200.000	-0.011	0.089
-598.055	-200.000	-0.040	0.200
-597.040	77.348	-0.327	0.347
-596.025	-200.000	0.039	-0.254
-595.011	-200.000	0.027	0.173
-593.996	163.655	-0.118	0.166
-592.982	-200.000	0.019	0.211
-591.967	207.130	0.218	0.340
-590.952	-93.540	0.318	0.088
-589.938	193.778	0.110	-0.166
-588.923	57.618	0.183	0.179
-587.909	63.107	0.122	-0.122
-586.894	-56.816	0.342	0.151
-585.879	-194.974	-0.235	-0.002
-584.865	-11.401	-0.074	0.049
-583.850	-200.000	0.003	-0.025
-582.836	-53.374	0.321	0.147
-581.821	-67.039	0.151	0.059
-580.806	271.240	-0.190	0.335
-579.792	-200.000	0.000	0.188
-578.777	99.181	0.272	-0.313
-577.763	-36.883	0.149	-0.080
-576.748	-200.000	0.024	0.485
-575.733	-116.817	0.430	0.079
-574.719	271.151	-0.087	0.153
-573.704	-200.000	0.032	0.216
-572.690	697.843	0.134	0.350
-571.675	48.541	0.066	-0.062
-570.661	0.273	0.277	-0.197
-569.646	1.434	-0.540	-0.388
-568.631	-200.000	-0.022	-0.204
-567.617	-67.385	-0.183	0.072
-566.602	-200.000	-0.009	-0.118
-565.588	96.789	-0.109	-0.125
-564.573	-200.000	-0.010	-0.058
-563.558	599.071	-0.079	-0.196
-562.544	-139.500	0.207	-0.022
-561.529	274.838	-0.081	0.143
-560.515	-178.790	0.136	-0.003
-559.500	-136.060	0.274	0.032
-558.485	510.599	0.059	0.137
-557.471	123.990	-0.131	-0.163
-556.456	-44.566	-0.164	-0.082
-555.442	-77.566	-0.062	-0.022
-554.427	13.213	0.181	0.140
-553.412	128.489	-0.094	0.120
-552.398	800.000	-0.112	0.353
-551.383	305.120	0.073	-0.135
-550.369	76.418	0.139	-0.147
-549.354	209.935	0.109	0.170
-548.339	-200.000	0.019	-0.322
-547.325	800.000	0.064	-0.200
-546.310	9.043	0.274	0.207
-545.296	-8.117	0.127	0.085
-544.281	800.000	0.025	0.080
-543.266	-62.531	-0.057	-0.023
-542.252	-200.000	0.024	-0.114
-541.237	126.208	-0.067	-0.084
-540.223	-60.429	-0.353	0.150
-539.208	14.007	0.376	-0.292
-538.193	-21.440	0.315	0.191
-537.179	537.850	0.072	-0.170
-536.164	-65.649	0.271	-0.108
-535.150	114.379	-0.213	0.258
-534.135	302.224	-0.075	0.139
-533.121	286.795	-0.158	0.285
-532.106	157.861	-0.334	-0.461
-531.091	21.571	-0.149	0.121
-530.077	68.962	0.186	0.190
-529.062	-34.649	-0.167	-0.091
-528.048	-200.000	-0.003	-0.067
-527.033	197.176	-0.036	-0.054
-526.018	-200.000	0.016	0.094
-525.004	-100.760	-0.266	-0.065
-523.989	5.552	-0.147	0.108
-522.975	75.248	-0.346	0.363
-521.960	273.577	-0.130	-0.229
-520.945	-200.000	-0.005	0.055
-519.931	-200.000	0.012	0.145
-518.916	-166.959	0.123	0.005
-517.902	21.622	-0.293	0.238
-516.887	-15.696	-0.259	-0.164
-515.872	-179.540	-0.128	-0.003
-514.858	507.181	0.095	-0.220
-513.843	-9.570	0.132	-0.087
-512.829	78.559	0.176	0.187
-511.814	-132.110	0.042	0.005
-510.799	800.000	-0.052	0.183
-509.785	-73.904	0.040	0.014
-508.770	-7.132	0.180	-0.122
-507.756	-23.770	-0.056	0.033
-506.741	607.464	0.135	0.335
-505.726	64.622	-0.202	-0.203
-504.712	-44.260	0.151	0.075
-503.697	-161.355	0.277	0.014
-502.683	-97.766	0.216	0.056
-501.668	585.689	-0.042	-0.104
-500.653	96.047	-0.117	-0.133
-499.639	26.068	-0.279	0.232
-498.624	282.316	-0.128	0.228
-497.610	-93.697	0.347	-0.095
-496.595	800.000	-0.069	-0.284
-495.581	-40.707	-0.566	0.292
-494.566	138.109	0.127	-0.165
-493.551	146.096	-0.200	0.266
-492.537	-44.052	-0.140	-0.070
-491.522	310.643	-0.133	-0.248
-490.508	-200.000	-0.012	0.067
-489.493	3.049	0.192	-0.139
-488.478	800.000	-0.113	-0.392
-487.464	629.018	0.090	-0.226
-486.449	57.044	-0.140	-0.136
-485.435	117.100	0.148	0.181
-484.420	800.000	-0.057	0.236
-483.405	-200.000	0.034	0.227
-482.391	86.199	-0.286	0.313
-481.376	-80.821	0.191	-0.063
-480.362	-200.000	0.017	0.165
-479.347	-45.070	-0.238	-0.118
-478.332	-6.527	0.030	0.021
-477.318	-200.000	0.001	0.093
-476.303	-200.000	0.015	-0.307
-475.289	160.966	-0.050	0.070
-474.274	-80.822	-0.230	-0.076
-473.259	78.076	-0.352	-0.373
-472.245	-100.024	-0.282	0.070
-471.230	-200.000	0.028	-0.437
-470.216	-1.467	-0.063	0.044
-469.201	427.596	-0.042	0.090
-468.186	-69.286	0.123	0.047
-467.172	-84.171	-0.391	-0.123
-466.157	-200.000	0.025	0.111
-465.143	328.390	-0.028	-0.053
-464.128	-197.262	-0.044	0.000
-463.113	353.186	-0.103	0.202
-462.099	-24.223	0.274	-0.162
-461.084	54.915	0.149	-0.143
-460.070	-106.448	-0.366	0.081
-459.055	593.737	0.152	-0.373
-458.040	-200.000	-0.007	-0.323
-457.026	-200.000	0.042	0.240
-456.011	-165.860	0.379	0.016
-454.997	-62.383	-0.204	-0.084
-453.982	-85.804	-0.120	-0.037
-452.968	800.000	-0.034	-0.105
-451.953	-3.671	-0.273	-0.189
-450.938	-24.016	0.117	0.070
-449.924	60.569	-0.227	0.223
-448.909	-19.201	0.020	0.012
-447.895	-155.051	0.166	0.011
-446.880	3.911	-0.070	-0.051
-445.865	8.129	-0.107	-0.079
-444.851	-34.027	0.170	-0.093
-443.836	-42.029	-0.093	-0.047
-442.822	-76.026	-0.341	-0.120
-441.807	600.969	-0.063	-0.157
-440.792	57.016	-0.249	-0.241
-439.778	-79.097	-0.224	-0.075
-438.763	-43.197	-0.324	0.163
-437.749	-200.000	0.033	-0.209
-436.734	72.787	0.106	-0.110
-435.719	110.709	-0.172	-0.206
-434.705	-200.000	-0.003	0.133
-433.690	-35.933	0.376	0.202
-432.676	149.238	0.132	0.177
-431.661	-28.418	0.276	-0.158
-430.646	62.327	0.043	0.043
-429.632	-130.965	0.468	-0.062
-428.617	78.485	-0.139	0.147
-427.603	-154.856	0.159	-0.010
-426.588	-56.462	-0.079	0.035
-425.573	428.624	0.068	0.146
-424.559	-18.009	0.283	0.176
-423.544	-14.205	0.165	0.106
-422.530	185.540	-0.185	-0.272
-421.515	112.445	0.105	-0.126
-420.500	-182.956	-0.077	0.001
-419.486	1.225	-0.047	0.034
-418.471	-200.000	-0.058	-0.379
-417.457	611.648	-0.067	0.166
-416.442	-200.000	0.008	0.380
-415.428	-146.997	0.111	0.009
-414.413	112.887	0.103	0.124
-413.398	110.186	-0.203	-0.242
-412.384	-94.575	-0.117	0.032
-411.369	81.237	-0.201	-0.215
-410.355	-200.000	0.002	-0.432
-409.340	-200.000	-0.042	-0.337
-408.325	-200.000	0.053	0.299
-407.311	146.283	0.175	0.233
-406.296	-42.731	0.204	0.103
-405.282	-86.953	0.052	-0.016
-404.267	800.000	-0.070	0.222
-403.252	87.534	-0.052	0.057
-402.238	-200.000	0.036	-0.295
-401.223	-200.000	0.027	-0.282
-400.209	-200.000	-0.173	0.000
-399.194	-80.238	-0.188	-0.062
-398.179	147.556	0.049	-0.065
-397.165	-63.635	0.247	-0.101
-396.150	-200.000	-0.071	-0.469
-395.136	95.374	0.010	-0.012
-394.121	-200.000	-0.006	-0.102
-393.106	-15.401	-0.044	-0.028
-392.092	375.041	-0.209	-0.422
-391.077	-60.583	0.079	0.033
-390.063	603.149	-0.088	-0.216
-389.048	-200.000	-0.047	0.220
-388.033	431.209	-0.118	-0.253
-387.019	-200.000	0.026	-0.130
-386.004	-65.017	0.178	0.071
-384.990	-200.000	-0.029	-0.197
-383.975	-31.654	-0.034	-0.019
-382.960	-167.028	-0.029	0.001
-381.946	24.111	0.062	0.050
-380.931	55.898	0.169	0.163
-379.917	115.428	0.096	0.116
-378.902	-102.206	0.173	0.041
-377.888	-189.398	-0.079	0.001
-376.873	0.831	0.106	-0.075
-375.858	-34.399	-0.343	0.186
-374.844	-106.364	0.511	-0.113
-373.829	275.624	0.013	0.022
-372.815	51.964	-0.091	0.086
-371.800	246.356	0.125	-0.208
-370.785	-200.000	0.012	-0.141
-369.771	800.000	-0.018	0.066
-368.756	-174.979	-0.103	-0.003
-367.742	-200.000	-0.003	-0.307
-366.727	113.256	0.091	-0.109
-365.712	-200.000	-0.048	-0.448
-364.698	-105.151	-0.085	0.019
-363.683	80.093	-0.109	0.116
-362.669	-69.098	-0.151	-0.057
-361.654	800.000	0.089	-0.254
-360.639	-65.898	0.260	0.103
-359.625	58.261	-0.059	0.057
-358.610	169.581	0.248	-0.351
-357.596	578.369	0.021	0.051
-356.581	800.000	-0.045	-0.185
-355.566	-200.000	-0.019	-0.115
-354.552	-76.360	-0.075	0.026
-353.537	800.000	-0.076	0.223
-352.523	800.000	-0.025	0.088
-351.508	-84.588	-0.288	-0.090
-350.493	-147.086	-0.229	0.019
-349.479	-152.693	-0.291	0.021
-348.464	86.616	0.203	0.222
-347.450	-48.788	-0.136	-0.064
-346.435	-155.817	0.333	0.021
-345.420	177.367	-0.157	-0.226
-344.406	-62.276	-0.329	0.136
-343.391	-40.394	0.377	-0.194
-342.377	-200.000	-0.032	-0.327
-341.362	800.000	-0.101	-0.281
-340.348	800.000	-0.016	-0.058
-339.333	-56.328	-0.196	-0.086
-338.318	-55.364	-0.119	0.053
-337.304	497.640	-0.027	-0.062
-336.289	465.697	0.162	0.359
-335.275	214.785	-0.155	0.243
-334.260	391.652	0.102	0.210
-333.245	63.503	0.039	-0.039
-332.231	151.887	-0.114	0.154
-331.216	167.490	0.157	0.221
-330.202	-21.979	0.132	-0.079
-329.187	470.641	0.037	-0.081
-328.172	205.929	-0.156	0.240
-327.158	-42.288	-0.151	-0.076
-326.143	7.562	-0.232	0.171
-325.129	-62.024	0.281	0.116
-324.114	-154.453	0.345	-0.023
-323.099	-55.657	0.170	-0.075
-322.085	653.486	0.116	0.294
-321.070	59.081	0.174	0.170
-320.056	-116.624	-0.297	-0.054
-319.041	800.000	-0.088	-0.333
-318.026	-26.946	-0.167	0.096
-317.012	245.603	-0.062	0.104
-315.997	225.678	0.050	0.080
-314.983	-68.202	0.112	0.043
-313.968	264.451	0.102	-0.176
-312.953	-34.341	0.205	0.111
-311.939	618.073	-0.050	-0.124
-310.924	-200.000	0.014	-0.157
-309.910	-200.000	-0.015	0.063
-308.895	206.442	-0.186	-0.287
-307.880	96.422	0.183	-0.207
-306.866	93.678	0.301	0.336
-305.851	375.877	-0.139	-0.279
-304.837	-101.372	0.200	-0.048
-303.822	800.000	0.129	0.382
-302.807	-150.187	-0.042	-0.003
-301.793	-121.544	0.347	0.057
-300.778	-200.000	-0.027	0.138
-299.764	87.472	-0.156	-0.170
-298.749	-45.980	-0.402	-0.196
-297.735	203.231	0.096	-0.147
-296.720	-200.000	-0.007	0.000
-295.705	-200.000	0.060	0.289
-294.691	754.713	0.102	0.272
-293.676	800.000	-0.178	0.566
-292.662	-103.381	-0.202	0.047
-291.647	276.329	0.073	0.127
-290.632	800.000	0.098	-0.410
-289.618	-93.966	0.350	-0.095
-288.603	476.490	0.082	-0.182
-287.589	-200.000	0.030	-0.281
-286.574	-200.000	0.008	-0.219
-285.559	-19.615	-0.169	0.103
-284.545	-86.990	-0.186	-0.056
-283.530	-200.000	-0.036	-0.238
-282.516	-66.811	-0.228	-0.089
-281.501	-187.382	-0.267	0.004
-280.486	-32.365	0.114	-0.063
-279.472	-64.976	0.294	-0.117
-278.457	-200.000	0.033	-0.174
-277.443	-50.555	-0.159	-0.074
-276.428	11.537	-0.102	-0.077
-275.413	302.626	0.087	0.158
-274.399	-200.000	-0.065	0.281
-273.384	215.791	-0.137	0.214
-272.370	-132.052	0.255	-0.033
-271.355	97.568	0.166	0.188
-270.340	-200.000	-0.010	0.099
-269.326	180.345	-0.136	0.197
-268.311	108.157	0.083	0.097
-267.297	292.468	0.133	-0.239
-266.282	800.000	0.051	0.172
-265.267	69.126	0.251	0.254
-264.253	-200.000	0.048	-0.415
-263.238	354.168	0.064	-0.125
-262.224	-56.234	-0.330	0.145
-261.209	-49.605	0.232	0.109
-260.195	-200.000	-0.036	0.297
-259.180	182.426	-0.237	-0.344
-258.165	-93.871	-0.265	-0.072
-257.151	-93.584	0.147	-0.040
-256.136	268.480	0.118	-0.203
-255.122	800.000	0.073	-0.216
-254.107	-49.908	0.216	-0.101
-253.092	194.268	-0.182	0.271
-252.078	-200.000	0.031	0.241
-251.063	-29.660	-0.171	-0.096
-250.049	-80.142	0.252	-0.083
-249.034	-72.141	-0.057	-0.021
-248.019	150.289	-0.195	0.261
-247.005	34.313	0.152	-0.131
-245.990	-126.103	0.132	-0.020
-244.976	192.974	0.126	0.187
-243.961	631.621	-0.059	0.148
-242.946	-200.000	-0.024	0.228
-241.932	-59.419	0.271	-0.115
-240.917	-54.651	-0.249	0.111
-239.903	-34.638	0.173	0.093
-238.888	-200.000	0.024	-0.118
-237.873	435.367	-0.200	0.428
-236.859	263.085	-0.137	-0.234
-235.844	229.425	-0.086	-0.138
-234.830	-58.137	0.036	0.015
-233.815	717.683	0.048	-0.125
-232.800	62.027	-0.257	-0.252
-231.786	-200.000	0.042	0.239
-230.771	-130.987	-0.524	0.069
-229.757	-109.767	-0.385	0.080
-228.742	-49.875	-0.173	0.081
-227.727	92.693	0.156	-0.173
-226.713	138.835	0.054	-0.070
-225.698	2.223	-0.279	-0.199
-224.684	-32.304	0.213	-0.117
-223.669	-200.000	0.052	0.227
-222.655	124.914	-0.063	-0.078
-221.640	-200.000	0.008	0.145
-220.625	-136.127	0.395	0.046
-219.611	-91.470	0.286	0.080
-218.596	98.864	0.111	0.126
-217.582	-39.708	-0.490	0.252
-216.567	520.360	-0.119	-0.273
-215.552	800.000	-0.018	-0.070
-214.538	-97.613	-0.275	0.070
-213.523	154.511	-0.171	-0.232
-212.509	-200.000	0.034	0.242
-211.494	286.278	0.187	0.332
-210.479	42.708	0.269	0.241
-209.465	-53.460	-0.335	-0.151
-208.450	-200.000	0.046	0.512
-207.436	-58.744	-0.246	0.105
-206.421	-136.689	0.365	-0.041
-205.406	800.000	-0.078	-0.306
-204.392	-96.629	-0.350	-0.091
-203.377	-120.734	0.288	-0.048
-202.363	29.932	-0.133	-0.111
-201.348	97.081	-0.051	-0.057
-200.333	-52.985	0.243	-0.110
-199.319	800.000	-0.050	-0.170
-198.304	311.149	-0.127	0.235
-197.290	-164.378	-0.164	-0.007
-196.275	-13.827	0.132	0.084
-195.260	-200.000	0.012	-0.178
-194.246	-52.801	0.043	0.020
-193.231	-200.000	-0.016	0.070
-192.217	-200.000	-0.008	-0.131
-191.202	-60.076	0.351	0.147
-190.187	-153.339	-0.227	0.016
-189.173	321.989	0.192	0.358
-188.158	35.872	0.291	0.252
-187.144	-81.914	-0.303	0.097
-186.129	704.992	-0.108	0.280
-185.114	-144.248	0.050	-0.005
-184.100	51.567	-0.135	-0.126
-183.085	-200.000	-0.006	-0.450
-182.071	276.498	0.058	-0.102
-181.056	38.223	0.283	-0.248
-180.042	6.367	-0.167	0.122
-179.027	42.649	-0.202	0.181
-178.012	52.037	0.093	0.087
-176.998	-82.712	0.262	-0.083
-175.983	440.694	-0.072	-0.155
-174.969	16.936	-0.230	-0.179
-173.954	83.643	-0.204	-0.219
-172.939	-103.408	0.226	-0.052
-171.925	800.000	-0.023	0.062
-170.910	800.000	0.021	0.072
-169.896	-200.000	0.041	-0.261
-168.881	226.818	-0.128	-0.204
-167.866	52.608	-0.122	-0.114
-166.852	142.538	0.250	0.326
-165.837	290.696	0.087	0.155
-164.823	-110.887	0.084	-0.017
-163.808	-26.698	-0.168	0.097
-162.793	172.156	0.132	-0.187
-161.779	73.005	-0.137	0.140
-160.764	-200.000	-0.091	-0.000
-159.750	-200.000	-0.008	-0.065
-158.735	-200.000	0.008	0.174
-157.720	-200.000	0.053	-0.324
-156.706	393.000	0.124	0.254
-155.691	87.879	-0.151	0.165
-154.677	-81.415	-0.101	0.033
-153.662	-14.634	-0.140	-0.088
-152.647	319.394	0.065	0.121
-151.633	192.610	0.157	0.233
-150.618	198.401	-0.080	-0.120
-149.604	-200.000	-0.065	-0.283
-148.589	-84.038	-0.366	0.114
-147.574	-149.055	0.328	-0.026
-146.560	-102.255	0.302	0.071
-145.545	-80.267	0.161	-0.053
-144.531	102.349	0.232	0.266
-143.516	800.000	0.054	-0.177
-142.502	-200.000	0.011	-0.321
-141.487	236.910	-0.069	0.112
-140.472	29.727	-0.039	0.033
-139.458	-120.251	-0.172	0.029
-138.443	-166.981	0.374	0.015
-137.429	211.926	-0.239	0.370
-136.414	-9.014	0.200	0.131
-135.399	-65.720	0.061	-0.024
-134.385	-142.919	-0.153	0.015
-133.370	45.588	0.238	-0.216
-132.356	-200.000	0.046	0.205
-131.341	51.326	-0.179	0.167
-130.326	198.421	-0.089	0.134
-129.312	800.000	-0.062	-0.256
-128.297	-12.222	-0.159	-0.102
-127.283	-200.000	0.010	-0.095
-126.268	162.006	0.088	0.121
-125.253	-200.000	-0.009	0.077
-124.239	579.367	0.060	0.143
-123.224	-50.065	0.024	0.011
-122.210	-200.000	0.030	-0.253
-121.195	-57.230	0.360	-0.155
-120.180	-131.635	-0.213	-0.027
-119.166	-122.981	0.452	0.071
-118.151	112.649	0.160	-0.190
-117.137	-188.652	0.112	-0.001
-116.122	115.490	-0.196	-0.235
-115.107	-5.628	-0.223	0.150
-114.093	-200.000	0.020	0.139
-113.078	-3.249	-0.054	0.037
-112.064	800.000	-0.067	-0.244
-111.049	116.876	0.128	0.154
-110.034	-106.063	-0.364	0.080
-109.020	-120.314	0.305	0.051
-108.005	99.397	-0.129	0.147
-106.991	-68.496	-0.270	0.103
-105.976	-200.000	0.010	-0.326
-104.962	148.758	0.128	-0.170
-103.947	476.203	0.118	0.262
-102.932	-200.000	-0.026	0.161
-101.918	-200.000	0.035	0.270
-100.903	-115.098	0.242	-0.045
-99.889	-89.754	0.212	-0.061
-98.874	-70.249	0.257	0.096
-97.859	-29.947	0.017	-0.010
-96.845	373.093	-0.164	-0.327
-95.830	-200.000	-0.022	0.191
-94.816	-160.313	0.099	-0.005
-93.801	178.256	-0.033	-0.047
-92.786	85.693	-0.218	-0.235
-91.772	-42.263	0.285	-0.143
-90.757	15.190	0.138	-0.106
-89.743	62.470	0.214	0.210
-88.728	156.480	0.153	0.207
-87.713	-200.000	0.040	-0.198
-86.699	676.265	0.027	-0.069
-85.684	-162.307	0.091	-0.004
-84.670	-166.927	-0.173	0.007
-83.655	611.858	0.175	-0.429
-82.640	-176.615	0.200	0.005
-81.626	-53.829	-0.312	-0.139
-80.611	101.133	-0.206	0.235
-79.597	-48.131	-0.080	-0.038
-78.582	521.366	-0.071	-0.163
-77.567	-200.000	0.035	-0.196
-76.553	-200.000	0.009	-0.067
-75.538	-200.000	0.046	0.295
-74.524	315.922	0.150	-0.277
-73.509	485.143	-0.162	-0.360
-72.494	-200.000	0.049	0.260
-71.480	-128.985	-0.192	-0.026
-70.465	295.573	-0.031	-0.056
-69.451	-200.000	-0.028	0.133
-68.436	800.000	0.015	0.057
-67.422	-56.307	-0.254	0.111
-66.407	-189.682	-0.065	0.001
-65.392	-167.556	-0.180	0.007
-64.378	248.638	0.071	0.118
-63.363	32.287	-0.246	0.207
-62.349	800.000	0.086	-0.269
-61.334	31.682	-0.943	-0.794
-60.319	67.402	0.468	0.467
-59.305	170.037	-0.667	-0.932
-58.290	198.541	0.792	1.185
-57.276	-200.000	0.265	1.476
-56.261	-200.000	117.552	649.788
-55.246	492.468	1549.454	3471.962
-54.232	174.819	2715.721	3843.009
-53.217	104.792	2150.307	2478.188
-52.203	37.763	1584.977	1376.289
-51.188	29.720	1327.959	1105.215
-50.173	26.783	1289.465	1056.056
-49.159	52.750	1348.854	1260.300
-48.144	51.328	1361.653	1263.751
-47.130	29.790	1315.477	1095.069
-46.115	26.486	1297.678	1060.875
-45.100	26.374	1292.043	1055.570
-44.086	26.197	1289.786	1052.652
-43.071	26.143	1287.700	1050.592
-42.057	26.037	1286.040	1048.580
-41.042	26.188	1283.981	1047.735
-40.027	26.167	1282.798	1046.607
-39.013	26.267	1280.353	1045.152
-37.998	26.067	1278.992	1042.841
-36.984	26.259	1276.758	1042.090
-35.969	26.300	1275.117	1040.943
-34.954	26.280	1273.834	1039.739
-33.940	26.274	1272.162	1038.298
-32.925	26.446	1270.623	1037.987
-31.911	26.341	1269.219	1036.198
-30.896	26.530	1267.255	1035.637
-29.881	26.363	1266.764	1034.240
-28.867	26.415	1265.246	1033.256
-27.852	26.502	1263.427	1032.225
-26.838	26.410	1262.393	1030.813
-25.823	26.392	1261.409	1029.868
-24.809	26.328	1260.372	1028.618
-23.794	26.411	1258.465	1027.489
-22.779	26.278	1257.492	1025.902
-21.765	26.387	1256.487	1025.655
-20.750	26.424	1254.783	1024.436
-19.736	26.358	1253.495	1022.970
-18.721	26.267	1252.400	1021.525
-17.706	26.313	1251.438	1020.958
-16.692	26.201	1250.054	1019.156
-15.677	26.343	1248.839	1018.927
-14.663	26.261	1248.052	1017.782
-13.648	26.194	1246.619	1016.192
-12.633	26.207	1246.031	1015.749
-11.619	26.156	1245.279	1014.805
-10.604	26.224	1244.311	1014.362
-9.590	26.260	1243.360	1013.749
-8.575	26.295	1242.036	1012.822
-7.560	26.156	1242.089	1012.048
-6.546	26.195	1240.980	1011.323
-5.531	26.206	1240.113	1010.637
-4.517	26.294	1238.418	1009.710
-3.502	26.302	1237.518	1008.978
-2.487	26.228	1237.062	1008.154
-1.473	26.164	1233.032	1004.471
-0.458	24.601	1217.809	983.436
0.556	22.898	1201.227	946.799
1.571	19.066	1207.558	931.015
2.586	18.421	1221.141	937.872
3.600	18.139	1209.898	927.624
4.615	14.052	1139.598	852.727
5.629	7.193	1069.111	766.802
6.644	4.317	1051.694	740.531
7.659	4.015	1049.550	737.518
8.673	3.955	1047.823	735.954
9.688	3.863	1047.001	734.875
10.702	4.338	1044.836	735.540
11.717	8.843	1050.255	760.713
12.731	16.542	1061.287	805.436
13.746	21.318	1067.855	833.181
14.761	22.320	1068.541	838.418
15.775	21.804	1066.522	834.307
16.790	20.753	1064.810	827.896
17.804	20.108	1063.376	823.644
18.819	19.736	1062.923	821.454
19.834	19.775	1061.852	820.740
20.848	19.816	1061.339	820.466
21.863	19.608	1060.836	819.016
22.877	19.465	1059.579	817.296
23.892	19.311	1059.319	816.292
24.907	19.359	1058.255	815.629
25.921	19.272	1057.073	814.234
26.936	19.214	1056.270	813.270
27.950	19.410	1054.453	812.724
28.965	19.536	1052.715	811.905
29.980	19.645	1051.645	811.518
30.994	19.847	1051.002	811.900
32.009	19.758	1050.294	810.863
33.023	19.707	1049.160	809.677
34.038	19.643	1048.002	808.413
35.053	19.473	1047.110	806.859
36.067	19.457	1046.094	805.927
37.082	19.448	1046.072	805.797
38.096	19.685	1044.767	805.828
39.111	19.694	1043.826	805.071
40.126	19.409	1042.879	802.945
41.140	19.050	1041.197	799.907
42.155	18.973	1039.847	798.442
43.169	18.964	1039.299	797.911
44.184	18.923	1037.925	796.597
45.199	18.962	1037.166	796.124
46.213	19.227	1036.107	796.466
47.228	19.321	1036.141	796.856
48.242	19.428	1034.561	796.062
49.257	19.516	1033.565	795.633
50.271	19.567	1033.345	795.625
51.286	19.625	1032.312	795.028
52.301	19.527	1031.063	793.546
53.315	19.261	1030.384	791.730
54.330	19.133	1029.220	790.176
55.344	19.185	1028.202	789.564
56.359	19.216	1027.335	788.972
57.374	19.160	1026.321	787.869
58.388	18.991	1025.439	786.346
59.403	18.997	1024.629	785.687
60.417	18.945	1024.050	784.935
61.432	18.867	1023.103	783.785
62.447	18.798	1022.454	782.902
63.461	18.668	1021.638	781.617
64.476	18.690	1020.208	780.551
65.490	18.693	1019.536	779.982
66.505	18.850	1018.860	780.108
67.520	18.795	1018.462	779.486
68.534	18.907	1017.398	779.113
69.549	18.733	1016.822	777.812
70.563	18.677	1015.588	776.547
71.578	18.419	1015.356	775.135
72.593	18.468	1014.162	774.374
73.607	18.374	1014.117	773.845
74.622	18.646	1012.828	774.023
75.636	18.644	1012.487	773.686
76.651	18.619	1011.875	773.037
77.666	18.757	1011.294	773.145
78.680	18.650	1010.623	772.083
79.695	18.783	1009.831	772.008
80.709	18.807	1009.469	771.767
81.724	18.923	1009.324	772.112
82.739	19.037	1008.516	771.935
83.753	19.486	1007.954	773.451
84.768	19.803	1007.272	774.277
85.782	19.915	1006.818	774.361
86.797	19.849	1005.599	773.059
87.812	19.523	1004.575	770.749
88.826	19.567	1003.521	770.070
89.841	19.794	1002.368	770.128
90.855	19.785	1002.021	769.752
91.870	19.790	1001.234	769.103
92.884	19.667	1000.539	767.954
93.899	19.687	999.213	766.957
94.914	19.850	998.554	767.103
95.928	19.835	997.693	766.308
96.943	19.570	996.580	764.216
97.957	19.637	995.547	763.651
98.972	19.582	995.417	763.240
99.987	19.694	993.993	762.574
101.001	19.722	992.941	761.824
102.016	19.616	992.019	760.581
103.030	19.615	991.763	760.316
104.045	19.699	990.407	759.576
105.060	19.558	989.274	758.020
106.074	19.154	988.026	755.229
107.089	18.940	986.918	753.378
108.103	18.922	985.802	752.378
109.118	18.894	984.819	751.439
110.133	18.774	984.080	750.286
111.147	18.631	983.546	749.185
112.162	18.873	982.612	749.466
113.176	19.152	981.809	749.999
114.191	19.130	981.022	749.235
115.206	19.108	980.256	748.491
116.220	18.976	979.852	747.542
117.235	18.854	979.127	746.391
118.249	18.922	977.975	745.746
119.264	18.796	977.170	744.519
120.279	18.840	976.180	743.887
121.293	18.652	975.365	742.389
122.308	18.525	974.802	741.345
123.322	18.547	973.116	740.093
124.337	18.480	972.602	739.349
125.352	18.604	971.396	738.899
126.366	18.545	970.051	737.559
127.381	18.551	969.406	737.028
128.395	18.563	968.861	736.597
129.410	18.573	967.884	735.834
130.424	18.741	967.314	736.056
131.439	18.958	966.355	736.188
132.454	18.960	965.689	735.628
133.468	19.033	964.782	735.183
134.483	19.078	964.046	734.748
135.497	19.069	963.313	734.084
136.512	19.010	962.502	733.150
137.527	19.230	960.931	732.825
138.541	19.089	961.219	732.379
139.556	19.177	960.049	731.796
140.570	19.371	959.722	732.308
141.585	19.600	959.343	732.926
142.600	19.606	958.404	732.169
143.614	19.661	957.579	731.707
144.629	19.787	956.654	731.469
145.643	19.643	955.871	730.199
146.658	19.490	954.337	728.316
147.673	19.349	953.069	726.689
148.687	19.186	952.377	725.408
149.702	19.106	951.411	724.274
150.716	19.067	950.743	723.538
151.731	19.120	950.388	723.427
152.746	19.240	949.193	722.957
153.760	19.265	948.977	722.832
154.775	19.414	948.358	722.922
155.789	19.522	947.649	722.769
156.804	19.400	947.005	721.703
157.819	19.486	946.210	721.395
158.833	19.710	946.107	722.187
159.848	19.842	945.230	722.003
160.862	19.615	943.834	719.930
161.877	19.228	942.555	717.278
162.892	19.091	941.654	715.958
163.906	19.049	940.130	714.564
164.921	19.064	939.572	714.136
165.935	19.332	938.868	714.652
166.950	19.260	938.341	713.888
167.964	19.358	937.382	713.499
168.979	19.215	935.968	711.770
169.994	19.149	935.423	711.020
171.008	19.387	935.162	711.741
172.023	19.601	934.557	712.101
173.037	19.659	934.250	712.041
174.052	19.583	932.826	710.580
175.067	19.198	931.634	708.029
176.081	19.118	931.143	707.263
177.096	19.109	930.727	706.849
178.110	19.094	930.542	706.584
179.125	19.192	929.510	706.141
180.140	19.284	929.561	706.492
181.154	19.523	929.494	707.359
182.169	19.727	928.956	707.724
183.183	19.568	928.421	706.601
184.198	19.574	927.132	705.584
185.213	19.598	926.688	705.281
186.227	19.679	926.146	705.133
187.242	19.683	925.616	704.686
188.256	19.931	924.927	705.108
189.271	19.861	924.520	704.452
190.286	19.519	923.020	701.855
191.300	19.054	921.881	699.040
192.315	18.926	921.146	697.901
193.329	19.067	920.974	698.279
194.344	19.189	920.396	698.274
195.359	19.329	919.984	698.469
196.373	19.426	919.378	698.339
197.388	19.766	918.844	699.248
198.402	19.896	918.552	699.487
199.417	20.095	917.950	699.771
200.432	20.152	917.774	699.804
201.446	20.233	917.062	699.527
202.461	20.331	916.923	699.755
203.475	20.278	915.810	698.631
204.490	19.944	914.635	696.329
205.504	19.774	914.278	695.310
206.519	19.634	913.152	693.831
207.534	19.582	912.745	693.253
208.548	19.794	912.255	693.670
209.563	19.768	911.545	692.963
210.577	19.903	910.775	692.859
211.592	20.081	910.493	693.294
212.607	20.164	909.428	692.755
213.621	20.030	908.550	691.488
214.636	19.976	908.276	691.003
215.650	19.955	907.373	690.171
216.665	20.089	906.807	690.212
217.680	20.223	906.606	690.532
218.694	20.267	905.753	689.997
219.709	20.224	905.172	689.321
220.723	20.168	904.465	688.500
221.738	20.108	903.389	687.381
222.753	20.163	903.027	687.265
223.767	20.204	903.107	687.427
224.782	20.483	902.269	687.832
225.796	20.398	901.852	687.119
226.811	20.303	900.568	685.702
227.826	19.991	900.153	684.094
228.840	20.008	899.353	683.491
229.855	20.039	898.538	682.935
230.869	19.985	897.609	681.958
231.884	20.021	896.733	681.372
232.899	19.812	896.467	680.286
233.913	19.794	895.629	679.522
234.928	19.672	895.088	678.571
235.942	19.577	894.379	677.603
236.957	19.727	893.970	677.820
237.972	19.652	893.246	676.918
238.986	19.757	892.822	676.947
240.001	19.710	892.232	676.255
241.015	19.892	891.622	676.445
242.030	19.836	891.120	675.783
243.045	19.937	890.724	675.820
244.059	20.037	890.217	675.766
245.074	20.044	889.595	675.261
246.088	20.257	888.830	675.448
247.103	20.348	888.810	675.730
248.117	20.429	888.486	675.736
249.132	20.841	888.051	676.949
250.147	21.063	887.701	677.483
251.161	21.137	886.652	676.909
252.176	21.066	886.444	676.416
253.190	21.192	885.818	676.368
254.205	21.295	885.250	676.274
255.220	21.142	884.391	674.966
256.234	21.040	884.021	674.228
257.249	21.015	882.930	673.240
258.263	21.043	882.317	672.821
259.278	21.135	881.561	672.541
260.293	21.314	881.300	672.971
261.307	21.192	880.756	672.028
262.322	21.220	879.883	671.407
263.336	21.267	879.284	671.074
264.351	21.133	879.001	670.281
265.366	21.161	878.473	669.926
266.380	21.205	877.236	669.093
267.395	21.116	876.751	668.325
268.409	21.045	875.968	667.395
269.424	21.017	875.165	666.617
270.439	21.094	874.109	666.050
271.453	20.845	873.926	664.900
272.468	20.781	873.141	664.001
273.482	20.744	873.064	663.743
274.497	20.848	872.279	663.481
275.512	20.893	871.313	662.860
276.526	20.875	871.112	662.580
277.541	20.903	870.843	662.424
278.555	21.090	870.561	662.859
279.570	21.500	869.714	663.714
280.585	21.297	869.022	662.357
281.599	21.128	868.130	660.980
282.614	20.945	867.253	659.560
283.628	20.928	866.953	659.210
284.643	20.830	866.628	658.533
285.657	20.957	865.601	658.171
286.672	20.980	864.585	657.429
287.687	21.203	864.105	657.847
288.701	21.103	863.619	657.042
289.716	21.084	863.278	656.653
290.730	21.101	862.725	656.239
291.745	21.287	862.049	656.364
292.760	21.243	861.934	656.056
293.774	21.531	861.241	656.549
294.789	21.186	860.942	654.968
295.803	21.140	859.456	653.608
296.818	21.043	858.867	652.740
297.833	21.063	858.247	652.284
298.847	21.191	857.846	652.400
299.862	21.168	857.347	651.876
300.876	21.266	857.074	651.978
301.891	21.442	856.195	651.906
302.906	21.560	856.192	652.289
303.920	21.791	855.767	652.767
304.935	21.786	855.150	652.220
305.949	21.686	854.520	651.310
306.964	21.472	853.573	649.734
307.979	21.477	853.037	649.287
308.993	21.562	852.561	649.184
310.008	21.688	852.035	649.193
311.022	21.592	851.495	648.370
312.037	21.382	850.444	646.733
313.052	21.053	849.973	645.101
314.066	21.043	849.390	644.565
315.081	21.064	848.967	644.265
316.095	21.070	848.107	643.579
317.110	21.103	847.529	643.205
318.125	21.107	847.286	642.976
319.139	21.004	847.126	642.421
320.154	20.995	846.262	641.676
321.168	21.064	845.801	641.522
322.183	21.459	844.953	642.271
323.197	21.348	844.572	641.518
324.212	21.275	843.995	640.756
325.227	21.255	843.510	640.258
326.241	21.289	842.683	639.698
327.256	21.235	842.094	638.995
328.270	21.084	841.615	638.025
329.285	21.114	841.109	637.693
330.300	21.099	840.430	637.069
331.314	21.170	840.222	637.112
332.329	21.294	839.986	637.330
333.343	21.622	838.876	637.627
334.358	21.475	839.178	637.262
335.373	21.317	839.169	636.624
336.387	21.656	838.418	637.231
337.402	21.510	838.658	636.827
338.416	21.882	838.136	637.726
339.431	22.038	837.250	637.562
340.446	22.092	836.911	637.446
341.460	22.130	836.721	637.381
342.475	22.288	836.607	637.811
343.489	22.171	836.168	636.994
344.504	22.195	835.611	636.603
345.519	22.491	835.301	637.379
346.533	22.248	834.242	635.639
347.548	21.869	833.882	633.937
348.562	21.854	832.907	633.087
349.577	21.638	832.127	631.657
350.592	21.591	831.462	630.930
351.606	21.612	830.580	630.278
352.621	21.508	830.225	629.579
353.635	21.721	829.831	629.991
354.650	21.663	829.208	629.253
355.665	21.766	828.678	629.165
356.679	21.901	827.846	628.963
357.694	21.874	827.276	628.376
358.708	21.961	826.772	628.249
359.723	21.983	825.877	627.592
360.738	21.730	825.677	626.480
361.752	21.926	825.015	626.623
362.767	22.276	824.523	627.444
363.781	22.284	824.610	627.483
364.796	22.456	823.927	627.522
365.810	22.644	823.598	627.885
366.825	22.638	823.518	627.747
367.840	22.506	822.576	626.504
368.854	22.390	821.981	625.583
369.869	22.377	821.358	625.005
370.883	22.283	821.270	624.551
371.898	22.461	821.275	625.129
372.913	22.510	820.938	624.992
373.927	22.342	820.034	623.655
374.942	22.285	819.822	623.234
375.956	22.436	819.227	623.261
376.971	22.614	818.704	623.440
377.986	22.705	818.624	623.646
379.000	22.753	818.046	623.320
380.015	22.774	817.124	622.636
381.029	22.647	816.621	621.749
382.044	22.725	816.254	621.688
383.059	22.672	815.759	621.069
384.073	22.514	815.004	619.887
385.088	22.400	814.068	618.718
386.102	22.128	813.711	617.435
387.117	22.340	813.110	617.669
388.132	22.058	812.888	616.455
389.146	22.450	811.808	616.958
390.161	22.470	811.883	617.030
391.175	22.580	811.263	616.889
392.190	22.467	810.574	615.915
393.205	22.428	809.924	615.231
394.219	22.303	809.559	614.462
395.234	22.189	808.967	613.562
396.248	22.181	808.147	612.856
397.263	22.021	807.829	612.001
398.278	21.878	807.609	611.286
399.292	21.846	807.572	611.089
400.307	21.958	806.697	610.765
401.321	22.161	806.033	610.912
402.336	22.248	806.038	611.165
403.350	22.338	805.543	611.047
404.365	22.674	805.072	611.802
405.380	22.837	804.539	611.909
406.394	22.868	804.239	611.733
407.409	22.937	804.174	611.868
408.423	22.934	803.824	611.539
409.438	23.088	803.595	611.843
410.453	23.139	802.999	611.509
411.467	23.293	802.279	611.441
412.482	23.265	801.971	611.055
413.496	23.228	802.130	610.993
414.511	23.041	801.850	610.081
415.526	23.028	801.331	609.586
416.540	22.954	800.621	608.738
417.555	22.997	799.839	608.239
418.569	23.177	799.650	608.661
419.584	23.138	799.282	608.192
420.599	23.340	798.155	607.974
421.613	165.924	1371.263	1798.529
422.628	144.144	1454.757	1798.586
