DTS Sentinel unit serial number:	SN413079Multiplexer serial number:	ORYXHardware model number:	OX4-SRSoftware version number:	ORYX F/W v4.00 Oryx Data Collector v3.7.2.0data status	okinstallation	princeton_trtdifferential loss correction	single-endedforward channel	channel 1reverse channel	N/Adate	2019/09/19time	07:18:35forward acquisition time	60.00reverse acquisition time	0.00gamma	496.2192k internal	0.2342k external	0.2342temperature offset calibration	1.0012default loss term (dB/km)	0.3790temperature slope calibration	1.0000multiplexer offset coefficient	1.0000multiplexer slope coefficient	1.0000fibre end	0.00T internal ref (°C)	19.11T ext. ref 1 (°C)	0.56T ext. ref 2 (°C)	13.71length (m)	temperature (°C)	Stokes	anti-Stokes-747.200	-114.280	0.388	0.075
-746.185	-25.236	-0.186	0.110
-745.171	-58.532	0.135	0.059
-744.156	-200.000	-0.305	-0.001
-743.142	169.300	-0.103	-0.147
-742.127	24.886	-0.146	-0.121
-741.112	-128.614	-0.099	-0.014
-740.098	-200.000	-0.105	0.537
-739.083	-200.000	-0.021	0.126
-738.069	549.715	0.039	0.093
-737.054	-200.000	0.023	0.187
-736.039	800.000	-0.036	-0.150
-735.025	-200.000	-0.009	0.218
-734.010	-101.605	0.074	0.018
-732.996	121.536	-0.211	-0.264
-731.981	35.854	0.095	-0.084
-730.966	421.339	-0.135	-0.289
-729.952	14.440	-0.169	-0.132
-728.937	50.862	-0.351	0.333
-727.923	35.662	0.110	0.097
-726.908	800.000	0.004	0.013
-725.894	79.032	0.185	-0.198
-724.879	530.472	0.098	-0.231
-723.864	90.904	-0.185	-0.208
-722.850	61.805	-0.144	0.143
-721.835	34.914	0.414	0.363
-720.821	157.362	-0.234	-0.324
-719.806	-172.154	0.095	0.003
-718.791	-199.305	-0.072	-0.000
-717.777	-79.452	0.057	0.019
-716.762	236.333	-0.158	-0.261
-715.748	-15.770	-0.024	0.016
-714.733	145.331	0.136	-0.182
-713.718	-33.073	-0.109	-0.061
-712.704	-84.968	-0.175	0.055
-711.689	-200.000	0.009	0.277
-710.675	800.000	-0.098	-0.326
-709.660	-200.000	-0.002	0.297
-708.645	800.000	-0.018	-0.059
-707.631	330.390	-0.075	0.145
-706.616	105.839	-0.116	-0.137
-705.602	164.653	-0.175	0.246
-704.587	-104.483	-0.185	0.043
-703.572	407.650	0.101	0.213
-702.558	73.197	-0.188	-0.197
-701.543	-200.000	-0.005	-0.403
-700.529	-149.992	0.488	-0.038
-699.514	-113.671	0.292	-0.057
-698.499	800.000	-0.074	-0.241
-697.485	-123.285	0.110	-0.018
-696.470	-51.506	0.174	0.081
-695.456	86.396	0.039	0.043
-694.441	-128.360	-0.163	0.023
-693.426	-53.204	-0.269	0.123
-692.412	-91.410	-0.136	0.039
-691.397	202.133	-0.113	-0.174
-690.383	-200.000	0.016	0.231
-689.368	-158.161	-0.087	-0.005
-688.354	800.000	0.038	0.121
-687.339	-153.014	-0.363	-0.026
-686.324	36.927	0.165	0.146
-685.310	107.011	0.129	0.153
-684.295	300.497	-0.074	-0.137
-683.281	-133.630	-0.440	0.055
-682.266	45.039	-0.086	0.079
-681.251	800.000	-0.018	-0.062
-680.237	-200.000	0.052	0.363
-679.222	438.362	-0.050	0.109
-678.208	-200.000	-0.005	-0.095
-677.193	-117.717	-0.176	0.032
-676.178	18.909	-0.124	-0.099
-675.164	800.000	-0.072	-0.280
-674.149	-200.000	-0.049	-0.253
-673.135	-200.000	-0.032	0.153
-672.120	-117.630	-0.303	0.055
-671.105	747.088	0.039	0.104
-670.091	-78.008	0.214	0.074
-669.076	136.725	0.051	0.067
-668.062	257.045	0.169	0.290
-667.047	-200.000	-0.006	0.289
-666.032	52.342	0.038	0.036
-665.018	800.000	-0.087	0.274
-664.003	-200.000	0.240	-0.001
-662.989	800.000	0.035	-0.101
-661.974	-134.686	-0.137	-0.017
-660.959	-103.316	-0.371	0.087
-659.945	-200.000	0.004	0.076
-658.930	406.699	0.070	-0.149
-657.916	78.694	-0.305	0.326
-656.901	72.068	-0.207	-0.215
-655.886	16.487	-0.137	-0.108
-654.872	17.608	0.198	-0.157
-653.857	-70.379	-0.128	0.048
-652.843	8.383	-0.337	-0.253
-651.828	670.831	-0.039	0.100
-650.814	31.209	0.197	-0.169
-649.799	272.383	0.000	0.001
-648.784	-74.177	-0.176	0.063
-647.770	-200.000	-0.006	-0.086
-646.755	319.810	-0.197	0.373
-645.741	1.550	-0.147	0.106
-644.726	-144.722	0.103	0.009
-643.711	-175.309	-0.311	0.009
-642.697	-200.000	0.026	-0.253
-641.682	-0.320	0.044	-0.031
-640.668	-200.000	-0.047	-0.245
-639.653	-3.780	-0.326	-0.226
-638.638	-93.388	0.123	-0.034
-637.624	-37.582	-0.188	0.100
-636.609	-18.484	0.283	0.176
-635.595	-38.082	-0.280	-0.148
-634.580	-139.932	-0.068	0.007
-633.565	-13.463	-0.087	-0.056
-632.551	469.311	0.005	0.012
-631.536	-127.094	0.231	-0.034
-630.522	800.000	0.067	0.250
-629.507	800.000	-0.022	0.064
-628.492	-51.708	-0.335	-0.156
-627.478	-66.403	0.218	-0.087
-626.463	-200.000	-0.102	0.000
-625.449	-175.230	0.202	0.006
-624.434	186.217	-0.112	-0.165
-623.419	212.882	0.253	-0.398
-622.405	438.184	-0.141	-0.306
-621.390	6.511	-0.081	-0.060
-620.376	-65.478	-0.196	-0.079
-619.361	37.028	-0.101	0.089
-618.346	-92.755	0.354	-0.099
-617.332	-105.955	-0.123	-0.028
-616.317	227.846	0.130	0.210
-615.303	-200.000	-0.052	0.427
-614.288	26.558	-0.188	-0.157
-613.273	329.554	-0.118	-0.227
-612.259	51.172	0.140	-0.133
-611.244	-200.000	-0.006	0.241
-610.230	-34.156	-0.261	-0.143
-609.215	-141.300	-0.059	-0.006
-608.201	492.690	-0.127	0.291
-607.186	88.219	0.032	0.036
-606.171	-200.000	0.004	-0.248
-605.157	-38.555	0.141	0.074
-604.142	800.000	0.035	-0.110
-603.128	-40.974	0.097	-0.050
-602.113	175.133	-0.041	0.060
-601.098	800.000	-0.055	-0.191
-600.084	64.656	0.308	-0.309
-599.069	-95.932	0.189	0.050
-598.055	-200.000	-0.014	-0.135
-597.040	-200.000	-0.033	-0.235
-596.025	10.983	0.153	0.116
-595.011	-47.575	-0.084	0.041
-593.996	-41.684	0.181	-0.092
-592.982	-68.727	-0.049	0.019
-591.967	-0.544	0.044	0.031
-590.952	-200.000	0.001	0.180
-589.938	200.176	-0.018	0.028
-588.923	118.016	0.150	-0.184
-587.909	62.377	0.211	0.210
-586.894	-142.376	0.117	-0.012
-585.879	-118.542	0.148	-0.026
-584.865	-84.557	-0.216	0.068
-583.850	-72.327	0.277	-0.102
-582.836	415.868	0.055	-0.117
-581.821	-136.735	-0.237	-0.027
-580.806	-72.453	-0.298	0.110
-579.792	-89.819	-0.137	0.040
-578.777	-94.351	-0.091	-0.025
-577.763	-43.657	-0.329	-0.165
-576.748	-1.310	0.169	0.119
-575.733	-200.000	-0.012	-0.065
-574.719	-34.951	-0.163	0.088
-573.704	-200.000	0.028	0.162
-572.690	-130.675	-0.208	0.028
-571.675	16.140	-0.210	-0.165
-570.661	-200.000	0.048	0.214
-569.646	30.581	-0.276	-0.235
-568.631	-200.000	0.008	-0.247
-567.617	-24.900	-0.025	-0.015
-566.602	-72.366	-0.317	-0.117
-565.588	-52.825	0.235	0.108
-564.573	800.000	0.144	0.413
-563.558	-44.205	0.145	-0.072
-562.544	-82.119	0.328	-0.106
-561.529	-140.267	0.293	-0.030
-560.515	-200.000	-0.034	0.222
-559.500	-200.000	-0.040	-0.270
-558.485	-200.000	-0.024	-0.265
-557.471	12.139	-0.168	0.129
-556.456	157.322	-0.051	-0.070
-555.442	-172.575	-0.248	-0.008
-554.427	-30.054	0.473	0.268
-553.412	151.451	0.150	-0.203
-552.398	-28.531	0.137	0.078
-551.383	-74.339	0.311	0.112
-550.369	800.000	-0.025	0.080
-549.354	-200.000	-0.002	0.070
-548.339	44.591	-0.186	-0.170
-547.325	-200.000	0.022	-0.228
-546.310	50.932	0.146	-0.137
-545.296	278.101	-0.132	-0.234
-544.281	69.631	-0.341	-0.349
-543.266	-70.322	-0.068	0.025
-542.252	-158.640	-0.468	0.027
-541.237	18.856	0.118	-0.094
-540.223	-186.618	-0.017	-0.000
-539.208	-200.000	-0.042	-0.187
-538.193	-49.617	-0.190	-0.090
-537.179	272.944	0.073	0.129
-536.164	-4.403	0.357	-0.245
-535.150	-62.063	-0.232	0.096
-534.135	124.378	0.136	-0.170
-533.121	275.765	0.165	-0.292
-532.106	629.931	-0.073	0.183
-531.091	286.432	0.087	0.156
-530.077	-147.334	0.093	-0.008
-529.062	-123.873	0.135	0.021
-528.048	-200.000	-0.010	0.306
-527.033	-108.395	-0.330	-0.071
-526.018	256.729	0.132	-0.226
-525.004	800.000	-0.030	-0.107
-523.989	440.217	0.038	-0.082
-522.975	-65.530	-0.025	0.010
-521.960	-35.931	0.083	-0.045
-520.945	-91.502	0.336	0.095
-519.931	-200.000	-0.034	-0.148
-518.916	-200.000	0.004	0.038
-517.902	593.807	0.090	-0.222
-516.887	-115.700	-0.152	0.028
-515.872	-82.099	-0.144	0.047
-514.858	97.783	0.093	0.106
-513.843	-200.000	-0.010	0.396
-512.829	-200.000	0.017	0.231
-511.814	-200.000	-0.011	-0.110
-510.799	-200.000	0.016	-0.111
-509.785	-97.867	0.404	-0.104
-508.770	-200.000	0.002	-0.134
-507.756	-200.000	0.010	0.186
-506.741	347.295	-0.061	-0.118
-505.726	6.302	-0.136	0.100
-504.712	-200.000	-0.039	-0.173
-503.697	-74.202	0.164	-0.059
-502.683	-90.385	-0.201	0.058
-501.668	-88.301	0.192	-0.057
-500.653	393.210	0.135	0.278
-499.639	-74.423	-0.279	0.100
-498.624	800.000	-0.096	0.269
-497.610	197.693	0.065	0.098
-496.595	-200.000	-0.005	0.147
-495.581	800.000	-0.108	0.318
-494.566	-200.000	0.006	0.060
-493.551	-60.243	0.356	-0.150
-492.537	76.871	0.164	0.173
-491.522	-200.000	0.045	0.360
-490.508	-200.000	-0.001	0.185
-489.493	-133.180	-0.306	-0.038
-488.478	-67.106	-0.311	0.122
-487.464	-105.961	0.099	0.022
-486.449	-200.000	0.557	0.001
-485.435	-162.550	-0.247	-0.012
-484.420	12.104	-0.079	-0.060
-483.405	-74.589	0.142	0.051
-482.391	-29.772	-0.130	-0.074
-481.376	-200.000	0.003	-0.151
-480.362	23.020	-0.027	-0.022
-479.347	-101.839	0.373	-0.089
-478.332	-200.000	-0.004	-0.236
-477.318	-134.938	-0.082	-0.010
-476.303	220.836	-0.108	0.172
-475.289	800.000	0.055	-0.220
-474.274	-75.920	0.368	-0.129
-473.259	800.000	-0.046	0.179
-472.245	21.595	0.353	-0.285
-471.230	575.326	-0.213	-0.516
-470.216	-200.000	-0.025	0.188
-469.201	-200.000	0.031	0.153
-468.186	58.170	0.111	-0.107
-467.172	485.496	0.079	-0.178
-466.157	119.498	0.074	-0.091
-465.143	800.000	-0.081	0.284
-464.128	-198.244	-0.195	0.001
-463.113	800.000	-0.077	-0.323
-462.099	-200.000	0.118	-0.516
-461.084	-67.726	0.185	0.072
-460.070	-35.451	-0.340	-0.183
-459.055	30.628	0.051	-0.043
-458.040	69.532	0.093	0.095
-457.026	308.842	0.014	-0.026
-456.011	376.669	0.023	-0.047
-454.997	-193.291	0.163	-0.001
-453.982	-156.570	-0.108	0.007
-452.968	-4.871	0.163	0.111
-451.953	173.401	0.134	-0.191
-450.938	32.071	0.219	-0.187
-449.924	-52.746	-0.410	-0.187
-448.909	566.691	0.115	-0.276
-447.895	552.962	-0.108	-0.258
-446.880	72.566	0.186	-0.193
-445.865	-59.316	-0.155	-0.066
-444.851	106.023	0.217	0.255
-443.836	-94.325	0.346	0.094
-442.822	800.000	-0.026	0.098
-441.807	-200.000	-0.007	0.087
-440.792	269.873	-0.037	0.064
-439.778	-54.297	-0.050	-0.022
-438.763	800.000	0.012	0.045
-437.749	56.321	-0.053	-0.051
-436.734	-83.621	0.358	0.113
-435.719	127.626	0.065	-0.082
-434.705	800.000	0.009	-0.032
-433.690	-20.558	0.041	-0.025
-432.676	-79.396	-0.259	0.087
-431.661	800.000	0.069	-0.257
-430.646	-44.865	-0.080	-0.040
-429.632	39.326	-0.319	0.283
-428.617	81.426	0.168	-0.180
-427.603	-200.000	-0.008	0.141
-426.588	-200.000	-0.037	-0.364
-425.573	-200.000	-0.029	0.304
-424.559	-200.000	-0.005	0.106
-423.544	289.766	-0.043	-0.078
-422.530	787.344	-0.066	-0.179
-421.515	276.558	0.024	-0.042
-420.500	-200.000	0.004	-0.070
-419.486	-200.000	-0.059	0.299
-418.471	192.854	-0.071	0.105
-417.457	-200.000	-0.035	0.297
-416.442	519.684	-0.065	0.151
-415.428	-107.958	0.305	0.066
-414.413	-200.000	-0.021	-0.241
-413.398	640.224	-0.088	-0.222
-412.384	81.881	0.069	0.074
-411.369	-190.998	-0.207	-0.002
-410.355	308.707	0.092	-0.170
-409.340	187.376	0.059	-0.087
-408.325	160.692	0.053	0.073
-407.311	152.251	-0.132	-0.178
-406.296	-69.378	0.187	0.071
-405.282	198.851	0.223	0.338
-404.267	-12.161	0.161	-0.104
-403.252	800.000	0.085	-0.292
-402.238	-123.654	-0.384	-0.060
-401.223	175.469	0.123	0.177
-400.209	800.000	0.030	-0.117
-399.194	-11.546	0.292	0.190
-398.179	150.896	-0.165	0.222
-397.165	-200.000	0.007	0.111
-396.150	103.255	0.166	-0.192
-395.136	-200.000	-0.001	-0.016
-394.121	147.653	0.185	-0.246
-393.106	27.174	-0.062	0.052
-392.092	77.600	-0.117	-0.124
-391.077	394.597	-0.029	0.060
-390.063	185.533	0.142	-0.208
-389.048	-74.994	0.120	0.043
-388.033	37.824	0.468	0.411
-387.019	-80.365	-0.260	-0.086
-386.004	722.100	-0.198	0.520
-384.990	-186.800	0.232	0.003
-383.975	559.698	0.070	0.166
-382.960	-200.000	-0.000	-0.204
-381.946	343.401	0.044	-0.086
-380.931	-117.449	0.330	-0.059
-379.917	-200.000	0.015	0.244
-378.902	315.832	0.074	0.138
-377.888	291.131	-0.022	0.040
-376.873	-28.137	0.113	0.065
-375.858	-28.105	0.219	-0.125
-374.844	-123.426	0.329	0.052
-373.829	126.062	0.340	-0.425
-372.815	-33.333	-0.384	-0.210
-371.800	-99.820	0.171	0.042
-370.785	340.344	-0.086	0.165
-369.771	-138.875	-0.288	0.031
-368.756	-22.033	-0.063	-0.038
-367.742	-200.000	-0.017	0.080
-366.727	800.000	0.062	-0.202
-365.712	789.920	-0.025	-0.068
-364.698	576.785	0.127	0.306
-363.683	-80.309	-0.435	0.143
-362.669	-200.000	0.065	-0.310
-361.654	245.892	-0.089	0.149
-360.639	800.000	0.147	0.483
-359.625	-111.706	-0.391	0.078
-358.610	-78.715	-0.087	-0.029
-357.596	-11.201	0.249	-0.162
-356.581	662.548	0.031	0.079
-355.566	-200.000	0.012	-0.325
-354.552	58.051	-0.112	-0.109
-353.537	-66.628	-0.136	-0.053
-352.523	5.889	0.111	0.081
-351.508	-25.907	-0.182	-0.106
-350.493	-178.906	-0.129	-0.003
-349.479	-4.996	0.290	-0.197
-348.464	350.962	0.136	-0.265
-347.450	-29.862	0.087	-0.049
-346.435	-200.000	0.040	0.212
-345.420	-200.000	0.000	0.006
-344.406	800.000	0.066	0.188
-343.391	-200.000	0.018	0.186
-342.377	135.303	-0.380	-0.488
-341.362	200.785	0.220	-0.333
-340.348	-200.000	0.004	0.065
-339.333	-111.403	0.163	-0.033
-338.318	-154.711	0.262	0.017
-337.304	-200.000	0.008	0.160
-336.289	-129.962	-0.065	-0.009
-335.275	-127.119	0.248	-0.036
-334.260	-200.000	-0.046	-0.235
-333.245	-53.427	0.276	0.125
-332.231	-6.143	0.105	-0.071
-331.216	-19.451	-0.300	-0.183
-330.202	-200.000	0.084	0.543
-329.187	-200.000	-0.003	0.150
-328.172	526.000	-0.132	0.305
-327.158	-200.000	0.060	0.317
-326.143	-200.000	-0.078	-0.444
-325.129	392.560	0.095	0.195
-324.114	-178.038	-0.207	0.005
-323.099	-200.000	0.021	0.183
-322.085	25.329	-0.091	-0.075
-321.070	-200.000	-0.074	-0.452
-320.056	222.158	0.050	-0.079
-319.041	325.455	-0.075	-0.141
-318.026	-139.470	0.120	-0.013
-317.012	-182.559	-0.242	0.004
-315.997	-37.766	0.107	-0.056
-314.983	-200.000	0.004	0.080
-313.968	-36.381	0.167	0.089
-312.953	-200.000	-0.000	0.041
-311.939	-78.683	-0.368	0.124
-310.924	-200.000	-0.014	0.085
-309.910	-88.823	0.029	-0.008
-308.895	-14.177	0.396	0.251
-307.880	800.000	-0.107	0.293
-306.866	-99.013	-0.088	0.022
-305.851	-100.926	0.271	-0.066
-304.837	800.000	-0.048	0.150
-303.822	-37.452	0.175	0.092
-302.807	-200.000	0.051	-0.227
-301.793	800.000	0.022	0.094
-300.778	-200.000	0.047	0.395
-299.764	-200.000	-0.045	0.297
-298.749	709.225	0.070	0.181
-297.735	800.000	-0.025	-0.083
-296.720	-95.622	0.094	0.025
-295.705	17.122	-0.041	-0.032
-294.691	140.244	-0.009	0.012
-293.676	-200.000	-0.007	0.175
-292.662	682.636	-0.090	0.230
-291.647	61.169	-0.206	0.202
-290.632	-141.486	-0.390	-0.039
-289.618	-8.682	0.017	0.011
-288.603	-200.000	-0.012	-0.097
-287.589	-38.754	-0.328	0.170
-286.574	11.049	-0.152	-0.114
-285.559	-24.929	-0.257	0.150
-284.545	58.432	0.089	-0.086
-283.530	-14.490	0.252	-0.160
-282.516	800.000	-0.079	0.242
-281.501	-131.391	-0.245	-0.032
-280.486	-144.871	-0.424	0.038
-279.472	446.214	0.063	-0.135
-278.457	-200.000	0.022	-0.339
-277.443	-131.477	0.395	-0.051
-276.428	-200.000	-0.007	-0.048
-275.413	-126.815	0.252	-0.037
-274.399	27.075	-0.320	0.264
-273.384	-33.998	-0.248	0.134
-272.370	-200.000	0.009	-0.354
-271.355	245.266	0.138	0.228
-270.340	306.098	-0.060	-0.110
-269.326	-200.000	-0.055	0.270
-268.311	163.702	0.039	-0.054
-267.297	71.111	-0.126	-0.129
-266.282	103.274	-0.199	0.229
-265.267	-108.704	0.047	0.010
-264.253	800.000	0.070	-0.278
-263.238	107.207	-0.157	0.184
-262.224	-200.000	0.021	0.264
-261.209	83.528	0.180	-0.192
-260.195	-131.921	0.146	-0.019
-259.180	-21.864	-0.278	-0.166
-258.165	189.839	0.101	0.149
-257.151	77.466	0.222	0.232
-256.136	-77.755	-0.233	-0.079
-255.122	32.113	0.243	0.206
-254.107	-200.000	-0.081	0.461
-253.092	-106.734	0.062	0.013
-252.078	22.453	-0.275	0.221
-251.063	-200.000	0.021	0.287
-250.049	-5.630	-0.088	0.059
-249.034	674.502	-0.161	-0.411
-248.019	-98.031	-0.295	-0.075
-247.005	-148.970	-0.288	-0.023
-245.990	800.000	0.012	-0.039
-244.976	800.000	0.041	-0.168
-243.961	-59.840	0.089	-0.037
-242.946	-108.967	0.143	-0.030
-241.932	124.009	0.074	-0.091
-240.917	96.145	0.270	-0.303
-239.903	-12.152	-0.265	0.170
-238.888	26.832	0.221	0.182
-237.873	88.961	0.064	-0.070
-236.859	-189.162	-0.401	0.005
-235.844	374.907	0.105	-0.211
-234.830	-35.416	-0.025	0.013
-233.815	-52.753	0.175	0.079
-232.800	-101.258	-0.166	-0.040
-231.786	84.610	-0.167	-0.179
-230.771	-46.558	-0.269	-0.130
-229.757	69.466	-0.029	-0.029
-228.742	-200.000	-0.032	0.185
-227.727	12.797	-0.041	0.031
-226.713	-200.000	0.043	0.293
-225.698	-93.847	-0.449	0.121
-224.684	276.927	0.244	0.426
-223.669	-88.361	-0.305	-0.089
-222.655	-200.000	0.020	-0.192
-221.640	77.851	0.139	0.145
-220.625	800.000	-0.024	0.098
-219.611	-60.161	-0.072	-0.030
-218.596	480.872	-0.047	-0.104
-217.582	66.278	0.047	0.047
-216.567	291.044	0.063	0.113
-215.552	-35.260	-0.242	-0.129
-214.538	-87.251	-0.023	0.007
-213.523	241.591	0.040	-0.065
-212.509	49.605	-0.056	-0.052
-211.494	15.053	0.204	0.157
-210.479	-25.154	0.200	0.116
-209.465	-36.405	0.299	-0.158
-208.450	-125.333	0.369	-0.055
-207.436	-48.077	0.135	-0.064
-206.421	113.311	-0.232	0.276
-205.406	-200.000	-0.047	-0.286
-204.392	359.722	0.146	-0.287
-203.377	-200.000	-0.014	-0.130
-202.363	-151.876	0.092	0.007
-201.348	-83.747	0.247	0.077
-200.333	-76.185	0.093	0.032
-199.319	102.524	-0.236	0.270
-198.304	2.964	-0.145	-0.103
-197.290	-200.000	-0.007	0.044
-196.275	-76.175	-0.217	-0.075
-195.260	-6.296	-0.048	0.032
-194.246	800.000	0.009	-0.038
-193.231	-68.858	0.182	0.069
-192.217	-200.000	-0.028	-0.206
-191.202	800.000	0.064	0.228
-190.187	800.000	0.060	0.167
-189.173	-11.604	-0.280	0.180
-188.158	-119.467	0.272	-0.046
-187.144	-200.000	-0.017	0.080
-186.129	124.309	-0.425	0.523
-185.114	800.000	-0.100	0.331
-184.100	800.000	0.101	0.321
-183.085	-12.770	0.107	0.068
-182.071	145.229	-0.262	0.343
-181.056	390.738	-0.105	0.213
-180.042	-200.000	0.026	-0.215
-179.027	-181.124	0.292	0.006
-178.012	-200.000	-0.067	0.304
-176.998	800.000	0.111	-0.453
-175.983	800.000	0.049	0.147
-174.969	-200.000	0.042	0.350
-173.954	-147.722	0.174	0.014
-172.939	-84.888	-0.237	0.073
-171.925	-91.179	-0.309	0.087
-170.910	-33.279	0.113	-0.062
-169.896	800.000	0.042	-0.126
-168.881	-6.900	0.462	-0.307
-167.866	29.535	-0.033	0.028
-166.852	125.012	0.256	-0.315
-165.837	-133.517	-0.149	-0.018
-164.823	-8.784	-0.182	0.119
-163.808	-29.858	-0.230	-0.128
-162.793	183.512	0.080	0.116
-161.779	800.000	0.069	-0.265
-160.764	29.831	-0.108	-0.090
-159.750	-200.000	-0.026	-0.196
-158.735	3.963	-0.068	0.049
-157.720	122.403	-0.248	-0.303
-156.706	83.764	-0.091	0.098
-155.691	800.000	-0.045	0.146
-154.677	52.242	-0.145	-0.135
-153.662	-102.658	0.186	0.043
-152.647	661.559	-0.106	0.266
-151.633	-200.000	-0.034	-0.350
-150.618	-200.000	-0.041	-0.178
-149.604	10.256	-0.065	0.049
-148.589	148.888	-0.281	0.372
-147.574	800.000	-0.073	0.270
-146.560	281.532	-0.130	0.229
-145.545	800.000	-0.085	0.285
-144.531	18.242	0.117	0.091
-143.516	335.585	0.092	-0.174
-142.502	-200.000	0.001	0.158
-141.487	-200.000	0.036	0.371
-140.472	517.344	0.083	-0.190
-139.458	-156.457	0.269	0.016
-138.443	-7.693	-0.236	0.156
-137.429	84.072	0.243	-0.260
-136.414	146.422	-0.078	-0.102
-135.399	-200.000	0.018	0.228
-134.385	800.000	0.053	0.193
-133.370	253.612	-0.196	0.327
-132.356	135.234	-0.045	-0.057
-131.341	-200.000	0.009	0.236
-130.326	-31.864	0.209	0.115
-129.312	154.789	-0.114	-0.153
-128.297	104.220	-0.127	-0.147
-127.283	-185.377	0.273	0.004
-126.268	-67.573	-0.063	-0.024
-125.253	363.582	0.058	-0.113
-124.239	-101.358	-0.256	0.061
-123.224	128.849	-0.005	-0.006
-122.210	96.062	-0.068	0.076
-121.195	-161.982	0.076	-0.004
-120.180	381.613	0.011	-0.022
-119.166	-166.176	-0.221	0.009
-118.151	-200.000	0.074	0.376
-117.137	-200.000	-0.038	-0.256
-116.122	304.089	-0.082	-0.149
-115.107	800.000	-0.062	0.181
-114.093	800.000	0.121	-0.371
-113.078	-200.000	0.001	-0.121
-112.064	102.620	-0.245	0.281
-111.049	743.715	0.084	0.221
-110.034	-18.394	0.148	-0.090
-109.020	-154.351	0.376	-0.025
-108.005	96.883	-0.147	-0.165
-106.991	-51.581	-0.187	-0.085
-105.976	188.015	-0.120	-0.175
-104.962	-200.000	-0.016	0.120
-103.947	-39.361	-0.235	-0.121
-102.932	-200.000	-0.023	-0.106
-101.918	94.442	0.038	0.042
-100.903	46.338	0.145	-0.132
-99.889	-61.807	0.168	0.069
-98.874	38.449	0.117	0.102
-97.859	-200.000	-0.026	0.310
-96.845	800.000	-0.045	0.181
-95.830	-102.584	-0.222	-0.052
-94.816	-156.883	-0.093	-0.006
-93.801	-142.738	0.038	0.004
-92.786	94.552	0.054	0.059
-91.772	45.503	0.136	-0.122
-90.757	21.602	-0.093	-0.074
-89.743	-71.026	0.145	0.053
-88.728	39.117	0.164	0.143
-87.713	-126.392	0.085	0.012
-86.699	-200.000	0.006	0.055
-85.684	-200.000	0.020	0.441
-84.670	151.639	0.017	0.022
-83.655	-200.000	-0.252	0.000
-82.640	-58.609	0.096	0.040
-81.626	-161.052	-0.480	-0.025
-80.611	59.178	0.044	-0.042
-79.597	-21.301	-0.254	-0.152
-78.582	-200.000	-0.041	0.364
-77.567	744.895	0.102	0.267
-76.553	-86.959	0.165	0.049
-75.538	8.474	-0.159	0.116
-74.524	99.381	-0.181	-0.204
-73.509	-200.000	0.010	0.182
-72.494	15.613	0.168	-0.129
-71.480	330.968	-0.061	-0.115
-70.465	-200.000	0.026	0.249
-69.451	-163.745	0.108	0.005
-68.436	90.193	-0.226	-0.247
-67.422	-197.885	0.318	-0.002
-66.407	-200.000	-0.079	0.408
-65.392	28.323	-0.129	-0.106
-64.378	63.799	-0.123	-0.121
-63.363	-86.956	-0.206	-0.061
-62.349	-11.229	0.281	0.181
-61.334	140.643	-1.107	-1.425
-60.319	85.762	0.711	0.763
-59.305	326.135	-0.770	-1.437
-58.290	319.652	1.004	1.857
-57.276	800.000	0.462	1.543
-56.261	-200.000	135.734	620.756
-55.246	338.464	1642.000	3116.615
-54.232	136.520	2778.887	3535.678
-53.217	81.286	2158.392	2273.720
-52.203	29.727	1591.956	1321.345
-51.188	22.142	1344.418	1069.858
-50.173	20.255	1310.115	1031.311
-49.159	46.603	1384.977	1253.228
-48.144	42.188	1393.454	1233.745
-47.130	22.087	1342.093	1067.505
-46.115	19.262	1323.078	1035.390
-45.100	19.075	1318.158	1030.376
-44.086	19.131	1315.172	1028.336
-43.071	18.963	1313.068	1025.651
-42.057	19.032	1310.759	1024.212
-41.042	19.015	1309.519	1023.107
-40.027	19.038	1307.732	1021.805
-39.013	18.963	1306.070	1020.020
-37.998	18.965	1304.243	1018.563
-36.984	19.170	1302.106	1018.069
-35.969	19.241	1300.538	1017.223
-34.954	19.102	1298.978	1015.138
-33.940	19.194	1297.588	1014.557
-32.925	19.099	1296.603	1013.187
-31.911	19.118	1294.908	1011.931
-30.896	19.188	1293.636	1011.311
-29.881	19.279	1292.187	1010.671
-28.867	19.181	1290.700	1008.892
-27.852	19.278	1288.862	1007.984
-26.838	19.298	1287.865	1007.283
-25.823	19.151	1287.000	1005.707
-24.809	19.171	1285.386	1004.519
-23.794	19.202	1283.800	1003.422
-22.779	19.191	1282.554	1002.346
-21.765	19.145	1281.686	1001.360
-20.750	19.162	1280.395	1000.412
-19.736	19.008	1279.064	998.435
-18.721	19.105	1277.760	997.943
-17.706	19.121	1276.525	997.033
-16.692	19.156	1275.182	996.147
-15.677	19.106	1274.053	994.935
-14.663	19.037	1273.299	993.906
-13.648	19.038	1271.900	992.781
-12.633	19.009	1271.123	991.966
-11.619	19.108	1270.397	991.933
-10.604	19.001	1269.811	990.820
-9.590	19.054	1268.532	990.086
-8.575	18.932	1267.805	988.778
-7.560	19.022	1267.050	988.666
-6.546	19.045	1265.921	987.882
-5.531	19.093	1264.408	986.936
-4.517	19.020	1264.365	986.442
-3.502	18.983	1263.366	985.412
-2.487	19.026	1262.066	984.608
-1.473	18.930	1258.056	980.894
-0.458	17.465	1242.741	960.649
0.556	13.337	1227.585	926.170
1.571	9.927	1236.157	913.301
2.586	9.401	1252.031	921.931
3.600	9.652	1239.380	913.958
4.615	7.300	1167.544	848.333
5.629	2.695	1099.898	775.849
6.644	0.621	1084.292	754.421
7.659	0.511	1082.422	752.510
8.673	0.483	1081.617	751.740
9.688	0.615	1080.026	751.228
10.702	0.563	1077.853	749.391
11.717	3.417	1080.071	765.047
12.731	9.455	1088.147	800.813
13.746	14.959	1096.114	834.123
14.761	16.899	1098.498	845.550
15.775	16.457	1096.237	841.532
16.790	15.357	1094.513	834.664
17.804	14.726	1092.742	830.103
18.819	14.433	1091.727	827.805
19.834	14.237	1091.128	826.305
20.848	13.935	1090.231	824.056
21.863	13.837	1089.172	822.694
22.877	13.534	1088.539	820.642
23.892	13.481	1087.863	819.796
24.907	13.549	1086.692	819.179
25.921	13.603	1086.036	818.878
26.936	13.665	1085.252	818.521
27.950	13.656	1084.523	817.854
28.965	13.614	1083.362	816.702
29.980	13.812	1081.541	816.228
30.994	13.805	1080.236	815.138
32.009	13.771	1079.715	814.504
33.023	13.776	1078.636	813.646
34.038	13.702	1077.792	812.573
35.053	13.621	1076.976	811.490
36.067	13.651	1075.905	810.755
37.082	13.724	1075.725	810.906
38.096	13.851	1074.238	810.337
39.111	13.837	1073.745	809.821
40.126	13.672	1072.560	808.053
41.140	13.641	1071.488	807.022
42.155	13.479	1070.371	805.321
43.169	13.610	1068.491	804.471
44.184	13.599	1067.629	803.701
45.199	13.515	1067.002	802.746
46.213	13.571	1066.140	802.300
47.228	13.694	1064.826	801.836
48.242	13.592	1063.770	800.477
49.257	13.698	1062.098	799.661
50.271	13.651	1062.140	799.393
51.286	13.556	1061.348	798.268
52.301	13.683	1059.850	797.682
53.315	13.603	1059.102	796.662
54.330	13.585	1057.841	795.558
55.344	13.651	1056.487	794.786
56.359	13.638	1055.766	794.114
57.374	13.502	1055.366	793.088
58.388	13.517	1053.872	791.967
59.403	13.417	1053.734	791.316
60.417	13.547	1052.798	791.165
61.432	13.539	1051.742	790.263
62.447	13.417	1051.051	789.092
63.461	13.397	1050.577	788.571
64.476	13.508	1049.344	788.103
65.490	13.312	1048.803	786.697
66.505	13.487	1047.444	786.437
67.520	13.551	1047.169	786.463
68.534	13.620	1046.251	786.035
69.549	13.630	1045.551	785.487
70.563	13.604	1044.669	784.630
71.578	13.450	1043.964	783.303
72.593	13.503	1042.831	782.635
73.607	13.353	1042.885	781.894
74.622	13.469	1041.972	781.689
75.636	13.471	1041.156	781.018
76.651	13.466	1040.197	780.204
77.666	13.484	1039.933	780.024
78.680	13.464	1038.485	778.777
79.695	13.475	1038.141	778.499
80.709	13.382	1038.059	777.931
81.724	13.575	1036.760	777.798
82.739	13.584	1035.718	776.988
83.753	13.609	1035.387	776.787
84.768	13.619	1034.248	775.912
85.782	13.654	1033.643	775.552
86.797	13.574	1032.343	774.135
87.812	13.562	1031.828	773.624
88.826	13.598	1030.931	773.049
89.841	13.635	1029.521	772.096
90.855	13.651	1029.053	771.753
91.870	13.729	1027.879	771.165
92.884	13.720	1026.911	770.331
93.899	13.729	1026.605	770.075
94.914	13.724	1025.844	769.413
95.928	13.759	1024.753	768.688
96.943	13.840	1023.802	768.280
97.957	13.799	1022.926	767.368
98.972	13.642	1022.081	765.939
99.987	13.681	1021.130	765.341
101.001	13.675	1019.947	764.357
102.016	13.680	1019.492	763.973
103.030	13.745	1018.560	763.507
104.045	13.751	1017.801	762.895
105.060	13.665	1016.900	761.759
106.074	13.713	1016.028	761.257
107.089	13.589	1014.839	759.731
108.103	13.653	1014.096	759.400
109.118	13.657	1012.903	758.458
110.133	13.488	1012.662	757.437
111.147	13.633	1011.569	757.215
112.162	13.615	1011.052	756.680
113.176	13.504	1010.049	755.354
114.191	13.714	1008.858	755.355
115.206	13.727	1008.282	754.915
116.220	13.648	1007.320	753.770
117.235	13.691	1005.989	752.904
118.249	13.618	1005.683	752.276
119.264	13.665	1004.926	751.856
120.279	13.687	1004.099	751.268
121.293	13.682	1003.119	750.446
122.308	13.582	1002.434	749.418
123.322	13.705	1001.034	748.859
124.337	13.636	1000.110	747.791
125.352	13.681	998.939	747.050
126.366	13.675	997.920	746.197
127.381	13.649	997.328	745.572
128.395	13.549	996.259	744.258
129.410	13.703	995.016	743.955
130.424	13.609	994.473	743.061
131.439	13.613	993.642	742.391
132.454	13.664	993.005	742.077
133.468	13.633	992.147	741.231
134.483	13.696	990.777	740.426
135.497	13.661	990.266	739.820
136.512	13.787	988.837	739.250
137.527	13.634	988.750	738.438
138.541	13.643	988.111	737.933
139.556	13.679	987.185	737.339
140.570	13.822	986.640	737.501
141.585	13.797	985.352	736.361
142.600	13.858	984.320	735.794
143.614	13.848	983.706	735.228
144.629	13.878	983.023	734.785
145.643	13.785	982.457	733.886
146.658	13.973	980.662	733.310
147.673	13.832	980.161	732.246
148.687	13.793	979.825	731.761
149.702	13.766	978.651	730.699
150.716	13.905	977.636	730.489
151.731	13.849	977.107	729.785
152.746	13.773	976.360	728.826
153.760	13.787	975.346	728.069
154.775	14.001	974.917	728.622
155.789	13.908	974.386	727.750
156.804	13.969	973.442	727.251
157.819	13.944	972.836	726.622
158.833	13.949	972.482	726.316
159.848	13.989	971.490	725.684
160.862	14.017	970.611	725.088
161.877	13.957	969.297	723.779
162.892	13.883	968.937	723.125
163.906	13.962	967.807	722.559
164.921	13.909	967.113	721.751
165.935	13.963	966.008	721.093
166.950	14.093	965.342	721.096
167.964	13.987	964.361	719.843
168.979	14.063	962.984	719.080
169.994	14.040	962.252	718.370
171.008	14.049	961.809	718.014
172.023	14.001	961.166	717.262
173.037	14.142	960.053	716.978
174.052	14.228	959.266	716.696
175.067	14.112	958.962	715.908
176.081	14.009	958.433	715.004
177.096	14.103	957.656	714.766
178.110	14.064	957.358	714.314
179.125	14.251	956.311	714.270
180.140	14.053	956.302	713.352
181.154	14.163	955.619	713.248
182.169	14.210	954.711	712.711
183.183	14.201	954.452	712.415
184.198	14.253	953.652	711.979
185.213	14.336	952.745	711.591
186.227	14.313	951.979	710.859
187.242	14.345	951.658	710.691
188.256	14.281	951.008	709.872
189.271	14.332	950.355	709.539
190.286	14.334	948.706	708.254
191.300	14.279	948.512	707.811
192.315	14.170	948.015	706.917
193.329	14.115	947.795	706.455
194.344	14.205	946.966	706.155
195.359	14.386	945.794	705.989
196.373	14.386	945.306	705.560
197.388	14.432	945.212	705.623
198.402	14.430	944.639	705.124
199.417	14.564	943.244	704.587
200.432	14.532	942.912	704.142
201.446	14.595	942.726	704.207
202.461	14.533	942.037	703.367
203.475	14.584	941.659	703.237
204.490	14.425	940.952	701.978
205.504	14.601	939.902	701.874
206.519	14.658	938.758	701.196
207.534	14.588	938.111	700.357
208.548	14.475	937.894	699.657
209.563	14.602	937.279	699.670
210.577	14.653	936.397	699.165
211.592	14.577	935.798	698.338
212.607	14.624	935.230	698.048
213.621	14.714	934.158	697.563
214.636	14.721	933.297	696.888
215.650	14.770	932.530	696.458
216.665	14.763	931.757	695.790
217.680	14.766	931.187	695.312
218.694	14.761	930.927	695.035
219.709	14.732	929.993	694.157
220.723	14.797	929.093	693.695
221.738	14.752	928.842	693.260
222.753	14.823	927.796	692.712
223.767	14.848	927.398	692.456
224.782	14.892	926.789	692.120
225.796	14.898	926.121	691.588
226.811	14.903	925.487	691.073
227.826	14.887	924.926	690.527
228.840	14.944	923.851	689.900
229.855	14.901	923.043	689.058
230.869	14.787	922.578	688.180
231.884	14.984	921.494	688.120
232.899	14.892	920.848	687.200
233.913	14.831	920.297	686.478
234.928	14.873	919.228	685.789
235.942	14.811	919.381	685.591
236.957	14.812	918.766	685.076
237.972	15.004	917.968	685.204
238.986	14.902	917.151	684.118
240.001	15.055	916.448	684.156
241.015	14.910	915.828	683.042
242.030	14.923	915.384	682.701
243.045	15.033	914.664	682.556
244.059	15.015	914.233	682.101
245.074	15.132	913.349	681.854
246.088	15.066	912.534	680.919
247.103	15.188	912.191	681.098
248.117	15.298	911.339	680.849
249.132	15.168	910.967	679.984
250.147	15.196	910.351	679.574
251.161	15.246	909.767	679.282
252.176	15.190	909.413	678.731
253.190	15.452	908.130	678.776
254.205	15.469	907.485	678.299
255.220	15.327	907.047	677.339
256.234	15.396	906.599	677.225
257.249	15.347	905.672	676.274
258.263	15.426	904.891	675.949
259.278	15.305	904.424	675.052
260.293	15.486	903.537	675.059
261.307	15.558	902.759	674.708
262.322	15.452	902.503	674.032
263.336	15.410	901.390	672.971
264.351	15.524	900.768	672.904
265.366	15.445	900.390	672.247
266.380	15.622	899.354	672.120
267.395	15.551	898.612	671.223
268.409	15.586	898.242	671.027
269.424	15.653	897.144	670.416
270.439	15.617	896.626	669.826
271.453	15.648	895.527	669.068
272.468	15.601	895.291	668.647
273.482	15.572	895.083	668.315
274.497	15.593	894.576	667.962
275.512	15.639	893.584	667.344
276.526	15.714	893.070	667.200
277.541	15.653	892.906	666.775
278.555	15.718	892.048	666.335
279.570	15.773	891.494	666.079
280.585	15.798	890.340	665.257
281.599	15.777	889.792	664.705
282.614	15.792	889.397	664.409
283.628	15.784	888.670	663.776
284.643	15.824	888.113	663.462
285.657	15.781	887.427	662.721
286.672	15.834	886.573	662.232
287.687	15.860	885.817	661.711
288.701	15.862	885.363	661.322
289.716	15.836	885.255	661.078
290.730	15.911	884.372	660.655
291.745	15.868	883.840	660.030
292.760	16.038	883.055	660.052
293.774	16.033	882.389	659.476
294.789	15.934	881.830	658.612
295.803	16.089	880.633	658.267
296.818	15.941	880.692	657.673
297.833	16.022	879.263	656.865
298.847	16.097	878.563	656.575
299.862	16.069	878.072	656.043
300.876	15.965	878.001	655.524
301.891	16.098	877.190	655.378
302.906	16.252	876.552	655.441
303.920	16.211	875.874	654.718
304.935	16.378	875.163	654.778
305.949	16.231	874.873	653.932
306.964	16.037	874.949	653.180
307.979	16.163	873.796	652.748
308.993	16.254	873.163	652.571
310.008	16.299	872.449	652.152
311.022	16.274	871.911	651.596
312.037	16.196	871.425	650.873
313.052	16.356	870.518	650.754
314.066	16.184	870.381	649.933
315.081	16.430	869.141	649.894
316.095	16.267	868.899	649.030
317.110	16.275	868.511	648.715
318.125	16.314	867.949	648.387
319.139	16.183	868.157	647.980
320.154	16.195	867.493	647.475
321.168	16.427	866.151	647.306
322.183	16.215	866.083	646.383
323.197	16.457	865.073	646.500
324.212	16.346	864.823	645.831
325.227	16.343	864.125	645.239
326.241	16.329	863.228	644.461
327.256	16.510	862.878	644.832
328.270	16.436	862.193	643.981
329.285	16.470	861.502	643.539
330.300	16.452	860.951	642.999
331.314	16.448	860.516	642.604
332.329	16.429	860.298	642.310
333.343	16.542	859.779	642.298
334.358	16.569	859.267	641.960
335.373	16.398	859.360	641.324
336.387	16.542	858.496	641.167
337.402	16.619	858.826	641.651
338.416	16.504	858.171	640.666
339.431	16.641	857.675	640.758
340.446	16.699	857.033	640.444
341.460	16.723	856.263	639.901
342.475	16.519	856.615	639.336
343.489	16.738	856.043	639.678
344.504	16.799	855.627	639.545
345.519	16.706	854.871	638.570
346.533	16.789	853.946	638.138
347.548	16.753	853.546	637.645
348.562	16.759	853.265	637.401
349.577	16.711	852.215	636.379
350.592	16.729	851.825	636.102
351.606	16.834	850.865	635.720
352.621	16.705	850.483	634.897
353.635	16.746	849.798	634.480
354.650	16.811	849.311	634.305
355.665	16.698	848.750	633.407
356.679	16.906	848.158	633.689
357.694	16.849	847.737	633.103
358.708	16.770	846.857	632.097
359.723	16.806	846.251	631.723
360.738	16.935	845.744	631.767
361.752	16.864	844.995	630.886
362.767	17.070	844.254	631.043
363.781	17.152	843.666	630.856
364.796	17.139	843.287	630.465
365.810	17.108	843.171	630.209
366.825	17.210	842.226	629.824
367.840	17.091	842.155	629.275
368.854	17.144	841.390	628.843
369.869	16.973	841.483	628.224
370.883	17.111	840.745	628.129
371.898	17.307	840.302	628.466
372.913	17.149	840.210	627.760
373.927	17.156	839.514	627.207
374.942	17.287	838.981	627.240
375.956	17.390	838.694	627.350
376.971	17.272	838.171	626.466
377.986	17.431	837.489	626.489
379.000	17.416	837.098	626.083
380.015	17.389	836.651	625.593
381.029	17.434	836.116	625.303
382.044	17.441	835.545	624.849
383.059	17.397	834.985	624.212
384.073	17.489	834.270	623.960
385.088	17.392	833.692	623.119
386.102	17.434	833.370	622.975
387.117	17.363	832.714	622.170
388.132	17.302	832.273	621.562
389.146	17.613	831.338	621.945
390.161	17.545	830.958	621.359
391.175	17.540	830.700	621.090
392.190	17.540	830.035	620.537
393.205	17.430	829.715	619.845
394.219	17.467	829.655	619.881
395.234	17.482	828.989	619.383
396.248	17.403	828.609	618.756
397.263	17.510	827.837	618.513
398.278	17.518	827.737	618.411
399.292	17.456	826.872	617.487
400.307	17.717	826.200	617.876
401.321	17.556	826.072	617.141
402.336	17.645	825.389	616.900
403.350	17.631	825.206	616.658
404.365	17.693	824.524	616.318
405.380	17.729	824.240	616.180
406.394	17.766	823.868	615.981
407.409	17.912	823.015	615.816
408.423	17.799	823.131	615.439
409.438	17.949	822.592	615.523
410.453	17.742	822.512	614.663
411.467	17.821	821.652	614.250
412.482	17.820	821.318	613.943
413.496	18.042	820.461	614.048
414.511	17.867	820.719	613.557
415.526	17.800	820.380	613.006
416.540	17.996	819.557	613.040
417.555	17.923	819.009	612.315
418.569	17.976	818.705	612.225
419.584	18.028	818.000	611.830
420.599	18.047	817.442	611.425
421.613	115.674	1301.341	1492.992
422.628	100.284	1371.828	1493.089
