DTS Sentinel unit serial number:	SN413079Multiplexer serial number:	ORYXHardware model number:	OX4-SRSoftware version number:	ORYX F/W v4.00 Oryx Data Collector v3.7.2.0data status	okinstallation	princeton_trtdifferential loss correction	single-endedforward channel	channel 1reverse channel	N/Adate	2019/09/16time	00:42:35forward acquisition time	60.00reverse acquisition time	0.00gamma	496.2192k internal	0.2334k external	0.2334temperature offset calibration	0.9974default loss term (dB/km)	0.3790temperature slope calibration	1.0000multiplexer offset coefficient	1.0000multiplexer slope coefficient	1.0000fibre end	0.00T internal ref (°C)	27.45T ext. ref 1 (°C)	9.63T ext. ref 2 (°C)	21.48length (m)	temperature (°C)	Stokes	anti-Stokes-747.200	-180.610	-0.042	0.001
-746.185	-200.000	0.036	0.197
-745.171	359.913	-0.089	-0.179
-744.156	108.769	-0.337	0.405
-743.142	-113.956	-0.138	0.027
-742.127	61.776	-0.063	0.063
-741.112	31.092	-0.281	0.243
-740.098	-121.780	-0.194	-0.032
-739.083	-112.171	-0.125	0.025
-738.069	102.552	-0.160	0.189
-737.054	135.684	0.320	-0.419
-736.039	-200.000	-0.011	-0.122
-735.025	-88.883	0.327	0.097
-734.010	-192.071	-0.187	-0.002
-732.996	-27.986	-0.077	-0.045
-731.981	-91.597	-0.129	0.037
-730.966	15.332	0.267	0.210
-729.952	-181.123	-0.231	-0.005
-728.937	-60.728	-0.178	-0.076
-727.923	23.395	0.052	0.043
-726.908	-200.000	0.029	-0.477
-725.894	-200.000	0.071	0.366
-724.879	-200.000	0.054	0.297
-723.864	-159.121	-0.196	0.011
-722.850	-170.112	0.374	0.013
-721.835	-40.143	0.080	-0.042
-720.821	-31.997	-0.153	0.086
-719.806	-123.892	0.050	0.008
-718.791	800.000	0.030	-0.125
-717.777	800.000	-0.064	0.202
-716.762	184.868	-0.202	0.301
-715.748	-63.581	-0.135	0.056
-714.733	121.908	0.029	0.037
-713.718	-195.176	0.082	-0.001
-712.704	-16.673	-0.154	-0.098
-711.689	-101.195	-0.220	-0.054
-710.675	-200.000	0.009	0.052
-709.660	115.579	-0.074	-0.090
-708.645	-200.000	0.009	0.153
-707.631	800.000	0.101	0.302
-706.616	297.322	-0.109	-0.200
-705.602	398.573	0.013	0.027
-704.587	-200.000	0.006	0.076
-703.572	-123.667	-0.193	0.031
-702.558	-47.603	-0.334	0.163
-701.543	-200.000	-0.020	-0.089
-700.529	-200.000	0.010	-0.448
-699.514	77.057	0.078	-0.083
-698.499	66.842	0.172	-0.175
-697.485	-120.463	-0.120	0.020
-696.470	-58.263	-0.173	0.076
-695.456	-122.002	-0.103	-0.017
-694.441	48.523	-0.115	0.109
-693.426	-200.000	0.001	0.382
-692.412	-85.449	0.051	0.016
-691.397	119.974	0.129	0.161
-690.383	131.456	-0.223	0.287
-689.368	-152.151	0.009	-0.001
-688.354	-97.365	-0.096	0.025
-687.339	-7.341	0.060	0.041
-686.324	40.442	0.083	-0.075
-685.310	-77.201	0.365	0.127
-684.295	24.541	0.215	-0.179
-683.281	-200.000	-0.013	0.165
-682.266	88.006	0.141	0.157
-681.251	-45.381	-0.215	0.107
-680.237	800.000	0.074	-0.221
-679.222	47.145	-0.054	-0.050
-678.208	-95.277	-0.265	-0.071
-677.193	149.295	0.003	0.004
-676.178	-25.193	0.223	-0.133
-675.164	-35.533	-0.081	0.044
-674.149	800.000	0.077	-0.228
-673.135	-65.927	-0.325	0.130
-672.120	-178.444	0.103	-0.002
-671.105	440.274	-0.149	-0.327
-670.091	800.000	0.135	0.409
-669.076	800.000	0.061	-0.168
-668.062	67.575	-0.028	-0.029
-667.047	260.508	-0.041	-0.072
-666.032	-12.997	0.081	-0.053
-665.018	-16.243	0.317	-0.202
-664.003	-12.642	0.102	-0.067
-662.989	-48.782	-0.266	0.128
-661.974	60.676	0.067	-0.066
-660.959	167.197	0.196	0.279
-659.945	-200.000	0.000	0.226
-658.930	-88.427	-0.098	0.029
-657.916	222.558	-0.189	-0.305
-656.901	-200.000	-0.047	-0.237
-655.886	-116.593	0.225	0.041
-654.872	800.000	-0.041	0.177
-653.857	-135.226	0.052	-0.006
-652.843	-116.067	0.071	-0.013
-651.828	-120.374	0.132	-0.022
-650.814	-67.252	0.111	0.044
-649.799	-111.667	0.165	0.034
-648.784	15.453	0.131	0.103
-647.770	486.524	0.098	-0.224
-646.755	-119.181	-0.367	0.064
-645.741	-56.583	0.197	0.087
-644.726	50.515	-0.290	0.275
-643.711	-24.806	0.059	-0.035
-642.697	800.000	0.086	0.319
-641.682	574.547	-0.138	0.338
-640.668	-47.820	-0.148	-0.072
-639.653	-88.162	-0.079	0.024
-638.638	-200.000	0.017	0.332
-637.624	-155.279	-0.187	0.012
-636.609	151.300	-0.134	0.183
-635.595	-100.064	0.423	0.106
-634.580	-4.223	-0.073	-0.051
-633.565	-97.427	0.412	-0.107
-632.551	-200.000	0.019	-0.111
-631.536	-117.856	-0.069	0.012
-630.522	-93.416	-0.106	0.029
-629.507	-55.443	-0.150	0.068
-628.492	206.281	0.028	-0.044
-627.478	-149.668	-0.085	0.007
-626.463	800.000	0.118	0.368
-625.449	800.000	-0.021	-0.079
-624.434	36.254	0.111	-0.098
-623.419	-3.001	-0.338	0.236
-622.405	-162.934	0.232	0.011
-621.390	-200.000	0.006	-0.088
-620.376	136.825	-0.109	0.143
-619.361	-200.000	0.019	-0.220
-618.346	-50.132	0.261	0.124
-617.332	131.184	-0.129	0.165
-616.317	-0.739	0.151	-0.107
-615.303	-200.000	0.002	-0.074
-614.288	2.323	-0.074	0.053
-613.273	36.824	0.071	-0.062
-612.259	-200.000	0.024	0.190
-611.244	-60.171	-0.088	-0.038
-610.230	-13.937	0.033	0.021
-609.215	-196.721	0.338	-0.002
-608.201	665.791	-0.022	-0.056
-607.186	-103.682	-0.103	-0.024
-606.171	144.903	0.080	0.106
-605.157	145.692	-0.191	0.255
-604.142	70.686	-0.153	0.158
-603.128	422.082	0.091	-0.196
-602.113	-98.476	-0.372	0.095
-601.098	168.936	-0.082	-0.118
-600.084	-76.223	0.233	-0.082
-599.069	800.000	-0.028	-0.103
-598.055	78.524	0.325	-0.347
-597.040	-27.729	-0.180	0.104
-596.025	-56.609	-0.203	0.090
-595.011	-200.000	-0.039	0.383
-593.996	39.959	-0.206	-0.185
-592.982	7.464	0.174	0.130
-591.967	800.000	-0.108	-0.389
-590.952	-200.000	-0.038	-0.330
-589.938	151.228	-0.073	0.099
-588.923	342.434	-0.054	0.106
-587.909	-200.000	-0.002	-0.172
-586.894	-98.557	-0.220	-0.056
-585.879	-84.345	0.289	0.091
-584.865	-24.002	-0.191	-0.114
-583.850	800.000	0.105	-0.349
-582.836	-157.079	0.205	0.012
-581.821	427.702	-0.072	0.156
-580.806	-200.000	-0.044	0.263
-579.792	39.762	-0.216	-0.194
-578.777	375.768	0.034	-0.070
-577.763	-20.037	0.323	-0.199
-576.748	-126.541	0.180	0.027
-575.733	205.386	0.253	0.392
-574.719	561.637	0.027	0.064
-573.704	95.218	0.156	-0.178
-572.690	13.377	-0.259	0.201
-571.675	347.373	-0.095	-0.187
-570.661	250.647	-0.135	0.228
-569.646	326.603	0.205	-0.391
-568.631	659.829	-0.047	-0.120
-567.617	-164.627	-0.167	0.008
-566.602	90.717	-0.119	0.134
-565.588	-129.845	-0.164	0.023
-564.573	46.348	0.253	0.234
-563.558	-200.000	-0.046	-0.246
-562.544	-59.415	0.132	-0.057
-561.529	800.000	-0.054	-0.167
-560.515	224.688	0.089	0.143
-559.500	-0.144	-0.406	-0.288
-558.485	-31.740	-0.431	0.241
-557.471	-28.479	-0.152	-0.087
-556.456	-81.990	0.120	0.039
-555.442	-200.000	0.005	0.143
-554.427	-97.011	0.345	-0.090
-553.412	-152.249	-0.135	0.010
-552.398	3.015	-0.197	0.143
-551.383	201.851	0.068	-0.105
-550.369	-115.794	-0.180	0.034
-549.354	-24.321	-0.137	-0.081
-548.339	9.326	-0.080	0.061
-547.325	-109.193	-0.309	0.065
-546.310	44.535	0.095	0.087
-545.296	99.012	-0.117	-0.135
-544.281	-36.822	-0.258	-0.138
-543.266	-67.098	-0.117	-0.046
-542.252	800.000	0.047	-0.177
-541.237	86.005	0.063	-0.070
-540.223	-45.472	-0.150	0.074
-539.208	-29.539	-0.237	0.135
-538.193	89.568	-0.100	-0.111
-537.179	-116.381	-0.420	0.077
-536.164	112.764	0.058	0.071
-535.150	2.337	0.195	0.140
-534.135	300.635	0.025	0.045
-533.121	-125.594	-0.242	-0.037
-532.106	196.663	-0.204	-0.310
-531.091	55.947	0.133	0.129
-530.077	-36.535	-0.179	-0.096
-529.062	-200.000	0.031	-0.148
-528.048	-101.528	0.257	-0.062
-527.033	800.000	0.080	0.231
-526.018	-109.146	-0.304	-0.064
-525.004	-107.508	-0.356	-0.078
-523.989	141.094	-0.123	-0.162
-522.975	136.423	0.168	0.219
-521.960	27.598	0.134	0.112
-520.945	800.000	-0.073	0.200
-519.931	-28.413	-0.246	0.142
-518.916	31.630	-0.298	-0.255
-517.902	-100.555	-0.080	0.020
-516.887	-32.684	-0.254	-0.141
-515.872	-22.004	0.170	-0.103
-514.858	258.556	0.055	-0.095
-513.843	0.037	-0.371	0.263
-512.829	800.000	-0.057	0.182
-511.814	-108.647	0.344	0.074
-510.799	-118.818	0.251	0.044
-509.785	-68.610	-0.245	0.094
-508.770	11.057	-0.201	-0.153
-507.756	-75.848	0.115	0.041
-506.741	-128.672	-0.321	-0.045
-505.726	800.000	0.059	-0.249
-504.712	800.000	-0.012	0.047
-503.697	188.647	0.137	0.204
-502.683	130.383	0.059	0.075
-501.668	-164.806	-0.342	-0.015
-500.653	357.452	0.041	-0.082
-499.639	-4.595	0.219	-0.150
-498.624	432.666	-0.136	-0.294
-497.610	-146.025	0.135	-0.012
-496.595	421.679	0.056	0.119
-495.581	-45.878	0.064	0.032
-494.566	-56.844	-0.142	0.062
-493.551	-169.736	-0.182	-0.007
-492.537	-57.806	-0.386	-0.168
-491.522	-16.302	0.163	0.103
-490.508	101.349	0.222	0.258
-489.493	-140.499	0.109	-0.011
-488.478	21.046	0.243	0.196
-487.464	-89.065	0.273	0.080
-486.449	-200.000	0.060	-0.411
-485.435	-200.000	-0.048	-0.486
-484.420	39.592	-0.237	-0.211
-483.405	-123.773	-0.117	0.018
-482.391	800.000	0.038	-0.149
-481.376	-90.275	-0.053	-0.015
-480.362	336.459	-0.048	0.092
-479.347	-68.040	0.308	0.119
-478.332	90.058	-0.230	-0.255
-477.318	-200.000	-0.050	0.327
-476.303	-111.061	-0.260	-0.053
-475.289	-200.000	-0.093	-0.445
-474.274	-122.650	-0.114	-0.018
-473.259	34.528	-0.038	-0.033
-472.245	18.871	-0.078	-0.062
-471.230	66.533	-0.150	0.152
-470.216	266.078	0.263	0.456
-469.201	147.314	-0.028	0.037
-468.186	33.906	0.131	-0.113
-467.172	231.311	0.063	-0.103
-466.157	-161.843	-0.468	-0.024
-465.143	-88.541	0.120	-0.036
-464.128	-118.025	0.197	0.035
-463.113	60.001	0.162	0.159
-462.099	-200.000	-0.014	0.265
-461.084	98.618	-0.207	-0.238
-460.070	800.000	-0.032	0.103
-459.055	-200.000	0.049	0.405
-458.040	-2.233	-0.117	0.081
-457.026	-141.216	0.113	0.011
-456.011	599.441	0.155	0.382
-454.997	-153.133	-0.119	-0.008
-453.982	-19.067	-0.459	0.283
-452.968	7.167	-0.150	0.111
-451.953	149.258	0.121	-0.163
-450.938	189.284	0.064	-0.096
-449.924	17.354	-0.213	-0.168
-448.909	429.549	0.101	-0.218
-447.895	-74.538	0.193	0.069
-446.880	756.080	0.121	-0.326
-445.865	96.954	0.043	-0.049
-444.851	-85.170	-0.072	0.022
-443.836	-200.000	-0.080	0.358
-442.822	56.754	0.354	0.342
-441.807	249.081	0.125	-0.210
-440.792	-200.000	0.050	0.286
-439.778	-200.000	-0.002	-0.412
-438.763	57.480	-0.089	0.086
-437.749	523.391	-0.121	-0.281
-436.734	77.162	-0.156	0.164
-435.719	-200.000	0.030	-0.205
-434.705	-30.975	0.225	0.126
-433.690	-146.709	0.132	-0.011
-432.676	72.349	-0.169	-0.175
-431.661	-200.000	-0.001	0.147
-430.646	-106.419	-0.211	0.047
-429.632	15.745	0.189	0.147
-428.617	-39.723	0.262	0.136
-427.603	147.452	-0.025	-0.033
-426.588	-76.683	0.125	-0.044
-425.573	-22.003	-0.338	-0.204
-424.559	-39.065	-0.252	0.132
-423.544	30.131	-0.024	-0.020
-422.530	-115.332	-0.492	-0.092
-421.515	-153.427	-0.155	-0.011
-420.500	35.905	0.193	-0.169
-419.486	-1.260	-0.242	0.169
-418.471	-183.366	0.147	-0.003
-417.457	-70.270	-0.213	0.080
-416.442	-152.802	-0.249	0.018
-415.428	800.000	0.052	-0.179
-414.413	4.068	-0.072	-0.052
-413.398	410.162	-0.112	0.236
-412.384	201.710	0.186	-0.284
-411.369	-93.072	0.076	0.021
-410.355	462.317	0.050	-0.110
-409.340	-200.000	0.031	-0.183
-408.325	360.672	-0.059	-0.117
-407.311	15.378	0.075	-0.058
-406.296	-146.720	0.149	-0.013
-405.282	-12.139	0.127	-0.082
-404.267	-147.873	0.400	0.033
-403.252	307.909	0.156	-0.289
-402.238	-4.837	-0.085	0.058
-401.223	-182.306	0.232	0.004
-400.209	58.573	-0.188	-0.183
-399.194	-1.351	-0.163	0.114
-398.179	-182.064	0.072	-0.001
-397.165	-200.000	0.006	-0.387
-396.150	147.783	-0.197	-0.264
-395.136	-8.171	0.243	0.162
-394.121	109.150	0.185	0.219
-393.106	198.007	0.247	-0.374
-392.092	345.159	-0.068	-0.132
-391.077	20.609	-0.101	-0.081
-390.063	166.431	0.104	0.147
-389.048	-200.000	0.002	0.032
-388.033	-158.249	0.195	0.011
-387.019	800.000	0.028	-0.087
-386.004	800.000	0.127	-0.377
-384.990	-173.646	-0.285	0.008
-383.975	800.000	-0.021	-0.060
-382.960	-89.467	0.028	0.008
-381.946	-72.117	-0.125	0.046
-380.931	-67.758	0.169	-0.065
-379.917	-5.036	0.135	0.092
-378.902	339.705	0.072	-0.139
-377.888	129.547	0.088	0.111
-376.873	-200.000	0.009	0.185
-375.858	174.824	0.150	-0.215
-374.844	800.000	0.138	0.415
-373.829	296.395	0.069	0.126
-372.815	45.823	0.170	-0.156
-371.800	4.177	-0.043	0.031
-370.785	-110.350	0.242	-0.050
-369.771	-23.315	-0.123	0.073
-368.756	800.000	0.020	-0.055
-367.742	-11.252	0.160	0.105
-366.727	-6.287	0.297	-0.201
-365.712	-122.669	-0.322	-0.052
-364.698	265.126	0.087	0.151
-363.683	159.569	-0.159	0.220
-362.669	-200.000	-0.013	0.079
-361.654	-139.897	-0.111	-0.012
-360.639	-108.795	0.381	-0.081
-359.625	-200.000	-0.036	0.194
-358.610	-100.095	0.238	-0.059
-357.596	455.050	-0.178	0.391
-356.581	-23.362	0.164	-0.098
-355.566	714.181	0.059	0.154
-354.552	787.302	0.219	0.594
-353.537	-200.000	0.003	-0.236
-352.523	66.260	0.237	0.238
-351.508	800.000	-0.015	-0.052
-350.493	55.174	-0.105	0.100
-349.479	-200.000	0.100	0.699
-348.464	778.860	0.080	0.217
-347.450	-144.979	0.429	-0.039
-346.435	-200.000	-0.024	-0.257
-345.420	410.374	-0.033	-0.069
-344.406	-91.565	0.056	-0.016
-343.391	800.000	0.069	-0.209
-342.377	-42.063	-0.304	-0.154
-341.362	-88.523	0.282	0.083
-340.348	-200.000	-0.002	0.157
-339.333	-24.374	-0.133	-0.078
-338.318	425.296	-0.080	0.170
-337.304	77.799	-0.198	0.209
-336.289	800.000	-0.081	-0.268
-335.275	-200.000	0.000	-0.229
-334.260	-200.000	0.000	-0.039
-333.245	37.952	-0.094	-0.083
-332.231	-20.274	0.238	-0.145
-331.216	10.805	0.013	0.010
-330.202	-200.000	-0.068	0.569
-329.187	163.299	0.034	0.048
-328.172	-121.262	-0.187	-0.031
-327.158	-200.000	0.008	-0.096
-326.143	385.940	0.098	0.199
-325.129	-80.055	-0.187	-0.062
-324.114	498.577	-0.050	0.114
-323.099	682.553	0.110	-0.283
-322.085	149.239	0.203	0.272
-321.070	667.797	-0.058	-0.147
-320.056	53.485	0.237	0.224
-319.041	-88.616	-0.190	0.056
-318.026	-94.803	0.260	0.070
-317.012	-200.000	-0.243	-0.000
-315.997	125.570	0.123	-0.154
-314.983	800.000	0.056	-0.164
-313.968	-106.927	-0.078	-0.017
-312.953	-184.216	-0.083	-0.001
-311.939	-200.000	0.012	0.095
-310.924	159.916	0.026	-0.036
-309.910	-71.706	-0.129	-0.048
-308.895	-164.868	-0.101	-0.004
-307.880	94.232	-0.063	0.070
-306.866	-200.000	0.023	0.205
-305.851	195.655	-0.176	-0.265
-304.837	-200.000	0.018	-0.181
-303.822	560.477	0.027	-0.063
-302.807	-200.000	-0.043	0.284
-301.793	48.276	-0.418	0.386
-300.778	109.005	0.115	-0.136
-299.764	800.000	-0.022	0.097
-298.749	-200.000	-0.066	-0.287
-297.735	81.322	0.098	0.104
-296.720	-200.000	-0.009	0.049
-295.705	-107.273	-0.121	-0.026
-294.691	244.236	0.067	-0.111
-293.676	-200.000	-0.004	0.057
-292.662	-40.175	0.140	-0.072
-291.647	-82.025	-0.294	0.095
-290.632	235.423	-0.100	0.164
-289.618	-200.000	0.005	-0.118
-288.603	73.435	-0.112	0.115
-287.589	-149.311	-0.195	-0.015
-286.574	-200.000	0.030	-0.218
-285.559	-200.000	0.014	0.198
-284.545	-87.700	-0.083	-0.025
-283.530	800.000	0.074	-0.244
-282.516	429.671	-0.040	0.086
-281.501	-65.536	0.469	-0.186
-280.486	11.722	0.290	0.220
-279.472	162.580	0.079	0.110
-278.457	49.685	0.231	0.215
-277.443	-166.774	0.434	-0.018
-276.428	159.253	0.077	-0.106
-275.413	-96.286	-0.095	-0.025
-274.399	-21.857	0.109	0.066
-273.384	520.309	-0.103	0.239
-272.370	-154.470	-0.200	0.013
-271.355	-5.226	0.209	0.142
-270.340	800.000	0.061	-0.173
-269.326	48.537	0.340	-0.315
-268.311	517.784	0.065	-0.150
-267.297	204.586	0.162	0.247
-266.282	-200.000	-0.005	0.124
-265.267	685.949	0.068	0.175
-264.253	-200.000	-0.053	0.234
-263.238	-39.127	0.331	-0.172
-262.224	432.002	0.103	-0.219
-261.209	800.000	-0.076	-0.216
-260.195	-200.000	0.000	0.028
-259.180	315.500	0.130	-0.242
-258.165	-200.000	0.043	-0.202
-257.151	-75.626	-0.102	0.036
-256.136	277.003	-0.032	0.055
-255.122	-82.253	-0.121	-0.039
-254.107	-200.000	-0.006	-0.321
-253.092	3.378	0.279	0.201
-252.078	-34.338	0.336	-0.182
-251.063	40.634	-0.311	-0.276
-250.049	3.125	-0.220	-0.158
-249.034	74.887	0.126	0.131
-248.019	167.387	-0.061	0.085
-247.005	-162.152	-0.219	0.011
-245.990	-3.413	0.041	0.028
-244.976	-200.000	0.005	0.062
-243.961	-19.661	-0.326	-0.198
-242.946	800.000	0.045	-0.171
-241.932	168.662	0.147	-0.206
-240.917	421.592	-0.187	-0.395
-239.903	74.600	0.125	-0.130
-238.888	-200.000	0.011	-0.217
-237.873	800.000	-0.051	0.166
-236.859	149.217	-0.208	0.278
-235.844	-30.554	-0.225	0.126
-234.830	-112.595	0.294	-0.058
-233.815	-200.000	-0.008	0.072
-232.800	-82.569	0.114	0.036
-231.786	110.154	0.199	-0.235
-230.771	-72.051	0.085	-0.031
-229.757	-58.993	0.162	-0.069
-228.742	-200.000	-0.007	-0.083
-227.727	-116.181	0.313	-0.057
-226.713	87.337	0.130	-0.142
-225.698	800.000	-0.047	-0.175
-224.684	-106.078	-0.256	-0.057
-223.669	-200.000	-0.044	-0.235
-222.655	-23.002	-0.090	-0.053
-221.640	37.301	-0.145	-0.127
-220.625	-200.000	-0.053	-0.234
-219.611	72.896	-0.090	0.092
-218.596	42.572	-0.155	-0.139
-217.582	251.504	0.119	0.200
-216.567	-200.000	-0.079	-0.365
-215.552	27.115	0.060	0.050
-214.538	800.000	0.116	-0.385
-213.523	509.899	-0.062	0.143
-212.509	-162.525	0.138	-0.007
-211.494	402.011	-0.126	-0.260
-210.479	85.079	0.247	0.267
-209.465	604.890	0.099	-0.242
-208.450	-51.886	0.344	0.157
-207.436	800.000	0.024	0.085
-206.421	277.307	0.194	0.339
-205.406	-200.000	-0.010	-0.203
-204.392	-112.724	-0.118	-0.023
-203.377	-200.000	-0.031	-0.237
-202.363	-9.645	0.094	0.062
-201.348	88.155	-0.143	-0.156
-200.333	23.150	-0.246	0.199
-199.319	-93.138	-0.063	-0.017
-198.304	153.486	-0.120	0.161
-197.290	107.150	0.221	0.258
-196.275	316.128	-0.108	-0.200
-195.260	-104.271	0.346	0.079
-194.246	-200.000	-0.020	-0.237
-193.231	-151.148	0.207	0.015
-192.217	-84.360	0.346	-0.108
-191.202	352.983	0.105	0.205
-190.187	175.252	0.058	0.083
-189.173	24.322	-0.209	-0.170
-188.158	-154.269	0.291	0.019
-187.144	-17.638	0.224	0.139
-186.129	-142.049	0.246	-0.024
-185.114	800.000	-0.025	0.089
-184.100	-69.234	-0.286	0.108
-183.085	-185.861	-0.263	0.004
-182.071	-107.129	0.179	0.039
-181.056	-91.324	0.115	0.032
-180.042	-109.479	-0.159	-0.033
-179.027	124.808	0.044	-0.054
-178.012	83.493	-0.197	-0.211
-176.998	7.539	0.016	-0.012
-175.983	-200.000	0.090	0.500
-174.969	-200.000	-0.007	0.130
-173.954	-200.000	-0.036	0.329
-172.939	-200.000	0.028	-0.234
-171.925	10.995	-0.169	0.127
-170.910	-67.564	-0.176	0.068
-169.896	-14.805	0.073	-0.046
-168.881	603.587	0.164	0.401
-167.866	-68.322	-0.241	-0.092
-166.852	-96.987	-0.492	0.127
-165.837	-26.923	-0.114	0.065
-164.823	-7.385	0.238	0.158
-163.808	-16.914	0.212	0.132
-162.793	-144.361	0.246	-0.022
-161.779	-81.895	0.371	-0.119
-160.764	-89.166	-0.337	-0.098
-159.750	-86.358	0.282	0.085
-158.735	654.558	-0.066	-0.166
-157.720	-200.000	0.057	0.372
-156.706	-200.000	-0.025	0.125
-155.691	-33.043	-0.086	-0.047
-154.677	-200.000	-0.028	-0.150
-153.662	-63.615	-0.395	-0.159
-152.647	396.643	0.064	0.132
-151.633	-149.779	0.213	0.016
-150.618	100.746	-0.161	0.184
-149.604	-200.000	-0.008	0.141
-148.589	338.377	0.093	-0.177
-147.574	-160.838	0.062	0.003
-146.560	16.673	0.151	-0.117
-145.545	166.679	0.098	0.136
-144.531	88.260	0.059	0.064
-143.516	7.394	-0.173	-0.127
-142.502	123.595	0.234	0.289
-141.487	513.029	0.092	-0.211
-140.472	-164.066	-0.176	0.008
-139.458	800.000	-0.133	0.467
-138.443	341.316	-0.187	0.359
-137.429	130.918	0.108	0.136
-136.414	-139.975	0.255	-0.026
-135.399	190.625	0.167	0.246
-134.385	-91.245	-0.118	0.033
-133.370	-190.674	-0.427	-0.004
-132.356	-200.000	-0.045	0.292
-131.341	-200.000	-0.035	0.268
-130.326	-4.211	-0.185	0.125
-129.312	76.466	-0.176	0.183
-128.297	-162.666	0.213	-0.010
-127.283	177.407	0.080	-0.114
-126.268	-200.000	-0.006	0.404
-125.253	21.039	-0.243	0.194
-124.239	-81.221	0.116	-0.038
-123.224	-200.000	-0.029	0.173
-122.210	146.009	0.267	0.351
-121.195	-68.648	-0.214	-0.081
-120.180	-55.826	0.212	-0.093
-119.166	77.328	-0.301	0.314
-118.151	-200.000	-0.001	-0.059
-117.137	-78.855	-0.282	0.094
-116.122	142.413	-0.069	0.090
-115.107	800.000	-0.033	0.105
-114.093	-60.035	0.185	-0.078
-113.078	-61.986	0.155	0.063
-112.064	515.913	-0.057	-0.129
-111.049	-75.408	-0.220	-0.077
-110.034	-200.000	0.068	0.404
-109.020	-103.369	-0.200	0.046
-108.005	55.884	-0.017	0.017
-106.991	305.523	-0.160	0.292
-105.976	800.000	0.070	0.215
-104.962	-82.772	-0.221	0.070
-103.947	384.885	0.112	-0.227
-102.932	-171.609	0.271	-0.009
-101.918	-106.648	0.242	-0.053
-100.903	475.109	0.214	-0.474
-99.889	-164.767	-0.195	0.009
-98.874	800.000	0.043	-0.144
-97.859	23.640	0.186	-0.150
-96.845	74.103	-0.064	0.066
-95.830	-200.000	-0.017	-0.128
-94.816	111.280	0.033	0.039
-93.801	-200.000	0.013	-0.311
-92.786	652.997	0.094	-0.236
-91.772	-118.407	-0.363	-0.063
-90.757	800.000	0.022	-0.066
-89.743	-162.295	0.173	0.008
-88.728	-62.051	0.143	-0.059
-87.713	117.939	-0.049	-0.059
-86.699	-149.512	0.126	0.010
-85.684	-67.050	0.205	-0.079
-84.670	770.289	-0.051	0.136
-83.655	280.813	0.192	0.336
-82.640	-169.579	0.378	0.013
-81.626	11.013	0.156	0.117
-80.611	329.348	0.049	0.092
-79.597	800.000	-0.051	-0.155
-78.582	174.936	0.257	0.364
-77.567	476.613	-0.110	0.242
-76.553	215.270	0.241	0.374
-75.538	12.969	0.231	-0.175
-74.524	107.825	0.102	-0.119
-73.509	127.617	0.242	-0.301
-72.494	-200.000	-0.042	0.271
-71.480	800.000	0.081	0.256
-70.465	-103.557	-0.312	0.072
-69.451	-200.000	0.003	-0.047
-68.436	83.589	0.158	-0.169
-67.422	-147.304	0.241	0.020
-66.407	264.338	-0.255	-0.434
-65.392	-128.210	0.439	-0.061
-64.378	-61.918	-0.297	0.122
-63.363	-93.162	-0.165	-0.045
-62.349	-104.427	0.302	-0.068
-61.334	54.727	-0.828	-0.782
-60.319	220.336	0.532	0.835
-59.305	710.031	-0.445	-1.151
-58.290	192.980	0.833	1.232
-57.276	300.894	0.845	1.527
-56.261	-200.000	113.435	647.575
-55.246	484.261	1497.295	3333.583
-54.232	149.782	2657.853	3524.488
-53.217	104.416	2138.858	2463.227
-52.203	38.800	1590.513	1389.265
-51.188	30.789	1337.730	1120.447
-50.173	27.893	1299.338	1071.287
-49.159	54.935	1355.635	1280.309
-48.144	53.719	1370.096	1286.650
-47.130	31.052	1325.902	1111.930
-46.115	27.605	1307.870	1076.455
-45.100	27.415	1303.082	1071.353
-44.086	27.321	1300.628	1068.740
-43.071	27.272	1298.728	1066.847
-42.057	27.304	1296.543	1065.195
-41.042	27.373	1294.742	1064.082
-40.027	27.380	1292.944	1062.599
-39.013	27.352	1290.973	1060.774
-37.998	27.301	1289.675	1059.367
-36.984	27.566	1287.559	1059.127
-35.969	27.477	1285.770	1057.099
-34.954	27.501	1284.093	1055.817
-33.940	27.542	1283.211	1055.285
-32.925	27.509	1281.832	1053.923
-31.911	27.475	1280.440	1052.540
-30.896	27.599	1278.535	1051.648
-29.881	27.565	1277.411	1050.481
-28.867	27.626	1275.803	1049.474
-27.852	27.544	1274.971	1048.271
-26.838	27.539	1273.495	1046.988
-25.823	27.588	1271.856	1045.882
-24.809	27.396	1271.061	1044.086
-23.794	27.470	1269.633	1043.292
-22.779	27.481	1268.001	1041.976
-21.765	27.607	1266.547	1041.458
-20.750	27.580	1265.679	1040.552
-19.736	27.495	1263.929	1038.588
-18.721	27.315	1263.292	1036.994
-17.706	27.370	1262.361	1036.503
-16.692	27.378	1261.292	1035.629
-15.677	27.400	1259.930	1034.596
-14.663	27.396	1258.623	1033.459
-13.648	27.382	1257.318	1032.266
-12.633	27.491	1256.230	1031.950
-11.619	27.433	1255.564	1031.032
-10.604	27.348	1254.894	1029.959
-9.590	27.383	1253.817	1029.236
-8.575	27.448	1252.361	1028.363
-7.560	27.333	1251.788	1027.205
-6.546	27.369	1251.213	1026.895
-5.531	27.365	1250.605	1026.333
-4.517	27.486	1249.381	1025.969
-3.502	27.488	1248.400	1025.135
-2.487	27.402	1247.608	1023.958
-1.473	27.359	1243.750	1020.508
-0.458	25.814	1228.556	999.440
0.556	20.720	1212.365	962.237
1.571	17.027	1218.383	946.370
2.586	16.197	1233.371	953.240
3.600	16.452	1221.671	945.539
4.615	14.801	1155.791	885.724
5.629	11.330	1089.616	817.566
6.644	9.842	1072.762	797.500
7.659	9.535	1070.625	794.329
8.673	9.693	1069.004	793.834
9.688	9.451	1067.747	791.638
10.702	9.749	1065.905	791.664
11.717	11.668	1068.066	802.630
12.731	15.343	1072.274	823.802
13.746	17.342	1074.823	835.520
14.761	17.538	1074.421	836.094
15.775	16.486	1072.454	829.335
16.790	15.497	1070.523	822.922
17.804	14.664	1068.657	817.337
18.819	14.300	1067.774	814.808
19.834	13.942	1066.787	812.232
20.848	13.838	1065.716	810.838
21.863	13.642	1064.620	808.979
22.877	13.598	1063.773	808.047
23.892	13.494	1063.426	807.204
24.907	13.418	1062.950	806.403
25.921	13.531	1061.741	805.961
26.936	13.545	1060.508	805.025
27.950	13.568	1058.834	803.794
28.965	13.691	1057.377	803.212
29.980	13.655	1055.741	801.723
30.994	13.683	1054.999	801.224
32.009	13.743	1053.792	800.527
33.023	13.798	1052.330	799.612
34.038	13.747	1051.445	798.620
35.053	13.564	1051.040	797.362
36.067	13.468	1050.327	796.291
37.082	13.656	1048.425	795.679
38.096	13.751	1047.934	795.693
39.111	13.629	1047.605	794.788
40.126	13.564	1046.312	793.423
41.140	13.559	1044.971	792.314
42.155	13.527	1043.416	790.911
43.169	13.435	1042.544	789.741
44.184	13.322	1041.425	788.285
45.199	13.466	1040.533	788.226
46.213	13.436	1039.628	787.331
47.228	13.531	1038.507	786.860
48.242	13.533	1037.754	786.233
49.257	13.525	1036.323	785.040
50.271	13.558	1035.747	784.690
51.286	13.544	1035.148	784.100
52.301	13.497	1033.888	782.854
53.315	13.576	1032.900	782.413
54.330	13.471	1031.794	781.007
55.344	13.509	1030.657	780.256
56.359	13.551	1029.839	779.769
57.374	13.536	1028.829	778.864
58.388	13.359	1028.614	777.800
59.403	13.301	1027.593	776.685
60.417	13.368	1026.763	776.304
61.432	13.481	1025.859	776.080
62.447	13.298	1024.813	774.364
63.461	13.333	1023.930	773.794
64.476	13.268	1023.318	772.959
65.490	13.332	1022.507	772.579
66.505	13.262	1022.019	771.812
67.520	13.412	1021.193	771.820
68.534	13.374	1020.542	771.081
69.549	13.454	1019.367	770.497
70.563	13.286	1018.620	769.085
71.578	13.312	1017.994	768.664
72.593	13.335	1016.771	767.781
73.607	13.247	1016.476	767.080
74.622	13.317	1015.702	766.752
75.636	13.284	1015.342	766.260
76.651	13.268	1014.689	765.625
77.666	13.462	1013.330	765.432
78.680	13.301	1013.394	764.667
79.695	13.222	1013.002	763.937
80.709	13.395	1012.171	764.042
81.724	13.334	1011.721	763.352
82.739	13.456	1010.489	762.918
83.753	13.549	1010.189	763.055
84.768	13.664	1008.876	762.521
85.782	13.678	1007.906	761.787
86.797	13.728	1007.103	761.340
87.812	13.531	1006.091	759.606
88.826	13.449	1005.457	758.685
89.841	13.512	1004.509	758.189
90.855	13.683	1003.124	757.859
91.870	13.787	1002.063	757.466
92.884	13.582	1002.154	756.531
93.899	13.751	1001.343	756.625
94.914	13.945	999.860	756.319
95.928	13.743	999.059	754.726
96.943	13.716	998.480	754.102
97.957	13.639	997.240	752.746
98.972	13.667	996.989	752.619
99.987	13.640	996.057	751.727
101.001	13.654	994.711	750.708
102.016	13.646	994.041	750.097
103.030	13.765	992.723	749.574
104.045	13.603	992.247	748.420
105.060	13.693	991.620	748.283
106.074	13.609	990.336	746.873
107.089	13.475	989.265	745.395
108.103	13.501	988.551	744.910
109.118	13.462	987.134	743.601
110.133	13.443	986.404	742.899
111.147	13.411	985.942	742.340
112.162	13.642	984.544	742.257
113.176	13.525	983.918	741.197
114.191	13.621	983.447	741.206
115.206	13.488	982.714	739.991
116.220	13.646	981.714	739.877
117.235	13.628	980.537	738.845
118.249	13.524	980.136	738.014
119.264	13.534	979.037	737.169
120.279	13.524	978.277	736.485
121.293	13.549	977.426	735.892
122.308	13.406	976.800	734.721
123.322	13.410	975.417	733.632
124.337	13.455	974.709	733.234
125.352	13.486	973.375	732.302
126.366	13.552	972.088	731.561
127.381	13.386	971.131	730.042
128.395	13.459	970.661	729.945
129.410	13.543	969.468	729.357
130.424	13.468	968.840	728.490
131.439	13.636	968.113	728.618
132.454	13.639	967.205	727.881
133.468	13.664	966.110	727.102
134.483	13.509	965.865	726.177
135.497	13.559	964.901	725.606
136.512	13.700	963.775	725.310
137.527	13.573	963.130	724.207
138.541	13.477	962.579	723.308
139.556	13.630	961.846	723.360
140.570	13.668	961.147	722.936
141.585	13.762	959.671	722.171
142.600	13.839	959.350	722.201
143.614	13.819	958.342	721.293
144.629	13.776	957.584	720.472
145.643	13.737	956.754	719.613
146.658	13.730	956.006	718.957
147.673	13.635	955.203	717.880
148.687	13.633	954.286	717.117
149.702	13.547	953.701	716.243
150.716	13.633	952.785	715.864
151.731	13.656	951.994	715.302
152.746	13.666	951.123	714.630
153.760	13.724	950.344	714.232
154.775	13.844	950.102	714.501
155.789	13.803	949.526	713.829
156.804	13.802	948.111	712.700
157.819	13.858	947.557	712.459
158.833	13.914	947.008	712.222
159.848	13.992	946.333	711.985
160.862	13.885	945.431	710.788
161.877	13.949	944.240	710.103
162.892	13.886	943.307	709.071
163.906	13.758	942.596	707.925
164.921	13.862	941.546	707.516
165.935	13.757	941.051	706.637
166.950	13.781	940.207	706.043
167.964	13.829	939.074	705.332
168.979	13.764	938.282	704.400
169.994	13.704	937.731	703.668
171.008	13.897	936.506	703.504
172.023	13.960	936.539	703.734
173.037	13.910	935.603	702.755
174.052	13.811	934.686	701.586
175.067	13.855	934.006	701.201
176.081	13.824	933.658	700.746
177.096	13.808	933.042	700.156
178.110	13.857	932.347	699.776
179.125	13.987	931.216	699.413
180.140	13.922	931.176	699.050
181.154	14.019	930.721	699.053
182.169	14.072	930.442	699.003
183.183	14.160	929.647	698.715
184.198	14.200	928.563	698.006
185.213	14.195	927.528	697.144
186.227	14.079	927.092	696.272
187.242	14.214	926.510	696.335
188.256	14.187	926.187	695.918
189.271	14.125	925.620	695.175
190.286	14.142	924.416	694.278
191.300	13.885	923.621	692.548
192.315	13.859	923.105	691.990
193.329	13.971	922.668	692.069
194.344	14.100	921.710	691.825
195.359	14.097	921.507	691.602
196.373	14.101	921.075	691.232
197.388	14.195	920.521	691.146
198.402	14.300	919.910	691.063
199.417	14.479	918.772	690.885
200.432	14.471	918.480	690.572
201.446	14.503	918.148	690.395
202.461	14.432	917.826	689.795
203.475	14.478	917.140	689.410
204.490	14.291	916.553	688.137
205.504	14.365	915.352	687.480
206.519	14.406	914.391	686.864
207.534	14.426	913.897	686.517
208.548	14.419	913.208	685.907
209.563	14.288	912.972	685.132
210.577	14.563	911.708	685.252
211.592	14.566	911.365	684.944
212.607	14.566	910.631	684.334
213.621	14.513	909.912	683.516
214.636	14.484	909.103	682.727
215.650	14.602	908.425	682.644
216.665	14.559	907.937	682.039
217.680	14.671	907.303	681.960
218.694	14.592	906.520	680.988
219.709	14.604	905.908	680.516
220.723	14.710	905.218	680.369
221.738	14.580	904.757	679.437
222.753	14.719	903.838	679.249
223.767	14.658	903.697	678.838
224.782	14.753	902.846	678.522
225.796	14.884	902.371	678.639
226.811	14.744	901.637	677.459
227.826	14.614	901.257	676.586
228.840	14.657	900.202	675.906
229.855	14.724	899.119	675.305
230.869	14.772	898.309	674.830
231.884	14.669	897.828	673.996
232.899	14.707	896.930	673.412
233.913	14.725	896.386	673.017
234.928	14.662	895.568	672.089
235.942	14.636	894.778	671.333
236.957	14.664	895.138	671.657
237.972	14.679	894.055	670.846
238.986	14.725	893.122	670.270
240.001	14.730	892.567	669.817
241.015	14.911	892.012	670.063
242.030	14.790	891.673	669.267
243.045	14.922	890.758	669.048
244.059	14.775	890.368	668.109
245.074	14.693	890.063	667.492
246.088	14.998	889.072	667.906
247.103	14.874	888.704	667.078
248.117	15.019	887.963	667.040
249.132	15.096	887.501	666.942
250.147	15.221	886.843	666.885
251.161	15.170	886.476	666.348
252.176	15.193	885.564	665.695
253.190	15.203	885.180	665.386
254.205	15.303	884.256	665.028
255.220	15.257	883.750	664.406
256.234	15.281	883.064	663.930
257.249	15.270	882.493	663.394
258.263	15.292	881.787	662.892
259.278	15.386	880.910	662.549
260.293	15.373	880.049	661.791
261.307	15.408	879.648	661.569
262.322	15.493	879.053	661.398
263.336	15.367	878.783	660.638
264.351	15.466	878.031	660.406
265.366	15.436	876.829	659.325
266.380	15.483	876.635	659.305
267.395	15.525	875.796	658.780
268.409	15.446	875.092	657.883
269.424	15.390	874.292	657.003
270.439	15.408	873.877	656.705
271.453	15.400	873.375	656.239
272.468	15.299	872.780	655.337
273.482	15.516	871.726	655.335
274.497	15.482	871.260	654.794
275.512	15.309	871.606	654.320
276.526	15.364	870.820	653.887
277.541	15.262	870.398	653.117
278.555	15.610	869.109	653.446
279.570	15.577	869.024	653.192
280.585	15.661	868.232	652.866
281.599	15.549	867.110	651.530
282.614	15.596	866.448	651.158
283.628	15.666	865.813	650.895
284.643	15.645	865.349	650.406
285.657	15.559	864.712	649.538
286.672	15.727	864.226	649.767
287.687	15.762	863.449	649.258
288.701	15.791	862.787	648.817
289.716	15.897	862.341	648.829
290.730	15.783	861.992	648.072
291.745	15.782	861.097	647.335
292.760	15.820	860.647	647.086
293.774	15.881	860.203	646.930
294.789	15.840	859.492	646.181
295.803	15.800	858.674	645.357
296.818	15.604	858.096	644.113
297.833	15.746	857.356	644.044
298.847	15.850	856.896	644.041
299.862	15.855	856.092	643.397
300.876	15.889	855.504	643.028
301.891	16.008	854.898	642.969
302.906	16.001	854.797	642.811
303.920	16.123	853.915	642.557
304.935	16.264	852.989	642.339
305.949	16.118	852.963	641.708
306.964	16.161	852.546	641.500
307.979	16.082	852.019	640.748
308.993	16.070	851.481	640.239
310.008	16.068	850.497	639.436
311.022	16.022	850.398	639.130
312.037	16.037	849.432	638.404
313.052	16.023	848.937	637.921
314.066	16.111	848.173	637.625
315.081	16.071	847.755	637.102
316.095	15.981	847.416	636.454
317.110	15.902	846.566	635.459
318.125	16.033	845.841	635.352
319.139	15.994	846.049	635.305
320.154	16.038	845.523	635.021
321.168	16.139	844.438	634.530
322.183	15.984	844.412	633.870
323.197	16.128	843.687	633.810
324.212	16.023	843.173	632.974
325.227	16.077	842.714	632.777
326.241	16.088	842.034	632.250
327.256	16.125	841.515	631.946
328.270	16.081	840.660	631.083
329.285	16.203	840.323	631.228
330.300	16.130	839.723	630.449
331.314	16.243	838.963	630.246
332.329	16.268	838.690	630.078
333.343	16.445	837.929	630.111
334.358	16.311	837.538	629.263
335.373	16.267	837.686	629.154
336.387	16.334	837.339	629.087
337.402	16.432	836.721	628.932
338.416	16.395	836.771	628.774
339.431	16.432	836.083	628.340
340.446	16.552	835.253	628.105
341.460	16.656	835.046	628.281
342.475	16.554	835.092	627.882
343.489	16.541	834.425	627.278
344.504	16.790	833.845	627.706
345.519	16.729	833.452	627.132
346.533	16.766	832.643	626.604
347.548	16.615	832.107	625.586
348.562	16.573	831.578	624.979
349.577	16.634	830.747	624.524
350.592	16.498	830.530	623.801
351.606	16.651	829.564	623.585
352.621	16.624	828.854	622.896
353.635	16.500	828.701	622.271
354.650	16.749	827.824	622.473
355.665	16.596	827.321	621.479
356.679	16.700	826.352	621.078
357.694	16.752	825.814	620.809
358.708	16.705	825.354	620.233
359.723	16.769	824.767	619.974
360.738	16.773	824.228	619.526
361.752	16.789	823.855	619.251
362.767	16.748	823.378	618.688
363.781	16.796	822.887	618.440
364.796	16.854	822.410	618.237
365.810	17.012	821.911	618.385
366.825	17.073	821.446	618.201
367.840	17.074	820.948	617.774
368.854	16.813	820.691	616.576
369.869	17.023	820.119	616.858
370.883	17.023	819.734	616.513
371.898	17.036	819.223	616.121
372.913	17.014	819.028	615.838
373.927	17.057	818.571	615.600
374.942	16.936	818.006	614.679
375.956	17.071	817.546	614.768
376.971	17.198	817.119	614.852
377.986	17.270	816.735	614.769
379.000	17.115	816.400	613.905
380.015	17.308	815.564	613.919
381.029	17.384	815.033	613.738
382.044	17.461	814.378	613.467
383.059	17.392	813.764	612.702
384.073	17.322	813.408	612.127
385.088	17.288	812.612	611.352
386.102	17.132	812.507	610.656
387.117	17.192	811.572	610.116
388.132	17.156	811.109	609.588
389.146	17.297	810.523	609.597
390.161	17.359	810.371	609.651
391.175	17.324	810.021	609.210
392.190	17.321	809.293	608.596
393.205	17.459	808.527	608.458
394.219	17.341	808.318	607.826
395.234	17.234	807.860	607.045
396.248	17.167	807.596	606.554
397.263	17.219	807.060	606.285
398.278	17.221	807.044	606.228
399.292	17.228	806.245	605.596
400.307	17.271	805.925	605.456
401.321	17.134	805.558	604.638
402.336	17.177	804.884	604.234
403.350	17.393	804.452	604.622
404.365	17.458	803.931	604.408
405.380	17.447	803.859	604.263
406.394	17.537	802.885	603.794
407.409	17.606	802.936	604.024
408.423	17.752	802.292	604.003
409.438	17.597	802.214	603.343
410.453	17.621	801.791	603.055
411.467	17.577	801.412	602.563
412.482	17.587	800.778	602.068
413.496	17.884	800.139	602.584
414.511	17.757	800.156	602.092
415.526	17.842	799.292	601.691
416.540	17.724	798.942	600.956
417.555	17.787	798.668	600.922
418.569	17.701	798.643	600.547
419.584	17.779	797.571	599.959
420.599	17.760	797.188	599.552
421.613	111.811	1294.471	1476.748
422.628	96.261	1366.875	1476.863
