DTS Sentinel unit serial number:	SN413079Multiplexer serial number:	ORYXHardware model number:	OX4-SRSoftware version number:	ORYX F/W v4.00 Oryx Data Collector v3.7.2.0data status	okinstallation	princeton_trtdifferential loss correction	single-endedforward channel	channel 1reverse channel	N/Adate	2019/09/17time	06:46:36forward acquisition time	60.00reverse acquisition time	0.00gamma	496.2192k internal	0.2329k external	0.2329temperature offset calibration	0.9967default loss term (dB/km)	0.3790temperature slope calibration	1.0000multiplexer offset coefficient	1.0000multiplexer slope coefficient	1.0000fibre end	0.00T internal ref (°C)	27.81T ext. ref 1 (°C)	0.12T ext. ref 2 (°C)	21.18length (m)	temperature (°C)	Stokes	anti-Stokes-747.200	-200.000	0.011	0.203
-746.185	155.640	-0.108	-0.150
-745.171	-14.406	0.272	-0.177
-744.156	-200.000	-0.015	0.198
-743.142	79.369	-0.146	0.158
-742.127	34.751	-0.263	0.232
-741.112	-136.436	0.118	-0.014
-740.098	264.323	-0.078	0.137
-739.083	280.207	-0.060	0.108
-738.069	266.339	-0.047	0.082
-737.054	-46.496	-0.244	-0.121
-736.039	-69.617	-0.394	-0.152
-735.025	-111.349	-0.039	0.008
-734.010	-200.000	0.023	-0.257
-732.996	1.163	0.013	-0.010
-731.981	-108.692	-0.291	0.063
-730.966	-104.028	-0.200	-0.047
-729.952	-123.053	0.177	-0.029
-728.937	800.000	-0.109	0.314
-727.923	0.316	0.252	0.181
-726.908	-167.608	0.084	-0.003
-725.894	100.513	0.182	0.212
-724.879	478.576	-0.124	-0.283
-723.864	-68.162	-0.252	0.099
-722.850	34.342	0.241	-0.212
-721.835	-94.020	-0.085	0.024
-720.821	-132.342	-0.401	-0.052
-719.806	314.854	0.049	0.093
-718.791	371.544	-0.245	-0.501
-717.777	250.517	0.122	-0.209
-716.762	141.697	0.116	0.155
-715.748	-95.485	0.162	0.044
-714.733	800.000	-0.066	-0.241
-713.718	-118.246	0.206	-0.037
-712.704	-200.000	-0.117	-0.000
-711.689	-121.866	-0.128	-0.021
-710.675	55.744	0.433	0.422
-709.660	82.060	-0.213	-0.233
-708.645	159.592	-0.061	-0.086
-707.631	42.103	-0.235	0.215
-706.616	-50.271	0.186	-0.088
-705.602	-54.152	-0.110	-0.050
-704.587	-106.144	0.348	0.079
-703.572	105.397	0.105	-0.124
-702.558	-200.000	-0.010	0.135
-701.543	-20.916	0.103	0.064
-700.529	-101.645	0.118	-0.029
-699.514	278.050	0.059	-0.106
-698.499	-3.261	-0.482	0.338
-697.485	381.335	0.065	-0.133
-696.470	415.864	0.120	-0.258
-695.456	-160.650	-0.297	0.016
-694.441	268.512	0.158	0.278
-693.426	327.354	0.087	-0.167
-692.412	800.000	0.123	0.377
-691.397	15.316	-0.061	-0.048
-690.383	90.136	-0.055	-0.062
-689.368	196.760	-0.169	-0.259
-688.354	-154.538	0.060	0.004
-687.339	180.304	-0.035	-0.052
-686.324	14.558	-0.095	0.074
-685.310	-45.480	0.057	-0.028
-684.295	-90.892	-0.215	-0.062
-683.281	-200.000	-0.013	0.274
-682.266	-200.000	-0.028	0.123
-681.251	285.854	0.138	-0.251
-680.237	-102.342	0.276	-0.066
-679.222	-100.370	0.313	-0.078
-678.208	17.818	0.221	0.177
-677.193	-200.000	0.025	-0.377
-676.178	279.149	-0.169	0.302
-675.164	610.946	-0.074	0.185
-674.149	-134.568	-0.406	-0.050
-673.135	-1.459	0.164	0.116
-672.120	274.340	-0.135	-0.240
-671.105	800.000	-0.056	-0.212
-670.091	52.493	0.115	-0.110
-669.076	800.000	-0.057	-0.224
-668.062	-67.730	0.258	-0.101
-667.047	117.689	0.107	-0.132
-666.032	233.719	-0.050	-0.083
-665.018	800.000	-0.034	0.148
-664.003	-77.735	0.116	-0.040
-662.989	-62.367	-0.195	-0.082
-661.974	-97.454	0.144	-0.038
-660.959	137.484	0.059	-0.078
-659.945	-200.000	0.028	0.307
-658.930	-127.973	-0.358	0.052
-657.916	-154.996	-0.141	-0.009
-656.901	-85.008	0.301	-0.095
-655.886	53.105	0.080	0.077
-654.872	-57.482	-0.283	-0.125
-653.857	79.073	0.236	-0.254
-652.843	532.183	-0.098	0.233
-651.828	21.562	-0.222	0.181
-650.814	-63.972	0.183	0.075
-649.799	18.770	-0.234	-0.188
-648.784	-97.298	-0.037	-0.010
-647.770	28.096	0.050	0.042
-646.755	94.422	-0.195	-0.222
-645.741	96.727	-0.107	0.123
-644.726	-118.846	-0.182	0.032
-643.711	-95.968	0.413	-0.110
-642.697	-146.558	0.313	-0.027
-641.682	37.883	0.137	0.122
-640.668	-65.144	0.193	0.078
-639.653	-85.449	0.186	0.058
-638.638	176.227	-0.104	-0.151
-637.624	-118.361	-0.176	0.031
-636.609	725.607	0.153	0.409
-635.595	-86.866	0.421	0.129
-634.580	-6.004	0.242	-0.166
-633.565	-23.726	-0.148	0.089
-632.551	-68.560	-0.138	0.054
-631.536	-46.544	-0.094	-0.046
-630.522	30.333	-0.111	-0.095
-629.507	97.553	0.199	-0.230
-628.492	291.494	-0.183	-0.335
-627.478	8.096	-0.069	0.052
-626.463	181.703	-0.224	0.330
-625.449	800.000	-0.146	-0.447
-624.434	-200.000	-0.060	-0.269
-623.419	-200.000	-0.054	-0.284
-622.405	-108.989	0.193	-0.041
-621.390	130.332	-0.172	-0.221
-620.376	-162.629	-0.039	-0.002
-619.361	-41.018	-0.061	-0.032
-618.346	-151.628	0.247	0.018
-617.332	-200.000	-0.091	0.484
-616.317	-200.000	0.113	0.520
-615.303	103.610	0.200	-0.236
-614.288	-200.000	0.021	0.297
-613.273	-200.000	0.017	-0.476
-612.259	-200.000	0.009	-0.122
-611.244	-173.485	-0.165	-0.005
-610.230	-200.000	0.020	0.298
-609.215	-81.043	-0.166	-0.055
-608.201	-200.000	-0.015	0.338
-607.186	800.000	0.048	0.185
-606.171	-200.000	0.102	-0.450
-605.157	311.316	-0.141	-0.264
-604.142	800.000	-0.061	-0.229
-603.128	74.287	0.313	-0.330
-602.113	236.450	-0.202	0.336
-601.098	-200.000	0.165	0.001
-600.084	-14.053	0.067	0.043
-599.069	-16.549	0.165	-0.105
-598.055	345.999	0.120	-0.237
-597.040	800.000	-0.113	0.382
-596.025	67.959	-0.125	0.128
-595.011	-200.000	0.014	0.226
-593.996	320.925	0.103	-0.196
-592.982	261.840	0.139	0.241
-591.967	415.964	0.060	0.128
-590.952	-31.024	-0.059	0.034
-589.938	-14.524	0.213	0.137
-588.923	-165.413	-0.185	-0.008
-587.909	287.320	-0.126	0.227
-586.894	-28.411	-0.154	0.089
-585.879	-50.643	-0.056	-0.026
-584.865	800.000	-0.085	-0.319
-583.850	162.721	0.164	-0.231
-582.836	-200.000	-0.004	-0.254
-581.821	800.000	0.052	-0.185
-580.806	800.000	0.061	0.199
-579.792	-200.000	0.005	0.217
-578.777	-26.853	0.069	0.041
-577.763	212.416	0.144	0.227
-576.748	116.176	-0.206	0.252
-575.733	-55.449	-0.245	0.110
-574.719	39.708	-0.096	-0.086
-573.704	-79.440	-0.409	0.138
-572.690	675.046	-0.051	-0.133
-571.675	-56.328	-0.169	0.075
-570.661	128.099	0.214	0.272
-569.646	800.000	-0.032	-0.113
-568.631	-200.000	-0.010	0.103
-567.617	141.404	-0.051	-0.068
-566.602	125.386	-0.093	-0.117
-565.588	-82.434	-0.279	0.091
-564.573	-200.000	0.029	-0.187
-563.558	15.672	-0.200	0.158
-562.544	28.386	0.242	0.205
-561.529	-101.263	0.024	0.006
-560.515	251.259	0.085	0.144
-559.500	241.957	0.071	0.119
-558.485	144.457	0.104	-0.139
-557.471	81.113	-0.053	-0.058
-556.456	-103.786	-0.363	-0.085
-555.442	-59.565	0.436	-0.187
-554.427	74.698	0.109	-0.115
-553.412	800.000	-0.094	-0.387
-552.398	-169.839	0.135	-0.005
-551.383	66.688	0.125	-0.127
-550.369	-188.871	0.387	-0.005
-549.354	-200.000	-0.005	0.237
-548.339	-132.232	-0.185	-0.024
-547.325	194.072	0.200	-0.302
-546.310	177.048	-0.042	0.062
-545.296	144.186	-0.294	-0.392
-544.281	70.689	-0.160	0.165
-543.266	641.901	0.087	-0.222
-542.252	54.001	0.219	-0.210
-541.237	-200.000	0.011	0.366
-540.223	189.896	-0.043	-0.065
-539.208	-66.163	-0.230	-0.092
-538.193	581.265	-0.073	0.180
-537.179	565.655	-0.098	0.238
-536.164	682.367	0.013	0.034
-535.150	75.385	0.234	0.247
-534.135	-200.000	-0.040	0.360
-533.121	-89.117	-0.175	-0.052
-532.106	-39.432	0.115	-0.060
-531.091	-200.000	0.003	0.050
-530.077	701.388	-0.065	-0.170
-529.062	-76.211	0.129	0.045
-528.048	800.000	0.075	0.226
-527.033	-156.171	0.302	0.019
-526.018	-58.484	0.167	-0.072
-525.004	129.762	0.098	-0.125
-523.989	-98.917	-0.318	0.081
-522.975	-68.532	0.283	-0.110
-521.960	-200.000	0.044	-0.341
-520.945	641.404	-0.086	0.219
-519.931	16.718	-0.172	-0.136
-518.916	-24.739	0.324	0.192
-517.902	-200.000	0.038	0.202
-516.887	-34.245	0.299	-0.164
-515.872	-200.000	0.039	0.264
-514.858	-110.199	-0.191	0.040
-513.843	-85.726	0.234	-0.073
-512.829	-15.816	-0.254	-0.161
-511.814	423.028	-0.063	-0.136
-510.799	-200.000	0.026	0.169
-509.785	-135.515	0.044	0.005
-508.770	70.192	0.084	-0.087
-507.756	-44.378	-0.080	-0.040
-506.741	288.669	0.134	0.242
-505.726	123.169	-0.154	0.193
-504.712	-200.000	-0.014	-0.081
-503.697	-48.911	-0.307	0.147
-502.683	-24.134	0.139	-0.083
-501.668	166.642	-0.187	-0.265
-500.653	-79.561	0.331	-0.111
-499.639	92.548	0.087	-0.097
-498.624	-92.412	0.182	-0.051
-497.610	-195.112	-0.144	0.001
-496.595	-35.379	-0.173	0.094
-495.581	-2.069	0.201	0.141
-494.566	640.714	0.045	-0.115
-493.551	-200.000	-0.040	0.183
-492.537	-118.194	0.297	-0.053
-491.522	-4.521	0.166	0.115
-490.508	-200.000	-0.046	-0.303
-489.493	333.652	0.101	-0.194
-488.478	-40.539	0.044	-0.023
-487.464	82.965	-0.040	0.043
-486.449	-200.000	0.004	-0.217
-485.435	85.529	0.190	-0.208
-484.420	33.236	-0.142	0.123
-483.405	-31.905	0.158	-0.088
-482.391	-74.683	0.349	0.125
-481.376	118.782	0.032	-0.039
-480.362	-200.000	-0.048	-0.231
-479.347	251.792	-0.174	0.294
-478.332	226.075	0.067	-0.108
-477.318	-200.000	0.134	0.000
-476.303	-110.006	0.447	0.093
-475.289	108.153	-0.035	0.042
-474.274	-200.000	0.051	0.267
-473.259	-2.962	-0.122	0.085
-472.245	-130.213	-0.202	0.027
-471.230	78.508	0.295	0.314
-470.216	2.741	0.115	-0.083
-469.201	-88.129	-0.269	0.080
-468.186	-140.300	-0.360	0.038
-467.172	-53.376	0.145	0.066
-466.157	-119.164	-0.310	-0.054
-465.143	-61.684	0.369	0.154
-464.128	-200.000	0.023	-0.221
-463.113	-20.649	-0.327	-0.200
-462.099	-35.928	-0.137	-0.074
-461.084	-157.514	0.118	-0.007
-460.070	168.604	-0.146	-0.207
-459.055	-200.000	0.023	-0.291
-458.040	-17.025	0.194	0.122
-457.026	143.365	0.039	-0.051
-456.011	141.421	-0.125	0.165
-454.997	-69.776	0.236	0.090
-453.982	800.000	0.067	-0.194
-452.968	164.528	-0.162	-0.228
-451.953	800.000	-0.013	0.046
-450.938	-42.266	0.136	-0.069
-449.924	-200.000	-0.011	-0.087
-448.909	576.683	-0.197	0.479
-447.895	178.508	-0.101	-0.146
-446.880	-174.925	-0.339	-0.009
-445.865	-122.073	-0.274	-0.045
-444.851	-200.000	0.032	-0.205
-443.836	-124.853	-0.179	-0.027
-442.822	-200.000	0.028	0.284
-441.807	-200.000	-0.016	-0.126
-440.792	-169.732	-0.250	-0.009
-439.778	287.077	-0.222	-0.399
-438.763	-140.163	0.149	-0.016
-437.749	35.948	0.039	0.034
-436.734	-151.957	0.405	0.029
-435.719	-104.080	-0.290	-0.067
-434.705	1.530	0.277	-0.198
-433.690	-200.000	-0.012	-0.396
-432.676	-71.728	0.138	0.051
-431.661	-200.000	0.043	-0.280
-430.646	800.000	0.045	0.165
-429.632	-48.611	0.179	-0.086
-428.617	-126.230	-0.189	0.028
-427.603	-84.157	0.245	0.077
-426.588	-200.000	0.009	0.153
-425.573	108.223	0.218	0.259
-424.559	-59.369	-0.210	0.090
-423.544	-25.544	-0.254	0.149
-422.530	306.748	-0.029	0.054
-421.515	70.451	0.259	0.267
-420.500	-82.693	-0.137	-0.044
-419.486	47.818	-0.240	-0.223
-418.471	-107.642	-0.316	-0.069
-417.457	102.756	-0.246	0.286
-416.442	97.835	-0.176	0.202
-415.428	-200.000	-0.001	0.213
-414.413	-102.380	-0.459	0.109
-413.398	-12.344	-0.227	-0.147
-412.384	611.339	0.079	-0.197
-411.369	197.472	0.117	0.178
-410.355	-74.654	0.152	-0.054
-409.340	-200.000	-0.054	-0.237
-408.325	149.599	0.019	-0.025
-407.311	-200.000	-0.006	-0.027
-406.296	-78.487	-0.095	0.032
-405.282	-101.257	0.080	-0.019
-404.267	-69.408	-0.383	0.146
-403.252	107.570	-0.129	-0.152
-402.238	368.671	0.189	-0.380
-401.223	-37.303	-0.152	0.080
-400.209	-174.433	0.080	0.002
-399.194	-135.238	-0.257	-0.031
-398.179	-200.000	-0.080	0.359
-397.165	70.662	-0.050	0.052
-396.150	-45.365	-0.265	-0.131
-395.136	-136.702	-0.171	-0.020
-394.121	79.956	0.127	-0.136
-393.106	-92.340	-0.391	0.109
-392.092	-200.000	0.033	0.248
-391.077	-73.527	-0.025	-0.009
-390.063	-115.191	-0.128	-0.024
-389.048	-82.482	-0.247	-0.080
-388.033	-149.449	0.310	0.024
-387.019	-200.000	0.003	0.123
-386.004	-150.518	-0.276	0.021
-384.990	100.630	0.104	-0.120
-383.975	-200.000	0.055	-0.240
-382.960	-80.596	0.372	0.123
-381.946	-200.000	-0.035	0.286
-380.931	-88.851	-0.263	-0.077
-379.917	800.000	0.043	0.182
-378.902	-37.019	0.078	-0.041
-377.888	-200.000	0.068	-0.453
-376.873	-103.815	0.195	-0.045
-375.858	-64.738	-0.366	0.147
-374.844	67.465	-0.073	-0.074
-373.829	-61.844	-0.171	0.071
-372.815	156.553	0.071	-0.097
-371.800	117.286	0.063	-0.077
-370.785	-18.984	-0.071	0.044
-369.771	-172.802	-0.117	0.004
-368.756	182.730	-0.226	0.331
-367.742	156.639	0.110	0.151
-366.727	567.384	-0.070	0.169
-365.712	-31.545	-0.339	0.189
-364.698	182.097	0.027	0.040
-363.683	-1.908	0.097	0.068
-362.669	154.976	-0.100	-0.136
-361.654	-51.617	0.256	-0.119
-360.639	-53.732	-0.309	0.140
-359.625	117.123	0.178	-0.217
-358.610	-16.598	0.182	-0.115
-357.596	-95.075	-0.275	0.074
-356.581	3.451	0.081	0.058
-355.566	1.500	0.287	-0.205
-354.552	-68.573	-0.245	0.094
-353.537	180.002	-0.099	-0.144
-352.523	-35.296	-0.057	0.031
-351.508	-200.000	-0.042	-0.195
-350.493	-200.000	-0.016	-0.120
-349.479	68.737	0.123	0.125
-348.464	-44.636	-0.282	-0.140
-347.450	13.728	0.532	-0.410
-346.435	651.081	0.122	-0.311
-345.420	-129.510	-0.344	0.047
-344.406	-85.485	0.076	0.023
-343.391	-200.000	0.017	0.154
-342.377	181.083	0.126	-0.184
-341.362	249.969	0.055	0.093
-340.348	103.718	-0.021	0.025
-339.333	-128.491	0.279	0.039
-338.318	-97.469	-0.368	-0.095
-337.304	-92.024	-0.296	0.083
-336.289	-71.286	-0.235	-0.087
-335.275	-32.536	0.135	-0.074
-334.260	62.333	0.094	0.093
-333.245	-117.920	-0.199	-0.035
-332.231	-54.385	-0.139	0.062
-331.216	-53.913	0.405	0.183
-330.202	122.576	0.235	-0.291
-329.187	-36.692	0.379	-0.202
-328.172	-200.000	-0.002	0.159
-327.158	2.252	0.169	0.121
-326.143	-46.060	-0.161	-0.079
-325.129	88.762	0.150	0.165
-324.114	800.000	-0.065	0.220
-323.099	-200.000	-0.013	0.201
-322.085	-107.428	-0.083	-0.018
-321.070	664.244	0.025	0.065
-320.056	-200.000	0.028	-0.207
-319.041	191.439	-0.084	-0.126
-318.026	-200.000	0.019	-0.243
-317.012	-200.000	0.002	-0.041
-315.997	-200.000	-0.056	-0.346
-314.983	-105.825	-0.055	-0.012
-313.968	-200.000	0.011	-0.284
-312.953	800.000	0.074	0.277
-311.939	-200.000	-0.093	0.000
-310.924	-61.838	-0.167	0.069
-309.910	-200.000	-0.010	0.047
-308.895	-33.440	0.123	-0.068
-307.880	-143.379	0.276	0.026
-306.866	-200.000	-0.017	0.141
-305.851	-200.000	-0.003	0.140
-304.837	29.105	0.182	-0.153
-303.822	158.763	0.092	-0.127
-302.807	-102.361	-0.353	-0.084
-301.793	-200.000	-0.001	0.355
-300.778	-104.151	-0.521	0.120
-299.764	-161.755	0.106	-0.005
-298.749	800.000	-0.027	-0.102
-297.735	-43.696	-0.284	-0.142
-296.720	94.003	-0.198	-0.222
-295.705	-78.661	0.211	-0.071
-294.691	670.908	0.131	-0.335
-293.676	-92.351	0.058	-0.016
-292.662	-85.091	0.140	-0.043
-291.647	-147.625	-0.344	-0.029
-290.632	-200.000	0.029	0.320
-289.618	322.381	-0.061	-0.116
-288.603	54.660	0.077	-0.074
-287.589	-121.287	0.322	-0.053
-286.574	58.713	-0.207	0.201
-285.559	-156.920	0.081	-0.005
-284.545	-200.000	0.027	0.175
-283.530	-70.160	0.117	0.044
-282.516	588.894	0.188	-0.457
-281.501	-200.000	0.006	-0.101
-280.486	-200.000	0.056	-0.291
-279.472	-147.257	0.132	-0.011
-278.457	12.613	-0.319	0.243
-277.443	73.950	0.025	-0.026
-276.428	-27.156	-0.039	0.022
-275.413	-75.835	0.204	-0.071
-274.399	-86.350	-0.195	-0.059
-273.384	144.657	-0.101	0.133
-272.370	-50.044	-0.065	-0.030
-271.355	-18.685	0.272	0.168
-270.340	118.827	0.048	0.059
-269.326	-200.000	0.029	0.247
-268.311	-29.024	-0.137	-0.078
-267.297	-121.218	-0.309	-0.051
-266.282	-173.329	0.204	0.006
-265.267	-0.070	0.141	0.099
-264.253	-70.790	-0.123	-0.046
-263.238	800.000	0.054	0.177
-262.224	55.555	-0.249	-0.238
-261.209	-188.986	-0.287	-0.003
-260.195	-125.047	0.353	0.054
-259.180	-200.000	0.014	0.139
-258.165	-36.989	0.405	-0.215
-257.151	155.887	-0.186	0.254
-256.136	-2.793	-0.321	0.222
-255.122	-101.351	0.209	-0.050
-254.107	105.395	-0.266	-0.311
-253.092	-200.000	-0.010	0.083
-252.078	-200.000	-0.031	-0.268
-251.063	-15.014	-0.190	-0.121
-250.049	-140.287	-0.180	-0.019
-249.034	171.465	0.182	-0.258
-248.019	800.000	-0.088	0.354
-247.005	222.797	-0.158	0.252
-245.990	177.012	0.089	0.127
-244.976	-200.000	0.035	-0.183
-243.961	-57.463	0.290	-0.126
-242.946	800.000	0.067	0.205
-241.932	-84.808	-0.112	-0.035
-240.917	22.563	-0.105	-0.085
-239.903	-94.150	-0.060	-0.016
-238.888	1.942	0.094	-0.067
-237.873	-141.068	0.168	-0.017
-236.859	-79.353	-0.331	0.111
-235.844	-52.314	0.160	0.073
-234.830	192.705	-0.145	0.216
-233.815	26.551	0.138	0.114
-232.800	-54.381	0.369	0.165
-231.786	728.698	0.062	0.165
-230.771	800.000	0.036	0.114
-229.757	-156.835	-0.095	-0.006
-228.742	-46.210	0.212	0.103
-227.727	-12.067	0.223	-0.144
-226.713	-200.000	-0.008	0.081
-225.698	-200.000	0.016	0.088
-224.684	-52.077	-0.294	0.135
-223.669	-153.217	-0.126	-0.009
-222.655	1.173	-0.123	-0.087
-221.640	40.113	-0.472	-0.419
-220.625	419.596	0.070	-0.147
-219.611	-26.272	0.312	-0.181
-218.596	693.563	-0.092	-0.239
-217.582	-28.763	0.287	-0.163
-216.567	800.000	-0.040	-0.130
-215.552	-3.749	0.264	-0.181
-214.538	83.059	0.154	0.166
-213.523	-137.022	-0.132	-0.015
-212.509	375.018	-0.161	0.323
-211.494	-184.440	-0.080	-0.001
-210.479	-200.000	-0.028	-0.246
-209.465	-111.931	-0.276	0.055
-208.450	-122.875	0.184	-0.029
-207.436	570.009	-0.070	0.168
-206.421	-200.000	-0.020	0.394
-205.406	800.000	-0.059	0.188
-204.392	12.813	0.293	-0.223
-203.377	459.690	0.070	-0.153
-202.363	-200.000	0.027	-0.247
-201.348	-200.000	0.161	-0.001
-200.333	-106.762	-0.051	0.011
-199.319	-200.000	0.113	0.512
-198.304	375.174	0.167	0.336
-197.290	-56.953	0.068	-0.029
-196.275	-49.005	0.337	0.159
-195.260	-82.070	-0.265	-0.085
-194.246	35.295	-0.062	0.053
-193.231	22.530	0.085	-0.069
-192.217	31.666	0.246	0.208
-191.202	-200.000	-0.037	0.276
-190.187	376.194	-0.107	0.215
-189.173	-200.000	0.055	0.383
-188.158	286.793	-0.171	-0.305
-187.144	800.000	0.014	-0.061
-186.129	-151.791	0.371	-0.027
-185.114	588.996	0.122	-0.297
-184.100	-25.328	0.169	0.099
-183.085	800.000	0.095	0.303
-182.071	89.623	0.081	0.089
-181.056	800.000	0.020	-0.059
-180.042	143.290	-0.107	-0.140
-179.027	121.679	0.058	-0.071
-178.012	800.000	0.061	0.211
-176.998	175.595	0.026	0.037
-175.983	132.600	-0.114	-0.145
-174.969	-200.000	0.007	0.337
-173.954	-200.000	-0.033	0.423
-172.939	239.252	-0.088	-0.144
-171.925	800.000	0.054	-0.215
-170.910	-69.464	0.229	-0.086
-169.896	-160.730	0.020	-0.001
-168.881	371.134	-0.092	-0.183
-167.866	-17.722	0.160	-0.099
-166.852	18.473	0.057	0.045
-165.837	19.281	0.061	-0.049
-164.823	-200.000	-0.002	0.033
-163.808	51.504	-0.119	-0.111
-162.793	-85.925	0.115	0.035
-161.779	-72.605	0.288	0.105
-160.764	194.476	-0.139	-0.207
-159.750	-22.560	0.280	-0.166
-158.735	-78.236	0.432	0.146
-157.720	71.222	0.038	0.039
-156.706	-124.652	-0.446	0.068
-155.691	-200.000	0.010	0.132
-154.677	-146.351	-0.301	-0.026
-153.662	-112.302	-0.120	-0.024
-152.647	-30.180	0.169	0.094
-151.633	-200.000	-0.072	0.405
-150.618	-200.000	0.030	-0.279
-149.604	-24.020	0.097	0.057
-148.589	35.658	0.234	0.202
-147.574	-90.952	-0.178	-0.050
-146.560	-67.089	0.346	0.134
-145.545	75.825	-0.191	0.199
-144.531	47.456	0.217	0.199
-143.516	-99.992	-0.322	-0.079
-142.502	800.000	0.060	-0.179
-141.487	800.000	-0.056	0.158
-140.472	-15.852	0.248	0.155
-139.458	-4.856	0.026	-0.017
-138.443	56.453	0.142	-0.136
-137.429	135.957	-0.108	0.139
-136.414	159.118	0.154	-0.211
-135.399	437.140	0.084	0.180
-134.385	-0.190	0.222	0.155
-133.370	93.060	0.163	-0.181
-132.356	26.787	-0.073	-0.060
-131.341	-200.000	-0.014	-0.071
-130.326	-200.000	-0.030	0.229
-129.312	135.569	0.192	0.246
-128.297	337.060	-0.157	-0.299
-127.283	800.000	0.038	-0.124
-126.268	-64.076	0.029	-0.012
-125.253	800.000	-0.108	-0.412
-124.239	-185.629	0.326	-0.005
-123.224	-61.681	0.325	-0.134
-122.210	800.000	0.071	-0.234
-121.195	-113.863	-0.171	-0.033
-120.180	-141.785	-0.092	0.009
-119.166	-1.084	0.408	0.284
-118.151	51.381	0.120	-0.112
-117.137	27.067	-0.066	0.055
-116.122	-68.034	-0.059	0.023
-115.107	0.746	-0.134	0.095
-114.093	-26.167	0.206	0.119
-113.078	423.593	0.096	-0.203
-112.064	74.745	0.065	0.067
-111.049	377.905	-0.051	0.103
-110.034	727.503	-0.137	0.359
-109.020	-21.531	0.460	-0.276
-108.005	-2.654	0.221	0.152
-106.991	786.492	0.103	-0.278
-105.976	-189.856	-0.115	-0.001
-104.962	-132.656	0.138	-0.017
-103.947	800.000	0.047	-0.172
-102.932	-80.276	0.212	0.070
-101.918	-200.000	-0.004	-0.023
-100.903	38.867	-0.191	0.167
-99.889	-80.478	-0.091	-0.030
-98.874	5.970	-0.127	0.092
-97.859	-200.000	-0.002	-0.087
-96.845	292.226	0.095	-0.170
-95.830	303.504	-0.087	-0.158
-94.816	0.732	-0.100	-0.070
-93.801	-200.000	0.007	0.123
-92.786	194.020	0.111	0.165
-91.772	-200.000	-0.002	0.108
-90.757	66.672	0.213	0.213
-89.743	240.526	0.103	-0.169
-88.728	-15.276	-0.385	0.242
-87.713	-200.000	0.026	0.285
-86.699	93.010	0.204	0.227
-85.684	236.960	-0.012	0.019
-84.670	1.987	-0.054	-0.038
-83.655	800.000	-0.025	0.072
-82.640	800.000	0.069	0.247
-81.626	800.000	-0.068	-0.246
-80.611	32.846	0.091	-0.078
-79.597	-63.341	0.149	0.060
-78.582	-31.420	0.127	0.070
-77.567	23.884	0.179	0.145
-76.553	31.740	-0.299	-0.253
-75.538	284.877	-0.157	0.277
-74.524	7.235	0.129	0.095
-73.509	270.209	0.214	-0.369
-72.494	120.345	0.072	0.088
-71.480	13.849	-0.149	0.114
-70.465	-117.452	-0.333	-0.059
-69.451	-200.000	0.035	0.362
-68.436	-45.391	-0.123	-0.060
-67.422	-63.732	-0.495	-0.199
-66.407	41.043	-0.054	-0.048
-65.392	113.944	0.172	-0.205
-64.378	-200.000	0.003	0.106
-63.363	-200.000	-0.021	-0.216
-62.349	64.606	0.369	0.365
-61.334	13.858	-1.165	-0.888
-60.319	39.699	0.724	0.637
-59.305	-200.000	-0.224	-1.104
-58.290	627.245	0.620	1.536
-57.276	609.030	0.587	1.436
-56.261	-200.000	113.573	648.658
-55.246	474.848	1503.796	3327.769
-54.232	148.035	2664.596	3523.901
-53.217	104.801	2149.035	2483.644
-52.203	39.253	1601.155	1404.829
-51.188	30.984	1349.065	1133.579
-50.173	28.194	1311.166	1085.169
-49.159	56.159	1366.488	1300.645
-48.144	54.642	1381.270	1305.527
-47.130	31.478	1336.822	1126.088
-46.115	27.948	1319.045	1090.052
-45.100	27.677	1314.675	1084.787
-44.086	27.586	1312.082	1082.061
-43.071	27.635	1309.864	1080.482
-42.057	27.642	1307.496	1078.523
-41.042	27.693	1305.932	1077.495
-40.027	27.693	1304.490	1076.262
-39.013	27.742	1302.285	1074.685
-37.998	27.709	1300.725	1073.163
-36.984	27.760	1298.980	1071.981
-35.969	27.853	1297.312	1071.106
-34.954	27.939	1295.206	1069.831
-33.940	27.866	1294.328	1068.633
-32.925	27.851	1292.788	1067.233
-31.911	27.897	1291.441	1066.348
-30.896	27.964	1289.774	1065.322
-29.881	27.940	1288.974	1064.478
-28.867	27.890	1287.378	1062.828
-27.852	27.876	1285.951	1061.522
-26.838	28.034	1284.150	1060.914
-25.823	27.822	1283.605	1059.188
-24.809	27.820	1282.216	1057.989
-23.794	27.972	1280.352	1057.287
-22.779	27.917	1279.534	1056.252
-21.765	27.805	1278.267	1054.517
-20.750	27.890	1276.482	1053.493
-19.736	27.829	1275.250	1052.084
-18.721	27.817	1274.249	1051.151
-17.706	27.808	1272.905	1049.947
-16.692	27.691	1272.168	1048.625
-15.677	27.713	1271.012	1047.754
-14.663	27.725	1269.897	1046.867
-13.648	27.777	1268.426	1045.909
-12.633	27.797	1267.499	1045.214
-11.619	27.734	1266.876	1044.299
-10.604	27.780	1265.841	1043.667
-9.590	27.763	1264.590	1042.502
-8.575	27.580	1264.260	1041.142
-7.560	27.793	1263.040	1041.311
-6.546	27.749	1262.395	1040.484
-5.531	27.738	1261.501	1039.646
-4.517	27.740	1260.860	1039.086
-3.502	27.783	1259.656	1038.298
-2.487	27.774	1258.908	1037.587
-1.473	27.670	1254.870	1033.630
-0.458	26.041	1238.612	1011.079
0.556	20.343	1221.337	970.050
1.571	16.338	1226.907	951.862
2.586	15.391	1240.938	957.262
3.600	15.243	1229.970	947.878
4.615	11.347	1157.748	871.369
5.629	3.938	1084.492	778.969
6.644	0.423	1065.390	747.778
7.659	0.069	1063.556	744.670
8.673	-0.016	1062.795	743.651
9.688	0.015	1061.015	742.493
10.702	0.166	1059.175	741.885
11.717	4.648	1064.843	767.956
12.731	12.501	1075.183	814.372
13.746	16.728	1079.884	838.844
14.761	16.969	1079.705	839.824
15.775	16.001	1077.794	833.477
16.790	14.988	1075.684	826.766
17.804	14.311	1074.056	822.099
18.819	14.038	1073.065	819.921
19.834	13.827	1072.129	818.096
20.848	13.409	1071.730	815.661
21.863	13.272	1070.117	813.682
22.877	13.117	1069.602	812.459
23.892	12.948	1069.391	811.395
24.907	13.060	1068.535	811.223
25.921	13.140	1067.607	810.843
26.936	13.287	1066.429	810.597
27.950	13.167	1066.198	809.762
28.965	13.340	1064.385	809.159
29.980	13.243	1063.310	807.796
30.994	13.304	1062.299	807.252
32.009	13.300	1061.616	806.641
33.023	13.342	1060.007	805.552
34.038	13.323	1059.482	804.993
35.053	13.343	1058.089	803.957
36.067	13.200	1058.069	803.180
37.082	13.291	1056.682	802.496
38.096	13.259	1055.716	801.534
39.111	13.307	1055.341	801.411
40.126	13.270	1053.762	799.965
41.140	13.182	1052.865	798.786
42.155	12.995	1052.100	797.232
43.169	13.068	1050.505	796.303
44.184	13.075	1049.856	795.777
45.199	13.009	1048.751	794.550
46.213	13.059	1047.660	793.894
47.228	13.219	1046.375	793.619
48.242	13.177	1045.336	792.558
49.257	13.202	1044.650	792.090
50.271	13.348	1043.291	791.685
51.286	13.228	1042.983	790.809
52.301	13.174	1041.711	789.518
53.315	13.159	1040.857	788.728
54.330	13.185	1039.678	787.887
55.344	13.151	1039.005	787.148
56.359	13.182	1038.157	786.582
57.374	13.052	1037.474	785.378
58.388	13.044	1036.256	784.348
59.403	13.120	1035.374	783.972
60.417	13.099	1034.675	783.270
61.432	12.982	1034.140	782.242
62.447	13.072	1033.164	781.865
63.461	12.972	1032.488	780.808
64.476	13.027	1031.440	780.208
65.490	12.945	1031.033	779.444
66.505	12.963	1030.092	778.748
67.520	13.138	1029.016	778.690
68.534	12.969	1029.031	777.837
69.549	13.087	1027.653	777.281
70.563	12.944	1026.966	776.019
71.578	12.998	1026.098	775.547
72.593	12.963	1025.298	774.709
73.607	12.983	1024.964	774.486
74.622	13.056	1023.904	773.957
75.636	13.002	1022.898	772.876
76.651	12.891	1022.674	772.116
77.666	12.997	1021.566	771.711
78.680	12.873	1021.421	770.951
79.695	13.062	1020.552	771.108
80.709	13.097	1019.695	770.558
81.724	13.139	1019.510	770.544
82.739	13.071	1018.470	769.372
83.753	13.222	1017.828	769.525
84.768	13.334	1016.859	769.246
85.782	13.273	1016.064	768.291
86.797	13.224	1014.950	767.152
87.812	13.178	1013.903	766.081
88.826	13.297	1012.629	765.604
89.841	13.195	1011.685	764.347
90.855	13.279	1011.022	764.168
91.870	13.275	1010.418	763.625
92.884	13.248	1009.969	763.092
93.899	13.317	1008.708	762.393
94.914	13.438	1007.952	762.310
95.928	13.409	1007.089	761.457
96.943	13.267	1006.536	760.319
97.957	13.233	1005.593	759.384
98.972	13.349	1004.457	758.989
99.987	13.289	1003.699	758.074
101.001	13.265	1002.902	757.297
102.016	13.246	1001.913	756.397
103.030	13.290	1001.297	756.062
104.045	13.282	1000.573	755.412
105.060	13.289	999.645	754.677
106.074	13.166	998.638	753.291
107.089	13.052	997.641	751.953
108.103	13.130	996.822	751.624
109.118	13.031	995.705	750.266
110.133	13.278	994.248	750.224
111.147	13.141	994.033	749.370
112.162	13.171	993.643	749.149
113.176	13.118	992.681	748.117
114.191	13.133	991.712	747.386
115.206	13.238	990.957	747.227
116.220	13.239	990.035	746.470
117.235	13.094	989.398	745.269
118.249	13.161	988.272	744.657
119.264	13.234	987.578	744.399
120.279	13.216	986.758	743.634
121.293	13.077	986.142	742.478
122.308	13.142	985.020	741.858
123.322	13.072	984.262	740.909
124.337	13.075	982.984	739.896
125.352	13.109	982.068	739.292
126.366	13.167	980.916	738.619
127.381	13.150	979.989	737.779
128.395	13.199	979.073	737.243
129.410	13.161	978.043	736.232
130.424	13.229	977.350	735.947
131.439	13.268	976.770	735.618
132.454	13.237	975.828	734.710
133.468	13.222	975.078	734.010
134.483	13.335	973.885	733.551
135.497	13.275	973.271	732.756
136.512	13.186	972.541	731.750
137.527	13.302	971.429	731.358
138.541	13.174	970.941	730.363
139.556	13.284	970.225	730.243
140.570	13.295	969.375	729.591
141.585	13.335	968.632	729.140
142.600	13.362	967.662	728.467
143.614	13.379	966.953	727.943
144.629	13.420	966.426	727.662
145.643	13.534	965.203	727.175
146.658	13.424	964.072	725.779
147.673	13.391	962.784	724.601
148.687	13.327	962.205	723.821
149.702	13.254	961.802	723.134
150.716	13.331	960.766	722.625
151.731	13.416	959.720	722.146
152.746	13.289	959.962	721.713
153.760	13.453	958.591	721.329
154.775	13.429	958.275	720.923
155.789	13.502	957.441	720.553
156.804	13.446	956.803	719.763
157.819	13.444	956.385	719.376
158.833	13.574	955.519	719.227
159.848	13.617	954.835	718.834
160.862	13.650	953.427	717.855
161.877	13.545	952.492	716.630
162.892	13.289	951.925	715.035
163.906	13.351	951.123	714.638
164.921	13.529	950.097	714.572
165.935	13.585	949.108	714.006
166.950	13.607	948.283	713.414
167.964	13.539	947.558	712.516
168.979	13.558	946.660	711.860
169.994	13.518	945.783	710.962
171.008	13.596	945.104	710.725
172.023	13.538	944.620	710.050
173.037	13.665	944.156	710.183
174.052	13.626	943.035	709.109
175.067	13.560	942.845	708.622
176.081	13.479	942.153	707.692
177.096	13.644	941.468	707.821
178.110	13.600	940.806	707.070
179.125	13.516	940.151	706.161
180.140	13.546	939.851	706.000
181.154	13.703	939.072	706.021
182.169	13.706	938.452	705.503
183.183	13.820	937.321	705.077
184.198	13.657	936.856	703.973
185.213	13.730	936.413	703.887
186.227	13.806	935.350	703.345
187.242	13.842	935.177	703.305
188.256	13.797	934.572	702.600
189.271	13.763	934.176	702.095
190.286	13.714	932.975	700.923
191.300	13.789	931.938	700.400
192.315	13.770	931.424	699.870
193.329	13.730	931.045	699.356
194.344	13.564	930.434	698.134
195.359	13.698	929.806	698.166
196.373	13.641	929.793	697.853
197.388	13.867	928.873	698.053
198.402	13.921	927.990	697.555
199.417	13.880	927.825	697.199
200.432	13.902	926.969	696.585
201.446	14.085	926.351	696.827
202.461	14.103	925.689	696.341
203.475	14.053	925.372	695.833
204.490	13.987	924.510	694.845
205.504	14.026	923.877	694.474
206.519	14.081	922.656	693.722
207.534	14.034	922.187	693.113
208.548	14.017	921.932	692.787
209.563	14.015	920.792	691.860
210.577	14.011	920.364	691.460
211.592	14.175	919.542	691.464
212.607	14.197	918.786	690.926
213.621	14.221	917.998	690.374
214.636	14.179	917.247	689.572
215.650	14.135	916.567	688.820
216.665	14.214	915.951	688.622
217.680	14.259	915.263	688.231
218.694	14.307	914.117	687.504
219.709	14.323	913.876	687.329
220.723	14.315	913.127	686.670
221.738	14.252	912.633	685.979
222.753	14.269	911.956	685.479
223.767	14.335	911.621	685.438
224.782	14.353	910.798	684.835
225.796	14.338	910.661	684.608
226.811	14.410	909.504	683.974
227.826	14.435	908.817	683.501
228.840	14.358	908.131	682.607
229.855	14.373	907.193	681.906
230.869	14.316	906.722	681.257
231.884	14.377	905.936	680.855
232.899	14.309	905.022	679.828
233.913	14.280	904.717	679.424
234.928	14.284	903.957	678.807
235.942	14.328	903.277	678.417
236.957	14.396	902.950	678.387
237.972	14.362	902.242	677.658
238.986	14.319	901.672	676.994
240.001	14.313	901.223	676.574
241.015	14.423	900.277	676.251
242.030	14.392	899.833	675.728
243.045	14.525	898.957	675.551
244.059	14.419	898.600	674.793
245.074	14.530	897.908	674.664
246.088	14.442	897.625	674.036
247.103	14.581	896.484	673.680
248.117	14.628	896.023	673.462
249.132	14.764	895.480	673.545
250.147	14.797	894.672	673.008
251.161	14.710	894.484	672.459
252.176	14.712	893.993	672.039
253.190	14.988	892.803	672.194
254.205	14.867	891.950	671.005
255.220	14.868	891.533	670.635
256.234	14.892	891.353	670.537
257.249	14.771	890.704	669.508
258.263	14.739	889.975	668.770
259.278	14.761	889.332	668.315
260.293	14.892	888.380	668.065
261.307	15.109	887.575	668.268
262.322	15.176	886.833	667.917
263.336	15.081	886.320	667.093
264.351	15.048	885.684	666.424
265.366	15.128	885.004	666.169
266.380	14.995	884.709	665.360
267.395	14.981	884.211	664.873
268.409	14.987	882.810	663.784
269.424	14.944	882.342	663.201
270.439	15.053	881.300	662.790
271.453	15.033	880.894	662.349
272.468	15.109	880.491	662.289
273.482	15.181	879.690	661.910
274.497	15.052	879.202	660.975
275.512	15.118	878.683	660.788
276.526	15.068	878.326	660.266
277.541	15.260	877.971	660.697
278.555	15.227	876.973	659.757
279.570	15.134	876.745	659.159
280.585	15.292	875.485	658.775
281.599	15.257	874.840	658.094
282.614	15.246	874.052	657.399
283.628	15.151	873.813	656.789
284.643	15.320	873.125	656.875
285.657	15.391	871.928	656.194
286.672	15.380	871.429	655.721
287.687	15.377	871.160	655.448
288.701	15.321	871.073	655.103
289.716	15.361	869.946	654.355
290.730	15.294	869.438	653.655
291.745	15.444	868.809	653.707
292.760	15.583	868.228	653.755
293.774	15.568	867.239	652.894
294.789	15.597	866.428	652.338
295.803	15.426	866.128	651.391
296.818	15.391	865.611	650.808
297.833	15.433	864.634	650.177
298.847	15.536	863.973	650.021
299.862	15.549	863.491	649.653
300.876	15.583	863.055	649.398
301.891	15.602	862.488	648.987
302.906	15.512	861.869	648.118
303.920	15.565	861.615	648.073
304.935	15.677	860.840	647.863
305.949	15.722	860.477	647.705
306.964	15.776	859.394	647.041
307.979	15.679	858.873	646.222
308.993	15.812	858.447	646.354
310.008	15.871	857.732	645.983
311.022	15.733	857.399	645.146
312.037	15.770	856.832	644.806
313.052	15.686	856.429	644.123
314.066	15.529	856.267	643.342
315.081	15.630	855.500	643.094
316.095	15.704	854.463	642.542
317.110	15.725	853.778	642.051
318.125	15.644	853.693	641.620
319.139	15.660	852.677	640.859
320.154	15.717	852.367	640.788
321.168	15.900	851.591	640.845
322.183	15.705	851.126	639.695
323.197	15.829	850.450	639.601
324.212	15.801	850.359	639.374
325.227	15.722	849.781	638.579
326.241	15.870	848.862	638.394
327.256	15.914	848.378	638.141
328.270	15.848	847.671	637.303
329.285	15.850	847.036	636.778
330.300	15.946	846.582	636.741
331.314	15.899	846.071	636.122
332.329	15.902	845.716	635.811
333.343	15.941	845.334	635.614
334.358	15.979	844.979	635.436
335.373	15.989	844.450	635.019
336.387	16.055	843.784	634.710
337.402	16.111	843.895	634.947
338.416	16.054	843.833	634.631
339.431	16.154	843.160	634.445
340.446	16.132	842.829	634.058
341.460	16.176	842.310	633.776
342.475	16.163	841.872	633.342
343.489	16.169	841.570	633.080
344.504	16.175	841.076	632.674
345.519	16.305	840.169	632.425
346.533	16.234	840.085	632.039
347.548	16.172	839.591	631.381
348.562	16.105	839.113	630.714
349.577	16.238	838.265	630.516
350.592	16.157	837.586	629.649
351.606	16.289	836.451	629.231
352.621	16.294	835.970	628.835
353.635	16.294	835.353	628.314
354.650	16.144	835.404	627.737
355.665	16.189	834.651	627.285
356.679	16.274	833.657	626.799
357.694	16.168	832.965	625.828
358.708	16.340	832.614	626.147
359.723	16.581	831.920	626.462
360.738	16.333	831.381	625.083
361.752	16.440	830.935	625.088
362.767	16.480	830.103	624.553
363.781	16.522	829.680	624.337
364.796	16.647	828.979	624.216
365.810	16.618	828.703	623.845
366.825	16.625	828.512	623.673
367.840	16.520	828.158	622.964
368.854	16.696	827.390	622.976
369.869	16.697	827.098	622.707
370.883	16.675	826.731	622.295
371.898	16.573	826.575	621.747
372.913	16.703	825.637	621.463
373.927	16.728	825.136	621.123
374.942	16.817	824.722	621.081
375.956	16.707	824.594	620.528
376.971	16.768	824.183	620.388
377.986	16.795	823.553	619.957
379.000	16.893	822.918	619.783
380.015	16.970	822.457	619.663
381.029	16.984	822.023	619.330
382.044	16.842	821.473	618.345
383.059	17.048	820.547	618.341
384.073	16.913	820.318	617.625
385.088	16.921	819.590	617.050
386.102	16.804	819.216	616.288
387.117	16.824	818.621	615.857
388.132	16.930	817.832	615.595
389.146	16.937	817.300	615.167
390.161	17.026	816.761	615.030
391.175	16.985	816.459	614.599
392.190	16.898	816.329	614.132
393.205	16.949	815.417	613.574
394.219	17.032	815.083	613.570
395.234	16.990	814.632	613.025
396.248	16.986	814.379	612.764
397.263	16.903	814.173	612.255
398.278	16.973	813.637	612.052
399.292	16.864	813.488	611.493
400.307	16.806	812.993	610.855
401.321	17.027	812.061	610.896
402.336	17.137	811.480	610.801
403.350	17.132	811.152	610.482
404.365	17.075	810.801	609.959
405.380	17.199	810.302	609.977
406.394	17.248	809.678	609.628
407.409	17.122	809.550	609.028
408.423	17.105	809.571	608.926
409.438	17.255	809.050	609.017
410.453	17.259	808.516	608.578
411.467	17.162	807.756	607.605
412.482	17.403	807.214	608.004
413.496	17.397	807.054	607.807
414.511	17.420	806.733	607.594
415.526	17.514	805.984	607.313
416.540	17.367	805.867	606.645
417.555	17.341	805.285	606.062
418.569	17.525	804.851	606.337
419.584	17.564	804.215	605.941
420.599	17.396	803.918	605.068
421.613	110.771	1294.764	1476.188
422.628	95.489	1366.233	1476.280
