DTS Sentinel unit serial number:	SN413079Multiplexer serial number:	ORYXHardware model number:	OX4-SRSoftware version number:	ORYX F/W v4.00 Oryx Data Collector v3.7.2.0data status	okinstallation	princeton_trtdifferential loss correction	single-endedforward channel	channel 1reverse channel	N/Adate	2019/09/12time	01:36:11forward acquisition time	60.00reverse acquisition time	0.00gamma	496.2192k internal	0.2320k external	0.2320temperature offset calibration	1.0081default loss term (dB/km)	0.3790temperature slope calibration	1.0000multiplexer offset coefficient	1.0000multiplexer slope coefficient	1.0000fibre end	0.00T internal ref (°C)	32.91T ext. ref 1 (°C)	2.10T ext. ref 2 (°C)	27.38length (m)	temperature (°C)	Stokes	anti-Stokes-747.200	-118.868	-0.290	-0.052
-746.185	-200.000	0.058	-0.273
-745.171	-200.000	-0.045	-0.332
-744.156	171.538	-0.191	0.277
-743.142	-43.536	-0.281	0.144
-742.127	-200.000	-0.058	0.269
-741.112	-28.019	0.343	0.201
-740.098	-151.047	-0.203	-0.015
-739.083	327.341	-0.005	-0.009
-738.069	114.668	-0.093	0.115
-737.054	-29.373	0.157	0.091
-736.039	701.827	-0.078	-0.207
-735.025	197.538	0.122	0.189
-734.010	-53.837	-0.122	-0.056
-732.996	800.000	-0.078	0.260
-731.981	800.000	0.078	-0.257
-730.966	68.725	-0.265	0.275
-729.952	-200.000	-0.009	-0.202
-728.937	-26.931	0.261	0.154
-727.923	39.983	-0.197	-0.178
-726.908	-132.925	0.075	0.010
-725.894	-17.423	-0.133	0.084
-724.879	89.250	-0.273	-0.308
-723.864	-200.000	-0.023	-0.109
-722.850	-105.582	0.223	0.051
-721.835	-0.898	0.047	0.034
-720.821	-113.767	0.101	0.020
-719.806	-83.774	0.131	0.042
-718.791	-181.004	-0.045	-0.001
-717.777	-67.846	-0.171	0.067
-716.762	254.656	-0.097	0.167
-715.748	-200.000	-0.017	0.159
-714.733	-200.000	-0.059	0.297
-713.718	-38.665	-0.181	-0.096
-712.704	-100.022	-0.200	-0.050
-711.689	-3.656	0.163	0.114
-710.675	-152.938	0.163	-0.012
-709.660	263.220	-0.068	0.119
-708.645	-200.000	0.017	-0.344
-707.631	569.570	0.025	0.060
-706.616	-124.986	-0.171	0.027
-705.602	76.223	-0.053	-0.057
-704.587	159.477	-0.073	-0.102
-703.572	-85.665	0.042	-0.013
-702.558	-101.294	-0.084	-0.021
-701.543	-150.717	-0.185	-0.014
-700.529	-200.000	0.027	-0.201
-699.514	800.000	-0.064	-0.257
-698.499	-200.000	-0.009	-0.088
-697.485	800.000	0.056	-0.244
-696.470	-67.196	0.372	-0.148
-695.456	-180.925	-0.277	0.006
-694.441	-150.157	0.313	-0.025
-693.426	-130.648	-0.230	-0.031
-692.412	341.237	-0.072	-0.143
-691.397	-200.000	0.031	0.649
-690.383	23.905	-0.183	-0.152
-689.368	-99.929	-0.202	0.051
-688.354	-80.319	0.458	-0.154
-687.339	800.000	0.171	0.490
-686.324	-3.619	0.180	0.126
-685.310	293.244	-0.081	0.150
-684.295	25.415	0.128	0.108
-683.281	-109.719	-0.184	-0.039
-682.266	31.979	-0.244	-0.212
-681.251	800.000	-0.034	0.142
-680.237	-200.000	0.003	0.078
-679.222	-157.205	-0.112	0.007
-678.208	149.388	-0.243	-0.332
-677.193	-13.931	-0.276	0.180
-676.178	-200.000	-0.003	-0.177
-675.164	560.698	-0.053	0.129
-674.149	-165.377	-0.158	-0.007
-673.135	-128.158	-0.449	0.065
-672.120	96.125	-0.304	-0.351
-671.105	70.615	0.104	-0.109
-670.091	106.006	0.187	0.223
-669.076	-200.000	-0.009	-0.312
-668.062	-106.419	-0.033	-0.007
-667.047	-73.622	0.149	-0.055
-666.032	800.000	0.042	0.168
-665.018	-68.090	0.373	-0.146
-664.003	-95.808	-0.430	-0.116
-662.989	29.942	-0.137	-0.118
-661.974	23.646	-0.287	-0.238
-660.959	-114.266	0.299	0.058
-659.945	-95.790	-0.124	-0.033
-658.930	800.000	0.052	0.151
-657.916	105.255	0.042	0.050
-656.901	65.696	0.037	0.038
-655.886	48.744	0.087	-0.083
-654.872	-18.077	-0.155	0.097
-653.857	403.268	-0.072	-0.152
-652.843	-35.080	0.328	-0.180
-651.828	-175.494	0.223	-0.006
-650.814	38.498	0.198	0.178
-649.799	240.632	-0.144	-0.242
-648.784	-63.418	-0.317	-0.131
-647.770	374.215	-0.062	-0.126
-646.755	-48.456	-0.139	0.067
-645.741	-163.697	-0.166	0.008
-644.726	379.604	-0.069	0.143
-643.711	152.725	-0.227	0.312
-642.697	426.258	-0.081	-0.177
-641.682	23.036	-0.194	-0.160
-640.668	-196.019	0.189	0.001
-639.653	800.000	-0.098	-0.274
-638.638	-120.036	-0.190	0.033
-637.624	218.207	0.091	0.146
-636.609	29.041	-0.136	0.116
-635.595	-200.000	0.006	0.145
-634.580	-182.443	-0.200	-0.004
-633.565	-90.608	-0.298	0.087
-632.551	335.351	-0.038	-0.074
-631.536	166.076	0.037	-0.053
-630.522	-200.000	-0.230	0.001
-629.507	-200.000	0.015	0.198
-628.492	-131.210	-0.263	-0.035
-627.478	-94.190	0.219	0.060
-626.463	145.703	0.119	0.160
-625.449	532.501	0.089	-0.211
-624.434	338.653	0.072	0.140
-623.419	-92.473	0.486	0.138
-622.405	159.510	-0.103	0.144
-621.390	800.000	-0.031	0.116
-620.376	14.579	-0.170	-0.134
-619.361	106.554	0.094	-0.112
-618.346	-133.201	0.222	-0.028
-617.332	257.230	-0.095	0.164
-616.317	-200.000	-0.015	0.429
-615.303	17.607	0.234	0.187
-614.288	516.369	-0.015	-0.035
-613.273	-168.309	-0.095	0.004
-612.259	53.355	0.177	-0.171
-611.244	513.996	-0.109	-0.255
-610.230	-86.305	-0.417	-0.129
-609.215	-118.933	0.227	-0.040
-608.201	-120.169	0.141	-0.024
-607.186	575.232	-0.042	-0.103
-606.171	-101.661	0.265	0.065
-605.157	205.801	-0.040	-0.063
-604.142	225.220	0.108	0.176
-603.128	-195.874	-0.184	0.001
-602.113	-33.226	-0.290	0.162
-601.098	44.959	0.217	-0.201
-600.084	-144.197	0.049	-0.005
-599.069	-40.976	-0.099	0.051
-598.055	27.747	-0.179	0.152
-597.040	87.588	-0.123	-0.137
-596.025	-62.893	0.234	-0.097
-595.011	187.412	-0.068	-0.101
-593.996	36.776	0.167	-0.148
-592.982	60.301	-0.198	-0.196
-591.967	-200.000	0.006	0.345
-590.952	-127.985	0.313	-0.045
-589.938	12.241	-0.176	0.136
-588.923	118.707	-0.329	-0.408
-587.909	-41.311	-0.211	0.109
-586.894	162.959	0.211	0.298
-585.879	-21.286	-0.189	0.116
-584.865	-36.234	-0.081	-0.044
-583.850	-2.298	-0.103	-0.073
-582.836	-200.000	-0.005	0.215
-581.821	-188.720	-0.048	0.001
-580.806	70.846	0.233	0.243
-579.792	325.691	-0.149	0.287
-578.777	-53.267	-0.169	-0.078
-577.763	-66.819	0.085	-0.034
-576.748	98.597	-0.128	0.148
-575.733	-4.499	0.198	0.137
-574.719	-200.000	-0.001	0.036
-573.704	-15.210	0.189	0.122
-572.690	-200.000	-0.037	-0.179
-571.675	-45.329	-0.283	0.141
-570.661	158.208	0.057	0.080
-569.646	272.599	0.090	-0.159
-568.631	117.675	0.242	-0.299
-567.617	227.149	0.126	-0.206
-566.602	-109.070	0.319	-0.068
-565.588	-26.000	0.040	-0.024
-564.573	299.183	0.122	-0.226
-563.558	-98.389	0.321	-0.083
-562.544	314.166	0.035	0.066
-561.529	89.256	-0.284	0.317
-560.515	800.000	-0.111	-0.462
-559.500	-32.446	0.163	0.091
-558.485	247.592	-0.113	0.191
-557.471	185.637	0.045	-0.068
-556.456	156.663	0.151	0.210
-555.442	-42.300	0.369	0.189
-554.427	-200.000	-0.040	-0.253
-553.412	359.277	-0.196	-0.393
-552.398	-180.348	0.141	0.003
-551.383	-125.161	-0.158	-0.024
-550.369	-98.432	-0.232	-0.060
-549.354	159.104	-0.204	-0.284
-548.339	766.673	-0.077	-0.209
-547.325	800.000	0.070	0.215
-546.310	800.000	0.095	-0.275
-545.296	27.133	0.315	-0.265
-544.281	233.586	-0.146	0.240
-543.266	48.875	-0.279	0.263
-542.252	-200.000	0.005	-0.278
-541.237	169.921	-0.303	-0.434
-540.223	-102.093	0.225	0.054
-539.208	68.112	-0.110	-0.113
-538.193	108.592	-0.024	0.029
-537.179	-105.779	0.132	-0.030
-536.164	333.879	-0.090	0.175
-535.150	-200.000	0.015	0.226
-534.135	-80.043	0.207	-0.070
-533.121	34.712	-0.269	-0.235
-532.106	264.207	-0.097	-0.169
-531.091	800.000	-0.038	0.158
-530.077	196.978	-0.230	-0.351
-529.062	-145.926	-0.017	-0.001
-528.048	-200.000	-0.121	0.000
-527.033	46.134	0.064	-0.059
-526.018	155.164	-0.166	-0.229
-525.004	-138.851	0.114	0.012
-523.989	800.000	0.030	0.133
-522.975	528.441	0.040	0.095
-521.960	-72.669	0.244	0.090
-520.945	-170.254	0.500	-0.018
-519.931	-124.645	0.107	-0.017
-518.916	152.068	-0.135	-0.184
-517.902	800.000	-0.022	0.093
-516.887	-39.088	0.242	-0.127
-515.872	-62.547	-0.056	-0.023
-514.858	-55.162	0.215	0.097
-513.843	-200.000	-0.046	0.483
-512.829	-152.489	0.370	-0.027
-511.814	-200.000	0.042	0.392
-510.799	-134.774	-0.024	-0.003
-509.785	12.655	-0.071	0.055
-508.770	800.000	0.056	0.155
-507.756	800.000	0.035	-0.150
-506.741	771.405	0.035	0.096
-505.726	-200.000	0.007	-0.183
-504.712	-52.994	-0.299	0.138
-503.697	-200.000	0.047	0.252
-502.683	-42.977	0.029	0.015
-501.668	-120.412	-0.289	-0.049
-500.653	-19.973	-0.128	-0.079
-499.639	-22.135	0.107	0.065
-498.624	-125.265	0.394	0.060
-497.610	-40.717	-0.233	0.121
-496.595	-200.000	-0.019	0.244
-495.581	-91.402	0.112	-0.032
-494.566	181.077	-0.132	-0.194
-493.551	10.151	0.173	0.132
-492.537	800.000	0.030	-0.130
-491.522	169.405	0.080	0.114
-490.508	241.073	-0.063	-0.106
-489.493	144.047	-0.112	-0.149
-488.478	442.015	0.136	-0.298
-487.464	800.000	-0.076	-0.257
-486.449	-200.000	0.007	-0.161
-485.435	351.868	-0.095	0.189
-484.420	309.949	-0.147	-0.276
-483.405	-127.298	0.290	-0.042
-482.391	-136.416	0.105	0.012
-481.376	-99.852	-0.273	0.068
-480.362	33.951	0.152	-0.133
-479.347	84.965	0.128	-0.141
-478.332	-153.444	0.184	0.013
-477.318	-172.327	-0.264	0.008
-476.303	7.138	-0.050	-0.037
-475.289	-58.938	-0.176	-0.076
-474.274	-23.001	-0.129	-0.078
-473.259	-47.430	0.293	-0.142
-472.245	218.917	0.154	0.246
-471.230	800.000	0.066	0.216
-470.216	55.541	0.367	0.356
-469.201	800.000	-0.085	0.292
-468.186	-200.000	-0.026	-0.318
-467.172	-47.918	0.108	-0.052
-466.157	-89.550	-0.451	-0.133
-465.143	-200.000	0.028	-0.213
-464.128	49.537	-0.079	-0.075
-463.113	800.000	0.069	0.212
-462.099	-53.785	0.057	0.026
-461.084	548.773	-0.074	-0.176
-460.070	-100.265	-0.478	0.119
-459.055	396.839	0.057	0.118
-458.040	-21.524	0.106	0.065
-457.026	349.297	0.084	-0.167
-456.011	177.593	0.059	-0.086
-454.997	-200.000	-0.008	-0.046
-453.982	-84.244	-0.573	0.181
-452.968	-13.251	0.255	-0.165
-451.953	399.768	-0.079	-0.165
-450.938	-200.000	0.003	-0.463
-449.924	-163.931	-0.067	-0.003
-448.909	-167.446	0.052	-0.002
-447.895	-44.865	0.192	0.096
-446.880	-28.238	-0.232	0.134
-445.865	392.643	0.033	-0.069
-444.851	557.671	0.089	-0.214
-443.836	800.000	-0.082	-0.260
-442.822	800.000	-0.043	-0.126
-441.807	-133.694	0.176	0.022
-440.792	103.356	-0.116	0.136
-439.778	800.000	-0.092	-0.263
-438.763	-73.879	-0.134	0.049
-437.749	800.000	-0.067	-0.267
-436.734	81.333	0.072	-0.078
-435.719	-200.000	0.042	0.189
-434.705	-48.479	-0.322	-0.155
-433.690	800.000	-0.046	0.164
-432.676	-161.406	0.107	-0.006
-431.661	224.193	0.204	0.329
-430.646	-30.026	-0.414	0.235
-429.632	56.528	-0.131	0.127
-428.617	-56.529	0.251	-0.111
-427.603	-83.126	0.094	-0.030
-426.588	712.769	0.052	-0.136
-425.573	-129.521	0.062	0.009
-424.559	238.936	-0.161	0.267
-423.544	-200.000	0.022	0.153
-422.530	312.748	-0.034	0.063
-421.515	225.323	-0.198	-0.320
-420.500	-93.813	-0.083	-0.023
-419.486	-53.069	-0.181	0.083
-418.471	53.834	0.117	-0.112
-417.457	-40.750	0.274	-0.142
-416.442	800.000	0.056	0.181
-415.428	-64.470	0.177	0.072
-414.413	30.584	0.025	-0.021
-413.398	210.065	-0.061	0.096
-412.384	-200.000	-0.003	-0.119
-411.369	-85.779	-0.204	-0.063
-410.355	15.218	0.213	-0.167
-409.340	-126.060	0.447	-0.067
-408.325	105.906	0.103	0.122
-407.311	800.000	-0.036	0.117
-406.296	-27.585	-0.151	0.088
-405.282	-189.892	0.132	0.001
-404.267	52.012	0.249	-0.237
-403.252	158.084	-0.254	0.351
-402.238	-137.993	0.099	-0.011
-401.223	800.000	-0.029	-0.088
-400.209	151.631	-0.039	0.054
-399.194	800.000	-0.029	-0.107
-398.179	-200.000	-0.029	0.381
-397.165	-13.647	-0.292	0.189
-396.150	688.313	-0.097	0.254
-395.136	-163.536	-0.267	0.013
-394.121	149.170	-0.135	-0.182
-393.106	-51.352	0.223	0.104
-392.092	195.092	0.069	0.105
-391.077	-50.696	-0.390	-0.183
-390.063	-13.000	-0.152	0.099
-389.048	-47.769	-0.134	-0.065
-388.033	-69.776	0.355	-0.135
-387.019	-69.716	-0.197	0.075
-386.004	-200.000	0.064	0.306
-384.990	11.529	0.298	0.228
-383.975	-122.868	-0.132	0.021
-382.960	60.841	-0.147	-0.146
-381.946	800.000	-0.056	0.186
-380.931	571.395	-0.142	-0.344
-379.917	-200.000	0.005	0.180
-378.902	250.242	-0.191	-0.323
-377.888	-94.167	0.147	-0.040
-376.873	-16.557	-0.107	0.068
-375.858	-200.000	-0.026	-0.284
-374.844	98.807	0.169	-0.195
-373.829	-17.157	0.317	-0.199
-372.815	-176.744	-0.187	-0.005
-371.800	-158.733	-0.377	0.021
-370.785	54.671	-0.088	-0.085
-369.771	64.520	-0.090	-0.090
-368.756	-200.000	0.023	0.249
-367.742	-40.147	0.132	-0.069
-366.727	800.000	0.032	0.103
-365.712	-160.065	-0.159	-0.009
-364.698	-53.857	-0.135	-0.061
-363.683	-200.000	-0.008	-0.144
-362.669	800.000	-0.055	0.190
-361.654	39.135	-0.128	-0.114
-360.639	-200.000	0.022	-0.138
-359.625	107.389	-0.129	0.153
-358.610	723.850	-0.086	-0.228
-357.596	-200.000	-0.006	0.083
-356.581	-104.332	-0.198	-0.046
-355.566	-11.853	0.028	-0.018
-354.552	-114.253	-0.219	0.042
-353.537	-200.000	0.034	-0.332
-352.523	-103.538	-0.318	0.074
-351.508	-59.824	-0.137	-0.058
-350.493	800.000	0.091	0.351
-349.479	800.000	-0.094	0.283
-348.464	148.587	0.246	-0.330
-347.450	-29.818	-0.140	-0.080
-346.435	-200.000	0.023	-0.468
-345.420	75.463	0.154	-0.162
-344.406	77.890	0.030	-0.031
-343.391	-11.338	0.138	-0.091
-342.377	-200.000	-0.002	-0.079
-341.362	-66.123	0.288	0.114
-340.348	238.086	0.085	-0.140
-339.333	-74.216	-0.097	0.035
-338.318	-51.743	-0.013	-0.006
-337.304	425.450	-0.091	-0.196
-336.289	-26.603	0.266	-0.155
-335.275	-143.085	-0.148	-0.014
-334.260	534.903	0.158	-0.372
-333.245	-200.000	-0.022	-0.095
-332.231	-124.939	0.366	0.056
-331.216	113.622	-0.030	-0.036
-330.202	24.855	0.096	-0.079
-329.187	712.055	-0.067	-0.176
-328.172	-200.000	0.001	-0.151
-327.158	-97.498	-0.148	-0.038
-326.143	-200.000	0.000	0.067
-325.129	-200.000	0.004	0.140
-324.114	-24.331	-0.360	-0.213
-323.099	12.570	-0.111	-0.085
-322.085	800.000	-0.059	-0.169
-321.070	92.214	0.133	-0.149
-320.056	204.080	-0.111	-0.170
-319.041	-38.822	-0.141	0.074
-318.026	800.000	-0.009	-0.032
-317.012	29.301	-0.294	0.248
-315.997	-22.055	0.082	-0.050
-314.983	800.000	0.055	-0.153
-313.968	-200.000	-0.019	-0.136
-312.953	-75.694	-0.240	0.085
-311.939	88.960	-0.159	-0.175
-310.924	-117.650	0.519	0.093
-309.910	-77.699	-0.284	-0.098
-308.895	-150.593	0.310	0.024
-307.880	-48.150	0.166	0.080
-306.866	-200.000	-0.016	-0.152
-305.851	96.776	-0.200	-0.227
-304.837	-200.000	-0.001	-0.066
-303.822	800.000	-0.087	-0.245
-302.807	-200.000	0.004	-0.039
-301.793	-94.422	0.292	0.079
-300.778	-62.618	-0.093	-0.038
-299.764	800.000	0.065	-0.182
-298.749	-164.968	0.515	0.023
-297.735	91.928	0.053	-0.059
-296.720	216.771	0.177	-0.280
-295.705	30.802	0.202	-0.172
-294.691	-99.774	-0.242	0.060
-293.676	-105.222	0.146	0.033
-292.662	154.420	0.191	0.261
-291.647	-98.186	0.311	0.079
-290.632	206.234	-0.072	-0.112
-289.618	-120.155	-0.239	0.041
-288.603	-70.056	0.372	0.141
-287.589	22.411	0.320	0.260
-286.574	800.000	-0.084	0.316
-285.559	800.000	0.112	0.337
-284.545	-43.394	-0.201	0.101
-283.530	-9.987	0.051	-0.034
-282.516	60.183	-0.094	-0.092
-281.501	-138.106	-0.022	0.002
-280.486	-156.857	-0.285	-0.017
-279.472	66.421	0.069	-0.070
-278.457	113.873	-0.194	-0.234
-277.443	-170.792	0.087	0.003
-276.428	-200.000	0.032	0.180
-275.413	800.000	-0.114	0.357
-274.399	800.000	0.101	0.300
-273.384	298.944	0.142	0.259
-272.370	146.670	0.303	0.405
-271.355	25.926	0.224	0.185
-270.340	-100.932	0.167	-0.041
-269.326	-200.000	0.008	-0.206
-268.311	105.683	-0.136	0.160
-267.297	-200.000	-0.000	-0.116
-266.282	-200.000	-0.032	-0.409
-265.267	-4.257	0.121	-0.083
-264.253	-200.000	-0.004	0.160
-263.238	38.430	-0.045	0.040
-262.224	-2.475	-0.112	0.078
-261.209	-200.000	0.009	-0.244
-260.195	-200.000	-0.039	0.316
-259.180	-114.546	0.335	0.064
-258.165	-148.845	-0.089	-0.007
-257.151	157.782	-0.300	0.412
-256.136	-99.473	-0.303	0.076
-255.122	596.311	-0.065	-0.159
-254.107	-200.000	0.023	-0.196
-253.092	-9.832	0.196	-0.129
-252.078	800.000	0.068	-0.255
-251.063	71.039	0.081	-0.083
-250.049	313.528	0.120	0.224
-249.034	134.510	-0.191	0.245
-248.019	154.140	0.071	0.097
-247.005	79.216	0.074	0.079
-245.990	800.000	0.105	0.308
-244.976	800.000	-0.103	-0.336
-243.961	-14.124	0.131	-0.084
-242.946	37.126	-0.367	0.322
-241.932	46.419	-0.123	0.113
-240.917	-200.000	0.024	-0.232
-239.903	45.046	-0.114	-0.104
-238.888	72.436	-0.186	0.192
-237.873	-200.000	0.053	0.285
-236.859	-200.000	0.036	0.172
-235.844	-96.086	-0.016	-0.004
-234.830	31.535	0.170	-0.145
-233.815	-109.959	0.305	0.063
-232.800	-75.522	-0.100	0.035
-231.786	-38.527	0.247	0.129
-230.771	-200.000	0.024	0.166
-229.757	18.093	0.265	0.209
-228.742	-42.342	0.207	-0.105
-227.727	-149.056	-0.174	-0.014
-226.713	-200.000	-0.009	0.333
-225.698	-200.000	-0.005	0.192
-224.684	484.793	0.059	0.134
-223.669	-110.462	-0.197	0.040
-222.655	-200.000	-0.004	0.021
-221.640	-74.039	-0.098	-0.035
-220.625	-90.068	-0.117	-0.034
-219.611	-63.008	-0.156	-0.064
-218.596	320.195	-0.033	0.062
-217.582	125.142	0.201	0.252
-216.567	800.000	0.073	0.223
-215.552	478.061	-0.094	0.212
-214.538	59.911	0.330	0.323
-213.523	44.059	-0.371	-0.337
-212.509	-58.992	0.105	-0.045
-211.494	-200.000	-0.008	-0.105
-210.479	37.105	0.164	-0.144
-209.465	800.000	-0.111	0.448
-208.450	396.847	-0.131	0.271
-207.436	-69.867	-0.091	0.035
-206.421	117.779	0.107	0.130
-205.406	-200.000	0.024	-0.116
-204.392	-13.738	0.132	-0.084
-203.377	-45.667	-0.282	-0.138
-202.363	-200.000	0.005	-0.201
-201.348	-187.577	-0.272	-0.004
-200.333	800.000	0.052	0.157
-199.319	190.464	0.073	0.108
-198.304	58.380	0.055	-0.053
-197.290	-184.473	-0.257	0.004
-196.275	-136.962	0.188	0.021
-195.260	-200.000	0.003	0.252
-194.246	-86.849	-0.234	-0.071
-193.231	-22.139	0.068	-0.041
-192.217	75.029	0.213	-0.222
-191.202	-94.243	0.038	0.010
-190.187	17.149	-0.204	0.160
-189.173	-77.144	0.099	-0.034
-188.158	200.624	-0.090	0.137
-187.144	-128.390	0.300	-0.042
-186.129	-47.719	-0.272	-0.130
-185.114	169.944	0.413	0.584
-184.100	-68.534	-0.082	-0.031
-183.085	262.564	0.042	-0.072
-182.071	-114.451	0.418	0.079
-181.056	170.041	-0.129	-0.182
-180.042	116.336	0.271	0.328
-179.027	-50.737	0.136	-0.063
-178.012	-106.032	0.044	0.010
-176.998	-101.243	0.430	0.104
-175.983	-200.000	0.022	0.192
-174.969	-200.000	-0.026	-0.152
-173.954	388.459	-0.069	0.141
-172.939	12.673	0.014	-0.011
-171.925	800.000	0.050	0.167
-170.910	-200.000	-0.003	-0.431
-169.896	213.516	0.071	0.111
-168.881	361.518	-0.032	-0.064
-167.866	413.030	-0.097	-0.204
-166.852	554.279	0.027	-0.064
-165.837	76.913	0.103	-0.108
-164.823	-174.752	0.334	0.009
-163.808	111.052	0.112	0.133
-162.793	329.411	-0.140	-0.267
-161.779	396.416	0.075	-0.156
-160.764	109.564	0.369	0.436
-159.750	101.575	-0.238	-0.274
-158.735	430.487	-0.086	0.185
-157.720	104.690	0.156	0.182
-156.706	248.999	-0.069	0.115
-155.691	-102.819	-0.217	-0.051
-154.677	800.000	-0.090	-0.314
-153.662	287.833	0.102	0.182
-152.647	40.898	-0.195	-0.174
-151.633	-41.284	0.315	0.161
-150.618	19.565	0.117	0.093
-149.604	440.830	0.015	0.033
-148.589	-15.322	-0.068	0.043
-147.574	575.934	-0.102	-0.246
-146.560	-76.961	-0.187	0.065
-145.545	496.235	0.150	-0.342
-144.531	800.000	-0.067	0.200
-143.516	-200.000	-0.078	0.394
-142.502	-200.000	0.045	0.326
-141.487	-76.393	-0.199	-0.069
-140.472	-89.778	0.136	0.039
-139.458	-132.764	-0.154	0.019
-138.443	-200.000	0.000	0.137
-137.429	-200.000	0.010	0.126
-136.414	-200.000	0.010	0.248
-135.399	-200.000	0.014	0.092
-134.385	-200.000	0.016	0.415
-133.370	14.241	-0.077	-0.059
-132.356	178.582	-0.094	0.136
-131.341	-200.000	0.308	0.001
-130.326	-112.003	0.221	0.044
-129.312	-200.000	-0.034	0.297
-128.297	-102.366	-0.025	0.006
-127.283	53.583	-0.180	-0.171
-126.268	-200.000	0.045	-0.263
-125.253	-200.000	-0.029	-0.152
-124.239	402.430	-0.215	-0.447
-123.224	-137.560	0.304	0.034
-122.210	335.249	0.073	-0.139
-121.195	-200.000	0.233	-0.001
-120.180	-200.000	-0.061	0.372
-119.166	-200.000	0.020	0.134
-118.151	-98.822	0.041	0.010
-117.137	215.357	-0.129	-0.201
-116.122	-38.271	-0.241	-0.126
-115.107	262.967	0.105	0.179
-114.093	-94.540	0.382	-0.103
-113.078	-5.212	0.088	0.059
-112.064	-88.517	0.114	-0.033
-111.049	-113.980	-0.377	-0.072
-110.034	-61.967	-0.347	0.143
-109.020	221.036	-0.094	-0.149
-108.005	-162.705	-0.077	-0.004
-106.991	-28.319	0.051	0.029
-105.976	17.019	-0.267	0.208
-104.962	-41.035	0.206	0.105
-103.947	-127.008	0.135	0.020
-102.932	-200.000	-0.008	-0.128
-101.918	800.000	-0.099	0.361
-100.903	-200.000	-0.023	0.241
-99.889	-72.026	-0.047	0.017
-98.874	101.776	-0.160	0.184
-97.859	690.819	-0.099	-0.255
-96.845	20.144	0.267	-0.212
-95.830	-200.000	-0.010	-0.276
-94.816	-15.409	0.212	-0.134
-93.801	-200.000	0.055	0.302
-92.786	800.000	0.061	0.236
-91.772	62.029	-0.134	0.131
-90.757	9.122	-0.214	-0.159
-89.743	18.482	0.311	-0.245
-88.728	40.032	0.270	0.240
-87.713	-200.000	0.072	0.448
-86.699	-9.260	0.156	0.103
-85.684	69.465	-0.198	0.201
-84.670	800.000	-0.130	0.492
-83.655	800.000	-0.089	-0.328
-82.640	-158.202	0.193	-0.011
-81.626	800.000	0.096	0.273
-80.611	16.827	-0.113	0.088
-79.597	138.364	-0.143	-0.185
-78.582	-200.000	0.002	-0.035
-77.567	10.640	0.069	0.052
-76.553	-121.654	0.327	0.053
-75.538	-29.644	-0.097	-0.055
-74.524	-92.152	0.211	0.059
-73.509	259.790	-0.092	-0.157
-72.494	-78.523	0.162	0.055
-71.480	205.727	0.081	-0.124
-70.465	800.000	0.008	-0.028
-69.451	-200.000	-0.024	0.130
-68.436	7.561	-0.281	0.207
-67.422	526.158	0.124	0.287
-66.407	755.824	0.084	0.225
-65.392	800.000	0.021	0.089
-64.378	-145.459	-0.134	-0.012
-63.363	-142.719	-0.350	0.034
-62.349	-200.000	0.036	-0.253
-61.334	-21.324	-0.950	-0.571
-60.319	31.620	0.813	0.688
-59.305	-200.000	-0.131	-1.098
-58.290	130.077	0.742	0.935
-57.276	403.225	0.736	1.523
-56.261	-200.000	96.093	579.344
-55.246	561.755	1375.422	3273.698
-54.232	160.753	2550.532	3504.844
-53.217	112.894	2141.369	2553.523
-52.203	44.478	1605.018	1451.000
-51.188	36.541	1342.418	1165.921
-50.173	33.060	1301.551	1109.978
-49.159	55.296	1347.674	1282.531
-48.144	57.348	1364.567	1310.794
-47.130	36.631	1323.072	1149.473
-46.115	33.023	1306.164	1113.517
-45.100	32.942	1301.174	1108.743
-44.086	32.816	1298.540	1105.720
-43.071	32.717	1296.545	1103.394
-42.057	32.723	1294.486	1101.632
-41.042	32.810	1292.925	1100.768
-40.027	32.840	1290.882	1099.160
-39.013	32.842	1289.721	1098.141
-37.998	32.846	1287.786	1096.474
-36.984	32.852	1285.877	1094.842
-35.969	33.008	1283.741	1093.880
-34.954	32.926	1282.290	1092.129
-33.940	32.846	1281.617	1091.048
-32.925	32.854	1280.243	1089.881
-31.911	32.945	1278.321	1088.728
-30.896	32.848	1277.167	1087.139
-29.881	33.088	1275.412	1086.986
-28.867	32.951	1274.277	1085.186
-27.852	33.089	1272.421	1084.353
-26.838	33.055	1271.136	1083.022
-25.823	33.058	1269.654	1081.734
-24.809	32.944	1268.953	1080.441
-23.794	32.926	1267.213	1078.815
-22.779	33.054	1265.791	1078.290
-21.765	33.060	1264.208	1076.934
-20.750	33.043	1263.094	1075.846
-19.736	32.897	1262.439	1074.413
-18.721	32.820	1261.266	1072.936
-17.706	32.846	1259.952	1071.924
-16.692	32.910	1258.524	1071.029
-15.677	32.930	1257.458	1070.189
-14.663	32.869	1256.398	1068.901
-13.648	32.985	1255.327	1068.605
-12.633	32.815	1254.343	1066.762
-11.619	32.781	1253.773	1066.046
-10.604	32.928	1252.970	1066.147
-9.590	32.904	1251.984	1065.132
-8.575	32.848	1250.985	1063.926
-7.560	32.847	1250.556	1063.510
-6.546	32.747	1249.280	1061.823
-5.531	32.684	1248.675	1060.910
-4.517	32.820	1247.663	1060.772
-3.502	32.764	1247.038	1059.882
-2.487	32.810	1245.722	1058.984
-1.473	32.800	1241.628	1055.407
-0.458	31.303	1227.175	1034.794
0.556	28.479	1209.690	998.023
1.571	25.002	1215.883	983.981
2.586	24.215	1231.374	992.053
3.600	23.803	1220.354	980.812
4.615	17.447	1147.937	889.422
5.629	6.986	1070.543	778.147
6.644	2.483	1049.306	740.888
7.659	2.075	1046.868	737.130
8.673	1.855	1045.776	735.239
9.688	1.979	1044.122	734.606
10.702	2.447	1043.016	736.013
11.717	9.150	1052.532	775.103
12.731	19.405	1066.954	835.585
13.746	24.320	1072.672	863.863
14.761	25.270	1073.790	869.288
15.775	25.247	1073.337	868.734
16.790	25.056	1072.527	867.079
17.804	25.003	1071.920	866.253
18.819	25.107	1071.579	866.403
19.834	25.255	1071.278	866.802
20.848	25.280	1070.868	866.514
21.863	25.360	1069.989	866.111
22.877	25.185	1069.535	864.822
23.892	25.137	1068.631	863.785
24.907	25.270	1068.274	864.058
25.921	25.234	1067.196	862.936
26.936	25.238	1065.460	861.479
27.950	25.163	1064.040	859.894
28.965	24.941	1062.640	857.622
29.980	25.064	1061.020	856.827
30.994	25.284	1059.927	856.920
32.009	25.331	1058.954	856.280
33.023	25.083	1057.606	853.932
34.038	25.079	1057.644	853.871
35.053	25.191	1056.732	853.591
36.067	25.253	1055.619	852.911
37.082	25.315	1055.212	852.803
38.096	25.362	1054.642	852.487
39.111	25.515	1054.020	852.634
40.126	25.446	1052.143	850.716
41.140	25.107	1050.150	847.429
42.155	24.832	1049.403	845.451
43.169	24.772	1048.741	844.560
44.184	24.982	1047.525	844.495
45.199	24.858	1046.462	842.980
46.213	24.922	1045.938	842.783
47.228	25.086	1044.833	842.591
48.242	25.074	1044.410	842.115
49.257	25.111	1043.763	841.696
50.271	25.386	1042.663	842.021
51.286	25.261	1042.064	840.881
52.301	25.298	1041.250	840.320
53.315	25.226	1040.432	839.250
54.330	25.234	1039.332	838.326
55.344	25.237	1039.212	838.170
56.359	25.197	1038.166	837.063
57.374	25.088	1036.629	835.244
58.388	25.055	1036.217	834.685
59.403	25.022	1034.889	833.389
60.417	24.833	1034.453	832.085
61.432	24.896	1033.697	831.696
62.447	24.759	1033.660	830.951
63.461	25.139	1032.444	831.665
64.476	24.997	1031.492	830.167
65.490	24.878	1030.392	828.655
66.505	25.084	1029.738	829.010
67.520	25.026	1029.356	828.362
68.534	24.707	1028.298	825.964
69.549	24.528	1026.866	823.916
70.563	24.459	1026.350	823.110
71.578	24.484	1025.623	822.571
72.593	24.281	1024.415	820.593
73.607	24.386	1024.176	820.814
74.622	24.836	1023.372	822.163
75.636	24.814	1022.790	821.521
76.651	24.617	1021.824	819.771
77.666	24.509	1021.160	818.671
78.680	24.661	1020.504	818.766
79.695	24.638	1020.176	818.327
80.709	24.911	1019.217	818.732
81.724	24.767	1018.595	817.503
82.739	24.972	1017.765	817.700
83.753	25.207	1017.381	818.394
84.768	25.598	1016.221	819.167
85.782	25.771	1015.266	819.111
86.797	25.433	1014.460	816.855
87.812	25.358	1013.540	815.701
88.826	25.514	1012.757	815.704
89.841	25.585	1011.660	815.071
90.855	25.579	1011.003	814.444
91.870	25.473	1010.281	813.311
92.884	25.387	1008.740	811.609
93.899	25.441	1007.806	811.028
94.914	25.425	1007.458	810.604
95.928	25.298	1006.219	808.966
96.943	25.176	1004.925	807.304
97.957	24.930	1003.931	805.327
98.972	24.698	1002.869	803.360
99.987	25.008	1002.076	804.048
101.001	25.149	1001.380	804.049
102.016	25.134	1000.536	803.233
103.030	25.012	999.943	802.140
104.045	24.962	998.652	800.811
105.060	24.910	997.620	799.678
106.074	24.969	996.892	799.288
107.089	25.183	996.952	800.220
108.103	25.079	995.951	798.883
109.118	24.990	994.091	796.925
110.133	24.973	993.354	796.189
111.147	24.732	992.018	793.974
112.162	24.566	991.395	792.668
113.176	24.936	990.822	793.781
114.191	24.854	989.797	792.528
115.206	24.542	988.981	790.425
116.220	24.406	988.055	789.012
117.235	24.771	987.215	789.882
118.249	24.696	986.084	788.577
119.264	24.514	985.500	787.241
120.279	24.531	985.226	787.025
121.293	24.652	984.406	786.834
122.308	24.725	983.129	786.063
123.322	24.655	981.949	784.747
124.337	24.518	980.763	783.127
125.352	23.990	979.162	779.465
126.366	24.011	978.223	778.744
127.381	24.699	978.294	781.739
128.395	25.099	977.845	783.058
129.410	25.315	977.052	783.299
130.424	25.236	976.187	782.190
131.439	25.190	975.415	781.301
132.454	25.065	974.309	779.804
133.468	25.065	972.996	778.681
134.483	25.303	972.662	779.380
135.497	25.529	972.134	779.870
136.512	25.509	971.267	779.018
137.527	25.584	969.883	778.165
138.541	25.375	969.967	777.260
139.556	25.384	969.297	776.692
140.570	25.532	968.270	776.439
141.585	25.472	967.365	775.384
142.600	25.473	966.295	774.461
143.614	25.736	965.726	775.073
144.629	25.744	965.090	774.524
145.643	25.575	963.628	772.560
146.658	25.467	962.287	770.951
147.673	25.434	961.251	769.913
148.687	25.304	960.577	768.750
149.702	25.194	959.501	767.348
150.716	25.210	958.288	766.377
151.731	25.460	957.714	766.918
152.746	25.487	957.880	767.099
153.760	25.689	956.757	766.992
154.775	25.730	956.162	766.624
155.789	25.662	955.327	765.596
156.804	25.539	954.638	764.454
157.819	25.635	954.027	764.306
158.833	25.643	953.301	763.691
159.848	25.773	951.965	763.100
160.862	25.578	951.019	761.453
161.877	25.705	950.229	761.287
162.892	25.586	949.212	759.902
163.906	25.505	948.194	758.678
164.921	25.640	946.963	758.197
165.935	25.689	946.111	757.654
166.950	25.648	945.368	756.817
167.964	25.656	944.493	756.085
168.979	25.473	943.502	754.455
169.994	25.364	943.151	753.652
171.008	25.613	942.765	754.321
172.023	25.685	941.552	753.583
173.037	25.454	940.062	751.361
174.052	25.408	939.029	750.276
175.067	25.311	938.837	749.652
176.081	25.446	938.350	749.759
177.096	25.349	937.663	748.738
178.110	25.105	936.529	746.752
179.125	24.885	936.034	745.375
180.140	24.864	935.631	744.901
181.154	25.148	934.963	745.482
182.169	25.581	935.105	747.331
183.183	25.570	934.780	746.958
184.198	25.608	933.325	745.888
185.213	25.566	932.952	745.351
186.227	25.579	932.467	744.949
187.242	25.680	931.860	744.817
188.256	25.651	931.242	744.137
189.271	25.746	930.434	743.818
190.286	25.395	929.188	741.308
191.300	24.742	927.552	737.247
192.315	23.867	926.064	732.394
193.329	23.958	925.443	732.216
194.344	24.899	926.067	736.517
195.359	25.392	926.126	738.525
196.373	25.697	925.310	739.061
197.388	25.551	924.822	738.010
198.402	25.564	924.409	737.668
199.417	25.485	923.772	736.770
200.432	25.313	922.558	735.029
201.446	25.055	922.385	733.773
202.461	25.070	921.531	733.088
203.475	24.113	920.024	727.917
204.490	23.506	918.514	724.180
205.504	24.422	919.014	728.249
206.519	25.016	918.879	730.501
207.534	25.166	918.486	730.735
208.548	25.453	918.704	732.014
209.563	25.242	917.097	729.811
210.577	25.286	916.559	729.496
211.592	25.773	916.159	731.090
212.607	25.768	915.387	730.389
213.621	25.691	914.610	729.391
214.636	25.722	913.970	728.945
215.650	25.626	913.160	727.844
216.665	25.860	912.401	728.122
217.680	25.669	912.013	726.978
218.694	25.324	910.669	724.447
219.709	24.992	910.108	722.597
220.723	25.420	909.931	724.119
221.738	25.454	909.221	723.627
222.753	25.565	908.505	723.441
223.767	25.444	908.613	722.976
224.782	25.749	908.051	723.690
225.796	25.693	907.242	722.757
226.811	25.158	905.486	719.149
227.826	24.409	904.678	715.442
228.840	24.767	903.747	716.075
229.855	24.876	903.028	715.881
230.869	24.459	902.330	713.596
231.884	24.910	902.120	715.168
232.899	25.557	902.277	717.812
233.913	25.484	901.730	717.025
234.928	25.429	900.962	716.129
235.942	25.371	900.384	715.378
236.957	25.166	899.318	713.651
237.972	25.013	899.206	712.889
238.986	25.193	898.615	713.072
240.001	25.211	898.100	712.672
241.015	25.316	897.232	712.337
242.030	25.420	896.840	712.377
243.045	25.571	896.238	712.435
244.059	25.628	895.893	712.323
245.074	25.484	895.076	711.041
246.088	25.294	893.815	709.223
247.103	25.374	894.186	709.773
248.117	25.981	894.125	712.060
249.132	26.295	893.408	712.662
250.147	26.261	893.292	712.375
251.161	26.216	892.927	711.841
252.176	26.392	892.177	711.872
253.190	26.425	891.587	711.469
254.205	26.657	890.527	711.472
255.220	26.660	890.227	711.181
256.234	26.333	889.693	709.409
257.249	26.272	888.901	708.476
258.263	26.236	888.560	708.002
259.278	26.453	887.403	707.864
260.293	26.520	886.635	707.452
261.307	26.300	886.365	706.314
262.322	26.248	885.202	705.122
263.336	25.496	883.117	700.469
264.351	24.447	881.339	694.914
265.366	24.483	881.468	695.096
266.380	25.573	881.814	699.548
267.395	26.155	881.506	701.506
268.409	26.071	880.789	700.547
269.424	26.129	880.683	700.625
270.439	26.198	880.230	700.472
271.453	26.202	879.493	699.838
272.468	26.355	879.335	700.242
273.482	26.452	878.742	700.083
274.497	26.006	877.328	697.173
275.512	25.775	876.439	695.512
276.526	26.180	876.671	697.197
277.541	26.196	876.422	697.000
278.555	26.224	875.235	696.103
279.570	26.009	874.587	694.698
280.585	26.231	873.865	694.917
281.599	26.107	872.923	693.631
282.614	25.503	871.842	690.389
283.628	25.452	871.520	689.880
284.643	25.713	871.798	691.040
285.657	25.546	869.973	688.894
286.672	25.230	869.164	686.982
287.687	25.851	869.136	689.274
288.701	25.849	868.800	688.939
289.716	25.451	867.694	686.480
290.730	25.318	867.377	685.661
291.745	25.122	866.561	684.209
292.760	25.646	866.188	685.851
293.774	26.395	866.970	689.266
294.789	26.838	866.623	690.618
295.803	26.776	865.865	689.717
296.818	26.732	865.041	688.832
297.833	26.476	863.845	686.846
298.847	26.178	863.434	685.328
299.862	26.572	863.078	686.478
300.876	26.753	862.955	687.006
301.891	26.699	861.894	685.896
302.906	26.200	861.085	683.305
303.920	26.431	861.055	684.093
304.935	26.841	860.689	685.291
305.949	26.713	859.483	683.789
306.964	26.488	859.085	682.562
307.979	26.438	859.189	682.396
308.993	26.854	858.470	683.330
310.008	26.903	857.736	682.873
311.022	26.547	856.913	680.816
312.037	26.430	856.687	680.137
313.052	26.167	855.689	678.298
314.066	25.333	853.984	673.759
315.081	25.040	853.268	672.033
316.095	25.863	853.703	675.405
317.110	26.386	853.565	677.193
318.125	25.591	851.879	672.824
319.139	24.548	850.444	667.733
320.154	24.531	850.130	667.363
321.168	25.314	850.604	670.604
322.183	26.262	850.252	673.805
323.197	26.276	849.980	673.583
324.212	26.416	850.094	674.135
325.227	26.524	849.410	673.934
326.241	26.353	848.596	672.592
327.256	26.139	848.220	671.441
328.270	26.233	847.139	670.875
329.285	25.900	846.440	669.026
330.300	25.861	845.370	667.974
331.314	26.265	845.241	669.313
332.329	26.610	845.162	670.467
333.343	26.620	844.769	670.134
334.358	26.676	844.542	670.100
335.373	26.608	844.334	669.625
336.387	27.013	844.075	670.858
337.402	27.094	843.873	670.935
338.416	27.092	843.446	670.529
339.431	27.156	843.336	670.621
340.446	27.272	842.581	670.386
341.460	27.101	842.305	669.479
342.475	26.905	841.822	668.312
343.489	27.027	841.696	668.603
344.504	27.292	841.360	669.254
345.519	27.530	840.788	669.612
346.533	27.455	840.278	668.873
347.548	27.510	839.909	668.719
348.562	27.332	839.488	667.675
349.577	27.330	838.489	666.813
350.592	27.336	837.921	666.325
351.606	27.327	837.319	665.753
352.621	27.375	836.734	665.406
353.635	27.023	835.805	663.322
354.650	26.492	833.943	659.849
355.665	25.662	832.524	655.644
356.679	26.136	832.352	657.179
357.694	26.352	832.481	658.009
358.708	26.377	831.531	657.291
359.723	26.578	831.785	658.163
360.738	27.086	830.864	659.220
361.752	27.229	830.556	659.438
362.767	27.439	830.435	660.045
363.781	27.723	829.928	660.611
364.796	27.999	829.296	661.045
365.810	27.778	829.515	660.363
366.825	27.666	829.184	659.639
367.840	27.440	828.027	657.841
368.854	27.094	826.969	655.695
369.869	27.083	826.711	655.393
370.883	27.297	826.234	655.727
371.898	27.246	825.745	655.097
372.913	27.301	825.360	654.931
373.927	27.278	825.046	654.543
374.942	27.440	824.763	654.844
375.956	27.571	824.676	655.187
376.971	27.679	823.722	654.758
377.986	27.881	823.778	655.470
379.000	27.532	823.362	653.828
380.015	27.451	822.549	652.835
381.029	27.554	821.844	652.587
382.044	27.713	821.429	652.770
383.059	27.910	820.552	652.716
384.073	27.762	820.253	651.892
385.088	27.738	819.555	651.194
386.102	27.450	819.015	649.681
387.117	27.540	818.235	649.327
388.132	26.971	817.549	646.696
389.146	26.579	816.545	644.452
390.161	27.105	816.260	646.040
391.175	27.417	816.136	646.992
392.190	27.193	814.800	645.083
393.205	25.838	812.750	638.602
394.219	24.179	811.452	631.651
395.234	24.116	811.411	631.339
396.248	25.667	812.748	637.825
397.263	27.184	813.272	643.557
398.278	27.158	812.918	643.126
399.292	26.965	812.270	641.876
400.307	27.008	811.679	641.505
401.321	27.237	811.208	641.882
402.336	27.532	811.501	643.101
403.350	27.839	811.596	644.202
404.365	28.195	810.977	644.908
405.380	28.489	810.639	645.616
406.394	28.468	810.365	645.269
407.409	28.467	809.778	644.738
408.423	28.255	809.428	643.659
409.438	28.460	808.786	643.811
410.453	28.571	808.409	643.845
411.467	28.503	807.881	643.126
412.482	28.275	807.750	642.168
413.496	28.477	807.360	642.508
414.511	28.526	806.807	642.182
415.526	28.392	806.643	641.526
416.540	28.368	805.606	640.563
417.555	28.094	805.034	639.090
418.569	28.245	804.271	638.959
419.584	27.992	804.207	637.965
420.599	27.998	803.221	637.148
421.613	111.493	1284.504	1456.938
422.628	96.309	1354.643	1457.023
