DTS Sentinel unit serial number:	SN413079Multiplexer serial number:	ORYXHardware model number:	OX4-SRSoftware version number:	ORYX F/W v4.00 Oryx Data Collector v3.7.2.0data status	okinstallation	princeton_trtdifferential loss correction	single-endedforward channel	channel 1reverse channel	N/Adate	2019/09/12time	20:38:35forward acquisition time	60.00reverse acquisition time	0.00gamma	496.2192k internal	0.2324k external	0.2324temperature offset calibration	1.0150default loss term (dB/km)	0.3790temperature slope calibration	1.0000multiplexer offset coefficient	1.0000multiplexer slope coefficient	1.0000fibre end	0.00T internal ref (°C)	31.14T ext. ref 1 (°C)	3.64T ext. ref 2 (°C)	25.68length (m)	temperature (°C)	Stokes	anti-Stokes-747.200	-13.436	0.153	0.100
-746.185	200.870	0.082	0.128
-745.171	-200.000	-0.007	-0.440
-744.156	-73.980	-0.128	0.047
-743.142	34.889	0.122	-0.107
-742.127	-96.217	0.101	0.027
-741.112	13.283	0.254	0.199
-740.098	-135.597	-0.434	0.052
-739.083	134.820	-0.235	-0.308
-738.069	271.192	-0.186	0.331
-737.054	800.000	0.030	0.083
-736.039	-47.580	0.086	0.042
-735.025	-12.826	-0.141	-0.093
-734.010	38.450	-0.209	-0.188
-732.996	-200.000	-0.054	-0.352
-731.981	61.551	-0.244	0.245
-730.966	-66.884	-0.218	0.087
-729.952	-123.251	-0.090	0.015
-728.937	800.000	0.069	-0.281
-727.923	99.658	-0.109	-0.128
-726.908	-101.496	0.240	-0.059
-725.894	249.901	-0.140	-0.240
-724.879	-200.000	-0.007	0.192
-723.864	-78.481	0.222	0.077
-722.850	158.080	-0.116	0.162
-721.835	-200.000	0.049	0.227
-720.821	-89.014	-0.441	-0.132
-719.806	17.358	-0.280	-0.224
-718.791	253.705	-0.139	0.239
-717.777	800.000	-0.026	-0.093
-716.762	-83.850	0.198	-0.064
-715.748	-51.773	0.195	0.091
-714.733	223.360	0.050	0.082
-713.718	-200.000	0.034	-0.219
-712.704	800.000	-0.080	-0.315
-711.689	139.342	-0.204	0.270
-710.675	657.828	0.104	-0.270
-709.660	42.836	-0.079	-0.073
-708.645	130.619	0.099	-0.128
-707.631	154.922	-0.116	-0.161
-706.616	-80.675	0.108	0.036
-705.602	-200.000	0.026	-0.218
-704.587	798.917	0.085	-0.238
-703.572	91.033	0.022	0.025
-702.558	-200.000	0.019	0.182
-701.543	-55.095	-0.226	0.102
-700.529	451.537	0.068	0.152
-699.514	-198.041	-0.545	0.003
-698.499	-128.709	0.309	-0.044
-697.485	532.596	0.083	-0.198
-696.470	49.344	-0.155	-0.146
-695.456	800.000	0.038	0.155
-694.441	420.267	-0.156	0.336
-693.426	-200.000	-0.014	0.072
-692.412	10.323	-0.112	0.086
-691.397	-3.106	0.348	-0.244
-690.383	305.732	0.262	-0.491
-689.368	-73.832	-0.095	0.035
-688.354	-18.581	0.145	-0.091
-687.339	-39.641	-0.277	0.146
-686.324	-22.818	-0.211	0.128
-685.310	701.365	0.115	-0.305
-684.295	-51.698	-0.134	-0.063
-683.281	-6.688	0.247	-0.170
-682.266	-200.000	0.003	0.025
-681.251	-200.000	0.033	-0.168
-680.237	-200.000	0.053	-0.303
-679.222	-143.848	0.115	0.011
-678.208	250.451	0.166	-0.283
-677.193	800.000	0.137	0.518
-676.178	103.869	-0.220	0.260
-675.164	88.083	0.099	-0.110
-674.149	172.215	0.188	0.272
-673.135	476.892	-0.133	-0.303
-672.120	-200.000	-0.003	0.146
-671.105	35.481	0.244	0.216
-670.091	-128.207	0.215	0.031
-669.076	61.729	0.189	-0.190
-668.062	-28.358	-0.365	-0.212
-667.047	-80.149	0.497	0.167
-666.032	-200.000	0.010	-0.414
-665.018	-72.880	-0.302	0.112
-664.003	90.249	0.049	-0.055
-662.989	-126.904	-0.507	-0.075
-661.974	180.345	-0.079	0.117
-660.959	-200.000	0.035	-0.191
-659.945	50.138	-0.078	-0.074
-658.930	-44.689	-0.164	0.083
-657.916	-148.463	-0.184	0.015
-656.901	800.000	0.042	0.122
-655.886	46.921	0.123	-0.115
-654.872	177.506	-0.183	-0.268
-653.857	36.417	-0.171	0.151
-652.843	800.000	-0.093	-0.285
-651.828	-177.566	-0.218	0.005
-650.814	101.627	-0.308	0.362
-649.799	-200.000	-0.012	0.061
-648.784	-200.000	-0.012	0.200
-647.770	31.600	0.085	-0.074
-646.755	-31.559	-0.106	0.060
-645.741	7.627	0.105	0.079
-644.726	-64.490	-0.224	-0.091
-643.711	-31.332	0.149	-0.084
-642.697	-77.078	0.205	-0.072
-641.682	-40.405	-0.263	0.137
-640.668	243.276	-0.112	-0.189
-639.653	-60.783	-0.250	-0.107
-638.638	-20.970	-0.270	-0.166
-637.624	-17.025	-0.168	-0.107
-636.609	-75.573	0.500	0.179
-635.595	-158.886	-0.241	0.014
-634.580	-53.838	0.274	0.126
-633.565	-46.708	0.100	-0.049
-632.551	-200.000	0.023	-0.167
-631.536	-70.234	-0.003	-0.001
-630.522	-200.000	-0.007	0.065
-629.507	-119.066	0.441	-0.078
-628.492	-200.000	-0.027	0.215
-627.478	-200.000	-0.033	-0.247
-626.463	-112.872	0.136	0.027
-625.449	395.729	-0.043	0.090
-624.434	-200.000	0.079	-0.419
-623.419	-84.315	-0.318	0.101
-622.405	39.197	0.234	-0.210
-621.390	192.326	0.221	-0.336
-620.376	-200.000	0.002	-0.216
-619.361	-200.000	-0.014	-0.236
-618.346	-43.323	-0.269	0.137
-617.332	800.000	0.051	-0.169
-616.317	131.333	-0.047	0.061
-615.303	-200.000	-0.052	0.409
-614.288	408.422	-0.055	0.118
-613.273	-200.000	-0.022	0.164
-612.259	800.000	0.037	-0.139
-611.244	77.449	-0.311	0.332
-610.230	800.000	-0.062	0.194
-609.215	396.043	-0.040	0.084
-608.201	-103.972	-0.069	-0.016
-607.186	-200.000	0.003	0.429
-606.171	-20.126	-0.206	0.128
-605.157	-5.857	0.325	-0.223
-604.142	2.268	0.252	0.183
-603.128	-188.182	-0.487	0.006
-602.113	-191.926	-0.287	0.003
-601.098	800.000	-0.029	-0.090
-600.084	-81.754	0.292	-0.096
-599.069	-200.000	0.044	0.286
-598.055	91.421	-0.144	0.162
-597.040	-200.000	-0.009	0.222
-596.025	-30.222	-0.106	-0.061
-595.011	211.624	-0.262	-0.413
-593.996	800.000	-0.076	0.318
-592.982	481.722	0.127	0.289
-591.967	-160.075	-0.049	-0.003
-590.952	-109.192	-0.352	0.075
-589.938	-200.000	-0.053	0.240
-588.923	156.385	-0.041	-0.056
-587.909	-200.000	0.022	-0.132
-586.894	-200.000	-0.004	-0.280
-585.879	-177.592	0.226	-0.006
-584.865	483.072	0.081	-0.186
-583.850	800.000	-0.080	0.235
-582.836	-10.744	0.178	-0.118
-581.821	-75.056	-0.163	-0.059
-580.806	-63.045	0.047	0.020
-579.792	800.000	-0.029	-0.124
-578.777	80.896	0.109	0.118
-577.763	13.501	0.049	0.038
-576.748	-23.267	-0.134	0.081
-575.733	-126.546	-0.209	0.031
-574.719	-26.394	-0.091	-0.053
-573.704	487.965	0.178	-0.407
-572.690	-37.395	-0.112	0.060
-571.675	303.454	0.090	-0.166
-570.661	169.745	-0.105	0.151
-569.646	10.386	0.171	-0.130
-568.631	251.901	-0.059	0.101
-567.617	-113.325	0.243	0.048
-566.602	96.868	-0.119	0.137
-565.588	-127.444	-0.271	-0.040
-564.573	-54.005	0.050	-0.023
-563.558	106.534	0.189	-0.224
-562.544	-6.844	0.217	0.148
-561.529	800.000	0.047	-0.136
-560.515	101.180	0.340	-0.397
-559.500	800.000	0.016	-0.057
-558.485	128.648	-0.115	-0.147
-557.471	196.799	-0.079	-0.121
-556.456	283.092	-0.080	-0.144
-555.442	226.042	-0.118	0.191
-554.427	-200.000	-0.005	-0.021
-553.412	-19.197	0.271	0.169
-552.398	179.533	-0.068	-0.100
-551.383	-200.000	0.021	0.170
-550.369	598.663	0.105	0.261
-549.354	-48.204	-0.301	0.145
-548.339	526.012	-0.065	0.153
-547.325	74.733	0.199	0.210
-546.310	122.776	0.079	0.099
-545.296	-106.345	-0.194	-0.043
-544.281	-171.525	-0.469	-0.016
-543.266	-138.183	0.162	-0.018
-542.252	-62.657	-0.256	0.106
-541.237	-49.120	0.160	-0.076
-540.223	-200.000	0.009	-0.140
-539.208	-200.000	-0.053	-0.325
-538.193	722.579	-0.118	-0.314
-537.179	-49.830	-0.309	0.147
-536.164	125.671	-0.099	-0.125
-535.150	-60.564	-0.137	0.058
-534.135	-200.000	0.007	-0.062
-533.121	316.255	-0.241	-0.455
-532.106	-107.050	0.258	-0.057
-531.091	-200.000	-0.047	-0.211
-530.077	-58.833	-0.156	-0.067
-529.062	-107.653	0.254	-0.056
-528.048	-116.389	-0.152	0.028
-527.033	-75.715	0.074	-0.026
-526.018	-200.000	-0.013	-0.071
-525.004	-63.788	-0.109	-0.045
-523.989	-34.345	0.207	-0.114
-522.975	43.867	-0.014	0.013
-521.960	-21.565	-0.300	0.183
-520.945	-100.091	0.194	0.048
-519.931	-76.777	0.222	0.078
-518.916	110.729	-0.231	0.278
-517.902	-2.846	0.121	0.085
-516.887	138.295	0.198	-0.259
-515.872	-200.000	0.083	0.542
-514.858	-83.234	-0.376	-0.121
-513.843	-111.336	0.168	-0.034
-512.829	800.000	-0.017	0.063
-511.814	-2.218	-0.055	0.038
-510.799	-200.000	0.015	-0.143
-509.785	-107.629	0.281	-0.061
-508.770	666.208	-0.072	0.186
-507.756	-29.747	0.090	0.051
-506.741	-120.614	0.154	0.026
-505.726	-79.234	-0.237	-0.080
-504.712	-20.078	0.188	0.116
-503.697	-115.648	-0.191	-0.036
-502.683	-27.462	-0.128	-0.075
-501.668	-67.191	0.086	-0.034
-500.653	-37.212	-0.212	0.113
-499.639	-200.000	-0.036	0.183
-498.624	-200.000	0.000	0.120
-497.610	800.000	-0.025	0.093
-496.595	-159.032	0.188	0.011
-495.581	403.388	0.086	0.180
-494.566	-23.480	0.166	-0.100
-493.551	-60.590	-0.343	-0.146
-492.537	43.169	-0.061	0.055
-491.522	-200.000	0.017	-0.392
-490.508	-94.511	0.125	-0.034
-489.493	-95.070	0.199	-0.054
-488.478	0.763	0.057	0.041
-487.464	144.014	0.132	0.176
-486.449	-200.000	-0.014	0.140
-485.435	62.967	-0.220	-0.221
-484.420	76.006	0.163	0.172
-483.405	235.465	-0.028	0.047
-482.391	45.801	0.268	-0.247
-481.376	-164.085	-0.177	-0.008
-480.362	368.549	-0.056	0.113
-479.347	12.822	-0.155	-0.119
-478.332	800.000	-0.036	-0.112
-477.318	-5.077	0.071	0.049
-476.303	119.675	0.052	-0.065
-475.289	-200.000	0.040	0.446
-474.274	-96.500	-0.197	0.052
-473.259	774.121	0.012	0.033
-472.245	-102.564	0.071	0.017
-471.230	343.739	-0.151	0.295
-470.216	18.909	-0.014	-0.012
-469.201	-164.816	0.387	0.017
-468.186	-200.000	0.015	-0.136
-467.172	145.514	0.107	-0.143
-466.157	-55.066	-0.062	-0.028
-465.143	-200.000	0.009	0.053
-464.128	-41.448	-0.316	0.162
-463.113	87.235	0.272	-0.300
-462.099	-113.867	0.119	-0.023
-461.084	236.063	-0.014	0.022
-460.070	-29.209	-0.293	-0.168
-459.055	-157.880	-0.141	0.008
-458.040	-200.000	0.003	0.132
-457.026	380.687	-0.050	0.103
-456.011	-0.512	-0.202	-0.143
-454.997	139.783	0.192	-0.253
-453.982	800.000	-0.038	-0.163
-452.968	-178.149	-0.075	0.002
-451.953	-60.072	-0.062	0.026
-450.938	800.000	0.132	0.373
-449.924	56.622	0.064	0.062
-448.909	77.857	0.232	0.247
-447.895	158.908	0.169	-0.235
-446.880	404.612	0.159	-0.335
-445.865	-166.002	-0.258	0.011
-444.851	-200.000	-0.010	-0.101
-443.836	-146.630	-0.076	-0.007
-442.822	-160.459	0.203	-0.011
-441.807	12.363	-0.411	-0.316
-440.792	-142.440	0.384	-0.038
-439.778	467.151	0.134	0.300
-438.763	-200.000	-0.014	0.241
-437.749	354.733	-0.070	-0.140
-436.734	-112.167	-0.191	0.038
-435.719	-200.000	0.015	-0.154
-434.705	-86.413	-0.325	-0.100
-433.690	640.431	0.116	-0.296
-432.676	460.834	-0.061	0.135
-431.661	239.446	-0.040	-0.067
-430.646	-200.000	-0.040	0.452
-429.632	-80.625	-0.172	0.057
-428.617	81.719	0.100	0.108
-427.603	-87.586	0.331	-0.100
-426.588	313.766	0.066	0.124
-425.573	-200.000	-0.015	-0.238
-424.559	185.422	-0.205	0.304
-423.544	-179.824	-0.091	-0.002
-422.530	46.648	-0.314	-0.290
-421.515	260.215	-0.093	0.161
-420.500	-26.029	0.043	0.025
-419.486	800.000	-0.063	-0.181
-418.471	301.836	0.141	-0.261
-417.457	-27.828	0.327	-0.189
-416.442	72.957	0.233	-0.242
-415.428	485.522	-0.097	-0.219
-414.413	800.000	0.055	0.200
-413.398	80.425	-0.249	0.267
-412.384	-104.408	-0.187	0.043
-411.369	-82.626	0.273	-0.088
-410.355	-146.579	-0.134	0.012
-409.340	-105.613	0.139	0.031
-408.325	-200.000	-0.001	-0.030
-407.311	-65.043	-0.326	-0.131
-406.296	2.716	0.200	0.145
-405.282	-87.115	-0.310	-0.094
-404.267	-122.843	-0.305	0.049
-403.252	800.000	0.032	-0.088
-402.238	-8.063	0.084	-0.057
-401.223	-35.192	0.304	0.165
-400.209	202.843	-0.167	-0.256
-399.194	-200.000	-0.027	0.222
-398.179	-82.279	-0.279	0.090
-397.165	-87.357	0.268	-0.081
-396.150	100.931	0.210	0.243
-395.136	800.000	0.011	-0.031
-394.121	-1.569	-0.263	-0.185
-393.106	-28.903	-0.279	-0.160
-392.092	69.037	-0.195	0.200
-391.077	147.261	0.126	0.169
-390.063	-138.682	0.247	0.027
-389.048	-174.847	-0.382	-0.011
-388.033	145.118	0.200	-0.267
-387.019	800.000	-0.034	-0.117
-386.004	-99.640	-0.055	-0.014
-384.990	-189.070	0.111	0.001
-383.975	49.810	-0.044	0.042
-382.960	86.568	0.106	-0.116
-381.946	-174.770	0.264	0.007
-380.931	-200.000	-0.001	0.142
-379.917	-119.329	0.253	-0.044
-378.902	-95.055	-0.156	0.042
-377.888	186.647	0.122	0.181
-376.873	139.622	0.021	0.028
-375.858	-200.000	-0.012	0.140
-374.844	800.000	0.083	0.283
-373.829	6.400	0.215	0.159
-372.815	-44.276	0.205	0.102
-371.800	-1.582	-0.265	0.186
-370.785	509.363	0.109	0.252
-369.771	800.000	0.057	-0.203
-368.756	-182.891	-0.317	-0.006
-367.742	32.865	0.476	-0.410
-366.727	-200.000	0.063	-0.313
-365.712	159.643	0.053	0.073
-364.698	87.043	-0.052	-0.057
-363.683	35.744	-0.189	0.166
-362.669	800.000	0.046	-0.181
-361.654	426.922	0.068	0.145
-360.639	448.564	-0.066	0.144
-359.625	-200.000	-0.039	-0.287
-358.610	-84.003	0.065	0.021
-357.596	51.245	-0.146	0.138
-356.581	81.152	-0.121	0.130
-355.566	800.000	-0.013	-0.047
-354.552	61.996	-0.157	-0.156
-353.537	-81.130	0.271	-0.089
-352.523	16.977	0.065	0.051
-351.508	-14.353	-0.148	0.095
-350.493	-200.000	-0.015	0.145
-349.479	-200.000	-0.033	0.401
-348.464	97.785	-0.071	0.081
-347.450	-35.819	-0.347	-0.187
-346.435	56.185	0.211	0.204
-345.420	800.000	-0.086	-0.292
-344.406	-190.222	-0.056	-0.001
-343.391	22.850	-0.128	-0.105
-342.377	-200.000	0.280	0.001
-341.362	75.949	0.220	-0.231
-340.348	800.000	0.082	0.261
-339.333	83.090	0.173	0.187
-338.318	800.000	-0.088	-0.257
-337.304	-161.621	0.222	-0.011
-336.289	304.188	-0.160	0.295
-335.275	531.584	-0.067	-0.158
-334.260	506.312	0.046	-0.106
-333.245	169.610	-0.222	-0.316
-332.231	424.175	-0.074	-0.158
-331.216	301.532	-0.197	0.361
-330.202	-200.000	0.006	-0.094
-329.187	-123.356	-0.097	-0.015
-328.172	36.251	-0.129	0.113
-327.158	-87.345	-0.182	0.055
-326.143	-200.000	0.000	0.067
-325.129	-200.000	0.025	-0.109
-324.114	-40.603	0.263	0.135
-323.099	-154.977	0.268	-0.018
-322.085	-1.287	0.183	0.128
-321.070	209.175	-0.087	-0.136
-320.056	557.448	0.085	-0.203
-319.041	642.979	-0.079	0.199
-318.026	-85.529	0.292	-0.090
-317.012	22.303	-0.106	-0.086
-315.997	-80.410	-0.313	-0.104
-314.983	49.781	0.117	-0.109
-313.968	148.036	0.095	-0.128
-312.953	-75.609	0.165	-0.058
-311.939	-16.846	-0.221	0.139
-310.924	133.567	0.120	-0.154
-309.910	17.493	0.241	0.190
-308.895	-91.928	0.525	0.148
-307.880	76.575	-0.100	0.106
-306.866	136.384	-0.099	0.128
-305.851	465.919	-0.112	-0.248
-304.837	-77.842	-0.349	-0.120
-303.822	243.441	-0.074	0.123
-302.807	24.087	-0.111	-0.091
-301.793	800.000	0.036	0.146
-300.778	217.796	-0.121	0.191
-299.764	-131.421	-0.274	-0.036
-298.749	-110.268	0.147	-0.030
-297.735	800.000	0.020	0.071
-296.720	-131.240	0.105	-0.014
-295.705	-124.858	0.209	-0.032
-294.691	204.464	0.058	0.088
-293.676	203.693	-0.037	-0.056
-292.662	-200.000	0.022	0.332
-291.647	105.527	-0.028	0.033
-290.632	762.207	0.097	0.262
-289.618	575.475	-0.046	-0.112
-288.603	-99.356	0.389	0.097
-287.589	4.510	0.197	-0.144
-286.574	90.933	-0.248	-0.275
-285.559	-163.854	0.246	0.011
-284.545	263.963	-0.136	0.235
-283.530	27.572	0.049	-0.041
-282.516	-64.841	0.143	0.057
-281.501	-97.046	-0.292	-0.076
-280.486	398.390	0.107	0.222
-279.472	2.511	0.272	0.196
-278.457	207.448	0.087	-0.134
-277.443	-9.231	-0.072	-0.047
-276.428	-158.117	-0.089	0.005
-275.413	149.562	-0.097	0.131
-274.399	131.460	0.150	-0.191
-273.384	800.000	0.076	-0.303
-272.370	-93.935	0.306	-0.083
-271.355	-3.938	-0.215	-0.148
-270.340	561.189	0.055	-0.132
-269.326	361.848	0.043	-0.086
-268.311	-200.000	0.020	-0.206
-267.297	-118.277	0.367	-0.065
-266.282	212.394	0.111	-0.174
-265.267	800.000	-0.022	0.074
-264.253	-200.000	-0.007	-0.063
-263.238	800.000	0.044	0.174
-262.224	-73.932	-0.306	0.110
-261.209	-200.000	-0.031	0.147
-260.195	-200.000	-0.010	0.114
-259.180	-66.257	0.132	-0.052
-258.165	174.131	-0.147	0.210
-257.151	460.607	0.019	-0.042
-256.136	98.697	-0.211	0.241
-255.122	39.082	0.129	-0.114
-254.107	93.390	-0.236	-0.264
-253.092	209.047	-0.076	0.118
-252.078	-200.000	-0.003	0.163
-251.063	-200.000	0.018	0.082
-250.049	-200.000	0.008	-0.153
-249.034	-105.043	-0.182	-0.041
-248.019	109.512	-0.241	0.286
-247.005	-25.564	0.098	0.057
-245.990	-40.169	0.155	-0.080
-244.976	-110.103	0.320	-0.066
-243.961	-29.514	-0.034	0.019
-242.946	-77.405	-0.195	0.067
-241.932	-123.355	0.343	0.054
-240.917	-69.865	-0.207	0.078
-239.903	-200.000	0.016	-0.141
-238.888	257.175	0.086	-0.147
-237.873	-86.830	0.202	-0.061
-236.859	-200.000	0.022	-0.139
-235.844	-200.000	-0.063	-0.275
-234.830	27.534	-0.133	0.110
-233.815	-58.734	-0.022	-0.010
-232.800	172.432	0.105	0.150
-231.786	-166.887	0.124	-0.005
-230.771	54.371	0.196	-0.187
-229.757	-200.000	0.021	0.254
-228.742	19.602	-0.115	0.091
-227.727	-25.065	-0.344	-0.202
-226.713	-200.000	0.016	0.086
-225.698	800.000	0.049	-0.179
-224.684	-26.666	-0.180	-0.104
-223.669	-13.429	0.374	-0.240
-222.655	-200.000	0.001	0.140
-221.640	-134.989	-0.305	0.036
-220.625	-33.770	-0.163	0.089
-219.611	-40.075	0.203	0.105
-218.596	-164.490	0.238	-0.011
-217.582	-200.000	0.029	-0.158
-216.567	41.579	0.164	-0.147
-215.552	44.268	-0.227	0.206
-214.538	-12.651	-0.144	0.093
-213.523	176.615	-0.094	-0.135
-212.509	-126.538	0.302	-0.044
-211.494	247.153	-0.119	-0.199
-210.479	-200.000	-0.025	0.136
-209.465	112.674	-0.221	-0.264
-208.450	-200.000	0.037	0.291
-207.436	-200.000	-0.042	0.224
-206.421	194.918	0.154	0.232
-205.406	47.235	0.301	-0.277
-204.392	324.956	-0.153	-0.289
-203.377	81.899	0.237	-0.254
-202.363	-200.000	-0.085	0.387
-201.348	281.636	0.027	0.048
-200.333	800.000	-0.002	-0.008
-199.319	85.923	-0.199	-0.216
-198.304	-200.000	-0.008	0.184
-197.290	-111.755	0.109	0.022
-196.275	-121.163	0.401	-0.066
-195.260	727.196	0.040	0.105
-194.246	71.273	0.100	-0.102
-193.231	-159.331	-0.153	0.008
-192.217	-146.205	0.183	-0.016
-191.202	29.436	0.268	0.225
-190.187	-61.536	-0.144	-0.060
-189.173	-51.711	-0.486	0.224
-188.158	-133.114	0.513	-0.064
-187.144	261.775	-0.063	-0.107
-186.129	269.850	0.129	0.224
-185.114	-41.738	0.143	0.072
-184.100	-140.758	-0.140	-0.014
-183.085	167.191	0.171	-0.240
-182.071	-200.000	-0.008	0.324
-181.056	-200.000	-0.013	-0.214
-180.042	172.300	-0.042	-0.059
-179.027	-200.000	-0.013	0.286
-178.012	-6.926	-0.100	0.067
-176.998	800.000	-0.105	-0.308
-175.983	-166.306	-0.179	-0.007
-174.969	21.082	-0.013	-0.010
-173.954	-73.908	-0.077	0.028
-172.939	39.439	0.385	0.340
-171.925	-165.735	0.334	0.014
-170.910	-70.508	-0.193	0.072
-169.896	607.302	-0.072	0.177
-168.881	-200.000	0.007	-0.207
-167.866	-200.000	-0.011	-0.050
-166.852	-50.789	0.211	0.098
-165.837	220.711	-0.031	-0.049
-164.823	-172.894	-0.131	-0.004
-163.808	-32.455	-0.127	-0.070
-162.793	67.174	0.231	0.233
-161.779	-75.578	-0.110	-0.038
-160.764	682.381	-0.077	-0.198
-159.750	51.961	-0.136	-0.128
-158.735	215.157	-0.015	-0.023
-157.720	-200.000	-0.041	0.266
-156.706	-22.952	-0.058	-0.035
-155.691	-91.021	-0.407	-0.115
-154.677	-200.000	0.002	-0.386
-153.662	-34.193	-0.018	0.010
-152.647	-14.921	0.234	0.148
-151.633	-200.000	0.015	0.208
-150.618	375.214	-0.074	-0.149
-149.604	1.704	0.238	0.169
-148.589	-124.419	0.345	0.053
-147.574	289.435	0.136	-0.243
-146.560	156.567	0.047	0.063
-145.545	-154.097	0.042	0.003
-144.531	-66.479	0.233	0.091
-143.516	-51.729	0.383	-0.176
-142.502	-200.000	0.016	-0.145
-141.487	38.267	0.134	0.118
-140.472	800.000	0.017	-0.068
-139.458	223.713	-0.241	0.383
-138.443	-200.000	0.024	-0.110
-137.429	-30.304	0.255	0.143
-136.414	-139.502	-0.118	0.012
-135.399	561.338	0.137	-0.326
-134.385	26.379	-0.055	-0.045
-133.370	101.467	-0.146	-0.167
-132.356	800.000	0.104	-0.395
-131.341	-200.000	0.054	-0.283
-130.326	333.619	0.027	0.052
-129.312	-48.901	0.198	0.093
-128.297	-200.000	0.000	-0.280
-127.283	-116.542	0.176	-0.032
-126.268	30.566	0.085	0.071
-125.253	50.404	0.105	0.098
-124.239	12.628	0.065	-0.050
-123.224	66.634	0.172	0.173
-122.210	-164.288	0.401	-0.018
-121.195	-150.399	0.179	-0.014
-120.180	-83.781	-0.174	-0.055
-119.166	414.552	-0.115	0.241
-118.151	-52.333	0.162	0.074
-117.137	37.740	-0.182	-0.159
-116.122	-177.432	0.319	-0.008
-115.107	-42.541	-0.130	0.065
-114.093	431.414	-0.052	-0.112
-113.078	-200.000	0.014	0.261
-112.064	207.278	0.095	0.146
-111.049	-177.199	0.260	0.006
-110.034	-200.000	-0.047	-0.266
-109.020	-200.000	-0.013	-0.270
-108.005	-44.788	-0.349	0.171
-106.991	219.816	-0.184	0.290
-105.976	-84.686	-0.224	-0.069
-104.962	-200.000	-0.014	0.076
-103.947	-200.000	0.036	0.204
-102.932	-200.000	-0.159	0.001
-101.918	67.618	-0.337	-0.339
-100.903	800.000	0.047	-0.141
-99.889	-57.057	0.131	-0.057
-98.874	-41.605	0.150	-0.076
-97.859	-200.000	-0.008	-0.128
-96.845	-200.000	-0.001	-0.070
-95.830	-121.232	-0.287	-0.047
-94.816	-4.389	0.342	0.233
-93.801	40.419	0.128	0.114
-92.786	-200.000	-0.011	-0.195
-91.772	-117.965	0.394	0.069
-90.757	-178.457	-0.235	-0.005
-89.743	-200.000	-0.002	-0.163
-88.728	-139.531	0.114	0.012
-87.713	-200.000	0.086	-0.411
-86.699	800.000	-0.053	0.148
-85.684	800.000	0.067	0.198
-84.670	800.000	0.053	-0.149
-83.655	7.969	-0.198	0.146
-82.640	-85.421	-0.152	0.046
-81.626	52.994	-0.201	-0.189
-80.611	-40.661	-0.087	-0.044
-79.597	157.225	0.120	-0.163
-78.582	-84.928	-0.407	0.126
-77.567	18.642	0.025	-0.019
-76.553	376.481	0.042	0.084
-75.538	6.370	0.091	0.067
-74.524	-200.000	0.006	-0.112
-73.509	91.351	-0.180	-0.199
-72.494	560.498	0.060	-0.143
-71.480	-13.592	-0.245	-0.156
-70.465	153.671	0.156	0.210
-69.451	69.813	-0.093	-0.095
-68.436	-40.853	0.113	0.058
-67.422	82.362	-0.068	0.072
-66.407	568.124	-0.034	-0.082
-65.392	-138.878	0.271	-0.029
-64.378	-122.763	0.114	-0.018
-63.363	-83.486	0.262	0.083
-62.349	-25.864	-0.044	0.026
-61.334	95.879	-0.896	-1.006
-60.319	-130.408	0.666	-0.089
-59.305	-200.000	-0.252	-1.507
-58.290	158.806	0.933	1.274
-57.276	565.332	0.574	1.369
-56.261	-200.000	100.790	602.126
-55.246	591.492	1402.489	3401.574
-54.232	194.291	2579.715	3841.886
-53.217	117.521	2129.740	2574.459
-52.203	43.014	1586.291	1421.439
-51.188	34.586	1323.073	1135.651
-50.173	31.510	1281.178	1081.889
-49.159	54.601	1331.547	1261.096
-48.144	56.257	1348.662	1287.011
-47.130	34.794	1305.830	1121.894
-46.115	31.218	1287.749	1085.567
-45.100	31.163	1282.370	1080.671
-44.086	31.075	1280.637	1078.661
-43.071	31.009	1278.291	1076.259
-42.057	30.963	1276.254	1074.237
-41.042	31.093	1274.348	1073.337
-40.027	31.060	1273.028	1071.995
-39.013	31.013	1271.170	1070.118
-37.998	31.167	1268.976	1069.112
-36.984	31.164	1267.710	1067.982
-35.969	31.278	1265.793	1066.976
-34.954	31.252	1264.136	1065.390
-33.940	31.281	1262.607	1064.224
-32.925	31.221	1261.171	1062.629
-31.911	31.177	1260.551	1061.815
-30.896	31.309	1258.728	1060.990
-29.881	31.288	1257.348	1059.660
-28.867	31.239	1256.338	1058.491
-27.852	31.203	1254.832	1056.977
-26.838	31.283	1253.275	1056.074
-25.823	31.216	1252.155	1054.712
-24.809	31.292	1250.247	1053.490
-23.794	31.317	1249.162	1052.675
-22.779	31.181	1248.257	1051.103
-21.765	31.180	1246.915	1049.928
-20.750	31.108	1246.102	1048.796
-19.736	31.130	1244.111	1047.206
-18.721	31.198	1242.548	1046.229
-17.706	31.106	1241.985	1045.197
-16.692	31.130	1241.027	1044.482
-15.677	31.092	1239.664	1043.085
-14.663	31.003	1238.655	1041.694
-13.648	30.959	1237.810	1040.699
-12.633	31.028	1236.834	1040.218
-11.619	31.058	1235.660	1039.361
-10.604	30.966	1234.781	1038.065
-9.590	30.999	1234.355	1037.848
-8.575	31.053	1233.358	1037.270
-7.560	31.085	1232.169	1036.409
-6.546	31.061	1231.347	1035.541
-5.531	30.971	1230.385	1034.194
-4.517	30.988	1229.617	1033.601
-3.502	31.080	1228.646	1033.253
-2.487	31.069	1227.749	1032.394
-1.473	31.041	1223.790	1028.870
-0.458	29.387	1208.679	1007.104
0.556	27.478	1191.454	969.393
1.571	23.700	1195.512	952.393
2.586	22.586	1210.685	958.338
3.600	22.015	1199.419	946.263
4.615	16.490	1128.935	862.468
5.629	7.887	1055.251	764.920
6.644	4.027	1035.889	732.582
7.659	3.718	1033.382	729.285
8.673	3.468	1031.896	726.991
9.688	3.368	1031.008	725.833
10.702	3.846	1029.208	726.745
11.717	9.414	1036.890	758.411
12.731	18.437	1049.182	810.187
13.746	23.366	1055.210	838.146
14.761	24.104	1056.028	842.214
15.775	23.689	1054.650	839.083
16.790	22.992	1053.476	834.783
17.804	22.711	1052.212	832.383
18.819	22.648	1051.656	831.570
19.834	22.726	1051.138	831.453
20.848	22.761	1050.972	831.418
21.863	22.678	1050.426	830.520
22.877	22.489	1049.267	828.641
23.892	22.337	1048.590	827.320
24.907	22.371	1047.505	826.547
25.921	22.397	1046.336	825.676
26.936	22.332	1044.893	824.160
27.950	22.225	1043.938	822.834
28.965	22.364	1042.521	822.292
29.980	22.450	1041.392	821.731
30.994	22.532	1040.508	821.341
32.009	22.563	1039.426	820.557
33.023	22.598	1038.380	819.821
34.038	22.442	1037.753	818.532
35.053	22.324	1036.964	817.289
36.067	22.320	1035.607	816.126
37.082	22.295	1034.787	815.295
38.096	22.499	1034.352	815.822
39.111	22.458	1033.501	814.889
40.126	22.396	1032.124	813.448
41.140	22.112	1030.397	810.700
42.155	21.834	1028.864	808.144
43.169	21.683	1028.484	807.079
44.184	21.701	1027.504	806.319
45.199	21.729	1026.260	805.400
46.213	21.874	1026.338	806.057
47.228	22.396	1025.381	807.632
48.242	22.504	1025.261	807.959
49.257	22.647	1023.792	807.388
50.271	22.684	1023.406	807.179
51.286	22.681	1022.679	806.523
52.301	22.630	1021.765	805.494
53.315	22.498	1020.605	803.908
54.330	22.337	1019.944	802.580
55.344	22.188	1018.824	800.949
56.359	22.048	1018.290	799.823
57.374	22.021	1017.468	798.982
58.388	21.895	1016.232	797.368
59.403	21.827	1015.121	796.118
60.417	21.853	1014.900	795.994
61.432	21.829	1014.165	795.237
62.447	21.707	1013.297	793.931
63.461	21.773	1012.285	793.366
64.476	21.631	1011.464	792.011
65.490	21.585	1010.270	790.799
66.505	21.713	1009.776	790.921
67.520	21.691	1009.622	790.630
68.534	21.586	1008.039	788.847
69.549	21.568	1007.471	788.253
70.563	21.466	1006.588	787.034
71.578	21.083	1005.963	784.750
72.593	21.006	1004.596	783.269
73.607	21.088	1004.031	783.128
74.622	21.184	1003.997	783.466
75.636	21.303	1002.746	782.953
76.651	21.319	1002.601	782.841
77.666	21.272	1002.284	782.313
78.680	21.283	1001.382	781.591
79.695	21.287	1000.684	780.993
80.709	21.447	1000.481	781.481
81.724	21.643	999.500	781.520
82.739	21.903	998.909	782.151
83.753	22.413	998.875	784.326
84.768	22.924	997.859	785.733
85.782	23.004	997.900	786.050
86.797	22.925	996.914	784.855
87.812	22.828	995.562	783.289
88.826	22.734	994.783	782.191
89.841	22.707	994.174	781.523
90.855	22.726	993.362	780.900
91.870	22.826	992.518	780.607
92.884	22.866	991.352	779.797
93.899	22.716	990.559	778.446
94.914	22.821	989.913	778.331
95.928	22.709	989.088	777.119
96.943	22.538	987.576	775.111
97.957	22.622	986.676	774.706
98.972	22.705	985.802	774.313
99.987	22.744	984.873	773.687
101.001	22.677	983.654	772.370
102.016	22.623	983.168	771.684
103.030	22.725	982.558	771.581
104.045	22.802	981.800	771.254
105.060	22.641	980.922	769.795
106.074	22.258	979.691	767.091
107.089	22.137	978.818	765.812
108.103	21.937	977.595	763.915
109.118	21.717	976.518	762.050
110.133	21.409	975.520	759.865
111.147	21.333	974.751	758.869
112.162	21.556	973.857	759.072
113.176	21.712	973.244	759.204
114.191	21.804	973.100	759.423
115.206	21.647	972.398	758.128
116.220	21.719	971.264	757.487
117.235	21.541	970.362	755.951
118.249	21.461	969.164	754.603
119.264	21.200	968.927	753.225
120.279	21.227	967.982	752.541
121.293	21.227	966.820	751.572
122.308	21.062	966.197	750.311
123.322	21.177	964.452	749.385
124.337	21.084	963.728	748.358
125.352	21.140	962.704	747.735
126.366	21.105	961.905	746.897
127.381	21.315	961.535	747.445
128.395	21.382	960.859	747.136
129.410	21.412	959.813	746.387
130.424	21.643	959.018	746.688
131.439	21.971	958.251	747.421
132.454	21.881	958.048	746.813
133.468	21.847	956.686	745.543
134.483	21.895	955.768	744.963
135.497	21.869	955.277	744.403
136.512	22.029	954.320	744.272
137.527	21.946	953.775	743.431
138.541	21.825	953.478	742.619
139.556	22.104	952.879	743.266
140.570	22.266	952.540	743.621
141.585	22.723	951.134	744.386
142.600	22.750	950.845	744.209
143.614	22.867	949.498	743.582
144.629	23.023	948.928	743.724
145.643	22.730	947.988	741.694
146.658	22.390	946.482	739.019
147.673	22.100	945.564	737.023
148.687	21.976	944.637	735.715
149.702	21.927	943.422	734.498
150.716	21.951	942.654	733.936
151.731	21.992	942.387	733.834
152.746	22.075	941.724	733.599
153.760	22.179	941.023	733.425
154.775	22.385	940.296	733.652
155.789	22.569	939.454	733.696
156.804	22.402	938.783	732.412
157.819	22.308	938.819	731.983
158.833	22.584	937.880	732.334
159.848	22.850	936.976	732.668
160.862	22.696	935.725	730.984
161.877	22.198	934.237	727.697
162.892	21.899	932.977	725.416
163.906	21.878	932.163	724.631
164.921	21.837	931.112	723.582
165.935	21.924	930.637	723.508
166.950	22.146	929.650	723.592
167.964	22.129	929.126	723.046
168.979	21.917	928.070	721.292
169.994	22.055	926.710	720.737
171.008	22.235	926.377	721.152
172.023	22.592	926.060	722.303
173.037	22.626	925.646	722.059
174.052	22.395	924.294	719.996
175.067	21.942	923.545	717.496
176.081	21.652	922.526	715.454
177.096	21.624	921.962	714.842
178.110	21.638	921.428	714.422
179.125	21.711	920.804	714.171
180.140	21.943	920.660	714.940
181.154	22.234	920.619	716.030
182.169	22.396	920.400	716.457
183.183	22.452	919.450	715.882
184.198	22.413	918.827	715.173
185.213	22.398	918.331	714.664
186.227	22.283	917.719	713.659
187.242	22.748	916.769	714.743
188.256	22.775	916.696	714.729
189.271	22.744	915.838	713.870
190.286	22.325	914.852	711.348
191.300	21.821	913.364	708.092
192.315	21.517	912.520	706.148
193.329	21.701	911.967	706.401
194.344	21.837	911.961	706.881
195.359	22.035	911.278	707.087
196.373	22.088	911.303	707.258
197.388	22.550	910.859	708.706
198.402	22.895	910.131	709.466
199.417	23.013	909.783	709.603
200.432	23.026	909.625	709.473
201.446	23.200	909.304	709.855
202.461	23.288	908.872	709.810
203.475	22.852	908.002	707.321
204.490	22.418	906.698	704.504
205.504	22.386	905.948	703.732
206.519	22.380	905.361	703.190
207.534	22.272	904.789	702.252
208.548	22.465	904.176	702.483
209.563	22.563	903.129	701.999
210.577	22.486	902.598	701.219
211.592	22.923	902.789	703.046
212.607	23.092	901.675	702.784
213.621	22.983	900.792	701.603
214.636	22.836	900.080	700.401
215.650	22.839	899.578	699.963
216.665	22.792	899.110	699.350
217.680	22.924	898.641	699.445
218.694	22.931	897.908	698.840
219.709	22.826	897.006	697.664
220.723	22.609	896.661	696.474
221.738	22.558	895.664	695.436
222.753	22.674	894.762	695.132
223.767	22.816	894.534	695.454
224.782	23.081	894.196	696.171
225.796	23.158	893.943	696.218
226.811	22.738	893.138	693.876
227.826	22.599	892.224	692.559
228.840	22.483	891.545	691.516
229.855	22.382	890.658	690.370
230.869	22.409	889.764	689.723
231.884	22.393	889.060	689.053
232.899	22.528	888.218	688.869
233.913	22.255	887.670	687.316
234.928	22.004	887.306	685.992
235.942	21.957	886.602	685.203
236.957	21.913	885.853	684.392
237.972	22.074	885.377	684.591
238.986	22.029	884.775	683.889
240.001	22.138	883.868	683.554
241.015	22.076	883.879	683.257
242.030	22.329	883.208	683.662
243.045	22.313	883.007	683.385
244.059	22.442	882.167	683.177
245.074	22.591	881.847	683.443
246.088	22.596	881.707	683.296
247.103	22.758	881.184	683.456
248.117	23.204	881.152	685.097
249.132	23.594	880.860	686.319
250.147	23.926	880.675	687.399
251.161	24.085	879.496	687.031
252.176	23.921	879.491	686.333
253.190	24.075	879.008	686.488
254.205	24.082	878.115	685.758
255.220	23.882	877.409	684.377
256.234	23.776	876.881	683.497
257.249	23.689	876.055	682.459
258.263	23.607	875.361	681.539
259.278	23.620	874.499	680.859
260.293	23.833	873.845	681.107
261.307	23.850	873.731	681.024
262.322	23.788	873.475	680.524
263.336	23.675	872.400	679.197
264.351	23.685	871.314	678.327
265.366	23.807	871.496	678.874
266.380	23.910	870.548	678.471
267.395	23.914	869.620	677.702
268.409	23.672	869.145	676.352
269.424	23.466	868.449	674.964
270.439	23.351	867.882	674.026
271.453	23.336	866.787	673.058
272.468	23.355	866.541	672.883
273.482	23.492	865.828	672.788
274.497	23.347	865.360	671.814
275.512	23.481	864.494	671.590
276.526	23.505	864.651	671.744
277.541	23.570	864.433	671.762
278.555	23.745	864.126	672.126
279.570	24.015	863.678	672.738
280.585	23.950	862.370	671.414
281.599	23.541	861.452	669.100
282.614	23.326	860.635	667.595
283.628	23.284	859.838	666.761
284.643	23.337	859.514	666.648
285.657	23.447	858.691	666.365
286.672	23.490	858.026	665.950
287.687	23.655	857.634	666.207
288.701	23.636	856.934	665.534
289.716	23.704	856.287	665.227
290.730	23.508	856.240	664.396
291.745	23.594	855.530	664.109
292.760	23.673	855.278	664.152
293.774	23.969	855.119	665.074
294.789	23.921	854.251	664.162
295.803	23.760	853.331	662.787
296.818	23.527	852.395	661.133
297.833	23.389	851.735	660.047
298.847	23.602	851.048	660.251
299.862	23.617	850.786	660.044
300.876	23.895	850.509	660.804
301.891	24.189	850.067	661.493
302.906	24.041	850.460	661.193
303.920	24.311	849.699	661.544
304.935	24.489	849.071	661.656
305.949	24.238	848.209	659.998
306.964	23.904	847.327	658.015
307.979	23.792	846.704	657.059
308.993	24.068	846.661	657.987
310.008	24.128	845.937	657.589
311.022	24.041	844.793	656.323
312.037	23.781	844.513	655.088
313.052	23.494	843.810	653.425
314.066	23.248	842.716	651.616
315.081	23.202	842.281	651.052
316.095	23.320	842.111	651.298
317.110	23.306	841.324	650.579
318.125	23.118	840.702	649.350
319.139	23.003	839.914	648.262
320.154	22.923	839.950	647.941
321.168	23.155	839.237	648.182
322.183	23.342	838.888	648.541
323.197	23.393	838.414	648.302
324.212	23.426	837.767	647.866
325.227	23.365	837.472	647.357
326.241	23.234	836.773	646.281
327.256	23.211	836.001	645.545
328.270	23.177	835.173	644.725
329.285	23.011	834.803	643.777
330.300	23.101	834.166	643.558
331.314	23.282	833.637	643.751
332.329	23.582	833.207	644.452
333.343	23.726	833.681	645.283
334.358	23.851	833.244	645.340
335.373	23.809	832.434	644.506
336.387	23.820	832.537	644.567
337.402	24.037	832.641	645.378
338.416	24.267	832.376	645.948
339.431	24.541	831.736	646.385
340.446	24.727	831.648	646.933
341.460	24.610	831.346	646.218
342.475	24.604	831.119	645.965
343.489	24.772	830.698	646.186
344.504	24.988	829.970	646.343
345.519	24.965	829.589	645.906
346.533	24.756	828.887	644.551
347.548	24.428	828.220	642.790
348.562	24.248	827.094	641.212
349.577	24.064	826.386	639.947
350.592	23.763	826.007	638.516
351.606	23.805	825.068	637.885
352.621	23.847	824.490	637.532
353.635	23.919	823.983	637.339
354.650	23.874	823.426	636.690
355.665	24.043	822.513	636.533
356.679	24.110	822.535	636.733
357.694	24.203	821.494	636.203
358.708	24.034	820.766	634.982
359.723	24.063	820.327	634.687
360.738	23.951	819.834	633.852
361.752	24.058	820.092	634.376
362.767	24.600	818.834	635.277
363.781	24.640	818.986	635.478
364.796	24.872	818.366	635.765
365.810	25.018	817.892	635.859
366.825	24.953	817.754	635.466
367.840	24.735	817.202	634.208
368.854	24.548	816.216	632.725
369.869	24.424	815.873	631.961
370.883	24.505	815.367	631.800
371.898	24.716	815.112	632.295
372.913	24.887	814.588	632.435
373.927	24.719	814.044	631.365
374.942	24.631	813.905	630.889
375.956	24.754	813.411	630.887
376.971	25.029	813.137	631.586
377.986	25.063	813.046	631.579
379.000	25.125	812.218	631.101
380.015	24.912	811.543	629.768
381.029	24.812	811.322	629.190
382.044	25.096	810.258	629.309
383.059	25.173	809.699	629.087
384.073	25.039	808.925	627.961
385.088	24.615	808.454	626.054
386.102	24.286	807.636	624.215
387.117	24.252	806.996	623.544
388.132	24.249	806.241	622.896
389.146	24.323	806.194	623.062
390.161	24.634	806.237	624.128
391.175	24.891	805.835	624.659
392.190	24.698	804.940	623.236
393.205	24.332	803.867	621.074
394.219	24.166	803.443	620.117
395.234	23.949	803.065	619.012
396.248	24.049	802.404	618.799
397.263	24.124	802.029	618.713
398.278	24.049	801.696	618.141
399.292	23.820	801.182	616.896
400.307	23.855	800.428	616.383
401.321	23.914	799.966	616.177
402.336	24.199	799.992	617.128
403.350	24.475	799.937	617.989
404.365	24.838	800.003	619.242
405.380	25.101	799.278	619.535
406.394	25.381	798.817	620.089
407.409	25.420	798.488	619.911
408.423	25.358	798.629	619.754
409.438	25.363	798.197	619.379
410.453	25.368	797.279	618.629
411.467	25.462	796.718	618.465
412.482	25.462	796.409	618.169
413.496	25.672	796.091	618.591
414.511	25.561	795.609	617.780
415.526	25.257	795.439	616.547
416.540	25.257	794.550	615.805
417.555	25.144	794.109	615.020
418.569	25.265	793.919	615.235
419.584	25.320	793.278	614.872
420.599	25.379	792.584	614.481
421.613	163.167	1369.784	1794.935
422.628	141.499	1453.882	1795.052
