DTS Sentinel unit serial number:	SN413079Multiplexer serial number:	ORYXHardware model number:	OX4-SRSoftware version number:	ORYX F/W v4.00 Oryx Data Collector v3.7.2.0data status	okinstallation	princeton_trtdifferential loss correction	single-endedforward channel	channel 1reverse channel	N/Adate	2019/09/13time	16:46:35forward acquisition time	60.00reverse acquisition time	0.00gamma	496.2192k internal	0.2306k external	0.2306temperature offset calibration	1.0160default loss term (dB/km)	0.3790temperature slope calibration	1.0000multiplexer offset coefficient	1.0000multiplexer slope coefficient	1.0000fibre end	0.00T internal ref (°C)	34.94T ext. ref 1 (°C)	4.91T ext. ref 2 (°C)	29.86length (m)	temperature (°C)	Stokes	anti-Stokes-747.200	-61.164	0.277	-0.119
-746.185	-200.000	-0.024	0.262
-745.171	99.577	-0.173	0.204
-744.156	4.452	0.255	0.190
-743.142	267.619	-0.193	-0.343
-742.127	187.858	0.048	0.073
-741.112	356.570	0.099	-0.201
-740.098	-200.000	-0.002	-0.118
-739.083	-67.184	0.122	0.049
-738.069	-17.916	-0.200	0.127
-737.054	800.000	-0.038	-0.122
-736.039	-85.713	-0.261	0.082
-735.025	-12.900	0.128	-0.084
-734.010	800.000	-0.085	-0.310
-732.996	49.305	-0.286	-0.274
-731.981	58.951	0.334	-0.334
-730.966	-76.052	-0.066	0.024
-729.952	109.297	-0.212	-0.258
-728.937	-147.136	-0.126	0.011
-727.923	-200.000	-0.030	-0.226
-726.908	80.185	-0.190	0.208
-725.894	48.330	0.169	0.161
-724.879	-143.424	-0.228	0.022
-723.864	452.231	0.069	-0.156
-722.850	-161.074	-0.077	-0.004
-721.835	38.337	0.258	0.234
-720.821	170.071	-0.105	0.153
-719.806	-15.211	0.274	-0.178
-718.791	265.383	-0.137	-0.242
-717.777	-58.590	0.070	0.031
-716.762	127.640	-0.329	-0.425
-715.748	-200.000	0.027	-0.203
-714.733	-200.000	0.017	0.368
-713.718	206.014	0.071	0.112
-712.704	-22.265	-0.190	0.117
-711.689	-200.000	0.007	-0.093
-710.675	440.694	0.117	-0.261
-709.660	800.000	-0.022	-0.096
-708.645	30.633	-0.219	-0.190
-707.631	-200.000	0.444	0.001
-706.616	130.373	-0.113	0.147
-705.602	37.008	-0.043	-0.038
-704.587	-200.000	-0.000	-0.097
-703.572	-118.829	-0.309	-0.055
-702.558	800.000	-0.036	0.131
-701.543	800.000	-0.067	-0.224
-700.529	-85.651	-0.247	-0.078
-699.514	-10.534	-0.146	-0.098
-698.499	-200.000	0.025	0.141
-697.485	-95.101	-0.249	0.068
-696.470	28.227	-0.276	0.237
-695.456	-69.394	-0.113	0.044
-694.441	-60.874	-0.250	-0.108
-693.426	-161.177	0.149	-0.008
-692.412	-48.340	-0.086	-0.042
-691.397	-2.740	-0.073	0.052
-690.383	529.567	0.040	-0.096
-689.368	800.000	0.045	-0.179
-688.354	-185.081	-0.452	0.007
-687.339	-200.000	-0.023	0.338
-686.324	-200.000	-0.061	0.438
-685.310	800.000	-0.090	0.378
-684.295	-104.681	-0.266	0.062
-683.281	-55.017	0.043	0.020
-682.266	-200.000	-0.002	-0.166
-681.251	186.447	0.051	0.078
-680.237	144.652	0.226	-0.306
-679.222	-200.000	0.060	-0.289
-678.208	522.984	-0.151	-0.361
-677.193	-157.653	0.162	0.010
-676.178	-85.193	0.150	0.047
-675.164	11.548	0.222	-0.173
-674.149	-135.192	-0.071	0.009
-673.135	51.852	-0.028	0.027
-672.120	153.342	0.044	0.061
-671.105	27.448	0.099	-0.084
-670.091	293.377	0.029	0.054
-669.076	346.028	-0.019	0.037
-668.062	43.100	-0.102	0.094
-667.047	-71.836	-0.313	-0.118
-666.032	-171.535	-0.156	0.005
-665.018	-200.000	0.026	0.164
-664.003	-63.657	0.203	0.085
-662.989	-157.674	-0.098	0.006
-661.974	113.845	-0.016	-0.020
-660.959	-108.251	0.114	0.025
-659.945	-109.259	-0.056	0.012
-658.930	800.000	-0.035	-0.106
-657.916	-83.920	0.388	-0.125
-656.901	-169.621	0.161	0.006
-655.886	-75.780	-0.214	-0.077
-654.872	240.841	0.054	-0.092
-653.857	166.827	0.162	-0.233
-652.843	527.836	0.132	0.315
-651.828	-200.000	-0.073	-0.362
-650.814	800.000	-0.021	0.066
-649.799	668.744	-0.088	-0.232
-648.784	-81.566	-0.268	0.089
-647.770	556.472	-0.022	0.053
-646.755	-100.199	0.249	-0.063
-645.741	-90.633	-0.163	-0.048
-644.726	209.225	-0.073	-0.116
-643.711	-90.025	0.244	0.072
-642.697	-90.307	0.290	0.085
-641.682	81.904	0.241	0.265
-640.668	-0.239	0.198	-0.142
-639.653	81.265	-0.072	-0.079
-638.638	-200.000	-0.061	0.348
-637.624	-200.000	0.001	-0.118
-636.609	-17.221	-0.277	-0.177
-635.595	71.214	-0.181	0.190
-634.580	-70.000	-0.129	0.050
-633.565	800.000	0.078	-0.254
-632.551	170.803	-0.151	0.219
-631.536	263.512	0.027	-0.047
-630.522	-200.000	-0.050	-0.254
-629.507	-167.282	-0.227	-0.009
-628.492	-139.137	-0.073	0.008
-627.478	125.303	0.018	-0.023
-626.463	-200.000	0.035	-0.260
-625.449	-129.304	-0.136	-0.019
-624.434	652.038	0.039	-0.102
-623.419	416.306	-0.029	-0.062
-622.405	800.000	-0.055	-0.179
-621.390	103.361	0.158	-0.188
-620.376	800.000	0.063	0.253
-619.361	-52.651	-0.158	-0.074
-618.346	-15.326	0.234	-0.152
-617.332	-130.781	0.106	0.014
-616.317	-42.697	0.091	-0.047
-615.303	-200.000	-0.064	-0.418
-614.288	800.000	-0.075	-0.317
-613.273	-200.000	0.000	-0.216
-612.259	-200.000	0.002	-0.254
-611.244	114.689	0.251	-0.310
-610.230	-200.000	0.010	0.333
-609.215	-152.375	-0.123	-0.009
-608.201	46.660	-0.161	0.152
-607.186	-86.655	0.281	0.087
-606.171	-114.984	-0.165	0.032
-605.157	734.356	0.082	-0.222
-604.142	-200.000	0.003	0.125
-603.128	24.973	0.265	-0.223
-602.113	557.320	0.050	0.122
-601.098	-200.000	0.048	0.216
-600.084	-34.425	-0.039	-0.022
-599.069	-109.609	0.266	-0.057
-598.055	399.688	-0.140	-0.297
-597.040	552.816	-0.035	0.086
-596.025	110.093	0.070	0.085
-595.011	396.840	-0.154	-0.326
-593.996	88.017	-0.146	-0.164
-592.982	739.474	-0.120	-0.326
-591.967	-80.140	0.166	-0.056
-590.952	312.769	0.074	0.141
-589.938	-83.520	-0.369	-0.119
-588.923	19.258	-0.165	0.134
-587.909	-96.743	0.106	-0.028
-586.894	165.899	0.211	-0.302
-585.879	800.000	-0.067	0.226
-584.865	107.975	-0.154	-0.186
-583.850	402.310	-0.143	-0.304
-582.836	33.191	-0.123	0.108
-581.821	800.000	0.039	-0.133
-580.806	-200.000	0.015	-0.236
-579.792	-12.250	0.019	-0.013
-578.777	800.000	0.043	0.134
-577.763	-7.606	-0.078	-0.054
-576.748	156.144	0.174	0.243
-575.733	303.095	0.079	-0.149
-574.719	-115.276	-0.545	0.104
-573.704	273.286	0.118	0.212
-572.690	54.263	-0.076	-0.073
-571.675	-122.184	0.376	-0.062
-570.661	-117.183	-0.281	-0.052
-569.646	-64.072	-0.108	0.045
-568.631	-100.925	0.328	-0.081
-567.617	800.000	0.031	-0.114
-566.602	-52.951	-0.197	0.091
-565.588	800.000	0.052	-0.180
-564.573	800.000	0.072	-0.248
-563.558	34.112	0.147	0.129
-562.544	-94.778	0.035	0.010
-561.529	-149.858	0.199	-0.016
-560.515	-200.000	0.020	0.091
-559.500	-200.000	-0.056	0.274
-558.485	-200.000	0.027	0.174
-557.471	-200.000	0.019	-0.183
-556.456	800.000	0.047	0.194
-555.442	-23.610	-0.402	0.244
-554.427	210.195	-0.091	-0.144
-553.412	-61.310	0.367	-0.156
-552.398	-200.000	0.022	-0.289
-551.383	-91.925	-0.410	0.117
-550.369	-200.000	-0.055	-0.281
-549.354	284.694	0.249	-0.453
-548.339	-39.986	0.296	-0.156
-547.325	422.612	0.035	-0.076
-546.310	800.000	-0.015	-0.048
-545.296	164.227	0.166	0.236
-544.281	-200.000	-0.041	-0.210
-543.266	288.811	-0.100	-0.184
-542.252	-200.000	0.001	-0.147
-541.237	56.925	-0.274	-0.270
-540.223	68.788	-0.165	-0.171
-539.208	18.500	-0.132	-0.107
-538.193	277.808	0.157	0.283
-537.179	-115.854	0.089	-0.017
-536.164	-176.888	-0.322	0.008
-535.150	-38.380	0.093	0.050
-534.135	458.351	0.076	0.170
-533.121	111.086	0.146	-0.178
-532.106	-200.000	-0.019	-0.164
-531.091	-200.000	0.080	-0.364
-530.077	470.173	-0.057	0.129
-529.062	-200.000	-0.061	0.456
-528.048	345.793	-0.115	-0.228
-527.033	43.312	-0.128	0.118
-526.018	-59.560	0.100	-0.043
-525.004	496.731	-0.029	-0.066
-523.989	413.871	0.072	0.155
-522.975	-200.000	0.001	0.043
-521.960	800.000	-0.076	-0.328
-520.945	-34.689	0.194	0.107
-519.931	409.880	-0.124	0.265
-518.916	703.024	-0.046	-0.122
-517.902	800.000	-0.047	-0.153
-516.887	51.750	0.194	0.186
-515.872	-200.000	-0.284	-0.001
-514.858	-114.917	0.180	0.035
-513.843	178.314	0.155	0.228
-512.829	-75.683	0.162	0.058
-511.814	-78.195	-0.373	0.129
-510.799	64.148	0.133	0.135
-509.785	-200.000	-0.032	0.279
-508.770	-52.775	0.195	-0.091
-507.756	800.000	0.040	0.118
-506.741	-67.665	-0.091	-0.036
-505.726	401.601	-0.089	-0.188
-504.712	156.637	-0.124	0.173
-503.697	-24.968	-0.156	0.093
-502.683	-51.982	0.163	0.076
-501.668	800.000	-0.158	0.529
-500.653	-107.507	-0.122	-0.027
-499.639	-77.327	-0.103	-0.036
-498.624	65.060	0.173	0.176
-497.610	226.053	0.153	-0.251
-496.595	-38.798	0.319	0.170
-495.581	-0.060	0.188	0.135
-494.566	460.501	0.112	0.251
-493.551	-200.000	0.020	0.117
-492.537	-150.119	-0.260	-0.020
-491.522	-101.121	-0.113	-0.028
-490.508	-200.000	0.006	0.056
-489.493	106.403	0.235	0.281
-488.478	-117.767	-0.359	-0.065
-487.464	51.903	0.116	-0.112
-486.449	180.186	-0.118	0.174
-485.435	149.588	0.159	0.217
-484.420	-83.114	-0.074	0.024
-483.405	-132.600	0.112	0.014
-482.391	-91.605	-0.318	-0.091
-481.376	-12.745	0.202	0.133
-480.362	134.942	0.154	-0.201
-479.347	-43.363	-0.096	-0.049
-478.332	-12.043	-0.249	-0.164
-477.318	-84.278	0.284	-0.091
-476.303	-121.441	-0.043	-0.007
-475.289	-72.133	-0.282	-0.106
-474.274	13.823	0.094	0.074
-473.259	-67.371	-0.142	-0.056
-472.245	140.586	-0.231	-0.307
-471.230	691.765	0.215	0.567
-470.216	-200.000	0.029	-0.335
-469.201	104.659	0.294	0.349
-468.186	476.620	-0.140	0.318
-467.172	-200.000	-0.041	0.252
-466.157	-25.587	0.049	-0.029
-465.143	800.000	-0.128	0.356
-464.128	-147.255	0.413	0.035
-463.113	-137.031	-0.231	0.027
-462.099	461.966	-0.198	-0.446
-461.084	123.991	-0.109	0.137
-460.070	106.877	-0.085	-0.102
-459.055	-114.196	-0.197	-0.038
-458.040	-6.670	0.182	-0.124
-457.026	272.799	-0.141	-0.250
-456.011	-43.946	-0.182	0.092
-454.997	-200.000	0.024	-0.368
-453.982	-4.157	0.097	-0.067
-452.968	88.879	0.356	0.398
-451.953	-60.140	0.075	-0.032
-450.938	-142.573	-0.180	0.018
-449.924	-9.484	0.274	0.184
-448.909	800.000	0.020	0.071
-447.895	-48.009	-0.267	-0.130
-446.880	209.823	-0.072	-0.114
-445.865	159.971	-0.101	-0.141
-444.851	478.286	-0.113	-0.256
-443.836	27.721	0.230	-0.195
-442.822	249.264	-0.075	-0.128
-441.807	-5.352	-0.245	0.169
-440.792	-42.396	0.292	0.150
-439.778	-155.531	0.236	-0.015
-438.763	-200.000	0.024	0.244
-437.749	-200.000	-0.003	0.103
-436.734	-200.000	-0.000	0.027
-435.719	278.387	0.094	-0.169
-434.705	184.679	0.059	-0.088
-433.690	271.219	-0.122	0.216
-432.676	294.484	-0.115	0.211
-431.661	-39.007	-0.109	0.057
-430.646	-200.000	-0.003	-0.165
-429.632	23.997	0.180	-0.150
-428.617	800.000	0.074	0.286
-427.603	118.589	-0.080	0.099
-426.588	115.333	-0.163	-0.200
-425.573	-15.847	0.045	-0.029
-424.559	-200.000	0.017	-0.096
-423.544	-200.000	-0.020	0.148
-422.530	800.000	0.108	0.449
-421.515	-38.117	0.521	0.278
-420.500	-200.000	-0.012	-0.069
-419.486	-126.560	0.160	0.024
-418.471	-200.000	-0.027	0.222
-417.457	800.000	0.020	-0.071
-416.442	-200.000	-0.008	-0.203
-415.428	-57.973	-0.085	-0.037
-414.413	676.398	0.076	-0.197
-413.398	-200.000	-0.051	-0.396
-412.384	254.008	-0.134	0.231
-411.369	298.875	-0.266	0.492
-410.355	528.858	-0.125	0.297
-409.340	18.589	-0.005	-0.004
-408.325	456.738	-0.196	0.437
-407.311	411.995	0.054	0.116
-406.296	101.458	0.164	-0.192
-405.282	-68.194	0.204	0.080
-404.267	-55.743	-0.204	0.092
-403.252	-85.256	-0.246	0.077
-402.238	-75.286	0.268	-0.096
-401.223	-32.501	-0.226	-0.126
-400.209	-200.000	0.023	0.116
-399.194	280.580	-0.222	-0.398
-398.179	-120.157	0.197	0.034
-397.165	-35.272	-0.071	0.039
-396.150	-6.068	0.318	0.218
-395.136	515.397	-0.109	0.256
-394.121	-36.182	-0.311	-0.168
-393.106	-200.000	-0.049	0.386
-392.092	214.524	0.056	-0.088
-391.077	62.955	-0.123	-0.124
-390.063	-200.000	-0.047	0.299
-389.048	-200.000	-0.047	-0.205
-388.033	-25.246	0.090	-0.054
-387.019	-120.279	-0.223	-0.038
-386.004	485.227	-0.135	0.309
-384.990	-49.825	0.234	0.112
-383.975	231.828	0.043	-0.072
-382.960	-200.000	-0.047	-0.250
-381.946	-200.000	-0.006	-0.136
-380.931	-94.832	-0.073	0.020
-379.917	682.605	-0.059	0.155
-378.902	-30.777	0.151	-0.085
-377.888	-181.894	0.238	-0.005
-376.873	9.300	-0.199	0.151
-375.858	-200.000	-0.047	-0.365
-374.844	-200.000	0.012	0.066
-373.829	-200.000	0.027	0.178
-372.815	-166.382	0.430	0.018
-371.800	19.439	-0.118	0.095
-370.785	-151.614	0.094	0.007
-369.771	800.000	-0.040	0.129
-368.756	18.016	-0.144	0.115
-367.742	-86.814	0.270	-0.083
-366.727	-158.799	-0.392	-0.022
-365.712	259.433	-0.030	-0.053
-364.698	-200.000	0.002	-0.111
-363.683	37.702	-0.165	-0.147
-362.669	-106.204	0.186	0.042
-361.654	191.599	-0.193	-0.291
-360.639	-80.587	-0.110	-0.037
-359.625	113.266	-0.114	-0.139
-358.610	0.425	0.028	-0.020
-357.596	-68.474	0.096	-0.038
-356.581	-153.834	0.290	-0.020
-355.566	65.576	-0.053	-0.053
-354.552	-30.512	0.348	-0.197
-353.537	341.967	-0.011	-0.023
-352.523	800.000	0.078	0.235
-351.508	235.936	-0.046	0.077
-350.493	-133.694	-0.184	-0.023
-349.479	-200.000	-0.012	0.163
-348.464	-36.391	0.146	0.079
-347.450	1.215	-0.328	-0.236
-346.435	800.000	0.068	0.225
-345.420	-43.938	0.287	-0.144
-344.406	-129.184	0.309	0.043
-343.391	800.000	-0.086	-0.266
-342.377	800.000	-0.119	0.516
-341.362	-70.643	-0.359	0.136
-340.348	-69.751	-0.029	0.011
-339.333	-104.190	-0.032	-0.008
-338.318	156.343	0.126	0.174
-337.304	124.787	-0.170	-0.215
-336.289	800.000	-0.059	-0.184
-335.275	576.339	-0.086	0.211
-334.260	36.952	0.401	-0.355
-333.245	-115.591	0.184	-0.035
-332.231	108.610	-0.110	0.132
-331.216	9.243	0.364	0.276
-330.202	-194.385	0.353	-0.003
-329.187	221.518	-0.068	-0.110
-328.172	-21.193	-0.306	0.188
-327.158	632.677	0.011	0.029
-326.143	-67.426	0.255	-0.100
-325.129	3.552	0.235	-0.172
-324.114	614.232	-0.035	0.087
-323.099	-200.000	0.015	-0.180
-322.085	800.000	-0.065	0.236
-321.070	-39.889	-0.219	0.114
-320.056	-103.143	-0.258	-0.061
-319.041	-67.397	-0.234	-0.092
-318.026	-16.843	-0.106	-0.067
-317.012	-200.000	-0.011	-0.072
-315.997	187.590	0.028	0.041
-314.983	18.476	-0.127	0.101
-313.968	471.420	-0.083	-0.187
-312.953	186.299	-0.113	0.169
-311.939	800.000	0.045	0.149
-310.924	179.770	-0.207	-0.304
-309.910	-72.523	-0.319	-0.118
-308.895	-200.000	-0.039	-0.314
-307.880	-54.763	0.234	0.106
-306.866	-121.708	-0.101	0.017
-305.851	-200.000	0.010	-0.082
-304.837	162.099	0.146	0.205
-303.822	800.000	0.063	-0.218
-302.807	210.368	0.044	0.069
-301.793	48.005	-0.130	0.122
-300.778	-122.568	0.145	-0.024
-299.764	-23.075	-0.156	0.094
-298.749	-149.796	-0.338	0.026
-297.735	25.744	0.085	0.071
-296.720	162.061	0.080	0.111
-295.705	-152.557	-0.152	-0.011
-294.691	800.000	0.010	0.036
-293.676	-182.026	-0.290	0.005
-292.662	348.959	0.032	0.064
-291.647	219.719	0.258	0.413
-290.632	681.926	-0.019	-0.050
-289.618	800.000	-0.027	-0.091
-288.603	742.146	-0.075	-0.200
-287.589	-156.891	0.215	0.013
-286.574	-200.000	0.038	0.271
-285.559	-200.000	0.036	-0.312
-284.545	-15.580	0.046	0.030
-283.530	395.636	0.111	0.231
-282.516	-55.914	-0.305	0.136
-281.501	96.750	0.153	-0.175
-280.486	-81.898	0.139	-0.046
-279.472	-200.000	0.100	0.498
-278.457	-173.967	-0.133	0.004
-277.443	-200.000	-0.015	0.200
-276.428	100.800	0.065	-0.076
-275.413	-200.000	0.000	0.422
-274.399	21.049	0.138	-0.112
-273.384	202.837	0.124	-0.191
-272.370	-164.458	0.624	0.028
-271.355	260.270	0.206	-0.356
-270.340	36.214	0.062	-0.055
-269.326	306.738	-0.134	0.250
-268.311	-4.234	-0.133	0.092
-267.297	-200.000	0.032	0.272
-266.282	-43.846	-0.136	-0.068
-265.267	95.121	0.191	-0.217
-264.253	-102.057	-0.064	-0.015
-263.238	800.000	0.095	0.288
-262.224	-72.973	-0.171	0.063
-261.209	800.000	0.085	-0.244
-260.195	800.000	-0.048	0.142
-259.180	58.170	-0.207	-0.203
-258.165	-200.000	0.004	-0.050
-257.151	3.949	0.336	0.245
-256.136	180.908	0.159	-0.233
-255.122	24.937	-0.437	-0.361
-254.107	-69.314	-0.012	0.005
-253.092	-200.000	0.027	0.330
-252.078	800.000	-0.046	-0.130
-251.063	-194.835	0.093	0.001
-250.049	800.000	0.038	-0.136
-249.034	303.977	0.083	-0.154
-248.019	462.758	-0.140	-0.312
-247.005	284.863	-0.106	-0.191
-245.990	153.340	0.138	-0.189
-244.976	43.091	-0.238	0.217
-243.961	-158.230	-0.271	0.016
-242.946	171.061	-0.053	-0.076
-241.932	-127.455	0.207	-0.030
-240.917	-160.827	0.226	-0.012
-239.903	-43.972	-0.122	0.061
-238.888	23.235	0.132	0.108
-237.873	522.780	-0.083	0.195
-236.859	-49.787	0.134	0.064
-235.844	-163.367	0.229	0.011
-234.830	-103.125	-0.053	0.012
-233.815	-135.868	-0.094	0.011
-232.800	800.000	0.095	-0.281
-231.786	-200.000	-0.038	-0.225
-230.771	124.380	-0.055	-0.069
-229.757	800.000	0.044	-0.190
-228.742	-112.182	0.067	0.013
-227.727	-178.159	0.313	-0.007
-226.713	-70.512	0.289	0.109
-225.698	-118.775	0.454	0.080
-224.684	-115.034	-0.272	0.052
-223.669	121.422	0.169	0.209
-222.655	800.000	-0.066	0.206
-221.640	126.933	0.171	0.216
-220.625	55.824	-0.175	0.169
-219.611	-64.108	0.278	-0.113
-218.596	49.396	-0.218	0.205
-217.582	164.231	0.048	-0.068
-216.567	-167.592	-0.086	0.003
-215.552	-164.951	0.425	0.019
-214.538	-119.004	0.277	-0.048
-213.523	102.960	-0.227	0.265
-212.509	-45.798	-0.063	0.031
-211.494	110.589	0.270	0.324
-210.479	-4.074	0.168	0.116
-209.465	190.779	0.091	0.136
-208.450	116.495	-0.245	-0.299
-207.436	-70.842	0.337	-0.126
-206.421	-67.026	0.371	-0.146
-205.406	-200.000	-0.063	-0.389
-204.392	-88.515	-0.340	-0.101
-203.377	-93.314	-0.268	0.074
-202.363	106.401	-0.071	-0.084
-201.348	-200.000	-0.018	0.092
-200.333	648.359	-0.134	0.341
-199.319	-7.273	-0.202	0.136
-198.304	-47.981	-0.155	-0.075
-197.290	416.291	-0.056	0.118
-196.275	-82.392	0.134	0.043
-195.260	-140.013	0.337	0.035
-194.246	-200.000	-0.035	-0.345
-193.231	-5.228	-0.043	0.029
-192.217	50.977	0.033	-0.032
-191.202	79.826	0.158	-0.169
-190.187	-64.404	0.323	0.131
-189.173	32.865	0.139	-0.120
-188.158	-200.000	-0.028	-0.228
-187.144	249.863	-0.070	-0.119
-186.129	-131.837	0.036	0.005
-185.114	-180.532	-0.149	-0.003
-184.100	-166.122	-0.190	-0.008
-183.085	-200.000	-0.049	0.260
-182.071	-200.000	-0.002	-0.189
-181.056	56.361	-0.136	0.132
-180.042	143.515	-0.163	-0.216
-179.027	64.455	-0.012	-0.012
-178.012	-162.382	0.057	0.003
-176.998	114.833	-0.173	-0.210
-175.983	149.481	-0.087	0.118
-174.969	-142.830	-0.209	0.020
-173.954	198.443	-0.073	0.111
-172.939	62.238	0.026	0.026
-171.925	-56.031	-0.093	0.041
-170.910	-200.000	-0.007	0.299
-169.896	327.332	0.233	-0.444
-168.881	16.246	-0.079	0.062
-167.866	-200.000	-0.014	0.070
-166.852	155.830	0.053	-0.072
-165.837	127.793	-0.130	-0.164
-164.823	73.160	0.133	-0.139
-163.808	695.169	-0.085	0.221
-162.793	-200.000	0.042	0.324
-161.779	-92.176	-0.186	0.052
-160.764	127.111	0.204	-0.258
-159.750	277.170	-0.114	0.202
-158.735	-32.370	-0.075	0.042
-157.720	220.396	-0.125	0.199
-156.706	-200.000	0.028	0.124
-155.691	45.500	-0.109	-0.100
-154.677	-16.069	0.093	-0.059
-153.662	-126.615	-0.143	-0.021
-152.647	17.273	-0.134	0.106
-151.633	-3.659	0.075	-0.052
-150.618	-55.421	0.306	-0.136
-149.604	-22.628	-0.206	-0.124
-148.589	-142.706	0.211	-0.020
-147.574	-134.402	0.188	0.023
-146.560	-55.204	-0.364	-0.163
-145.545	-161.168	0.382	-0.020
-144.531	302.326	-0.131	0.241
-143.516	-106.185	0.095	0.021
-142.502	800.000	0.091	-0.350
-141.487	-68.427	-0.218	-0.084
-140.472	-200.000	0.036	0.261
-139.458	279.267	-0.137	0.244
-138.443	-28.458	-0.128	-0.073
-137.429	-72.514	0.127	-0.047
-136.414	-39.168	-0.105	0.055
-135.399	-200.000	-0.044	0.212
-134.385	94.185	0.169	-0.190
-133.370	-47.898	0.162	-0.078
-132.356	-200.000	0.019	0.256
-131.341	13.052	-0.209	0.161
-130.326	41.324	0.178	-0.160
-129.312	-121.231	-0.197	0.033
-128.297	-200.000	0.037	0.170
-127.283	156.006	0.138	0.189
-126.268	-66.131	-0.153	0.061
-125.253	-200.000	0.005	-0.229
-124.239	135.949	0.167	0.216
-123.224	-23.303	0.184	-0.110
-122.210	-1.643	0.298	-0.208
-121.195	176.144	0.098	0.141
-120.180	-100.839	0.254	0.062
-119.166	86.812	-0.116	-0.127
-118.151	113.667	-0.180	-0.217
-117.137	-3.878	-0.113	-0.078
-116.122	275.990	0.151	0.266
-115.107	0.917	-0.178	0.127
-114.093	-97.641	-0.105	-0.027
-113.078	-32.827	0.271	-0.149
-112.064	235.717	0.039	-0.064
-111.049	211.568	0.093	0.146
-110.034	-13.340	0.404	0.260
-109.020	-172.077	0.153	-0.005
-108.005	-51.671	-0.369	-0.171
-106.991	334.862	-0.122	0.235
-105.976	-45.047	-0.231	-0.114
-104.962	800.000	-0.051	-0.148
-103.947	-128.198	0.167	-0.024
-102.932	-3.124	0.099	0.069
-101.918	391.417	0.174	0.359
-100.903	23.017	-0.248	-0.202
-99.889	-169.244	-0.103	0.004
-98.874	-143.113	-0.369	0.035
-97.859	-99.466	-0.253	-0.063
-96.845	-111.799	0.236	0.047
-95.830	35.893	-0.191	0.167
-94.816	425.669	-0.085	-0.182
-93.801	800.000	0.102	0.346
-92.786	-164.198	0.136	0.006
-91.772	-129.165	0.042	0.006
-90.757	-10.261	0.082	-0.054
-89.743	-0.126	-0.270	-0.191
-88.728	-79.713	-0.007	-0.002
-87.713	327.846	0.021	-0.040
-86.699	26.538	-0.219	0.182
-85.684	-90.952	-0.253	0.072
-84.670	60.406	0.120	0.117
-83.655	-200.000	-0.020	-0.205
-82.640	-200.000	-0.000	-0.117
-81.626	-103.437	-0.206	-0.048
-80.611	-137.632	-0.131	-0.015
-79.597	-106.140	-0.222	0.049
-78.582	800.000	0.083	-0.354
-77.567	-58.204	0.185	0.080
-76.553	-10.464	-0.191	0.125
-75.538	800.000	-0.085	0.238
-74.524	-200.000	-0.002	-0.112
-73.509	-77.084	0.322	-0.111
-72.494	180.657	-0.051	-0.074
-71.480	187.561	0.070	-0.104
-70.465	-200.000	-0.023	-0.283
-69.451	-95.739	0.289	-0.077
-68.436	1.512	0.311	-0.222
-67.422	494.730	0.069	0.156
-66.407	-54.031	-0.239	0.108
-65.392	-32.701	0.206	-0.114
-64.378	-19.553	-0.177	-0.109
-63.363	45.193	-0.094	0.086
-62.349	-4.101	0.152	-0.105
-61.334	137.744	-0.721	-0.935
-60.319	168.357	0.248	0.350
-59.305	-200.000	-0.128	-0.784
-58.290	329.552	0.530	1.009
-57.276	712.364	0.697	1.827
-56.261	-200.000	96.055	572.773
-55.246	647.946	1384.223	3505.323
-54.232	186.712	2599.984	3835.407
-53.217	123.532	2183.009	2711.690
-52.203	46.868	1634.286	1504.345
-51.188	38.423	1369.209	1208.424
-50.173	35.077	1326.606	1150.712
-49.159	56.774	1375.321	1326.145
-48.144	61.138	1393.470	1370.234
-47.130	38.848	1347.608	1191.756
-46.115	35.158	1329.774	1153.766
-45.100	34.826	1325.378	1147.914
-44.086	34.793	1322.961	1145.576
-43.071	34.666	1320.716	1142.826
-42.057	34.746	1318.504	1141.341
-41.042	34.830	1316.304	1139.893
-40.027	34.796	1315.202	1138.692
-39.013	34.891	1312.849	1137.178
-37.998	34.874	1310.906	1135.347
-36.984	34.907	1309.612	1134.374
-35.969	34.963	1307.693	1132.999
-34.954	34.935	1306.248	1131.537
-33.940	35.001	1304.691	1130.538
-32.925	35.009	1303.511	1129.517
-31.911	35.099	1301.820	1128.537
-30.896	35.055	1300.562	1127.139
-29.881	35.042	1299.020	1125.685
-28.867	35.165	1297.405	1124.960
-27.852	35.085	1296.139	1123.352
-26.838	35.092	1294.633	1122.043
-25.823	35.171	1293.316	1121.320
-24.809	35.047	1291.771	1119.211
-23.794	35.098	1290.780	1118.604
-22.779	35.075	1289.244	1117.093
-21.765	34.940	1288.202	1115.356
-20.750	34.833	1287.346	1113.952
-19.736	34.915	1285.737	1112.991
-18.721	34.761	1284.980	1111.394
-17.706	34.850	1283.086	1110.229
-16.692	34.941	1281.501	1109.341
-15.677	34.937	1280.447	1108.362
-14.663	34.854	1279.574	1107.083
-13.648	34.863	1278.639	1106.283
-12.633	34.943	1277.308	1105.549
-11.619	34.956	1276.532	1104.911
-10.604	34.933	1276.104	1104.360
-9.590	34.797	1275.670	1103.157
-8.575	34.836	1274.182	1102.052
-7.560	34.695	1273.621	1100.711
-6.546	34.804	1272.466	1100.293
-5.531	34.729	1271.848	1099.288
-4.517	34.856	1270.084	1098.450
-3.502	34.824	1270.024	1098.170
-2.487	34.846	1268.784	1097.179
-1.473	34.960	1264.338	1093.942
-0.458	33.417	1249.165	1072.047
0.556	30.982	1229.967	1027.135
1.571	26.553	1232.683	1004.791
2.586	24.957	1246.534	1007.025
3.600	23.378	1234.230	988.200
4.615	17.756	1162.098	900.757
5.629	9.440	1086.274	800.689
6.644	5.329	1065.261	765.041
7.659	4.933	1062.823	761.288
8.673	4.671	1061.361	758.894
9.688	4.729	1060.176	758.265
10.702	5.431	1059.073	760.823
11.717	10.753	1066.781	792.314
12.731	18.821	1078.052	840.229
13.746	21.942	1081.378	858.035
14.761	21.655	1080.513	855.868
15.775	20.852	1078.351	850.161
16.790	19.815	1076.303	843.420
17.804	18.896	1075.250	838.040
18.819	18.653	1073.809	835.662
19.834	18.524	1073.281	834.547
20.848	18.554	1072.426	833.956
21.863	18.197	1072.079	831.873
22.877	18.071	1071.377	830.645
23.892	18.082	1070.112	829.642
24.907	18.016	1069.789	828.998
25.921	18.075	1068.282	828.046
26.936	18.256	1066.437	827.417
27.950	18.333	1065.069	826.653
28.965	18.258	1064.131	825.490
29.980	18.262	1062.928	824.504
30.994	18.466	1062.152	824.811
32.009	18.523	1060.816	823.976
33.023	18.360	1060.130	822.587
34.038	18.285	1058.703	821.046
35.053	18.191	1058.075	820.038
36.067	18.158	1057.299	819.202
37.082	18.159	1056.155	818.249
38.096	18.465	1055.341	819.011
39.111	18.290	1054.888	817.747
40.126	18.258	1053.057	816.106
41.140	18.024	1051.387	813.625
42.155	17.857	1050.678	812.211
43.169	17.788	1049.975	811.267
44.184	17.767	1048.627	810.051
45.199	17.830	1047.195	809.172
46.213	18.000	1046.635	809.474
47.228	18.091	1045.693	809.104
48.242	18.258	1044.538	808.930
49.257	18.267	1043.434	808.044
50.271	18.174	1042.985	807.185
51.286	18.339	1041.995	807.130
52.301	18.295	1040.815	805.935
53.315	18.218	1039.684	804.627
54.330	17.991	1039.254	803.156
55.344	17.938	1037.982	801.850
56.359	18.087	1037.286	801.940
57.374	18.013	1036.326	800.782
58.388	17.911	1035.388	799.511
59.403	17.646	1034.771	797.721
60.417	17.733	1034.110	797.548
61.432	17.614	1033.121	796.161
62.447	17.669	1032.336	795.742
63.461	17.728	1031.003	794.915
64.476	17.708	1030.102	794.058
65.490	17.543	1029.483	792.742
66.505	17.696	1028.467	792.603
67.520	17.778	1028.234	792.733
68.534	17.716	1027.446	791.767
69.549	17.628	1026.663	790.688
70.563	17.647	1025.949	790.157
71.578	17.460	1025.336	788.746
72.593	17.405	1024.298	787.625
73.607	17.483	1023.807	787.536
74.622	17.460	1022.786	786.574
75.636	17.523	1022.304	786.425
76.651	17.502	1021.622	785.736
77.666	17.568	1021.065	785.544
78.680	17.450	1020.490	784.486
79.695	17.567	1019.974	784.560
80.709	17.833	1018.963	784.934
81.724	17.834	1018.989	784.890
82.739	18.087	1017.647	784.952
83.753	18.173	1016.842	784.656
84.768	18.400	1016.157	785.096
85.782	18.454	1015.477	784.748
86.797	18.493	1014.478	784.088
87.812	18.200	1013.868	782.204
88.826	18.322	1012.396	781.558
89.841	18.375	1011.981	781.411
90.855	18.435	1011.090	780.925
91.870	18.411	1009.920	779.846
92.884	18.362	1009.403	779.153
93.899	18.446	1008.248	778.574
94.914	18.583	1007.254	778.359
95.928	18.477	1006.960	777.585
96.943	18.483	1005.705	776.573
97.957	18.279	1005.230	775.214
98.972	18.370	1004.531	775.018
99.987	18.445	1002.902	774.029
101.001	18.419	1002.258	773.346
102.016	18.393	1001.641	772.686
103.030	18.548	1000.517	772.449
104.045	18.409	999.701	771.126
105.060	18.314	998.698	769.856
106.074	18.040	997.873	767.919
107.089	17.770	996.892	765.884
108.103	17.709	995.833	764.731
109.118	17.883	994.182	764.175
110.133	17.758	994.141	763.515
111.147	17.727	993.110	762.516
112.162	17.873	992.323	762.499
113.176	17.878	991.825	762.070
114.191	18.005	991.042	761.969
115.206	18.068	990.140	761.487
116.220	17.869	989.500	760.044
117.235	17.864	988.675	759.316
118.249	17.864	987.497	758.349
119.264	17.883	986.418	757.536
120.279	17.769	985.987	756.631
121.293	17.709	985.328	755.793
122.308	17.731	984.026	754.824
123.322	17.700	982.645	753.560
124.337	17.567	981.954	752.380
125.352	17.674	980.918	751.989
126.366	17.620	980.020	750.995
127.381	17.730	979.140	750.738
128.395	17.654	978.568	749.902
129.410	17.687	977.551	749.202
130.424	17.771	977.021	749.096
131.439	17.911	976.201	749.016
132.454	17.952	975.089	748.274
133.468	17.949	974.165	747.489
134.483	17.919	973.597	746.854
135.497	17.933	972.446	745.967
136.512	17.883	971.929	745.284
137.527	18.075	971.153	745.460
138.541	17.891	970.851	744.362
139.556	18.067	970.047	744.446
140.570	18.343	969.264	744.979
141.585	18.328	968.330	744.131
142.600	18.469	967.630	744.140
143.614	18.531	966.795	743.700
144.629	18.453	966.300	742.915
145.643	18.354	965.105	741.502
146.658	18.379	963.814	740.554
147.673	18.234	962.887	739.150
148.687	17.921	962.314	737.294
149.702	17.957	961.216	736.543
150.716	17.995	960.270	735.916
151.731	18.043	959.872	735.755
152.746	18.067	958.854	735.011
153.760	18.106	958.364	734.737
154.775	18.293	957.968	735.173
155.789	18.357	957.353	734.909
156.804	18.277	956.596	733.922
157.819	18.355	956.202	733.887
158.833	18.514	955.585	734.029
159.848	18.651	954.657	733.839
160.862	18.522	953.766	732.537
161.877	18.214	952.412	730.118
162.892	18.127	951.319	728.845
163.906	17.938	950.780	727.562
164.921	17.979	949.723	726.864
165.935	18.147	948.674	726.709
166.950	18.214	947.763	726.234
167.964	18.143	947.228	725.456
168.979	18.109	946.088	724.375
169.994	18.197	945.337	724.108
171.008	18.260	944.729	723.845
172.023	18.316	944.107	723.542
173.037	18.386	943.946	723.649
174.052	18.479	942.831	723.125
175.067	18.028	941.977	720.502
176.081	17.978	941.298	719.711
177.096	18.093	940.510	719.527
178.110	18.084	940.082	719.100
179.125	18.143	939.763	719.040
180.140	18.288	939.193	719.147
181.154	18.388	938.752	719.169
182.169	18.497	938.145	719.098
183.183	18.517	937.821	718.867
184.198	18.640	936.710	718.467
185.213	18.490	936.134	717.334
186.227	18.651	935.410	717.391
187.242	18.671	935.074	717.152
188.256	18.815	934.065	716.915
189.271	18.778	933.413	716.198
190.286	18.345	932.403	713.554
191.300	17.948	932.039	711.558
192.315	17.919	931.024	710.602
193.329	18.162	930.253	710.961
194.344	18.213	930.065	710.964
195.359	18.129	929.715	710.286
196.373	18.460	928.805	710.901
197.388	18.654	928.598	711.483
198.402	18.633	928.524	711.278
199.417	18.737	928.078	711.302
200.432	18.915	926.843	711.031
201.446	18.987	926.976	711.367
202.461	19.080	926.160	711.063
203.475	19.029	925.332	710.155
204.490	18.948	924.099	708.810
205.504	18.859	923.273	707.747
206.519	18.628	922.966	706.498
207.534	18.612	922.220	705.801
208.548	18.608	921.565	705.219
209.563	18.699	920.925	705.041
210.577	18.761	920.402	704.831
211.592	18.929	919.419	704.706
212.607	18.959	918.980	704.429
213.621	18.935	918.320	703.764
214.636	18.790	917.750	702.673
215.650	18.896	916.877	702.375
216.665	18.982	916.143	702.100
217.680	19.155	915.676	702.387
218.694	19.157	914.970	701.790
219.709	19.043	914.320	700.764
220.723	19.113	913.771	700.567
221.738	18.959	912.842	699.170
222.753	19.063	912.347	699.149
223.767	19.013	912.231	698.796
224.782	19.071	911.548	698.445
225.796	19.210	911.445	698.870
226.811	19.151	909.936	697.410
227.826	18.976	909.043	695.958
228.840	19.052	908.212	695.567
229.855	19.087	907.239	694.902
230.869	18.976	906.725	693.998
231.884	18.955	906.334	693.554
232.899	18.903	905.173	692.393
233.913	18.811	904.721	691.616
234.928	18.853	903.999	691.172
235.942	18.821	903.401	690.526
236.957	18.738	903.215	689.989
237.972	18.894	902.226	689.799
238.986	18.917	901.660	689.394
240.001	18.918	901.079	688.894
241.015	18.975	900.207	688.395
242.030	18.873	900.257	687.964
243.045	19.091	899.495	688.194
244.059	19.089	898.919	687.684
245.074	19.127	898.255	687.266
246.088	19.132	897.903	686.957
247.103	19.294	897.024	686.868
248.117	19.396	896.843	687.076
249.132	19.654	896.601	687.858
250.147	19.825	895.838	687.888
251.161	19.787	895.209	687.194
252.176	19.865	894.663	687.025
253.190	19.864	894.223	686.621
254.205	19.878	893.666	686.189
255.220	19.943	892.785	685.712
256.234	19.719	891.923	684.100
257.249	19.910	890.948	684.047
258.263	19.910	890.230	683.434
259.278	19.717	890.101	682.515
260.293	19.860	889.287	682.395
261.307	20.031	888.555	682.447
262.322	20.053	887.960	682.015
263.336	20.105	887.420	681.742
264.351	20.026	886.500	680.666
265.366	20.061	886.176	680.496
266.380	20.024	885.124	679.482
267.395	19.901	884.687	678.606
268.409	19.779	883.909	677.469
269.424	19.887	882.757	676.948
270.439	19.817	882.236	676.216
271.453	19.678	881.597	675.122
272.468	19.736	881.265	675.034
273.482	19.685	880.595	674.266
274.497	19.784	879.931	674.082
275.512	19.721	879.534	673.470
276.526	19.777	878.765	673.042
277.541	19.877	878.379	673.078
278.555	19.831	878.483	672.915
279.570	20.098	877.672	673.273
280.585	20.109	876.836	672.616
281.599	20.089	875.411	671.387
282.614	19.980	874.932	670.538
283.628	19.913	874.626	669.983
284.643	19.879	874.167	669.442
285.657	19.893	873.060	668.589
286.672	19.886	872.642	668.183
287.687	19.932	871.990	667.803
288.701	20.001	871.432	667.580
289.716	19.970	871.023	667.090
290.730	20.032	870.221	666.654
291.745	20.131	869.721	666.592
292.760	20.170	868.940	666.087
293.774	20.292	868.522	666.175
294.789	20.252	867.930	665.507
295.803	20.061	867.077	664.063
296.818	19.878	866.632	662.961
297.833	19.983	865.804	662.673
298.847	20.136	865.520	662.982
299.862	20.071	865.079	662.337
300.876	20.278	864.371	662.527
301.891	20.305	864.029	662.309
302.906	20.400	863.271	662.033
303.920	20.362	863.114	661.705
304.935	20.584	862.240	661.825
305.949	20.458	861.515	660.730
306.964	20.405	860.789	659.912
307.979	20.509	860.214	659.807
308.993	20.549	860.195	659.886
310.008	20.475	859.011	658.641
311.022	20.490	858.427	658.193
312.037	20.375	857.598	657.063
313.052	20.130	856.888	655.532
314.066	20.041	856.616	654.932
315.081	20.124	856.360	654.990
316.095	20.226	855.356	654.548
317.110	20.029	854.820	653.338
318.125	20.136	854.105	653.138
319.139	20.076	854.326	653.023
320.154	20.093	853.812	652.637
321.168	20.175	853.094	652.337
322.183	20.352	852.221	652.279
323.197	20.293	851.840	651.708
324.212	20.275	851.282	651.154
325.227	20.263	850.687	650.597
326.241	20.384	849.755	650.280
327.256	20.230	849.280	649.281
328.270	20.225	848.820	648.856
329.285	20.299	848.052	648.487
330.300	20.162	847.863	647.773
331.314	20.293	847.253	647.737
332.329	20.356	846.985	647.714
333.343	20.529	846.453	647.893
334.358	20.478	846.063	647.348
335.373	20.480	845.763	647.067
336.387	20.456	845.843	646.982
337.402	20.539	845.701	647.124
338.416	20.917	844.738	647.737
339.431	20.820	844.467	647.109
340.446	20.927	844.122	647.186
341.460	20.809	843.856	646.486
342.475	20.978	843.467	646.760
343.489	21.023	843.242	646.697
344.504	21.131	842.578	646.528
345.519	21.163	842.212	646.309
346.533	20.979	841.644	645.135
347.548	20.904	840.870	644.208
348.562	20.834	840.267	643.430
349.577	20.667	839.226	641.961
350.592	20.657	838.598	641.387
351.606	20.520	838.043	640.401
352.621	20.617	837.425	640.228
353.635	20.645	837.024	639.969
354.650	20.749	836.417	639.831
355.665	20.757	835.813	639.339
356.679	20.779	835.374	639.031
357.694	20.861	834.488	638.596
358.708	21.006	833.580	638.377
359.723	20.827	833.349	637.487
360.738	20.984	832.434	637.303
361.752	20.980	832.372	637.185
362.767	21.127	831.717	637.165
363.781	21.004	831.494	636.487
364.796	21.286	831.332	637.335
365.810	21.237	830.944	636.803
366.825	21.432	829.903	636.661
367.840	21.571	829.305	636.649
368.854	21.441	828.652	635.621
369.869	21.260	828.535	634.818
370.883	21.149	828.167	634.074
371.898	21.387	827.773	634.583
372.913	21.376	827.652	634.394
373.927	21.221	826.757	633.088
374.942	21.271	826.473	632.995
375.956	21.361	825.990	632.897
376.971	21.580	825.422	633.197
377.986	21.640	825.137	633.140
379.000	21.505	824.956	632.457
380.015	21.615	823.620	631.773
381.029	21.479	823.632	631.236
382.044	21.570	822.742	630.828
383.059	21.753	822.000	630.859
384.073	21.575	821.538	629.811
385.088	21.454	820.635	628.626
386.102	21.211	820.246	627.398
387.117	21.265	819.790	627.191
388.132	21.288	818.805	626.464
389.146	21.347	818.785	626.606
390.161	21.490	818.610	626.928
391.175	21.585	817.724	626.534
392.190	21.520	817.213	625.854
393.205	21.349	816.894	624.942
394.219	21.373	816.622	624.763
395.234	21.379	815.841	624.135
396.248	21.200	815.320	623.042
397.263	21.106	814.710	622.186
398.278	21.160	814.382	622.073
399.292	21.400	813.913	622.514
400.307	21.196	813.324	621.281
401.321	21.171	813.130	620.990
402.336	21.298	812.788	621.125
403.350	21.475	812.132	621.197
404.365	21.553	811.634	621.038
405.380	21.597	811.576	621.093
406.394	21.697	811.201	621.106
407.409	21.946	810.582	621.462
408.423	21.953	810.218	621.151
409.438	21.903	809.644	620.480
410.453	21.956	809.781	620.718
411.467	21.927	809.439	620.296
412.482	21.951	809.121	620.085
413.496	22.035	808.840	620.109
414.511	22.162	808.129	619.959
415.526	21.978	807.483	618.759
416.540	21.988	807.003	618.371
417.555	22.096	806.218	618.096
418.569	21.917	806.376	617.531
419.584	22.076	805.589	617.433
420.599	21.867	805.255	616.388
421.613	158.920	1369.940	1787.701
422.628	138.090	1452.217	1787.812
