DTS Sentinel unit serial number:	SN413079Multiplexer serial number:	ORYXHardware model number:	OX4-SRSoftware version number:	ORYX F/W v4.00 Oryx Data Collector v3.7.2.0data status	okinstallation	princeton_trtdifferential loss correction	single-endedforward channel	channel 1reverse channel	N/Adate	2019/09/17time	04:22:35forward acquisition time	60.00reverse acquisition time	0.00gamma	496.2192k internal	0.2323k external	0.2323temperature offset calibration	0.9960default loss term (dB/km)	0.3790temperature slope calibration	1.0000multiplexer offset coefficient	1.0000multiplexer slope coefficient	1.0000fibre end	0.00T internal ref (°C)	29.75T ext. ref 1 (°C)	0.14T ext. ref 2 (°C)	24.23length (m)	temperature (°C)	Stokes	anti-Stokes-747.200	61.517	-0.185	-0.186
-746.185	-1.604	0.145	0.103
-745.171	403.715	0.137	0.291
-744.156	150.895	-0.295	0.405
-743.142	800.000	-0.057	-0.221
-742.127	-70.796	-0.275	0.105
-741.112	403.512	0.124	-0.262
-740.098	-23.824	-0.242	0.146
-739.083	800.000	-0.022	-0.092
-738.069	564.215	0.098	0.240
-737.054	50.497	-0.109	-0.104
-736.039	800.000	0.121	0.489
-735.025	241.104	0.118	0.199
-734.010	800.000	0.096	-0.288
-732.996	-172.148	-0.429	-0.014
-731.981	-73.707	-0.098	-0.036
-730.966	-163.754	-0.109	-0.005
-729.952	-68.770	-0.242	0.094
-728.937	-200.000	0.007	0.107
-727.923	-148.775	0.202	0.017
-726.908	-143.954	-0.281	0.027
-725.894	442.669	0.076	-0.168
-724.879	-90.586	-0.202	-0.059
-723.864	-165.299	-0.215	0.010
-722.850	-200.000	-0.043	0.311
-721.835	28.081	0.071	0.060
-720.821	-200.000	0.096	0.498
-719.806	30.651	-0.157	-0.135
-718.791	239.578	-0.140	-0.236
-717.777	-155.543	0.185	0.012
-716.762	178.059	0.223	-0.328
-715.748	-117.158	-0.136	0.025
-714.733	-124.783	-0.174	0.027
-713.718	322.005	0.074	0.141
-712.704	104.347	-0.069	-0.082
-711.689	238.613	-0.203	-0.340
-710.675	-36.734	-0.109	0.059
-709.660	-156.208	0.197	0.013
-708.645	26.113	-0.203	-0.171
-707.631	114.608	-0.151	0.185
-706.616	227.011	-0.228	-0.374
-705.602	-86.786	0.362	-0.112
-704.587	800.000	-0.093	0.264
-703.572	800.000	-0.061	0.200
-702.558	424.210	-0.032	-0.070
-701.543	-75.903	0.217	-0.077
-700.529	-98.305	0.202	-0.052
-699.514	-44.962	-0.418	-0.210
-698.499	800.000	0.099	0.296
-697.485	-148.929	0.213	-0.017
-696.470	-140.226	-0.228	0.024
-695.456	-46.749	-0.143	0.070
-694.441	-200.000	0.012	-0.107
-693.426	-200.000	0.016	-0.220
-692.412	-165.041	-0.149	0.007
-691.397	-200.000	0.005	-0.030
-690.383	27.755	-0.275	-0.234
-689.368	-200.000	-0.013	0.293
-688.354	-118.665	0.137	-0.024
-687.339	-108.614	-0.116	0.025
-686.324	282.148	0.138	-0.249
-685.310	98.834	-0.214	-0.249
-684.295	-200.000	-0.016	-0.202
-683.281	34.423	0.368	-0.324
-682.266	-200.000	-0.016	-0.286
-681.251	-133.839	-0.273	-0.034
-680.237	-177.103	0.194	-0.005
-679.222	-20.826	-0.138	0.085
-678.208	-74.419	0.197	-0.072
-677.193	-200.000	0.026	0.267
-676.178	21.513	0.316	0.259
-675.164	-150.569	-0.274	0.021
-674.149	757.994	-0.116	0.315
-673.135	-17.943	-0.065	0.041
-672.120	-130.703	-0.208	0.028
-671.105	20.738	0.087	-0.071
-670.091	-130.370	-0.328	-0.045
-669.076	-11.973	0.216	0.142
-668.062	-22.797	-0.307	-0.186
-667.047	-200.000	-0.096	-0.430
-666.032	177.821	-0.249	-0.366
-665.018	-127.394	-0.163	-0.024
-664.003	94.958	-0.084	0.097
-662.989	516.819	0.075	-0.177
-661.974	800.000	-0.042	-0.169
-660.959	35.800	-0.096	-0.085
-659.945	-111.838	-0.482	-0.098
-658.930	800.000	-0.010	0.041
-657.916	800.000	-0.124	-0.350
-656.901	800.000	0.066	-0.201
-655.886	8.557	0.073	-0.056
-654.872	-116.435	-0.080	0.015
-653.857	187.248	0.115	-0.172
-652.843	191.023	0.067	0.102
-651.828	65.008	-0.036	0.037
-650.814	-149.791	0.351	-0.028
-649.799	-97.490	-0.091	0.024
-648.784	-27.019	-0.056	-0.033
-647.770	716.530	-0.065	0.174
-646.755	-83.392	0.437	0.141
-645.741	-140.849	0.073	0.008
-644.726	-156.642	0.365	0.023
-643.711	83.814	-0.102	-0.111
-642.697	52.794	-0.131	0.126
-641.682	-34.442	0.186	0.102
-640.668	2.655	-0.271	0.197
-639.653	-95.351	0.150	-0.041
-638.638	41.409	0.253	-0.230
-637.624	-110.671	-0.459	0.095
-636.609	103.964	-0.270	0.319
-635.595	98.548	-0.170	-0.197
-634.580	18.709	0.176	-0.141
-633.565	103.111	-0.162	0.191
-632.551	-79.454	-0.182	-0.062
-631.536	-200.000	-0.030	-0.143
-630.522	-93.401	0.434	0.121
-629.507	-16.403	-0.079	-0.050
-628.492	363.861	0.131	-0.266
-627.478	800.000	0.038	0.143
-626.463	-139.530	-0.228	-0.024
-625.449	-200.000	-0.018	-0.088
-624.434	-169.087	0.170	-0.006
-623.419	-72.596	0.175	0.065
-622.405	-125.484	0.105	-0.016
-621.390	-124.845	0.136	-0.021
-620.376	41.102	-0.423	-0.384
-619.361	-200.000	0.033	-0.426
-618.346	-61.081	-0.353	-0.150
-617.332	800.000	0.089	0.324
-616.317	-120.870	0.241	0.041
-615.303	86.665	0.212	0.235
-614.288	-105.104	0.208	0.048
-613.273	226.635	-0.110	-0.179
-612.259	-44.922	0.092	-0.046
-611.244	530.986	0.092	-0.218
-610.230	-200.000	0.009	-0.061
-609.215	-200.000	0.064	-0.318
-608.201	-107.039	-0.120	-0.027
-607.186	-200.000	0.035	0.296
-606.171	159.026	0.066	-0.092
-605.157	-78.965	0.119	0.041
-604.142	660.412	-0.159	-0.412
-603.128	-200.000	-0.027	-0.275
-602.113	61.091	-0.220	-0.219
-601.098	800.000	0.037	-0.156
-600.084	-39.459	0.095	-0.050
-599.069	57.568	-0.081	-0.079
-598.055	-81.459	0.080	-0.027
-597.040	-127.269	0.342	0.050
-596.025	56.156	-0.141	0.138
-595.011	-18.377	0.157	0.098
-593.996	-103.284	-0.293	-0.069
-592.982	226.523	0.290	-0.473
-591.967	-1.031	0.027	-0.019
-590.952	25.900	-0.222	-0.186
-589.938	-200.000	0.001	-0.471
-588.923	-145.503	0.022	0.002
-587.909	288.860	-0.057	0.104
-586.894	-158.366	0.137	-0.008
-585.879	367.796	0.042	-0.086
-584.865	-11.454	0.309	-0.204
-583.850	-200.000	-0.038	0.276
-582.836	1.349	0.164	-0.118
-581.821	-200.000	0.005	-0.041
-580.806	335.688	0.185	-0.359
-579.792	8.044	-0.128	-0.096
-578.777	450.687	0.034	0.075
-577.763	58.103	0.236	-0.232
-576.748	-61.045	0.240	0.102
-575.733	13.088	-0.102	0.079
-574.719	-134.336	-0.487	-0.060
-573.704	507.997	-0.100	-0.232
-572.690	-200.000	-0.009	0.111
-571.675	-200.000	0.026	0.175
-570.661	-111.566	0.119	0.024
-569.646	249.348	0.080	0.135
-568.631	87.736	-0.214	0.237
-567.617	-87.252	0.200	0.061
-566.602	800.000	-0.072	-0.255
-565.588	800.000	0.046	-0.174
-564.573	-200.000	0.011	0.236
-563.558	-141.397	-0.213	-0.022
-562.544	2.603	0.192	-0.140
-561.529	-75.396	0.207	-0.074
-560.515	-200.000	-0.041	0.243
-559.500	-200.000	-0.041	0.309
-558.485	291.254	-0.034	-0.062
-557.471	-33.285	-0.104	0.058
-556.456	-127.185	-0.342	0.050
-555.442	17.700	0.130	0.104
-554.427	609.753	0.088	0.219
-553.412	-197.163	-0.167	0.001
-552.398	121.997	-0.099	0.124
-551.383	-36.941	-0.247	-0.133
-550.369	-103.061	0.113	-0.027
-549.354	-58.854	-0.083	0.036
-548.339	13.599	-0.195	0.152
-547.325	85.697	0.089	-0.098
-546.310	609.618	0.040	0.101
-545.296	430.656	0.109	0.236
-544.281	-200.000	0.305	-0.001
-543.266	-4.538	0.094	-0.065
-542.252	-74.568	-0.170	0.061
-541.237	110.012	0.130	-0.157
-540.223	-200.000	0.021	0.283
-539.208	42.647	0.045	0.041
-538.193	133.111	0.247	-0.319
-537.179	-200.000	0.052	-0.388
-536.164	-101.834	0.151	-0.037
-535.150	-132.006	-0.177	-0.023
-534.135	-76.680	0.045	0.016
-533.121	-170.927	0.148	0.005
-532.106	-159.499	-0.266	-0.015
-531.091	-99.054	-0.480	0.122
-530.077	-41.007	0.089	-0.046
-529.062	179.997	0.174	-0.255
-528.048	247.470	-0.197	-0.333
-527.033	-46.749	-0.170	-0.083
-526.018	-130.267	-0.194	0.026
-525.004	-103.512	0.143	0.034
-523.989	-200.000	-0.034	-0.462
-522.975	88.589	0.123	0.137
-521.960	-50.406	-0.469	0.222
-520.945	133.861	0.275	0.357
-519.931	-18.928	0.298	-0.186
-518.916	156.697	-0.162	-0.225
-517.902	558.071	0.073	-0.177
-516.887	-111.066	0.373	-0.077
-515.872	-136.393	0.029	-0.003
-514.858	28.853	-0.182	-0.154
-513.843	111.048	-0.187	-0.226
-512.829	-200.000	-0.047	0.214
-511.814	508.636	-0.171	-0.397
-510.799	-39.923	0.261	0.136
-509.785	385.617	0.047	0.096
-508.770	-42.604	-0.112	0.057
-507.756	-91.327	-0.150	-0.043
-506.741	10.628	0.125	-0.095
-505.726	-191.216	-0.303	-0.003
-504.712	-121.092	0.136	-0.023
-503.697	30.525	0.085	-0.073
-502.683	160.842	-0.173	-0.242
-501.668	364.821	0.098	-0.198
-500.653	162.562	0.284	-0.399
-499.639	-200.000	-0.069	0.303
-498.624	-50.379	-0.309	0.146
-497.610	-21.899	0.119	0.072
-496.595	111.633	-0.203	-0.245
-495.581	-91.772	-0.118	0.033
-494.566	130.833	-0.382	-0.490
-493.551	34.642	0.160	0.140
-492.537	25.537	-0.227	0.189
-491.522	51.929	0.295	-0.280
-490.508	-200.000	-0.114	-0.519
-489.493	196.062	-0.236	-0.359
-488.478	-200.000	-0.010	0.410
-487.464	11.308	0.117	-0.090
-486.449	-148.218	0.144	-0.012
-485.435	13.485	-0.072	-0.056
-484.420	-163.649	-0.245	-0.012
-483.405	-200.000	0.044	-0.201
-482.391	-200.000	-0.015	-0.266
-481.376	169.136	0.153	-0.218
-480.362	-55.682	-0.077	0.034
-479.347	-85.036	-0.209	-0.066
-478.332	-38.694	-0.087	0.046
-477.318	-106.954	0.266	0.059
-476.303	23.714	-0.335	0.275
-475.289	-179.756	-0.213	-0.005
-474.274	-82.801	-0.156	-0.050
-473.259	780.636	-0.063	-0.173
-472.245	-103.814	0.154	-0.036
-471.230	295.377	-0.129	0.237
-470.216	356.441	-0.077	0.153
-469.201	-106.636	-0.167	-0.037
-468.186	-123.417	-0.135	0.022
-467.172	-200.000	-0.018	-0.221
-466.157	-117.277	-0.045	-0.008
-465.143	70.251	0.308	0.318
-464.128	44.032	-0.158	0.145
-463.113	-200.000	-0.010	-0.071
-462.099	-200.000	-0.006	-0.359
-461.084	21.461	0.120	-0.098
-460.070	439.942	0.079	0.171
-459.055	-200.000	-0.027	-0.263
-458.040	-103.648	-0.229	0.054
-457.026	472.296	0.106	-0.238
-456.011	58.358	0.149	0.146
-454.997	-2.485	-0.182	0.128
-453.982	297.137	-0.099	0.182
-452.968	53.897	-0.180	0.172
-451.953	314.398	-0.062	0.116
-450.938	132.416	0.241	0.310
-449.924	-46.946	0.142	-0.069
-448.909	-8.295	0.381	0.256
-447.895	-60.366	0.144	-0.061
-446.880	39.869	-0.203	-0.182
-445.865	-200.000	-0.007	-0.130
-444.851	-137.934	-0.125	0.014
-443.836	800.000	0.039	0.149
-442.822	-26.437	0.347	-0.203
-441.807	247.968	-0.105	0.178
-440.792	-200.000	0.022	-0.151
-439.778	800.000	0.061	0.169
-438.763	75.209	-0.034	-0.035
-437.749	-21.033	-0.197	-0.120
-436.734	46.780	-0.096	-0.089
-435.719	800.000	0.029	-0.103
-434.705	-76.963	-0.271	0.095
-433.690	-124.615	0.010	0.002
-432.676	800.000	-0.011	0.032
-431.661	800.000	0.033	0.097
-430.646	57.336	-0.210	0.205
-429.632	602.752	0.062	0.154
-428.617	800.000	-0.061	-0.259
-427.603	148.743	0.276	-0.372
-426.588	155.752	-0.034	0.046
-425.573	800.000	0.045	-0.131
-424.559	-71.118	-0.253	-0.095
-423.544	-73.306	0.230	0.084
-422.530	-200.000	-0.005	-0.035
-421.515	-137.826	0.185	-0.021
-420.500	800.000	-0.062	-0.207
-419.486	800.000	-0.023	-0.088
-418.471	-200.000	0.012	-0.182
-417.457	78.258	-0.018	-0.019
-416.442	217.740	0.131	0.208
-415.428	-200.000	0.070	0.343
-414.413	-52.953	-0.420	0.193
-413.398	-54.446	-0.081	-0.036
-412.384	140.159	0.191	0.251
-411.369	130.568	-0.164	0.209
-410.355	387.816	0.124	0.255
-409.340	48.151	0.052	0.048
-408.325	200.587	-0.101	-0.154
-407.311	-104.277	0.207	-0.048
-406.296	800.000	0.043	0.121
-405.282	800.000	0.076	0.234
-404.267	-200.000	-0.017	0.134
-403.252	-94.259	-0.225	0.061
-402.238	21.637	0.129	-0.105
-401.223	-200.000	0.041	0.199
-400.209	535.367	-0.040	-0.094
-399.194	496.597	-0.097	-0.221
-398.179	46.331	0.039	0.036
-397.165	25.856	0.037	0.031
-396.150	-200.000	-0.017	0.159
-395.136	-200.000	0.033	-0.152
-394.121	-53.882	-0.264	-0.120
-393.106	800.000	-0.033	0.095
-392.092	800.000	-0.051	0.155
-391.077	66.898	0.206	-0.209
-390.063	800.000	0.116	0.339
-389.048	800.000	0.071	0.263
-388.033	88.530	-0.191	0.211
-387.019	-200.000	-0.029	-0.166
-386.004	-200.000	-0.010	-0.250
-384.990	141.829	0.311	-0.411
-383.975	-63.455	-0.183	-0.075
-382.960	-200.000	0.004	-0.086
-381.946	51.460	-0.146	0.138
-380.931	-127.017	0.193	-0.028
-379.917	-118.060	-0.439	0.078
-378.902	50.272	-0.062	0.058
-377.888	-117.496	-0.265	0.048
-376.873	-200.000	-0.047	0.254
-375.858	-200.000	-0.007	0.100
-374.844	281.723	-0.105	0.187
-373.829	237.727	-0.055	0.091
-372.815	-160.530	0.175	-0.009
-371.800	19.736	-0.390	0.313
-370.785	-113.764	-0.126	0.024
-369.771	-200.000	-0.049	-0.322
-368.756	800.000	0.052	0.172
-367.742	800.000	-0.049	-0.154
-366.727	113.665	0.092	-0.111
-365.712	4.758	-0.124	0.091
-364.698	686.466	-0.048	0.124
-363.683	800.000	-0.124	-0.450
-362.669	247.239	0.244	-0.409
-361.654	-155.767	-0.217	-0.014
-360.639	-114.368	-0.112	0.021
-359.625	37.117	0.050	0.044
-358.610	-67.478	0.155	0.060
-357.596	142.324	0.128	-0.169
-356.581	13.045	0.187	-0.144
-355.566	132.633	-0.261	0.334
-354.552	-157.870	-0.283	0.017
-353.537	-86.845	0.200	0.061
-352.523	-63.130	-0.097	0.040
-351.508	-0.305	0.313	-0.221
-350.493	800.000	-0.039	0.148
-349.479	24.050	-0.271	0.222
-348.464	-7.254	0.211	-0.142
-347.450	-55.713	0.259	0.115
-346.435	-164.922	-0.133	-0.006
-345.420	679.720	0.140	-0.363
-344.406	-200.000	-0.008	0.113
-343.391	-200.000	-0.009	0.207
-342.377	-46.624	0.079	0.038
-341.362	462.381	0.168	-0.374
-340.348	313.342	0.058	-0.108
-339.333	-176.844	0.123	-0.003
-338.318	-158.977	0.344	-0.019
-337.304	-115.243	-0.359	0.068
-336.289	-36.925	-0.037	0.020
-335.275	-76.958	-0.253	-0.088
-334.260	-17.213	-0.128	0.080
-333.245	-200.000	-0.030	0.299
-332.231	704.954	-0.066	0.173
-331.216	-200.000	-0.025	0.480
-330.202	800.000	-0.094	0.342
-329.187	62.703	-0.093	0.092
-328.172	232.539	-0.081	0.132
-327.158	406.302	0.145	0.305
-326.143	68.497	-0.113	0.115
-325.129	-200.000	0.040	0.269
-324.114	-154.662	-0.214	0.014
-323.099	-47.392	0.216	0.105
-322.085	-200.000	-0.013	-0.323
-321.070	43.879	-0.143	0.130
-320.056	-200.000	0.018	0.309
-319.041	324.503	0.094	0.177
-318.026	261.756	0.045	0.077
-317.012	-200.000	0.004	0.105
-315.997	-200.000	-0.012	0.241
-314.983	48.178	0.186	-0.173
-313.968	-57.859	0.060	-0.026
-312.953	800.000	-0.064	0.192
-311.939	-67.687	-0.445	-0.173
-310.924	-200.000	-0.011	-0.242
-309.910	-200.000	-0.015	0.157
-308.895	-81.777	-0.151	-0.049
-307.880	-122.170	-0.318	-0.052
-306.866	19.389	0.245	0.195
-305.851	13.218	0.321	0.246
-304.837	92.878	0.087	-0.098
-303.822	-43.348	-0.167	0.084
-302.807	-200.000	0.009	-0.086
-301.793	33.868	-0.207	0.179
-300.778	-200.000	0.087	0.400
-299.764	-57.545	0.109	0.047
-298.749	-17.256	0.124	-0.077
-297.735	32.497	-0.226	-0.194
-296.720	540.732	0.100	0.237
-295.705	-83.065	-0.059	0.019
-294.691	-133.187	-0.135	0.017
-293.676	-78.174	0.255	-0.087
-292.662	219.327	-0.136	0.216
-291.647	-3.693	0.193	0.133
-290.632	-171.070	-0.397	-0.013
-289.618	39.536	0.036	-0.032
-288.603	496.089	0.182	-0.415
-287.589	-200.000	-0.052	-0.249
-286.574	800.000	0.074	-0.242
-285.559	-81.893	-0.230	-0.075
-284.545	64.877	0.130	0.130
-283.530	103.446	-0.248	-0.289
-282.516	144.427	0.076	-0.101
-281.501	-146.085	0.334	-0.029
-280.486	-200.000	-0.025	0.272
-279.472	144.687	0.164	0.217
-278.457	-14.531	-0.272	-0.173
-277.443	241.235	0.152	0.251
-276.428	-151.538	0.366	-0.027
-275.413	-200.000	-0.023	-0.176
-274.399	312.944	-0.062	0.115
-273.384	-109.850	0.114	0.024
-272.370	-22.559	0.097	-0.058
-271.355	225.780	0.081	-0.130
-270.340	-136.154	0.207	-0.024
-269.326	255.727	0.141	0.239
-268.311	-47.459	-0.210	-0.101
-267.297	-200.000	-0.008	0.227
-266.282	86.760	0.160	0.175
-265.267	-103.707	0.144	-0.033
-264.253	268.145	0.139	0.241
-263.238	638.391	0.087	-0.219
-262.224	-29.073	0.105	-0.060
-261.209	81.141	0.092	0.098
-260.195	676.954	-0.088	-0.226
-259.180	-200.000	-0.121	0.000
-258.165	800.000	0.097	0.321
-257.151	-127.995	-0.186	-0.026
-256.136	-113.230	0.215	-0.042
-255.122	-103.959	0.171	-0.039
-254.107	57.866	-0.102	0.099
-253.092	-100.591	0.057	0.014
-252.078	-68.304	0.164	0.063
-251.063	-200.000	-0.009	-0.094
-250.049	-44.323	-0.104	-0.052
-249.034	-142.874	-0.205	-0.020
-248.019	-51.419	-0.066	0.031
-247.005	-46.134	-0.209	0.102
-245.990	138.593	-0.162	0.211
-244.976	-200.000	0.008	-0.316
-243.961	-200.000	0.015	0.427
-242.946	320.678	-0.100	0.188
-241.932	-136.846	-0.087	0.010
-240.917	800.000	0.031	0.107
-239.903	800.000	0.077	0.266
-238.888	-51.173	-0.349	0.162
-237.873	-107.318	0.312	0.068
-236.859	-57.890	-0.079	0.034
-235.844	46.049	0.146	-0.134
-234.830	9.975	0.339	-0.255
-233.815	231.619	0.167	-0.272
-232.800	147.338	0.027	-0.036
-231.786	71.698	-0.144	-0.148
-230.771	379.624	-0.105	-0.212
-229.757	-122.593	0.189	-0.030
-228.742	48.002	0.079	-0.073
-227.727	-200.000	0.023	-0.175
-226.713	-62.248	0.341	0.141
-225.698	-180.966	-0.126	-0.003
-224.684	-200.000	0.098	0.495
-223.669	-200.000	-0.039	0.267
-222.655	20.389	0.474	-0.379
-221.640	-200.000	0.005	-0.270
-220.625	-200.000	0.014	0.206
-219.611	584.492	0.069	0.168
-218.596	455.169	-0.029	0.064
-217.582	188.374	-0.123	-0.181
-216.567	-159.805	-0.110	0.006
-215.552	68.716	0.166	-0.169
-214.538	-74.862	-0.185	0.066
-213.523	-200.000	-0.005	-0.125
-212.509	-200.000	-0.025	0.152
-211.494	638.065	-0.137	0.343
-210.479	-36.209	0.111	-0.060
-209.465	-144.718	0.095	-0.009
-208.450	11.453	0.259	0.196
-207.436	-104.209	-0.173	-0.040
-206.421	-200.000	-0.016	0.146
-205.406	13.275	0.280	0.215
-204.392	-94.343	-0.314	-0.085
-203.377	105.267	-0.193	-0.226
-202.363	-54.657	-0.106	-0.047
-201.348	28.876	-0.111	-0.093
-200.333	-107.537	-0.135	-0.029
-199.319	-200.000	-0.000	-0.016
-198.304	34.434	0.137	0.119
-197.290	-95.038	0.212	-0.057
-196.275	77.264	-0.159	-0.167
-195.260	-68.398	-0.301	-0.115
-194.246	-200.000	0.017	-0.276
-193.231	-142.205	0.061	-0.006
-192.217	-200.000	0.008	0.258
-191.202	4.458	0.242	-0.175
-190.187	-121.454	-0.144	-0.024
-189.173	385.041	0.128	0.261
-188.158	-200.000	0.056	0.299
-187.144	-165.064	-0.257	-0.011
-186.129	-7.376	0.227	0.152
-185.114	-200.000	-0.034	0.208
-184.100	-75.527	-0.222	-0.078
-183.085	-87.848	0.164	-0.049
-182.071	-200.000	-0.054	-0.239
-181.056	-32.991	-0.201	0.110
-180.042	295.261	0.069	-0.125
-179.027	89.767	0.299	0.330
-178.012	323.881	0.208	-0.392
-176.998	-200.000	-0.057	0.293
-175.983	799.659	0.037	0.099
-174.969	356.893	0.009	-0.018
-173.954	-90.127	-0.255	0.073
-172.939	32.166	0.220	-0.188
-171.925	-86.700	0.227	0.068
-170.910	178.469	0.081	-0.116
-169.896	-200.000	0.047	-0.266
-168.881	-55.327	-0.092	-0.041
-167.866	800.000	-0.080	0.222
-166.852	-76.052	0.251	-0.087
-165.837	-200.000	-0.032	0.182
-164.823	-148.600	-0.207	0.017
-163.808	-53.007	-0.313	0.142
-162.793	-25.898	0.235	0.136
-161.779	136.568	0.056	0.072
-160.764	48.152	0.294	-0.271
-159.750	-64.944	0.225	-0.090
-158.735	389.785	-0.097	0.198
-157.720	686.694	0.210	0.541
-156.706	-100.402	0.097	-0.024
-155.691	-200.000	0.009	-0.212
-154.677	-98.285	-0.273	-0.069
-153.662	129.821	0.056	0.070
-152.647	-89.435	0.151	0.044
-151.633	-12.655	-0.106	-0.068
-150.618	-104.352	0.229	0.052
-149.604	-91.117	-0.183	-0.052
-148.589	-141.105	0.419	-0.042
-147.574	624.682	0.060	-0.148
-146.560	75.644	-0.067	0.070
-145.545	102.345	0.124	0.142
-144.531	-200.000	-0.027	0.292
-143.516	800.000	-0.060	0.177
-142.502	-118.401	0.232	0.041
-141.487	-200.000	-0.033	0.221
-140.472	150.025	-0.043	0.057
-139.458	95.087	-0.194	-0.218
-138.443	-200.000	0.029	-0.221
-137.429	-181.260	0.291	0.006
-136.414	97.430	0.045	-0.051
-135.399	448.725	0.042	-0.091
-134.385	-200.000	0.007	0.126
-133.370	-49.192	0.063	0.030
-132.356	-115.253	0.164	0.031
-131.341	680.973	-0.077	0.199
-130.326	800.000	0.031	-0.091
-129.312	-200.000	0.020	-0.315
-128.297	39.825	0.167	0.148
-127.283	-87.974	0.316	-0.093
-126.268	800.000	-0.057	0.203
-125.253	-183.248	0.264	-0.005
-124.239	-112.524	0.171	-0.034
-123.224	-148.386	0.212	-0.017
-122.210	-133.632	0.151	0.019
-121.195	65.070	-0.044	-0.044
-120.180	-57.209	-0.126	0.054
-119.166	43.156	0.310	-0.279
-118.151	-200.000	0.021	-0.373
-117.137	-106.748	-0.050	0.011
-116.122	332.277	-0.107	-0.203
-115.107	-91.325	0.182	-0.051
-114.093	-66.082	0.129	-0.051
-113.078	-200.000	0.002	0.244
-112.064	-104.777	-0.119	0.027
-111.049	-11.898	-0.235	-0.152
-110.034	467.727	-0.050	-0.111
-109.020	-86.958	0.351	0.105
-108.005	-55.431	-0.368	-0.163
-106.991	-62.555	0.132	0.054
-105.976	493.858	-0.134	-0.303
-104.962	59.728	-0.158	0.154
-103.947	-1.603	0.464	0.322
-102.932	4.971	-0.371	-0.269
-101.918	-200.000	0.014	-0.378
-100.903	15.211	-0.122	0.094
-99.889	-54.869	0.133	0.059
-98.874	-200.000	0.086	-0.376
-97.859	672.768	0.019	0.048
-96.845	4.751	0.168	-0.121
-95.830	-35.907	0.329	-0.175
-94.816	23.290	-0.159	0.129
-93.801	204.553	-0.083	-0.126
-92.786	157.932	0.078	0.106
-91.772	-17.725	0.354	-0.219
-90.757	-200.000	0.017	-0.097
-89.743	57.919	-0.171	-0.165
-88.728	137.435	0.171	-0.220
-87.713	274.352	-0.133	0.232
-86.699	-146.575	0.385	-0.033
-85.684	-200.000	-0.077	0.338
-84.670	361.511	0.056	-0.110
-83.655	800.000	-0.031	0.112
-82.640	800.000	-0.050	-0.168
-81.626	-200.000	-0.006	0.099
-80.611	800.000	0.018	0.050
-79.597	-194.298	0.374	0.003
-78.582	160.171	0.180	0.247
-77.567	800.000	0.076	-0.304
-76.553	-16.801	0.300	0.187
-75.538	26.638	-0.227	-0.187
-74.524	-49.631	0.169	-0.079
-73.509	-38.656	-0.370	-0.192
-72.494	484.831	0.045	0.102
-71.480	-5.989	0.150	0.101
-70.465	-200.000	-0.003	0.278
-69.451	-200.000	0.011	-0.051
-68.436	-200.000	0.012	-0.172
-67.422	43.072	-0.262	-0.235
-66.407	617.672	-0.116	-0.286
-65.392	263.324	0.120	-0.205
-64.378	-130.068	0.317	0.043
-63.363	287.782	-0.190	-0.338
-62.349	204.885	0.056	0.086
-61.334	75.647	-0.976	-1.013
-60.319	-8.049	0.693	0.459
-59.305	127.512	-0.733	-0.915
-58.290	177.678	0.867	1.242
-57.276	365.354	0.646	1.279
-56.261	-200.000	107.605	588.911
-55.246	449.144	1473.612	3193.224
-54.232	147.361	2656.935	3516.313
-53.217	106.673	2159.451	2518.451
-52.203	41.242	1607.475	1428.353
-51.188	33.161	1347.230	1148.237
-50.173	30.184	1305.869	1095.384
-49.159	54.184	1358.849	1285.026
-48.144	54.609	1374.655	1302.479
-47.130	33.440	1329.825	1134.893
-46.115	30.045	1312.131	1099.639
-45.100	29.710	1307.589	1093.804
-44.086	29.645	1304.950	1091.172
-43.071	29.760	1301.981	1089.320
-42.057	29.614	1300.336	1087.042
-41.042	29.580	1298.696	1085.431
-40.027	29.673	1297.217	1084.694
-39.013	29.646	1295.166	1082.783
-37.998	29.710	1293.119	1081.403
-36.984	29.779	1292.012	1080.837
-35.969	29.717	1290.119	1078.847
-34.954	29.654	1288.760	1077.300
-33.940	29.895	1287.066	1077.245
-32.925	29.827	1285.838	1075.776
-31.911	29.799	1284.394	1074.364
-30.896	29.897	1283.089	1073.800
-29.881	29.910	1281.450	1072.458
-28.867	29.916	1280.264	1071.462
-27.852	29.773	1278.999	1069.532
-26.838	29.929	1276.939	1068.665
-25.823	29.820	1276.019	1067.226
-24.809	29.759	1275.210	1066.159
-23.794	29.817	1273.494	1065.016
-22.779	29.813	1272.098	1063.779
-21.765	29.807	1271.012	1062.793
-20.750	29.802	1269.913	1061.806
-19.736	29.732	1268.289	1060.006
-18.721	29.757	1266.527	1058.631
-17.706	29.687	1266.144	1057.870
-16.692	29.737	1264.765	1056.964
-15.677	29.634	1264.131	1055.800
-14.663	29.708	1262.869	1055.129
-13.648	29.659	1261.896	1053.992
-12.633	29.760	1260.468	1053.337
-11.619	29.639	1259.990	1052.206
-10.604	29.782	1258.720	1051.913
-9.590	29.697	1257.756	1050.583
-8.575	29.580	1257.028	1049.271
-7.560	29.629	1255.780	1048.463
-6.546	29.734	1255.382	1048.686
-5.531	29.730	1254.438	1047.835
-4.517	29.712	1253.121	1046.590
-3.502	29.770	1252.757	1046.572
-2.487	29.741	1251.763	1045.538
-1.473	29.762	1247.104	1041.723
-0.458	28.259	1232.725	1021.291
0.556	22.887	1215.912	983.152
1.571	19.046	1221.998	966.453
2.586	18.312	1236.596	973.737
3.600	17.990	1225.838	963.367
4.615	13.285	1153.355	881.299
5.629	4.670	1077.111	779.924
6.644	0.446	1057.576	744.884
7.659	0.023	1055.158	741.030
8.673	0.150	1053.873	740.688
9.688	-0.047	1052.615	738.769
10.702	0.315	1050.934	739.301
11.717	5.408	1057.980	769.295
12.731	13.845	1068.949	818.991
13.746	17.380	1073.068	839.548
14.761	17.036	1071.726	836.730
15.775	16.036	1069.559	830.040
16.790	14.973	1067.568	823.195
17.804	14.372	1066.002	818.961
18.819	13.921	1065.017	815.919
19.834	13.751	1063.868	814.131
20.848	13.507	1063.045	812.230
21.863	13.285	1062.412	810.586
22.877	13.073	1061.566	808.830
23.892	13.016	1060.774	807.880
24.907	13.025	1060.417	807.580
25.921	13.025	1059.603	806.887
26.936	13.060	1058.473	806.128
27.950	13.075	1057.867	805.666
28.965	13.184	1056.453	805.049
29.980	13.311	1055.027	804.512
30.994	13.372	1054.133	804.052
32.009	13.380	1053.006	803.163
33.023	13.326	1052.364	802.339
34.038	13.198	1051.516	801.000
35.053	13.314	1050.117	800.427
36.067	13.145	1049.540	799.096
37.082	13.193	1048.931	798.794
38.096	13.337	1047.707	798.489
39.111	13.318	1046.761	797.604
40.126	13.127	1046.109	796.117
41.140	13.066	1045.309	795.142
42.155	13.053	1043.442	793.590
43.169	13.046	1043.193	793.300
44.184	12.902	1042.383	791.919
45.199	12.968	1040.971	791.094
46.213	13.059	1039.672	790.473
47.228	13.226	1037.955	789.895
48.242	13.234	1037.081	789.198
49.257	13.080	1036.548	787.986
50.271	13.191	1035.774	787.858
51.286	13.261	1034.791	787.374
52.301	13.143	1034.013	786.151
53.315	13.165	1032.662	785.162
54.330	13.109	1031.408	783.870
55.344	13.116	1030.879	783.434
56.359	13.194	1029.995	783.060
57.374	13.162	1029.407	782.394
58.388	13.103	1028.498	781.355
59.403	13.019	1027.840	780.387
60.417	12.981	1026.754	779.313
61.432	13.051	1025.957	778.971
62.447	13.055	1025.317	778.438
63.461	13.042	1024.420	777.624
64.476	13.083	1023.337	776.925
65.490	12.945	1023.096	776.027
66.505	12.941	1022.452	775.450
67.520	13.072	1021.535	775.300
68.534	13.001	1020.862	774.387
69.549	13.005	1020.100	773.761
70.563	12.965	1019.255	772.864
71.578	12.829	1018.575	771.643
72.593	12.917	1017.472	771.150
73.607	12.896	1017.180	770.762
74.622	12.937	1016.413	770.304
75.636	13.074	1015.586	770.250
76.651	12.991	1014.501	768.972
77.666	12.895	1014.345	768.337
78.680	12.988	1013.313	767.920
79.695	12.898	1013.233	767.373
80.709	13.023	1012.119	767.041
81.724	13.044	1011.694	766.750
82.739	13.070	1010.884	766.187
83.753	13.147	1010.499	766.187
84.768	13.174	1009.309	765.342
85.782	13.293	1008.680	765.349
86.797	13.229	1007.611	764.173
87.812	13.230	1007.105	763.729
88.826	13.200	1005.661	762.427
89.841	13.234	1004.569	761.686
90.855	13.213	1004.129	761.191
91.870	13.310	1002.966	760.688
92.884	13.154	1002.493	759.541
93.899	13.277	1001.777	759.501
94.914	13.387	1000.601	759.044
95.928	13.328	1000.018	758.266
96.943	13.317	998.831	757.245
97.957	13.225	998.485	756.497
98.972	13.245	997.326	755.641
99.987	13.262	996.033	754.676
101.001	13.146	995.495	753.670
102.016	13.226	994.908	753.522
103.030	13.303	993.813	752.977
104.045	13.289	993.428	752.559
105.060	13.211	992.414	751.367
106.074	13.188	991.252	750.315
107.089	13.177	990.275	749.459
108.103	13.191	989.652	748.988
109.118	12.993	988.987	747.521
110.133	13.065	988.072	747.089
111.147	13.123	986.584	746.159
112.162	13.139	986.063	745.773
113.176	13.228	985.376	745.586
114.191	13.182	984.713	744.813
115.206	12.991	984.417	743.661
116.220	13.137	983.407	743.490
117.235	13.140	982.352	742.639
118.249	13.256	981.214	742.233
119.264	13.199	980.666	741.499
120.279	13.185	979.798	740.716
121.293	13.097	978.865	739.547
122.308	13.126	978.276	739.171
123.322	13.087	976.979	737.948
124.337	13.098	976.157	737.315
125.352	13.076	975.317	736.515
126.366	13.112	974.320	735.855
127.381	13.122	973.218	735.004
128.395	13.217	972.086	734.506
129.410	13.156	971.387	733.640
130.424	13.168	970.831	733.208
131.439	13.127	969.793	732.180
132.454	13.271	969.068	732.207
133.468	13.384	967.821	731.699
134.483	13.209	967.778	730.826
135.497	13.132	966.644	729.568
136.512	13.313	965.620	729.527
137.527	13.281	964.638	728.581
138.541	13.294	963.801	727.941
139.556	13.216	963.543	727.337
140.570	13.351	962.451	727.044
141.585	13.391	961.610	726.518
142.600	13.399	960.909	725.962
143.614	13.387	960.009	725.163
144.629	13.396	959.317	724.618
145.643	13.488	957.972	723.939
146.658	13.393	957.007	722.729
147.673	13.267	956.149	721.466
148.687	13.298	955.584	721.114
149.702	13.259	954.734	720.240
150.716	13.359	953.977	720.038
151.731	13.256	952.686	718.552
152.746	13.238	952.805	718.499
153.760	13.306	951.987	718.117
154.775	13.372	951.429	717.915
155.789	13.481	950.591	717.694
156.804	13.467	949.787	716.965
157.819	13.458	949.495	716.638
158.833	13.575	948.722	716.500
159.848	13.621	947.913	716.021
160.862	13.419	947.267	714.602
161.877	13.447	945.878	713.608
162.892	13.367	944.982	712.525
163.906	13.345	943.968	711.604
164.921	13.471	942.975	711.334
165.935	13.470	942.128	710.627
166.950	13.485	941.367	710.054
167.964	13.454	940.783	709.420
168.979	13.426	940.124	708.740
169.994	13.397	938.836	707.583
171.008	13.431	938.553	707.449
172.023	13.610	937.313	707.217
173.037	13.580	936.716	706.577
174.052	13.592	935.815	705.887
175.067	13.546	935.378	705.298
176.081	13.531	934.667	704.635
177.096	13.565	934.247	704.402
178.110	13.538	933.932	703.986
179.125	13.484	933.305	703.225
180.140	13.636	932.436	703.150
181.154	13.593	932.456	702.919
182.169	13.572	932.174	702.556
183.183	13.603	931.279	701.950
184.198	13.894	929.945	702.114
185.213	13.600	929.917	700.788
186.227	13.765	928.913	700.667
187.242	13.837	928.169	700.348
188.256	13.816	927.775	699.900
189.271	13.726	926.860	698.766
190.286	13.665	925.764	697.623
191.300	13.525	925.145	696.505
192.315	13.475	924.872	696.030
193.329	13.595	924.145	695.924
194.344	13.647	923.677	695.729
195.359	13.688	922.873	695.234
196.373	13.759	922.245	694.996
197.388	13.817	922.080	695.052
198.402	14.054	921.403	695.473
199.417	13.942	920.701	694.414
200.432	14.049	920.310	694.505
201.446	14.140	919.835	694.466
202.461	14.057	919.100	693.502
203.475	14.047	918.929	693.268
204.490	13.930	918.157	692.139
205.504	14.055	916.891	691.644
206.519	14.042	916.123	690.950
207.534	13.855	915.818	689.880
208.548	13.977	915.143	689.818
209.563	13.945	914.432	689.086
210.577	14.014	913.790	688.826
211.592	14.125	913.308	688.864
212.607	14.059	912.353	687.809
213.621	14.088	911.465	687.199
214.636	14.146	910.784	686.866
215.650	14.197	909.961	686.395
216.665	14.166	909.372	685.761
217.680	14.191	908.658	685.264
218.694	14.387	907.627	685.233
219.709	14.327	907.377	684.735
220.723	14.308	906.473	683.914
221.738	14.240	905.636	682.944
222.753	14.337	905.301	683.028
223.767	14.369	904.711	682.656
224.782	14.425	904.026	682.306
225.796	14.359	903.775	681.787
226.811	14.346	903.044	681.122
227.826	14.371	901.998	680.376
228.840	14.355	901.599	679.950
229.855	14.322	901.079	679.362
230.869	14.354	899.924	678.562
231.884	14.234	899.382	677.604
232.899	14.392	898.545	677.556
233.913	14.307	898.062	676.787
234.928	14.319	897.229	676.147
235.942	14.287	896.918	675.721
236.957	14.382	896.043	675.388
237.972	14.220	895.891	674.558
238.986	14.175	895.441	673.979
240.001	14.404	894.066	673.810
241.015	14.441	893.497	673.472
242.030	14.314	893.300	672.750
243.045	14.400	892.624	672.526
244.059	14.538	892.074	672.609
245.074	14.478	891.134	671.601
246.088	14.487	890.857	671.368
247.103	14.690	889.768	671.305
248.117	14.627	889.369	670.691
249.132	14.739	888.703	670.579
250.147	14.673	888.389	670.019
251.161	14.750	887.726	669.769
252.176	14.758	887.182	669.329
253.190	14.847	886.260	668.929
254.205	14.932	885.482	668.626
255.220	14.811	885.135	667.820
256.234	14.841	884.467	667.379
257.249	14.925	883.630	667.020
258.263	14.866	883.062	666.299
259.278	14.953	882.015	665.795
260.293	14.952	882.035	665.747
261.307	14.939	881.314	665.092
262.322	14.960	880.471	664.480
263.336	15.019	879.964	664.275
264.351	15.120	878.654	663.626
265.366	14.948	878.748	662.958
266.380	14.878	878.037	662.085
267.395	15.083	876.905	661.986
268.409	15.030	876.323	661.275
269.424	14.999	875.565	660.524
270.439	15.002	875.163	660.174
271.453	15.039	874.110	659.468
272.468	15.109	873.850	659.486
273.482	14.981	873.666	658.785
274.497	15.019	873.027	658.394
275.512	15.088	872.462	658.182
276.526	15.058	871.381	657.192
277.541	15.066	871.302	657.105
278.555	15.206	870.567	657.041
279.570	15.262	869.861	656.669
280.585	15.205	869.254	655.932
281.599	15.189	868.343	655.121
282.614	15.215	867.751	654.718
283.628	15.275	867.284	654.542
284.643	15.171	866.715	653.649
285.657	15.281	865.791	653.324
286.672	15.308	865.666	653.278
287.687	15.267	864.916	652.494
288.701	15.255	864.631	652.174
289.716	15.403	863.644	651.950
290.730	15.325	863.087	651.168
291.745	15.211	862.597	650.299
292.760	15.349	862.074	650.381
293.774	15.483	861.293	650.252
294.789	15.468	860.407	649.468
295.803	15.382	860.318	649.011
296.818	15.361	859.479	648.240
297.833	15.477	858.507	647.897
298.847	15.381	858.427	647.409
299.862	15.466	857.585	647.044
300.876	15.647	856.878	647.151
301.891	15.565	856.788	646.710
302.906	15.482	856.181	645.875
303.920	15.631	855.501	645.877
304.935	15.705	855.082	645.787
305.949	15.595	854.497	644.865
306.964	15.694	853.492	644.430
307.979	15.557	853.245	643.663
308.993	15.722	852.522	643.692
310.008	15.632	852.044	642.930
311.022	15.785	851.150	642.783
312.037	15.742	850.656	642.187
313.052	15.615	850.268	641.353
314.066	15.672	849.667	641.060
315.081	15.717	849.224	640.842
316.095	15.746	848.473	640.330
317.110	15.579	847.880	639.189
318.125	15.645	847.344	638.978
319.139	15.647	846.970	638.650
320.154	15.643	846.695	638.371
321.168	15.760	845.932	638.183
322.183	15.832	845.159	637.814
323.197	15.831	844.821	637.501
324.212	15.696	844.782	636.903
325.227	15.823	843.651	636.474
326.241	15.703	843.270	635.678
327.256	15.813	842.679	635.589
328.270	15.765	841.998	634.840
329.285	15.816	841.403	634.528
330.300	15.759	840.837	633.828
331.314	15.804	840.622	633.779
332.329	15.812	839.841	633.167
333.343	15.868	839.677	633.195
334.358	15.867	839.099	632.699
335.373	15.855	838.784	632.361
336.387	15.952	838.213	632.239
337.402	16.074	838.182	632.619
338.416	15.944	837.969	631.913
339.431	15.990	837.529	631.699
340.446	15.999	836.909	631.209
341.460	16.144	836.296	631.232
342.475	16.102	836.172	630.926
343.489	16.321	835.452	631.145
344.504	16.196	835.078	630.339
345.519	16.146	834.612	629.746
346.533	16.252	833.941	629.580
347.548	16.245	833.687	629.308
348.562	16.259	832.917	628.721
349.577	16.134	832.185	627.647
350.592	16.223	831.789	627.627
351.606	16.217	831.344	627.211
352.621	16.121	830.585	626.225
353.635	16.267	829.879	626.181
354.650	16.428	829.233	626.235
355.665	16.288	828.953	625.450
356.679	16.211	828.253	624.579
357.694	16.220	827.991	624.361
358.708	16.117	827.331	623.426
359.723	16.311	826.373	623.366
360.738	16.313	825.991	623.029
361.752	16.464	825.086	622.849
362.767	16.572	824.339	622.627
363.781	16.476	824.233	622.137
364.796	16.436	823.302	621.234
365.810	16.573	823.113	621.541
366.825	16.477	823.158	621.165
367.840	16.569	822.394	620.871
368.854	16.487	821.911	620.154
369.869	16.481	821.414	619.699
370.883	16.531	821.265	619.716
371.898	16.641	820.715	619.649
372.913	16.654	820.261	619.301
373.927	16.530	819.649	618.329
374.942	16.556	819.635	618.358
375.956	16.654	819.101	618.260
376.971	16.777	818.343	618.083
377.986	16.694	818.280	617.676
379.000	16.821	817.462	617.466
380.015	16.792	816.755	616.772
381.029	16.891	816.287	616.725
382.044	17.023	815.412	616.488
383.059	16.894	815.208	615.812
384.073	17.020	814.331	615.552
385.088	16.845	813.932	614.559
386.102	16.908	813.605	614.489
387.117	16.941	812.630	613.817
388.132	16.899	812.369	613.414
389.146	16.858	811.476	612.537
390.161	16.880	811.433	612.531
391.175	16.936	810.914	612.287
392.190	16.986	810.237	611.900
393.205	16.782	810.137	611.035
394.219	16.641	810.025	610.388
395.234	16.826	809.291	610.447
396.248	16.678	809.024	609.660
397.263	16.945	808.254	609.987
398.278	16.839	807.856	609.249
399.292	16.985	807.518	609.465
400.307	16.924	806.912	608.736
401.321	16.966	806.238	608.325
402.336	16.883	806.251	607.983
403.350	16.937	805.975	607.915
404.365	17.113	805.444	608.092
405.380	17.011	804.596	607.031
406.394	17.206	804.077	607.283
407.409	17.082	803.890	606.646
408.423	17.196	803.355	606.594
409.438	17.343	803.113	606.882
410.453	17.242	802.819	606.246
411.467	17.223	802.490	605.875
412.482	17.306	802.227	605.920
413.496	17.408	801.543	605.713
414.511	17.318	801.421	605.248
415.526	17.358	800.580	604.699
416.540	17.329	800.209	604.264
417.555	17.412	799.562	604.017
418.569	17.340	799.347	603.545
419.584	17.309	799.066	603.169
420.599	17.427	798.835	603.360
421.613	108.750	1292.491	1468.441
422.628	93.514	1364.423	1468.561
