DTS Sentinel unit serial number:	SN413079Multiplexer serial number:	ORYXHardware model number:	OX4-SRSoftware version number:	ORYX F/W v4.00 Oryx Data Collector v3.7.2.0data status	okinstallation	princeton_trtdifferential loss correction	single-endedforward channel	channel 1reverse channel	N/Adate	2019/09/13time	06:10:35forward acquisition time	60.00reverse acquisition time	0.00gamma	496.2192k internal	0.2335k external	0.2335temperature offset calibration	1.0154default loss term (dB/km)	0.3790temperature slope calibration	1.0000multiplexer offset coefficient	1.0000multiplexer slope coefficient	1.0000fibre end	0.00T internal ref (°C)	26.12T ext. ref 1 (°C)	4.07T ext. ref 2 (°C)	20.93length (m)	temperature (°C)	Stokes	anti-Stokes-747.200	-54.721	0.289	0.131
-746.185	-97.873	-0.109	-0.028
-745.171	800.000	-0.063	-0.223
-744.156	-191.794	-0.048	0.000
-743.142	50.642	-0.210	0.199
-742.127	-200.000	0.023	0.200
-741.112	305.526	0.165	0.307
-740.098	711.755	0.096	0.255
-739.083	-133.517	0.290	-0.037
-738.069	-200.000	0.025	0.333
-737.054	-4.730	-0.237	0.164
-736.039	310.667	-0.154	0.289
-735.025	-122.158	0.412	-0.068
-734.010	-16.383	0.105	-0.067
-732.996	-162.738	-0.236	-0.012
-731.981	186.588	0.157	0.235
-730.966	147.528	-0.156	-0.211
-729.952	-60.191	0.086	0.037
-728.937	-90.413	0.315	-0.092
-727.923	112.978	0.228	0.278
-726.908	-88.757	-0.357	0.107
-725.894	-87.847	-0.321	-0.097
-724.879	800.000	-0.117	-0.335
-723.864	-142.317	-0.349	0.035
-722.850	138.570	-0.189	0.248
-721.835	-51.850	-0.212	-0.099
-720.821	7.351	-0.178	-0.134
-719.806	-19.108	-0.063	0.039
-718.791	-111.269	-0.095	0.019
-717.777	79.334	-0.074	0.080
-716.762	-79.880	-0.316	0.107
-715.748	52.996	0.106	0.102
-714.733	-200.000	0.029	-0.220
-713.718	-82.322	0.208	0.068
-712.704	598.816	-0.011	0.026
-711.689	128.842	-0.251	0.322
-710.675	-200.000	-0.021	0.245
-709.660	-60.544	0.151	0.064
-708.645	-200.000	-0.001	-0.045
-707.631	764.287	-0.102	-0.278
-706.616	4.329	-0.053	0.039
-705.602	-110.109	0.358	0.075
-704.587	800.000	0.126	-0.366
-703.572	59.654	0.343	0.339
-702.558	10.945	-0.114	-0.088
-701.543	628.433	-0.041	0.103
-700.529	-191.388	0.157	0.002
-699.514	28.242	0.284	-0.241
-698.499	-20.811	-0.086	-0.053
-697.485	91.618	0.198	0.223
-696.470	-200.000	-0.047	-0.228
-695.456	-200.000	0.009	-0.127
-694.441	-90.298	0.154	0.045
-693.426	216.749	0.065	0.104
-692.412	-38.307	0.297	0.158
-691.397	-52.302	-0.148	-0.069
-690.383	-88.422	-0.437	0.131
-689.368	800.000	-0.079	-0.287
-688.354	-139.699	-0.429	0.046
-687.339	-3.080	0.164	0.115
-686.324	166.733	-0.130	0.185
-685.310	-145.133	-0.349	-0.032
-684.295	23.798	0.288	-0.238
-683.281	41.938	-0.141	-0.129
-682.266	94.052	-0.165	-0.187
-681.251	-16.127	-0.130	0.083
-680.237	-200.000	-0.036	-0.184
-679.222	800.000	0.103	0.305
-678.208	-32.498	0.352	0.196
-677.193	-188.309	-0.385	-0.005
-676.178	-54.762	-0.257	0.116
-675.164	-4.104	-0.296	0.205
-674.149	-4.870	0.010	-0.007
-673.135	-130.128	0.168	-0.023
-672.120	800.000	-0.021	0.079
-671.105	-24.890	-0.145	0.086
-670.091	90.221	-0.092	0.103
-669.076	616.701	-0.052	-0.130
-668.062	171.306	-0.268	-0.385
-667.047	207.173	-0.038	-0.059
-666.032	1.872	-0.162	0.117
-665.018	299.441	-0.050	0.092
-664.003	-200.000	-0.025	-0.179
-662.989	-10.536	0.310	-0.205
-661.974	411.303	0.068	0.145
-660.959	-80.411	-0.593	-0.198
-659.945	-55.796	-0.128	-0.057
-658.930	-42.535	0.490	0.250
-657.916	53.273	0.016	-0.015
-656.901	435.978	-0.141	-0.308
-655.886	-32.713	-0.197	0.110
-654.872	-74.405	0.263	0.095
-653.857	248.325	0.164	0.278
-652.843	-35.351	-0.141	0.077
-651.828	800.000	-0.029	-0.112
-650.814	-132.585	0.157	-0.020
-649.799	183.204	0.285	0.422
-648.784	35.075	0.156	-0.137
-647.770	270.199	0.275	-0.484
-646.755	88.907	-0.071	-0.079
-645.741	-200.000	-0.013	-0.196
-644.726	556.105	0.076	-0.183
-643.711	98.108	0.251	-0.289
-642.697	-162.702	-0.187	-0.009
-641.682	-85.336	-0.109	-0.034
-640.668	-64.912	-0.108	0.044
-639.653	-16.036	-0.178	-0.113
-638.638	46.406	-0.091	0.084
-637.624	-31.630	-0.143	0.080
-636.609	-200.000	-0.017	-0.117
-635.595	-60.009	0.314	-0.134
-634.580	63.639	-0.273	0.274
-633.565	-123.434	0.288	0.046
-632.551	112.727	-0.190	-0.230
-631.536	98.389	-0.128	-0.148
-630.522	282.164	-0.090	-0.162
-629.507	-17.046	0.050	0.032
-628.492	-118.381	-0.201	0.036
-627.478	-114.022	0.221	-0.043
-626.463	585.631	0.153	-0.377
-625.449	61.412	-0.080	-0.079
-624.434	53.760	-0.017	-0.016
-623.419	-150.356	-0.163	-0.013
-622.405	91.247	0.175	-0.196
-621.390	-200.000	0.045	0.293
-620.376	-200.000	0.025	-0.204
-619.361	98.050	0.138	0.159
-618.346	800.000	0.026	0.096
-617.332	-74.344	0.017	0.006
-616.317	-200.000	-0.044	0.240
-615.303	800.000	0.133	-0.383
-614.288	3.006	0.238	0.173
-613.273	800.000	-0.098	-0.322
-612.259	800.000	0.127	-0.410
-611.244	800.000	0.021	0.074
-610.230	32.394	0.157	-0.136
-609.215	-79.692	0.205	-0.069
-608.201	181.535	-0.182	0.268
-607.186	-200.000	-0.065	0.380
-606.171	-200.000	-0.012	-0.135
-605.157	17.508	-0.321	0.254
-604.142	87.706	-0.154	-0.170
-603.128	228.569	-0.035	-0.057
-602.113	132.071	0.140	-0.180
-601.098	-169.279	0.324	-0.012
-600.084	-147.572	0.288	0.024
-599.069	-29.607	-0.200	0.114
-598.055	71.743	-0.295	0.306
-597.040	86.274	-0.073	0.080
-596.025	-8.986	0.326	-0.218
-595.011	-131.777	-0.184	-0.024
-593.996	52.802	0.116	0.111
-592.982	-103.835	-0.390	0.091
-591.967	-27.175	0.298	0.173
-590.952	-90.729	-0.036	-0.010
-589.938	90.249	0.235	0.262
-588.923	-83.246	0.235	-0.075
-587.909	800.000	0.060	0.239
-586.894	265.566	0.069	-0.120
-585.879	80.118	0.125	-0.134
-584.865	477.238	-0.094	0.213
-583.850	-59.428	-0.317	0.136
-582.836	6.742	-0.219	-0.163
-581.821	-167.260	0.102	-0.004
-580.806	-106.483	0.168	0.038
-579.792	156.255	0.117	-0.162
-578.777	-0.707	-0.057	0.040
-577.763	-135.714	-0.382	-0.045
-576.748	369.453	-0.051	0.102
-575.733	39.391	0.358	0.320
-574.719	52.943	0.152	-0.145
-573.704	-155.935	0.283	-0.018
-572.690	83.571	0.110	0.120
-571.675	128.479	0.049	-0.063
-570.661	209.236	0.174	-0.271
-569.646	-4.123	-0.182	0.126
-568.631	800.000	0.074	0.226
-567.617	147.749	-0.212	0.286
-566.602	-200.000	0.004	0.150
-565.588	196.631	0.188	0.285
-564.573	-200.000	0.018	-0.085
-563.558	51.224	-0.128	0.121
-562.544	-133.545	-0.174	-0.022
-561.529	-106.248	-0.286	-0.064
-560.515	703.729	0.098	-0.259
-559.500	149.214	-0.174	0.234
-558.485	-106.775	0.190	-0.042
-557.471	800.000	0.068	-0.236
-556.456	-104.774	-0.506	-0.116
-555.442	-8.099	0.172	0.116
-554.427	-29.906	-0.322	0.183
-553.412	-200.000	0.048	0.331
-552.398	-8.669	-0.140	-0.093
-551.383	-152.373	-0.114	0.008
-550.369	-200.000	0.023	-0.169
-549.354	-61.024	-0.182	0.077
-548.339	-115.504	0.063	-0.012
-547.325	91.412	0.159	-0.178
-546.310	-200.000	-0.035	-0.322
-545.296	-143.749	0.265	0.025
-544.281	-200.000	0.005	-0.092
-543.266	642.045	-0.056	-0.143
-542.252	-36.009	0.155	0.083
-541.237	247.341	0.048	-0.081
-540.223	-83.115	-0.316	-0.101
-539.208	542.647	0.058	0.139
-538.193	-200.000	-0.025	0.378
-537.179	113.103	0.184	0.223
-536.164	800.000	0.114	-0.346
-535.150	-107.210	-0.129	0.028
-534.135	800.000	-0.151	-0.457
-533.121	65.792	0.124	-0.125
-532.106	27.953	-0.288	-0.242
-531.091	800.000	0.086	-0.271
-530.077	800.000	0.023	0.081
-529.062	18.019	-0.203	0.161
-528.048	-137.335	0.206	0.023
-527.033	24.913	0.101	-0.084
-526.018	-200.000	-0.035	0.281
-525.004	-176.206	0.121	0.003
-523.989	33.258	-0.380	0.328
-522.975	-167.848	0.202	0.008
-521.960	-50.954	-0.092	-0.043
-520.945	-57.812	0.029	0.013
-519.931	800.000	0.141	0.414
-518.916	95.811	0.077	0.087
-517.902	800.000	-0.091	0.392
-516.887	-12.819	0.133	0.086
-515.872	-115.347	0.319	-0.060
-514.858	-128.325	0.042	0.006
-513.843	-155.423	0.239	0.015
-512.829	-81.932	0.370	0.121
-511.814	-48.157	0.138	-0.066
-510.799	13.463	-0.114	0.088
-509.785	151.569	-0.108	-0.146
-508.770	-200.000	0.029	-0.198
-507.756	-97.705	0.422	-0.109
-506.741	-10.079	-0.049	-0.032
-505.726	87.916	-0.149	-0.165
-504.712	70.802	-0.024	0.025
-503.697	36.073	0.121	0.106
-502.683	-118.277	-0.416	0.074
-501.668	-118.850	0.246	-0.043
-500.653	273.117	-0.146	0.257
-499.639	42.043	-0.046	0.041
-498.624	-153.325	0.227	-0.016
-497.610	43.985	0.229	-0.209
-496.595	76.964	-0.198	-0.210
-495.581	800.000	0.121	-0.337
-494.566	-147.331	-0.179	-0.015
-493.551	-79.945	-0.231	0.077
-492.537	-143.582	-0.236	0.022
-491.522	209.519	0.247	0.384
-490.508	-200.000	0.002	0.064
-489.493	-200.000	-0.007	0.143
-488.478	-147.035	0.450	0.038
-487.464	65.597	-0.270	-0.272
-486.449	-200.000	0.040	0.226
-485.435	38.419	-0.220	0.195
-484.420	-200.000	0.020	0.245
-483.405	178.663	0.109	0.158
-482.391	-150.671	-0.235	-0.018
-481.376	-90.157	0.173	0.050
-480.362	296.849	-0.080	-0.146
-479.347	229.442	-0.080	0.130
-478.332	-200.000	0.006	0.367
-477.318	800.000	0.019	-0.080
-476.303	-200.000	-0.018	0.187
-475.289	-200.000	0.085	-0.390
-474.274	-200.000	-0.022	0.250
-473.259	800.000	-0.045	-0.130
-472.245	-145.857	0.265	-0.023
-471.230	-200.000	0.107	-0.480
-470.216	-67.213	0.291	-0.114
-469.201	-200.000	-0.014	-0.105
-468.186	164.199	0.052	-0.072
-467.172	237.065	0.072	0.119
-466.157	118.200	0.147	-0.180
-465.143	-200.000	-0.027	-0.241
-464.128	-124.388	0.286	0.044
-463.113	478.742	-0.087	-0.196
-462.099	-82.018	0.182	-0.059
-461.084	-47.246	-0.181	0.087
-460.070	218.485	-0.122	-0.194
-459.055	800.000	0.037	-0.116
-458.040	-146.517	-0.271	-0.023
-457.026	41.237	0.058	0.052
-456.011	-43.611	0.212	-0.106
-454.997	77.314	0.241	0.254
-453.982	-46.847	0.277	0.134
-452.968	235.327	-0.149	-0.244
-451.953	-153.887	-0.066	0.004
-450.938	-104.814	-0.108	0.025
-449.924	708.195	-0.066	-0.172
-448.909	137.107	-0.028	-0.036
-447.895	267.608	-0.146	0.255
-446.880	800.000	-0.068	0.199
-445.865	644.702	-0.106	-0.268
-444.851	-102.621	-0.295	-0.070
-443.836	366.715	-0.054	-0.107
-442.822	-71.416	0.190	-0.071
-441.807	-200.000	-0.014	-0.120
-440.792	-154.324	-0.407	-0.027
-439.778	800.000	0.028	-0.109
-438.763	-200.000	0.017	0.138
-437.749	10.037	0.258	-0.194
-436.734	-200.000	0.042	0.215
-435.719	45.290	-0.184	0.169
-434.705	128.276	-0.248	0.314
-433.690	-200.000	-0.006	0.533
-432.676	54.317	0.270	0.258
-431.661	-68.378	-0.231	0.089
-430.646	-200.000	0.022	0.149
-429.632	117.934	-0.127	-0.155
-428.617	753.555	0.014	-0.038
-427.603	270.720	0.040	-0.070
-426.588	-56.284	-0.190	-0.084
-425.573	-118.787	0.204	0.036
-424.559	-56.482	0.242	0.106
-423.544	-140.992	-0.268	-0.027
-422.530	-12.368	0.283	-0.184
-421.515	-62.390	-0.130	0.054
-420.500	-200.000	-0.001	0.061
-419.486	-200.000	0.012	0.151
-418.471	-200.000	0.002	-0.462
-417.457	800.000	0.050	-0.161
-416.442	-200.000	0.231	0.000
-415.428	800.000	0.128	-0.445
-414.413	-200.000	0.075	0.330
-413.398	-150.300	-0.289	-0.022
-412.384	-14.365	-0.240	-0.153
-411.369	18.724	-0.155	-0.123
-410.355	-33.269	-0.137	-0.075
-409.340	247.443	-0.159	0.266
-408.325	268.264	-0.133	-0.231
-407.311	276.387	0.168	0.296
-406.296	800.000	-0.065	0.271
-405.282	92.162	-0.254	0.284
-404.267	14.810	-0.048	-0.037
-403.252	-173.938	-0.174	0.005
-402.238	-200.000	-0.005	0.079
-401.223	-98.470	-0.142	0.036
-400.209	507.476	0.173	0.397
-399.194	-146.471	0.097	0.008
-398.179	800.000	-0.051	0.163
-397.165	58.037	0.045	-0.043
-396.150	-200.000	0.050	-0.245
-395.136	-93.321	0.039	-0.011
-394.121	172.487	-0.233	0.332
-393.106	-75.535	0.232	-0.082
-392.092	-167.309	-0.161	-0.006
-391.077	82.938	-0.053	-0.057
-390.063	546.597	-0.052	-0.122
-389.048	800.000	-0.141	0.392
-388.033	-45.704	-0.234	0.114
-387.019	-200.000	-0.008	0.128
-386.004	308.460	-0.076	0.140
-384.990	37.625	-0.143	-0.126
-383.975	-200.000	-0.001	0.031
-382.960	320.108	0.157	-0.295
-381.946	147.980	-0.196	0.262
-380.931	-200.000	0.010	-0.176
-379.917	670.749	0.179	-0.458
-378.902	-60.335	0.133	0.056
-377.888	522.852	0.089	0.208
-376.873	-26.677	0.238	0.138
-375.858	180.390	0.076	-0.110
-374.844	-52.991	-0.172	0.078
-373.829	-90.086	0.222	0.064
-372.815	15.516	-0.104	-0.081
-371.800	-200.000	-0.007	-0.190
-370.785	-7.984	-0.187	-0.125
-369.771	98.008	-0.178	-0.203
-368.756	406.978	0.105	-0.220
-367.742	-200.000	-0.023	-0.103
-366.727	226.583	-0.116	0.187
-365.712	426.480	0.083	-0.178
-364.698	-11.871	-0.269	-0.175
-363.683	10.512	-0.033	0.025
-362.669	800.000	-0.111	-0.325
-361.654	-47.226	-0.079	-0.038
-360.639	-169.468	0.180	-0.007
-359.625	-120.459	0.169	-0.028
-358.610	-146.186	-0.274	-0.024
-357.596	-35.070	0.266	0.143
-356.581	-120.892	-0.477	-0.079
-355.566	134.263	-0.297	0.381
-354.552	347.458	0.076	0.147
-353.537	220.553	0.044	0.070
-352.523	162.287	0.235	-0.325
-351.508	449.745	0.099	0.217
-350.493	-78.304	0.231	0.079
-349.479	161.042	0.209	-0.289
-348.464	562.560	0.081	-0.195
-347.450	661.346	0.013	-0.034
-346.435	94.087	-0.055	-0.062
-345.420	141.464	-0.045	-0.059
-344.406	68.393	-0.126	-0.127
-343.391	198.571	-0.029	-0.045
-342.377	-69.724	0.132	0.050
-341.362	61.441	-0.228	0.224
-340.348	-56.678	-0.212	0.093
-339.333	-42.905	-0.292	0.146
-338.318	-144.575	-0.492	-0.045
-337.304	800.000	0.040	0.122
-336.289	-200.000	0.010	-0.070
-335.275	800.000	0.084	0.253
-334.260	-26.903	-0.217	-0.125
-333.245	600.913	-0.070	-0.173
-332.231	-26.634	0.211	-0.122
-331.216	-83.716	0.242	0.076
-330.202	307.941	0.145	0.267
-329.187	-13.584	-0.145	0.093
-328.172	361.643	-0.072	-0.143
-327.158	-18.835	0.464	0.286
-326.143	20.100	0.195	-0.155
-325.129	-105.188	-0.066	-0.015
-324.114	119.107	0.309	0.378
-323.099	24.623	0.250	0.205
-322.085	-64.960	0.315	-0.126
-321.070	-200.000	0.047	-0.492
-320.056	-200.000	-0.007	0.071
-319.041	500.355	-0.144	0.328
-318.026	-200.000	-0.030	-0.194
-317.012	-138.885	-0.208	-0.022
-315.997	-66.940	0.306	0.119
-314.983	-52.697	-0.228	0.104
-313.968	-13.234	-0.046	-0.029
-312.953	69.160	-0.174	0.177
-311.939	-17.782	-0.024	-0.015
-310.924	120.483	-0.195	0.240
-309.910	61.914	-0.132	0.130
-308.895	-156.172	-0.263	-0.016
-307.880	26.877	0.132	-0.109
-306.866	319.513	0.062	-0.116
-305.851	-96.297	-0.108	-0.028
-304.837	-15.097	-0.234	0.148
-303.822	59.631	-0.020	-0.020
-302.807	800.000	-0.025	-0.099
-301.793	-200.000	-0.185	0.000
-300.778	-137.294	-0.097	-0.011
-299.764	526.154	-0.124	0.287
-298.749	-91.924	-0.367	0.103
-297.735	337.789	0.124	0.239
-296.720	-159.190	0.458	-0.025
-295.705	-200.000	0.038	0.232
-294.691	430.927	0.084	-0.180
-293.676	-143.002	0.325	-0.031
-292.662	122.736	-0.245	-0.303
-291.647	509.981	-0.194	-0.444
-290.632	-200.000	-0.019	-0.237
-289.618	52.115	-0.252	0.237
-288.603	-109.277	-0.084	0.017
-287.589	-42.395	0.214	-0.108
-286.574	25.805	0.168	0.138
-285.559	525.976	-0.095	-0.221
-284.545	263.799	0.061	0.104
-283.530	800.000	-0.089	-0.255
-282.516	245.801	-0.107	-0.178
-281.501	-200.000	-0.000	0.239
-280.486	-145.500	0.114	-0.010
-279.472	800.000	-0.095	-0.312
-278.457	14.947	-0.242	0.186
-277.443	-41.807	0.197	-0.100
-276.428	651.062	0.033	0.082
-275.413	-6.600	-0.259	0.174
-274.399	-200.000	0.012	-0.187
-273.384	43.563	0.181	0.163
-272.370	-15.048	-0.063	-0.040
-271.355	-97.818	-0.239	-0.061
-270.340	82.557	0.093	0.099
-269.326	-16.836	0.184	-0.115
-268.311	800.000	-0.067	-0.193
-267.297	112.100	-0.122	0.146
-266.282	427.752	-0.145	-0.309
-265.267	800.000	0.015	-0.052
-264.253	800.000	0.094	-0.265
-263.238	-7.068	-0.201	0.135
-262.224	506.152	-0.216	-0.494
-261.209	-79.728	0.429	0.143
-260.195	637.514	-0.138	-0.345
-259.180	615.615	0.102	0.253
-258.165	800.000	0.109	0.355
-257.151	-22.381	0.344	-0.205
-256.136	-191.612	0.291	-0.003
-255.122	-83.828	-0.413	-0.130
-254.107	-92.068	0.140	-0.039
-253.092	-37.176	-0.077	0.040
-252.078	471.560	-0.153	-0.338
-251.063	183.703	-0.094	-0.137
-250.049	-148.895	0.445	0.035
-249.034	-123.620	-0.188	-0.029
-248.019	123.835	0.149	-0.184
-247.005	21.141	0.187	0.150
-245.990	445.555	-0.031	0.066
-244.976	-200.000	0.035	-0.377
-243.961	132.889	-0.084	0.107
-242.946	481.713	-0.069	-0.155
-241.932	800.000	0.026	0.086
-240.917	468.711	0.185	-0.409
-239.903	121.210	0.137	-0.168
-238.888	386.480	0.215	0.437
-237.873	-200.000	-0.072	0.332
-236.859	483.542	-0.125	-0.280
-235.844	800.000	-0.066	0.234
-234.830	228.752	0.025	-0.040
-233.815	-87.604	-0.038	-0.011
-232.800	-30.639	0.356	0.198
-231.786	-112.981	-0.269	0.052
-230.771	247.427	0.215	0.357
-229.757	115.515	0.224	0.269
-228.742	800.000	-0.105	-0.338
-227.727	-144.143	-0.063	-0.006
-226.713	-26.357	-0.455	0.263
-225.698	352.886	0.123	0.240
-224.684	-77.944	0.291	0.099
-223.669	-200.000	-0.032	0.264
-222.655	-114.567	0.302	-0.057
-221.640	728.653	-0.041	-0.109
-220.625	35.282	-0.195	0.168
-219.611	121.357	0.299	-0.367
-218.596	-2.383	-0.094	0.065
-217.582	-116.350	0.309	-0.056
-216.567	-71.463	-0.400	-0.147
-215.552	800.000	0.044	0.130
-214.538	-115.308	0.090	0.017
-213.523	59.087	-0.038	-0.037
-212.509	48.499	-0.032	0.030
-211.494	800.000	0.076	-0.314
-210.479	-200.000	0.019	-0.210
-209.465	-143.512	0.395	0.037
-208.450	61.571	0.192	0.188
-207.436	105.955	0.148	0.172
-206.421	304.896	0.133	0.243
-205.406	419.385	0.100	0.210
-204.392	-200.000	0.013	-0.124
-203.377	157.617	-0.176	-0.239
-202.363	162.298	-0.092	-0.126
-201.348	182.593	0.207	0.301
-200.333	800.000	0.041	0.115
-199.319	552.390	0.010	0.025
-198.304	-14.595	-0.366	0.231
-197.290	-200.000	0.049	0.244
-196.275	29.050	-0.135	0.113
-195.260	-167.006	0.352	-0.014
-194.246	-29.137	0.398	0.224
-193.231	-200.000	-0.034	-0.174
-192.217	27.115	0.110	-0.091
-191.202	-86.441	-0.345	0.104
-190.187	-152.790	-0.253	-0.018
-189.173	-125.574	-0.125	0.019
-188.158	259.789	-0.168	0.284
-187.144	98.125	-0.142	-0.161
-186.129	-95.662	0.227	0.060
-185.114	-151.622	-0.255	0.019
-184.100	184.614	0.130	-0.190
-183.085	-66.148	-0.177	0.069
-182.071	-200.000	-0.028	-0.261
-181.056	-200.000	0.054	0.303
-180.042	-33.365	-0.097	-0.053
-179.027	-18.911	0.220	-0.134
-178.012	-12.089	-0.211	-0.136
-176.998	-119.672	-0.176	0.030
-175.983	-200.000	-0.045	-0.461
-174.969	527.140	-0.059	-0.136
-173.954	160.050	0.105	-0.143
-172.939	-18.515	-0.184	0.113
-171.925	167.683	-0.228	-0.319
-170.910	60.544	-0.173	0.169
-169.896	-56.557	-0.039	-0.017
-168.881	175.660	-0.115	0.164
-167.866	103.151	0.067	0.078
-166.852	302.317	0.036	0.065
-165.837	-62.821	0.220	0.089
-164.823	-15.910	0.307	0.192
-163.808	601.193	-0.039	-0.096
-162.793	-159.061	0.447	-0.025
-161.779	-120.023	-0.190	-0.032
-160.764	800.000	-0.015	-0.044
-159.750	74.386	-0.168	0.173
-158.735	-200.000	0.026	-0.208
-157.720	17.276	-0.119	-0.092
-156.706	164.398	-0.133	-0.185
-155.691	-48.729	-0.124	-0.058
-154.677	-102.297	-0.040	0.009
-153.662	800.000	0.029	0.120
-152.647	22.564	-0.094	0.076
-151.633	433.951	0.150	0.319
-150.618	-200.000	-0.016	-0.243
-149.604	-90.700	-0.530	0.150
-148.589	-67.844	-0.089	-0.034
-147.574	-83.879	0.089	-0.028
-146.560	131.844	-0.028	0.036
-145.545	644.333	0.047	-0.118
-144.531	579.912	-0.173	0.416
-143.516	72.146	-0.017	-0.017
-142.502	-101.766	0.267	0.063
-141.487	229.762	0.061	-0.098
-140.472	-84.640	0.048	0.015
-139.458	53.773	-0.173	-0.163
-138.443	-200.000	0.012	-0.271
-137.429	-9.544	-0.212	0.139
-136.414	-122.938	-0.284	-0.045
-135.399	29.816	0.210	-0.176
-134.385	-137.926	-0.250	-0.027
-133.370	164.582	0.161	0.222
-132.356	32.556	-0.094	-0.079
-131.341	-74.243	-0.136	0.048
-130.326	189.396	-0.059	0.086
-129.312	-200.000	-0.044	0.439
-128.297	-135.342	-0.274	0.032
-127.283	12.242	0.225	0.170
-126.268	-173.294	-0.200	-0.006
-125.253	-7.255	-0.229	-0.152
-124.239	316.375	-0.140	-0.258
-123.224	239.598	0.063	0.102
-122.210	-88.306	-0.088	-0.026
-121.195	800.000	-0.056	0.231
-120.180	316.411	-0.031	-0.056
-119.166	247.047	-0.169	0.279
-118.151	800.000	0.062	0.266
-117.137	-56.123	0.200	0.087
-116.122	62.713	0.126	0.124
-115.107	-200.000	0.013	0.086
-114.093	797.263	-0.077	-0.207
-113.078	-200.000	-0.059	-0.385
-112.064	-200.000	0.000	0.373
-111.049	99.620	0.185	0.210
-110.034	160.631	-0.015	0.021
-109.020	456.187	-0.100	0.218
-108.005	-41.617	0.232	-0.117
-106.991	800.000	0.044	0.126
-105.976	-200.000	0.032	0.155
-104.962	-166.776	0.212	-0.009
-103.947	800.000	-0.054	-0.222
-102.932	-70.009	0.293	-0.109
-101.918	800.000	0.046	0.152
-100.903	50.982	-0.165	-0.154
-99.889	568.556	-0.040	-0.095
-98.874	375.999	0.096	0.192
-97.859	-119.585	-0.369	0.063
-96.845	-33.510	-0.352	-0.191
-95.830	50.901	-0.122	-0.113
-94.816	98.156	0.153	0.173
-93.801	20.525	0.077	0.061
-92.786	320.584	0.164	0.305
-91.772	-76.577	-0.375	0.129
-90.757	81.658	-0.276	-0.292
-89.743	315.572	0.063	-0.116
-88.728	-43.755	0.286	0.141
-87.713	-23.477	-0.151	0.089
-86.699	-200.000	0.038	0.204
-85.684	-200.000	0.004	0.099
-84.670	-179.191	0.209	-0.005
-83.655	122.579	-0.044	-0.054
-82.640	432.660	0.014	-0.029
-81.626	22.914	0.241	0.194
-80.611	-200.000	-0.043	-0.371
-79.597	583.393	-0.144	-0.346
-78.582	-123.158	-0.217	0.034
-77.567	-183.516	0.169	-0.003
-76.553	-200.000	-0.032	0.223
-75.538	144.337	-0.284	-0.370
-74.524	-6.617	-0.045	-0.030
-73.509	-200.000	-0.053	-0.279
-72.494	-54.428	0.187	0.083
-71.480	210.627	-0.083	-0.127
-70.465	-200.000	0.006	0.525
-69.451	97.555	0.212	0.238
-68.436	187.667	0.076	0.111
-67.422	193.980	0.175	-0.260
-66.407	21.306	0.246	-0.195
-65.392	404.215	-0.193	-0.398
-64.378	800.000	-0.022	-0.082
-63.363	-122.943	-0.161	-0.025
-62.349	-77.474	0.268	-0.091
-61.334	-8.317	-1.378	-0.907
-60.319	155.252	0.815	1.096
-59.305	800.000	-0.350	-1.191
-58.290	233.475	0.569	0.916
-57.276	800.000	0.375	1.511
-56.261	-200.000	117.761	644.970
-55.246	484.143	1553.202	3455.811
-54.232	173.935	2720.105	3840.967
-53.217	103.466	2153.143	2470.127
-52.203	37.610	1585.683	1375.884
-51.188	29.518	1329.151	1105.051
-50.173	26.628	1290.365	1055.942
-49.159	51.966	1350.023	1256.828
-48.144	50.695	1363.127	1261.397
-47.130	29.513	1316.871	1094.637
-46.115	26.340	1298.558	1060.784
-45.100	25.970	1293.581	1054.510
-44.086	25.924	1291.116	1052.191
-43.071	25.968	1288.856	1050.565
-42.057	25.925	1286.908	1048.689
-41.042	25.920	1285.425	1047.409
-40.027	25.858	1284.277	1046.070
-39.013	25.963	1282.091	1044.859
-37.998	26.043	1279.546	1043.202
-36.984	26.030	1278.125	1041.932
-35.969	26.085	1276.506	1040.885
-34.954	26.105	1274.636	1039.436
-33.940	26.104	1273.427	1038.404
-32.925	26.192	1271.577	1037.356
-31.911	26.113	1270.732	1036.176
-30.896	26.331	1268.480	1035.544
-29.881	26.284	1267.640	1034.549
-28.867	26.247	1266.308	1033.207
-27.852	26.248	1265.272	1032.330
-26.838	26.264	1263.933	1031.290
-25.823	26.245	1262.458	1029.936
-24.809	26.206	1260.991	1028.472
-23.794	26.193	1259.564	1027.193
-22.779	26.201	1258.358	1026.219
-21.765	26.266	1257.222	1025.618
-20.750	26.264	1255.712	1024.335
-19.736	26.069	1254.576	1022.262
-18.721	25.954	1253.511	1020.704
-17.706	26.131	1252.015	1020.445
-16.692	26.162	1251.067	1019.806
-15.677	26.068	1249.975	1018.348
-14.663	26.118	1248.521	1017.406
-13.648	26.100	1247.549	1016.467
-12.633	26.016	1246.827	1015.368
-11.619	26.133	1246.126	1015.414
-10.604	26.050	1245.448	1014.355
-9.590	26.083	1244.258	1013.532
-8.575	26.099	1243.465	1012.937
-7.560	26.066	1242.611	1012.012
-6.546	26.052	1241.661	1011.121
-5.531	26.000	1240.986	1010.240
-4.517	26.018	1239.904	1009.423
-3.502	26.175	1238.943	1009.478
-2.487	26.108	1237.794	1008.127
-1.473	26.001	1233.742	1004.189
-0.458	24.535	1219.089	984.154
0.556	22.770	1202.908	948.335
1.571	19.042	1208.689	932.641
2.586	18.170	1223.453	939.163
3.600	18.024	1211.870	929.393
4.615	13.898	1141.530	854.186
5.629	7.191	1070.363	768.419
6.644	4.313	1052.705	741.928
7.659	4.135	1050.822	739.682
8.673	3.922	1049.117	737.404
9.688	3.931	1047.645	736.345
10.702	4.285	1045.872	736.716
11.717	8.648	1051.998	761.770
12.731	16.375	1062.611	806.409
13.746	21.054	1068.576	833.273
14.761	22.112	1069.674	839.108
15.775	21.350	1067.666	833.828
16.790	20.470	1065.657	827.994
17.804	19.841	1064.542	824.060
18.819	19.570	1063.449	821.849
19.834	19.625	1062.880	821.599
20.848	19.541	1062.534	820.859
21.863	19.332	1061.745	819.184
22.877	19.187	1060.986	817.837
23.892	19.189	1060.015	817.026
24.907	19.096	1058.892	815.645
25.921	19.197	1057.970	815.344
26.936	18.941	1057.350	813.583
27.950	19.163	1055.458	813.101
28.965	19.230	1054.320	812.470
29.980	19.402	1053.276	812.404
30.994	19.366	1052.441	811.516
32.009	19.504	1050.989	810.976
33.023	19.505	1050.009	810.154
34.038	19.325	1049.163	808.585
35.053	19.228	1048.185	807.302
36.067	19.160	1047.285	806.218
37.082	19.205	1046.793	805.983
38.096	19.397	1046.180	806.334
39.111	19.339	1045.534	805.495
40.126	19.208	1043.537	803.275
41.140	18.779	1042.483	800.394
42.155	18.794	1041.201	799.409
43.169	18.701	1040.039	798.012
44.184	18.608	1039.025	796.735
45.199	18.656	1038.530	796.506
46.213	18.807	1037.249	796.150
47.228	19.039	1037.175	797.101
48.242	19.093	1036.039	796.408
49.257	19.168	1034.986	795.872
50.271	19.290	1034.137	795.712
51.286	19.350	1033.332	795.300
52.301	19.252	1032.135	793.857
53.315	19.002	1030.864	791.660
54.330	18.948	1029.727	790.469
55.344	18.952	1028.805	789.710
56.359	18.912	1028.244	789.022
57.374	18.836	1027.375	787.939
58.388	18.776	1026.451	786.884
59.403	18.544	1025.965	785.382
60.417	18.630	1025.080	785.026
61.432	18.716	1023.963	784.494
62.447	18.457	1023.282	782.723
63.461	18.563	1022.390	782.452
64.476	18.505	1021.408	781.369
65.490	18.530	1020.460	780.687
66.505	18.662	1019.897	780.789
67.520	18.572	1018.962	779.595
68.534	18.470	1018.508	778.715
69.549	18.399	1018.008	777.941
70.563	18.326	1017.177	776.906
71.578	18.178	1015.896	775.187
72.593	18.176	1015.065	774.477
73.607	18.261	1014.800	774.593
74.622	18.186	1014.325	773.821
75.636	18.225	1013.706	773.457
76.651	18.290	1012.579	772.820
77.666	18.460	1012.104	773.159
78.680	18.392	1011.269	772.144
79.695	18.478	1011.034	772.284
80.709	18.594	1010.319	772.193
81.724	18.627	1009.848	771.912
82.739	18.850	1009.013	772.209
83.753	19.120	1008.722	773.130
84.768	19.483	1008.049	774.173
85.782	19.726	1007.386	774.684
86.797	19.549	1006.385	773.057
87.812	19.396	1004.954	771.201
88.826	19.405	1004.394	770.744
89.841	19.372	1003.577	769.903
90.855	19.598	1002.319	769.877
91.870	19.530	1001.957	769.230
92.884	19.487	1001.332	768.491
93.899	19.488	1000.439	767.742
94.914	19.628	999.387	767.485
95.928	19.510	998.538	766.241
96.943	19.434	997.516	765.056
97.957	19.360	996.717	764.047
98.972	19.510	995.609	763.793
99.987	19.488	995.075	763.219
101.001	19.413	993.879	761.904
102.016	19.345	993.093	760.930
103.030	19.477	992.504	760.995
104.045	19.420	991.912	760.225
105.060	19.203	990.984	758.490
106.074	19.017	989.245	756.272
107.089	18.749	988.205	754.237
108.103	18.569	987.761	753.038
109.118	18.504	986.392	751.641
110.133	18.390	985.405	750.327
111.147	18.456	984.572	749.913
112.162	18.643	983.782	750.061
113.176	18.760	983.239	750.091
114.191	18.831	982.516	749.786
115.206	18.759	982.130	749.111
116.220	18.610	981.563	747.962
117.235	18.608	980.341	746.958
118.249	18.587	979.399	746.081
119.264	18.479	978.269	744.685
120.279	18.491	977.607	744.166
121.293	18.391	976.800	743.051
122.308	18.211	976.185	741.740
123.322	18.215	974.707	740.570
124.337	18.163	974.131	739.838
125.352	18.283	972.414	738.990
126.366	18.279	971.399	738.135
127.381	18.319	970.439	737.513
128.395	18.394	969.567	737.106
129.410	18.401	969.085	736.707
130.424	18.500	968.791	736.840
131.439	18.677	967.881	736.844
132.454	18.732	967.021	736.363
133.468	18.565	966.342	735.063
134.483	18.741	965.558	735.157
135.497	18.747	964.411	734.243
136.512	18.798	963.477	733.686
137.527	18.910	962.739	733.536
138.541	18.800	962.595	732.892
139.556	18.958	961.383	732.575
140.570	19.067	961.141	732.791
141.585	19.264	960.521	733.091
142.600	19.274	959.336	732.166
143.614	19.496	958.788	732.626
144.629	19.563	958.333	732.497
145.643	19.404	957.041	730.773
146.658	19.212	955.684	728.857
147.673	18.991	954.527	726.976
148.687	18.888	953.870	725.977
149.702	18.791	953.027	724.864
150.716	18.878	952.231	724.558
151.731	18.871	951.497	723.907
152.746	18.951	950.707	723.580
153.760	18.995	950.142	723.269
154.775	19.134	949.775	723.510
155.789	19.293	948.756	723.340
156.804	19.227	948.403	722.729
157.819	19.246	947.882	722.346
158.833	19.440	947.693	722.950
159.848	19.519	946.971	722.668
160.862	19.307	945.579	720.657
161.877	18.885	944.229	717.802
162.892	18.868	942.794	716.574
163.906	18.825	942.018	715.741
164.921	18.837	940.816	714.816
165.935	19.044	940.355	715.264
166.950	19.049	939.642	714.680
167.964	18.927	939.031	713.645
168.979	18.808	938.109	712.387
169.994	18.886	937.040	711.834
171.008	19.148	936.507	712.453
172.023	19.259	936.151	712.578
173.037	19.447	935.670	712.925
174.052	19.224	934.521	711.065
175.067	18.955	933.174	708.871
176.081	18.817	932.771	707.932
177.096	18.837	932.336	707.624
178.110	18.872	931.977	707.429
179.125	18.941	931.213	707.070
180.140	19.106	930.709	707.306
181.154	19.098	930.981	707.416
182.169	19.464	930.216	708.275
183.183	19.422	929.447	707.453
184.198	19.356	928.775	706.608
185.213	19.279	928.317	705.884
186.227	19.439	927.487	705.845
187.242	19.471	927.038	705.570
188.256	19.727	926.279	705.978
189.271	19.703	925.734	705.400
190.286	19.299	924.450	702.715
191.300	18.776	923.834	700.051
192.315	18.592	923.201	698.760
193.329	18.825	922.366	699.015
194.344	18.921	922.105	699.146
195.359	19.086	921.245	699.100
196.373	19.263	920.612	699.279
197.388	19.392	920.773	699.863
198.402	19.551	920.101	699.933
199.417	19.759	919.367	700.158
200.432	19.970	918.931	700.617
201.446	19.879	919.206	700.397
202.461	20.141	918.241	700.656
203.475	19.782	917.499	698.578
204.490	19.593	916.316	696.854
205.504	19.486	915.447	695.698
206.519	19.492	914.673	695.074
207.534	19.293	914.620	694.170
208.548	19.459	913.476	693.911
209.563	19.370	913.254	693.322
210.577	19.498	912.626	693.295
211.592	19.783	911.980	693.891
212.607	19.824	911.421	693.566
213.621	19.692	910.679	692.413
214.636	19.662	909.652	691.451
215.650	19.700	909.228	691.220
216.665	19.884	908.757	691.533
217.680	19.918	908.225	691.205
218.694	20.076	907.370	691.123
219.709	19.880	906.660	689.741
220.723	19.941	905.981	689.406
221.738	19.829	905.118	688.240
222.753	19.865	904.808	688.090
223.767	20.020	904.015	688.040
224.782	20.234	903.229	688.229
225.796	20.155	903.278	687.895
226.811	20.002	902.495	686.631
227.826	19.755	901.278	684.666
228.840	19.774	900.910	684.401
229.855	19.670	900.348	683.500
230.869	19.675	899.216	682.601
231.884	19.742	898.268	682.086
232.899	19.676	897.597	681.254
233.913	19.468	897.209	680.080
234.928	19.313	896.818	679.114
235.942	19.367	895.835	678.520
236.957	19.367	895.693	678.355
237.972	19.310	895.138	677.648
238.986	19.516	893.990	677.529
240.001	19.618	893.418	677.435
241.015	19.593	892.992	676.955
242.030	19.862	892.406	677.505
243.045	19.796	892.393	677.177
244.059	19.760	891.746	676.485
245.074	19.872	891.175	676.428
246.088	19.903	890.903	676.283
247.103	20.278	889.971	676.979
248.117	20.339	889.835	677.055
249.132	20.482	889.585	677.360
250.147	20.724	889.087	677.865
251.161	20.960	888.401	678.201
252.176	20.798	887.805	677.054
253.190	20.863	887.094	676.706
254.205	20.918	886.665	676.531
255.220	20.716	886.015	675.191
256.234	20.729	885.244	674.595
257.249	20.879	884.282	674.386
258.263	20.883	883.797	673.971
259.278	20.839	883.082	673.197
260.293	20.873	882.604	672.902
261.307	20.922	881.990	672.563
262.322	21.002	881.369	672.341
263.336	21.017	880.804	671.908
264.351	21.024	880.219	671.427
265.366	20.986	879.580	670.733
266.380	20.942	879.052	670.102
267.395	20.730	878.209	668.588
268.409	20.758	877.259	667.913
269.424	20.768	876.677	667.447
270.439	20.731	875.527	666.373
271.453	20.611	874.887	665.367
272.468	20.601	874.582	665.039
273.482	20.745	873.729	664.882
274.497	20.631	873.384	664.123
275.512	20.572	872.983	663.537
276.526	20.737	872.533	663.765
277.541	20.591	872.211	662.903
278.555	20.864	871.544	663.376
279.570	21.049	871.161	663.733
280.585	20.982	870.011	662.543
281.599	20.734	869.415	661.089
282.614	20.692	868.317	660.036
283.628	20.637	867.938	659.482
284.643	20.770	867.378	659.499
285.657	20.746	866.868	658.961
286.672	20.664	866.216	658.101
287.687	20.708	865.598	657.737
288.701	20.846	864.709	657.524
289.716	20.901	864.217	657.300
290.730	20.950	863.766	657.083
291.745	20.920	863.422	656.652
292.760	20.906	863.038	656.248
293.774	21.140	862.450	656.623
294.789	20.973	861.804	655.447
295.803	20.705	860.945	653.728
296.818	20.754	860.185	653.278
297.833	20.775	859.364	652.674
298.847	20.909	858.818	652.702
299.862	20.949	858.150	652.286
300.876	21.014	858.360	652.633
301.891	21.076	857.545	652.188
302.906	21.293	857.039	652.555
303.920	21.435	856.776	652.827
304.935	21.446	856.603	652.679
305.949	21.441	855.383	651.675
306.964	21.137	854.607	649.891
307.979	21.175	854.217	649.679
308.993	21.382	853.620	649.939
310.008	21.334	853.053	649.271
311.022	21.166	852.676	648.300
312.037	21.005	851.447	646.711
313.052	20.808	851.065	645.634
314.066	20.774	850.354	644.915
315.081	20.753	849.655	644.249
316.095	20.785	849.235	643.992
317.110	20.760	848.581	643.344
318.125	20.729	848.183	642.873
319.139	20.879	847.448	642.811
320.154	20.814	847.227	642.347
321.168	21.018	846.374	642.396
322.183	21.014	845.944	641.997
323.197	20.991	845.961	641.870
324.212	21.083	845.133	641.524
325.227	20.949	844.275	640.322
326.241	20.906	843.951	639.861
327.256	20.951	843.001	639.251
328.270	20.879	842.689	638.694
329.285	20.815	842.178	638.014
330.300	20.922	841.184	637.598
331.314	20.886	841.402	637.575
332.329	20.976	841.118	637.630
333.343	21.192	840.725	638.066
334.358	21.188	839.912	637.378
335.373	21.249	839.445	637.190
336.387	21.298	839.342	637.232
337.402	21.338	839.543	637.475
338.416	21.506	839.152	637.735
339.431	21.827	838.825	638.599
340.446	21.881	838.000	638.113
341.460	21.772	837.853	637.547
342.475	21.853	837.622	637.609
343.489	21.945	837.300	637.643
344.504	22.107	836.425	637.507
345.519	21.994	836.636	637.200
346.533	21.889	835.407	635.828
347.548	21.703	834.338	634.286
348.562	21.416	833.813	632.793
349.577	21.341	833.438	632.179
350.592	21.302	832.423	631.213
351.606	21.122	832.121	630.278
352.621	21.276	831.306	630.159
353.635	21.391	830.762	630.107
354.650	21.352	830.286	629.550
355.665	21.482	829.785	629.580
356.679	21.659	829.016	629.578
357.694	21.645	828.635	629.183
358.708	21.616	827.513	628.172
359.723	21.524	827.436	627.728
360.738	21.584	826.622	627.268
361.752	21.497	826.521	626.826
362.767	21.761	826.044	627.355
363.781	22.020	825.417	627.747
364.796	22.174	824.800	627.775
365.810	22.301	824.820	628.188
366.825	22.374	824.308	628.001
367.840	22.165	824.100	627.042
368.854	22.009	823.250	625.783
369.869	21.985	822.286	624.909
370.883	21.925	822.164	624.550
371.898	22.197	821.860	625.230
372.913	22.324	821.370	625.254
373.927	22.231	820.652	624.320
374.942	22.125	820.325	623.640
375.956	22.197	820.282	623.811
376.971	22.464	819.558	624.150
377.986	22.418	819.404	623.813
379.000	22.406	818.897	623.330
380.015	22.391	818.323	622.786
381.029	22.263	817.966	622.005
382.044	22.326	817.203	621.593
383.059	22.484	816.426	621.505
384.073	22.300	815.833	620.348
385.088	22.105	815.018	618.987
386.102	21.929	814.373	617.824
387.117	22.010	813.662	617.516
388.132	22.040	813.106	617.145
389.146	22.067	812.838	616.980
390.161	22.365	812.836	617.969
391.175	22.370	812.153	617.415
392.190	22.189	811.194	615.996
393.205	22.175	810.571	615.420
394.219	21.960	810.557	614.601
395.234	21.824	810.047	613.684
396.248	21.841	809.332	613.148
397.263	21.767	808.739	612.387
398.278	21.767	808.149	611.884
399.292	21.724	808.115	611.656
400.307	21.798	807.408	611.323
401.321	21.905	806.950	611.298
402.336	21.871	807.087	611.228
403.350	22.109	806.502	611.557
404.365	22.127	806.198	611.337
405.380	22.527	805.634	612.246
406.394	22.550	805.386	612.082
407.409	22.589	804.895	611.791
408.423	22.754	804.630	612.108
409.438	22.760	804.277	611.807
410.453	22.629	803.997	611.083
411.467	22.780	803.347	611.058
412.482	23.031	802.897	611.532
413.496	22.991	802.854	611.305
414.511	22.985	802.224	610.753
415.526	22.741	802.040	609.713
416.540	22.767	801.529	609.362
417.555	22.891	800.691	609.098
418.569	22.840	800.379	608.630
419.584	22.925	799.940	608.537
420.599	22.833	799.398	607.752
421.613	165.170	1371.367	1796.872
422.628	143.510	1454.697	1796.963
