DTS Sentinel unit serial number:	SN413079Multiplexer serial number:	ORYXHardware model number:	OX4-SRSoftware version number:	ORYX F/W v4.00 Oryx Data Collector v3.7.2.0data status	okinstallation	princeton_trtdifferential loss correction	single-endedforward channel	channel 1reverse channel	N/Adate	2019/09/13time	14:38:35forward acquisition time	60.00reverse acquisition time	0.00gamma	496.2192k internal	0.2301k external	0.2301temperature offset calibration	1.0159default loss term (dB/km)	0.3790temperature slope calibration	1.0000multiplexer offset coefficient	1.0000multiplexer slope coefficient	1.0000fibre end	0.00T internal ref (°C)	35.37T ext. ref 1 (°C)	4.66T ext. ref 2 (°C)	32.58length (m)	temperature (°C)	Stokes	anti-Stokes-747.200	800.000	-0.056	-0.172
-746.185	-200.000	-0.045	0.380
-745.171	-88.959	0.083	0.025
-744.156	-30.299	-0.098	-0.057
-743.142	-38.222	0.225	-0.122
-742.127	-118.722	-0.196	0.035
-741.112	-3.139	-0.205	-0.146
-740.098	3.797	-0.236	0.176
-739.083	74.739	0.208	-0.223
-738.069	-6.797	-0.263	0.182
-737.054	75.807	-0.091	-0.098
-736.039	24.404	-0.150	0.127
-735.025	-170.747	-0.071	-0.002
-734.010	800.000	-0.048	-0.138
-732.996	353.645	-0.200	-0.404
-731.981	-59.342	-0.377	-0.165
-730.966	55.702	0.055	0.055
-729.952	-129.227	0.345	0.049
-728.937	-44.150	0.252	-0.129
-727.923	401.788	-0.165	-0.353
-726.908	-21.010	-0.353	-0.220
-725.894	96.958	0.318	-0.371
-724.879	-93.393	-0.173	0.049
-723.864	-17.952	0.394	0.252
-722.850	125.901	0.325	-0.418
-721.835	-32.725	-0.105	0.059
-720.821	-16.988	0.342	-0.220
-719.806	38.002	-0.214	-0.194
-718.791	26.712	0.201	-0.172
-717.777	120.965	-0.072	-0.092
-716.762	800.000	-0.104	0.327
-715.748	275.804	-0.126	-0.228
-714.733	800.000	-0.060	0.169
-713.718	-131.018	0.150	0.020
-712.704	98.925	-0.149	0.175
-711.689	-200.000	-0.006	-0.046
-710.675	-95.554	-0.058	0.016
-709.660	-87.782	-0.064	0.020
-708.645	-165.439	-0.224	0.010
-707.631	707.665	-0.067	0.180
-706.616	119.007	0.243	-0.306
-705.602	-92.911	-0.081	-0.023
-704.587	-45.192	-0.168	0.085
-703.572	-200.000	-0.021	0.298
-702.558	-37.788	-0.036	-0.020
-701.543	-200.000	-0.025	-0.128
-700.529	229.898	-0.091	-0.151
-699.514	-200.000	0.012	0.071
-698.499	-200.000	-0.081	-0.522
-697.485	-31.696	-0.246	-0.141
-696.470	298.528	-0.092	-0.173
-695.456	-119.878	-0.304	0.053
-694.441	800.000	-0.008	-0.036
-693.426	800.000	0.057	0.186
-692.412	112.523	-0.317	0.390
-691.397	-129.074	-0.309	-0.044
-690.383	274.109	0.076	0.137
-689.368	10.757	-0.311	0.241
-688.354	-51.841	-0.254	-0.120
-687.339	800.000	-0.040	-0.126
-686.324	800.000	0.088	-0.265
-685.310	32.300	-0.149	0.131
-684.295	-55.168	-0.138	0.063
-683.281	368.636	0.146	-0.301
-682.266	292.115	-0.068	0.125
-681.251	64.805	-0.258	0.265
-680.237	-104.274	-0.390	0.092
-679.222	-108.757	0.423	0.092
-678.208	800.000	0.021	0.061
-677.193	-26.675	0.338	-0.201
-676.178	-140.887	-0.254	0.027
-675.164	-114.316	0.340	0.067
-674.149	-28.737	0.251	0.147
-673.135	30.698	-0.217	0.189
-672.120	-200.000	-0.002	-0.060
-671.105	-34.016	-0.065	0.037
-670.091	-117.106	-0.377	0.070
-669.076	-81.246	0.141	-0.047
-668.062	142.023	-0.037	0.050
-667.047	11.433	-0.121	-0.094
-666.032	-200.000	-0.011	0.150
-665.018	-156.736	-0.150	0.009
-664.003	800.000	0.064	-0.198
-662.989	800.000	-0.038	-0.135
-661.974	-40.670	0.211	0.111
-660.959	-22.296	0.322	-0.198
-659.945	-44.807	-0.166	0.084
-658.930	800.000	-0.093	-0.380
-657.916	-200.000	-0.008	0.139
-656.901	178.530	-0.044	-0.065
-655.886	-122.315	0.359	-0.060
-654.872	-149.555	-0.051	-0.004
-653.857	5.523	-0.341	-0.256
-652.843	-1.297	-0.089	0.064
-651.828	627.510	0.187	0.480
-650.814	-101.624	-0.136	0.034
-649.799	-103.862	-0.194	-0.046
-648.784	-55.493	-0.271	0.123
-647.770	193.666	-0.046	0.070
-646.755	103.266	0.290	-0.345
-645.741	-117.422	-0.098	0.018
-644.726	-88.791	-0.225	-0.068
-643.711	-18.333	-0.306	0.194
-642.697	-200.000	0.025	0.250
-641.682	-11.058	-0.280	-0.188
-640.668	207.319	-0.052	-0.082
-639.653	606.719	0.073	-0.186
-638.638	-144.777	-0.162	-0.015
-637.624	145.771	-0.145	-0.197
-636.609	41.468	-0.136	0.125
-635.595	68.550	-0.083	0.086
-634.580	-67.919	0.209	0.083
-633.565	31.186	-0.095	-0.083
-632.551	219.170	-0.137	-0.222
-631.536	-144.234	-0.082	0.008
-630.522	-200.000	-0.010	-0.206
-629.507	-29.390	-0.052	0.030
-628.492	-200.000	0.038	-0.373
-627.478	77.628	-0.251	-0.271
-626.463	-200.000	0.021	-0.287
-625.449	800.000	-0.049	0.139
-624.434	800.000	-0.021	0.082
-623.419	-149.633	0.148	-0.012
-622.405	-87.582	-0.086	-0.026
-621.390	-200.000	-0.000	-0.149
-620.376	183.644	-0.119	0.178
-619.361	74.727	0.052	-0.056
-618.346	-25.224	0.418	0.251
-617.332	16.444	-0.270	0.217
-616.317	-66.954	-0.277	-0.111
-615.303	-147.087	0.031	0.003
-614.288	-86.665	-0.237	0.074
-613.273	-200.000	0.004	-0.117
-612.259	-53.231	-0.103	0.048
-611.244	-165.002	-0.093	0.004
-610.230	-163.788	-0.101	0.005
-609.215	-87.012	0.158	-0.049
-608.201	-116.072	0.372	0.070
-607.186	-14.394	-0.201	0.132
-606.171	41.691	-0.127	-0.117
-605.157	800.000	-0.043	0.126
-604.142	-13.369	0.049	0.032
-603.128	-181.465	-0.331	0.007
-602.113	208.555	0.249	0.395
-601.098	219.285	0.211	-0.343
-600.084	148.220	0.132	-0.180
-599.069	25.871	0.250	-0.212
-598.055	107.301	0.243	0.293
-597.040	622.878	-0.049	-0.124
-596.025	-200.000	-0.038	-0.265
-595.011	452.080	-0.125	-0.281
-593.996	-57.633	-0.402	-0.178
-592.982	800.000	0.059	-0.179
-591.967	-107.564	-0.211	-0.047
-590.952	-54.137	0.130	0.060
-589.938	-200.000	0.037	-0.252
-588.923	82.702	0.246	-0.271
-587.909	-200.000	0.008	0.129
-586.894	-200.000	-0.025	0.192
-585.879	-200.000	-0.005	-0.163
-584.865	-112.335	-0.132	0.027
-583.850	522.480	0.061	-0.145
-582.836	-25.273	0.175	-0.105
-581.821	-200.000	-0.007	-0.035
-580.806	-200.000	0.045	0.267
-579.792	800.000	-0.020	-0.064
-578.777	61.729	0.074	0.075
-577.763	-58.075	0.086	0.038
-576.748	-176.277	-0.341	-0.009
-575.733	176.564	0.050	0.074
-574.719	199.580	0.036	0.056
-573.704	-200.000	0.003	0.291
-572.690	-70.627	0.322	0.123
-571.675	-104.260	-0.194	-0.046
-570.661	-61.713	0.205	-0.087
-569.646	384.184	0.084	0.176
-568.631	-80.059	0.121	-0.041
-567.617	158.291	0.155	-0.217
-566.602	389.450	0.098	-0.206
-565.588	-200.000	0.008	0.047
-564.573	68.010	0.072	0.074
-563.558	101.240	-0.163	-0.192
-562.544	-12.085	-0.198	0.131
-561.529	-200.000	-0.027	0.202
-560.515	800.000	0.066	-0.261
-559.500	-72.382	-0.176	-0.066
-558.485	800.000	0.075	0.240
-557.471	18.580	0.125	-0.101
-556.456	49.478	0.131	0.124
-555.442	-12.912	-0.252	0.166
-554.427	-86.634	-0.167	-0.052
-553.412	54.804	-0.178	0.174
-552.398	800.000	0.117	0.414
-551.383	-91.060	-0.279	0.081
-550.369	800.000	-0.096	0.346
-549.354	-73.320	-0.170	0.063
-548.339	249.884	0.026	-0.044
-547.325	-200.000	-0.004	-0.121
-546.310	800.000	-0.132	-0.411
-545.296	-170.157	0.159	0.006
-544.281	68.367	0.240	0.249
-543.266	32.998	0.159	-0.139
-542.252	-102.847	-0.182	0.044
-541.237	-200.000	0.024	0.244
-540.223	35.893	0.271	-0.241
-539.208	-25.246	0.047	0.028
-538.193	-20.276	-0.200	-0.124
-537.179	75.086	0.062	0.066
-536.164	-4.856	-0.051	0.036
-535.150	-37.690	-0.114	-0.061
-534.135	123.228	0.167	0.212
-533.121	-141.416	0.407	-0.042
-532.106	143.999	-0.143	0.193
-531.091	-77.894	0.208	-0.072
-530.077	2.097	-0.123	-0.090
-529.062	-200.000	-0.064	-0.366
-528.048	17.466	-0.356	0.286
-527.033	-6.578	0.102	0.070
-526.018	-52.742	-0.344	-0.161
-525.004	800.000	0.024	0.076
-523.989	202.058	0.019	-0.029
-522.975	800.000	-0.037	-0.144
-521.960	800.000	0.047	0.172
-520.945	-18.567	0.185	0.117
-519.931	178.938	-0.066	-0.098
-518.916	606.493	0.015	-0.038
-517.902	635.190	-0.076	-0.195
-516.887	154.608	0.047	0.065
-515.872	77.651	-0.151	-0.163
-514.858	-73.546	-0.147	0.054
-513.843	31.968	-0.174	0.152
-512.829	-84.841	-0.253	-0.080
-511.814	-77.528	0.185	-0.065
-510.799	25.194	0.117	0.098
-509.785	-137.664	0.394	-0.045
-508.770	-66.139	0.303	-0.122
-507.756	800.000	-0.075	0.270
-506.741	800.000	-0.056	0.225
-505.726	736.473	-0.105	-0.285
-504.712	180.282	-0.115	0.170
-503.697	-200.000	0.021	-0.147
-502.683	531.572	-0.183	-0.437
-501.668	-200.000	-0.010	0.111
-500.653	122.051	0.207	-0.261
-499.639	55.945	-0.083	-0.081
-498.624	-200.000	0.040	0.239
-497.610	472.255	-0.066	-0.151
-496.595	800.000	0.062	0.199
-495.581	-131.711	-0.227	0.030
-494.566	-43.106	-0.324	-0.166
-493.551	-126.646	-0.289	-0.043
-492.537	240.998	-0.089	0.150
-491.522	164.966	0.229	-0.326
-490.508	55.138	-0.291	-0.284
-489.493	-57.904	0.152	0.067
-488.478	293.310	0.033	-0.060
-487.464	800.000	-0.087	-0.314
-486.449	800.000	0.031	0.103
-485.435	603.609	-0.090	0.227
-484.420	530.050	0.175	0.418
-483.405	351.134	0.053	-0.106
-482.391	42.730	-0.103	0.095
-481.376	410.251	0.100	-0.214
-480.362	76.477	0.129	0.138
-479.347	122.380	0.116	0.146
-478.332	800.000	-0.072	0.234
-477.318	37.890	-0.142	-0.127
-476.303	-85.958	0.271	-0.085
-475.289	-200.000	-0.007	-0.215
-474.274	-10.778	-0.093	-0.062
-473.259	-200.000	0.044	0.719
-472.245	-19.330	0.314	-0.196
-471.230	-66.310	0.283	-0.114
-470.216	-120.588	-0.192	-0.033
-469.201	-115.593	0.189	-0.036
-468.186	-19.431	-0.048	-0.030
-467.172	56.527	-0.321	0.315
-466.157	-200.000	-0.036	-0.257
-465.143	150.481	0.319	-0.437
-464.128	-200.000	0.043	-0.242
-463.113	-32.813	0.170	-0.095
-462.099	762.403	0.165	-0.451
-461.084	-86.608	0.231	0.071
-460.070	-200.000	0.031	-0.143
-459.055	-138.985	-0.077	-0.008
-458.040	-200.000	0.023	-0.258
-457.026	283.127	-0.121	0.219
-456.011	-130.311	0.285	0.039
-454.997	-7.239	0.246	-0.168
-453.982	-200.000	0.016	-0.193
-452.968	-91.081	-0.295	-0.085
-451.953	800.000	-0.079	0.321
-450.938	53.278	-0.176	-0.170
-449.924	220.570	0.144	0.233
-448.909	290.232	0.190	0.349
-447.895	-60.125	0.056	0.024
-446.880	7.481	-0.217	-0.164
-445.865	434.703	-0.100	-0.219
-444.851	235.048	-0.173	0.287
-443.836	-149.277	-0.192	-0.015
-442.822	173.800	0.043	-0.062
-441.807	-75.873	0.236	-0.084
-440.792	488.193	0.111	-0.254
-439.778	-92.127	-0.224	-0.064
-438.763	678.958	0.107	-0.281
-437.749	115.328	-0.108	-0.133
-436.734	8.786	-0.262	-0.199
-435.719	22.865	0.150	-0.124
-434.705	158.368	-0.051	0.071
-433.690	39.601	-0.265	0.240
-432.676	-42.741	0.132	-0.067
-431.661	786.678	0.042	-0.115
-430.646	79.525	-0.161	-0.174
-429.632	-98.086	-0.059	0.015
-428.617	-97.304	0.257	0.068
-427.603	36.058	-0.155	0.137
-426.588	148.837	-0.033	-0.045
-425.573	800.000	0.010	-0.029
-424.559	250.698	-0.167	-0.285
-423.544	-200.000	-0.002	-0.124
-422.530	315.415	-0.130	-0.246
-421.515	-156.921	-0.313	0.019
-420.500	288.983	-0.116	-0.211
-419.486	188.825	-0.211	0.318
-418.471	128.171	-0.176	-0.226
-417.457	-135.864	0.146	-0.017
-416.442	367.594	-0.044	0.090
-415.428	-19.183	0.450	0.281
-414.413	-77.967	0.096	-0.033
-413.398	-200.000	-0.011	-0.083
-412.384	277.384	0.151	0.271
-411.369	37.729	-0.224	-0.201
-410.355	-63.822	0.196	0.081
-409.340	800.000	-0.048	-0.198
-408.325	-95.516	0.195	-0.053
-407.311	-54.294	0.124	0.057
-406.296	-110.818	-0.228	-0.047
-405.282	21.202	0.062	0.051
-404.267	-185.625	-0.154	-0.002
-403.252	800.000	0.077	-0.266
-402.238	-57.922	0.170	0.075
-401.223	75.064	-0.255	-0.271
-400.209	-68.216	0.159	-0.062
-399.194	-91.741	0.068	-0.020
-398.179	114.447	0.107	0.131
-397.165	-130.353	0.075	-0.010
-396.150	229.840	-0.213	-0.350
-395.136	57.255	0.245	0.241
-394.121	95.916	0.164	0.188
-393.106	-83.064	-0.081	0.026
-392.092	800.000	0.077	0.283
-391.077	57.437	-0.188	-0.185
-390.063	-200.000	-0.033	0.180
-389.048	-200.000	-0.029	0.166
-388.033	-200.000	0.016	0.089
-387.019	-132.836	0.120	-0.015
-386.004	555.603	0.122	-0.295
-384.990	9.455	0.160	-0.122
-383.975	145.273	0.189	-0.254
-382.960	-76.588	0.156	-0.055
-381.946	-1.752	-0.195	-0.138
-380.931	-116.573	-0.139	-0.026
-379.917	-200.000	-0.057	-0.279
-378.902	740.317	-0.080	0.215
-377.888	-61.158	-0.201	-0.085
-376.873	39.312	0.240	-0.216
-375.858	41.669	0.202	0.184
-374.844	95.166	-0.096	0.110
-373.829	-18.144	0.238	0.150
-372.815	-200.000	0.015	0.085
-371.800	58.597	0.174	0.172
-370.785	443.130	0.061	-0.135
-369.771	-115.750	0.160	0.030
-368.756	800.000	0.032	-0.137
-367.742	-91.906	0.312	0.089
-366.727	302.472	0.116	0.216
-365.712	-70.685	0.127	0.048
-364.698	123.020	-0.049	0.062
-363.683	-78.994	0.276	0.094
-362.669	151.578	-0.149	0.204
-361.654	800.000	-0.113	-0.332
-360.639	621.200	-0.146	-0.368
-359.625	353.853	-0.095	-0.190
-358.610	70.452	0.037	0.038
-357.596	473.469	0.087	0.198
-356.581	-135.324	-0.260	0.031
-355.566	-200.000	-0.007	0.225
-354.552	-37.355	-0.359	0.193
-353.537	27.919	-0.165	-0.140
-352.523	690.580	0.088	0.233
-351.508	-171.098	-0.069	-0.002
-350.493	106.927	-0.013	0.016
-349.479	-9.274	0.065	-0.044
-348.464	106.684	0.132	0.158
-347.450	-80.087	0.209	0.070
-346.435	-162.932	0.209	-0.010
-345.420	-64.548	0.185	0.075
-344.406	-81.404	-0.168	-0.056
-343.391	-77.054	-0.268	-0.094
-342.377	111.200	0.073	0.088
-341.362	-41.684	0.300	0.155
-340.348	-200.000	0.029	-0.425
-339.333	16.393	0.204	0.161
-338.318	-145.374	0.222	0.020
-337.304	-55.887	-0.588	0.263
-336.289	-90.490	-0.225	0.066
-335.275	-200.000	-0.029	-0.183
-334.260	646.308	-0.065	-0.166
-333.245	-200.000	-0.011	0.081
-332.231	93.894	-0.045	0.052
-331.216	-111.184	0.355	-0.073
-330.202	14.592	0.185	-0.145
-329.187	-71.487	-0.192	0.072
-328.172	-48.776	0.249	-0.120
-327.158	-9.924	-0.174	-0.116
-326.143	-92.514	0.343	-0.097
-325.129	354.334	0.140	0.280
-324.114	-46.903	0.269	-0.132
-323.099	-115.122	-0.155	-0.030
-322.085	256.988	0.109	-0.189
-321.070	800.000	-0.082	-0.232
-320.056	224.524	-0.173	0.280
-319.041	-200.000	0.009	0.108
-318.026	97.112	0.146	-0.168
-317.012	-63.398	-0.237	-0.098
-315.997	-13.265	0.198	0.129
-314.983	-38.409	0.298	-0.158
-313.968	-9.817	0.215	0.144
-312.953	213.641	-0.048	-0.076
-311.939	299.547	-0.028	-0.052
-310.924	-34.572	-0.046	0.025
-309.910	-200.000	0.012	0.053
-308.895	-180.719	0.118	0.002
-307.880	84.864	0.085	-0.093
-306.866	-200.000	0.013	0.271
-305.851	103.361	0.123	-0.144
-304.837	-132.008	0.206	-0.027
-303.822	-46.002	-0.252	-0.124
-302.807	-79.193	0.176	0.060
-301.793	-200.000	0.039	0.350
-300.778	-200.000	-0.022	0.202
-299.764	-200.000	-0.061	0.276
-298.749	800.000	0.074	0.266
-297.735	-80.961	0.172	-0.057
-296.720	173.125	0.197	0.284
-295.705	-200.000	-0.010	-0.235
-294.691	107.009	0.195	0.232
-293.676	-200.000	-0.033	0.226
-292.662	-169.217	-0.133	0.005
-291.647	-84.795	0.202	0.064
-290.632	-26.959	-0.071	0.042
-289.618	-2.314	0.232	0.163
-288.603	800.000	0.062	-0.190
-287.589	-35.989	0.091	-0.049
-286.574	1.039	0.323	0.232
-285.559	61.426	-0.143	0.143
-284.545	-200.000	0.073	-0.351
-283.530	-136.340	-0.148	0.017
-282.516	223.741	-0.127	0.205
-281.501	686.029	-0.087	0.229
-280.486	-21.888	0.289	0.176
-279.472	-114.541	0.109	-0.021
-278.457	-21.219	0.270	-0.165
-277.443	-200.000	-0.031	0.229
-276.428	-200.000	-0.002	0.094
-275.413	-200.000	0.037	-0.270
-274.399	229.417	0.129	-0.212
-273.384	208.032	0.020	0.032
-272.370	-34.070	0.337	-0.185
-271.355	76.666	0.153	0.162
-270.340	-84.205	-0.073	-0.023
-269.326	551.952	-0.034	0.081
-268.311	-126.194	0.331	0.050
-267.297	-52.431	-0.082	0.038
-266.282	-23.503	0.128	0.077
-265.267	-191.230	-0.083	-0.001
-264.253	800.000	-0.041	0.171
-263.238	152.019	-0.109	-0.149
-262.224	36.362	0.183	-0.161
-261.209	-200.000	-0.009	0.267
-260.195	-100.694	-0.391	0.096
-259.180	56.723	0.339	0.331
-258.165	204.346	-0.141	0.218
-257.151	-200.000	-0.003	0.152
-256.136	800.000	-0.033	-0.116
-255.122	119.898	-0.115	-0.143
-254.107	-14.001	0.223	-0.144
-253.092	-89.202	0.162	-0.048
-252.078	800.000	0.058	0.247
-251.063	290.708	0.067	0.122
-250.049	-25.243	0.130	-0.077
-249.034	22.846	-0.050	0.041
-248.019	-73.431	-0.117	-0.043
-247.005	125.981	-0.154	-0.194
-245.990	141.317	-0.064	0.085
-244.976	800.000	-0.009	0.031
-243.961	-109.086	0.144	0.031
-242.946	15.189	0.023	0.018
-241.932	24.839	-0.131	-0.109
-240.917	-72.323	-0.166	-0.062
-239.903	-200.000	-0.009	0.064
-238.888	800.000	0.066	-0.200
-237.873	-200.000	0.035	-0.166
-236.859	-135.602	-0.147	0.017
-235.844	-200.000	0.004	0.248
-234.830	-200.000	-0.047	-0.260
-233.815	-159.547	-0.070	0.004
-232.800	124.113	0.188	0.236
-231.786	-200.000	0.017	0.172
-230.771	-31.076	-0.276	0.156
-229.757	-0.283	-0.158	-0.112
-228.742	466.184	-0.032	0.072
-227.727	-99.142	-0.105	-0.027
-226.713	-94.434	0.078	-0.021
-225.698	-57.130	0.115	-0.050
-224.684	-158.368	-0.054	0.003
-223.669	507.469	0.091	-0.212
-222.655	676.059	0.023	-0.060
-221.640	-65.544	-0.111	0.044
-220.625	-119.307	0.034	0.006
-219.611	-161.968	-0.423	-0.021
-218.596	-130.288	0.122	0.017
-217.582	280.857	-0.180	0.322
-216.567	800.000	0.015	0.065
-215.552	709.615	0.085	0.223
-214.538	16.979	-0.213	0.168
-213.523	217.029	0.057	0.090
-212.509	-105.236	0.097	0.022
-211.494	800.000	-0.074	-0.224
-210.479	-30.870	-0.246	0.139
-209.465	-26.724	-0.221	0.129
-208.450	-87.475	-0.304	-0.092
-207.436	-172.786	0.266	-0.008
-206.421	-200.000	-0.010	0.176
-205.406	-200.000	0.003	-0.216
-204.392	-152.118	-0.191	0.014
-203.377	-200.000	0.019	0.358
-202.363	307.804	0.280	0.520
-201.348	333.745	0.025	0.048
-200.333	-200.000	0.027	-0.179
-199.319	-43.418	0.249	-0.126
-198.304	800.000	0.018	0.052
-197.290	-129.614	0.264	0.036
-196.275	-52.162	-0.162	-0.075
-195.260	-126.274	-0.276	0.041
-194.246	-36.678	0.237	0.127
-193.231	-126.785	0.098	-0.014
-192.217	800.000	-0.032	-0.125
-191.202	-200.000	-0.002	0.042
-190.187	800.000	-0.068	-0.231
-189.173	-200.000	0.023	0.269
-188.158	800.000	-0.012	0.042
-187.144	-135.630	-0.319	0.038
-186.129	800.000	0.068	0.245
-185.114	-37.414	-0.251	-0.134
-184.100	282.712	-0.067	0.119
-183.085	118.574	-0.139	-0.171
-182.071	725.841	0.081	-0.215
-181.056	-28.950	-0.105	-0.060
-180.042	-52.449	-0.155	0.072
-179.027	91.923	0.230	0.258
-178.012	649.146	0.029	-0.073
-176.998	-200.000	-0.021	0.296
-175.983	-110.271	0.076	0.016
-174.969	736.645	-0.113	0.302
-173.954	-85.396	0.020	0.006
-172.939	755.329	0.103	0.278
-171.925	-129.826	-0.219	0.030
-170.910	-200.000	0.011	0.165
-169.896	-76.567	0.149	0.052
-168.881	-95.304	-0.227	0.061
-167.866	-133.587	-0.017	0.002
-166.852	-36.913	-0.140	0.075
-165.837	-14.150	0.100	0.064
-164.823	-141.396	-0.402	-0.041
-163.808	364.066	-0.102	-0.205
-162.793	534.893	0.103	-0.243
-161.779	64.824	0.215	0.216
-160.764	586.583	-0.033	0.080
-159.750	-71.246	-0.173	-0.065
-158.735	133.673	-0.159	-0.205
-157.720	590.984	-0.076	0.186
-156.706	-191.523	0.056	-0.001
-155.691	13.838	-0.161	-0.124
-154.677	621.098	-0.112	-0.280
-153.662	-200.000	-0.029	-0.149
-152.647	-165.818	0.072	-0.003
-151.633	-145.296	-0.112	-0.010
-150.618	-200.000	-0.005	0.139
-149.604	47.934	0.075	-0.070
-148.589	-21.072	0.103	0.063
-147.574	800.000	0.066	0.225
-146.560	120.861	-0.249	-0.309
-145.545	-91.072	0.060	-0.017
-144.531	-76.910	0.266	-0.093
-143.516	110.086	-0.128	0.153
-142.502	304.782	0.263	-0.486
-141.487	-7.631	0.214	-0.144
-140.472	800.000	0.125	0.393
-139.458	-154.458	-0.168	0.011
-138.443	271.025	-0.236	0.413
-137.429	-200.000	0.245	0.000
-136.414	800.000	-0.053	-0.226
-135.399	800.000	0.108	0.344
-134.385	-159.227	0.115	0.006
-133.370	-49.331	0.144	-0.069
-132.356	-57.651	0.298	-0.130
-131.341	800.000	0.102	-0.387
-130.326	800.000	0.069	-0.258
-129.312	74.181	0.064	0.067
-128.297	-152.502	0.121	0.009
-127.283	-176.507	-0.131	-0.003
-126.268	288.567	0.100	0.180
-125.253	-200.000	0.015	-0.253
-124.239	78.891	0.269	-0.286
-123.224	-200.000	0.039	-0.208
-122.210	195.426	0.102	0.155
-121.195	-22.048	0.317	0.192
-120.180	-12.170	0.096	0.063
-119.166	-200.000	-0.000	-0.241
-118.151	-22.184	0.291	-0.176
-117.137	233.831	0.016	-0.027
-116.122	407.146	-0.030	-0.063
-115.107	-200.000	-0.010	0.128
-114.093	-200.000	-0.050	0.305
-113.078	-45.172	0.387	0.191
-112.064	-133.170	0.240	0.030
-111.049	252.886	-0.140	-0.238
-110.034	-136.771	0.286	-0.033
-109.020	546.636	-0.083	-0.199
-108.005	252.316	-0.003	0.006
-106.991	-200.000	0.010	-0.211
-105.976	559.268	0.136	0.327
-104.962	-200.000	0.005	0.148
-103.947	-63.292	0.156	-0.064
-102.932	723.730	0.137	0.362
-101.918	-200.000	0.039	0.190
-100.903	-40.422	-0.095	0.049
-99.889	116.399	0.069	-0.084
-98.874	332.264	-0.038	-0.074
-97.859	-101.218	0.389	0.095
-96.845	289.587	0.090	0.162
-95.830	-35.178	0.243	0.132
-94.816	330.496	-0.115	0.220
-93.801	335.730	-0.046	-0.089
-92.786	-138.414	0.423	0.046
-91.772	13.788	-0.242	0.187
-90.757	121.054	-0.170	0.210
-89.743	-141.295	-0.292	-0.030
-88.728	466.412	0.030	-0.068
-87.713	-37.267	0.073	-0.039
-86.699	-153.047	0.253	0.018
-85.684	77.295	0.367	0.388
-84.670	-121.233	-0.367	0.061
-83.655	-59.379	-0.066	-0.028
-82.640	447.544	-0.115	0.251
-81.626	-96.936	-0.207	0.054
-80.611	64.344	0.005	-0.005
-79.597	-7.557	0.248	0.167
-78.582	412.717	0.037	0.078
-77.567	469.557	0.078	-0.173
-76.553	76.661	0.265	0.279
-75.538	-200.000	0.011	-0.089
-74.524	-13.433	0.189	-0.122
-73.509	-200.000	0.018	0.452
-72.494	-0.731	0.005	-0.004
-71.480	190.431	0.084	-0.126
-70.465	54.055	-0.053	0.051
-69.451	19.466	0.214	-0.171
-68.436	322.054	0.062	-0.117
-67.422	-84.294	-0.072	0.023
-66.407	474.278	-0.076	0.170
-65.392	-142.244	-0.180	-0.018
-64.378	-200.000	0.005	-0.063
-63.363	800.000	0.084	0.260
-62.349	-108.360	0.309	0.066
-61.334	53.246	-0.979	-0.931
-60.319	-34.487	0.715	0.389
-59.305	800.000	-0.214	-0.886
-58.290	163.380	0.402	0.561
-57.276	327.073	0.700	1.332
-56.261	-200.000	93.056	549.084
-55.246	605.220	1383.951	3421.040
-54.232	186.125	2599.021	3836.607
-53.217	121.609	2197.181	2718.314
-52.203	47.080	1647.702	1521.395
-51.188	38.968	1381.184	1224.912
-50.173	35.534	1338.304	1166.032
-49.159	55.873	1386.479	1334.161
-48.144	60.129	1404.600	1377.828
-47.130	39.250	1359.098	1206.865
-46.115	35.508	1341.780	1168.715
-45.100	35.277	1336.892	1163.009
-44.086	35.219	1334.034	1160.132
-43.071	35.263	1331.849	1158.447
-42.057	35.173	1330.175	1156.402
-41.042	35.224	1328.203	1154.951
-40.027	35.116	1326.695	1152.942
-39.013	35.228	1324.335	1151.518
-37.998	35.335	1322.601	1150.608
-36.984	35.356	1320.891	1149.198
-35.969	35.458	1319.004	1148.122
-34.954	35.409	1317.544	1146.512
-33.940	35.537	1315.621	1145.560
-32.925	35.449	1314.626	1144.122
-31.911	35.536	1312.935	1143.125
-30.896	35.640	1311.159	1142.150
-29.881	35.599	1309.951	1140.810
-28.867	35.551	1308.759	1139.440
-27.852	35.529	1307.254	1137.953
-26.838	35.445	1306.007	1136.327
-25.823	35.491	1304.811	1135.516
-24.809	35.435	1303.390	1133.903
-23.794	35.516	1301.732	1132.894
-22.779	35.457	1300.284	1131.242
-21.765	35.411	1299.590	1130.317
-20.750	35.408	1297.980	1128.858
-19.736	35.347	1296.585	1127.242
-18.721	35.358	1295.095	1125.966
-17.706	35.323	1293.683	1124.489
-16.692	35.252	1293.124	1123.543
-15.677	35.298	1292.047	1122.827
-14.663	35.369	1290.428	1121.794
-13.648	35.310	1289.503	1120.598
-12.633	35.232	1288.413	1119.152
-11.619	35.243	1287.509	1118.386
-10.604	35.311	1287.163	1118.439
-9.590	35.283	1285.502	1116.788
-8.575	35.254	1284.980	1116.122
-7.560	35.165	1284.375	1115.032
-6.546	35.204	1283.273	1114.258
-5.531	35.249	1282.075	1113.434
-4.517	35.358	1280.819	1112.937
-3.502	35.282	1280.008	1111.743
-2.487	35.360	1279.001	1111.279
-1.473	35.314	1275.572	1107.991
-0.458	34.335	1260.515	1089.275
0.556	32.520	1241.660	1047.715
1.571	28.306	1245.763	1027.503
2.586	26.808	1259.151	1029.949
3.600	24.857	1246.431	1008.471
4.615	18.710	1172.061	915.538
5.629	9.474	1094.159	808.425
6.644	5.129	1072.613	771.003
7.659	4.591	1070.425	766.710
8.673	4.523	1069.064	765.331
9.688	4.380	1067.444	763.405
10.702	5.063	1066.743	766.190
11.717	11.126	1075.097	802.057
12.731	19.666	1086.730	853.004
13.746	22.694	1089.157	869.791
14.761	21.846	1088.510	865.014
15.775	20.801	1086.767	858.407
16.790	19.924	1084.566	852.274
17.804	19.234	1083.056	847.620
18.819	19.078	1081.792	845.791
19.834	18.765	1081.177	843.697
20.848	18.738	1080.528	842.981
21.863	18.506	1079.450	840.929
22.877	18.312	1079.047	839.590
23.892	18.426	1077.680	839.010
24.907	18.342	1077.134	838.098
25.921	18.266	1076.394	837.078
26.936	18.201	1075.120	835.694
27.950	18.450	1073.527	835.599
28.965	18.353	1072.486	834.242
29.980	18.582	1070.703	833.891
30.994	18.638	1069.388	833.069
32.009	18.689	1068.797	832.778
33.023	18.573	1068.059	831.569
34.038	18.604	1066.360	830.324
35.053	18.437	1065.885	829.072
36.067	18.494	1064.731	828.376
37.082	18.453	1064.141	827.646
38.096	18.595	1063.795	827.991
39.111	18.564	1063.210	827.312
40.126	18.403	1061.153	824.863
41.140	18.107	1060.153	822.590
42.155	18.061	1058.622	821.108
43.169	18.052	1057.517	820.133
44.184	17.934	1056.525	818.728
45.199	18.053	1055.680	818.569
46.213	18.104	1054.747	818.017
47.228	18.264	1053.928	818.075
48.242	18.421	1053.063	818.079
49.257	18.385	1052.163	817.136
50.271	18.291	1051.513	816.111
51.286	18.442	1050.555	816.013
52.301	18.396	1049.312	814.761
53.315	18.335	1048.450	813.725
54.330	18.373	1046.614	812.408
55.344	18.084	1046.538	810.909
56.359	18.270	1045.417	810.848
57.374	18.185	1044.680	809.804
58.388	18.041	1043.560	808.185
59.403	17.872	1042.922	806.817
60.417	18.053	1042.345	807.157
61.432	17.967	1041.542	806.057
62.447	17.826	1040.742	804.701
63.461	17.788	1039.783	803.710
64.476	17.864	1038.698	803.159
65.490	17.785	1037.930	802.123
66.505	17.822	1037.389	801.806
67.520	17.921	1036.669	801.644
68.534	17.954	1035.905	801.135
69.549	17.805	1035.345	799.932
70.563	17.818	1033.996	798.882
71.578	17.564	1033.598	797.316
72.593	17.753	1032.018	796.909
73.607	17.644	1031.481	795.916
74.622	17.678	1031.222	795.803
75.636	17.671	1030.561	795.190
76.651	17.646	1029.714	794.348
77.666	17.890	1028.717	794.646
78.680	17.754	1028.487	793.764
79.695	17.786	1028.036	793.493
80.709	17.911	1027.093	793.280
81.724	18.182	1026.297	793.851
82.739	18.169	1026.152	793.607
83.753	18.344	1025.416	793.782
84.768	18.543	1024.618	794.012
85.782	18.678	1023.836	793.964
86.797	18.626	1023.284	793.225
87.812	18.379	1022.443	791.359
88.826	18.484	1021.105	790.741
89.841	18.545	1020.335	790.353
90.855	18.601	1019.550	789.935
91.870	18.551	1018.690	788.967
92.884	18.735	1017.251	788.629
93.899	18.577	1016.552	787.293
94.914	18.760	1015.543	787.280
95.928	18.602	1015.117	786.155
96.943	18.653	1013.933	785.403
97.957	18.537	1012.880	783.987
98.972	18.619	1012.276	783.825
99.987	18.562	1011.204	782.665
101.001	18.603	1010.305	782.090
102.016	18.507	1009.485	780.947
103.030	18.524	1008.722	780.364
104.045	18.561	1008.192	780.055
105.060	18.355	1007.214	778.290
106.074	18.237	1005.684	776.504
107.089	17.859	1004.934	774.144
108.103	17.882	1003.967	773.434
109.118	17.926	1002.880	772.728
110.133	17.896	1001.807	771.698
111.147	18.038	1000.737	771.446
112.162	18.002	999.937	770.596
113.176	18.123	999.423	770.680
114.191	18.167	998.887	770.396
115.206	18.088	997.907	769.217
116.220	18.092	997.308	768.703
117.235	18.122	996.285	767.982
118.249	17.899	995.701	766.461
119.264	18.054	994.459	766.133
120.279	17.956	993.558	764.932
121.293	17.962	992.742	764.266
122.308	17.783	991.785	762.661
123.322	17.814	991.047	762.165
124.337	17.703	990.247	760.984
125.352	17.749	988.948	760.125
126.366	17.870	987.104	759.179
127.381	17.800	986.723	758.506
128.395	17.725	986.198	757.703
129.410	17.822	985.340	757.409
130.424	18.003	984.460	757.467
131.439	18.133	983.211	757.015
132.454	18.138	983.218	756.975
133.468	18.294	982.062	756.707
134.483	18.230	981.388	755.837
135.497	18.146	980.564	754.765
136.512	18.175	979.565	754.060
137.527	18.147	978.981	753.420
138.541	18.118	978.041	752.501
139.556	18.292	977.734	752.963
140.570	18.491	976.606	752.905
141.585	18.543	975.901	752.522
142.600	18.544	974.928	751.708
143.614	18.681	974.241	751.712
144.629	18.659	973.837	751.239
145.643	18.710	972.222	750.149
146.658	18.403	971.555	748.225
147.673	18.391	970.216	747.076
148.687	18.402	969.508	746.512
149.702	18.177	968.446	744.650
150.716	18.215	967.448	743.982
151.731	18.227	967.048	743.660
152.746	18.224	966.418	743.097
153.760	18.222	965.836	742.576
154.775	18.375	965.186	742.673
155.789	18.364	964.527	742.051
156.804	18.380	963.990	741.642
157.819	18.476	963.331	741.485
158.833	18.746	962.479	741.934
159.848	18.824	961.841	741.712
160.862	18.620	961.236	740.300
161.877	18.338	959.237	737.482
162.892	18.185	958.405	736.118
163.906	18.125	957.734	735.277
164.921	18.142	956.957	734.688
165.935	18.296	955.962	734.521
166.950	18.307	955.257	733.963
167.964	18.364	954.281	733.392
168.979	18.234	953.001	731.785
169.994	18.241	952.164	731.109
171.008	18.311	951.921	731.157
172.023	18.528	951.136	731.415
173.037	18.709	950.272	731.456
174.052	18.616	949.382	730.313
175.067	18.266	948.850	728.348
176.081	18.272	947.874	727.562
177.096	18.157	947.521	726.734
178.110	18.325	946.509	726.608
179.125	18.415	946.119	726.625
180.140	18.376	945.760	726.120
181.154	18.429	945.749	726.272
182.169	18.643	945.236	726.722
183.183	18.749	944.354	726.426
184.198	18.729	943.628	725.720
185.213	18.692	942.603	724.711
186.227	18.776	942.075	724.595
187.242	18.712	941.854	724.092
188.256	19.115	940.958	725.038
189.271	18.832	940.651	723.544
190.286	18.502	939.783	721.423
191.300	18.220	938.342	719.071
192.315	18.151	937.387	717.985
193.329	18.066	937.551	717.688
194.344	18.326	936.430	717.857
195.359	18.440	936.024	717.960
196.373	18.688	935.275	718.359
197.388	18.797	935.275	718.754
198.402	18.798	935.095	718.557
199.417	19.021	934.901	719.276
200.432	19.152	934.126	719.162
201.446	19.094	933.613	718.462
202.461	19.210	933.249	718.604
203.475	19.181	932.452	717.804
204.490	18.881	931.684	715.901
205.504	18.802	930.484	714.586
206.519	18.878	929.823	714.332
207.534	18.719	929.049	713.012
208.548	18.782	928.774	713.000
209.563	18.785	927.826	712.223
210.577	18.927	926.916	712.049
211.592	19.226	926.131	712.621
212.607	19.206	925.764	712.190
213.621	18.951	924.670	710.233
214.636	19.014	924.664	710.427
215.650	19.106	923.553	709.887
216.665	19.375	922.816	710.370
217.680	19.298	922.619	709.836
218.694	19.245	921.927	709.025
219.709	19.201	921.463	708.421
220.723	19.129	920.761	707.523
221.738	19.180	919.582	706.767
222.753	19.326	918.795	706.696
223.767	19.285	918.786	706.457
224.782	19.336	918.419	706.323
225.796	19.283	918.062	705.769
226.811	19.320	916.591	704.728
227.826	19.143	915.999	703.485
228.840	19.084	915.480	702.786
229.855	19.062	914.627	701.979
230.869	19.074	913.916	701.419
231.884	19.095	913.075	700.797
232.899	18.938	912.293	699.498
233.913	19.008	911.400	699.035
234.928	18.950	910.923	698.372
235.942	18.812	910.754	697.619
236.957	18.923	909.764	697.252
237.972	18.868	909.660	696.883
238.986	18.992	908.362	696.331
240.001	19.015	908.060	696.131
241.015	19.036	907.292	695.565
242.030	19.199	906.576	695.612
243.045	19.182	906.200	695.194
244.059	19.217	905.752	694.930
245.074	19.376	904.925	694.874
246.088	19.320	904.488	694.252
247.103	19.356	904.054	694.005
248.117	19.579	903.533	694.437
249.132	19.867	903.127	695.222
250.147	19.896	902.998	695.179
251.161	19.986	901.931	694.657
252.176	20.180	901.253	694.851
253.190	20.041	900.677	693.787
254.205	20.178	900.100	693.830
255.220	20.039	899.293	692.590
256.234	20.091	898.490	692.120
257.249	19.865	898.384	691.072
258.263	20.003	897.233	690.678
259.278	20.140	896.748	690.790
260.293	19.957	896.644	689.918
261.307	20.080	896.141	689.961
262.322	20.142	895.097	689.344
263.336	20.175	894.544	688.985
264.351	20.226	893.688	688.470
265.366	20.232	892.972	687.879
266.380	20.196	891.828	686.794
267.395	20.132	891.219	686.011
268.409	20.008	890.708	685.066
269.424	19.964	890.188	684.433
270.439	20.097	889.290	684.208
271.453	19.935	888.525	682.917
272.468	19.874	887.905	682.141
273.482	19.849	887.343	681.550
274.497	19.986	886.442	681.339
275.512	19.933	886.104	680.811
276.526	19.927	886.203	680.802
277.541	20.035	885.559	680.671
278.555	20.239	884.843	680.860
279.570	20.450	884.096	681.052
280.585	20.214	883.863	679.887
281.599	20.113	882.843	678.647
282.614	19.901	882.086	677.177
283.628	20.096	881.125	677.143
284.643	20.031	880.612	676.435
285.657	20.153	879.780	676.211
286.672	20.115	879.317	675.647
287.687	20.187	878.672	675.370
288.701	19.945	878.582	674.300
289.716	20.127	877.791	674.342
290.730	20.196	877.259	674.140
291.745	20.284	876.914	674.159
292.760	20.274	876.438	673.695
293.774	20.279	875.833	673.191
294.789	20.245	874.927	672.301
295.803	20.118	874.107	671.122
296.818	20.147	873.443	670.663
297.833	20.179	872.520	670.020
298.847	20.126	872.353	669.626
299.862	20.359	871.476	669.792
300.876	20.401	871.263	669.733
301.891	20.442	870.732	669.425
302.906	20.497	870.636	669.502
303.920	20.723	869.707	669.596
304.935	20.752	869.125	669.200
305.949	20.692	868.497	668.430
306.964	20.638	867.715	667.562
307.979	20.641	867.138	667.069
308.993	20.644	867.185	667.059
310.008	20.766	866.352	666.825
311.022	20.593	865.446	665.406
312.037	20.474	864.617	664.255
313.052	20.195	864.135	662.761
314.066	20.210	863.357	662.164
315.081	20.182	863.119	661.816
316.095	20.156	862.403	661.107
317.110	20.265	861.551	660.812
318.125	20.349	861.162	660.772
319.139	20.307	860.917	660.370
320.154	20.407	860.098	660.060
321.168	20.330	859.594	659.324
322.183	20.278	859.285	658.829
323.197	20.362	858.549	658.528
324.212	20.494	857.963	658.518
325.227	20.376	857.819	657.903
326.241	20.469	857.047	657.606
327.256	20.306	856.286	656.348
328.270	20.325	855.795	655.984
329.285	20.402	855.051	655.647
330.300	20.374	854.632	655.162
331.314	20.433	853.815	654.699
332.329	20.566	854.021	655.302
333.343	20.683	853.422	655.224
334.358	20.674	852.925	654.752
335.373	20.612	852.272	653.959
336.387	20.797	852.065	654.436
337.402	20.706	852.015	653.998
338.416	20.925	851.594	654.439
339.431	21.051	851.631	654.882
340.446	21.211	850.747	654.746
341.460	21.083	850.719	654.187
342.475	21.147	850.515	654.210
343.489	21.183	850.139	653.999
344.504	21.260	849.507	653.742
345.519	21.274	848.924	653.290
346.533	21.131	848.573	652.427
347.548	20.994	847.610	651.118
348.562	20.950	846.501	650.044
349.577	20.855	845.975	649.228
350.592	20.591	845.692	647.969
351.606	20.778	844.728	647.870
352.621	20.829	844.172	647.576
353.635	21.018	843.359	647.595
354.650	20.939	842.634	646.691
355.665	20.994	842.153	646.468
356.679	21.097	841.812	646.530
357.694	21.081	840.977	645.771
358.708	21.114	839.935	645.037
359.723	20.984	839.821	644.413
360.738	21.115	839.197	644.360
361.752	21.192	838.663	644.178
362.767	21.304	838.389	644.321
363.781	21.355	838.265	644.358
364.796	21.499	837.635	644.346
365.810	21.508	837.482	644.205
366.825	21.744	836.621	644.352
367.840	21.468	836.539	643.219
368.854	21.552	835.717	642.840
369.869	21.413	835.248	641.910
370.883	21.293	834.888	641.137
371.898	21.429	834.749	641.472
372.913	21.537	834.683	641.759
373.927	21.437	833.507	640.433
374.942	21.441	833.347	640.270
375.956	21.590	833.107	640.571
376.971	21.762	832.234	640.473
377.986	21.897	831.738	640.528
379.000	21.687	831.360	639.413
380.015	21.756	830.817	639.191
381.029	21.762	830.524	638.930
382.044	21.793	829.411	638.131
383.059	21.695	829.096	637.476
384.073	21.700	828.531	637.002
385.088	21.608	827.807	636.057
386.102	21.355	827.435	634.798
387.117	21.242	826.661	633.736
388.132	21.291	825.963	633.323
389.146	21.436	825.677	633.573
390.161	21.623	825.214	633.836
391.175	21.774	824.563	633.826
392.190	21.659	823.668	632.669
393.205	21.685	823.277	632.404
394.219	21.661	822.755	631.863
395.234	21.526	822.599	631.199
396.248	21.350	822.004	630.053
397.263	21.162	821.653	629.050
398.278	21.281	821.194	629.072
399.292	21.294	820.622	628.624
400.307	21.350	820.221	628.462
401.321	21.344	819.887	628.130
402.336	21.510	819.241	628.176
403.350	21.516	819.115	628.046
404.365	21.835	818.850	628.932
405.380	21.720	818.362	628.089
406.394	21.924	817.834	628.359
407.409	22.024	817.486	628.393
408.423	22.012	817.479	628.290
409.438	22.041	817.076	628.026
410.453	22.217	816.674	628.290
411.467	22.130	815.944	627.364
412.482	22.153	815.468	627.025
413.496	22.410	815.122	627.620
414.511	22.280	814.750	626.816
415.526	22.107	813.956	625.532
416.540	22.160	813.634	625.419
417.555	22.191	813.157	625.105
418.569	22.147	812.687	624.533
419.584	22.173	812.346	624.308
420.599	22.232	811.933	624.146
421.613	158.648	1368.950	1788.991
422.628	138.084	1450.137	1789.097
