DTS Sentinel unit serial number:	SN413079Multiplexer serial number:	ORYXHardware model number:	OX4-SRSoftware version number:	ORYX F/W v4.00 Oryx Data Collector v3.7.2.0data status	okinstallation	princeton_trtdifferential loss correction	single-endedforward channel	channel 1reverse channel	N/Adate	2019/09/16time	14:54:35forward acquisition time	60.00reverse acquisition time	0.00gamma	496.2192k internal	0.2293k external	0.2293temperature offset calibration	0.9954default loss term (dB/km)	0.3790temperature slope calibration	1.0000multiplexer offset coefficient	1.0000multiplexer slope coefficient	1.0000fibre end	0.00T internal ref (°C)	41.31T ext. ref 1 (°C)	14.43T ext. ref 2 (°C)	35.83length (m)	temperature (°C)	Stokes	anti-Stokes-747.200	453.690	0.057	0.129
-746.185	74.371	0.104	-0.111
-745.171	-163.767	-0.182	0.009
-744.156	-28.471	-0.438	0.259
-743.142	-85.923	0.316	0.100
-742.127	452.155	0.315	0.712
-741.112	94.419	0.242	-0.281
-740.098	221.028	-0.048	0.079
-739.083	800.000	-0.054	-0.177
-738.069	800.000	-0.046	0.153
-737.054	800.000	0.035	-0.131
-736.039	-200.000	0.013	0.092
-735.025	86.439	-0.101	0.114
-734.010	-200.000	0.040	-0.198
-732.996	-54.708	-0.236	-0.109
-731.981	43.821	-0.109	0.102
-730.966	8.893	0.219	-0.169
-729.952	125.079	-0.359	-0.462
-728.937	-74.192	-0.022	0.008
-727.923	-111.289	0.114	-0.024
-726.908	-130.978	-0.114	-0.016
-725.894	102.647	-0.147	-0.176
-724.879	-140.030	-0.089	-0.010
-723.864	-32.993	-0.659	0.374
-722.850	259.168	-0.075	0.132
-721.835	800.000	-0.017	0.066
-720.821	-63.128	0.262	0.111
-719.806	800.000	0.088	0.302
-718.791	-21.536	-0.230	-0.143
-717.777	-176.373	0.296	0.008
-716.762	800.000	-0.026	0.098
-715.748	-27.170	0.355	-0.212
-714.733	-20.765	0.284	0.178
-713.718	216.513	-0.105	-0.170
-712.704	156.289	-0.115	0.162
-711.689	800.000	-0.062	0.259
-710.675	-45.792	-0.227	-0.115
-709.660	190.569	0.057	-0.088
-708.645	148.476	0.193	0.267
-707.631	356.576	-0.123	0.251
-706.616	-105.965	0.162	0.037
-705.602	800.000	0.034	-0.148
-704.587	-131.269	0.233	0.032
-703.572	486.899	-0.106	0.246
-702.558	-200.000	-0.048	-0.332
-701.543	-200.000	0.007	0.328
-700.529	14.972	0.240	-0.192
-699.514	-200.000	-0.002	-0.230
-698.499	-61.675	-0.175	-0.075
-697.485	-18.594	0.344	-0.219
-696.470	800.000	0.147	0.444
-695.456	449.343	0.088	0.199
-694.441	-52.523	-0.130	-0.062
-693.426	708.534	0.080	0.217
-692.412	-132.501	-0.256	0.034
-691.397	32.250	0.143	-0.126
-690.383	15.900	-0.241	-0.194
-689.368	-12.610	-0.136	-0.091
-688.354	95.408	-0.268	-0.312
-687.339	-10.099	0.334	0.226
-686.324	-4.376	-0.132	-0.093
-685.310	-130.384	-0.188	-0.026
-684.295	800.000	-0.031	0.129
-683.281	453.520	0.017	-0.039
-682.266	76.839	-0.240	-0.260
-681.251	-200.000	0.019	-0.137
-680.237	172.807	-0.077	0.114
-679.222	800.000	-0.119	-0.369
-678.208	800.000	0.009	0.035
-677.193	-68.831	-0.120	-0.047
-676.178	-200.000	0.019	0.281
-675.164	-7.055	0.077	0.053
-674.149	174.784	0.205	0.303
-673.135	102.000	0.068	0.081
-672.120	103.770	0.124	0.149
-671.105	-185.191	-0.142	-0.002
-670.091	-200.000	0.043	-0.236
-669.076	37.520	0.139	0.126
-668.062	800.000	0.056	0.162
-667.047	-181.789	-0.305	-0.006
-666.032	-101.105	-0.474	0.118
-665.018	-144.313	0.113	-0.011
-664.003	584.821	0.061	-0.152
-662.989	578.724	-0.077	-0.192
-661.974	56.481	0.186	-0.185
-660.959	134.451	-0.067	0.089
-659.945	-200.000	0.012	-0.282
-658.930	77.170	-0.447	-0.485
-657.916	-90.497	-0.231	0.068
-656.901	800.000	0.011	-0.034
-655.886	-200.000	0.022	-0.171
-654.872	-148.111	0.086	0.007
-653.857	3.635	-0.095	-0.070
-652.843	-200.000	0.019	-0.226
-651.828	324.476	0.068	0.133
-650.814	595.754	-0.010	-0.025
-649.799	-200.000	-0.038	-0.412
-648.784	-41.819	-0.230	-0.120
-647.770	-97.799	0.203	0.053
-646.755	-200.000	-0.083	0.000
-645.741	198.718	-0.181	0.283
-644.726	292.200	0.142	0.264
-643.711	-146.452	-0.202	0.018
-642.697	-155.212	-0.436	0.029
-641.682	-146.807	-0.134	-0.012
-640.668	-26.005	-0.175	0.105
-639.653	-200.000	0.063	0.283
-638.638	52.638	-0.071	0.069
-637.624	800.000	-0.028	0.115
-636.609	13.221	0.270	-0.213
-635.595	420.529	-0.017	0.038
-634.580	-200.000	0.002	-0.019
-633.565	5.181	-0.208	0.156
-632.551	133.187	0.145	0.191
-631.536	-38.456	-0.227	0.122
-630.522	800.000	-0.037	0.146
-629.507	-200.000	-0.009	-0.262
-628.492	248.846	-0.081	-0.141
-627.478	-130.374	-0.330	0.046
-626.463	515.334	0.038	-0.090
-625.449	-200.000	0.040	-0.256
-624.434	137.728	0.125	0.166
-623.419	800.000	-0.045	0.129
-622.405	-7.694	0.212	-0.146
-621.390	-80.074	-0.228	0.078
-620.376	48.924	0.255	0.244
-619.361	-8.070	-0.102	-0.070
-618.346	501.102	-0.053	0.126
-617.332	-4.849	-0.219	-0.154
-616.317	-200.000	0.014	-0.149
-615.303	339.549	0.162	-0.322
-614.288	-91.700	-0.287	0.083
-613.273	371.672	0.064	-0.132
-612.259	75.462	-0.217	-0.233
-611.244	-101.496	-0.217	-0.054
-610.230	-130.554	-0.068	-0.009
-609.215	-11.817	0.201	-0.135
-608.201	-136.052	-0.194	-0.023
-607.186	800.000	-0.088	-0.327
-606.171	50.356	0.237	0.228
-605.157	86.195	0.102	-0.114
-604.142	-200.000	0.054	-0.270
-603.128	40.824	0.087	-0.080
-602.113	103.910	-0.053	0.063
-601.098	34.176	-0.150	-0.133
-600.084	-98.515	0.198	-0.052
-599.069	-131.671	-0.227	-0.030
-598.055	-44.909	-0.206	0.105
-597.040	-21.666	-0.128	0.079
-596.025	-92.649	0.048	0.014
-595.011	-37.523	-0.131	-0.071
-593.996	-189.079	0.172	-0.002
-592.982	29.705	0.059	-0.051
-591.967	-130.439	0.076	0.011
-590.952	153.643	-0.125	0.174
-589.938	-200.000	-0.003	-0.041
-588.923	-23.699	0.084	0.051
-587.909	-200.000	-0.020	-0.216
-586.894	122.417	0.188	0.239
-585.879	-117.034	-0.175	-0.032
-584.865	-200.000	0.005	-0.181
-583.850	-110.225	-0.249	0.053
-582.836	-59.143	-0.145	-0.063
-581.821	728.770	0.180	-0.488
-580.806	-2.907	-0.100	-0.071
-579.792	-200.000	0.039	-0.264
-578.777	-200.000	0.028	0.185
-577.763	369.914	0.239	-0.491
-576.748	-200.000	-0.014	0.234
-575.733	676.233	0.066	0.174
-574.719	-45.282	-0.347	0.175
-573.704	390.528	0.099	0.209
-572.690	-90.103	-0.254	-0.075
-571.675	31.220	-0.187	-0.163
-570.661	21.400	0.063	-0.052
-569.646	72.318	-0.062	0.065
-568.631	490.262	0.075	-0.175
-567.617	-200.000	-0.011	0.124
-566.602	280.428	0.224	-0.408
-565.588	89.621	-0.147	-0.167
-564.573	112.634	-0.191	-0.235
-563.558	-200.000	-0.005	0.043
-562.544	-7.866	0.230	-0.158
-561.529	-131.399	-0.323	0.043
-560.515	-200.000	0.036	-0.254
-559.500	-200.000	0.040	-0.238
-558.485	-113.452	0.027	0.005
-557.471	110.935	-0.150	0.184
-556.456	54.246	-0.249	-0.243
-555.442	-102.660	0.368	-0.089
-554.427	17.568	0.122	-0.099
-553.412	261.337	-0.079	-0.138
-552.398	-112.734	0.131	-0.026
-551.383	28.740	0.387	-0.333
-550.369	-40.407	-0.147	-0.078
-549.354	-71.549	-0.115	0.044
-548.339	421.415	-0.132	0.287
-547.325	125.151	0.109	0.140
-546.310	-181.101	-0.108	0.002
-545.296	-97.960	0.028	0.007
-544.281	-57.970	0.048	0.022
-543.266	-200.000	0.019	-0.427
-542.252	-200.000	0.038	-0.209
-541.237	-200.000	-0.062	0.382
-540.223	-88.729	0.256	0.077
-539.208	-105.805	0.253	-0.058
-538.193	-130.223	0.214	0.030
-537.179	140.678	-0.084	-0.113
-536.164	708.875	0.049	-0.132
-535.150	800.000	-0.071	-0.314
-534.135	-200.000	0.036	-0.371
-533.121	800.000	0.032	-0.124
-532.106	693.177	0.081	-0.217
-531.091	304.073	0.106	0.200
-530.077	800.000	-0.049	0.153
-529.062	169.116	-0.091	-0.132
-528.048	-200.000	0.046	0.253
-527.033	-170.333	-0.259	-0.009
-526.018	180.898	0.061	0.090
-525.004	-200.000	-0.010	-0.289
-523.989	88.075	-0.119	0.134
-522.975	-120.053	0.207	-0.036
-521.960	0.555	0.069	-0.050
-520.945	-23.790	0.519	0.315
-519.931	800.000	-0.095	-0.367
-518.916	-89.465	0.130	-0.039
-517.902	-45.172	-0.327	-0.165
-516.887	-5.701	-0.265	-0.184
-515.872	137.415	-0.173	0.229
-514.858	311.139	-0.093	0.176
-513.843	85.387	0.131	-0.146
-512.829	46.019	-0.296	-0.278
-511.814	800.000	-0.084	-0.253
-510.799	800.000	0.073	-0.245
-509.785	17.631	0.256	0.206
-508.770	195.998	-0.177	-0.274
-507.756	800.000	-0.047	-0.179
-506.741	-26.367	-0.188	0.112
-505.726	-200.000	0.031	-0.183
-504.712	800.000	0.129	-0.479
-503.697	125.336	0.107	0.137
-502.683	136.724	0.294	-0.389
-501.668	-43.741	-0.272	-0.139
-500.653	-200.000	0.026	0.116
-499.639	-193.233	-0.188	-0.002
-498.624	-93.993	0.271	-0.075
-497.610	-200.000	-0.003	-0.137
-496.595	800.000	-0.048	-0.172
-495.581	54.552	0.058	-0.057
-494.566	-63.306	-0.085	0.035
-493.551	-26.457	-0.250	-0.149
-492.537	800.000	-0.084	0.282
-491.522	164.993	0.042	0.059
-490.508	-200.000	0.033	-0.171
-489.493	-136.156	-0.274	0.032
-488.478	546.908	0.065	0.159
-487.464	-200.000	-0.063	0.286
-486.449	-53.678	0.290	-0.134
-485.435	189.593	0.111	0.168
-484.420	152.598	0.178	0.247
-483.405	238.463	0.137	0.230
-482.391	162.498	0.118	-0.168
-481.376	-126.879	-0.221	-0.033
-480.362	-200.000	0.042	0.318
-479.347	800.000	0.053	0.175
-478.332	-92.796	0.124	-0.035
-477.318	-66.157	-0.150	-0.060
-476.303	52.689	-0.172	0.167
-475.289	800.000	-0.056	0.168
-474.274	-39.061	0.181	-0.097
-473.259	800.000	0.021	-0.092
-472.245	354.210	-0.224	-0.450
-471.230	-200.000	0.025	-0.236
-470.216	-48.629	-0.103	0.050
-469.201	800.000	0.051	-0.155
-468.186	107.163	0.051	-0.061
-467.172	-138.322	0.138	0.015
-466.157	-200.000	-0.033	0.173
-465.143	769.627	0.073	0.200
-464.128	-68.509	-0.223	0.087
-463.113	150.651	0.063	-0.087
-462.099	547.624	-0.151	0.366
-461.084	435.232	-0.096	-0.212
-460.070	-71.830	0.150	0.056
-459.055	-117.584	-0.224	-0.041
-458.040	52.712	-0.314	0.303
-457.026	21.398	0.063	0.052
-456.011	800.000	0.075	0.279
-454.997	-161.584	0.188	0.010
-453.982	440.087	0.045	-0.100
-452.968	-52.471	-0.266	0.125
-451.953	75.796	0.160	-0.171
-450.938	800.000	0.053	-0.205
-449.924	-41.694	-0.146	0.076
-448.909	711.671	-0.060	0.159
-447.895	-93.954	-0.282	0.078
-446.880	415.323	0.044	-0.096
-445.865	44.573	0.111	0.103
-444.851	-200.000	0.010	-0.116
-443.836	718.169	-0.063	-0.169
-442.822	258.294	-0.082	-0.142
-441.807	-109.646	-0.036	0.008
-440.792	800.000	-0.047	0.181
-439.778	87.174	-0.220	-0.246
-438.763	76.637	0.365	-0.392
-437.749	-52.473	0.225	-0.105
-436.734	97.511	0.173	-0.201
-435.719	-200.000	0.009	0.134
-434.705	-132.498	0.373	-0.048
-433.690	309.269	0.124	-0.234
-432.676	192.458	-0.224	-0.342
-431.661	-119.044	-0.087	-0.015
-430.646	-111.201	-0.178	-0.037
-429.632	184.512	0.126	0.189
-428.617	-48.615	-0.074	0.036
-427.603	25.268	-0.308	-0.259
-426.588	-200.000	0.010	-0.254
-425.573	-200.000	-0.035	-0.157
-424.559	69.678	-0.294	-0.306
-423.544	392.866	0.029	0.060
-422.530	-200.000	-0.001	0.172
-421.515	-46.441	0.150	0.074
-420.500	-200.000	-0.029	-0.314
-419.486	-48.807	-0.208	0.101
-418.471	800.000	-0.041	-0.141
-417.457	107.001	-0.057	-0.068
-416.442	-96.011	0.167	-0.045
-415.428	-200.000	-0.015	0.109
-414.413	23.203	-0.096	0.079
-413.398	800.000	-0.133	0.456
-412.384	412.956	0.064	0.138
-411.369	289.878	0.143	-0.263
-410.355	-27.991	-0.222	-0.130
-409.340	-40.851	-0.106	0.055
-408.325	-28.653	-0.213	0.124
-407.311	399.105	-0.065	-0.137
-406.296	-200.000	-0.005	-0.198
-405.282	800.000	-0.024	-0.072
-404.267	29.921	0.089	0.077
-403.252	-194.878	-0.302	0.002
-402.238	-120.887	-0.316	0.054
-401.223	102.802	-0.106	0.125
-400.209	3.771	-0.261	0.192
-399.194	800.000	-0.070	-0.207
-398.179	309.160	-0.024	0.046
-397.165	63.550	0.051	-0.052
-396.150	800.000	0.012	-0.046
-395.136	-57.461	0.019	0.009
-394.121	371.004	-0.065	0.133
-393.106	-200.000	0.025	0.127
-392.092	226.917	0.166	0.272
-391.077	70.882	-0.077	0.080
-390.063	192.627	0.200	0.304
-389.048	800.000	0.040	-0.148
-388.033	19.574	0.068	0.056
-387.019	156.513	-0.103	0.144
-386.004	-93.014	-0.305	-0.086
-384.990	-127.309	-0.518	0.076
-383.975	-64.172	0.309	-0.127
-382.960	32.007	-0.163	-0.142
-381.946	800.000	0.097	0.374
-380.931	-89.658	0.309	-0.091
-379.917	84.519	0.269	0.297
-378.902	-189.423	-0.090	-0.001
-377.888	183.140	0.099	-0.148
-376.873	-158.269	-0.094	-0.006
-375.858	721.028	0.069	0.186
-374.844	-200.000	0.004	-0.087
-373.829	800.000	0.088	0.269
-372.815	800.000	-0.039	0.154
-371.800	800.000	0.059	0.204
-370.785	7.720	0.165	0.124
-369.771	-34.938	-0.344	0.189
-368.756	1.408	0.054	-0.039
-367.742	-81.468	0.346	0.115
-366.727	201.804	-0.167	0.259
-365.712	-200.000	0.019	0.285
-364.698	-9.718	-0.107	0.072
-363.683	-8.662	0.089	-0.060
-362.669	800.000	-0.079	0.314
-361.654	800.000	-0.052	0.189
-360.639	800.000	-0.084	0.286
-359.625	-186.935	0.503	-0.007
-358.610	-200.000	0.007	-0.156
-357.596	-175.704	0.336	-0.009
-356.581	-200.000	0.071	0.436
-355.566	-71.197	-0.255	-0.097
-354.552	688.388	-0.165	0.434
-353.537	118.782	-0.118	0.147
-352.523	16.518	0.140	0.111
-351.508	32.388	0.192	0.167
-350.493	-163.625	0.065	0.003
-349.479	51.502	-0.248	0.237
-348.464	-200.000	-0.001	0.090
-347.450	404.113	0.072	0.152
-346.435	-200.000	0.038	-0.233
-345.420	-99.896	0.162	-0.041
-344.406	-74.438	0.233	0.085
-343.391	-134.389	0.418	-0.052
-342.377	62.116	-0.077	0.078
-341.362	312.962	-0.095	0.180
-340.348	-39.474	-0.105	0.055
-339.333	-200.000	-0.039	0.174
-338.318	-47.773	0.328	-0.160
-337.304	-33.678	0.210	0.116
-336.289	-44.650	0.165	-0.083
-335.275	-10.858	0.220	0.146
-334.260	1.543	-0.275	-0.200
-333.245	-95.142	0.105	0.029
-332.231	-200.000	-0.045	-0.456
-331.216	549.827	-0.070	-0.170
-330.202	-200.000	0.029	0.221
-329.187	-126.029	0.259	-0.039
-328.172	-78.321	-0.195	-0.067
-327.158	35.372	-0.150	-0.133
-326.143	-33.385	0.096	-0.054
-325.129	-117.304	-0.259	0.047
-324.114	81.100	-0.155	0.168
-323.099	106.958	0.033	-0.040
-322.085	341.176	0.110	-0.217
-321.070	104.469	0.150	0.177
-320.056	40.995	0.186	-0.169
-319.041	-124.767	0.154	-0.024
-318.026	-94.471	0.174	-0.048
-317.012	-76.254	-0.130	-0.046
-315.997	281.997	0.029	-0.052
-314.983	177.480	-0.123	0.180
-313.968	-115.567	-0.136	-0.026
-312.953	491.104	-0.097	0.223
-311.939	-45.713	-0.355	-0.177
-310.924	104.273	0.151	0.178
-309.910	-114.135	0.214	0.042
-308.895	-200.000	-0.045	0.331
-307.880	-96.530	-0.065	-0.017
-306.866	-200.000	0.044	0.242
-305.851	538.131	-0.107	0.256
-304.837	77.509	0.207	0.222
-303.822	-63.663	-0.415	-0.171
-302.807	755.258	-0.135	-0.366
-301.793	-66.409	0.178	0.071
-300.778	-30.035	-0.197	-0.113
-299.764	513.370	-0.076	0.179
-298.749	-108.633	0.270	0.058
-297.735	-200.000	0.005	-0.165
-296.720	-200.000	0.023	-0.318
-295.705	301.621	0.142	0.263
-294.691	145.552	0.200	0.270
-293.676	433.051	-0.035	-0.075
-292.662	7.665	-0.307	0.231
-291.647	153.497	-0.034	0.047
-290.632	-200.000	0.032	-0.289
-289.618	800.000	0.031	-0.085
-288.603	-39.598	0.229	0.121
-287.589	513.681	0.140	0.328
-286.574	694.429	-0.023	-0.061
-285.559	-20.107	0.133	-0.082
-284.545	-108.263	-0.143	0.031
-283.530	0.511	0.227	-0.163
-282.516	-12.882	0.052	-0.034
-281.501	-200.000	0.014	0.270
-280.486	107.621	0.125	-0.149
-279.472	112.363	-0.024	0.030
-278.457	162.018	-0.056	-0.078
-277.443	46.909	0.244	-0.228
-276.428	263.159	-0.070	-0.122
-275.413	104.714	-0.160	0.190
-274.399	800.000	0.089	-0.260
-273.384	-48.252	-0.170	-0.082
-272.370	-200.000	-0.036	-0.247
-271.355	-153.129	-0.116	0.008
-270.340	622.575	0.151	-0.382
-269.326	-200.000	-0.045	-0.388
-268.311	224.574	-0.217	-0.352
-267.297	-200.000	-0.015	0.200
-266.282	-26.117	0.439	-0.259
-265.267	429.684	-0.121	0.263
-264.253	8.320	-0.340	0.257
-263.238	20.558	-0.411	0.334
-262.224	800.000	-0.020	0.075
-261.209	800.000	-0.082	0.298
-260.195	800.000	0.021	0.081
-259.180	349.934	-0.028	0.055
-258.165	86.232	0.149	0.165
-257.151	-64.782	0.314	0.128
-256.136	134.650	0.133	-0.173
-255.122	-88.811	0.251	-0.075
-254.107	110.054	-0.043	-0.051
-253.092	-200.000	0.121	0.587
-252.078	350.911	0.069	-0.137
-251.063	107.985	0.141	-0.169
-250.049	415.956	-0.158	0.339
-249.034	-146.226	-0.433	-0.038
-248.019	-200.000	0.001	-0.082
-247.005	150.827	0.152	-0.208
-245.990	-97.369	-0.199	-0.052
-244.976	-83.563	0.285	-0.091
-243.961	-16.014	-0.253	0.162
-242.946	242.935	-0.099	0.166
-241.932	800.000	0.040	-0.172
-240.917	98.278	0.239	0.276
-239.903	4.161	0.182	0.134
-238.888	-200.000	0.035	0.228
-237.873	-167.540	0.109	-0.004
-236.859	-78.587	0.299	-0.103
-235.844	-140.235	-0.229	0.024
-234.830	-56.971	-0.132	0.058
-233.815	-34.846	0.127	0.070
-232.800	-4.953	0.040	0.027
-231.786	0.749	0.142	0.102
-230.771	-110.785	0.121	0.025
-229.757	-138.438	0.273	0.030
-228.742	800.000	-0.062	-0.171
-227.727	-113.672	-0.186	0.036
-226.713	-17.969	0.032	0.020
-225.698	-200.000	-0.005	0.060
-224.684	656.711	0.162	-0.418
-223.669	154.471	0.178	0.245
-222.655	-200.000	0.004	0.022
-221.640	131.239	0.135	-0.173
-220.625	-200.000	-0.012	-0.224
-219.611	-109.944	-0.246	0.052
-218.596	171.238	0.095	-0.137
-217.582	-200.000	-0.039	0.244
-216.567	-200.000	0.024	0.367
-215.552	270.410	-0.073	-0.129
-214.538	-80.428	0.084	0.028
-213.523	-200.000	-0.016	0.112
-212.509	-200.000	-0.009	0.257
-211.494	-39.402	0.061	-0.032
-210.479	-200.000	0.001	0.215
-209.465	-200.000	-0.005	0.073
-208.450	-63.195	0.061	0.025
-207.436	-200.000	0.017	0.115
-206.421	-200.000	0.017	-0.095
-205.406	800.000	-0.062	-0.217
-204.392	-200.000	-0.366	0.002
-203.377	-93.465	0.091	0.025
-202.363	-92.762	-0.083	-0.023
-201.348	-70.308	0.287	-0.109
-200.333	-48.546	0.275	-0.133
-199.319	183.692	0.099	0.146
-198.304	-200.000	0.067	-0.336
-197.290	-125.388	-0.201	0.031
-196.275	-119.626	0.375	-0.065
-195.260	-111.997	0.112	-0.023
-194.246	86.732	0.206	0.228
-193.231	-119.306	-0.229	-0.040
-192.217	-200.000	0.006	-0.048
-191.202	-53.693	0.245	-0.112
-190.187	-138.861	-0.068	0.007
-189.173	-17.482	-0.116	0.073
-188.158	196.002	0.049	-0.075
-187.144	-3.000	0.310	0.217
-186.129	-172.942	0.138	0.004
-185.114	800.000	0.051	0.197
-184.100	-111.840	-0.203	-0.041
-183.085	-200.000	0.032	-0.523
-182.071	-83.800	-0.115	-0.037
-181.056	-87.801	-0.087	-0.026
-180.042	-69.840	0.110	-0.042
-179.027	800.000	-0.060	0.227
-178.012	-23.556	-0.309	-0.186
-176.998	470.781	-0.035	0.079
-175.983	-92.077	0.246	-0.070
-174.969	-200.000	-0.007	0.349
-173.954	10.516	-0.134	0.102
-172.939	-200.000	0.006	-0.114
-171.925	800.000	-0.089	0.369
-170.910	-153.529	0.215	-0.015
-169.896	800.000	0.028	0.103
-168.881	458.618	0.140	-0.312
-167.866	-85.864	-0.181	0.056
-166.852	-200.000	-0.014	0.390
-165.837	-132.044	0.227	0.030
-164.823	-200.000	0.021	0.253
-163.808	33.327	0.174	0.151
-162.793	23.905	-0.127	-0.104
-161.779	4.950	-0.163	-0.120
-160.764	800.000	0.041	-0.118
-159.750	48.629	-0.144	0.135
-158.735	30.250	-0.042	-0.036
-157.720	800.000	0.111	-0.346
-156.706	-21.142	0.337	0.206
-155.691	361.104	0.039	-0.078
-154.677	-140.878	-0.183	0.019
-153.662	259.110	0.112	0.194
-152.647	-200.000	0.060	0.297
-151.633	97.750	0.207	0.238
-150.618	65.551	-0.094	-0.095
-149.604	361.280	0.107	0.214
-148.589	6.297	0.144	0.107
-147.574	-66.306	0.179	-0.071
-146.560	-137.778	0.053	-0.006
-145.545	108.632	-0.243	0.290
-144.531	-86.841	-0.339	-0.103
-143.516	649.130	0.072	-0.184
-142.502	-200.000	0.007	0.118
-141.487	800.000	0.029	-0.114
-140.472	674.231	-0.103	-0.267
-139.458	-126.963	-0.189	-0.028
-138.443	-147.312	-0.232	-0.020
-137.429	-18.544	-0.120	-0.075
-136.414	-160.995	0.046	-0.002
-135.399	-200.000	0.024	0.323
-134.385	657.767	-0.049	0.126
-133.370	71.971	-0.129	0.135
-132.356	-59.168	0.140	0.060
-131.341	13.890	-0.040	-0.031
-130.326	-22.176	-0.204	0.124
-129.312	325.764	0.072	-0.138
-128.297	70.326	0.092	-0.095
-127.283	93.353	-0.190	-0.215
-126.268	93.886	-0.362	0.409
-125.253	-89.006	0.362	-0.107
-124.239	-132.111	-0.097	-0.013
-123.224	-135.849	0.261	0.031
-122.210	-3.969	0.102	0.071
-121.195	618.287	0.080	-0.200
-120.180	15.558	-0.185	0.145
-119.166	-200.000	0.031	0.263
-118.151	800.000	-0.066	0.219
-117.137	-200.000	-0.039	0.386
-116.122	79.828	-0.085	-0.092
-115.107	-200.000	0.010	0.103
-114.093	315.347	0.017	-0.032
-113.078	-92.682	0.413	-0.116
-112.064	268.026	0.073	-0.128
-111.049	-27.773	0.172	-0.100
-110.034	-103.978	-0.079	-0.018
-109.020	274.484	0.179	-0.316
-108.005	323.475	-0.067	0.128
-106.991	607.634	-0.161	0.401
-105.976	158.688	0.268	0.371
-104.962	246.961	0.125	0.211
-103.947	-200.000	-0.049	0.246
-102.932	-27.093	-0.107	0.062
-101.918	78.888	0.170	-0.182
-100.903	-200.000	0.001	-0.257
-99.889	-200.000	0.024	-0.137
-98.874	-200.000	0.023	0.161
-97.859	-200.000	0.005	-0.033
-96.845	18.326	0.211	-0.168
-95.830	-200.000	-0.123	-0.000
-94.816	-89.029	0.091	-0.027
-93.801	229.998	0.053	0.087
-92.786	-31.971	-0.121	0.068
-91.772	-24.062	0.318	-0.189
-90.757	-200.000	0.008	0.323
-89.743	37.992	0.253	0.225
-88.728	-130.316	0.099	-0.013
-87.713	-200.000	-0.027	0.204
-86.699	-5.631	0.236	0.161
-85.684	779.643	-0.052	0.141
-84.670	-200.000	0.006	0.271
-83.655	-73.897	0.141	0.051
-82.640	-195.945	0.039	0.000
-81.626	-157.160	-0.166	0.010
-80.611	650.117	-0.090	0.230
-79.597	-58.750	0.357	0.154
-78.582	-19.619	-0.129	0.080
-77.567	-159.127	-0.142	0.008
-76.553	-59.228	0.181	0.078
-75.538	205.196	0.038	-0.058
-74.524	255.309	0.105	0.180
-73.509	-138.732	0.148	-0.016
-72.494	-33.556	0.102	0.056
-71.480	-200.000	0.025	-0.323
-70.465	-24.258	-0.322	0.192
-69.451	800.000	0.060	0.229
-68.436	-176.050	-0.411	0.011
-67.422	-34.109	0.078	0.043
-66.407	38.659	0.199	0.177
-65.392	283.098	-0.049	-0.088
-64.378	94.336	0.085	0.096
-63.363	704.198	-0.029	-0.076
-62.349	107.885	0.278	0.330
-61.334	46.356	-0.581	-0.537
-60.319	-38.652	0.474	0.249
-59.305	523.416	-0.229	-0.535
-58.290	120.566	0.536	0.664
-57.276	-200.000	0.302	1.721
-56.261	-200.000	76.604	524.657
-55.246	541.178	1312.857	3115.361
-54.232	148.293	2541.699	3417.340
-53.217	118.333	2229.272	2738.906
-52.203	53.336	1677.500	1601.282
-51.188	45.146	1401.652	1286.603
-50.173	41.494	1356.174	1222.489
-49.159	59.945	1391.545	1368.827
-48.144	66.499	1410.526	1427.904
-47.130	45.509	1372.729	1262.096
-46.115	41.445	1356.722	1222.487
-45.100	41.247	1352.106	1217.069
-44.086	41.018	1349.479	1213.260
-43.071	41.131	1346.900	1211.581
-42.057	41.030	1344.999	1209.206
-41.042	41.034	1343.451	1207.791
-40.027	41.246	1341.486	1207.264
-39.013	41.157	1339.573	1204.956
-37.998	41.253	1337.610	1203.721
-36.984	41.284	1335.881	1202.308
-35.969	41.170	1334.455	1200.287
-34.954	41.346	1332.469	1199.510
-33.940	41.353	1330.968	1198.153
-32.925	41.421	1329.739	1197.408
-31.911	41.296	1328.490	1195.487
-30.896	41.398	1327.000	1194.711
-29.881	41.390	1325.405	1193.183
-28.867	41.408	1324.329	1192.273
-27.852	41.504	1322.480	1191.136
-26.838	41.498	1320.807	1189.543
-25.823	41.343	1319.689	1187.564
-24.809	41.490	1318.229	1187.077
-23.794	41.462	1316.511	1185.315
-22.779	41.366	1315.111	1183.441
-21.765	41.428	1314.211	1182.955
-20.750	41.436	1312.705	1181.599
-19.736	41.410	1311.322	1180.149
-18.721	41.257	1310.351	1178.327
-17.706	41.158	1310.077	1177.447
-16.692	41.284	1308.198	1176.457
-15.677	41.199	1307.376	1175.166
-14.663	41.352	1305.569	1174.401
-13.648	41.290	1304.583	1173.103
-12.633	41.206	1304.106	1172.133
-11.619	41.190	1303.060	1171.049
-10.604	41.224	1301.970	1170.224
-9.590	41.262	1301.049	1169.569
-8.575	41.210	1300.158	1168.417
-7.560	41.324	1298.661	1167.696
-6.546	41.260	1298.428	1167.066
-5.531	41.237	1297.613	1166.155
-4.517	41.259	1296.628	1165.350
-3.502	41.194	1296.165	1164.505
-2.487	41.264	1294.608	1163.469
-1.473	41.383	1290.361	1160.300
-0.458	39.814	1275.214	1137.602
0.556	33.784	1254.290	1091.211
1.571	29.006	1258.070	1066.779
2.586	27.419	1273.076	1070.089
3.600	26.333	1262.920	1055.121
4.615	23.024	1193.754	978.959
5.629	17.621	1119.817	890.097
6.644	14.743	1097.636	857.630
7.659	14.435	1095.347	854.190
8.673	14.357	1093.876	852.568
9.688	14.166	1092.216	850.224
10.702	14.581	1091.251	851.512
11.717	18.034	1095.442	872.370
12.731	21.514	1099.920	893.663
13.746	20.188	1097.080	884.517
14.761	17.755	1092.791	868.606
15.775	16.516	1090.581	860.473
16.790	15.449	1088.137	853.046
17.804	14.603	1086.832	847.652
18.819	14.170	1085.277	844.167
19.834	13.910	1084.523	842.190
20.848	13.558	1083.542	839.566
21.863	13.438	1082.287	837.913
22.877	13.251	1081.633	836.391
23.892	13.159	1081.154	835.477
24.907	13.241	1079.986	834.914
25.921	13.291	1078.859	834.223
26.936	13.250	1078.024	833.295
27.950	13.283	1076.784	832.431
28.965	13.426	1075.091	831.768
29.980	13.452	1073.193	830.357
30.994	13.418	1072.264	829.393
32.009	13.410	1071.542	828.720
33.023	13.479	1070.160	827.923
34.038	13.492	1069.044	827.053
35.053	13.412	1068.091	825.843
36.067	13.397	1067.104	824.933
37.082	13.269	1066.792	823.980
38.096	13.435	1065.462	823.705
39.111	13.464	1064.793	823.258
40.126	13.221	1064.229	821.543
41.140	13.233	1062.188	819.953
42.155	13.212	1061.213	819.028
43.169	13.152	1060.261	817.920
44.184	13.095	1059.551	817.017
45.199	13.167	1058.012	816.117
46.213	13.250	1057.006	815.678
47.228	13.311	1055.854	815.017
48.242	13.374	1054.817	814.454
49.257	13.343	1053.994	813.595
50.271	13.374	1052.761	812.725
51.286	13.300	1051.959	811.666
52.301	13.251	1051.011	810.625
53.315	13.279	1049.983	809.899
54.330	13.216	1048.710	808.536
55.344	13.258	1047.757	807.937
56.359	13.293	1047.116	807.539
57.374	13.295	1045.844	806.496
58.388	13.205	1045.344	805.601
59.403	13.153	1044.570	804.680
60.417	13.139	1043.203	803.487
61.432	13.065	1042.746	802.704
62.447	13.132	1042.046	802.423
63.461	13.179	1040.698	801.543
64.476	13.100	1040.118	800.639
65.490	13.059	1039.470	799.872
66.505	13.076	1038.823	799.385
67.520	13.199	1038.300	799.507
68.534	13.238	1036.989	798.617
69.549	13.118	1036.309	797.440
70.563	13.162	1035.436	796.911
71.578	13.003	1034.710	795.516
72.593	12.980	1034.238	794.970
73.607	12.933	1033.436	794.057
74.622	13.130	1032.803	794.448
75.636	13.090	1031.822	793.435
76.651	13.185	1030.567	792.854
77.666	13.125	1030.419	792.379
78.680	13.043	1030.112	791.681
79.695	13.188	1028.597	791.140
80.709	13.129	1028.732	790.893
81.724	13.145	1027.936	790.285
82.739	13.163	1027.206	789.742
83.753	13.346	1026.256	789.816
84.768	13.518	1025.234	789.778
85.782	13.463	1024.187	788.640
86.797	13.409	1023.470	787.761
87.812	13.285	1022.729	786.535
88.826	13.369	1021.485	785.904
89.841	13.413	1020.603	785.368
90.855	13.413	1019.938	784.783
91.870	13.527	1018.790	784.371
92.884	13.381	1018.227	783.179
93.899	13.361	1017.713	782.617
94.914	13.544	1016.440	782.436
95.928	13.477	1015.718	781.492
96.943	13.448	1014.958	780.704
97.957	13.317	1014.032	779.307
98.972	13.420	1013.004	778.931
99.987	13.447	1012.043	778.252
101.001	13.385	1011.574	777.531
102.016	13.485	1009.953	776.686
103.030	13.400	1009.697	776.018
104.045	13.379	1008.736	775.113
105.060	13.375	1007.403	774.001
106.074	13.363	1006.648	773.297
107.089	13.254	1005.651	771.956
108.103	13.158	1005.109	771.023
109.118	13.271	1003.893	770.549
110.133	13.256	1002.860	769.616
111.147	13.258	1002.201	769.052
112.162	13.272	1001.379	768.416
113.176	13.251	1000.760	767.779
114.191	13.335	999.882	767.425
115.206	13.316	999.426	766.918
116.220	13.477	997.641	766.227
117.235	13.381	996.823	765.086
118.249	13.377	996.368	764.653
119.264	13.395	995.479	763.984
120.279	13.289	994.949	763.022
121.293	13.253	993.762	761.877
122.308	13.281	992.753	761.165
123.322	13.209	992.343	760.454
124.337	13.299	991.042	759.801
125.352	13.188	989.951	758.388
126.366	13.285	988.635	757.760
127.381	13.215	988.169	757.016
128.395	13.175	987.206	756.028
129.410	13.257	986.261	755.611
130.424	13.418	985.034	755.340
131.439	13.361	984.612	754.689
132.454	13.463	983.866	754.515
133.468	13.572	982.842	754.157
134.483	13.571	981.781	753.274
135.497	13.597	980.943	752.683
136.512	13.460	980.346	751.536
137.527	13.541	979.178	750.942
138.541	13.447	978.701	750.082
139.556	13.457	978.482	749.893
140.570	13.607	977.652	749.872
141.585	13.662	976.773	749.379
142.600	13.651	975.584	748.348
143.614	13.711	974.770	747.928
144.629	13.600	974.478	747.138
145.643	13.671	973.126	746.356
146.658	13.549	971.939	744.832
147.673	13.430	971.153	743.630
148.687	13.522	970.218	743.258
149.702	13.450	969.482	742.306
150.716	13.511	968.801	741.995
151.731	13.513	968.016	741.336
152.746	13.472	967.438	740.645
153.760	13.534	966.577	740.197
154.775	13.575	966.054	739.915
155.789	13.554	965.304	739.181
156.804	13.498	965.115	738.721
157.819	13.561	964.016	738.095
158.833	13.814	963.315	738.619
159.848	13.771	962.403	737.662
160.862	13.662	961.152	736.154
161.877	13.491	961.013	735.222
162.892	13.647	959.355	734.580
163.906	13.548	958.822	733.671
164.921	13.613	957.701	733.036
165.935	13.547	957.160	732.265
166.950	13.546	956.257	731.504
167.964	13.725	955.382	731.561
168.979	13.708	954.285	730.582
169.994	13.552	953.801	729.456
171.008	13.636	952.909	729.080
172.023	13.779	952.112	729.033
173.037	13.892	951.441	728.951
174.052	13.611	951.180	727.455
175.067	13.643	950.332	726.883
176.081	13.634	949.655	726.262
177.096	13.608	949.249	725.772
178.110	13.762	948.493	725.803
179.125	13.826	947.749	725.449
180.140	13.756	947.380	724.796
181.154	13.900	946.630	724.787
182.169	13.955	946.204	724.637
183.183	13.718	945.726	723.175
184.198	13.850	944.794	722.972
185.213	13.922	944.135	722.716
186.227	13.950	943.485	722.279
187.242	13.834	943.168	721.468
188.256	14.076	942.384	721.853
189.271	13.922	941.258	720.259
190.286	13.908	940.410	719.486
191.300	13.822	940.044	718.771
192.315	13.656	939.560	717.619
193.329	13.572	939.233	716.940
194.344	13.801	938.284	717.142
195.359	13.805	937.808	716.734
196.373	13.843	937.047	716.253
197.388	14.070	936.446	716.707
198.402	14.137	935.747	716.398
199.417	14.141	934.951	715.741
200.432	14.305	934.372	715.941
201.446	14.225	934.104	715.327
202.461	14.208	933.871	715.015
203.475	14.196	933.019	714.245
204.490	14.154	932.437	713.559
205.504	14.197	931.545	712.995
206.519	14.022	930.997	711.763
207.534	14.104	930.290	711.514
208.548	14.252	929.648	711.589
209.563	14.248	928.764	710.834
210.577	14.182	928.014	709.915
211.592	14.287	927.597	709.982
212.607	14.233	926.712	709.011
213.621	14.327	925.722	708.593
214.636	14.301	925.093	707.938
215.650	14.215	924.492	707.050
216.665	14.458	923.527	707.279
217.680	14.369	923.040	706.466
218.694	14.529	922.315	706.526
219.709	14.420	921.789	705.600
220.723	14.392	921.210	704.973
221.738	14.425	920.728	704.686
222.753	14.463	919.580	703.904
223.767	14.459	919.436	703.713
224.782	14.538	918.722	703.439
225.796	14.633	917.857	703.112
226.811	14.529	917.418	702.276
227.826	14.536	916.629	701.640
228.840	14.408	916.021	700.575
229.855	14.445	914.735	699.684
230.869	14.412	914.390	699.222
231.884	14.483	913.842	699.037
232.899	14.443	912.872	698.068
233.913	14.435	912.087	697.373
234.928	14.523	911.511	697.238
235.942	14.569	910.641	696.703
236.957	14.484	910.653	696.293
237.972	14.502	909.596	695.501
238.986	14.405	909.219	694.747
240.001	14.491	908.104	694.188
241.015	14.541	907.768	694.078
242.030	14.607	906.964	693.677
243.045	14.568	906.605	693.181
244.059	14.685	905.910	693.073
245.074	14.638	905.164	692.246
246.088	14.721	904.353	691.908
247.103	14.811	903.739	691.750
248.117	14.792	903.385	691.338
249.132	14.760	903.251	691.041
250.147	14.846	902.241	690.565
251.161	15.004	901.499	690.587
252.176	14.863	900.662	689.305
253.190	14.918	900.650	689.462
254.205	14.974	899.717	688.915
255.220	15.163	898.681	688.837
256.234	14.959	898.465	687.773
257.249	15.087	897.692	687.648
258.263	15.024	897.014	686.809
259.278	15.134	895.851	686.306
260.293	15.085	895.543	685.810
261.307	15.212	895.227	686.030
262.322	15.216	894.425	685.371
263.336	15.239	893.682	684.833
264.351	15.305	892.893	684.439
265.366	15.254	892.475	683.850
266.380	15.239	891.658	683.098
267.395	15.281	890.610	682.410
268.409	15.221	890.418	681.955
269.424	15.258	889.282	681.174
270.439	15.166	888.877	680.433
271.453	15.097	888.592	679.872
272.468	15.170	887.884	679.570
273.482	15.256	886.893	679.097
274.497	15.156	886.543	678.362
275.512	15.246	885.728	678.044
276.526	15.388	885.041	678.033
277.541	15.329	884.900	677.625
278.555	15.385	884.247	677.293
279.570	15.311	883.591	676.432
280.585	15.462	882.583	676.208
281.599	15.412	882.082	675.565
282.614	15.380	881.451	674.893
283.628	15.435	880.758	674.523
284.643	15.536	880.319	674.535
285.657	15.437	879.909	673.761
286.672	15.499	879.012	673.262
287.687	15.454	878.468	672.607
288.701	15.381	878.226	672.068
289.716	15.451	877.248	671.541
290.730	15.514	876.533	671.185
291.745	15.331	876.412	670.303
292.760	15.626	875.610	670.810
293.774	15.708	874.495	670.224
294.789	15.592	874.212	669.484
295.803	15.536	873.323	668.521
296.818	15.591	872.635	668.154
297.833	15.652	871.983	667.838
298.847	15.599	871.344	667.078
299.862	15.674	870.733	666.848
300.876	15.648	870.018	666.139
301.891	15.805	869.332	666.177
302.906	15.811	868.979	665.873
303.920	15.852	869.002	665.991
304.935	15.922	867.956	665.411
305.949	15.810	867.478	664.541
306.964	15.913	866.715	664.303
307.979	15.881	866.138	663.678
308.993	15.870	865.462	663.058
310.008	15.931	865.046	662.918
311.022	15.855	864.677	662.278
312.037	15.821	864.138	661.675
313.052	15.826	863.189	660.909
314.066	15.761	862.839	660.328
315.081	15.798	862.237	659.953
316.095	15.787	861.739	659.469
317.110	15.888	860.835	659.116
318.125	15.700	861.013	658.456
319.139	15.938	859.957	658.520
320.154	16.007	859.382	658.292
321.168	15.961	859.125	657.859
322.183	15.939	858.540	657.266
323.197	15.799	858.424	656.571
324.212	15.950	857.592	656.466
325.227	15.874	856.978	655.645
326.241	16.003	856.041	655.368
327.256	16.042	855.119	654.759
328.270	16.000	855.093	654.518
329.285	15.890	854.738	653.761
330.300	15.853	853.951	652.957
331.314	16.158	853.251	653.546
332.329	16.051	853.065	652.931
333.343	16.047	852.572	652.481
334.358	16.134	851.653	652.055
335.373	16.187	851.664	652.210
336.387	16.228	851.622	652.280
337.402	16.201	851.111	651.725
338.416	16.086	851.022	651.155
339.431	16.272	850.476	651.399
340.446	16.201	850.267	650.908
341.460	16.238	849.661	650.527
342.475	16.353	848.987	650.399
343.489	16.251	848.975	649.939
344.504	16.354	848.099	649.606
345.519	16.406	847.720	649.459
346.533	16.334	847.126	648.669
347.548	16.255	846.779	648.041
348.562	16.369	845.988	647.817
349.577	16.252	845.718	647.105
350.592	16.296	845.184	646.808
351.606	16.398	844.130	646.334
352.621	16.231	843.715	645.319
353.635	16.406	842.864	645.281
354.650	16.266	842.067	644.079
355.665	16.434	841.651	644.342
356.679	16.457	841.051	643.915
357.694	16.489	840.442	643.513
358.708	16.477	839.700	642.842
359.723	16.544	839.286	642.724
360.738	16.545	838.759	642.269
361.752	16.580	837.747	641.568
362.767	16.644	837.202	641.336
363.781	16.560	837.220	640.974
364.796	16.701	836.157	640.638
365.810	16.709	836.062	640.540
366.825	16.700	836.076	640.461
367.840	16.578	835.608	639.583
368.854	16.572	834.858	638.930
369.869	16.607	834.456	638.696
370.883	16.646	834.147	638.552
371.898	16.835	833.311	638.569
372.913	16.705	833.188	637.929
373.927	16.845	832.677	638.007
374.942	16.703	832.417	637.216
375.956	16.888	831.718	637.319
376.971	16.955	831.152	637.081
377.986	17.029	830.431	636.749
379.000	17.099	830.016	636.639
380.015	17.052	829.826	636.259
381.029	17.178	828.847	635.924
382.044	16.925	828.750	634.849
383.059	17.028	828.158	634.722
384.073	17.174	827.270	634.531
385.088	16.949	826.710	633.208
386.102	17.072	825.894	632.986
387.117	17.170	825.596	633.067
388.132	17.030	824.855	631.920
389.146	16.964	824.717	631.512
390.161	17.008	824.422	631.396
391.175	17.052	823.418	630.734
392.190	17.129	823.073	630.701
393.205	17.103	822.256	629.919
394.219	17.160	822.228	630.056
395.234	17.107	822.056	629.672
396.248	16.939	821.440	628.519
397.263	16.956	820.877	628.095
398.278	17.038	820.748	628.244
399.292	17.050	820.230	627.839
400.307	16.957	819.974	627.245
401.321	17.152	819.422	627.486
402.336	17.047	818.925	626.663
403.350	17.049	818.505	626.293
404.365	17.076	818.143	626.058
405.380	17.305	817.012	625.983
406.394	17.325	816.643	625.718
407.409	17.357	816.375	625.575
408.423	17.612	815.948	626.130
409.438	17.401	815.936	625.288
410.453	17.350	815.213	624.491
411.467	17.324	814.864	624.074
412.482	17.456	814.394	624.144
413.496	17.516	814.110	624.092
414.511	17.538	813.452	623.611
415.526	17.505	813.432	623.418
416.540	17.584	812.464	622.911
417.555	17.527	812.417	622.614
418.569	17.426	811.951	621.832
419.584	17.547	811.453	621.836
420.599	17.594	810.827	621.473
421.613	91.369	1264.756	1369.234
422.628	78.256	1330.906	1369.362
