DTS Sentinel unit serial number:	SN413079Multiplexer serial number:	ORYXHardware model number:	OX4-SRSoftware version number:	ORYX F/W v4.00 Oryx Data Collector v3.7.2.0data status	okinstallation	princeton_trtdifferential loss correction	single-endedforward channel	channel 1reverse channel	N/Adate	2019/09/11time	20:56:11forward acquisition time	60.00reverse acquisition time	0.00gamma	496.2192k internal	0.2307k external	0.2307temperature offset calibration	1.0053default loss term (dB/km)	0.3790temperature slope calibration	1.0000multiplexer offset coefficient	1.0000multiplexer slope coefficient	1.0000fibre end	0.00T internal ref (°C)	36.80T ext. ref 1 (°C)	1.66T ext. ref 2 (°C)	30.73length (m)	temperature (°C)	Stokes	anti-Stokes-747.200	-95.407	-0.258	0.070
-746.185	97.849	-0.242	0.283
-745.171	54.865	0.305	0.299
-744.156	40.219	-0.055	0.050
-743.142	-106.221	-0.336	0.076
-742.127	800.000	-0.053	-0.211
-741.112	-62.705	0.144	0.061
-740.098	41.174	0.100	0.092
-739.083	-115.688	0.088	0.017
-738.069	-200.000	-0.016	-0.172
-737.054	-200.000	0.014	-0.157
-736.039	-57.590	-0.339	0.151
-735.025	-113.576	0.348	0.069
-734.010	-76.152	-0.159	-0.057
-732.996	593.857	-0.172	-0.433
-731.981	-87.106	-0.289	-0.089
-730.966	-142.534	0.322	0.032
-729.952	150.186	0.206	-0.284
-728.937	-61.449	0.035	-0.015
-727.923	364.839	-0.135	-0.277
-726.908	-32.099	0.204	0.116
-725.894	-200.000	-0.030	0.189
-724.879	580.666	-0.088	-0.219
-723.864	-183.326	0.231	-0.004
-722.850	-200.000	0.019	-0.373
-721.835	800.000	-0.050	0.150
-720.821	530.666	-0.016	-0.039
-719.806	275.686	0.053	0.096
-718.791	800.000	0.066	-0.282
-717.777	-200.000	-0.113	-0.001
-716.762	-117.032	-0.273	-0.051
-715.748	-111.492	-0.194	-0.040
-714.733	800.000	0.089	-0.261
-713.718	34.872	-0.129	0.114
-712.704	476.867	-0.057	0.130
-711.689	-73.221	-0.147	0.055
-710.675	19.583	-0.128	-0.104
-709.660	17.583	0.338	-0.273
-708.645	-156.106	0.130	0.008
-707.631	310.176	0.124	-0.235
-706.616	130.011	0.051	-0.066
-705.602	15.072	-0.352	0.280
-704.587	14.864	0.346	0.275
-703.572	89.896	0.237	0.269
-702.558	-100.023	-0.432	0.109
-701.543	-2.394	-0.157	0.112
-700.529	-200.000	0.008	0.128
-699.514	-200.000	-0.049	0.250
-698.499	-81.095	0.470	0.158
-697.485	14.172	0.225	-0.178
-696.470	-30.606	0.023	0.013
-695.456	-134.078	0.132	-0.017
-694.441	-136.894	-0.027	-0.003
-693.426	-79.992	0.101	0.035
-692.412	-5.233	0.105	-0.074
-691.397	147.950	-0.198	-0.271
-690.383	-165.813	-0.140	-0.006
-689.368	-200.000	0.024	-0.206
-688.354	-161.064	-0.215	0.011
-687.339	-22.619	-0.320	-0.196
-686.324	800.000	0.034	-0.112
-685.310	12.577	-0.062	-0.048
-684.295	79.399	0.025	-0.027
-683.281	23.900	-0.202	0.169
-682.266	800.000	0.039	-0.119
-681.251	-67.362	0.082	-0.033
-680.237	205.047	-0.143	-0.224
-679.222	-11.322	0.457	-0.305
-678.208	-108.878	-0.430	0.093
-677.193	134.066	-0.143	-0.188
-676.178	-2.868	-0.289	0.205
-675.164	162.196	-0.240	0.341
-674.149	-200.000	0.024	-0.166
-673.135	800.000	0.104	0.324
-672.120	-101.110	0.257	-0.064
-671.105	471.894	0.043	-0.097
-670.091	-200.000	0.057	0.352
-669.076	368.755	-0.073	-0.149
-668.062	255.470	0.146	-0.254
-667.047	-27.558	0.083	-0.049
-666.032	1.649	-0.382	-0.279
-665.018	800.000	0.049	0.171
-664.003	229.494	-0.041	-0.068
-662.989	444.163	-0.148	-0.329
-661.974	800.000	-0.037	-0.119
-660.959	-200.000	-0.016	0.185
-659.945	181.893	-0.077	0.115
-658.930	49.043	-0.032	-0.030
-657.916	696.190	0.179	-0.476
-656.901	363.018	-0.116	-0.236
-655.886	-162.819	-0.105	-0.005
-654.872	29.849	0.211	-0.182
-653.857	-85.846	0.034	-0.011
-652.843	-77.950	-0.304	-0.106
-651.828	-7.630	0.277	-0.190
-650.814	-11.529	0.129	0.086
-649.799	81.716	0.087	0.095
-648.784	-81.331	0.231	-0.077
-647.770	800.000	-0.014	-0.047
-646.755	-5.260	0.290	-0.202
-645.741	-76.269	-0.109	0.039
-644.726	66.405	0.092	0.095
-643.711	402.462	0.109	-0.232
-642.697	734.965	-0.048	0.129
-641.682	-200.000	0.036	-0.164
-640.668	-184.752	-0.198	-0.003
-639.653	1.816	0.105	-0.077
-638.638	-124.203	-0.108	0.017
-637.624	309.384	-0.050	-0.095
-636.609	-22.579	0.368	-0.225
-635.595	-130.514	0.174	-0.024
-634.580	-200.000	0.077	-0.584
-633.565	14.599	-0.174	-0.137
-632.551	64.692	-0.303	0.310
-631.536	424.259	0.068	0.147
-630.522	211.518	0.113	0.180
-629.507	-65.873	0.109	0.044
-628.492	-92.779	0.290	-0.082
-627.478	-12.309	-0.259	-0.171
-626.463	4.636	-0.145	-0.108
-625.449	-23.308	0.097	0.059
-624.434	-57.225	0.128	-0.057
-623.419	208.726	0.078	-0.123
-622.405	5.951	-0.224	-0.168
-621.390	-98.686	0.261	0.067
-620.376	281.958	0.086	0.156
-619.361	43.014	-0.229	-0.211
-618.346	-50.866	-0.183	0.087
-617.332	-114.539	-0.070	0.014
-616.317	-122.951	0.303	-0.049
-615.303	-22.440	-0.231	0.142
-614.288	-200.000	-0.016	0.413
-613.273	62.056	0.209	0.211
-612.259	92.165	-0.066	-0.075
-611.244	59.241	-0.098	-0.098
-610.230	630.544	-0.108	-0.276
-609.215	-175.325	0.294	-0.008
-608.201	-200.000	-0.000	-0.054
-607.186	414.241	0.162	-0.349
-606.171	219.968	0.058	0.094
-605.157	-200.000	0.018	-0.186
-604.142	65.952	-0.183	-0.187
-603.128	324.101	0.038	-0.074
-602.113	-200.000	-0.002	0.197
-601.098	380.204	-0.143	0.297
-600.084	367.361	-0.095	-0.194
-599.069	-64.284	0.163	0.067
-598.055	-200.000	0.044	0.289
-597.040	147.458	-0.111	-0.152
-596.025	-200.000	-0.043	-0.254
-595.011	45.561	-0.219	-0.204
-593.996	-148.263	-0.208	-0.017
-592.982	-16.257	-0.087	0.056
-591.967	-200.000	-0.036	0.250
-590.952	-49.144	0.289	0.140
-589.938	-59.317	0.084	-0.036
-588.923	294.560	0.032	-0.059
-587.909	129.142	0.256	0.330
-586.894	-78.365	-0.246	0.085
-585.879	-163.910	-0.257	-0.012
-584.865	-84.447	0.189	0.060
-583.850	-200.000	-0.007	-0.275
-582.836	19.501	-0.241	0.196
-581.821	800.000	0.095	-0.310
-580.806	-200.000	-0.039	0.227
-579.792	-200.000	-0.024	-0.318
-578.777	342.190	0.101	-0.200
-577.763	70.431	0.101	-0.106
-576.748	44.235	-0.103	0.096
-575.733	460.462	0.053	0.119
-574.719	800.000	-0.068	-0.223
-573.704	-177.685	-0.107	-0.003
-572.690	32.821	-0.066	0.057
-571.675	369.148	-0.141	0.288
-570.661	-52.296	-0.282	0.132
-569.646	193.239	0.132	-0.202
-568.631	800.000	-0.060	-0.192
-567.617	-75.081	-0.249	-0.090
-566.602	-63.978	0.254	0.105
-565.588	-200.000	0.005	-0.085
-564.573	130.783	-0.069	-0.090
-563.558	278.447	0.074	-0.133
-562.544	-103.468	-0.151	-0.036
-561.529	2.258	-0.114	-0.083
-560.515	800.000	0.054	-0.178
-559.500	-100.775	-0.141	0.035
-558.485	-16.718	0.331	-0.211
-557.471	59.725	0.184	-0.184
-556.456	-200.000	0.010	-0.179
-555.442	-130.288	-0.384	-0.053
-554.427	38.202	-0.175	0.157
-553.412	-181.796	0.219	-0.004
-552.398	147.259	-0.052	0.071
-551.383	-16.927	-0.318	0.203
-550.369	-112.123	-0.175	0.035
-549.354	-11.736	-0.262	0.173
-548.339	-200.000	-0.009	-0.101
-547.325	22.712	0.418	0.346
-546.310	24.159	0.195	-0.162
-545.296	227.925	-0.328	-0.539
-544.281	-163.844	0.211	0.010
-543.266	792.934	-0.041	0.114
-542.252	-102.181	-0.088	-0.021
-541.237	290.798	0.116	0.213
-540.223	20.471	-0.221	-0.180
-539.208	-200.000	0.056	0.325
-538.193	-200.000	-0.021	0.277
-537.179	-159.422	0.498	-0.028
-536.164	-108.636	0.025	-0.005
-535.150	6.074	-0.122	-0.091
-534.135	-75.010	-0.243	-0.088
-533.121	-29.132	-0.075	-0.043
-532.106	-200.000	0.008	-0.390
-531.091	-200.000	0.038	0.257
-530.077	-102.767	-0.107	-0.026
-529.062	-69.948	-0.329	-0.126
-528.048	-200.000	-0.015	0.162
-527.033	46.959	0.076	0.071
-526.018	12.375	-0.309	-0.240
-525.004	800.000	-0.066	-0.187
-523.989	-13.838	-0.165	0.107
-522.975	753.440	0.058	-0.157
-521.960	-119.591	0.379	-0.066
-520.945	800.000	-0.052	-0.221
-519.931	95.827	-0.263	0.303
-518.916	261.497	0.042	0.073
-517.902	-200.000	-0.394	0.000
-516.887	189.759	-0.115	-0.174
-515.872	-171.705	-0.220	-0.007
-514.858	-21.942	-0.187	-0.114
-513.843	106.152	-0.244	-0.292
-512.829	-200.000	0.013	-0.209
-511.814	-93.919	-0.408	-0.113
-510.799	183.943	0.048	0.071
-509.785	-200.000	-0.053	-0.261
-508.770	-200.000	-0.028	-0.305
-507.756	22.028	-0.027	-0.022
-506.741	-200.000	-0.043	0.243
-505.726	-139.445	-0.187	-0.020
-504.712	-200.000	0.039	0.391
-503.697	219.659	-0.139	-0.225
-502.683	-157.531	-0.149	0.009
-501.668	-74.363	0.347	-0.126
-500.653	329.445	-0.069	-0.133
-499.639	-89.863	-0.306	-0.090
-498.624	-44.726	-0.218	0.110
-497.610	-99.406	-0.293	-0.074
-496.595	95.399	-0.200	-0.230
-495.581	1.307	0.292	-0.211
-494.566	-74.728	-0.131	0.047
-493.551	-54.136	-0.166	-0.076
-492.537	-117.003	0.176	-0.032
-491.522	355.917	0.123	0.246
-490.508	-87.197	-0.149	-0.046
-489.493	495.156	0.075	-0.174
-488.478	57.086	0.111	-0.109
-487.464	664.386	-0.066	0.173
-486.449	173.905	0.020	0.030
-485.435	-94.891	-0.413	0.113
-484.420	16.334	-0.358	0.285
-483.405	72.914	0.111	-0.117
-482.391	3.432	0.081	-0.060
-481.376	119.380	0.149	0.186
-480.362	-44.736	0.245	0.123
-479.347	290.843	-0.137	-0.250
-478.332	-136.363	0.095	-0.011
-477.318	-38.444	0.107	-0.057
-476.303	-120.758	0.110	0.019
-475.289	161.070	-0.119	-0.168
-474.274	-182.262	-0.155	-0.003
-473.259	-122.419	0.150	0.025
-472.245	-113.852	0.239	0.047
-471.230	-163.095	0.257	0.012
-470.216	705.430	0.196	-0.520
-469.201	-41.353	0.258	0.134
-468.186	-200.000	0.041	-0.215
-467.172	-60.600	0.040	-0.017
-466.157	19.866	-0.431	-0.349
-465.143	-200.000	-0.003	-0.047
-464.128	800.000	-0.114	0.461
-463.113	-104.950	-0.464	0.107
-462.099	401.926	-0.161	0.341
-461.084	175.746	-0.155	-0.226
-460.070	120.149	0.047	-0.059
-459.055	-56.046	-0.062	-0.028
-458.040	800.000	-0.047	-0.155
-457.026	53.995	-0.172	-0.167
-456.011	800.000	-0.045	0.145
-454.997	-200.000	0.400	0.002
-453.982	85.533	-0.173	-0.191
-452.968	51.022	-0.065	0.062
-451.953	773.226	-0.031	-0.085
-450.938	463.427	0.086	0.193
-449.924	80.688	-0.184	0.199
-448.909	535.550	0.058	-0.137
-447.895	21.723	0.080	-0.065
-446.880	800.000	0.015	-0.054
-445.865	-85.820	0.265	0.083
-444.851	-200.000	-0.001	0.135
-443.836	-200.000	0.006	0.043
-442.822	-98.770	0.237	0.061
-441.807	-114.093	-0.468	0.091
-440.792	49.700	0.083	0.078
-439.778	-200.000	0.010	0.056
-438.763	-169.917	0.281	-0.010
-437.749	-68.647	0.190	0.074
-436.734	-200.000	-0.010	0.360
-435.719	-59.694	0.179	0.077
-434.705	124.827	0.230	-0.291
-433.690	15.276	-0.255	0.201
-432.676	-200.000	0.007	0.358
-431.661	-43.204	0.280	0.142
-430.646	70.497	0.155	-0.161
-429.632	49.302	-0.243	0.229
-428.617	72.687	-0.131	0.137
-427.603	93.916	-0.142	0.162
-426.588	17.378	0.262	0.209
-425.573	-59.049	0.265	0.115
-424.559	209.154	-0.140	0.220
-423.544	109.878	0.134	0.161
-422.530	93.675	-0.118	-0.134
-421.515	485.010	0.198	0.453
-420.500	-140.268	-0.287	-0.030
-419.486	-200.000	-0.032	0.260
-418.471	2.542	0.168	0.122
-417.457	311.188	0.064	-0.120
-416.442	800.000	-0.065	-0.209
-415.428	63.082	-0.099	-0.099
-414.413	-66.803	0.448	-0.178
-413.398	-23.488	0.282	-0.170
-412.384	-200.000	0.024	-0.158
-411.369	-200.000	0.019	-0.096
-410.355	93.452	-0.295	-0.335
-409.340	800.000	0.036	0.120
-408.325	331.219	-0.108	0.208
-407.311	-12.086	-0.153	-0.100
-406.296	-16.040	0.312	-0.199
-405.282	800.000	-0.026	-0.079
-404.267	-123.961	-0.114	0.018
-403.252	172.365	0.043	-0.062
-402.238	246.146	-0.066	-0.111
-401.223	171.833	0.098	-0.142
-400.209	800.000	0.029	0.085
-399.194	-102.204	-0.430	-0.104
-398.179	108.878	0.102	0.123
-397.165	-200.000	0.022	0.234
-396.150	148.244	0.170	0.230
-395.136	183.002	-0.301	0.446
-394.121	-200.000	-0.049	0.222
-393.106	-57.156	-0.129	0.057
-392.092	-200.000	0.003	0.445
-391.077	16.962	0.223	-0.177
-390.063	220.446	0.145	0.234
-389.048	-200.000	0.017	-0.351
-388.033	-120.531	-0.409	-0.070
-387.019	-2.599	-0.474	0.333
-386.004	800.000	-0.061	0.196
-384.990	-87.283	-0.082	-0.025
-383.975	-60.204	0.102	0.044
-382.960	-13.936	-0.276	-0.178
-381.946	105.687	0.165	0.196
-380.931	-135.277	-0.177	0.021
-379.917	-121.874	-0.297	0.049
-378.902	48.949	0.136	0.128
-377.888	-106.969	0.198	0.044
-376.873	-91.804	0.376	-0.107
-375.858	-99.640	-0.290	0.073
-374.844	176.170	-0.061	-0.089
-373.829	-92.829	-0.219	0.061
-372.815	800.000	-0.086	-0.289
-371.800	747.372	-0.071	-0.192
-370.785	234.503	0.192	0.318
-369.771	-178.723	-0.045	0.001
-368.756	-123.100	-0.171	-0.028
-367.742	-19.272	0.119	-0.074
-366.727	168.583	-0.127	-0.181
-365.712	-54.164	-0.256	0.117
-364.698	252.608	0.048	-0.083
-363.683	-200.000	0.001	0.030
-362.669	42.646	0.140	-0.127
-361.654	372.329	-0.068	-0.137
-360.639	-53.193	0.236	0.109
-359.625	493.971	-0.132	0.303
-358.610	-103.892	0.213	-0.050
-357.596	421.661	-0.128	0.274
-356.581	156.167	0.108	-0.149
-355.566	414.579	0.110	-0.234
-354.552	59.695	0.223	-0.220
-353.537	-98.570	-0.260	-0.067
-352.523	-158.631	0.164	0.009
-351.508	512.844	0.116	0.271
-350.493	800.000	0.104	0.418
-349.479	-57.962	0.165	-0.072
-348.464	-200.000	0.080	0.461
-347.450	-184.998	0.245	-0.004
-346.435	-115.838	0.225	0.042
-345.420	-175.769	-0.691	-0.019
-344.406	271.388	0.120	-0.211
-343.391	-194.023	-0.071	0.001
-342.377	-53.499	0.215	-0.098
-341.362	169.258	-0.024	0.034
-340.348	-111.220	0.385	-0.079
-339.333	-200.000	-0.009	-0.231
-338.318	516.873	0.152	-0.355
-337.304	-82.653	0.127	0.041
-336.289	265.383	0.012	0.020
-335.275	800.000	-0.062	0.223
-334.260	-200.000	0.019	-0.579
-333.245	447.775	-0.130	0.287
-332.231	-142.148	0.101	0.010
-331.216	238.551	0.136	-0.227
-330.202	196.501	0.114	0.174
-329.187	-98.373	-0.312	-0.080
-328.172	772.055	-0.053	-0.145
-327.158	-200.000	0.063	-0.335
-326.143	-200.000	0.049	0.252
-325.129	-157.197	0.357	-0.022
-324.114	462.349	0.139	0.309
-323.099	18.657	0.195	-0.156
-322.085	-200.000	-0.022	-0.130
-321.070	-73.954	0.071	-0.026
-320.056	34.101	0.032	0.028
-319.041	-115.620	-0.053	0.010
-318.026	56.259	-0.253	0.246
-317.012	-63.467	0.450	0.185
-315.997	-78.479	0.357	0.122
-314.983	3.840	0.339	0.247
-313.968	-73.409	0.129	-0.047
-312.953	800.000	-0.100	-0.288
-311.939	184.927	-0.168	-0.249
-310.924	-200.000	-0.016	-0.321
-309.910	87.398	0.047	-0.052
-308.895	76.181	0.065	0.069
-307.880	-28.151	-0.102	-0.059
-306.866	-200.000	-0.100	-0.475
-305.851	251.052	0.129	0.219
-304.837	-94.220	0.224	0.061
-303.822	91.892	-0.204	-0.230
-302.807	-0.437	0.103	-0.073
-301.793	125.969	-0.076	-0.096
-300.778	800.000	-0.055	-0.219
-299.764	357.722	-0.214	-0.427
-298.749	-138.265	-0.248	0.027
-297.735	-200.000	-0.062	0.414
-296.720	181.658	0.102	-0.150
-295.705	-187.773	-0.186	0.002
-294.691	-200.000	0.023	0.174
-293.676	800.000	-0.100	0.378
-292.662	-200.000	-0.012	0.093
-291.647	62.430	-0.229	-0.229
-290.632	-51.639	0.285	0.133
-289.618	-200.000	-0.035	-0.345
-288.603	3.200	0.162	0.118
-287.589	-40.447	-0.158	-0.082
-286.574	-37.861	-0.101	-0.054
-285.559	-89.854	-0.128	-0.038
-284.545	662.803	-0.028	-0.072
-283.530	614.090	0.097	-0.244
-282.516	-28.091	0.151	0.087
-281.501	-7.348	-0.120	-0.081
-280.486	-112.649	0.152	-0.030
-279.472	800.000	0.016	-0.049
-278.457	286.671	-0.070	0.126
-277.443	258.318	0.092	-0.158
-276.428	800.000	-0.044	-0.168
-275.413	-200.000	-0.022	0.170
-274.399	-200.000	-0.047	0.460
-273.384	-65.743	-0.107	0.043
-272.370	0.966	0.325	0.232
-271.355	56.723	-0.097	0.095
-270.340	-200.000	-0.001	-0.200
-269.326	231.493	0.146	0.238
-268.311	19.151	-0.083	0.067
-267.297	-82.502	0.395	0.128
-266.282	43.606	-0.199	0.182
-265.267	800.000	0.046	-0.190
-264.253	151.171	0.110	0.150
-263.238	-96.473	-0.163	0.043
-262.224	72.643	0.139	-0.145
-261.209	-200.000	0.022	-0.234
-260.195	-5.262	0.067	-0.046
-259.180	91.655	-0.091	-0.102
-258.165	348.469	-0.033	-0.064
-257.151	57.901	0.023	-0.022
-256.136	-164.169	-0.200	0.009
-255.122	-200.000	0.012	-0.068
-254.107	383.582	0.198	-0.406
-253.092	15.352	-0.282	-0.221
-252.078	401.776	-0.053	-0.111
-251.063	-30.165	-0.154	0.087
-250.049	-66.040	-0.402	0.160
-249.034	149.057	-0.045	-0.060
-248.019	253.252	-0.124	0.211
-247.005	-4.872	-0.233	0.160
-245.990	76.871	-0.325	-0.344
-244.976	101.030	-0.201	-0.233
-243.961	119.442	0.244	-0.301
-242.946	263.105	-0.080	-0.138
-241.932	206.514	-0.088	-0.136
-240.917	-56.526	0.431	0.190
-239.903	742.593	-0.170	0.455
-238.888	-121.237	-0.172	0.029
-237.873	297.120	0.163	-0.299
-236.859	-200.000	0.019	0.306
-235.844	-49.705	0.119	0.056
-234.830	68.277	0.136	-0.139
-233.815	-0.465	0.248	0.176
-232.800	-133.055	0.358	0.045
-231.786	800.000	0.048	0.133
-230.771	105.412	0.286	0.337
-229.757	-200.000	-0.038	0.180
-228.742	-87.230	0.407	-0.123
-227.727	-1.166	-0.187	0.132
-226.713	257.456	-0.077	-0.132
-225.698	30.384	0.191	0.162
-224.684	-93.186	-0.428	-0.119
-223.669	800.000	-0.101	0.302
-222.655	800.000	-0.086	0.311
-221.640	800.000	0.051	0.201
-220.625	-200.000	0.057	0.275
-219.611	-105.168	0.104	0.024
-218.596	71.381	0.202	0.209
-217.582	559.414	-0.041	0.100
-216.567	-47.991	0.299	0.144
-215.552	454.565	0.094	0.207
-214.538	-101.492	-0.472	-0.114
-213.523	800.000	0.111	0.363
-212.509	228.065	0.066	0.106
-211.494	39.757	0.188	-0.168
-210.479	-27.231	-0.159	0.092
-209.465	709.900	0.157	0.413
-208.450	86.880	0.118	-0.130
-207.436	800.000	0.064	-0.243
-206.421	-200.000	-0.003	-0.054
-205.406	-142.749	0.173	0.017
-204.392	4.242	0.111	0.081
-203.377	-58.333	0.063	0.027
-202.363	176.956	-0.040	0.058
-201.348	-200.000	0.009	-0.104
-200.333	38.739	-0.141	0.125
-199.319	38.558	0.052	-0.046
-198.304	-200.000	-0.006	0.065
-197.290	-71.553	-0.103	0.038
-196.275	-108.881	0.295	0.063
-195.260	-86.108	-0.286	0.088
-194.246	-11.074	-0.197	-0.129
-193.231	208.165	-0.022	-0.034
-192.217	-200.000	-0.009	-0.172
-191.202	200.955	0.166	-0.255
-190.187	-12.061	-0.083	-0.054
-189.173	-55.143	-0.329	-0.147
-188.158	136.821	0.141	-0.184
-187.144	-200.000	0.042	-0.317
-186.129	2.594	-0.180	-0.129
-185.114	-150.296	0.420	-0.032
-184.100	800.000	-0.077	-0.221
-183.085	-200.000	0.025	0.248
-182.071	301.979	-0.057	-0.106
-181.056	-200.000	0.032	0.295
-180.042	82.380	0.245	0.265
-179.027	-200.000	0.007	0.055
-178.012	41.304	0.190	0.171
-176.998	375.316	-0.140	-0.283
-175.983	509.421	-0.083	0.193
-174.969	47.340	0.357	-0.331
-173.954	-132.478	-0.194	-0.025
-172.939	-10.373	-0.342	0.225
-171.925	-73.626	0.322	-0.117
-170.910	-148.069	0.185	0.015
-169.896	144.319	0.091	-0.121
-168.881	800.000	-0.066	-0.268
-167.866	-29.402	0.257	0.146
-166.852	-200.000	-0.014	0.299
-165.837	800.000	0.093	0.395
-164.823	-200.000	-0.063	0.318
-163.808	-119.451	0.186	0.032
-162.793	-63.395	-0.137	-0.056
-161.779	-79.008	-0.161	0.055
-160.764	-109.928	0.538	-0.112
-159.750	55.481	-0.041	0.039
-158.735	342.918	-0.097	0.189
-157.720	644.173	-0.046	-0.117
-156.706	-159.996	0.211	0.011
-155.691	800.000	-0.090	0.346
-154.677	614.370	-0.020	0.049
-153.662	-45.654	-0.044	0.022
-152.647	164.768	0.173	0.243
-151.633	-105.060	0.279	0.063
-150.618	800.000	-0.063	-0.203
-149.604	-200.000	-0.003	0.056
-148.589	-200.000	-0.011	0.268
-147.574	800.000	-0.102	0.373
-146.560	-28.628	-0.068	-0.039
-145.545	-200.000	0.022	0.304
-144.531	-200.000	-0.006	0.167
-143.516	-130.492	-0.302	0.041
-142.502	-200.000	-0.024	-0.140
-141.487	800.000	0.054	0.213
-140.472	-26.433	0.192	0.112
-139.458	-41.433	0.158	-0.081
-138.443	-5.644	0.043	-0.029
-137.429	-2.109	0.112	0.078
-136.414	677.805	0.060	-0.156
-135.399	-65.398	0.176	0.070
-134.385	-180.277	0.157	0.003
-133.370	-177.805	0.332	0.008
-132.356	119.597	0.135	0.167
-131.341	-200.000	0.015	0.089
-130.326	-95.962	-0.314	-0.083
-129.312	43.451	-0.116	-0.105
-128.297	248.989	0.087	0.147
-127.283	800.000	0.099	0.352
-126.268	-47.140	-0.222	0.108
-125.253	-10.184	-0.178	0.117
-124.239	3.834	0.216	-0.157
-123.224	247.168	-0.109	0.183
-122.210	-106.754	0.161	-0.036
-121.195	34.734	0.195	0.169
-120.180	-6.836	-0.177	0.119
-119.166	387.132	0.137	0.282
-118.151	2.069	0.231	0.165
-117.137	800.000	-0.093	0.316
-116.122	-2.440	-0.126	-0.088
-115.107	-200.000	0.002	0.058
-114.093	-130.910	-0.360	0.048
-113.078	-70.927	-0.072	-0.027
-112.064	-200.000	-0.022	0.114
-111.049	670.067	0.127	0.327
-110.034	-35.445	0.159	-0.086
-109.020	-80.339	-0.094	0.031
-108.005	-173.415	-0.208	-0.006
-106.991	23.759	-0.126	0.103
-105.976	-200.000	0.022	-0.097
-104.962	-16.161	0.186	-0.117
-103.947	-139.181	0.137	-0.015
-102.932	370.900	-0.052	-0.105
-101.918	-200.000	0.015	-0.083
-100.903	12.383	-0.142	-0.109
-99.889	40.303	0.245	0.218
-98.874	80.326	0.135	0.144
-97.859	216.095	0.197	-0.310
-96.845	-64.941	0.557	0.223
-95.830	-24.592	-0.131	0.078
-94.816	800.000	0.058	-0.245
-93.801	-200.000	-0.015	-0.130
-92.786	-200.000	0.044	0.285
-91.772	-9.204	0.104	0.069
-90.757	-94.576	-0.095	0.026
-89.743	-113.655	0.090	0.017
-88.728	44.374	-0.146	0.133
-87.713	187.050	0.064	-0.094
-86.699	132.193	0.104	0.132
-85.684	397.432	-0.087	-0.179
-84.670	-12.372	0.091	0.059
-83.655	-200.000	0.294	0.001
-82.640	-200.000	0.049	0.374
-81.626	-123.588	-0.284	-0.045
-80.611	-132.747	-0.117	-0.015
-79.597	2.386	0.278	-0.200
-78.582	50.237	0.141	0.132
-77.567	-200.000	0.082	-0.383
-76.553	-91.720	0.267	0.075
-75.538	-91.906	0.155	0.044
-74.524	-121.074	0.276	-0.046
-73.509	46.549	0.238	0.219
-72.494	154.936	0.135	0.184
-71.480	533.078	0.125	0.294
-70.465	393.186	0.102	0.211
-69.451	-34.335	0.177	-0.096
-68.436	-200.000	-0.000	0.095
-67.422	800.000	0.079	0.340
-66.407	-64.851	0.157	0.063
-65.392	-156.887	-0.178	-0.011
-64.378	176.168	0.146	0.210
-63.363	8.229	0.228	0.169
-62.349	415.423	-0.053	0.113
-61.334	53.836	-0.861	-0.819
-60.319	-200.000	0.048	0.255
-59.305	800.000	-0.193	-0.807
-58.290	155.379	0.530	0.722
-57.276	562.073	0.704	1.686
-56.261	-200.000	89.714	528.635
-55.246	516.050	1364.446	3156.021
-54.232	152.263	2574.213	3477.761
-53.217	116.102	2175.590	2637.269
-52.203	48.266	1634.658	1514.045
-51.188	40.221	1369.662	1219.260
-50.173	37.008	1326.065	1161.200
-49.159	57.034	1373.067	1324.824
-48.144	61.804	1391.661	1371.758
-47.130	40.560	1347.521	1201.411
-46.115	36.907	1329.516	1163.427
-45.100	36.652	1324.918	1157.835
-44.086	36.581	1322.442	1155.197
-43.071	36.604	1319.963	1153.126
-42.057	36.602	1317.537	1150.950
-41.042	36.609	1316.463	1150.007
-40.027	36.691	1314.610	1148.826
-39.013	36.666	1312.510	1146.796
-37.998	36.713	1310.885	1145.611
-36.984	36.861	1308.774	1144.599
-35.969	36.877	1307.103	1143.183
-34.954	36.764	1305.788	1141.321
-33.940	36.791	1304.033	1139.904
-32.925	36.867	1302.851	1139.270
-31.911	36.904	1301.163	1137.966
-30.896	37.028	1299.718	1137.386
-29.881	36.930	1298.382	1135.597
-28.867	36.865	1297.050	1134.004
-27.852	37.017	1294.970	1133.033
-26.838	36.871	1293.813	1131.120
-25.823	36.872	1292.178	1129.652
-24.809	36.903	1290.975	1128.736
-23.794	36.940	1289.584	1127.691
-22.779	36.887	1288.426	1126.327
-21.765	36.795	1287.283	1124.745
-20.750	36.888	1285.915	1124.050
-19.736	36.659	1285.068	1121.936
-18.721	36.699	1283.529	1120.777
-17.706	36.727	1282.316	1119.834
-16.692	36.781	1281.182	1119.113
-15.677	36.705	1280.323	1117.881
-14.663	36.730	1279.398	1117.171
-13.648	36.768	1277.628	1115.804
-12.633	36.654	1276.978	1114.533
-11.619	36.656	1275.777	1113.454
-10.604	36.823	1274.467	1113.221
-9.590	36.659	1274.343	1112.131
-8.575	36.780	1272.640	1111.294
-7.560	36.723	1272.474	1110.774
-6.546	36.820	1271.354	1110.314
-5.531	36.703	1270.615	1108.951
-4.517	36.606	1269.933	1107.756
-3.502	36.792	1268.454	1107.488
-2.487	36.774	1267.459	1106.471
-1.473	36.676	1263.389	1102.317
-0.458	35.081	1248.244	1080.072
0.556	31.313	1228.703	1038.252
1.571	27.376	1232.698	1019.534
2.586	26.355	1248.052	1026.347
3.600	25.417	1237.288	1012.124
4.615	18.480	1162.243	913.799
5.629	7.122	1082.308	794.184
6.644	1.996	1059.977	752.494
7.659	1.633	1056.677	748.297
8.673	1.533	1055.982	747.251
9.688	1.489	1054.092	745.630
10.702	2.097	1052.495	747.413
11.717	8.888	1063.023	788.308
12.731	19.176	1078.040	850.433
13.746	23.820	1083.537	877.688
14.761	24.433	1083.948	880.971
15.775	24.498	1083.548	880.887
16.790	24.270	1082.666	878.967
17.804	24.220	1081.909	878.029
18.819	24.370	1081.195	878.109
19.834	24.407	1080.920	877.994
20.848	24.449	1081.118	878.280
21.863	24.512	1080.113	877.696
22.877	24.320	1079.349	876.056
23.892	24.412	1078.585	875.810
24.907	24.353	1078.416	875.304
25.921	24.358	1077.076	874.166
26.936	24.358	1075.362	872.697
27.950	24.339	1074.232	871.610
28.965	24.014	1072.707	868.710
29.980	24.227	1070.611	867.973
30.994	24.443	1069.726	868.228
32.009	24.500	1068.593	867.512
33.023	24.225	1067.473	865.188
34.038	24.316	1066.817	865.019
35.053	24.548	1066.201	865.573
36.067	24.415	1065.302	864.120
37.082	24.609	1064.341	864.203
38.096	24.715	1063.727	864.141
39.111	24.731	1063.141	863.666
40.126	24.576	1061.247	861.300
41.140	24.311	1059.808	858.781
42.155	24.088	1058.434	856.522
43.169	24.068	1057.689	855.746
44.184	24.116	1056.609	855.024
45.199	23.967	1055.817	853.596
46.213	24.053	1055.154	853.395
47.228	24.216	1054.316	853.425
48.242	24.242	1053.479	852.795
49.257	24.491	1052.148	852.831
50.271	24.468	1051.909	852.452
51.286	24.552	1051.383	852.354
52.301	24.538	1050.112	851.176
53.315	24.440	1049.174	849.878
54.330	24.528	1047.880	849.172
55.344	24.612	1047.139	848.893
56.359	24.355	1046.407	847.009
57.374	24.306	1045.308	845.810
58.388	24.242	1044.905	845.105
59.403	24.158	1043.562	843.547
60.417	23.941	1043.167	842.126
61.432	23.902	1042.540	841.359
62.447	24.205	1042.059	842.332
63.461	24.314	1041.069	841.968
64.476	24.213	1040.171	840.694
65.490	24.060	1039.115	839.042
66.505	24.259	1038.491	839.405
67.520	24.282	1037.465	838.608
68.534	24.050	1036.321	836.521
69.549	23.703	1035.677	834.294
70.563	23.646	1034.959	833.374
71.578	23.638	1034.043	832.524
72.593	23.540	1032.794	830.986
73.607	23.626	1032.764	831.291
74.622	23.840	1032.395	831.923
75.636	23.918	1031.811	831.746
76.651	23.891	1030.415	830.418
77.666	23.749	1029.878	829.250
78.680	23.782	1029.099	828.704
79.695	24.019	1028.324	829.110
80.709	24.041	1027.683	828.624
81.724	24.029	1027.223	828.123
82.739	24.152	1026.376	827.938
83.753	24.353	1025.965	828.468
84.768	24.696	1025.186	829.355
85.782	24.975	1023.754	829.416
86.797	24.700	1023.057	827.508
87.812	24.577	1022.386	826.324
88.826	24.660	1021.633	826.022
89.841	24.682	1020.689	825.289
90.855	24.700	1019.929	824.684
91.870	24.710	1018.858	823.793
92.884	24.544	1016.890	821.364
93.899	24.487	1016.430	820.659
94.914	24.662	1015.153	820.359
95.928	24.588	1014.337	819.285
96.943	24.407	1012.996	817.303
97.957	24.144	1012.010	815.232
98.972	23.861	1011.360	813.339
99.987	24.161	1010.564	814.000
101.001	24.442	1009.397	814.267
102.016	24.261	1009.312	813.300
103.030	24.380	1007.467	812.288
104.045	24.190	1007.063	811.025
105.060	23.987	1006.043	809.206
106.074	24.285	1005.538	810.082
107.089	24.530	1005.313	810.945
108.103	24.493	1003.801	809.485
109.118	24.125	1002.450	806.657
110.133	24.151	1001.843	806.213
111.147	23.943	1000.209	803.890
112.162	23.932	999.190	802.951
113.176	24.061	998.855	803.190
114.191	23.986	998.095	802.169
115.206	23.894	996.236	800.191
116.220	23.683	996.083	799.047
117.235	23.902	995.253	799.297
118.249	23.841	994.397	798.264
119.264	23.889	993.465	797.661
120.279	23.844	992.803	796.856
121.293	23.960	992.084	796.731
122.308	23.832	991.557	795.663
123.322	23.871	990.033	794.542
124.337	23.594	988.624	792.104
125.352	23.195	986.961	788.927
126.366	23.155	985.893	787.825
127.381	23.783	986.261	790.846
128.395	24.318	985.873	792.843
129.410	24.451	984.826	792.520
130.424	24.425	983.739	791.461
131.439	24.471	983.031	791.026
132.454	24.375	981.813	789.552
133.468	24.307	981.101	788.607
134.483	24.504	980.112	788.614
135.497	24.494	979.929	788.350
136.512	24.741	978.923	788.562
137.527	24.675	978.140	787.570
138.541	24.664	977.129	786.640
139.556	24.724	976.200	786.083
140.570	24.779	975.625	785.792
141.585	24.694	975.090	784.920
142.600	24.728	973.587	783.790
143.614	24.927	973.116	784.215
144.629	25.087	971.842	783.814
145.643	24.743	971.343	781.842
146.658	24.703	969.742	780.311
147.673	24.521	968.843	778.721
148.687	24.473	967.774	777.584
149.702	24.459	966.630	776.538
150.716	24.295	966.098	775.326
151.731	24.530	965.253	775.602
152.746	24.768	964.652	776.082
153.760	24.729	963.955	775.286
154.775	24.850	963.409	775.301
155.789	24.762	962.835	774.391
156.804	24.622	961.710	772.809
157.819	24.758	961.047	772.796
158.833	25.002	959.970	772.913
159.848	24.964	959.022	771.918
160.862	24.818	957.599	770.080
161.877	24.715	956.976	769.065
162.892	24.775	956.035	768.501
163.906	24.680	955.263	767.401
164.921	24.667	954.615	766.760
165.935	24.890	953.166	766.480
166.950	24.786	952.372	765.330
167.964	24.687	951.736	764.329
168.979	24.461	950.799	762.545
169.994	24.622	949.485	762.107
171.008	24.850	948.975	762.605
172.023	24.842	948.252	761.922
173.037	24.706	946.645	759.985
174.052	24.451	946.229	758.502
175.067	24.476	945.553	757.999
176.081	24.467	945.516	757.863
177.096	24.564	944.451	757.355
178.110	24.365	942.848	755.158
179.125	24.118	942.410	753.696
180.140	24.387	941.629	754.143
181.154	24.378	942.143	754.448
182.169	24.657	941.784	755.271
183.183	24.876	941.374	755.802
184.198	24.867	939.941	754.547
185.213	24.642	939.299	753.015
186.227	24.809	938.622	753.109
187.242	24.858	938.193	752.905
188.256	24.831	937.119	751.862
189.271	24.906	936.924	751.954
190.286	24.528	935.507	749.168
191.300	24.020	933.983	745.752
192.315	23.295	932.437	741.418
193.329	23.167	932.083	740.536
194.344	24.020	932.583	744.438
195.359	24.597	932.770	746.934
196.373	24.721	931.889	746.681
197.388	24.652	931.504	746.017
198.402	24.630	930.678	745.199
199.417	24.678	930.342	745.062
200.432	24.439	928.880	742.832
201.446	24.281	928.461	741.774
202.461	24.371	927.941	741.664
203.475	23.551	925.446	736.204
204.490	22.568	924.839	731.577
205.504	23.579	924.985	735.824
206.519	24.206	925.209	738.538
207.534	24.371	924.413	738.518
208.548	24.750	924.051	739.733
209.563	24.447	923.434	737.921
210.577	24.508	922.665	737.492
211.592	24.897	922.107	738.586
212.607	24.798	921.333	737.493
213.621	24.959	921.030	737.849
214.636	24.861	920.252	736.756
215.650	24.956	919.068	736.134
216.665	24.971	918.760	735.886
217.680	24.934	917.916	734.989
218.694	24.602	916.630	732.536
219.709	24.175	916.726	730.796
220.723	24.545	915.851	731.550
221.738	24.687	915.500	731.787
222.753	24.626	914.821	730.930
223.767	24.734	914.703	731.213
224.782	24.960	913.896	731.424
225.796	25.022	913.435	731.245
226.811	24.384	911.325	726.893
227.826	23.608	910.742	723.204
228.840	23.904	909.893	723.670
229.855	23.939	909.155	723.161
230.869	23.590	907.961	720.728
231.884	24.136	908.006	722.919
232.899	24.672	908.079	725.088
233.913	24.625	907.489	724.360
234.928	24.439	907.270	723.367
235.942	24.604	906.299	723.199
236.957	24.257	905.520	721.108
237.972	24.111	905.135	720.150
238.986	24.291	904.656	720.429
240.001	24.303	904.210	720.062
241.015	24.408	903.549	719.895
242.030	24.594	902.871	720.038
243.045	24.703	902.162	719.851
244.059	24.764	902.097	719.981
245.074	24.546	901.220	718.338
246.088	24.297	900.132	716.408
247.103	24.542	899.915	717.156
248.117	25.064	899.882	719.160
249.132	25.252	899.881	719.849
250.147	25.435	898.854	719.700
251.161	25.450	899.079	719.877
252.176	25.362	898.215	718.767
253.190	25.505	897.425	718.646
254.205	25.728	896.881	719.037
255.220	25.759	896.040	718.423
256.234	25.621	895.127	717.077
257.249	25.595	894.237	716.194
258.263	25.577	893.673	715.609
259.278	25.526	893.446	715.163
260.293	25.655	892.564	714.906
261.307	25.507	891.910	713.729
262.322	25.239	891.480	712.258
263.336	24.629	889.113	707.888
264.351	23.592	887.042	702.076
265.366	23.598	887.178	702.146
266.380	24.756	887.457	706.887
267.395	24.968	887.593	707.770
268.409	25.033	886.958	707.457
269.424	25.294	886.429	708.001
270.439	25.380	885.725	707.714
271.453	25.537	884.888	707.601
272.468	25.484	885.294	707.655
273.482	25.677	884.178	707.461
274.497	25.163	882.979	704.418
275.512	24.816	882.104	702.295
276.526	25.318	882.332	704.387
277.541	25.252	882.191	703.952
278.555	25.239	880.962	702.860
279.570	25.138	879.931	701.581
280.585	25.307	879.379	701.739
281.599	25.200	878.559	700.605
282.614	24.666	877.268	697.427
283.628	24.691	876.919	697.188
284.643	24.976	876.923	698.238
285.657	24.570	875.789	695.696
286.672	24.267	874.913	693.759
287.687	24.879	875.229	696.330
288.701	24.977	874.122	695.765
289.716	24.557	873.608	693.664
290.730	24.590	872.725	693.032
291.745	24.399	871.800	691.494
292.760	24.519	871.539	691.693
293.774	25.563	871.988	696.031
294.789	25.970	872.109	697.639
295.803	25.741	871.269	696.020
296.818	26.149	870.342	696.794
297.833	25.487	869.481	693.488
298.847	25.346	868.693	692.256
299.862	25.634	868.611	693.241
300.876	25.776	868.295	693.474
301.891	25.750	867.793	692.912
302.906	25.388	866.460	690.393
303.920	25.571	866.315	690.919
304.935	25.790	866.182	691.595
305.949	25.827	865.291	690.965
306.964	25.524	864.399	689.029
307.979	25.625	864.033	689.065
308.993	25.933	864.304	690.397
310.008	25.997	863.478	689.923
311.022	25.682	862.570	687.933
312.037	25.578	861.710	686.790
313.052	25.304	861.174	685.255
314.066	24.506	859.434	680.768
315.081	24.149	858.824	678.862
316.095	25.092	858.906	682.462
317.110	25.538	858.975	684.154
318.125	24.799	857.041	679.746
319.139	23.637	855.939	674.399
320.154	23.670	855.387	674.031
321.168	24.578	855.889	677.812
322.183	25.269	855.723	680.242
323.197	25.384	855.627	680.540
324.212	25.637	855.142	681.052
325.227	25.633	854.868	680.758
326.241	25.539	854.181	679.797
327.256	25.426	853.456	678.732
328.270	25.302	853.060	677.890
329.285	25.184	851.642	676.256
330.300	24.946	850.824	674.653
331.314	25.217	850.746	675.550
332.329	25.540	850.478	676.493
333.343	25.842	850.248	677.386
334.358	25.803	849.575	676.643
335.373	25.994	849.437	677.191
336.387	26.082	849.492	677.504
337.402	26.253	849.383	678.002
338.416	26.170	848.891	677.238
339.431	26.208	848.548	677.044
340.446	26.411	848.550	677.747
341.460	26.368	847.436	676.639
342.475	26.060	847.183	675.222
343.489	26.112	846.804	675.057
344.504	26.370	846.558	675.765
345.519	26.457	845.953	675.547
346.533	26.666	845.696	676.063
347.548	26.662	845.113	675.521
348.562	26.442	844.778	674.372
349.577	26.573	843.737	673.969
350.592	26.548	843.200	673.389
351.606	26.544	842.433	672.703
352.621	26.213	841.987	671.056
353.635	26.315	840.992	670.582
354.650	25.729	838.971	666.743
355.665	24.778	837.707	662.161
356.679	25.237	837.708	663.803
357.694	25.563	837.187	664.536
358.708	25.518	836.595	663.838
359.723	25.875	836.741	665.215
360.738	26.167	836.466	666.015
361.752	26.425	835.876	666.438
362.767	26.662	835.621	667.048
363.781	26.802	835.371	667.303
364.796	26.990	834.787	667.469
365.810	26.979	834.444	667.094
366.825	26.928	833.889	666.406
367.840	26.762	833.126	665.129
368.854	26.449	832.028	663.047
369.869	26.169	831.734	661.725
370.883	26.189	831.760	661.761
371.898	26.133	831.170	661.029
372.913	26.258	830.614	660.987
373.927	26.534	829.956	661.412
374.942	26.561	830.089	661.559
375.956	26.616	829.535	661.261
376.971	26.879	829.003	661.737
377.986	26.981	828.727	661.829
379.000	26.886	828.394	661.157
380.015	26.606	827.737	659.558
381.029	26.644	827.078	659.112
382.044	27.037	826.236	659.810
383.059	26.887	825.904	658.942
384.073	26.938	825.706	658.912
385.088	26.879	824.954	658.037
386.102	26.641	823.961	656.325
387.117	26.623	823.356	655.720
388.132	26.262	822.437	653.626
389.146	25.639	821.687	650.717
390.161	26.115	821.338	652.104
391.175	26.531	821.412	653.609
392.190	26.310	820.140	651.740
393.205	24.973	817.800	645.011
394.219	23.492	816.111	638.298
395.234	23.325	816.210	637.718
396.248	24.939	817.313	644.334
397.263	26.360	818.097	650.010
398.278	26.402	817.830	649.892
399.292	26.114	817.258	648.345
400.307	26.268	816.729	648.421
401.321	26.246	816.546	648.137
402.336	26.667	816.348	649.433
403.350	27.099	816.235	650.833
404.365	27.201	816.293	651.190
405.380	27.639	815.654	652.190
406.394	27.822	814.776	652.080
407.409	27.553	814.685	650.990
408.423	27.473	814.352	650.382
409.438	27.595	814.048	650.515
410.453	27.682	813.344	650.206
411.467	27.677	812.748	649.654
412.482	27.569	812.434	648.960
413.496	27.579	812.392	648.905
414.511	27.638	811.798	648.585
415.526	27.580	811.504	648.086
416.540	27.499	810.515	646.950
417.555	27.298	809.787	645.599
418.569	27.379	809.108	645.290
419.584	27.371	808.807	644.961
420.599	26.973	808.338	643.121
421.613	105.093	1277.273	1429.712
422.628	90.688	1345.606	1429.839
