DTS Sentinel unit serial number:	SN413079Multiplexer serial number:	ORYXHardware model number:	OX4-SRSoftware version number:	ORYX F/W v4.00 Oryx Data Collector v3.7.2.0data status	okinstallation	princeton_trtdifferential loss correction	single-endedforward channel	channel 1reverse channel	N/Adate	2019/09/11time	07:08:11forward acquisition time	60.00reverse acquisition time	0.00gamma	496.2192k internal	0.2329k external	0.2329temperature offset calibration	0.9917default loss term (dB/km)	0.3790temperature slope calibration	1.0000multiplexer offset coefficient	1.0000multiplexer slope coefficient	1.0000fibre end	0.00T internal ref (°C)	30.31T ext. ref 1 (°C)	-0.10T ext. ref 2 (°C)	26.21length (m)	temperature (°C)	Stokes	anti-Stokes-747.200	86.271	-0.245	-0.272
-746.185	-171.038	-0.281	0.010
-745.171	-42.730	-0.078	-0.040
-744.156	428.180	-0.099	0.216
-743.142	-200.000	-0.030	0.290
-742.127	163.663	-0.210	0.298
-741.112	56.850	-0.056	0.055
-740.098	-56.380	-0.287	0.129
-739.083	-97.400	-0.439	0.115
-738.069	-37.251	0.211	0.114
-737.054	-200.000	0.032	0.388
-736.039	800.000	-0.168	0.631
-735.025	800.000	-0.084	0.321
-734.010	-138.498	-0.169	0.019
-732.996	-11.181	-0.259	-0.172
-731.981	800.000	0.040	-0.128
-730.966	32.143	-0.420	-0.365
-729.952	405.625	-0.117	0.248
-728.937	307.434	-0.066	0.124
-727.923	23.776	0.140	-0.116
-726.908	-113.536	-0.300	-0.059
-725.894	682.568	-0.056	-0.146
-724.879	50.318	-0.195	0.186
-723.864	-200.000	0.003	-0.157
-722.850	-78.334	-0.096	-0.033
-721.835	-1.566	-0.220	0.156
-720.821	-134.854	0.348	0.042
-719.806	-69.354	0.332	-0.128
-718.791	23.993	-0.077	0.064
-717.777	100.388	-0.138	-0.161
-716.762	-200.000	-0.034	0.254
-715.748	145.638	0.219	0.295
-714.733	-200.000	0.007	0.139
-713.718	-140.184	-0.268	0.028
-712.704	800.000	0.109	-0.382
-711.689	-91.143	-0.131	-0.038
-710.675	-200.000	-0.032	-0.261
-709.660	29.259	0.302	-0.258
-708.645	309.233	0.128	-0.240
-707.631	-156.099	-0.168	0.011
-706.616	73.743	-0.158	-0.166
-705.602	47.357	-0.245	0.230
-704.587	-99.559	-0.400	0.101
-703.572	-200.000	0.001	0.254
-702.558	-120.490	0.217	-0.037
-701.543	262.301	-0.130	0.228
-700.529	-70.824	-0.095	-0.036
-699.514	368.385	0.120	-0.244
-698.499	21.876	-0.200	-0.164
-697.485	38.551	0.278	-0.249
-696.470	-10.080	0.328	0.219
-695.456	136.357	-0.098	0.129
-694.441	-153.297	0.128	0.009
-693.426	-117.695	-0.382	0.069
-692.412	-133.863	0.147	0.018
-691.397	-136.997	-0.293	0.034
-690.383	327.607	0.087	-0.168
-689.368	800.000	0.061	0.213
-688.354	327.459	-0.091	-0.175
-687.339	242.519	0.073	0.123
-686.324	800.000	-0.056	0.226
-685.310	121.136	-0.103	-0.129
-684.295	-51.444	0.182	-0.086
-683.281	-111.680	-0.291	-0.059
-682.266	369.056	-0.044	-0.090
-681.251	-99.725	-0.280	-0.070
-680.237	800.000	-0.068	0.244
-679.222	28.412	0.222	-0.188
-678.208	-50.517	-0.309	0.146
-677.193	35.361	-0.247	-0.218
-676.178	-200.000	0.043	-0.336
-675.164	64.509	-0.261	0.264
-674.149	800.000	0.020	-0.066
-673.135	658.038	0.108	-0.279
-672.120	43.549	-0.291	-0.267
-671.105	56.889	-0.074	-0.072
-670.091	376.012	-0.049	0.100
-669.076	405.292	0.289	-0.613
-668.062	-73.540	-0.029	0.010
-667.047	62.179	0.047	0.047
-666.032	123.914	0.255	-0.321
-665.018	-132.668	-0.276	-0.036
-664.003	43.230	-0.288	-0.264
-662.989	-200.000	-0.411	-0.002
-661.974	-20.613	-0.106	-0.066
-660.959	433.335	-0.090	0.197
-659.945	119.456	-0.187	-0.233
-658.930	-112.664	-0.138	-0.027
-657.916	66.036	-0.213	-0.217
-656.901	-200.000	0.029	-0.238
-655.886	757.250	-0.096	-0.260
-654.872	-200.000	0.038	-0.279
-653.857	-36.653	0.103	0.056
-652.843	211.060	-0.118	0.186
-651.828	42.892	0.036	-0.033
-650.814	-13.869	-0.171	0.111
-649.799	-200.000	0.007	0.222
-648.784	-84.644	0.164	0.052
-647.770	109.357	0.060	-0.072
-646.755	-129.601	-0.447	-0.062
-645.741	-200.000	-0.012	0.142
-644.726	-200.000	-0.000	-0.100
-643.711	-8.820	0.071	-0.048
-642.697	-147.029	0.276	0.024
-641.682	-90.525	-0.379	-0.110
-640.668	-200.000	0.020	0.274
-639.653	219.165	-0.156	0.251
-638.638	-200.000	-0.009	0.083
-637.624	-82.142	-0.141	-0.046
-636.609	-91.683	-0.224	-0.064
-635.595	-97.764	0.160	0.042
-634.580	-200.000	-0.018	0.211
-633.565	-200.000	-0.002	0.081
-632.551	59.586	-0.081	0.080
-631.536	-23.195	-0.056	-0.034
-630.522	456.892	0.049	0.110
-629.507	-114.458	0.233	-0.045
-628.492	-81.001	-0.255	0.085
-627.478	175.305	-0.097	-0.141
-626.463	-4.998	0.233	0.161
-625.449	-200.000	0.042	0.186
-624.434	191.677	-0.114	0.173
-623.419	39.770	-0.114	0.103
-622.405	-200.000	-0.018	0.081
-621.390	109.409	-0.071	-0.085
-620.376	-113.409	-0.523	0.103
-619.361	-19.304	-0.150	0.093
-618.346	-102.972	0.070	0.017
-617.332	-154.589	-0.437	0.029
-616.317	-44.983	0.199	0.099
-615.303	-74.590	-0.123	-0.044
-614.288	-171.245	0.221	-0.007
-613.273	-200.000	-0.018	0.145
-612.259	-200.000	-0.065	0.550
-611.244	11.392	0.161	-0.124
-610.230	-200.000	0.023	-0.121
-609.215	-200.000	0.014	-0.198
-608.201	-138.630	-0.276	-0.030
-607.186	-142.815	0.448	-0.044
-606.171	-76.512	-0.047	-0.017
-605.157	24.786	-0.026	-0.021
-604.142	-130.370	-0.324	-0.044
-603.128	800.000	0.064	-0.237
-602.113	-107.606	0.237	-0.052
-601.098	-102.168	0.217	-0.052
-600.084	88.249	0.027	0.030
-599.069	-198.671	-0.281	0.002
-598.055	-200.000	-0.076	-0.425
-597.040	564.587	0.052	-0.127
-596.025	800.000	-0.050	-0.146
-595.011	172.613	0.069	-0.099
-593.996	42.502	0.064	-0.058
-592.982	21.272	0.098	0.079
-591.967	800.000	-0.032	-0.094
-590.952	800.000	-0.039	-0.121
-589.938	8.152	0.080	-0.060
-588.923	-121.128	-0.139	0.023
-587.909	-116.937	0.096	0.018
-586.894	251.226	-0.028	-0.048
-585.879	-58.505	-0.135	0.059
-584.865	800.000	0.056	0.222
-583.850	-69.481	-0.195	0.075
-582.836	-22.857	-0.109	0.066
-581.821	690.790	-0.102	-0.267
-580.806	48.292	-0.052	0.049
-579.792	537.884	0.035	-0.083
-578.777	-200.000	-0.052	-0.315
-577.763	-88.535	0.231	-0.069
-576.748	253.395	-0.204	0.349
-575.733	348.580	0.118	0.232
-574.719	-4.063	0.144	0.100
-573.704	-131.457	-0.233	-0.031
-572.690	-200.000	0.017	-0.281
-571.675	-121.260	-0.270	-0.045
-570.661	800.000	0.074	-0.219
-569.646	-80.061	0.249	-0.084
-568.631	69.044	0.096	-0.098
-567.617	83.051	0.195	-0.212
-566.602	33.103	0.135	-0.117
-565.588	211.707	-0.072	-0.114
-564.573	113.072	0.108	-0.130
-563.558	-200.000	0.078	-0.482
-562.544	213.011	0.109	0.172
-561.529	-200.000	0.013	-0.162
-560.515	-94.666	0.344	0.093
-559.500	158.470	-0.061	-0.085
-558.485	91.085	0.084	0.095
-557.471	-140.972	0.285	0.029
-556.456	-64.051	0.426	-0.174
-555.442	68.103	-0.120	0.123
-554.427	22.233	-0.150	-0.123
-553.412	193.828	-0.082	0.125
-552.398	362.421	-0.047	0.094
-551.383	143.465	-0.230	0.306
-550.369	-33.113	-0.158	0.088
-549.354	-200.000	-0.051	-0.271
-548.339	439.187	-0.038	0.082
-547.325	-99.530	0.122	-0.031
-546.310	-200.000	0.002	0.021
-545.296	-15.731	-0.262	0.167
-544.281	-20.508	-0.411	-0.252
-543.266	402.618	-0.154	0.324
-542.252	-78.012	-0.063	0.022
-541.237	-5.112	0.130	0.089
-540.223	184.152	0.107	0.158
-539.208	-200.000	0.003	-0.150
-538.193	-200.000	-0.078	-0.490
-537.179	144.051	0.134	-0.179
-536.164	-173.442	0.047	0.001
-535.150	800.000	-0.113	0.330
-534.135	800.000	-0.031	-0.100
-533.121	-112.841	-0.127	-0.025
-532.106	90.541	-0.271	0.304
-531.091	-66.685	0.166	-0.066
-530.077	-200.000	-0.044	0.220
-529.062	-200.000	-0.029	-0.236
-528.048	606.174	-0.062	-0.153
-527.033	-37.820	-0.305	0.162
-526.018	735.638	0.037	-0.100
-525.004	120.694	-0.036	0.045
-523.989	667.583	0.018	-0.045
-522.975	387.525	0.059	-0.121
-521.960	-62.927	0.141	0.058
-520.945	-200.000	-0.026	0.215
-519.931	44.175	-0.050	0.046
-518.916	236.191	0.107	0.176
-517.902	-118.111	-0.180	0.032
-516.887	275.241	-0.091	0.161
-515.872	-78.824	0.295	-0.100
-514.858	-58.301	-0.378	-0.164
-513.843	-200.000	0.002	-0.015
-512.829	-200.000	0.067	0.335
-511.814	352.316	-0.102	0.203
-510.799	10.562	-0.021	0.016
-509.785	316.544	-0.056	-0.105
-508.770	-124.190	-0.071	0.011
-507.756	800.000	-0.166	0.495
-506.741	-154.525	0.193	0.013
-505.726	-200.000	-0.049	0.244
-504.712	-10.437	0.373	0.247
-503.697	-95.135	0.188	-0.051
-502.683	-25.886	0.214	0.126
-501.668	110.950	0.151	0.182
-500.653	-200.000	0.015	-0.110
-499.639	-200.000	0.006	0.367
-498.624	-95.574	0.343	-0.092
-497.610	352.897	-0.118	0.234
-496.595	-93.627	-0.285	-0.078
-495.581	119.428	-0.314	0.388
-494.566	800.000	0.060	-0.263
-493.551	128.569	-0.174	0.221
-492.537	-97.513	0.187	0.049
-491.522	-31.972	-0.250	-0.140
-490.508	-0.419	0.129	0.091
-489.493	-102.292	0.235	0.056
-488.478	539.661	-0.078	-0.186
-487.464	-200.000	-0.054	-0.255
-486.449	800.000	0.054	-0.154
-485.435	71.444	0.107	0.111
-484.420	-7.982	0.195	-0.131
-483.405	-14.174	0.162	-0.104
-482.391	85.342	0.076	0.084
-481.376	715.307	-0.160	-0.423
-480.362	-76.882	0.121	-0.042
-479.347	14.746	-0.084	0.065
-478.332	-54.399	-0.300	0.136
-477.318	-67.197	-0.437	-0.172
-476.303	-170.067	-0.079	0.003
-475.289	713.015	0.208	-0.549
-474.274	-32.597	0.374	0.208
-473.259	379.388	-0.158	0.322
-472.245	-200.000	0.065	-0.315
-471.230	-47.912	0.194	0.094
-470.216	-91.915	-0.371	-0.105
-469.201	-136.665	0.104	-0.012
-468.186	-62.973	0.127	0.052
-467.172	13.089	0.167	-0.129
-466.157	-116.129	-0.048	-0.009
-465.143	800.000	-0.106	0.352
-464.128	-200.000	-0.006	-0.325
-463.113	91.622	-0.169	0.190
-462.099	-200.000	-0.006	0.075
-461.084	319.054	0.039	-0.073
-460.070	-141.037	-0.086	0.009
-459.055	-178.685	0.120	-0.003
-458.040	800.000	-0.129	0.379
-457.026	-200.000	0.028	-0.128
-456.011	-200.000	-0.031	-0.149
-454.997	321.510	0.328	-0.622
-453.982	-73.565	-0.192	-0.070
-452.968	34.964	-0.184	0.161
-451.953	-57.223	0.033	0.015
-450.938	356.133	0.037	-0.073
-449.924	-81.219	0.097	-0.032
-448.909	-35.801	-0.161	-0.087
-447.895	-200.000	0.015	-0.139
-446.880	32.609	0.238	-0.205
-445.865	800.000	0.010	-0.031
-444.851	467.494	-0.076	-0.170
-443.836	114.802	-0.119	-0.144
-442.822	75.604	0.249	0.262
-441.807	-200.000	-0.031	0.307
-440.792	-17.915	-0.229	0.143
-439.778	-200.000	0.060	-0.333
-438.763	411.942	-0.058	0.122
-437.749	205.922	0.091	0.141
-436.734	-38.143	-0.150	0.079
-435.719	-17.819	0.121	-0.076
-434.705	-128.255	-0.084	0.012
-433.690	800.000	0.116	0.356
-432.676	-123.221	0.281	-0.045
-431.661	312.112	-0.140	-0.261
-430.646	-160.490	0.183	0.010
-429.632	-15.531	-0.144	-0.091
-428.617	19.772	-0.097	-0.078
-427.603	-127.503	-0.094	0.014
-426.588	173.006	0.314	-0.450
-425.573	17.165	0.155	-0.122
-424.559	-145.088	-0.078	-0.007
-423.544	-200.000	0.010	0.137
-422.530	-158.976	-0.083	0.005
-421.515	170.795	0.081	0.115
-420.500	-175.831	0.204	0.005
-419.486	800.000	-0.116	0.345
-418.471	-104.326	0.093	-0.021
-417.457	800.000	0.076	-0.211
-416.442	86.760	-0.380	0.417
-415.428	140.155	-0.136	0.178
-414.413	96.181	0.138	0.157
-413.398	-51.090	-0.534	0.249
-412.384	-18.118	0.092	-0.058
-411.369	-200.000	-0.066	-0.310
-410.355	800.000	-0.064	-0.185
-409.340	561.884	0.139	-0.335
-408.325	-200.000	-0.057	-0.484
-407.311	-200.000	-0.027	-0.152
-406.296	-23.543	0.200	0.120
-405.282	-200.000	-0.040	0.181
-404.267	-81.740	0.023	0.008
-403.252	-3.691	-0.159	-0.110
-402.238	-30.360	0.190	-0.107
-401.223	135.533	0.107	0.138
-400.209	331.933	-0.069	-0.132
-399.194	-144.169	-0.225	0.021
-398.179	-39.885	0.041	-0.021
-397.165	191.028	-0.144	0.215
-396.150	-96.908	0.205	0.054
-395.136	-49.457	0.095	0.045
-394.121	136.338	-0.260	0.337
-393.106	-200.000	-0.035	0.183
-392.092	258.621	-0.055	-0.094
-391.077	166.709	-0.091	-0.129
-390.063	-91.558	0.152	0.043
-389.048	800.000	0.053	-0.154
-388.033	162.425	-0.053	0.074
-387.019	143.778	0.165	0.219
-386.004	-57.980	-0.044	-0.019
-384.990	136.741	-0.038	-0.049
-383.975	96.039	0.077	0.088
-382.960	286.884	0.061	0.110
-381.946	587.149	0.084	0.206
-380.931	-30.082	-0.135	-0.076
-379.917	-78.180	0.097	-0.033
-378.902	445.837	0.030	0.066
-377.888	272.905	-0.177	-0.311
-376.873	-200.000	0.032	-0.186
-375.858	-62.573	0.244	0.100
-374.844	-200.000	-0.052	-0.281
-373.829	800.000	-0.090	-0.344
-372.815	-51.996	0.394	-0.182
-371.800	-1.085	-0.062	-0.044
-370.785	81.972	-0.256	-0.276
-369.771	-161.647	-0.285	-0.014
-368.756	-19.937	0.217	-0.133
-367.742	-200.000	0.006	-0.132
-366.727	65.377	-0.181	0.181
-365.712	-200.000	0.004	-0.090
-364.698	-38.550	0.427	-0.224
-363.683	238.692	-0.185	-0.305
-362.669	121.355	0.147	0.182
-361.654	275.312	-0.161	-0.284
-360.639	-131.632	0.202	0.026
-359.625	252.342	-0.103	0.175
-358.610	-88.915	0.195	0.057
-357.596	455.045	0.103	-0.226
-356.581	-66.845	-0.390	-0.153
-355.566	-55.677	-0.307	-0.136
-354.552	-200.000	0.085	0.584
-353.537	538.841	0.088	0.207
-352.523	-118.112	-0.350	0.062
-351.508	-138.543	0.309	0.034
-350.493	83.506	-0.035	-0.038
-349.479	37.387	-0.163	0.143
-348.464	-200.000	-0.276	-0.000
-347.450	557.798	-0.018	-0.043
-346.435	57.791	-0.213	-0.206
-345.420	800.000	-0.040	-0.161
-344.406	76.410	0.192	0.201
-343.391	-183.421	-0.083	0.001
-342.377	194.862	-0.224	-0.337
-341.362	42.147	0.234	0.210
-340.348	-200.000	-0.027	0.229
-339.333	-139.681	0.091	-0.010
-338.318	-101.885	-0.077	0.018
-337.304	-109.555	0.273	-0.057
-336.289	174.654	-0.049	0.071
-335.275	-119.654	-0.232	0.040
-334.260	-200.000	0.053	-0.287
-333.245	107.611	0.087	-0.102
-332.231	-200.000	0.030	0.136
-331.216	472.421	0.134	-0.299
-330.202	-200.000	-0.014	-0.099
-329.187	20.179	0.020	0.016
-328.172	-6.968	0.387	-0.260
-327.158	-76.641	0.057	0.020
-326.143	-200.000	0.032	-0.186
-325.129	800.000	0.063	0.249
-324.114	0.592	0.309	-0.219
-323.099	-200.000	-0.113	-0.545
-322.085	-73.222	-0.060	-0.022
-321.070	-115.316	-0.323	0.061
-320.056	122.747	-0.207	-0.257
-319.041	-107.790	-0.263	-0.057
-318.026	105.452	-0.057	0.066
-317.012	-112.093	-0.113	0.023
-315.997	234.255	0.122	0.200
-314.983	-9.482	0.230	-0.152
-313.968	-200.000	0.056	0.416
-312.953	148.471	-0.214	0.286
-311.939	85.272	-0.105	-0.114
-310.924	-65.726	0.215	-0.085
-309.910	29.886	0.383	-0.324
-308.895	436.574	-0.099	-0.214
-307.880	-171.929	-0.511	0.016
-306.866	-51.025	0.066	-0.031
-305.851	-87.548	-0.320	0.096
-304.837	-200.000	-0.029	-0.153
-303.822	-200.000	0.081	0.353
-302.807	-81.045	-0.102	-0.033
-301.793	-200.000	0.008	0.047
-300.778	-200.000	-0.061	0.352
-299.764	-200.000	0.035	0.295
-298.749	198.856	0.186	-0.282
-297.735	-200.000	0.026	0.115
-296.720	74.715	-0.124	0.130
-295.705	-59.935	0.306	-0.129
-294.691	-200.000	-0.016	-0.144
-293.676	-200.000	-0.015	-0.180
-292.662	232.939	0.039	-0.063
-291.647	106.193	0.130	0.152
-290.632	67.672	0.415	-0.420
-289.618	-200.000	-0.005	-0.259
-288.603	61.116	-0.231	0.227
-287.589	26.174	0.046	-0.038
-286.574	25.417	-0.322	0.265
-285.559	-46.538	-0.360	0.175
-284.545	-65.597	0.237	-0.094
-283.530	-200.000	-0.011	-0.084
-282.516	177.703	0.048	0.069
-281.501	48.739	0.336	0.312
-280.486	143.081	-0.119	0.156
-279.472	211.729	-0.210	0.328
-278.457	-148.752	0.095	-0.008
-277.443	-100.278	-0.120	-0.030
-276.428	-78.168	-0.322	0.110
-275.413	-90.298	0.267	0.077
-274.399	12.827	-0.200	0.153
-273.384	738.585	-0.122	0.325
-272.370	324.578	-0.063	0.119
-271.355	-150.026	-0.332	-0.026
-270.340	-125.901	-0.226	0.034
-269.326	-88.791	0.176	-0.052
-268.311	-112.299	-0.218	0.043
-267.297	245.229	-0.094	0.157
-266.282	108.187	0.166	0.196
-265.267	12.212	0.222	0.169
-264.253	331.021	0.105	-0.201
-263.238	800.000	0.082	-0.240
-262.224	-200.000	0.026	0.203
-261.209	-151.824	-0.170	-0.012
-260.195	-140.154	-0.208	0.022
-259.180	29.231	0.183	-0.154
-258.165	-52.144	-0.033	0.015
-257.151	10.963	0.035	-0.027
-256.136	155.328	0.144	-0.196
-255.122	695.297	0.090	0.232
-254.107	-86.249	0.257	0.078
-253.092	89.780	0.253	-0.279
-252.078	-190.848	0.048	-0.001
-251.063	318.529	-0.024	-0.044
-250.049	-45.433	0.241	0.118
-249.034	-117.547	0.281	-0.050
-248.019	-44.960	0.228	-0.112
-247.005	2.697	0.070	0.050
-245.990	-200.000	-0.008	-0.244
-244.976	800.000	-0.024	0.099
-243.961	-149.748	0.358	-0.028
-242.946	-147.316	-0.335	-0.028
-241.932	-83.934	0.100	0.031
-240.917	469.868	0.066	-0.147
-239.903	-200.000	0.014	0.065
-238.888	-40.823	-0.263	0.135
-237.873	346.911	0.145	0.282
-236.859	800.000	0.087	-0.261
-235.844	-119.899	0.074	0.013
-234.830	-200.000	0.009	0.292
-233.815	229.956	-0.081	0.131
-232.800	800.000	-0.079	-0.226
-231.786	-144.473	-0.188	0.017
-230.771	57.331	0.358	-0.345
-229.757	-38.525	0.215	-0.112
-228.742	442.134	0.084	-0.182
-227.727	535.351	-0.022	0.052
-226.713	-69.456	0.166	0.063
-225.698	-136.592	-0.214	-0.024
-224.684	194.229	-0.091	-0.135
-223.669	800.000	-0.040	-0.165
-222.655	76.383	-0.166	0.174
-221.640	193.210	-0.090	-0.135
-220.625	-37.700	-0.210	-0.111
-219.611	194.229	-0.354	0.530
-218.596	94.076	0.124	0.138
-217.582	800.000	0.073	0.227
-216.567	800.000	-0.034	0.127
-215.552	65.964	-0.163	0.163
-214.538	-26.882	0.276	0.159
-213.523	235.686	0.175	0.285
-212.509	175.316	-0.210	0.300
-211.494	-0.728	-0.075	-0.053
-210.479	-14.001	-0.105	-0.067
-209.465	14.468	-0.280	0.215
-208.450	-200.000	-0.020	0.156
-207.436	-93.927	0.202	0.055
-206.421	-30.210	0.308	-0.173
-205.406	618.111	-0.086	-0.212
-204.392	365.877	0.069	0.138
-203.377	198.451	0.158	-0.238
-202.363	-200.000	-0.032	-0.270
-201.348	-200.000	0.022	-0.129
-200.333	255.924	0.133	0.224
-199.319	-44.412	-0.280	-0.138
-198.304	-94.506	0.150	-0.040
-197.290	-77.949	-0.104	0.035
-196.275	-37.271	-0.062	-0.033
-195.260	-111.802	-0.259	-0.052
-194.246	-120.430	0.528	-0.089
-193.231	689.518	-0.106	0.272
-192.217	34.251	-0.043	0.037
-191.202	43.994	0.243	-0.219
-190.187	-200.000	0.008	-0.260
-189.173	121.645	0.075	-0.093
-188.158	428.714	-0.048	-0.101
-187.144	-7.644	-0.042	-0.028
-186.129	534.037	0.046	0.108
-185.114	-59.402	0.077	0.033
-184.100	39.139	-0.255	0.225
-183.085	75.236	0.217	0.226
-182.071	-121.117	0.229	-0.038
-181.056	-200.000	-0.004	-0.098
-180.042	-43.797	0.153	-0.076
-179.027	531.373	0.222	0.517
-178.012	800.000	0.037	0.108
-176.998	-42.308	0.072	0.036
-175.983	-139.425	0.176	-0.019
-174.969	-84.163	-0.284	-0.089
-173.954	-200.000	0.017	-0.099
-172.939	-110.853	-0.147	0.030
-171.925	81.213	0.051	-0.054
-170.910	800.000	-0.038	-0.137
-169.896	-20.343	0.235	-0.142
-168.881	-94.636	0.249	-0.067
-167.866	800.000	-0.027	0.078
-166.852	-199.465	0.278	0.001
-165.837	82.579	0.080	0.086
-164.823	173.535	0.126	0.179
-163.808	5.216	-0.198	-0.144
-162.793	800.000	-0.128	-0.488
-161.779	-200.000	0.000	0.220
-160.764	164.976	0.223	0.310
-159.750	255.124	0.146	-0.247
-158.735	108.060	0.334	0.392
-157.720	-28.821	-0.200	0.113
-156.706	800.000	-0.022	-0.073
-155.691	40.739	-0.216	-0.192
-154.677	386.008	0.052	0.105
-153.662	-200.000	0.018	0.085
-152.647	-38.055	0.132	0.069
-151.633	223.432	-0.141	-0.224
-150.618	-80.053	0.172	-0.057
-149.604	-200.000	0.059	-0.361
-148.589	-96.433	0.191	0.050
-147.574	534.060	-0.200	0.466
-146.560	-81.188	-0.030	0.010
-145.545	-44.618	0.245	0.120
-144.531	-19.232	-0.458	0.280
-143.516	-43.899	0.235	-0.116
-142.502	-167.670	-0.291	-0.011
-141.487	116.767	0.209	0.253
-140.472	-52.564	-0.374	-0.170
-139.458	-82.450	-0.498	0.159
-138.443	481.766	0.041	0.092
-137.429	-33.102	0.051	0.028
-136.414	466.357	-0.134	0.295
-135.399	800.000	0.014	0.058
-134.385	-185.578	0.265	0.004
-133.370	-120.614	-0.263	-0.044
-132.356	82.395	0.177	0.189
-131.341	-96.409	-0.080	0.021
-130.326	-200.000	-0.012	-0.264
-129.312	698.774	0.130	0.336
-128.297	-87.886	0.194	-0.058
-127.283	158.647	-0.149	-0.203
-126.268	-105.067	0.124	0.028
-125.253	142.539	0.272	-0.356
-124.239	-200.000	-0.005	-0.216
-123.224	-93.985	0.414	-0.112
-122.210	-114.847	0.233	0.044
-121.195	-200.000	-0.012	0.141
-120.180	-200.000	-0.051	-0.281
-119.166	800.000	0.127	-0.441
-118.151	-200.000	-0.004	-0.036
-117.137	-156.525	-0.112	-0.007
-116.122	-20.258	-0.339	0.205
-115.107	-9.421	-0.211	0.138
-114.093	-200.000	-0.039	0.210
-113.078	800.000	0.026	-0.085
-112.064	282.842	0.146	-0.257
-111.049	-119.849	0.135	-0.023
-110.034	-137.650	0.053	0.006
-109.020	508.675	-0.128	-0.292
-108.005	650.778	-0.073	-0.184
-106.991	7.103	0.180	-0.132
-105.976	146.027	0.084	0.110
-104.962	159.743	0.173	0.236
-103.947	-184.471	-0.201	0.003
-102.932	-74.208	-0.202	0.072
-101.918	687.434	-0.117	0.300
-100.903	-112.700	0.143	-0.028
-99.889	695.674	0.058	0.150
-98.874	-24.642	0.329	0.192
-97.859	-67.715	-0.235	0.091
-96.845	-58.113	0.156	0.067
-95.830	-169.221	0.293	0.011
-94.816	800.000	-0.038	0.133
-93.801	38.679	-0.250	-0.219
-92.786	178.933	-0.189	0.271
-91.772	246.524	0.199	-0.329
-90.757	-66.622	-0.194	0.076
-89.743	-200.000	-0.003	0.133
-88.728	38.256	-0.183	-0.160
-87.713	48.688	0.151	-0.139
-86.699	-128.813	-0.196	-0.027
-85.684	124.309	-0.081	0.100
-84.670	29.823	0.120	0.100
-83.655	800.000	0.038	0.110
-82.640	15.322	-0.045	-0.035
-81.626	157.691	-0.080	-0.109
-80.611	334.620	0.082	0.156
-79.597	-93.685	-0.085	-0.023
-78.582	-126.824	0.129	-0.019
-77.567	672.281	-0.143	-0.364
-76.553	-200.000	0.006	-0.334
-75.538	232.431	-0.073	-0.118
-74.524	-94.231	-0.428	0.115
-73.509	800.000	0.060	0.166
-72.494	617.852	0.044	-0.109
-71.480	11.087	0.249	0.187
-70.465	-200.000	-0.026	0.120
-69.451	-92.736	0.349	0.096
-68.436	-177.240	0.176	0.004
-67.422	79.869	0.256	0.270
-66.407	-35.536	-0.091	0.049
-65.392	-81.412	-0.164	0.053
-64.378	800.000	0.074	0.208
-63.363	37.791	-0.122	0.107
-62.349	800.000	0.030	-0.092
-61.334	70.335	-1.165	-1.180
-60.319	25.235	0.585	0.477
-59.305	-200.000	-0.321	-1.400
-58.290	352.794	0.709	1.379
-57.276	654.194	0.583	1.467
-56.261	-200.000	99.962	597.575
-55.246	545.099	1440.613	3375.119
-54.232	185.226	2641.430	3844.036
-53.217	114.058	2159.852	2575.985
-52.203	42.580	1601.008	1428.547
-51.188	33.864	1334.532	1138.768
-50.173	30.736	1293.045	1085.119
-49.159	53.894	1343.500	1265.612
-48.144	54.826	1359.750	1286.404
-47.130	33.931	1316.918	1123.957
-46.115	30.443	1299.643	1088.770
-45.100	30.346	1294.088	1083.503
-44.086	30.122	1291.996	1080.402
-43.071	30.188	1289.266	1078.462
-42.057	30.088	1287.660	1076.494
-41.042	30.236	1285.812	1075.764
-40.027	30.162	1284.860	1074.497
-39.013	30.182	1282.829	1072.873
-37.998	30.172	1281.062	1071.298
-36.984	30.297	1279.059	1070.297
-35.969	30.421	1276.606	1068.916
-34.954	30.330	1275.629	1067.533
-33.940	30.279	1274.695	1066.417
-32.925	30.322	1273.405	1065.543
-31.911	30.383	1271.711	1064.433
-30.896	30.351	1270.182	1062.927
-29.881	30.470	1268.948	1062.533
-28.867	30.427	1267.487	1061.023
-27.852	30.558	1265.930	1060.424
-26.838	30.443	1264.809	1058.787
-25.823	30.510	1263.324	1057.885
-24.809	30.376	1262.234	1056.164
-23.794	30.396	1260.854	1055.080
-22.779	30.416	1259.585	1054.089
-21.765	30.420	1258.284	1052.983
-20.750	30.482	1256.714	1051.982
-19.736	30.348	1255.487	1050.151
-18.721	30.321	1254.211	1048.892
-17.706	30.306	1253.143	1047.871
-16.692	30.354	1251.911	1047.071
-15.677	30.175	1251.238	1045.459
-14.663	30.282	1249.848	1044.856
-13.648	30.244	1248.850	1043.766
-12.633	30.253	1247.610	1042.739
-11.619	30.215	1247.284	1042.211
-10.604	30.228	1246.284	1041.410
-9.590	30.207	1244.893	1040.090
-8.575	30.116	1244.178	1038.937
-7.560	30.159	1243.331	1038.431
-6.546	30.180	1242.589	1037.888
-5.531	30.218	1241.662	1037.285
-4.517	30.262	1240.477	1036.498
-3.502	30.099	1239.942	1035.099
-2.487	30.138	1238.874	1034.388
-1.473	30.318	1235.311	1032.370
-0.458	29.179	1220.744	1013.891
0.556	23.537	1204.158	978.988
1.571	20.494	1210.027	966.767
2.586	19.707	1225.402	974.529
3.600	19.362	1214.142	963.561
4.615	14.351	1143.190	880.743
5.629	5.015	1068.005	776.438
6.644	0.315	1047.300	738.330
7.659	-0.168	1044.436	733.887
8.673	-0.245	1042.833	732.321
9.688	-0.310	1041.575	731.057
10.702	0.349	1040.149	733.195
11.717	6.488	1048.956	769.382
12.731	15.590	1062.191	823.841
13.746	20.008	1067.488	849.595
14.761	20.932	1068.585	854.927
15.775	21.059	1067.811	854.853
16.790	20.772	1066.877	852.628
17.804	20.668	1066.647	851.860
18.819	20.731	1066.451	851.935
19.834	20.824	1065.593	851.631
20.848	20.861	1065.461	851.629
21.863	20.875	1064.963	851.221
22.877	20.735	1064.123	849.791
23.892	20.814	1063.076	849.266
24.907	20.812	1062.685	848.872
25.921	20.903	1061.081	847.955
26.936	20.718	1060.376	846.416
27.950	20.695	1058.631	844.838
28.965	20.712	1056.293	842.982
29.980	20.641	1055.148	841.650
30.994	20.941	1053.898	842.027
32.009	20.848	1052.399	840.307
33.023	20.692	1051.631	838.869
34.038	20.702	1051.345	838.612
35.053	20.812	1050.390	838.306
36.067	20.910	1049.170	837.730
37.082	20.809	1048.412	836.567
38.096	21.088	1047.750	837.301
39.111	21.161	1047.312	837.230
40.126	20.948	1045.917	835.019
41.140	20.685	1044.067	832.211
42.155	20.428	1042.577	829.721
43.169	20.592	1041.579	829.637
44.184	20.552	1040.838	828.783
45.199	20.393	1039.513	826.898
46.213	20.521	1038.795	826.860
47.228	20.639	1037.688	826.467
48.242	20.871	1036.764	826.761
49.257	20.687	1037.093	826.075
50.271	20.769	1036.001	825.520
51.286	20.980	1034.779	825.474
52.301	20.948	1034.342	824.899
53.315	20.804	1033.515	823.486
54.330	20.819	1032.453	822.638
55.344	20.849	1031.672	822.087
56.359	20.803	1030.387	820.774
57.374	20.672	1029.497	819.372
58.388	20.740	1028.976	819.206
59.403	20.584	1027.518	817.243
60.417	20.478	1027.276	816.479
61.432	20.559	1026.671	816.302
62.447	20.636	1025.544	815.697
63.461	20.755	1024.890	815.662
64.476	20.584	1024.191	814.234
65.490	20.530	1022.941	812.917
66.505	20.695	1021.954	812.829
67.520	20.670	1021.860	812.567
68.534	20.322	1021.091	810.259
69.549	20.166	1019.506	808.201
70.563	20.079	1018.598	807.007
71.578	20.169	1017.562	806.531
72.593	19.976	1016.646	804.839
73.607	20.105	1016.644	805.364
74.622	20.479	1016.034	806.547
75.636	20.513	1015.247	806.008
76.651	20.298	1014.228	804.131
77.666	20.296	1013.346	803.354
78.680	20.335	1013.070	803.241
79.695	20.469	1012.481	803.324
80.709	20.466	1011.554	802.504
81.724	20.512	1010.725	801.989
82.739	20.583	1009.855	801.554
83.753	20.891	1009.412	802.550
84.768	21.154	1008.834	803.229
85.782	21.174	1007.831	802.452
86.797	21.010	1006.857	800.854
87.812	20.912	1005.649	799.370
88.826	20.983	1005.092	799.182
89.841	21.223	1003.588	799.014
90.855	21.169	1002.827	798.094
91.870	21.017	1002.068	796.722
92.884	20.963	1000.853	795.440
93.899	20.914	1000.055	794.513
94.914	20.895	1000.078	794.374
95.928	20.750	998.280	792.215
96.943	20.635	997.113	790.698
97.957	20.569	995.590	789.119
98.972	20.266	994.560	786.857
99.987	20.735	993.746	788.267
101.001	20.743	993.317	787.894
102.016	20.756	992.486	787.227
103.030	20.630	991.463	785.776
104.045	20.356	990.759	783.910
105.060	20.508	989.163	783.263
106.074	20.635	988.767	783.454
107.089	20.996	988.318	784.650
108.103	20.943	987.230	783.482
109.118	20.687	985.973	781.263
110.133	20.682	984.919	780.337
111.147	20.438	983.478	778.035
112.162	20.342	982.518	776.776
113.176	20.637	982.024	777.637
114.191	20.470	981.297	776.246
115.206	20.029	980.528	773.601
116.220	20.187	979.522	773.445
117.235	20.316	978.587	773.213
118.249	20.324	977.778	772.537
119.264	20.247	977.099	771.590
120.279	20.301	976.045	770.932
121.293	20.421	975.461	770.935
122.308	20.398	974.631	770.109
123.322	20.313	973.592	768.844
124.337	20.301	971.970	767.440
125.352	19.684	970.555	763.530
126.366	19.627	969.744	762.574
127.381	20.607	969.188	766.390
128.395	20.801	968.977	767.011
129.410	20.945	968.050	766.840
130.424	20.947	966.873	765.851
131.439	20.854	966.263	764.891
132.454	20.748	965.766	763.962
133.468	20.758	964.488	762.928
134.483	20.903	963.760	762.920
135.497	21.134	963.013	763.272
136.512	21.083	962.356	762.462
137.527	21.210	961.453	762.232
138.541	20.908	960.954	760.452
139.556	21.048	960.119	760.337
140.570	21.052	959.327	759.656
141.585	20.998	958.148	758.420
142.600	21.087	956.818	757.688
143.614	21.302	956.280	758.127
144.629	21.275	955.852	757.605
145.643	21.186	954.208	755.851
146.658	20.978	953.018	753.942
147.673	21.061	951.785	753.258
148.687	20.891	950.682	751.583
149.702	20.867	949.966	750.850
150.716	20.880	949.089	750.145
151.731	20.905	948.701	749.881
152.746	21.211	947.912	750.503
153.760	21.375	947.202	750.579
154.775	21.389	946.342	749.894
155.789	21.236	945.730	748.685
156.804	21.203	944.571	747.559
157.819	21.369	943.438	747.306
158.833	21.243	943.407	746.678
159.848	21.367	942.086	746.096
160.862	21.173	940.529	743.969
161.877	21.277	939.975	743.907
162.892	21.247	938.977	742.927
163.906	21.358	937.739	742.350
164.921	21.250	936.861	741.131
165.935	21.167	936.316	740.283
166.950	21.171	935.583	739.657
167.964	20.994	934.700	738.146
168.979	21.195	933.166	737.718
169.994	21.140	932.252	736.696
171.008	21.196	931.843	736.545
172.023	21.149	931.219	735.787
173.037	21.057	929.933	734.321
174.052	20.900	929.078	732.919
175.067	20.912	928.821	732.702
176.081	21.040	928.141	732.639
177.096	20.996	927.374	731.785
178.110	20.766	926.261	729.877
179.125	20.646	925.401	728.629
180.140	20.531	925.161	727.897
181.154	20.782	924.773	728.575
182.169	21.209	924.386	729.991
183.183	21.286	923.962	729.916
184.198	21.213	923.514	729.193
185.213	21.195	922.612	728.339
186.227	21.215	921.993	727.869
187.242	21.204	921.651	727.490
188.256	21.283	920.540	726.879
189.271	21.260	920.239	726.478
190.286	21.024	918.988	724.447
191.300	20.408	917.456	720.620
192.315	19.618	915.915	716.075
193.329	19.717	915.329	715.962
194.344	20.556	915.971	719.878
195.359	21.094	915.755	721.871
196.373	21.191	914.938	721.560
197.388	21.011	914.590	720.482
198.402	21.125	913.794	720.258
199.417	21.188	913.278	720.050
200.432	20.766	912.429	717.578
201.446	20.727	911.759	716.828
202.461	20.605	910.998	715.661
203.475	19.891	909.071	711.152
204.490	19.096	907.754	706.795
205.504	20.119	908.447	711.473
206.519	20.794	908.085	713.895
207.534	20.860	907.679	713.783
208.548	21.285	907.302	715.163
209.563	20.838	906.504	712.643
210.577	20.983	905.699	712.543
211.592	21.217	905.584	713.344
212.607	21.176	904.691	712.409
213.621	21.352	904.091	712.590
214.636	21.292	903.510	711.828
215.650	21.003	903.063	710.235
216.665	21.271	901.958	710.391
217.680	21.250	901.451	709.844
218.694	20.816	900.094	706.952
219.709	20.732	899.359	705.971
220.723	20.936	899.385	706.757
221.738	21.050	898.806	706.701
222.753	21.113	898.057	706.306
223.767	21.225	897.332	706.127
224.782	21.313	897.219	706.329
225.796	21.337	896.731	705.981
226.811	20.716	894.769	701.868
227.826	20.172	893.756	698.821
228.840	20.247	893.463	698.833
229.855	20.353	892.690	698.592
230.869	20.039	891.700	696.492
231.884	20.409	891.909	698.084
232.899	21.240	891.419	700.972
233.913	21.098	890.738	699.807
234.928	21.017	890.577	699.295
235.942	20.997	889.714	698.472
236.957	20.776	888.687	696.722
237.972	20.803	888.282	696.450
238.986	20.899	887.838	696.425
240.001	20.924	887.032	695.832
241.015	20.979	886.413	695.504
242.030	21.050	886.315	695.648
243.045	21.152	885.607	695.436
244.059	21.247	885.299	695.510
245.074	21.007	884.751	694.065
246.088	20.640	883.556	691.604
247.103	20.952	883.433	692.689
248.117	21.674	883.047	695.193
249.132	21.739	882.856	695.238
250.147	21.907	881.851	695.050
251.161	22.064	881.366	695.229
252.176	21.980	880.758	694.353
253.190	22.019	880.107	693.935
254.205	22.186	879.704	694.216
255.220	22.124	879.102	693.433
256.234	21.987	878.755	692.558
257.249	21.824	877.488	690.856
258.263	21.839	876.854	690.355
259.278	21.954	876.313	690.322
260.293	22.030	875.979	690.293
261.307	21.879	874.940	688.823
262.322	21.671	874.297	687.439
263.336	20.907	872.474	682.952
264.351	19.813	870.601	677.144
265.366	20.035	870.104	677.566
266.380	21.177	871.069	682.726
267.395	21.423	870.773	683.396
268.409	21.599	869.293	682.861
269.424	21.654	869.116	682.873
270.439	21.911	868.067	682.991
271.453	21.916	868.116	682.986
272.468	22.071	867.665	683.175
273.482	22.006	867.359	682.621
274.497	21.621	866.219	680.171
275.512	21.246	865.411	678.021
276.526	21.764	865.596	680.116
277.541	21.842	864.721	679.670
278.555	21.592	864.100	678.153
279.570	21.636	863.413	677.724
280.585	21.713	862.163	676.979
281.599	21.594	861.134	675.653
282.614	21.027	860.211	672.683
283.628	21.104	860.049	672.795
284.643	21.531	859.670	674.085
285.657	21.004	858.514	671.089
286.672	20.821	857.876	669.828
287.687	21.366	857.466	671.540
288.701	21.297	857.144	670.967
289.716	21.137	856.217	669.567
290.730	21.164	855.344	668.927
291.745	20.809	854.473	666.828
292.760	21.104	854.668	668.052
293.774	21.963	855.061	671.588
294.789	22.418	854.646	672.944
295.803	22.399	854.119	672.397
296.818	22.437	853.117	671.694
297.833	21.871	852.353	668.875
298.847	21.862	851.684	668.254
299.862	22.111	851.717	669.172
300.876	22.307	851.399	669.609
301.891	22.202	850.478	668.425
302.906	21.754	849.407	665.821
303.920	21.805	849.576	666.088
304.935	22.198	849.189	667.218
305.949	22.245	848.073	666.463
306.964	22.016	847.417	665.019
307.979	22.159	847.057	665.219
308.993	22.458	846.549	665.891
310.008	22.516	845.863	665.514
311.022	22.045	845.353	663.274
312.037	21.836	845.030	662.174
313.052	21.795	843.753	660.958
314.066	21.049	842.350	656.994
315.081	20.765	841.381	655.112
316.095	21.624	842.082	658.833
317.110	22.055	841.698	660.092
318.125	21.117	840.239	655.371
319.139	20.030	838.991	650.260
320.154	20.073	838.787	650.205
321.168	21.138	838.813	654.164
322.183	21.925	838.594	656.883
323.197	22.050	838.426	657.158
324.212	22.138	838.035	657.125
325.227	22.141	837.427	656.598
326.241	21.914	837.002	655.361
327.256	21.832	836.018	654.225
328.270	21.851	835.580	653.897
329.285	21.628	834.721	652.335
330.300	21.524	833.977	651.312
331.314	21.706	833.807	651.797
332.329	22.148	833.797	653.375
333.343	22.206	832.766	652.726
334.358	22.239	832.613	652.672
335.373	22.315	832.649	652.921
336.387	22.431	832.697	653.331
337.402	22.702	832.190	653.882
338.416	22.358	831.889	652.314
339.431	22.614	831.579	652.960
340.446	22.716	831.502	653.218
341.460	22.650	830.224	651.912
342.475	22.448	829.971	650.909
343.489	22.585	829.863	651.274
344.504	22.940	829.434	652.193
345.519	22.962	829.051	651.914
346.533	22.951	828.792	651.611
347.548	22.925	828.349	651.108
348.562	22.977	827.703	650.736
349.577	22.827	827.100	649.653
350.592	22.830	826.350	649.015
351.606	22.870	825.530	648.462
352.621	22.713	824.762	647.226
353.635	22.680	824.198	646.604
354.650	22.017	822.252	642.597
355.665	21.137	821.022	638.360
356.679	21.609	820.813	639.865
357.694	21.993	820.447	640.927
358.708	21.848	820.264	640.196
359.723	22.329	820.224	641.864
360.738	22.645	819.520	642.409
361.752	22.733	819.014	642.276
362.767	22.937	818.902	642.874
363.781	23.282	818.255	643.562
364.796	23.296	818.044	643.391
365.810	23.304	817.556	642.979
366.825	23.431	817.227	643.123
367.840	23.067	816.444	641.131
368.854	22.521	815.593	638.427
369.869	22.612	815.206	638.399
370.883	22.589	814.743	637.896
371.898	22.446	814.380	637.039
372.913	22.669	813.972	637.467
373.927	22.766	813.542	637.426
374.942	22.935	813.004	637.558
375.956	22.939	813.013	637.523
376.971	23.241	812.431	638.099
377.986	23.395	811.900	638.180
379.000	23.288	811.141	637.140
380.015	22.926	810.972	635.651
381.029	23.109	810.524	635.901
382.044	23.295	809.923	636.042
383.059	23.226	809.242	635.204
384.073	23.386	808.536	635.165
385.088	23.308	807.791	634.245
386.102	23.006	807.465	632.854
387.117	23.111	806.649	632.530
388.132	22.747	805.673	630.410
389.146	22.268	804.787	627.951
390.161	22.607	804.831	629.141
391.175	22.921	804.319	629.803
392.190	22.768	803.484	628.548
393.205	21.364	801.202	621.718
394.219	19.811	799.574	614.886
395.234	19.862	799.733	615.134
396.248	21.662	800.935	622.407
397.263	22.846	801.817	627.247
398.278	22.779	801.013	626.325
399.292	22.744	800.760	625.947
400.307	22.620	800.215	625.023
401.321	22.726	799.724	624.962
402.336	22.995	799.502	625.686
403.350	23.490	799.422	627.319
404.365	23.759	799.403	628.198
405.380	23.982	799.314	628.864
406.394	23.875	798.645	627.902
407.409	23.908	797.885	627.367
408.423	23.860	797.401	626.761
409.438	23.947	797.381	626.997
410.453	24.078	797.057	627.147
411.467	23.901	796.048	625.677
412.482	23.888	796.127	625.636
413.496	24.037	795.211	625.384
414.511	23.940	794.806	624.670
415.526	24.041	794.602	624.811
416.540	23.712	794.402	623.440
417.555	23.614	793.340	622.210
418.569	23.614	792.982	621.873
419.584	23.692	792.298	621.554
420.599	23.497	791.999	620.584
421.613	156.946	1365.401	1797.649
422.628	135.940	1448.954	1797.760
