DTS Sentinel unit serial number:	SN413079Multiplexer serial number:	ORYXHardware model number:	OX4-SRSoftware version number:	ORYX F/W v4.00 Oryx Data Collector v3.7.2.0data status	okinstallation	princeton_trtdifferential loss correction	single-endedforward channel	channel 1reverse channel	N/Adate	2019/09/17time	20:54:35forward acquisition time	60.00reverse acquisition time	0.00gamma	496.2192k internal	0.2332k external	0.2332temperature offset calibration	0.9980default loss term (dB/km)	0.3790temperature slope calibration	1.0000multiplexer offset coefficient	1.0000multiplexer slope coefficient	1.0000fibre end	0.00T internal ref (°C)	28.97T ext. ref 1 (°C)	0.20T ext. ref 2 (°C)	20.42length (m)	temperature (°C)	Stokes	anti-Stokes-747.200	-200.000	-0.060	-0.268
-746.185	-59.796	0.128	0.055
-745.171	47.536	0.135	0.127
-744.156	-20.764	-0.055	-0.034
-743.142	-161.846	-0.239	0.012
-742.127	800.000	0.085	0.341
-741.112	-200.000	0.062	0.294
-740.098	800.000	0.094	0.317
-739.083	8.329	0.133	0.101
-738.069	-200.000	-0.038	0.268
-737.054	32.009	0.084	-0.073
-736.039	-86.426	0.270	0.084
-735.025	78.926	0.098	-0.105
-734.010	-165.574	-0.245	-0.011
-732.996	-200.000	-0.053	-0.380
-731.981	-34.295	-0.049	-0.027
-730.966	416.272	-0.057	0.122
-729.952	800.000	0.036	0.118
-728.937	-200.000	-0.109	-0.490
-727.923	800.000	-0.032	0.139
-726.908	-200.000	-0.001	0.121
-725.894	14.803	0.064	-0.051
-724.879	-79.366	0.172	-0.059
-723.864	302.331	0.090	0.167
-722.850	-49.189	-0.140	0.067
-721.835	-123.923	-0.147	-0.023
-720.821	265.175	-0.215	0.377
-719.806	-34.343	-0.063	-0.034
-718.791	206.530	0.087	-0.135
-717.777	275.229	-0.079	-0.141
-716.762	-25.911	0.113	-0.067
-715.748	-200.000	0.000	-0.163
-714.733	80.678	0.151	-0.163
-713.718	586.690	-0.029	-0.072
-712.704	-70.348	0.125	-0.048
-711.689	-200.000	-0.027	-0.487
-710.675	728.672	-0.088	-0.237
-709.660	-200.000	0.018	-0.115
-708.645	-200.000	-0.020	-0.092
-707.631	-177.231	0.221	-0.006
-706.616	-145.587	-0.265	-0.024
-705.602	-200.000	0.067	0.483
-704.587	-44.792	-0.312	0.156
-703.572	-98.476	0.559	0.144
-702.558	-73.874	0.512	0.187
-701.543	-66.289	-0.292	0.117
-700.529	67.664	0.105	0.108
-699.514	512.788	-0.103	-0.242
-698.499	-35.220	-0.309	0.169
-697.485	-100.389	0.142	0.035
-696.470	185.706	0.130	-0.194
-695.456	-45.210	0.069	0.034
-694.441	-125.597	-0.334	0.051
-693.426	183.789	-0.198	0.294
-692.412	800.000	-0.044	0.169
-691.397	69.705	0.232	0.240
-690.383	800.000	0.092	0.301
-689.368	800.000	0.056	-0.223
-688.354	62.076	0.210	-0.210
-687.339	-59.124	0.255	-0.110
-686.324	-45.405	-0.109	-0.054
-685.310	302.223	-0.068	-0.126
-684.295	-174.932	-0.148	0.004
-683.281	-57.951	-0.213	0.093
-682.266	-200.000	0.007	-0.200
-681.251	-52.653	-0.147	-0.068
-680.237	-129.759	0.167	-0.023
-679.222	-65.764	-0.128	0.051
-678.208	89.391	-0.318	-0.356
-677.193	191.066	-0.119	-0.179
-676.178	50.050	-0.216	-0.204
-675.164	396.823	0.051	0.107
-674.149	-61.516	0.142	-0.060
-673.135	205.027	-0.175	-0.272
-672.120	-200.000	0.008	0.266
-671.105	-200.000	0.005	-0.331
-670.091	-85.422	-0.300	0.094
-669.076	187.249	0.128	-0.191
-668.062	4.662	-0.410	0.302
-667.047	-108.394	-0.181	0.039
-666.032	672.423	0.019	-0.050
-665.018	187.613	0.167	-0.250
-664.003	-46.746	-0.325	0.159
-662.989	800.000	0.132	-0.368
-661.974	346.133	0.142	0.281
-660.959	-186.641	0.095	-0.001
-659.945	-42.375	-0.363	-0.186
-658.930	628.039	-0.045	-0.114
-657.916	-200.000	-0.043	-0.319
-656.901	-166.003	-0.145	0.006
-655.886	-143.047	-0.230	-0.022
-654.872	800.000	0.049	-0.154
-653.857	-200.000	-0.012	-0.086
-652.843	140.426	-0.276	-0.365
-651.828	-175.660	-0.341	0.009
-650.814	140.877	-0.054	0.071
-649.799	-131.295	0.164	-0.022
-648.784	418.860	0.069	0.149
-647.770	-105.708	-0.221	0.050
-646.755	-198.212	-0.155	-0.001
-645.741	363.094	-0.051	-0.103
-644.726	39.193	0.272	0.244
-643.711	-200.000	-0.038	0.305
-642.697	-126.465	0.121	0.018
-641.682	643.367	-0.099	-0.253
-640.668	7.411	-0.161	-0.120
-639.653	98.569	0.083	-0.096
-638.638	-24.590	0.319	0.190
-637.624	-110.184	0.149	-0.031
-636.609	-132.863	0.109	-0.014
-635.595	489.914	-0.103	0.236
-634.580	4.032	0.145	0.106
-633.565	-115.417	-0.331	-0.062
-632.551	-181.762	-0.292	0.006
-631.536	-22.576	0.123	0.074
-630.522	63.690	-0.132	-0.133
-629.507	-200.000	0.021	-0.337
-628.492	800.000	-0.084	-0.314
-627.478	-200.000	0.018	0.100
-626.463	-123.642	0.154	-0.025
-625.449	-200.000	-0.036	-0.274
-624.434	12.291	-0.460	-0.355
-623.419	48.809	-0.042	0.039
-622.405	237.835	0.147	0.244
-621.390	-129.419	-0.053	-0.007
-620.376	-200.000	-0.060	0.315
-619.361	-88.041	-0.186	-0.056
-618.346	800.000	0.041	0.172
-617.332	800.000	-0.089	0.314
-616.317	227.496	-0.039	0.063
-615.303	800.000	0.029	-0.128
-614.288	-112.579	0.242	-0.048
-613.273	800.000	0.064	-0.272
-612.259	182.689	-0.128	-0.189
-611.244	159.548	-0.189	0.263
-610.230	800.000	-0.117	0.364
-609.215	-200.000	-0.063	0.316
-608.201	554.736	0.133	0.320
-607.186	-86.983	-0.330	0.101
-606.171	673.982	0.041	-0.107
-605.157	-122.609	-0.264	-0.043
-604.142	677.807	0.033	-0.085
-603.128	97.769	-0.158	0.182
-602.113	58.191	-0.241	-0.236
-601.098	499.912	-0.093	-0.214
-600.084	17.658	0.215	0.171
-599.069	200.356	-0.094	0.144
-598.055	277.026	0.153	0.271
-597.040	113.511	0.050	-0.061
-596.025	147.882	0.114	-0.154
-595.011	-200.000	-0.002	-0.109
-593.996	-141.029	0.122	-0.012
-592.982	26.753	-0.107	0.090
-591.967	176.789	0.144	-0.209
-590.952	800.000	0.127	0.390
-589.938	-72.880	-0.143	-0.053
-588.923	-117.577	-0.355	-0.064
-587.909	8.639	-0.144	-0.108
-586.894	299.931	0.038	0.070
-585.879	-112.433	0.064	0.013
-584.865	-46.525	0.120	0.059
-583.850	-11.537	0.084	0.056
-582.836	24.191	-0.170	0.140
-581.821	-197.192	0.044	0.000
-580.806	76.789	0.094	0.100
-579.792	-72.304	-0.165	0.061
-578.777	-200.000	0.017	-0.126
-577.763	-43.275	0.129	0.065
-576.748	-17.754	0.276	0.173
-575.733	570.538	0.075	0.182
-574.719	-200.000	0.012	-0.136
-573.704	486.343	0.083	0.189
-572.690	378.426	0.022	0.045
-571.675	198.389	-0.154	0.235
-570.661	-112.209	0.208	0.042
-569.646	719.663	0.213	-0.565
-568.631	-200.000	0.012	-0.085
-567.617	-200.000	0.003	-0.067
-566.602	241.845	0.137	-0.229
-565.588	47.759	-0.220	0.205
-564.573	-25.780	0.202	-0.119
-563.558	800.000	-0.047	0.137
-562.544	-63.558	-0.291	0.120
-561.529	99.139	-0.195	-0.225
-560.515	60.469	0.288	-0.285
-559.500	-108.478	-0.259	-0.056
-558.485	-82.972	-0.133	-0.043
-557.471	-15.741	-0.271	0.173
-556.456	-52.250	-0.357	0.165
-555.442	-200.000	0.018	0.386
-554.427	-55.425	-0.416	-0.186
-553.412	-161.782	-0.111	-0.006
-552.398	-5.642	0.188	-0.128
-551.383	-84.259	-0.225	-0.071
-550.369	-51.128	-0.209	0.098
-549.354	60.583	0.157	-0.155
-548.339	196.609	0.121	0.184
-547.325	282.300	0.133	0.238
-546.310	800.000	-0.072	-0.224
-545.296	-200.000	-0.034	0.191
-544.281	217.900	0.184	0.293
-543.266	-155.890	0.240	0.015
-542.252	-200.000	-0.048	-0.304
-541.237	-145.154	0.239	-0.022
-540.223	-200.000	0.003	0.144
-539.208	800.000	0.074	-0.246
-538.193	118.213	0.242	0.298
-537.179	-119.200	-0.048	0.008
-536.164	203.776	-0.179	-0.276
-535.150	-10.088	0.394	-0.261
-534.135	-200.000	0.025	-0.276
-533.121	-130.021	0.098	0.013
-532.106	-39.396	-0.162	-0.085
-531.091	205.982	-0.111	-0.172
-530.077	44.450	-0.200	0.184
-529.062	-108.406	0.257	0.055
-528.048	487.085	-0.111	-0.252
-527.033	-154.328	0.146	-0.010
-526.018	-92.463	-0.390	0.109
-525.004	722.196	-0.040	-0.107
-523.989	-156.777	0.065	-0.004
-522.975	-200.000	-0.066	0.432
-521.960	58.700	0.172	-0.169
-520.945	-49.886	-0.111	-0.052
-519.931	-61.105	0.269	-0.113
-518.916	-86.778	0.152	-0.046
-517.902	-145.994	0.153	0.014
-516.887	800.000	-0.089	-0.316
-515.872	65.126	-0.152	-0.154
-514.858	-109.544	0.421	0.089
-513.843	-200.000	0.065	0.310
-512.829	800.000	0.038	0.114
-511.814	76.289	-0.136	0.143
-510.799	217.885	0.084	-0.133
-509.785	-179.711	0.343	-0.007
-508.770	-47.394	-0.167	0.081
-507.756	-67.569	0.231	0.090
-506.741	2.527	0.286	-0.206
-505.726	-200.000	-0.020	-0.352
-504.712	-188.763	0.303	0.004
-503.697	-71.829	0.242	0.090
-502.683	136.722	-0.225	-0.293
-501.668	-139.671	-0.340	0.036
-500.653	40.607	-0.159	0.142
-499.639	-200.000	0.006	0.136
-498.624	492.568	0.080	-0.183
-497.610	46.392	-0.353	0.326
-496.595	-96.381	-0.119	-0.031
-495.581	-100.345	-0.225	-0.056
-494.566	-92.110	-0.126	0.036
-493.551	-200.000	-0.084	0.388
-492.537	75.896	0.036	0.038
-491.522	58.282	0.155	0.152
-490.508	87.537	-0.080	-0.088
-489.493	17.790	0.132	-0.105
-488.478	-105.708	-0.267	0.060
-487.464	136.050	-0.128	-0.166
-486.449	82.505	0.062	0.067
-485.435	463.694	-0.124	0.276
-484.420	-43.724	-0.226	-0.114
-483.405	-74.447	-0.266	-0.096
-482.391	506.842	0.070	-0.161
-481.376	255.173	0.402	-0.686
-480.362	-22.794	0.252	0.151
-479.347	800.000	-0.113	-0.383
-478.332	587.533	0.082	-0.200
-477.318	-147.599	0.149	0.012
-476.303	-99.403	0.071	-0.018
-475.289	-118.629	-0.349	0.061
-474.274	800.000	-0.081	0.350
-473.259	141.525	-0.116	-0.153
-472.245	-64.799	0.047	-0.019
-471.230	219.663	0.143	-0.228
-470.216	56.207	-0.204	-0.197
-469.201	36.965	-0.182	0.160
-468.186	301.853	-0.047	0.087
-467.172	-8.168	0.139	0.093
-466.157	13.353	-0.117	-0.090
-465.143	164.387	0.186	0.260
-464.128	-200.000	0.030	-0.166
-463.113	85.054	-0.034	-0.037
-462.099	-200.000	0.009	0.148
-461.084	3.885	0.035	-0.025
-460.070	239.123	-0.100	0.165
-459.055	-114.799	-0.067	0.013
-458.040	45.811	0.220	0.202
-457.026	-144.238	-0.397	-0.037
-456.011	159.078	-0.192	-0.266
-454.997	101.490	0.154	0.178
-453.982	-112.803	-0.231	0.046
-452.968	474.676	-0.025	0.055
-451.953	-28.709	-0.263	0.150
-450.938	800.000	-0.058	-0.177
-449.924	190.855	0.063	0.095
-448.909	-191.782	0.320	0.003
-447.895	223.987	0.132	0.212
-446.880	230.161	-0.081	0.132
-445.865	800.000	-0.058	0.175
-444.851	52.335	-0.090	-0.085
-443.836	16.784	0.127	-0.100
-442.822	-82.243	0.209	0.068
-441.807	-200.000	-0.018	0.170
-440.792	-200.000	0.006	0.086
-439.778	-200.000	-0.020	0.210
-438.763	304.457	-0.079	-0.145
-437.749	-50.592	-0.151	0.071
-436.734	260.155	-0.249	0.428
-435.719	113.857	-0.167	-0.202
-434.705	-42.963	0.111	0.056
-433.690	-200.000	0.031	0.163
-432.676	-148.834	0.458	-0.037
-431.661	146.677	0.095	-0.127
-430.646	800.000	-0.050	-0.197
-429.632	-87.284	-0.286	-0.086
-428.617	-118.136	0.114	-0.020
-427.603	800.000	-0.063	0.186
-426.588	80.729	-0.263	0.282
-425.573	-129.303	0.038	-0.005
-424.559	-200.000	-0.001	0.139
-423.544	259.032	0.208	0.356
-422.530	-200.000	-0.037	-0.175
-421.515	-37.645	0.222	-0.117
-420.500	800.000	0.094	-0.309
-419.486	154.885	0.286	0.391
-418.471	-141.353	-0.069	-0.007
-417.457	-200.000	0.008	0.146
-416.442	-147.993	0.151	0.012
-415.428	172.666	0.156	0.223
-414.413	800.000	-0.047	0.204
-413.398	-200.000	0.053	-0.266
-412.384	0.869	-0.262	0.187
-411.369	395.471	0.148	0.307
-410.355	-31.915	-0.357	-0.198
-409.340	240.968	0.020	0.034
-408.325	561.215	-0.087	0.208
-407.311	-200.000	0.003	-0.257
-406.296	-60.460	0.275	-0.116
-405.282	-49.789	0.096	-0.045
-404.267	91.386	0.171	-0.190
-403.252	-18.780	0.339	0.210
-402.238	-40.134	-0.183	0.095
-401.223	-124.382	0.324	0.050
-400.209	-47.399	-0.172	0.083
-399.194	800.000	-0.050	-0.175
-398.179	-136.293	-0.215	-0.025
-397.165	255.541	0.020	-0.034
-396.150	560.458	0.095	-0.227
-395.136	91.978	-0.200	0.224
-394.121	28.894	0.170	-0.143
-393.106	175.353	-0.094	-0.136
-392.092	-49.165	-0.166	-0.079
-391.077	800.000	0.058	-0.171
-390.063	-104.740	0.270	-0.062
-389.048	-200.000	0.047	-0.306
-388.033	329.971	-0.166	-0.316
-387.019	29.010	0.151	-0.127
-386.004	119.617	0.272	0.335
-384.990	551.421	0.058	-0.139
-383.975	-200.000	0.012	0.142
-382.960	0.677	0.124	0.088
-381.946	125.559	0.214	-0.268
-380.931	-70.299	-0.158	-0.059
-379.917	-75.622	0.379	0.133
-378.902	513.727	-0.124	-0.287
-377.888	-38.839	0.231	0.121
-376.873	171.044	-0.052	0.075
-375.858	-8.227	0.194	-0.129
-374.844	800.000	0.029	0.109
-373.829	274.068	0.164	0.288
-372.815	-105.671	-0.268	0.060
-371.800	104.421	-0.203	0.237
-370.785	800.000	0.022	-0.071
-369.771	603.978	-0.077	-0.189
-368.756	199.212	-0.070	-0.107
-367.742	53.971	-0.171	-0.163
-366.727	-119.017	0.109	0.019
-365.712	260.881	0.284	0.487
-364.698	800.000	-0.045	-0.139
-363.683	-144.049	0.074	0.007
-362.669	-83.240	0.397	0.126
-361.654	-16.963	0.121	-0.076
-360.639	-64.071	0.096	0.039
-359.625	800.000	-0.059	-0.196
-358.610	13.986	-0.136	-0.105
-357.596	-200.000	-0.036	-0.182
-356.581	164.159	0.268	-0.374
-355.566	208.933	0.142	0.220
-354.552	-30.986	0.188	0.105
-353.537	-101.555	0.476	-0.115
-352.523	443.412	0.144	0.312
-351.508	123.492	-0.179	0.222
-350.493	-25.758	0.045	0.026
-349.479	16.411	0.174	0.136
-348.464	-25.424	-0.112	0.065
-347.450	-200.000	0.019	-0.083
-346.435	579.610	0.077	-0.186
-345.420	-10.301	-0.158	0.104
-344.406	-119.927	-0.334	0.057
-343.391	-116.481	0.289	0.053
-342.377	800.000	-0.118	0.387
-341.362	-73.962	-0.358	-0.129
-340.348	566.732	0.141	-0.338
-339.333	76.843	0.167	-0.175
-338.318	242.741	-0.138	0.228
-337.304	800.000	0.049	0.136
-336.289	-8.321	-0.214	-0.143
-335.275	-89.854	-0.110	0.032
-334.260	-67.076	-0.152	0.060
-333.245	6.416	-0.227	-0.167
-332.231	17.920	-0.161	-0.127
-331.216	45.608	-0.319	-0.292
-330.202	-10.207	0.049	-0.032
-329.187	-85.222	0.180	0.056
-328.172	-200.000	0.020	-0.199
-327.158	-42.036	-0.131	-0.066
-326.143	-72.243	0.074	0.027
-325.129	115.022	-0.124	-0.149
-324.114	45.019	0.099	-0.090
-323.099	2.167	0.132	0.094
-322.085	800.000	0.031	-0.091
-321.070	-92.322	0.183	-0.051
-320.056	78.977	-0.131	-0.138
-319.041	-80.812	0.122	-0.040
-318.026	800.000	-0.077	-0.250
-317.012	-200.000	-0.041	0.277
-315.997	800.000	-0.115	0.407
-314.983	800.000	-0.054	0.169
-313.968	153.428	0.111	-0.150
-312.953	47.013	-0.297	-0.273
-311.939	-49.728	0.257	0.121
-310.924	-35.311	0.278	-0.150
-309.910	40.806	0.283	0.253
-308.895	300.808	-0.128	0.233
-307.880	800.000	0.139	0.414
-306.866	-1.852	0.099	-0.069
-305.851	73.979	-0.136	-0.141
-304.837	-30.981	-0.257	0.144
-303.822	600.686	0.070	-0.172
-302.807	-200.000	0.017	-0.142
-301.793	270.217	0.111	-0.194
-300.778	-101.849	0.184	-0.044
-299.764	-78.451	0.143	-0.048
-298.749	-59.959	0.377	0.159
-297.735	-70.381	0.083	-0.031
-296.720	-200.000	0.007	0.115
-295.705	-200.000	-0.003	-0.108
-294.691	-29.512	0.171	0.097
-293.676	17.801	-0.147	0.116
-292.662	-200.000	0.002	0.196
-291.647	-41.766	-0.503	-0.255
-290.632	55.823	-0.104	-0.099
-289.618	73.662	0.245	-0.253
-288.603	41.787	0.122	-0.109
-287.589	3.028	-0.471	-0.338
-286.574	-200.000	0.036	-0.203
-285.559	-37.088	-0.167	-0.088
-284.545	-158.935	-0.114	0.006
-283.530	-143.641	-0.315	-0.030
-282.516	-64.184	-0.151	-0.061
-281.501	-59.415	0.062	0.026
-280.486	-77.504	-0.027	0.009
-279.472	57.285	-0.095	-0.091
-278.457	-200.000	-0.015	0.097
-277.443	-200.000	0.014	-0.096
-276.428	-200.000	-0.045	-0.199
-275.413	800.000	0.024	0.096
-274.399	4.196	-0.019	-0.014
-273.384	336.012	-0.048	0.092
-272.370	-34.159	0.316	-0.171
-271.355	-3.848	-0.423	0.290
-270.340	-94.097	0.257	0.070
-269.326	48.224	0.290	0.268
-268.311	101.912	-0.267	0.308
-267.297	-200.000	-0.035	0.300
-266.282	659.692	-0.072	0.183
-265.267	-77.684	-0.226	0.077
-264.253	-53.485	0.319	-0.144
-263.238	800.000	-0.034	-0.141
-262.224	61.098	-0.090	0.088
-261.209	-115.718	0.133	0.025
-260.195	-89.802	0.540	-0.156
-259.180	147.512	-0.270	-0.358
-258.165	-121.493	0.237	-0.039
-257.151	-200.000	-0.025	-0.167
-256.136	-200.000	0.008	0.072
-255.122	-48.228	0.286	0.136
-254.107	-2.112	0.142	0.099
-253.092	-139.271	-0.191	0.020
-252.078	-200.000	-0.018	-0.372
-251.063	-35.995	0.203	-0.108
-250.049	391.204	-0.053	-0.110
-249.034	666.946	-0.056	-0.144
-248.019	13.402	0.129	-0.099
-247.005	61.767	0.083	-0.081
-245.990	800.000	-0.043	0.150
-244.976	-163.503	0.222	-0.010
-243.961	-200.000	-0.026	0.259
-242.946	224.042	0.080	-0.128
-241.932	-162.660	-0.154	0.007
-240.917	800.000	-0.078	-0.310
-239.903	-56.191	0.288	-0.126
-238.888	-167.480	-0.215	-0.008
-237.873	51.676	-0.197	-0.184
-236.859	800.000	-0.017	0.049
-235.844	-55.467	0.240	-0.106
-234.830	-200.000	0.011	-0.097
-233.815	-200.000	0.015	-0.271
-232.800	79.835	0.131	-0.139
-231.786	-40.776	-0.123	-0.063
-230.771	-127.440	0.140	0.020
-229.757	-97.388	-0.097	-0.025
-228.742	-104.702	-0.237	-0.054
-227.727	50.992	0.173	0.162
-226.713	45.182	-0.200	0.182
-225.698	531.257	-0.079	0.184
-224.684	-200.000	-0.034	-0.258
-223.669	-19.067	0.145	0.089
-222.655	-119.644	-0.375	0.064
-221.640	220.889	0.187	-0.296
-220.625	-20.964	-0.178	0.107
-219.611	-74.216	0.411	0.146
-218.596	-42.094	-0.110	-0.056
-217.582	-111.980	0.269	-0.053
-216.567	133.963	-0.029	0.037
-215.552	-10.635	0.182	-0.118
-214.538	-114.121	-0.159	-0.030
-213.523	-200.000	0.001	0.109
-212.509	-200.000	-0.002	0.116
-211.494	-164.272	0.141	-0.006
-210.479	-200.000	-0.019	-0.097
-209.465	-112.926	-0.260	-0.051
-208.450	-65.393	-0.329	0.130
-207.436	628.385	-0.023	-0.058
-206.421	-9.084	0.323	-0.213
-205.406	9.893	0.219	-0.164
-204.392	87.623	-0.220	-0.240
-203.377	394.440	-0.070	0.144
-202.363	-166.281	-0.172	-0.007
-201.348	-200.000	-0.033	0.283
-200.333	501.183	0.130	0.297
-199.319	-200.000	-0.054	0.249
-198.304	-200.000	-0.063	0.390
-197.290	-70.744	-0.161	0.060
-196.275	65.072	0.163	-0.162
-195.260	-29.765	-0.165	-0.092
-194.246	-80.497	-0.247	0.081
-193.231	-32.700	0.201	0.110
-192.217	-129.693	0.137	-0.019
-191.202	93.746	0.080	0.090
-190.187	147.867	0.095	0.126
-189.173	800.000	-0.053	0.181
-188.158	-200.000	0.014	-0.328
-187.144	800.000	0.068	0.268
-186.129	-200.000	-0.033	0.160
-185.114	-104.752	-0.163	-0.037
-184.100	-120.678	-0.071	0.012
-183.085	-97.545	-0.070	-0.018
-182.071	800.000	0.059	-0.198
-181.056	298.070	0.031	-0.056
-180.042	-57.815	0.473	-0.203
-179.027	-200.000	-0.018	-0.276
-178.012	800.000	-0.033	0.136
-176.998	-77.252	-0.267	-0.091
-175.983	183.373	0.120	0.175
-174.969	800.000	0.062	0.194
-173.954	46.341	-0.020	0.019
-172.939	-178.558	-0.367	0.008
-171.925	-101.224	-0.088	-0.021
-170.910	18.765	-0.140	-0.110
-169.896	-147.540	0.147	-0.012
-168.881	4.769	-0.066	-0.047
-167.866	191.570	-0.006	0.008
-166.852	109.299	0.144	0.169
-165.837	-18.904	-0.192	0.118
-164.823	-42.928	0.084	-0.042
-163.808	-32.305	-0.414	0.227
-162.793	-200.000	-0.047	-0.208
-161.779	-7.005	0.124	-0.083
-160.764	534.926	-0.033	0.078
-159.750	95.393	0.079	0.088
-158.735	429.050	-0.147	0.312
-157.720	602.983	-0.097	-0.237
-156.706	-122.614	-0.324	0.052
-155.691	-66.637	0.315	-0.123
-154.677	4.361	-0.325	-0.234
-153.662	-200.000	0.001	0.185
-152.647	45.616	0.227	-0.206
-151.633	-200.000	0.035	0.174
-150.618	-200.000	0.003	-0.070
-149.604	90.609	0.118	0.130
-148.589	-99.487	-0.401	0.099
-147.574	-102.820	0.294	-0.069
-146.560	516.509	0.063	0.145
-145.545	-168.616	-0.071	0.003
-144.531	-180.799	0.178	-0.004
-143.516	28.811	0.268	0.223
-142.502	70.459	-0.386	0.393
-141.487	800.000	0.017	0.053
-140.472	632.870	-0.103	0.257
-139.458	299.903	0.176	0.319
-138.443	552.984	-0.113	-0.266
-137.429	800.000	0.104	0.305
-136.414	121.327	-0.173	-0.212
-135.399	-72.150	0.234	-0.085
-134.385	190.473	-0.250	-0.368
-133.370	48.706	-0.144	-0.133
-132.356	22.042	-0.037	0.030
-131.341	800.000	0.091	0.254
-130.326	800.000	-0.031	-0.098
-129.312	137.106	-0.092	0.118
-128.297	-63.142	-0.299	0.121
-127.283	507.806	-0.090	0.205
-126.268	-104.069	-0.140	0.032
-125.253	-200.000	0.005	0.307
-124.239	-200.000	0.045	0.198
-123.224	-83.407	-0.418	-0.132
-122.210	-75.883	0.408	-0.142
-121.195	-200.000	0.024	0.163
-120.180	800.000	-0.083	-0.264
-119.166	115.509	0.101	-0.121
-118.151	-103.570	0.044	0.010
-117.137	-16.901	-0.158	0.098
-116.122	-200.000	-0.030	-0.172
-115.107	-200.000	0.068	0.301
-114.093	29.391	0.227	-0.189
-113.078	-104.523	-0.287	0.065
-112.064	-200.000	0.011	-0.229
-111.049	-26.664	0.102	0.058
-110.034	271.164	0.216	0.373
-109.020	662.152	-0.048	-0.122
-108.005	-123.673	0.245	0.038
-106.991	-32.882	-0.255	0.139
-105.976	-76.654	0.343	-0.118
-104.962	537.785	0.071	-0.166
-103.947	94.006	-0.128	0.142
-102.932	-157.081	-0.097	-0.006
-101.918	-200.000	0.016	0.403
-100.903	-0.790	0.195	-0.135
-99.889	-103.534	-0.422	-0.097
-98.874	-5.310	-0.134	0.090
-97.859	-55.033	-0.280	0.124
-96.845	48.453	0.290	0.266
-95.830	800.000	-0.047	-0.132
-94.816	-92.774	0.292	0.080
-93.801	800.000	0.098	-0.410
-92.786	-200.000	-0.010	0.144
-91.772	-59.012	-0.037	0.016
-90.757	415.063	-0.057	-0.118
-89.743	-124.017	-0.293	-0.045
-88.728	-200.000	-0.010	0.117
-87.713	603.176	-0.050	-0.122
-86.699	259.052	-0.169	-0.286
-85.684	-107.701	0.250	-0.053
-84.670	-51.674	-0.196	0.089
-83.655	210.838	0.010	-0.016
-82.640	-137.265	-0.212	0.024
-81.626	-200.000	0.004	-0.030
-80.611	-200.000	-0.063	-0.000
-79.597	-69.045	0.262	0.099
-78.582	299.528	-0.084	0.152
-77.567	485.775	-0.167	0.374
-76.553	81.686	-0.150	-0.159
-75.538	200.212	0.251	0.378
-74.524	159.113	0.083	-0.113
-73.509	-200.000	0.018	0.191
-72.494	110.035	-0.164	0.193
-71.480	-85.151	-0.117	-0.036
-70.465	553.129	0.103	0.243
-69.451	-83.885	-0.306	-0.096
-68.436	65.847	-0.153	0.152
-67.422	-60.974	0.025	0.011
-66.407	-200.000	0.022	0.228
-65.392	77.347	-0.233	-0.243
-64.378	-200.000	0.003	0.177
-63.363	20.282	0.104	-0.082
-62.349	19.508	0.343	0.270
-61.334	-32.085	-1.086	-0.595
-60.319	59.249	0.616	0.594
-59.305	800.000	-0.376	-1.112
-58.290	607.774	0.592	1.446
-57.276	800.000	0.626	1.724
-56.261	-200.000	110.359	670.360
-55.246	520.786	1466.860	3368.284
-54.232	154.414	2622.280	3524.447
-53.217	108.212	2132.051	2489.596
-52.203	40.295	1596.795	1406.430
-51.188	32.282	1346.864	1137.993
-50.173	29.481	1308.661	1089.167
-49.159	59.247	1363.148	1313.896
-48.144	57.979	1378.148	1320.733
-47.130	32.681	1334.807	1130.016
-46.115	29.133	1317.406	1094.201
-45.100	28.896	1312.537	1088.715
-44.086	28.825	1309.880	1086.046
-43.071	28.735	1307.923	1083.850
-42.057	28.723	1305.956	1082.107
-41.042	28.758	1304.526	1081.084
-40.027	28.891	1302.438	1080.089
-39.013	28.912	1300.496	1078.561
-37.998	28.829	1298.839	1076.658
-36.984	28.920	1297.431	1075.983
-35.969	28.953	1295.254	1074.327
-34.954	28.963	1293.495	1072.883
-33.940	29.057	1292.396	1072.474
-32.925	28.942	1290.994	1070.602
-31.911	29.085	1289.590	1070.227
-30.896	29.056	1288.439	1069.056
-29.881	29.025	1287.037	1067.671
-28.867	29.070	1285.236	1066.396
-27.852	29.091	1283.972	1065.428
-26.838	29.110	1282.375	1064.173
-25.823	29.030	1281.897	1063.272
-24.809	29.057	1280.343	1062.092
-23.794	28.956	1279.161	1060.488
-22.779	29.038	1277.538	1059.572
-21.765	29.075	1276.268	1058.689
-20.750	29.118	1274.404	1057.348
-19.736	28.970	1273.395	1055.620
-18.721	28.975	1272.239	1054.652
-17.706	28.988	1271.347	1053.944
-16.692	28.928	1270.196	1052.603
-15.677	28.919	1269.292	1051.761
-14.663	28.966	1268.374	1051.230
-13.648	28.954	1266.905	1049.898
-12.633	28.900	1266.264	1049.020
-11.619	28.839	1265.302	1047.836
-10.604	29.069	1263.905	1047.943
-9.590	28.916	1263.313	1046.542
-8.575	28.856	1262.472	1045.459
-7.560	28.928	1261.227	1044.796
-6.546	28.880	1260.667	1044.021
-5.531	28.793	1260.490	1043.337
-4.517	28.910	1259.101	1042.813
-3.502	28.802	1258.547	1041.699
-2.487	28.821	1257.593	1040.974
-1.473	28.678	1253.017	1036.336
-0.458	26.620	1236.750	1011.364
0.556	20.592	1217.374	965.672
1.571	16.036	1221.409	943.345
2.586	14.802	1235.868	947.437
3.600	14.506	1224.366	936.869
4.615	10.713	1154.191	862.975
5.629	3.835	1080.971	773.824
6.644	0.511	1062.203	743.956
7.659	0.127	1060.258	740.638
8.673	0.097	1059.397	739.824
9.688	0.067	1058.357	738.886
10.702	0.266	1055.972	738.133
11.717	4.317	1061.006	761.497
12.731	11.739	1070.811	805.119
13.746	16.181	1076.070	830.927
14.761	16.862	1076.377	834.441
15.775	16.049	1074.766	829.120
16.790	15.069	1072.560	822.533
17.804	14.380	1070.934	817.835
18.819	14.064	1070.094	815.567
19.834	13.761	1069.070	813.230
20.848	13.565	1068.202	811.541
21.863	13.275	1067.130	809.236
22.877	13.171	1066.707	808.333
23.892	13.118	1065.706	807.242
24.907	13.152	1064.845	806.688
25.921	13.270	1064.223	806.717
26.936	13.333	1063.237	806.210
27.950	13.201	1062.284	804.770
28.965	13.225	1061.347	804.106
29.980	13.216	1060.194	803.119
30.994	13.348	1058.712	802.566
32.009	13.386	1058.019	802.150
33.023	13.311	1057.390	801.243
34.038	13.344	1056.256	800.472
35.053	13.402	1055.085	799.791
36.067	13.301	1054.358	798.684
37.082	13.295	1053.623	798.028
38.096	13.274	1053.029	797.406
39.111	13.369	1051.880	796.924
40.126	13.212	1050.962	795.399
41.140	13.031	1050.075	793.789
42.155	13.083	1048.615	792.866
43.169	13.195	1047.628	792.585
44.184	13.089	1046.496	791.153
45.199	13.037	1046.086	790.522
46.213	13.194	1044.322	789.870
47.228	13.110	1043.622	788.871
48.242	13.184	1042.219	788.089
49.257	13.079	1041.679	787.112
50.271	13.216	1040.805	787.037
51.286	13.316	1039.309	786.309
52.301	13.252	1038.756	785.519
53.315	13.215	1037.377	784.228
54.330	13.188	1036.276	783.201
55.344	13.193	1035.302	782.418
56.359	13.211	1034.593	781.899
57.374	13.052	1033.949	780.593
58.388	13.065	1033.153	779.981
59.403	13.105	1032.025	779.252
60.417	13.088	1031.058	778.371
61.432	13.142	1030.022	777.776
62.447	13.066	1029.754	777.144
63.461	13.017	1028.945	776.236
64.476	13.069	1028.113	775.785
65.490	12.965	1027.457	774.734
66.505	13.072	1026.289	774.283
67.520	13.244	1025.519	774.442
68.534	13.096	1025.331	773.537
69.549	13.159	1024.393	773.056
70.563	13.097	1023.677	772.156
71.578	13.102	1022.810	771.460
72.593	13.016	1022.336	770.633
73.607	12.979	1021.736	769.939
74.622	13.072	1020.638	769.475
75.636	13.027	1020.023	768.734
76.651	12.991	1019.094	767.798
77.666	13.145	1018.544	768.034
78.680	13.037	1017.963	767.024
79.695	13.023	1017.349	766.431
80.709	13.246	1016.154	766.494
81.724	13.203	1015.782	765.949
82.739	13.119	1015.289	765.121
83.753	13.288	1014.332	765.114
84.768	13.342	1013.398	764.591
85.782	13.271	1012.731	763.690
86.797	13.224	1012.008	762.862
87.812	13.295	1010.879	762.270
88.826	13.132	1010.001	760.789
89.841	13.271	1009.131	760.707
90.855	13.361	1008.115	760.288
91.870	13.436	1006.955	759.687
92.884	13.309	1006.552	758.738
93.899	13.354	1005.880	758.367
94.914	13.372	1005.014	757.733
95.928	13.477	1004.167	757.506
96.943	13.289	1003.364	755.975
97.957	13.347	1002.141	755.250
98.972	13.368	1001.633	754.896
99.987	13.392	1000.444	754.043
101.001	13.230	999.700	752.679
102.016	13.328	998.572	752.209
103.030	13.446	997.825	752.116
104.045	13.429	996.999	751.348
105.060	13.379	995.763	750.123
106.074	13.368	995.018	749.446
107.089	13.197	994.129	747.935
108.103	13.235	993.217	747.357
109.118	13.118	992.468	746.196
110.133	13.149	991.764	745.742
111.147	13.171	990.886	745.113
112.162	13.137	990.050	744.265
113.176	13.268	989.221	744.167
114.191	13.293	988.603	743.751
115.206	13.300	987.785	743.101
116.220	13.303	986.591	742.149
117.235	13.259	986.074	741.496
118.249	13.155	985.175	740.289
119.264	13.285	984.155	740.041
120.279	13.251	983.666	739.457
121.293	13.141	982.658	738.139
122.308	13.258	981.704	737.878
123.322	13.270	980.758	737.156
124.337	13.167	979.866	735.961
125.352	13.243	978.641	735.315
126.366	13.173	977.333	733.956
127.381	13.174	976.744	733.455
128.395	13.274	975.567	732.950
129.410	13.255	974.859	732.266
130.424	13.232	974.004	731.457
131.439	13.280	972.985	730.843
132.454	13.399	972.154	730.676
133.468	13.276	971.597	729.651
134.483	13.384	970.764	729.436
135.497	13.356	969.945	728.635
136.512	13.245	969.274	727.578
137.527	13.373	968.381	727.407
138.541	13.256	967.874	726.447
139.556	13.338	966.714	725.873
140.570	13.470	965.896	725.773
141.585	13.447	965.076	724.990
142.600	13.544	964.044	724.574
143.614	13.417	963.619	723.638
144.629	13.426	962.652	722.884
145.643	13.454	961.991	722.445
146.658	13.291	961.102	721.005
147.673	13.282	960.522	720.466
148.687	13.448	959.017	719.999
149.702	13.387	958.173	719.036
150.716	13.396	957.844	718.764
151.731	13.291	957.455	717.952
152.746	13.397	956.466	717.607
153.760	13.410	955.871	717.152
154.775	13.516	955.429	717.215
155.789	13.502	954.691	716.539
156.804	13.576	953.617	715.988
157.819	13.498	953.656	715.616
158.833	13.571	952.535	715.027
159.848	13.631	951.650	714.559
160.862	13.493	950.812	713.273
161.877	13.474	949.692	712.288
162.892	13.567	949.007	712.111
163.906	13.511	948.044	711.084
164.921	13.462	947.266	710.227
165.935	13.633	946.006	709.952
166.950	13.678	945.152	709.442
167.964	13.572	944.699	708.585
168.979	13.481	943.989	707.601
169.994	13.560	942.967	707.111
171.008	13.663	942.349	707.023
172.023	13.552	942.002	706.226
173.037	13.583	941.065	705.594
174.052	13.669	940.249	705.287
175.067	13.579	939.614	704.364
176.081	13.671	938.858	704.127
177.096	13.670	938.279	703.627
178.110	13.688	937.878	703.339
179.125	13.523	937.468	702.271
180.140	13.608	936.818	702.082
181.154	13.793	936.233	702.364
182.169	13.658	935.836	701.432
183.183	13.855	935.170	701.704
184.198	13.936	933.990	701.097
185.213	13.834	934.123	700.705
186.227	13.860	933.054	699.950
187.242	13.910	932.426	699.629
188.256	14.006	931.754	699.466
189.271	13.850	930.852	698.072
190.286	13.705	930.407	697.066
191.300	13.616	929.857	696.220
192.315	13.630	928.959	695.544
193.329	13.650	928.149	694.960
194.344	13.808	927.362	694.969
195.359	13.858	926.933	694.796
196.373	13.655	926.596	693.635
197.388	13.922	926.389	694.534
198.402	13.998	925.375	694.030
199.417	14.113	924.529	693.814
200.432	14.073	924.431	693.510
201.446	14.087	923.830	693.059
202.461	14.163	923.219	692.854
203.475	14.299	922.193	692.589
204.490	14.102	922.095	691.636
205.504	14.045	921.274	690.721
206.519	14.118	920.118	690.095
207.534	14.029	919.503	689.203
208.548	14.043	918.965	688.798
209.563	14.097	918.752	688.803
210.577	14.155	917.901	688.344
211.592	14.296	916.484	687.802
212.607	14.287	915.975	687.320
213.621	14.195	915.290	686.366
214.636	14.211	914.562	685.828
215.650	14.248	913.932	685.445
216.665	14.154	913.584	684.739
217.680	14.365	912.383	684.643
218.694	14.316	911.914	684.029
219.709	14.202	911.576	683.246
220.723	14.303	910.802	683.023
221.738	14.368	909.987	682.615
222.753	14.200	909.627	681.599
223.767	14.340	909.308	681.871
224.782	14.534	908.094	681.694
225.796	14.484	907.617	681.070
226.811	14.272	907.417	679.997
227.826	14.281	906.697	679.432
228.840	14.597	905.101	679.462
229.855	14.446	904.422	678.280
230.869	14.341	904.274	677.682
231.884	14.452	903.332	677.368
232.899	14.415	902.530	676.553
233.913	14.314	902.190	675.831
234.928	14.482	901.247	675.743
235.942	14.236	901.145	674.611
236.957	14.428	900.431	674.793
237.972	14.495	899.853	674.571
238.986	14.505	899.129	674.012
240.001	14.391	898.480	673.005
241.015	14.530	897.511	672.780
242.030	14.614	897.303	672.902
243.045	14.480	896.361	671.598
244.059	14.583	896.040	671.710
245.074	14.533	895.566	671.098
246.088	14.668	894.534	670.804
247.103	14.601	893.987	670.066
248.117	14.752	893.166	670.000
249.132	14.818	893.003	670.083
250.147	14.767	892.521	669.456
251.161	14.918	891.334	669.111
252.176	14.789	891.255	668.477
253.190	14.811	890.092	667.633
254.205	14.801	889.883	667.376
255.220	14.811	889.101	666.770
256.234	14.796	888.657	666.321
257.249	14.927	887.520	665.929
258.263	14.921	886.821	665.320
259.278	14.991	886.246	665.110
260.293	15.179	885.674	665.369
261.307	15.076	885.442	664.725
262.322	15.124	884.591	664.220
263.336	15.161	883.859	663.757
264.351	15.051	883.445	662.952
265.366	15.145	882.545	662.592
266.380	15.167	882.106	662.291
267.395	15.187	881.159	661.599
268.409	15.065	880.593	660.632
269.424	15.168	879.415	660.096
270.439	15.235	878.664	659.739
271.453	14.998	878.528	658.646
272.468	15.177	877.799	658.744
273.482	15.108	877.519	658.205
274.497	15.156	876.638	657.674
275.512	15.072	876.506	657.189
276.526	15.260	875.889	657.404
277.541	15.231	875.250	656.754
278.555	15.315	874.605	656.539
279.570	15.244	873.924	655.693
280.585	15.287	873.133	655.209
281.599	15.438	872.222	655.055
282.614	15.317	871.547	654.020
283.628	15.225	871.210	653.350
284.643	15.295	870.493	653.027
285.657	15.217	870.172	652.424
286.672	15.414	868.988	652.244
287.687	15.429	868.599	651.953
288.701	15.406	868.179	651.494
289.716	15.322	867.903	650.902
290.730	15.524	867.106	651.030
291.745	15.354	866.651	649.970
292.760	15.450	865.764	649.622
293.774	15.411	865.293	649.059
294.789	15.566	864.187	648.770
295.803	15.628	863.582	648.498
296.818	15.547	862.960	647.661
297.833	15.702	861.819	647.343
298.847	15.541	861.602	646.503
299.862	15.551	861.101	646.112
300.876	15.621	860.776	646.079
301.891	15.557	860.384	645.481
302.906	15.611	859.598	645.039
303.920	15.703	858.830	644.760
304.935	15.732	858.664	644.691
305.949	15.721	857.958	644.058
306.964	15.799	857.099	643.657
307.979	15.818	856.550	643.260
308.993	15.775	856.164	642.750
310.008	15.749	855.513	642.106
311.022	15.719	855.128	641.643
312.037	15.826	854.291	641.366
313.052	15.794	853.680	640.730
314.066	15.819	853.179	640.393
315.081	15.829	852.537	639.892
316.095	15.717	851.993	639.003
317.110	15.819	851.417	638.902
318.125	15.774	851.075	638.416
319.139	15.961	850.466	638.610
320.154	15.926	849.995	638.068
321.168	15.957	849.456	637.727
322.183	15.876	848.882	636.932
323.197	15.890	848.264	636.464
324.212	16.007	847.661	636.399
325.227	15.918	847.277	635.717
326.241	15.805	846.521	634.666
327.256	15.863	845.969	634.416
328.270	15.913	845.862	634.467
329.285	15.910	845.036	633.782
330.300	16.032	844.348	633.668
331.314	15.970	844.050	633.156
332.329	16.047	843.608	633.058
333.343	15.962	843.344	632.481
334.358	16.124	842.557	632.446
335.373	16.080	842.252	631.994
336.387	16.109	842.368	632.136
337.402	16.077	841.574	631.365
338.416	16.179	841.148	631.370
339.431	16.267	840.750	631.342
340.446	16.281	840.364	631.052
341.460	16.337	839.863	630.828
342.475	16.117	839.765	629.875
343.489	16.210	839.449	629.931
344.504	16.282	838.659	629.552
345.519	16.277	838.406	629.288
346.533	16.319	837.954	629.048
347.548	16.354	837.082	628.468
348.562	16.395	836.357	628.019
349.577	16.226	836.221	627.236
350.592	16.325	835.377	626.912
351.606	16.272	834.945	626.335
352.621	16.373	833.774	625.778
353.635	16.285	833.619	625.281
354.650	16.339	833.093	625.030
355.665	16.427	832.172	624.609
356.679	16.361	831.912	624.115
357.694	16.548	830.961	624.037
358.708	16.416	830.387	623.062
359.723	16.417	829.933	622.670
360.738	16.529	828.930	622.276
361.752	16.551	828.760	622.173
362.767	16.468	828.216	621.406
363.781	16.616	827.576	621.415
364.796	16.586	827.379	621.102
365.810	16.636	826.715	620.732
366.825	16.615	826.338	620.315
367.840	16.741	825.596	620.164
368.854	16.615	825.420	619.516
369.869	16.590	825.076	619.114
370.883	16.587	824.886	618.905
371.898	16.681	824.627	619.001
372.913	16.715	823.927	618.543
373.927	16.889	822.989	618.417
374.942	16.854	822.660	617.987
375.956	16.837	822.288	617.594
376.971	16.936	821.613	617.394
377.986	17.033	821.115	617.316
379.000	16.988	820.864	616.910
380.015	16.885	820.840	616.461
381.029	17.035	819.784	616.158
382.044	17.111	819.268	615.994
383.059	16.972	818.616	614.944
384.073	17.002	818.193	614.679
385.088	16.862	817.611	613.681
386.102	16.905	817.274	613.528
387.117	16.827	816.950	612.949
388.132	16.995	815.914	612.725
389.146	16.940	815.446	612.120
390.161	17.048	814.785	611.960
391.175	16.991	814.730	611.660
392.190	16.983	813.904	610.956
393.205	17.053	813.708	611.009
394.219	17.058	813.045	610.473
395.234	17.033	812.736	610.096
396.248	16.901	812.397	609.313
397.263	16.991	811.837	609.165
398.278	16.984	811.514	608.843
399.292	17.213	810.864	609.122
400.307	17.082	810.453	608.291
401.321	17.148	810.017	608.145
402.336	17.106	809.552	607.594
403.350	17.074	809.230	607.182
404.365	17.202	808.667	607.163
405.380	17.086	808.571	606.624
406.394	17.245	807.672	606.464
407.409	17.290	807.260	606.260
408.423	17.352	806.986	606.221
409.438	17.426	806.522	606.081
410.453	17.387	806.079	605.557
411.467	17.283	805.858	604.967
412.482	17.542	805.048	605.226
413.496	17.504	804.693	604.771
414.511	17.468	804.723	604.612
415.526	17.485	804.238	604.256
416.540	17.472	803.630	603.700
417.555	17.531	803.166	603.504
418.569	17.537	802.685	603.113
419.584	17.569	802.348	602.920
420.599	17.574	801.950	602.585
421.613	111.773	1294.350	1476.688
422.628	96.367	1366.052	1476.806
