DTS Sentinel unit serial number:	SN413079Multiplexer serial number:	ORYXHardware model number:	OX4-SRSoftware version number:	ORYX F/W v4.00 Oryx Data Collector v3.7.2.0data status	okinstallation	princeton_trtdifferential loss correction	single-endedforward channel	channel 1reverse channel	N/Adate	2019/09/17time	05:26:35forward acquisition time	60.00reverse acquisition time	0.00gamma	496.2192k internal	0.2324k external	0.2324temperature offset calibration	0.9965default loss term (dB/km)	0.3790temperature slope calibration	1.0000multiplexer offset coefficient	1.0000multiplexer slope coefficient	1.0000fibre end	0.00T internal ref (°C)	29.28T ext. ref 1 (°C)	0.14T ext. ref 2 (°C)	23.37length (m)	temperature (°C)	Stokes	anti-Stokes-747.200	531.443	-0.079	-0.188
-746.185	0.234	0.100	-0.072
-745.171	-200.000	0.031	-0.257
-744.156	-43.776	-0.155	-0.079
-743.142	-113.580	0.208	-0.041
-742.127	-76.673	0.097	-0.034
-741.112	-85.378	0.156	0.049
-740.098	-200.000	0.000	0.363
-739.083	125.047	0.089	0.114
-738.069	-10.366	-0.379	-0.254
-737.054	742.258	0.106	-0.288
-736.039	800.000	0.076	0.327
-735.025	-200.000	0.114	0.551
-734.010	-104.275	0.176	-0.041
-732.996	-200.000	0.008	0.134
-731.981	-32.768	-0.137	-0.077
-730.966	53.913	-0.139	-0.135
-729.952	-77.942	-0.020	0.007
-728.937	800.000	-0.101	-0.350
-727.923	-123.409	-0.216	0.035
-726.908	248.380	-0.210	0.359
-725.894	-111.748	-0.135	0.028
-724.879	-78.008	-0.228	0.079
-723.864	-200.000	-0.252	0.001
-722.850	-170.091	-0.313	0.011
-721.835	-131.244	-0.382	-0.051
-720.821	37.283	0.091	0.082
-719.806	112.057	-0.180	0.219
-718.791	-200.000	0.005	-0.132
-717.777	395.103	-0.032	0.068
-716.762	35.861	-0.260	-0.231
-715.748	69.031	0.216	-0.224
-714.733	-200.000	0.045	0.276
-713.718	-200.000	-0.008	-0.145
-712.704	-200.000	0.018	-0.122
-711.689	-127.403	-0.072	-0.011
-710.675	-200.000	0.023	-0.258
-709.660	800.000	-0.131	0.377
-708.645	-113.414	-0.157	0.031
-707.631	-88.246	0.080	-0.024
-706.616	-127.307	-0.134	-0.020
-705.602	-107.609	0.060	0.013
-704.587	791.733	-0.123	0.340
-703.572	73.892	-0.096	-0.101
-702.558	-200.000	-0.027	0.128
-701.543	121.839	0.217	0.272
-700.529	194.137	0.195	0.298
-699.514	148.213	-0.083	0.113
-698.499	-136.306	0.090	-0.011
-697.485	-200.000	-0.005	-0.058
-696.470	103.512	-0.216	-0.256
-695.456	800.000	0.032	0.099
-694.441	-101.045	0.288	-0.071
-693.426	-66.241	0.136	0.055
-692.412	44.585	-0.227	-0.211
-691.397	87.782	-0.186	-0.208
-690.383	62.656	-0.119	0.119
-689.368	209.339	0.111	-0.175
-688.354	157.480	-0.132	0.184
-687.339	800.000	0.145	-0.462
-686.324	40.327	0.356	0.323
-685.310	800.000	0.128	0.449
-684.295	113.159	0.100	-0.122
-683.281	-61.053	0.437	-0.186
-682.266	422.805	-0.047	0.102
-681.251	277.945	0.144	-0.259
-680.237	-200.000	0.007	0.238
-679.222	-109.606	0.255	0.054
-678.208	567.537	0.025	-0.061
-677.193	-200.000	-0.002	0.214
-676.178	-157.877	-0.153	0.009
-675.164	479.852	-0.114	-0.260
-674.149	800.000	-0.114	-0.375
-673.135	3.737	-0.105	0.077
-672.120	800.000	-0.071	-0.230
-671.105	-86.689	0.226	0.070
-670.091	-18.472	0.116	0.073
-669.076	204.547	0.204	-0.318
-668.062	-74.259	-0.319	-0.116
-667.047	-200.000	-0.009	0.265
-666.032	800.000	-0.051	-0.158
-665.018	-147.275	-0.425	-0.036
-664.003	704.990	-0.099	0.262
-662.989	16.541	-0.290	0.230
-661.974	94.636	-0.285	0.325
-660.959	-16.659	0.158	-0.101
-659.945	-61.750	0.093	0.039
-658.930	127.387	-0.166	0.212
-657.916	2.501	0.162	-0.118
-656.901	519.134	0.123	-0.289
-655.886	285.179	0.052	0.094
-654.872	-200.000	-0.005	-0.237
-653.857	-17.656	-0.272	-0.172
-652.843	-200.000	-0.023	-0.212
-651.828	-200.000	0.022	-0.175
-650.814	-200.000	-0.019	0.281
-649.799	153.127	0.153	0.210
-648.784	800.000	-0.048	0.197
-647.770	-200.000	0.014	-0.372
-646.755	-134.135	0.039	0.005
-645.741	-159.547	0.180	0.010
-644.726	-164.563	-0.177	0.008
-643.711	91.123	0.168	-0.190
-642.697	-96.935	-0.109	-0.029
-641.682	-23.250	-0.253	0.153
-640.668	800.000	-0.056	-0.195
-639.653	-77.537	-0.028	0.010
-638.638	-117.961	0.549	0.099
-637.624	176.877	0.086	-0.125
-636.609	63.064	-0.082	-0.083
-635.595	-51.797	0.400	0.187
-634.580	-94.883	-0.114	0.031
-633.565	41.649	0.154	0.140
-632.551	95.411	-0.037	-0.043
-631.536	-25.396	-0.393	0.234
-630.522	6.931	0.060	0.045
-629.507	-165.103	-0.075	-0.003
-628.492	-200.000	0.005	-0.402
-627.478	30.644	-0.028	0.024
-626.463	100.859	-0.151	-0.176
-625.449	22.994	-0.120	-0.099
-624.434	-4.657	0.177	0.123
-623.419	260.836	-0.114	-0.198
-622.405	-73.577	0.229	-0.084
-621.390	-200.000	0.027	-0.171
-620.376	-134.655	-0.176	-0.021
-619.361	-34.515	0.211	-0.116
-618.346	-200.000	-0.013	0.189
-617.332	-200.000	-0.030	-0.178
-616.317	800.000	0.034	0.140
-615.303	100.775	0.122	0.142
-614.288	-102.418	-0.201	0.048
-613.273	239.789	0.321	-0.537
-612.259	6.953	0.247	0.185
-611.244	103.140	0.159	-0.187
-610.230	134.732	0.191	0.249
-609.215	-200.000	-0.034	0.150
-608.201	-83.363	-0.144	-0.046
-607.186	34.659	0.138	-0.121
-606.171	159.811	0.046	-0.064
-605.157	56.816	0.124	0.122
-604.142	-98.707	0.229	-0.058
-603.128	496.233	0.149	0.343
-602.113	-163.717	-0.246	0.012
-601.098	-200.000	-0.043	0.330
-600.084	-129.994	0.154	-0.021
-599.069	170.130	-0.071	-0.103
-598.055	121.974	-0.167	-0.210
-597.040	-94.243	0.145	-0.040
-596.025	-83.464	0.367	0.118
-595.011	800.000	-0.127	-0.354
-593.996	-200.000	-0.125	0.000
-592.982	-144.353	-0.198	-0.018
-591.967	-146.614	0.099	0.009
-590.952	458.373	-0.043	-0.097
-589.938	-33.230	-0.138	0.077
-588.923	-67.833	-0.273	0.107
-587.909	2.833	-0.112	-0.082
-586.894	-70.553	0.175	-0.066
-585.879	800.000	-0.039	0.136
-584.865	-100.623	-0.366	0.091
-583.850	-121.269	-0.384	-0.064
-582.836	-8.187	0.114	0.077
-581.821	-110.477	0.330	-0.069
-580.806	348.501	0.115	-0.227
-579.792	448.124	0.099	0.219
-578.777	359.009	0.043	0.086
-577.763	-6.948	0.281	-0.192
-576.748	800.000	0.006	0.019
-575.733	800.000	-0.045	0.183
-574.719	381.428	-0.151	0.311
-573.704	-100.430	-0.231	-0.057
-572.690	67.339	-0.262	-0.268
-571.675	-84.298	-0.118	-0.037
-570.661	-59.320	0.300	-0.130
-569.646	-117.753	-0.026	-0.005
-568.631	291.388	0.143	-0.261
-567.617	536.127	-0.106	-0.252
-566.602	187.888	0.139	0.208
-565.588	-200.000	-0.026	0.273
-564.573	137.308	-0.287	0.377
-563.558	-23.062	-0.057	0.034
-562.544	-70.470	0.306	-0.116
-561.529	-1.023	-0.106	0.075
-560.515	-99.381	-0.519	0.131
-559.500	800.000	-0.041	0.126
-558.485	49.223	0.181	-0.171
-557.471	-61.791	-0.246	0.103
-556.456	800.000	0.058	0.205
-555.442	171.223	-0.214	-0.307
-554.427	386.937	-0.065	0.135
-553.412	800.000	0.116	0.363
-552.398	-95.092	-0.549	0.149
-551.383	-200.000	-0.029	-0.273
-550.369	281.343	0.075	-0.135
-549.354	0.290	0.242	0.173
-548.339	-74.829	-0.354	-0.127
-547.325	-77.440	-0.073	-0.025
-546.310	-200.000	0.025	-0.284
-545.296	-99.694	-0.360	0.090
-544.281	-72.768	0.271	-0.100
-543.266	58.116	-0.081	-0.080
-542.252	-89.372	0.119	0.035
-541.237	800.000	0.026	0.088
-540.223	50.186	0.193	-0.183
-539.208	-200.000	-0.039	-0.265
-538.193	32.426	-0.352	0.305
-537.179	341.692	0.053	-0.105
-536.164	-123.774	-0.123	0.020
-535.150	-159.573	0.325	-0.018
-534.135	-98.554	0.187	0.048
-533.121	-118.024	-0.266	0.048
-532.106	394.927	0.130	-0.271
-531.091	383.505	-0.140	-0.288
-530.077	-124.866	-0.214	0.033
-529.062	284.259	-0.099	0.178
-528.048	-27.364	0.100	-0.058
-527.033	-108.381	0.179	-0.039
-526.018	-90.163	0.233	-0.068
-525.004	240.876	0.159	-0.265
-523.989	294.623	-0.129	-0.235
-522.975	-91.734	-0.261	0.074
-521.960	-121.619	0.276	0.046
-520.945	-132.794	-0.161	0.021
-519.931	-75.161	-0.302	-0.108
-518.916	199.229	0.103	0.158
-517.902	-89.561	-0.276	0.081
-516.887	-121.752	-0.290	0.048
-515.872	-200.000	0.040	0.241
-514.858	459.732	0.121	-0.270
-513.843	-56.263	-0.336	-0.150
-512.829	77.355	0.155	-0.165
-511.814	4.511	0.136	0.100
-510.799	133.226	-0.124	0.160
-509.785	-15.740	0.170	-0.108
-508.770	-72.920	-0.323	0.119
-507.756	-141.583	-0.163	0.016
-506.741	86.868	-0.271	0.299
-505.726	800.000	-0.084	0.232
-504.712	189.303	-0.119	0.178
-503.697	-200.000	-0.057	-0.494
-502.683	-150.620	-0.189	0.014
-501.668	-117.048	-0.099	-0.018
-500.653	-200.000	-0.018	-0.111
-499.639	-77.930	-0.505	0.174
-498.624	268.846	-0.123	-0.215
-497.610	145.003	0.278	0.372
-496.595	-46.618	-0.174	0.085
-495.581	-86.943	-0.158	-0.048
-494.566	-153.695	-0.029	0.002
-493.551	-28.744	-0.139	-0.080
-492.537	800.000	0.064	-0.234
-491.522	306.678	-0.201	0.374
-490.508	39.233	0.123	0.110
-489.493	-41.612	0.381	-0.195
-488.478	-132.573	0.345	0.044
-487.464	800.000	0.143	0.459
-486.449	294.345	-0.145	-0.264
-485.435	800.000	0.094	-0.330
-484.420	-131.882	0.168	0.022
-483.405	-179.403	-0.300	-0.007
-482.391	-68.946	-0.121	-0.047
-481.376	35.381	-0.031	-0.027
-480.362	-200.000	0.006	-0.153
-479.347	-200.000	0.114	-0.550
-478.332	-121.586	-0.093	-0.015
-477.318	428.331	0.229	-0.494
-476.303	-74.532	0.348	0.125
-475.289	-59.246	0.312	-0.134
-474.274	-200.000	-0.031	-0.293
-473.259	-194.384	0.397	-0.003
-472.245	495.469	0.059	-0.135
-471.230	800.000	0.112	0.313
-470.216	-24.730	0.046	0.027
-469.201	-34.130	-0.059	-0.033
-468.186	252.749	0.137	-0.234
-467.172	352.835	0.112	-0.221
-466.157	101.338	0.081	0.095
-465.143	-39.055	-0.241	0.127
-464.128	727.063	0.104	-0.276
-463.113	164.880	-0.112	0.157
-462.099	106.562	-0.185	-0.219
-461.084	-122.661	-0.192	-0.031
-460.070	-200.000	-0.230	-0.000
-459.055	175.245	0.182	-0.263
-458.040	-79.025	-0.031	0.011
-457.026	-60.160	0.452	0.193
-456.011	-84.856	0.207	-0.065
-454.997	291.673	-0.191	0.346
-453.982	100.015	-0.112	0.130
-452.968	302.731	0.076	0.140
-451.953	-200.000	-0.018	0.094
-450.938	-159.037	0.225	-0.013
-449.924	38.435	0.080	0.071
-448.909	137.451	0.134	0.175
-447.895	-149.419	0.268	0.021
-446.880	-159.711	-0.039	0.002
-445.865	-200.000	-0.059	0.376
-444.851	-109.229	0.424	0.090
-443.836	-200.000	0.006	-0.105
-442.822	491.454	-0.073	-0.168
-441.807	15.855	-0.110	-0.086
-440.792	152.812	0.123	-0.168
-439.778	540.711	0.092	-0.218
-438.763	-19.261	0.238	0.147
-437.749	33.945	-0.060	-0.052
-436.734	-200.000	0.025	0.215
-435.719	-142.201	0.152	0.015
-434.705	800.000	0.056	-0.243
-433.690	421.741	0.058	-0.125
-432.676	654.683	0.013	0.033
-431.661	516.414	-0.087	-0.202
-430.646	113.438	0.136	0.165
-429.632	-200.000	0.048	0.265
-428.617	-105.695	-0.193	0.044
-427.603	-167.591	-0.300	0.012
-426.588	135.840	0.054	-0.070
-425.573	800.000	-0.047	-0.149
-424.559	-200.000	-0.016	0.178
-423.544	466.838	0.195	0.436
-422.530	800.000	-0.062	0.220
-421.515	408.792	-0.087	0.184
-420.500	306.275	-0.161	0.298
-419.486	-200.000	0.015	0.253
-418.471	-116.192	0.219	0.040
-417.457	123.622	0.003	0.004
-416.442	-200.000	-0.020	0.092
-415.428	-200.000	0.108	-0.000
-414.413	118.896	0.196	-0.241
-413.398	161.791	-0.028	0.039
-412.384	-97.089	-0.231	0.060
-411.369	66.708	0.121	0.123
-410.355	-200.000	0.021	0.244
-409.340	-50.645	0.144	0.068
-408.325	59.114	-0.109	0.107
-407.311	-200.000	0.056	0.308
-406.296	-119.264	-0.215	0.037
-405.282	-200.000	-0.030	-0.194
-404.267	395.517	-0.072	-0.149
-403.252	-200.000	0.011	-0.139
-402.238	-142.289	0.192	-0.019
-401.223	58.815	-0.163	-0.160
-400.209	-200.000	-0.013	-0.108
-399.194	-36.330	0.291	-0.156
-398.179	-148.855	0.508	-0.041
-397.165	-45.537	-0.148	-0.073
-396.150	2.176	0.163	-0.117
-395.136	108.514	-0.076	0.091
-394.121	146.314	-0.061	0.081
-393.106	-178.029	0.165	0.004
-392.092	36.865	-0.046	0.041
-391.077	10.232	-0.098	0.074
-390.063	-75.021	-0.153	-0.055
-389.048	-21.461	0.243	0.148
-388.033	177.040	-0.040	0.058
-387.019	-39.242	0.291	-0.152
-386.004	-101.021	-0.334	0.082
-384.990	256.374	0.023	0.040
-383.975	330.774	-0.013	0.025
-382.960	-90.270	0.304	0.088
-381.946	-133.507	0.363	-0.045
-380.931	-87.681	-0.457	-0.137
-379.917	-200.000	0.084	-0.393
-378.902	-87.722	0.188	0.056
-377.888	370.781	-0.116	0.235
-376.873	-200.000	-0.064	0.380
-375.858	8.332	-0.193	-0.144
-374.844	-105.945	-0.300	0.067
-373.829	-181.166	-0.222	0.004
-372.815	181.442	-0.074	0.108
-371.800	800.000	-0.060	0.202
-370.785	800.000	-0.032	-0.115
-369.771	-42.457	-0.309	-0.157
-368.756	-92.577	0.094	-0.026
-367.742	220.373	-0.141	0.224
-366.727	-147.113	0.231	0.020
-365.712	-179.675	-0.120	-0.003
-364.698	800.000	0.079	0.294
-363.683	-200.000	0.005	-0.032
-362.669	800.000	0.052	0.221
-361.654	12.733	0.258	0.198
-360.639	46.385	-0.132	-0.122
-359.625	-92.745	-0.197	0.055
-358.610	-159.668	-0.171	0.009
-357.596	-1.541	0.142	0.099
-356.581	600.679	-0.075	0.186
-355.566	-21.866	0.243	-0.147
-354.552	-31.147	0.101	-0.057
-353.537	-200.000	-0.024	0.185
-352.523	34.847	-0.209	0.182
-351.508	-112.200	0.329	-0.066
-350.493	800.000	-0.088	0.355
-349.479	580.315	-0.092	-0.224
-348.464	-174.426	-0.196	-0.006
-347.450	70.059	-0.228	-0.234
-346.435	15.780	-0.290	0.227
-345.420	120.151	-0.116	-0.143
-344.406	-200.000	-0.000	-0.089
-343.391	-200.000	0.032	-0.367
-342.377	-186.333	0.417	0.006
-341.362	-186.053	-0.157	-0.002
-340.348	800.000	-0.094	-0.343
-339.333	-114.239	0.165	-0.032
-338.318	-49.529	-0.079	-0.038
-337.304	474.813	0.030	-0.066
-336.289	-82.735	-0.190	-0.061
-335.275	446.378	-0.167	-0.364
-334.260	540.501	-0.042	0.098
-333.245	800.000	0.085	0.347
-332.231	-46.844	0.181	-0.088
-331.216	-200.000	-0.015	-0.155
-330.202	-145.612	-0.263	-0.023
-329.187	-54.572	0.259	0.116
-328.172	800.000	-0.086	0.269
-327.158	490.138	0.052	0.118
-326.143	170.620	-0.149	-0.211
-325.129	-87.502	0.207	-0.062
-324.114	-105.778	-0.262	0.059
-323.099	-38.153	-0.126	0.066
-322.085	-92.266	0.290	0.081
-321.070	554.203	-0.138	0.329
-320.056	91.760	-0.061	-0.068
-319.041	-116.126	-0.251	-0.046
-318.026	365.162	-0.049	-0.097
-317.012	218.702	-0.163	-0.259
-315.997	427.762	0.143	0.306
-314.983	-166.327	-0.279	-0.012
-313.968	-200.000	-0.038	0.418
-312.953	160.916	0.121	0.168
-311.939	150.325	0.098	0.132
-310.924	60.487	0.040	-0.039
-309.910	145.199	-0.157	-0.208
-308.895	800.000	0.084	-0.234
-307.880	-107.959	0.244	-0.053
-306.866	-196.304	-0.229	0.002
-305.851	-200.000	0.014	-0.167
-304.837	81.964	-0.055	-0.059
-303.822	45.119	0.102	0.093
-302.807	-200.000	-0.059	0.291
-301.793	496.431	0.140	0.319
-300.778	-173.296	0.067	0.002
-299.764	132.017	0.199	0.254
-298.749	-79.933	-0.405	-0.135
-297.735	-66.357	-0.164	0.065
-296.720	163.917	-0.099	0.138
-295.705	-200.000	-0.021	0.209
-294.691	101.564	-0.140	-0.162
-293.676	-200.000	-0.015	-0.139
-292.662	75.948	-0.251	-0.263
-291.647	303.523	0.175	0.321
-290.632	800.000	-0.086	-0.286
-289.618	20.678	0.225	-0.181
-288.603	-73.306	0.219	-0.080
-287.589	-200.000	0.008	0.147
-286.574	800.000	0.025	-0.108
-285.559	11.190	0.134	0.102
-284.545	-200.000	-0.007	-0.135
-283.530	123.382	0.036	0.045
-282.516	-84.418	-0.308	-0.097
-281.501	72.691	0.238	0.246
-280.486	469.958	0.073	-0.163
-279.472	65.574	0.109	-0.110
-278.457	-200.000	-0.004	0.229
-277.443	-200.000	-0.030	0.170
-276.428	366.697	-0.161	-0.321
-275.413	-200.000	-0.018	-0.203
-274.399	-43.895	-0.351	0.175
-273.384	141.344	0.092	0.120
-272.370	-165.046	-0.187	0.008
-271.355	-43.169	-0.211	-0.106
-270.340	-200.000	0.059	-0.309
-269.326	82.439	-0.066	-0.071
-268.311	85.063	-0.075	-0.081
-267.297	-120.147	-0.188	-0.032
-266.282	-200.000	-0.009	-0.050
-265.267	398.699	0.159	0.330
-264.253	773.436	0.149	0.402
-263.238	800.000	0.106	0.292
-262.224	705.406	0.157	0.411
-261.209	-54.250	0.103	0.046
-260.195	-134.213	0.096	-0.012
-259.180	479.221	-0.095	-0.213
-258.165	-200.000	-0.007	0.262
-257.151	-200.000	0.012	0.141
-256.136	-200.000	0.020	-0.125
-255.122	58.426	-0.027	-0.027
-254.107	221.852	-0.053	-0.085
-253.092	-130.081	0.167	0.023
-252.078	7.684	0.222	0.165
-251.063	-50.405	-0.132	-0.062
-250.049	-17.306	0.188	-0.117
-249.034	-81.586	0.209	-0.068
-248.019	166.734	0.139	0.195
-247.005	-73.227	-0.048	-0.017
-245.990	800.000	-0.085	-0.248
-244.976	42.960	-0.369	0.333
-243.961	-200.000	0.010	0.081
-242.946	10.264	0.135	0.102
-241.932	-137.512	-0.205	-0.023
-240.917	-40.266	-0.077	0.040
-239.903	-42.425	-0.173	0.087
-238.888	47.290	0.177	-0.163
-237.873	-38.208	-0.467	-0.245
-236.859	-200.000	0.007	0.086
-235.844	-110.368	0.322	0.066
-234.830	60.308	0.328	-0.321
-233.815	-13.621	0.173	0.111
-232.800	-79.466	0.078	0.026
-231.786	255.989	0.224	0.379
-230.771	-185.928	0.078	-0.001
-229.757	2.616	0.313	-0.224
-228.742	-77.498	-0.248	-0.085
-227.727	43.330	-0.230	-0.208
-226.713	764.273	0.100	-0.268
-225.698	-45.827	-0.271	0.132
-224.684	-200.000	-0.044	-0.237
-223.669	-56.270	0.023	0.010
-222.655	-149.516	-0.244	-0.019
-221.640	-200.000	0.018	0.379
-220.625	-74.852	-0.194	-0.069
-219.611	-126.881	-0.018	-0.003
-218.596	-132.382	0.193	0.025
-217.582	-113.789	0.261	-0.050
-216.567	-122.530	-0.217	0.035
-215.552	-10.830	0.044	0.028
-214.538	-200.000	-0.014	0.332
-213.523	544.579	0.084	0.199
-212.509	-98.871	0.266	0.067
-211.494	160.864	0.150	0.208
-210.479	13.722	-0.158	0.121
-209.465	342.064	-0.077	-0.148
-208.450	-35.845	0.151	-0.081
-207.436	371.981	-0.122	0.244
-206.421	-60.390	0.073	0.031
-205.406	133.138	0.216	0.276
-204.392	800.000	0.018	-0.057
-203.377	-40.452	-0.107	0.055
-202.363	-200.000	-0.041	-0.202
-201.348	-200.000	-0.042	-0.337
-200.333	-200.000	-0.007	-0.214
-199.319	1.196	0.174	-0.123
-198.304	619.830	0.085	-0.212
-197.290	-200.000	-0.001	0.012
-196.275	667.805	0.133	-0.340
-195.260	37.502	0.365	0.320
-194.246	-137.683	0.141	-0.016
-193.231	-15.456	0.265	0.167
-192.217	-86.409	-0.110	0.033
-191.202	304.763	-0.098	-0.179
-190.187	80.348	0.155	0.165
-189.173	-200.000	-0.010	0.380
-188.158	800.000	-0.049	-0.188
-187.144	-101.876	-0.219	-0.052
-186.129	301.564	-0.046	-0.084
-185.114	-200.000	0.021	-0.168
-184.100	17.212	0.150	-0.117
-183.085	-53.711	-0.084	0.038
-182.071	-200.000	0.003	-0.041
-181.056	-56.530	-0.150	-0.066
-180.042	130.971	0.028	-0.035
-179.027	336.872	-0.066	0.126
-178.012	-146.262	-0.278	0.024
-176.998	-200.000	0.015	0.088
-175.983	-146.402	-0.308	-0.027
-174.969	346.716	0.232	0.451
-173.954	115.531	0.070	-0.084
-172.939	-134.751	0.191	-0.023
-171.925	800.000	0.066	-0.189
-170.910	114.733	-0.071	-0.086
-169.896	-75.628	0.242	0.085
-168.881	-36.279	-0.210	0.112
-167.866	-97.808	0.328	-0.084
-166.852	-57.706	-0.223	-0.096
-165.837	800.000	-0.077	-0.217
-164.823	-21.528	-0.204	0.123
-163.808	140.163	0.225	-0.293
-162.793	800.000	-0.010	-0.033
-161.779	-120.665	-0.035	-0.006
-160.764	181.257	-0.127	-0.185
-159.750	734.998	-0.107	0.283
-158.735	314.736	0.102	0.189
-157.720	-200.000	0.064	-0.482
-156.706	176.939	0.105	-0.151
-155.691	580.882	-0.146	-0.354
-154.677	76.402	0.152	-0.159
-153.662	-11.208	-0.152	-0.099
-152.647	-32.544	0.303	-0.166
-151.633	-200.000	0.035	-0.158
-150.618	800.000	0.128	0.550
-149.604	-66.880	-0.386	0.151
-148.589	-200.000	0.049	0.315
-147.574	578.584	0.060	-0.145
-146.560	-61.769	0.414	0.171
-145.545	223.884	0.186	-0.296
-144.531	-79.017	-0.188	-0.063
-143.516	-127.701	0.057	-0.008
-142.502	-200.000	-0.018	0.110
-141.487	72.029	0.247	0.253
-140.472	800.000	0.036	-0.117
-139.458	-200.000	0.015	-0.270
-138.443	415.092	0.068	0.144
-137.429	109.892	0.077	-0.091
-136.414	234.821	-0.096	0.156
-135.399	-200.000	0.016	-0.074
-134.385	154.179	-0.068	-0.092
-133.370	574.156	0.063	0.150
-132.356	137.536	0.098	0.126
-131.341	-200.000	0.025	0.359
-130.326	800.000	-0.061	-0.250
-129.312	-200.000	-0.005	0.329
-128.297	-173.378	-0.256	-0.008
-127.283	-79.458	-0.043	0.014
-126.268	336.081	-0.076	-0.146
-125.253	-200.000	0.009	-0.082
-124.239	307.948	-0.099	0.182
-123.224	248.912	-0.128	-0.214
-122.210	800.000	-0.081	0.308
-121.195	51.830	0.023	0.022
-120.180	-104.245	-0.254	-0.058
-119.166	-13.534	0.429	0.274
-118.151	-200.000	-0.001	-0.070
-117.137	-200.000	-0.036	-0.235
-116.122	27.495	0.275	-0.228
-115.107	-200.000	0.008	-0.084
-114.093	-1.692	-0.223	-0.155
-113.078	-200.000	0.014	-0.162
-112.064	-200.000	0.003	-0.129
-111.049	-34.624	-0.246	0.132
-110.034	800.000	-0.077	0.245
-109.020	-55.082	0.222	0.098
-108.005	-200.000	-0.030	0.402
-106.991	130.716	0.147	0.185
-105.976	2.921	-0.141	0.101
-104.962	-200.000	-0.002	-0.178
-103.947	-128.458	-0.249	0.035
-102.932	-166.197	-0.338	-0.014
-101.918	10.961	0.154	0.116
-100.903	129.060	0.049	-0.061
-99.889	-114.064	0.303	-0.058
-98.874	233.689	0.027	0.044
-97.859	-200.000	-0.006	-0.031
-96.845	310.356	-0.029	-0.053
-95.830	-73.709	-0.176	0.063
-94.816	800.000	-0.049	0.162
-93.801	-200.000	-0.012	0.330
-92.786	689.135	0.060	-0.155
-91.772	224.635	0.096	-0.152
-90.757	800.000	0.119	-0.433
-89.743	-200.000	-0.036	-0.416
-88.728	161.947	0.138	0.190
-87.713	800.000	-0.046	0.137
-86.699	294.164	-0.027	-0.049
-85.684	9.383	0.270	0.201
-84.670	115.142	0.042	0.051
-83.655	-90.893	0.084	-0.024
-82.640	-90.735	-0.284	0.081
-81.626	38.345	-0.188	-0.164
-80.611	-200.000	-0.028	-0.319
-79.597	-86.467	0.029	0.009
-78.582	664.209	0.147	0.374
-77.567	-200.000	-0.027	0.144
-76.553	-82.417	-0.046	-0.015
-75.538	-58.978	-0.035	-0.015
-74.524	56.103	0.274	0.261
-73.509	-200.000	-0.037	0.221
-72.494	171.320	0.092	0.130
-71.480	354.485	-0.136	0.267
-70.465	-57.064	-0.174	-0.075
-69.451	151.474	-0.097	-0.130
-68.436	800.000	-0.086	-0.311
-67.422	-175.934	-0.179	0.005
-66.407	-14.038	-0.221	0.140
-65.392	121.054	0.274	0.335
-64.378	399.606	0.127	0.262
-63.363	662.556	-0.140	0.356
-62.349	-67.990	-0.161	0.062
-61.334	75.840	-0.909	-0.944
-60.319	-30.615	0.619	0.344
-59.305	-200.000	-0.031	-1.003
-58.290	264.408	0.751	1.284
-57.276	783.549	0.583	1.569
-56.261	-200.000	110.018	608.274
-55.246	448.932	1499.560	3247.358
-54.232	144.925	2679.606	3520.459
-53.217	106.972	2162.239	2523.181
-52.203	40.791	1609.353	1426.146
-51.188	32.868	1349.961	1148.268
-50.173	29.752	1309.932	1095.749
-49.159	54.959	1364.564	1294.484
-48.144	54.824	1379.925	1308.190
-47.130	32.864	1334.367	1134.802
-46.115	29.515	1316.784	1099.889
-45.100	29.321	1311.688	1094.438
-44.086	29.163	1309.764	1091.854
-43.071	29.190	1306.880	1089.566
-42.057	29.164	1304.612	1087.477
-41.042	29.099	1303.294	1085.953
-40.027	29.187	1301.480	1084.920
-39.013	29.188	1299.634	1083.340
-37.998	29.178	1297.686	1081.619
-36.984	29.199	1296.044	1080.327
-35.969	29.273	1294.161	1079.148
-34.954	29.264	1292.656	1077.796
-33.940	29.340	1291.425	1077.175
-32.925	29.412	1290.112	1076.457
-31.911	29.412	1288.454	1075.032
-30.896	29.476	1286.992	1074.137
-29.881	29.425	1286.201	1073.142
-28.867	29.356	1284.715	1071.457
-27.852	29.353	1283.033	1069.996
-26.838	29.376	1281.313	1068.651
-25.823	29.323	1280.253	1067.418
-24.809	29.311	1278.639	1065.961
-23.794	29.303	1277.883	1065.238
-22.779	29.351	1276.209	1064.080
-21.765	29.284	1275.410	1062.987
-20.750	29.394	1273.664	1062.118
-19.736	29.196	1272.823	1060.238
-18.721	29.316	1271.367	1059.675
-17.706	29.379	1269.932	1058.798
-16.692	29.271	1269.239	1057.558
-15.677	29.126	1268.596	1056.151
-14.663	29.241	1266.929	1055.375
-13.648	29.213	1265.524	1054.003
-12.633	29.234	1264.783	1053.468
-11.619	29.187	1264.076	1052.566
-10.604	29.296	1262.796	1052.078
-9.590	29.262	1262.358	1051.479
-8.575	29.185	1261.310	1050.127
-7.560	29.259	1260.047	1049.453
-6.546	29.256	1259.247	1048.728
-5.531	29.151	1258.735	1047.664
-4.517	29.355	1257.300	1047.590
-3.502	29.206	1256.816	1046.296
-2.487	29.243	1255.824	1045.640
-1.473	29.158	1251.640	1041.635
-0.458	27.577	1236.899	1020.478
0.556	22.354	1219.170	981.836
1.571	18.417	1225.532	964.747
2.586	17.453	1239.959	970.524
3.600	17.355	1228.282	960.747
4.615	12.863	1155.763	880.013
5.629	4.440	1080.632	780.546
6.644	0.470	1060.861	746.577
7.659	-0.001	1059.173	743.000
8.673	0.101	1057.744	742.432
9.688	-0.029	1056.738	741.022
10.702	0.248	1054.819	740.974
11.717	5.337	1060.960	770.349
12.731	13.512	1072.278	819.079
13.746	17.172	1076.645	840.487
14.761	17.110	1075.157	838.947
15.775	15.880	1073.870	831.792
16.790	14.952	1071.650	825.425
17.804	14.409	1069.505	821.024
18.819	14.026	1068.744	818.481
19.834	13.765	1067.634	816.274
20.848	13.465	1066.781	814.076
21.863	13.307	1065.418	812.188
22.877	13.051	1065.093	810.611
23.892	13.013	1064.476	809.882
24.907	13.076	1063.876	809.665
25.921	13.120	1062.966	809.115
26.936	13.091	1062.074	808.221
27.950	13.228	1061.335	808.256
28.965	13.138	1060.194	806.877
29.980	13.260	1058.883	806.404
30.994	13.305	1057.689	805.644
32.009	13.280	1057.485	805.295
33.023	13.202	1056.028	803.733
34.038	13.338	1054.972	803.521
35.053	13.297	1053.868	802.409
36.067	13.170	1053.151	801.174
37.082	13.222	1052.169	800.608
38.096	13.289	1051.845	800.617
39.111	13.285	1051.091	799.955
40.126	13.243	1049.898	798.773
41.140	12.990	1049.078	796.853
42.155	13.042	1047.278	795.668
43.169	12.952	1046.445	794.530
44.184	12.996	1045.492	793.948
45.199	13.105	1044.396	793.569
46.213	13.109	1043.107	792.538
47.228	13.246	1042.111	792.369
48.242	13.147	1041.374	791.266
49.257	13.073	1040.345	790.059
50.271	13.106	1039.630	789.603
51.286	13.156	1038.903	789.219
52.301	13.208	1037.491	788.325
53.315	13.139	1036.444	787.132
54.330	13.190	1035.463	786.559
55.344	13.077	1034.987	785.592
56.359	13.090	1033.844	784.717
57.374	13.182	1032.731	784.240
58.388	13.130	1031.681	783.126
59.403	13.055	1031.174	782.317
60.417	13.133	1030.533	782.131
61.432	12.976	1029.659	780.656
62.447	12.938	1028.953	779.870
63.461	12.969	1028.290	779.443
64.476	12.963	1027.206	778.524
65.490	12.911	1026.456	777.646
66.505	13.084	1025.599	777.743
67.520	13.042	1025.033	777.044
68.534	12.974	1024.533	776.279
69.549	13.007	1023.836	775.835
70.563	12.976	1022.805	774.841
71.578	13.062	1021.793	774.410
72.593	12.777	1021.357	772.672
73.607	12.961	1020.328	772.690
74.622	12.948	1019.941	772.265
75.636	12.920	1019.112	771.439
76.651	12.924	1018.666	771.050
77.666	13.038	1017.400	770.558
78.680	13.036	1017.302	770.404
79.695	12.985	1016.432	769.442
80.709	13.032	1015.914	769.202
81.724	13.063	1015.685	769.105
82.739	13.136	1014.654	768.595
83.753	13.230	1013.708	768.249
84.768	13.247	1012.802	767.570
85.782	13.231	1011.834	766.696
86.797	13.166	1011.373	765.974
87.812	13.119	1010.451	764.994
88.826	13.258	1008.724	764.258
89.841	13.155	1008.760	763.743
90.855	13.241	1007.562	763.165
91.870	13.314	1006.467	762.606
92.884	13.347	1005.703	762.112
93.899	13.419	1004.798	761.688
94.914	13.401	1004.191	761.081
95.928	13.353	1003.218	760.057
96.943	13.242	1002.498	758.930
97.957	13.231	1001.685	758.199
98.972	13.399	1000.835	758.259
99.987	13.327	999.782	757.062
101.001	13.382	998.739	756.456
102.016	13.352	997.840	755.573
103.030	13.288	997.619	755.046
104.045	13.365	996.513	754.493
105.060	13.278	995.925	753.587
106.074	13.103	994.620	751.733
107.089	13.172	993.741	751.318
108.103	13.148	992.340	750.085
109.118	13.170	991.635	749.584
110.133	13.108	991.005	748.759
111.147	13.188	989.856	748.190
112.162	13.057	989.204	747.038
113.176	13.224	988.398	747.116
114.191	13.340	987.411	746.827
115.206	13.317	986.659	746.089
116.220	13.101	986.118	744.639
117.235	13.116	985.387	744.088
118.249	13.192	984.476	743.678
119.264	13.339	983.531	743.558
120.279	13.256	982.703	742.494
121.293	13.198	981.828	741.507
122.308	13.135	981.197	740.683
123.322	13.032	980.175	739.388
124.337	13.173	979.090	739.133
125.352	13.150	978.008	738.148
126.366	13.135	977.006	737.257
127.381	13.150	975.991	736.493
128.395	13.102	975.584	735.908
129.410	13.152	974.409	735.180
130.424	13.040	973.847	734.193
131.439	13.340	972.654	734.561
132.454	13.160	971.703	732.980
133.468	13.210	971.313	732.841
134.483	13.308	969.939	732.175
135.497	13.217	969.377	731.282
136.512	13.265	968.251	730.578
137.527	13.343	967.459	730.262
138.541	13.423	966.635	729.929
139.556	13.337	966.380	729.293
140.570	13.368	965.200	728.473
141.585	13.401	964.591	728.097
142.600	13.316	963.744	727.019
143.614	13.387	962.549	726.362
144.629	13.407	962.092	726.042
145.643	13.495	961.262	725.736
146.658	13.310	960.203	724.064
147.673	13.447	959.098	723.766
148.687	13.235	958.821	722.564
149.702	13.254	957.651	721.704
150.716	13.334	956.851	721.383
151.731	13.404	956.094	721.055
152.746	13.350	955.465	720.281
153.760	13.445	954.773	720.109
154.775	13.515	954.101	719.843
155.789	13.529	953.637	719.492
156.804	13.539	953.257	719.183
157.819	13.477	952.696	718.428
158.833	13.558	951.765	718.013
159.848	13.600	950.635	717.279
160.862	13.555	949.556	716.207
161.877	13.419	948.815	714.996
162.892	13.297	948.281	714.004
163.906	13.482	947.099	713.850
164.921	13.479	946.518	713.336
165.935	13.399	945.777	712.371
166.950	13.707	944.081	712.353
167.964	13.618	943.625	711.561
168.979	13.416	942.948	710.122
169.994	13.540	941.974	709.858
171.008	13.681	941.152	709.781
172.023	13.634	940.589	709.090
173.037	13.558	939.905	708.190
174.052	13.697	938.981	708.022
175.067	13.478	938.606	706.742
176.081	13.542	938.198	706.644
177.096	13.626	937.200	706.189
178.110	13.647	936.827	705.936
179.125	13.659	936.135	705.402
180.140	13.678	935.914	705.252
181.154	13.633	935.539	704.719
182.169	13.719	934.687	704.378
183.183	13.778	934.200	704.200
184.198	13.733	933.311	703.279
185.213	13.812	932.447	702.900
186.227	13.712	932.002	702.076
187.242	13.787	931.249	701.765
188.256	13.938	930.275	701.606
189.271	13.912	929.387	700.766
190.286	13.802	928.862	699.844
191.300	13.647	928.267	698.680
192.315	13.601	927.782	698.059
193.329	13.570	927.339	697.534
194.344	13.778	926.827	697.961
195.359	13.679	925.784	696.698
196.373	13.818	925.440	696.963
197.388	13.865	925.097	696.842
198.402	13.952	924.268	696.519
199.417	14.010	923.653	696.237
200.432	14.138	922.862	696.115
201.446	14.017	922.807	695.507
202.461	14.102	922.333	695.440
203.475	14.262	921.312	695.280
204.490	13.973	921.027	693.794
205.504	14.124	919.701	693.364
206.519	14.078	918.989	692.577
207.534	14.028	918.475	691.918
208.548	13.941	917.994	691.133
209.563	13.900	917.498	690.529
210.577	14.028	916.763	690.446
211.592	14.134	916.073	690.303
212.607	14.166	915.186	689.706
213.621	14.161	914.844	689.368
214.636	14.284	913.525	688.820
215.650	14.112	913.089	687.719
216.665	14.353	911.867	687.735
217.680	14.224	911.558	686.908
218.694	14.308	911.079	686.834
219.709	14.233	910.586	686.092
220.723	14.294	909.672	685.595
221.738	14.238	909.031	684.820
222.753	14.302	908.466	684.598
223.767	14.286	907.674	683.874
224.782	14.401	907.003	683.780
225.796	14.402	906.999	683.720
226.811	14.399	906.118	682.983
227.826	14.374	905.076	682.033
228.840	14.319	904.528	681.335
229.855	14.306	903.554	680.489
230.869	14.445	902.729	680.375
231.884	14.363	902.631	679.907
232.899	14.215	901.791	678.611
233.913	14.319	901.117	678.468
234.928	14.329	900.171	677.735
235.942	14.293	899.958	677.369
236.957	14.216	899.465	676.625
237.972	14.241	899.092	676.387
238.986	14.315	897.736	675.606
240.001	14.305	897.453	675.291
241.015	14.520	896.512	675.397
242.030	14.482	896.070	674.848
243.045	14.421	895.659	674.233
244.059	14.413	894.807	673.500
245.074	14.555	894.371	673.686
246.088	14.550	893.406	672.877
247.103	14.582	892.853	672.531
248.117	14.602	892.260	672.108
249.132	14.819	891.709	672.504
250.147	14.835	891.076	672.033
251.161	14.713	890.873	671.329
252.176	14.692	890.142	670.636
253.190	14.864	889.279	670.614
254.205	14.819	888.567	669.839
255.220	14.872	888.071	669.616
256.234	14.918	887.669	669.440
257.249	14.761	886.940	668.203
258.263	14.878	885.605	667.606
259.278	14.946	885.325	667.604
260.293	14.881	884.964	667.016
261.307	14.997	884.143	666.800
262.322	15.012	883.558	666.361
263.336	15.102	882.648	665.974
264.351	15.041	882.129	665.278
265.366	15.152	881.586	665.252
266.380	14.991	880.958	664.081
267.395	14.941	880.324	663.345
268.409	15.036	879.346	662.924
269.424	15.104	878.503	662.499
270.439	14.932	878.106	661.462
271.453	15.121	877.219	661.483
272.468	15.001	877.037	660.814
273.482	15.091	876.489	660.696
274.497	15.172	875.612	660.297
275.512	15.181	874.816	659.674
276.526	15.270	874.306	659.578
277.541	15.112	874.372	658.949
278.555	15.150	873.650	658.499
279.570	15.221	872.835	658.102
280.585	15.366	872.077	658.040
281.599	15.359	871.193	657.288
282.614	15.202	871.042	656.503
283.628	15.233	870.344	656.039
284.643	15.377	869.664	656.032
285.657	15.429	868.868	655.576
286.672	15.198	868.669	654.466
287.687	15.221	867.925	653.936
288.701	15.272	867.563	653.805
289.716	15.374	866.443	653.299
290.730	15.324	866.082	652.777
291.745	15.401	865.235	652.381
292.760	15.508	864.490	652.175
293.774	15.538	864.224	652.033
294.789	15.515	863.332	651.212
295.803	15.502	862.762	650.675
296.818	15.419	862.237	649.901
297.833	15.327	861.264	648.756
298.847	15.487	860.718	648.903
299.862	15.565	860.326	648.853
300.876	15.518	859.643	648.098
301.891	15.605	859.225	648.060
302.906	15.640	858.656	647.710
303.920	15.719	858.370	647.742
304.935	15.810	857.563	647.423
305.949	15.540	857.101	645.982
306.964	15.533	856.564	645.492
307.979	15.573	855.801	645.014
308.993	15.751	855.325	645.282
310.008	15.814	854.758	645.038
311.022	15.755	854.169	644.312
312.037	15.629	853.742	643.448
313.052	15.608	853.083	642.815
314.066	15.751	852.579	642.925
315.081	15.790	851.849	642.465
316.095	15.798	850.878	641.708
317.110	15.614	850.778	640.873
318.125	15.799	850.008	640.940
319.139	15.744	849.636	640.396
320.154	16.015	848.828	640.762
321.168	15.921	848.461	640.070
322.183	15.783	848.015	639.151
323.197	15.830	847.868	639.162
324.212	15.866	847.762	639.163
325.227	15.851	846.345	637.983
326.241	15.826	845.851	637.459
327.256	15.882	845.041	637.002
328.270	15.892	845.016	636.965
329.285	15.876	844.583	636.523
330.300	15.866	843.738	635.789
331.314	15.877	842.929	635.166
332.329	15.991	842.711	635.377
333.343	15.943	842.496	634.977
334.358	15.950	841.750	634.385
335.373	16.094	841.408	634.613
336.387	16.076	841.059	634.226
337.402	16.110	841.055	634.295
338.416	16.017	840.617	633.558
339.431	16.190	840.127	633.781
340.446	16.094	839.729	633.068
341.460	16.072	839.489	632.746
342.475	16.103	839.088	632.504
343.489	16.169	838.355	632.142
344.504	16.272	837.700	631.979
345.519	16.242	837.016	631.294
346.533	16.310	836.758	631.298
347.548	16.179	836.641	630.665
348.562	16.241	836.043	630.389
349.577	16.204	834.904	629.337
350.592	16.251	834.363	629.051
351.606	16.213	833.895	628.501
352.621	16.153	833.257	627.738
353.635	16.346	832.690	627.975
354.650	16.325	832.102	627.399
355.665	16.368	831.452	627.010
356.679	16.473	830.774	626.833
357.694	16.260	830.303	625.633
358.708	16.394	829.451	625.432
359.723	16.466	829.138	625.410
360.738	16.250	828.579	624.133
361.752	16.533	827.445	624.267
362.767	16.366	827.282	623.471
363.781	16.627	826.424	623.735
364.796	16.438	826.343	622.921
365.810	16.540	825.986	622.971
366.825	16.657	825.638	623.084
367.840	16.651	825.142	622.632
368.854	16.667	824.532	622.176
369.869	16.633	824.255	621.789
370.883	16.645	823.676	621.340
371.898	16.678	823.475	621.256
372.913	16.656	823.184	620.899
373.927	16.655	822.616	620.414
374.942	16.731	822.164	620.295
375.956	16.825	821.343	619.963
376.971	16.730	821.269	619.506
377.986	16.641	820.976	618.906
379.000	16.886	819.943	618.965
380.015	16.879	819.714	618.713
381.029	16.927	819.147	618.405
382.044	16.941	818.085	617.600
383.059	16.970	817.869	617.489
384.073	16.912	817.151	616.682
385.088	16.851	816.524	615.932
386.102	16.869	816.240	615.727
387.117	16.844	815.928	615.346
388.132	16.917	814.867	614.757
389.146	16.909	814.528	614.419
390.161	16.941	814.192	614.227
391.175	17.006	813.489	613.876
392.190	16.866	812.782	612.781
393.205	17.044	812.457	613.125
394.219	16.929	812.370	612.590
395.234	16.821	812.029	611.891
396.248	16.898	811.491	611.709
397.263	16.895	811.173	611.403
398.278	16.824	811.267	611.163
399.292	16.848	810.262	610.439
400.307	17.050	809.651	610.651
401.321	17.058	809.068	610.188
402.336	16.931	808.935	609.575
403.350	16.969	808.424	609.275
404.365	17.159	807.918	609.519
405.380	17.203	807.179	609.068
406.394	17.245	806.899	608.950
407.409	17.116	806.656	608.253
408.423	17.093	806.793	608.219
409.438	17.276	806.279	608.432
410.453	17.341	805.347	607.908
411.467	17.452	804.578	607.671
412.482	17.339	804.758	607.348
413.496	17.412	804.394	607.282
414.511	17.468	804.118	607.220
415.526	17.378	803.493	606.371
416.540	17.342	803.088	605.885
417.555	17.327	802.627	605.430
418.569	17.434	802.320	605.528
419.584	17.457	801.679	605.071
420.599	17.422	801.125	604.474
421.613	109.710	1293.207	1472.596
422.628	94.444	1364.891	1472.648
