DTS Sentinel unit serial number:	SN413079Multiplexer serial number:	ORYXHardware model number:	OX4-SRSoftware version number:	ORYX F/W v4.00 Oryx Data Collector v3.7.2.0data status	okinstallation	princeton_trtdifferential loss correction	single-endedforward channel	channel 1reverse channel	N/Adate	2019/09/10time	15:36:11forward acquisition time	60.00reverse acquisition time	0.00gamma	496.2192k internal	0.2298k external	0.2298temperature offset calibration	0.9922default loss term (dB/km)	0.3790temperature slope calibration	1.0000multiplexer offset coefficient	1.0000multiplexer slope coefficient	1.0000fibre end	0.00T internal ref (°C)	37.97T ext. ref 1 (°C)	-0.27T ext. ref 2 (°C)	32.40length (m)	temperature (°C)	Stokes	anti-Stokes-747.200	-32.629	0.090	0.051
-746.185	-28.351	0.259	0.153
-745.171	-200.000	0.009	0.131
-744.156	-5.883	-0.186	0.130
-743.142	-112.489	-0.049	-0.010
-742.127	203.638	-0.079	-0.126
-741.112	141.397	0.219	-0.296
-740.098	429.916	0.138	0.305
-739.083	-84.566	-0.178	-0.057
-738.069	28.103	0.162	0.140
-737.054	-78.547	0.034	0.012
-736.039	116.912	0.088	-0.111
-735.025	-144.008	0.514	-0.049
-734.010	289.692	-0.096	0.178
-732.996	800.000	-0.037	-0.161
-731.981	-200.000	0.039	-0.315
-730.966	62.247	-0.176	0.180
-729.952	-97.776	-0.335	-0.088
-728.937	58.956	-0.172	-0.172
-727.923	800.000	-0.026	-0.087
-726.908	111.691	0.104	-0.128
-725.894	274.091	-0.044	0.080
-724.879	-45.505	0.061	0.031
-723.864	-200.000	-0.018	-0.513
-722.850	800.000	0.063	-0.264
-721.835	-46.080	0.145	0.073
-720.821	-94.733	0.079	-0.022
-719.806	53.394	-0.086	0.084
-718.791	649.003	-0.140	-0.365
-717.777	-200.000	0.003	-0.129
-716.762	146.435	-0.114	0.157
-715.748	-29.962	-0.060	-0.035
-714.733	-200.000	0.007	0.051
-713.718	-168.788	-0.265	-0.010
-712.704	800.000	0.087	0.255
-711.689	-31.714	-0.054	0.031
-710.675	-91.492	0.353	-0.103
-709.660	-125.609	-0.185	-0.029
-708.645	4.438	-0.241	0.180
-707.631	83.684	-0.100	0.111
-706.616	150.116	-0.121	-0.167
-705.602	-37.492	0.172	-0.093
-704.587	103.354	0.198	-0.236
-703.572	-139.765	-0.135	0.015
-702.558	-200.000	-0.020	0.191
-701.543	-68.016	0.078	-0.031
-700.529	800.000	-0.022	0.084
-699.514	800.000	-0.032	-0.113
-698.499	460.571	0.182	-0.412
-697.485	-200.000	0.081	-0.422
-696.470	-147.946	0.064	-0.005
-695.456	154.384	0.157	0.219
-694.441	-168.944	0.274	0.010
-693.426	-123.007	-0.219	0.036
-692.412	-200.000	-0.020	0.186
-691.397	-166.893	-0.186	0.008
-690.383	-69.379	0.236	0.092
-689.368	419.173	0.070	0.153
-688.354	161.625	-0.152	0.217
-687.339	-29.068	-0.273	0.160
-686.324	122.954	0.088	-0.112
-685.310	-109.067	0.062	0.013
-684.295	-110.976	0.235	0.049
-683.281	142.806	-0.080	-0.108
-682.266	-167.379	0.314	-0.013
-681.251	-65.398	-0.155	0.063
-680.237	800.000	0.025	-0.095
-679.222	-12.252	-0.111	0.074
-678.208	-200.000	-0.022	-0.214
-677.193	-200.000	0.007	-0.045
-676.178	-51.449	-0.168	0.080
-675.164	702.819	-0.122	-0.327
-674.149	-56.276	-0.140	-0.063
-673.135	-77.961	-0.059	0.021
-672.120	-113.587	-0.136	-0.027
-671.105	-34.170	-0.046	0.026
-670.091	-106.399	-0.306	-0.070
-669.076	132.410	0.107	0.141
-668.062	305.414	-0.168	-0.318
-667.047	34.608	-0.115	-0.102
-666.032	31.707	0.129	0.113
-665.018	-5.123	0.269	-0.188
-664.003	-42.861	-0.518	-0.268
-662.989	56.740	0.071	0.070
-661.974	-200.000	-0.025	0.442
-660.959	-66.350	-0.413	0.167
-659.945	-200.000	-0.002	-0.081
-658.930	800.000	-0.090	0.307
-657.916	156.058	-0.092	0.129
-656.901	679.226	0.126	0.333
-655.886	11.439	-0.291	-0.227
-654.872	-200.000	-0.310	0.001
-653.857	-5.619	-0.112	0.078
-652.843	-138.930	-0.218	0.024
-651.828	72.147	0.171	-0.181
-650.814	-177.318	-0.193	-0.005
-649.799	-200.000	-0.009	-0.056
-648.784	-2.734	0.073	0.052
-647.770	-200.000	0.051	0.284
-646.755	231.245	-0.118	0.197
-645.741	24.545	0.272	-0.228
-644.726	-145.186	0.143	-0.013
-643.711	40.427	0.081	0.074
-642.697	800.000	0.027	-0.089
-641.682	202.529	0.159	-0.249
-640.668	-200.000	0.011	0.058
-639.653	-132.147	-0.316	0.042
-638.638	-75.905	-0.080	0.029
-637.624	-45.338	0.106	0.054
-636.609	-82.110	-0.226	-0.075
-635.595	-26.025	-0.183	0.110
-634.580	246.138	0.124	-0.212
-633.565	800.000	0.072	-0.307
-632.551	-200.000	0.033	0.170
-631.536	101.265	0.155	-0.183
-630.522	-200.000	0.027	-0.253
-629.507	-113.089	-0.169	-0.034
-628.492	116.831	0.205	0.256
-627.478	-113.514	-0.128	-0.025
-626.463	-200.000	0.062	-0.455
-625.449	-200.000	-0.068	-0.463
-624.434	-92.744	-0.400	-0.114
-623.419	800.000	-0.014	0.043
-622.405	800.000	0.114	0.398
-621.390	800.000	-0.090	0.359
-620.376	-200.000	0.065	-0.443
-619.361	410.058	0.056	0.120
-618.346	217.166	0.053	0.085
-617.332	401.091	0.080	-0.170
-616.317	524.499	-0.095	-0.228
-615.303	-128.551	-0.285	0.041
-614.288	-200.000	-0.059	0.338
-613.273	-121.069	-0.246	0.042
-612.259	-200.000	-0.002	-0.070
-611.244	-199.238	-0.044	-0.000
-610.230	-200.000	0.076	-0.344
-609.215	-200.000	0.011	0.141
-608.201	344.868	0.072	0.144
-607.186	427.631	-0.098	0.214
-606.171	-54.810	-0.156	0.072
-605.157	-52.904	0.165	-0.077
-604.142	276.476	0.144	-0.261
-603.128	-200.000	-0.010	-0.048
-602.113	158.790	-0.044	-0.062
-601.098	19.164	0.029	-0.024
-600.084	-67.080	-0.136	0.054
-599.069	467.544	0.051	-0.116
-598.055	72.100	-0.038	-0.040
-597.040	-200.000	0.000	0.200
-596.025	-200.000	0.033	0.179
-595.011	-12.533	-0.150	-0.099
-593.996	800.000	0.105	0.348
-592.982	61.470	-0.205	-0.207
-591.967	800.000	-0.062	-0.178
-590.952	238.723	0.127	0.214
-589.938	379.999	0.107	0.223
-588.923	-200.000	-0.073	0.373
-587.909	370.629	0.099	-0.204
-586.894	-51.190	-0.168	0.080
-585.879	-200.000	-0.071	-0.399
-584.865	231.242	0.100	-0.166
-583.850	167.143	0.102	-0.147
-582.836	-58.864	-0.119	0.052
-581.821	-200.000	-0.038	-0.177
-580.806	119.787	-0.068	-0.085
-579.792	-97.723	0.225	-0.059
-578.777	257.444	0.137	-0.238
-577.763	-15.760	-0.162	0.105
-576.748	-100.981	-0.184	-0.046
-575.733	-40.534	0.128	-0.067
-574.719	-200.000	0.066	-0.351
-573.704	132.865	0.092	0.120
-572.690	-200.000	0.007	-0.036
-571.675	-21.928	0.117	-0.072
-570.661	-57.879	0.028	-0.012
-569.646	103.121	-0.134	-0.159
-568.631	325.874	-0.112	0.217
-567.617	-99.946	-0.062	0.016
-566.602	254.006	0.099	0.171
-565.588	220.161	0.194	0.315
-564.573	-79.522	0.216	0.074
-563.558	-200.000	0.027	-0.240
-562.544	-88.079	0.171	-0.052
-561.529	37.528	0.255	-0.230
-560.515	362.246	-0.119	-0.242
-559.500	-23.153	-0.114	0.070
-558.485	-45.517	0.244	-0.123
-557.471	-55.802	-0.219	-0.099
-556.456	-58.484	-0.118	-0.052
-555.442	-12.507	-0.249	0.165
-554.427	-84.175	-0.277	-0.089
-553.412	-138.127	-0.015	0.002
-552.398	-22.601	0.231	-0.142
-551.383	267.122	-0.050	0.089
-550.369	-138.654	-0.092	0.010
-549.354	187.610	-0.110	0.166
-548.339	-200.000	0.078	-0.369
-547.325	-200.000	0.020	-0.299
-546.310	-149.469	-0.158	-0.013
-545.296	-148.811	-0.115	-0.009
-544.281	376.567	-0.009	0.019
-543.266	-91.058	0.103	0.030
-542.252	-200.000	-0.010	0.120
-541.237	7.489	0.284	-0.215
-540.223	271.758	0.095	0.170
-539.208	36.702	-0.145	-0.129
-538.193	138.242	0.071	0.095
-537.179	395.963	0.088	-0.185
-536.164	800.000	-0.049	-0.144
-535.150	-67.726	0.117	0.046
-534.135	-200.000	-0.008	-0.207
-533.121	-200.000	0.017	-0.152
-532.106	591.975	-0.145	-0.363
-531.091	188.441	0.152	-0.231
-530.077	-200.000	0.026	0.316
-529.062	198.322	-0.016	-0.025
-528.048	252.817	0.070	0.121
-527.033	-20.485	-0.100	-0.062
-526.018	46.270	0.208	-0.195
-525.004	-94.826	0.123	-0.034
-523.989	-13.491	-0.117	0.077
-522.975	-113.982	-0.348	-0.068
-521.960	17.207	-0.362	-0.291
-520.945	-25.855	0.135	-0.081
-519.931	127.973	-0.056	-0.073
-518.916	125.462	-0.137	0.175
-517.902	-74.883	0.160	0.058
-516.887	253.833	-0.132	0.229
-515.872	52.354	0.210	0.203
-514.858	403.367	-0.140	0.299
-513.843	2.524	-0.171	0.126
-512.829	127.690	-0.159	0.205
-511.814	17.288	0.096	-0.077
-510.799	800.000	-0.073	0.286
-509.785	-114.861	-0.036	-0.007
-508.770	17.437	-0.167	-0.134
-507.756	800.000	-0.049	-0.139
-506.741	-200.000	-0.027	0.130
-505.726	72.604	0.108	0.114
-504.712	-15.607	-0.213	-0.137
-503.697	-200.000	-0.041	0.428
-502.683	-21.642	0.090	0.055
-501.668	-123.292	0.102	-0.016
-500.653	-3.744	0.160	-0.112
-499.639	-19.104	0.210	-0.132
-498.624	-44.964	0.293	0.148
-497.610	245.469	0.192	0.327
-496.595	386.226	0.008	0.017
-495.581	181.242	-0.247	0.367
-494.566	-116.925	0.082	0.015
-493.551	-107.727	-0.256	-0.056
-492.537	5.651	0.190	0.142
-491.522	800.000	0.039	-0.147
-490.508	-94.027	-0.145	-0.040
-489.493	193.513	0.229	0.351
-488.478	800.000	0.074	0.289
-487.464	-68.285	-0.140	-0.055
-486.449	-163.521	-0.308	0.015
-485.435	-200.000	-0.005	-0.294
-484.420	-18.757	-0.094	-0.059
-483.405	43.148	0.158	-0.146
-482.391	-75.874	-0.207	0.074
-481.376	129.095	0.171	0.220
-480.362	13.716	-0.123	-0.097
-479.347	-40.761	-0.259	-0.136
-478.332	62.679	0.143	-0.144
-477.318	229.311	-0.203	-0.334
-476.303	99.094	-0.259	-0.302
-475.289	800.000	0.035	-0.102
-474.274	70.561	-0.080	0.084
-473.259	-200.000	0.015	-0.127
-472.245	531.759	0.168	-0.402
-471.230	318.531	-0.231	0.442
-470.216	800.000	0.145	0.558
-469.201	15.288	0.188	0.149
-468.186	-119.858	0.366	-0.064
-467.172	107.270	0.114	-0.137
-466.157	-8.545	0.284	-0.193
-465.143	-99.106	0.203	-0.052
-464.128	207.416	-0.102	0.161
-463.113	4.621	-0.144	-0.107
-462.099	-59.968	0.216	0.093
-461.084	-109.068	0.286	-0.062
-460.070	484.604	0.087	0.199
-459.055	50.995	-0.052	-0.050
-458.040	229.996	-0.102	-0.168
-457.026	-145.384	-0.138	-0.013
-456.011	800.000	0.019	-0.081
-454.997	-40.950	0.150	0.078
-453.982	-153.555	0.137	0.010
-452.968	-76.679	-0.157	-0.056
-451.953	291.728	0.050	0.092
-450.938	-99.715	-0.261	0.066
-449.924	-102.453	-0.140	0.034
-448.909	-15.541	-0.244	-0.157
-447.895	130.518	-0.084	0.109
-446.880	-163.720	0.590	0.028
-445.865	11.002	-0.236	-0.182
-444.851	212.654	-0.183	-0.292
-443.836	336.332	0.176	-0.344
-442.822	-86.737	0.345	0.107
-441.807	-200.000	0.029	0.290
-440.792	-96.359	-0.345	0.092
-439.778	-200.000	0.010	0.063
-438.763	-200.000	0.018	-0.288
-437.749	-200.000	-0.017	0.347
-436.734	299.399	-0.289	0.538
-435.719	339.358	-0.140	0.275
-434.705	11.522	0.100	0.077
-433.690	15.831	-0.140	0.111
-432.676	-11.210	0.502	-0.333
-431.661	191.388	0.136	-0.207
-430.646	65.352	-0.176	-0.180
-429.632	800.000	-0.124	-0.465
-428.617	800.000	-0.138	0.409
-427.603	173.123	-0.114	-0.165
-426.588	58.815	-0.297	-0.295
-425.573	666.983	-0.014	-0.036
-424.559	499.704	0.048	0.111
-423.544	175.634	-0.256	-0.375
-422.530	152.622	-0.095	-0.131
-421.515	-60.512	-0.154	-0.066
-420.500	-23.382	-0.277	0.168
-419.486	413.866	0.022	0.048
-418.471	-200.000	0.034	-0.189
-417.457	-186.108	0.579	-0.009
-416.442	-23.698	-0.100	-0.061
-415.428	15.986	-0.302	0.240
-414.413	52.906	-0.108	0.104
-413.398	-107.660	0.122	-0.027
-412.384	127.582	-0.067	0.086
-411.369	-25.395	-0.157	0.093
-410.355	-200.000	0.012	-0.087
-409.340	-180.007	-0.197	0.004
-408.325	-123.934	-0.059	-0.009
-407.311	-200.000	-0.010	-0.237
-406.296	9.680	-0.326	-0.249
-405.282	-83.762	0.126	0.041
-404.267	-178.287	-0.117	-0.003
-403.252	-182.689	-0.200	-0.004
-402.238	-28.050	0.047	0.027
-401.223	800.000	-0.031	0.118
-400.209	-89.268	0.322	0.096
-399.194	-200.000	-0.015	-0.278
-398.179	718.864	-0.153	-0.410
-397.165	-200.000	-0.021	0.141
-396.150	285.386	0.155	0.282
-395.136	-48.114	0.256	-0.124
-394.121	89.500	0.092	0.103
-393.106	-175.929	-0.080	0.002
-392.092	-23.127	0.266	0.161
-391.077	-200.000	0.022	-0.269
-390.063	-34.263	0.118	0.065
-389.048	32.996	0.231	0.201
-388.033	-200.000	-0.007	-0.369
-387.019	-31.758	0.248	-0.140
-386.004	576.219	-0.213	0.524
-384.990	-20.888	-0.155	0.095
-383.975	4.440	0.112	0.082
-382.960	-114.750	0.115	-0.022
-381.946	190.497	0.201	0.304
-380.931	-18.818	-0.266	0.167
-379.917	745.863	-0.026	0.071
-378.902	246.074	-0.058	0.098
-377.888	694.391	0.036	-0.095
-376.873	219.810	-0.062	0.100
-375.858	62.966	-0.218	-0.220
-374.844	143.991	-0.070	0.094
-373.829	100.761	-0.159	-0.185
-372.815	185.032	0.056	0.084
-371.800	-155.578	0.398	0.026
-370.785	-126.315	0.311	-0.047
-369.771	800.000	0.046	-0.196
-368.756	-21.162	-0.082	-0.051
-367.742	-81.946	0.342	0.112
-366.727	-78.664	-0.017	-0.006
-365.712	-128.477	0.341	0.049
-364.698	-200.000	0.013	-0.254
-363.683	-94.969	-0.260	-0.071
-362.669	-76.346	-0.167	0.059
-361.654	-132.824	0.309	0.040
-360.639	43.534	0.147	0.135
-359.625	-59.324	-0.118	-0.051
-358.610	87.953	-0.239	0.266
-357.596	-19.584	0.236	-0.147
-356.581	-52.684	-0.090	0.042
-355.566	73.643	0.142	-0.150
-354.552	-158.680	0.407	0.024
-353.537	-112.366	-0.107	0.021
-352.523	-74.004	-0.266	0.097
-351.508	103.888	-0.024	-0.028
-350.493	-200.000	-0.054	0.317
-349.479	800.000	0.107	0.365
-348.464	-89.221	0.241	0.071
-347.450	35.029	-0.279	-0.246
-346.435	30.896	-0.159	0.137
-345.420	-12.306	-0.047	0.031
-344.406	-5.825	-0.202	0.139
-343.391	20.343	0.024	0.019
-342.377	-95.427	0.070	-0.019
-341.362	453.958	-0.070	-0.156
-340.348	-112.259	0.101	0.020
-339.333	-125.038	0.291	-0.045
-338.318	800.000	0.098	0.396
-337.304	5.159	-0.188	0.139
-336.289	-95.438	-0.190	-0.051
-335.275	-98.699	0.179	0.046
-334.260	-137.602	-0.225	0.025
-333.245	71.540	-0.228	0.238
-332.231	-77.972	-0.113	-0.039
-331.216	171.768	-0.044	-0.063
-330.202	-64.892	0.121	-0.049
-329.187	800.000	-0.034	0.096
-328.172	-39.089	-0.137	-0.072
-327.158	-140.585	0.260	0.027
-326.143	702.827	-0.187	0.495
-325.129	-106.037	-0.176	0.040
-324.114	-200.000	0.037	-0.212
-323.099	131.179	0.047	-0.061
-322.085	-102.817	0.169	-0.040
-321.070	-114.014	0.312	0.061
-320.056	800.000	0.086	0.259
-319.041	97.386	-0.206	-0.237
-318.026	755.325	-0.043	-0.118
-317.012	-147.386	0.280	0.024
-315.997	-5.812	0.203	-0.140
-314.983	800.000	0.070	-0.234
-313.968	-47.674	-0.289	0.141
-312.953	-36.826	0.367	-0.198
-311.939	496.840	0.054	-0.124
-310.924	414.862	0.090	0.192
-309.910	60.558	0.086	0.086
-308.895	-3.830	-0.075	-0.052
-307.880	44.803	-0.085	0.079
-306.866	-100.589	0.180	-0.045
-305.851	-171.558	0.172	-0.006
-304.837	-45.087	0.193	-0.096
-303.822	-171.955	-0.052	0.002
-302.807	-65.674	0.193	0.077
-301.793	-18.838	-0.168	0.105
-300.778	-158.309	-0.335	-0.020
-299.764	257.450	0.135	-0.233
-298.749	64.769	-0.045	0.046
-297.735	-136.426	0.172	0.020
-296.720	102.710	0.118	-0.138
-295.705	20.002	-0.150	-0.122
-294.691	-106.044	0.076	-0.017
-293.676	-200.000	-0.038	-0.293
-292.662	40.816	0.204	0.185
-291.647	-66.441	-0.068	0.027
-290.632	-39.868	0.098	0.051
-289.618	-106.157	-0.153	-0.035
-288.603	-145.752	0.187	0.017
-287.589	104.824	0.013	0.015
-286.574	-69.334	-0.251	-0.097
-285.559	150.892	0.142	0.193
-284.545	-200.000	-0.016	-0.353
-283.530	-95.715	-0.163	-0.044
-282.516	562.357	-0.134	0.324
-281.501	-3.292	0.084	-0.059
-280.486	-20.876	-0.234	-0.144
-279.472	-60.215	-0.184	-0.078
-278.457	-62.913	-0.312	-0.129
-277.443	-58.762	-0.088	-0.038
-276.428	67.130	-0.087	0.089
-275.413	-127.185	0.558	-0.082
-274.399	-168.550	0.169	0.006
-273.384	60.650	-0.167	-0.165
-272.370	800.000	-0.026	0.077
-271.355	-42.301	0.079	-0.040
-270.340	356.995	-0.066	0.131
-269.326	-200.000	-0.067	0.307
-268.311	-200.000	0.064	0.300
-267.297	156.560	0.042	0.059
-266.282	300.830	0.039	0.072
-265.267	44.836	0.075	-0.069
-264.253	419.417	-0.056	0.119
-263.238	466.487	0.008	0.019
-262.224	-12.609	-0.259	-0.170
-261.209	-46.936	-0.270	-0.132
-260.195	63.962	-0.138	0.139
-259.180	-30.559	0.219	0.124
-258.165	-95.207	0.306	0.082
-257.151	-200.000	0.004	-0.158
-256.136	469.589	0.048	-0.108
-255.122	-63.190	-0.260	0.107
-254.107	-90.827	-0.270	-0.078
-253.092	17.137	0.092	-0.073
-252.078	209.429	-0.073	0.114
-251.063	-111.520	-0.321	0.065
-250.049	122.859	-0.193	-0.242
-249.034	-24.920	0.223	0.133
-248.019	-89.532	-0.256	0.075
-247.005	-0.745	-0.273	-0.194
-245.990	-40.416	-0.138	-0.072
-244.976	-87.718	-0.316	0.095
-243.961	37.437	-0.224	-0.198
-242.946	-84.891	-0.124	-0.039
-241.932	-85.011	0.147	0.046
-240.917	60.235	-0.253	0.250
-239.903	-85.764	0.225	0.070
-238.888	2.208	0.358	0.259
-237.873	-42.956	-0.225	0.114
-236.859	-68.259	0.112	0.044
-235.844	-53.095	0.260	0.120
-234.830	800.000	-0.041	-0.157
-233.815	-86.951	-0.063	-0.019
-232.800	330.054	-0.030	0.058
-231.786	-200.000	0.056	0.366
-230.771	-129.570	0.252	-0.035
-229.757	-12.255	-0.063	-0.041
-228.742	800.000	0.063	-0.197
-227.727	-162.408	0.092	-0.005
-226.713	-10.848	0.210	-0.139
-225.698	-200.000	-0.314	0.001
-224.684	-200.000	-0.077	-0.345
-223.669	-33.306	-0.310	-0.172
-222.655	1.584	-0.176	-0.127
-221.640	800.000	-0.125	0.429
-220.625	-200.000	0.078	0.513
-219.611	800.000	-0.137	0.519
-218.596	-137.744	-0.092	0.010
-217.582	670.265	0.084	0.216
-216.567	-61.381	0.232	0.098
-215.552	-7.290	0.148	-0.100
-214.538	-200.000	-0.014	0.088
-213.523	99.666	0.151	-0.175
-212.509	283.229	0.035	0.063
-211.494	-200.000	0.022	0.359
-210.479	-200.000	0.033	0.317
-209.465	7.897	-0.256	-0.192
-208.450	-61.393	0.287	-0.121
-207.436	115.427	0.170	-0.208
-206.421	800.000	0.087	-0.270
-205.406	88.314	-0.234	-0.259
-204.392	-178.866	-0.075	0.002
-203.377	-11.917	-0.169	-0.111
-202.363	166.459	0.050	-0.071
-201.348	-88.034	-0.331	0.099
-200.333	-103.078	0.286	-0.068
-199.319	261.919	0.284	-0.491
-198.304	55.513	-0.114	0.110
-197.290	137.969	0.183	-0.240
-196.275	800.000	0.063	0.191
-195.260	29.602	-0.105	-0.089
-194.246	-136.420	-0.235	-0.027
-193.231	469.249	-0.043	0.097
-192.217	800.000	0.042	-0.129
-191.202	581.707	0.068	0.167
-190.187	-200.000	0.010	0.094
-189.173	-92.837	0.318	-0.089
-188.158	-200.000	0.033	-0.249
-187.144	-71.727	0.069	0.026
-186.129	-76.733	0.261	0.091
-185.114	-110.919	0.373	0.077
-184.100	-85.554	-0.145	0.045
-183.085	10.605	0.323	0.246
-182.071	-121.931	-0.062	-0.010
-181.056	-131.772	-0.296	-0.039
-180.042	-200.000	0.010	0.108
-179.027	800.000	-0.043	0.140
-178.012	-111.763	0.183	-0.037
-176.998	-127.474	-0.286	0.041
-175.983	446.972	-0.132	0.290
-174.969	-76.535	-0.084	0.030
-173.954	-32.760	0.271	-0.150
-172.939	474.205	-0.030	-0.067
-171.925	-57.531	0.098	0.043
-170.910	-123.087	0.343	-0.055
-169.896	-132.812	0.194	0.025
-168.881	-200.000	0.013	0.122
-167.866	-59.417	-0.241	0.104
-166.852	-200.000	-0.002	0.277
-165.837	-52.742	0.063	-0.029
-164.823	256.146	0.178	0.306
-163.808	-200.000	0.008	-0.294
-162.793	366.312	0.223	-0.448
-161.779	800.000	0.037	-0.130
-160.764	7.854	0.181	0.136
-159.750	172.978	0.128	-0.183
-158.735	-200.000	-0.001	0.009
-157.720	59.834	-0.098	0.097
-156.706	527.546	0.077	0.181
-155.691	82.919	0.045	0.049
-154.677	-167.405	-0.139	-0.006
-153.662	31.710	-0.087	0.075
-152.647	131.825	-0.154	0.197
-151.633	81.662	0.070	0.076
-150.618	-118.327	-0.091	-0.016
-149.604	-200.000	-0.041	-0.277
-148.589	-200.000	-0.061	-0.300
-147.574	-102.565	-0.197	-0.047
-146.560	117.563	-0.157	0.193
-145.545	-90.357	0.214	0.062
-144.531	-142.114	-0.320	0.032
-143.516	193.455	-0.138	0.209
-142.502	409.040	-0.121	-0.255
-141.487	656.787	-0.083	-0.213
-140.472	-120.009	0.176	-0.030
-139.458	-200.000	0.049	0.260
-138.443	707.664	-0.089	0.236
-137.429	-80.678	-0.041	-0.014
-136.414	-200.000	0.084	-0.000
-135.399	-67.295	0.168	0.066
-134.385	103.987	-0.255	0.299
-133.370	56.208	-0.265	0.257
-132.356	800.000	0.040	0.123
-131.341	-200.000	0.027	0.264
-130.326	628.737	0.058	0.146
-129.312	143.720	0.182	-0.242
-128.297	134.679	0.015	0.020
-127.283	-135.346	0.429	-0.051
-126.268	-200.000	-0.005	-0.320
-125.253	-200.000	-0.022	-0.179
-124.239	-73.640	0.332	0.120
-123.224	532.788	0.084	-0.199
-122.210	-50.615	0.389	0.183
-121.195	47.063	-0.225	0.209
-120.180	-56.649	0.188	0.083
-119.166	-10.879	-0.101	0.066
-118.151	-99.948	0.290	0.072
-117.137	-33.645	0.192	0.106
-116.122	-200.000	0.021	0.100
-115.107	210.640	-0.039	0.061
-114.093	59.069	-0.188	0.184
-113.078	-73.574	0.297	-0.108
-112.064	183.468	0.149	-0.219
-111.049	-166.216	0.386	-0.016
-110.034	67.452	0.118	-0.120
-109.020	164.905	0.222	0.313
-108.005	-109.453	0.368	-0.077
-106.991	-134.453	0.342	-0.042
-105.976	800.000	0.182	-0.536
-104.962	60.533	0.229	0.226
-103.947	-15.197	0.180	-0.115
-102.932	800.000	-0.161	-0.490
-101.918	-67.778	0.321	0.125
-100.903	656.755	-0.024	0.060
-99.889	-113.492	0.542	-0.106
-98.874	800.000	0.094	-0.284
-97.859	-43.597	0.233	-0.117
-96.845	800.000	-0.075	-0.214
-95.830	37.154	-0.171	-0.151
-94.816	-10.262	-0.189	-0.125
-93.801	-116.729	-0.278	-0.051
-92.786	-156.160	0.181	0.011
-91.772	-39.683	0.236	0.123
-90.757	13.542	-0.120	-0.093
-89.743	-75.431	0.144	-0.051
-88.728	251.564	0.094	-0.159
-87.713	-69.842	-0.238	-0.090
-86.699	-200.000	-0.045	-0.387
-85.684	-200.000	0.047	-0.285
-84.670	-200.000	-0.004	0.171
-83.655	66.288	-0.124	0.125
-82.640	-141.079	0.343	0.035
-81.626	58.444	0.136	0.133
-80.611	-200.000	0.053	-0.286
-79.597	63.958	0.203	-0.203
-78.582	-200.000	0.063	-0.403
-77.567	800.000	-0.067	-0.215
-76.553	706.872	-0.126	0.330
-75.538	-167.461	0.192	-0.008
-74.524	-200.000	0.018	-0.108
-73.509	800.000	0.022	-0.075
-72.494	24.209	-0.336	-0.276
-71.480	-107.062	0.236	0.052
-70.465	-200.000	0.008	-0.099
-69.451	222.593	0.142	-0.227
-68.436	-111.261	0.177	0.036
-67.422	386.517	0.063	0.130
-66.407	-28.187	-0.085	0.049
-65.392	-78.228	0.371	0.127
-64.378	-21.963	0.220	0.133
-63.363	-88.280	-0.172	-0.051
-62.349	-114.556	-0.121	-0.023
-61.334	20.601	-0.801	-0.644
-60.319	40.734	0.220	0.197
-59.305	-200.000	-0.073	-0.892
-58.290	140.864	0.612	0.803
-57.276	280.085	0.785	1.394
-56.261	-200.000	81.851	503.699
-55.246	553.880	1385.498	3311.047
-54.232	175.639	2653.199	3823.811
-53.217	120.077	2290.910	2824.021
-52.203	49.192	1731.922	1617.533
-51.188	41.195	1458.616	1309.906
-50.173	37.983	1414.153	1249.395
-49.159	56.577	1452.722	1404.202
-48.144	61.274	1471.089	1452.272
-47.130	41.701	1432.281	1289.316
-46.115	38.085	1415.615	1251.142
-45.100	37.900	1410.486	1245.378
-44.086	37.800	1408.382	1242.831
-43.071	37.830	1405.594	1240.516
-42.057	37.744	1403.509	1238.078
-41.042	37.845	1401.685	1237.061
-40.027	37.869	1400.429	1236.056
-39.013	37.828	1398.396	1233.955
-37.998	37.911	1396.397	1232.667
-36.984	38.008	1394.353	1231.423
-35.969	37.893	1392.947	1229.407
-34.954	37.982	1391.108	1228.299
-33.940	37.986	1389.422	1226.785
-32.925	38.018	1387.846	1225.548
-31.911	38.049	1386.682	1224.664
-30.896	38.091	1384.920	1223.324
-29.881	38.024	1383.877	1221.936
-28.867	38.007	1381.870	1220.007
-27.852	38.022	1380.757	1219.068
-26.838	38.032	1379.163	1217.677
-25.823	38.059	1377.286	1216.140
-24.809	38.019	1376.360	1215.021
-23.794	38.118	1374.940	1214.340
-22.779	38.212	1373.075	1213.225
-21.765	38.073	1372.303	1211.636
-20.750	37.941	1370.817	1209.457
-19.736	37.972	1369.231	1208.201
-18.721	37.824	1368.251	1206.371
-17.706	37.899	1366.718	1205.436
-16.692	37.985	1365.348	1204.708
-15.677	37.974	1364.453	1203.807
-14.663	37.981	1363.169	1202.665
-13.648	37.961	1361.672	1201.173
-12.633	37.930	1360.806	1200.170
-11.619	37.934	1359.821	1199.283
-10.604	37.985	1358.643	1198.509
-9.590	37.926	1358.093	1197.615
-8.575	37.935	1356.994	1196.650
-7.560	38.011	1355.979	1196.172
-6.546	37.757	1355.753	1194.371
-5.531	37.834	1354.512	1193.699
-4.517	37.866	1353.605	1193.053
-3.502	37.977	1352.139	1192.392
-2.487	37.879	1351.302	1191.004
-1.473	38.064	1346.939	1188.241
-0.458	36.944	1331.829	1168.116
0.556	31.014	1312.027	1125.833
1.571	26.925	1316.229	1104.511
2.586	25.673	1331.955	1109.892
3.600	25.005	1321.762	1097.210
4.615	18.612	1242.475	994.370
5.629	6.551	1154.902	858.851
6.644	0.189	1129.327	805.788
7.659	-0.336	1126.000	800.540
8.673	-0.381	1124.617	799.246
9.688	-0.540	1123.521	797.551
10.702	0.233	1122.730	801.030
11.717	8.194	1136.075	853.196
12.731	17.718	1149.651	914.637
13.746	17.982	1147.779	914.483
14.761	15.081	1142.899	895.028
15.775	13.760	1140.634	886.122
16.790	13.077	1138.944	881.088
17.804	12.676	1137.750	877.946
18.819	12.544	1136.630	876.304
19.834	12.323	1135.565	874.225
20.848	12.005	1134.912	871.953
21.863	11.832	1134.170	870.388
22.877	11.776	1133.062	869.161
23.892	11.738	1132.756	868.649
24.907	11.802	1132.074	868.389
25.921	11.791	1130.937	867.381
26.936	11.833	1129.766	866.628
27.950	11.872	1128.018	865.419
28.965	11.829	1126.010	863.572
29.980	11.905	1124.469	862.720
30.994	11.908	1122.820	861.389
32.009	12.042	1120.988	860.613
33.023	11.960	1120.236	859.532
34.038	11.878	1119.093	858.149
35.053	11.942	1117.939	857.522
36.067	11.841	1117.504	856.584
37.082	11.949	1116.082	855.984
38.096	11.886	1115.419	855.067
39.111	11.876	1114.069	853.909
40.126	12.047	1112.691	853.665
41.140	11.861	1111.851	851.974
42.155	11.845	1110.399	850.705
43.169	11.803	1109.159	849.459
44.184	11.755	1107.893	848.168
45.199	11.804	1106.629	847.379
46.213	11.792	1105.574	846.434
47.228	11.744	1104.038	844.935
48.242	11.777	1103.247	844.424
49.257	11.775	1102.004	843.390
50.271	11.779	1101.340	842.829
51.286	11.863	1100.287	842.378
52.301	11.824	1099.296	841.346
53.315	11.806	1098.325	840.434
54.330	11.730	1097.328	839.211
55.344	11.896	1096.335	839.228
56.359	12.035	1094.948	838.803
57.374	11.884	1094.441	837.564
58.388	11.825	1093.566	836.520
59.403	11.868	1092.413	835.787
60.417	11.854	1091.539	834.972
61.432	11.782	1090.785	833.951
62.447	11.840	1089.500	833.194
63.461	11.814	1089.427	832.932
64.476	11.828	1087.588	831.523
65.490	11.795	1087.177	830.966
66.505	11.931	1086.236	830.865
67.520	12.006	1085.272	830.435
68.534	11.848	1084.610	829.051
69.549	11.732	1084.449	828.268
70.563	11.843	1083.340	827.910
71.578	11.870	1081.732	826.745
72.593	11.899	1081.103	826.338
73.607	11.887	1080.548	825.778
74.622	11.892	1079.830	825.183
75.636	11.893	1079.482	824.851
76.651	11.740	1078.704	823.413
77.666	11.759	1077.865	822.794
78.680	11.874	1076.959	822.607
79.695	11.909	1076.315	822.215
80.709	11.950	1075.605	821.810
81.724	11.759	1075.207	820.471
82.739	11.887	1074.090	820.192
83.753	11.846	1072.879	818.987
84.768	11.901	1071.662	818.261
85.782	11.901	1070.481	817.287
86.797	11.847	1070.139	816.684
87.812	11.948	1068.770	816.072
88.826	11.947	1067.567	815.072
89.841	11.873	1066.811	814.059
90.855	11.871	1065.718	813.142
91.870	11.898	1064.960	812.624
92.884	11.939	1063.583	811.706
93.899	11.960	1062.915	811.230
94.914	11.905	1062.143	810.292
95.928	12.006	1061.140	809.957
96.943	11.861	1060.663	808.806
97.957	11.972	1059.429	808.341
98.972	11.886	1058.548	807.174
99.987	11.859	1057.576	806.227
101.001	11.925	1056.698	805.810
102.016	11.985	1055.549	805.156
103.030	11.861	1054.925	804.001
104.045	11.901	1053.793	803.266
105.060	12.020	1053.172	803.302
106.074	12.043	1051.816	802.312
107.089	11.989	1051.049	801.392
108.103	11.915	1050.022	800.174
109.118	11.986	1049.115	799.760
110.133	11.995	1048.219	799.050
111.147	12.111	1046.795	798.457
112.162	11.982	1046.020	797.167
113.176	12.099	1044.699	796.661
114.191	11.981	1044.562	795.910
115.206	11.983	1043.574	795.097
116.220	11.971	1042.770	794.358
117.235	12.055	1041.686	793.870
118.249	12.058	1040.625	793.002
119.264	12.147	1039.968	792.862
120.279	12.099	1038.751	791.636
121.293	12.055	1037.940	790.732
122.308	12.114	1036.849	790.118
123.322	12.050	1036.005	789.097
124.337	12.090	1034.645	788.180
125.352	12.087	1033.081	786.904
126.366	12.072	1031.970	785.919
127.381	12.159	1030.978	785.509
128.395	12.155	1029.434	784.243
129.410	12.178	1028.628	783.671
130.424	12.163	1027.797	782.895
131.439	12.069	1027.213	781.934
132.454	12.029	1026.355	781.020
133.468	12.221	1025.334	781.090
134.483	12.268	1024.267	780.432
135.497	12.235	1023.363	779.516
136.512	12.399	1022.243	779.372
137.527	12.132	1021.835	777.726
138.541	12.201	1021.119	777.442
139.556	12.374	1019.633	777.058
140.570	12.317	1018.843	776.121
141.585	12.328	1018.130	775.557
142.600	12.215	1016.944	774.054
143.614	12.357	1016.179	774.072
144.629	12.242	1015.193	772.711
145.643	12.215	1014.280	771.821
146.658	12.330	1013.188	771.461
147.673	12.241	1012.083	770.132
148.687	12.191	1011.289	769.226
149.702	12.203	1010.294	768.461
150.716	12.236	1009.590	768.010
151.731	12.220	1008.840	767.298
152.746	12.458	1007.466	767.293
153.760	12.335	1007.026	766.321
154.775	12.319	1006.271	765.602
155.789	12.298	1006.110	765.311
156.804	12.315	1004.975	764.463
157.819	12.316	1004.600	764.115
158.833	12.416	1003.609	763.757
159.848	12.320	1002.997	762.777
160.862	12.395	1001.594	761.992
161.877	12.414	1000.762	761.377
162.892	12.600	999.041	760.863
163.906	12.484	998.276	759.677
164.921	12.553	997.477	759.321
165.935	12.422	996.571	757.957
166.950	12.288	996.373	757.123
167.964	12.470	994.431	756.418
168.979	12.510	993.733	756.003
169.994	12.528	992.618	755.170
171.008	12.468	991.977	754.340
172.023	12.562	991.127	754.057
173.037	12.430	989.481	752.134
174.052	12.383	989.455	751.833
175.067	12.517	988.740	751.839
176.081	12.478	988.568	751.460
177.096	12.585	987.455	751.037
178.110	12.574	986.449	750.155
179.125	12.463	985.991	749.237
180.140	12.486	985.815	749.138
181.154	12.476	985.175	748.542
182.169	12.507	984.505	748.105
183.183	12.767	983.525	748.478
184.198	12.821	982.289	747.714
185.213	12.709	981.653	746.658
186.227	12.675	981.387	746.236
187.242	12.640	980.732	745.514
188.256	12.704	979.800	745.026
189.271	12.721	978.679	744.186
190.286	12.713	977.955	743.535
191.300	12.675	977.599	743.027
192.315	12.666	976.833	742.337
193.329	12.641	976.077	741.584
194.344	12.777	975.090	741.384
195.359	12.770	974.402	740.761
196.373	12.798	973.697	740.284
197.388	12.711	973.172	739.429
198.402	12.809	972.462	739.264
199.417	12.737	972.133	738.627
200.432	12.798	970.958	737.940
201.446	12.743	970.528	737.303
202.461	12.823	969.706	736.972
203.475	12.774	969.171	736.280
204.490	12.742	968.219	735.348
205.504	12.789	967.340	734.826
206.519	12.882	966.956	734.885
207.534	12.745	966.468	733.837
208.548	12.843	965.766	733.677
209.563	12.850	965.035	733.090
210.577	12.937	964.161	732.746
211.592	12.964	963.374	732.202
212.607	12.942	962.224	731.165
213.621	13.038	961.550	731.015
214.636	13.056	960.883	730.521
215.650	13.120	960.020	730.086
216.665	13.103	959.665	729.674
217.680	12.993	958.463	728.209
218.694	12.971	957.418	727.255
219.709	13.029	957.056	727.172
220.723	13.067	956.275	726.682
221.738	13.089	955.548	726.159
222.753	13.157	954.816	725.837
223.767	13.152	953.899	725.056
224.782	13.140	953.778	724.847
225.796	13.133	952.740	723.963
226.811	13.225	952.269	723.942
227.826	13.176	951.200	722.855
228.840	13.160	950.220	721.977
229.855	13.218	949.631	721.717
230.869	13.180	949.018	721.019
231.884	13.171	948.146	720.258
232.899	13.307	947.315	720.154
233.913	13.309	946.625	719.573
234.928	13.247	946.086	718.831
235.942	13.332	945.431	718.639
236.957	13.290	944.960	718.034
237.972	13.209	944.141	716.998
238.986	13.406	943.419	717.241
240.001	13.334	943.099	716.621
241.015	13.462	941.801	716.127
242.030	13.484	941.151	715.661
243.045	13.446	940.647	715.051
244.059	13.351	940.296	714.311
245.074	13.474	939.137	713.899
246.088	13.433	938.488	713.166
247.103	13.443	937.366	712.292
248.117	13.395	937.196	711.893
249.132	13.524	936.285	711.694
250.147	13.544	935.223	710.907
251.161	13.545	934.732	710.476
252.176	13.464	933.993	709.504
253.190	13.733	933.065	709.889
254.205	13.754	932.529	709.507
255.220	13.618	932.290	708.681
256.234	13.788	931.082	708.426
257.249	13.765	930.254	707.637
258.263	13.875	929.389	707.383
259.278	13.877	928.440	706.607
260.293	13.807	928.023	705.930
261.307	13.847	927.297	705.486
262.322	13.779	926.709	704.685
263.336	13.622	925.752	703.229
264.351	13.609	924.360	702.057
265.366	13.751	923.715	702.106
266.380	13.776	923.409	701.916
267.395	13.702	922.623	700.945
268.409	13.864	921.584	700.777
269.424	13.896	920.707	700.184
270.439	13.845	919.962	699.340
271.453	14.018	919.807	699.888
272.468	13.855	919.354	698.795
273.482	13.910	918.272	698.143
274.497	13.980	917.406	697.716
275.512	13.841	916.782	696.595
276.526	13.984	916.467	696.894
277.541	14.060	915.926	696.741
278.555	13.897	915.165	695.417
279.570	13.978	914.110	694.895
280.585	14.033	913.134	694.317
281.599	14.092	912.316	693.881
282.614	13.983	911.748	692.933
283.628	13.951	910.882	692.081
284.643	14.168	910.211	692.412
285.657	14.166	909.633	691.904
286.672	14.065	908.829	690.813
287.687	14.111	908.783	690.906
288.701	14.119	908.271	690.491
289.716	14.121	907.352	689.739
290.730	14.204	906.323	689.239
291.745	14.237	905.657	688.809
292.760	14.265	904.976	688.345
293.774	14.384	904.411	688.345
294.789	14.288	904.216	687.741
295.803	14.346	903.172	687.125
296.818	14.393	902.432	686.695
297.833	14.436	901.837	686.358
298.847	14.339	900.790	685.103
299.862	14.586	899.870	685.354
300.876	14.407	899.725	684.448
301.891	14.376	899.074	683.768
302.906	14.304	898.836	683.231
303.920	14.358	897.978	682.739
304.935	14.388	897.102	682.134
305.949	14.444	896.933	682.177
306.964	14.620	895.698	681.895
307.979	14.667	895.351	681.760
308.993	14.686	894.656	681.252
310.008	14.579	894.194	680.401
311.022	14.616	893.340	679.841
312.037	14.490	893.214	679.174
313.052	14.618	892.147	678.821
314.066	14.512	891.913	678.155
315.081	14.596	891.288	677.962
316.095	14.520	890.777	677.203
317.110	14.727	889.934	677.339
318.125	14.508	889.505	676.068
319.139	14.531	888.741	675.518
320.154	14.538	888.339	675.183
321.168	14.582	888.130	675.141
322.183	14.694	887.331	674.927
323.197	14.791	886.350	674.513
324.212	14.906	886.050	674.689
325.227	14.842	885.673	674.084
326.241	14.838	885.283	673.712
327.256	14.909	884.519	673.355
328.270	14.892	883.513	672.463
329.285	14.772	883.072	671.584
330.300	14.771	882.402	671.011
331.314	14.767	882.140	670.740
332.329	14.930	881.571	670.902
333.343	14.994	880.849	670.549
334.358	14.945	880.147	669.758
335.373	14.963	880.167	669.786
336.387	14.965	879.643	669.336
337.402	14.952	879.364	669.012
338.416	14.879	878.940	668.338
339.431	14.914	878.443	668.040
340.446	15.013	877.880	667.948
341.460	14.971	877.224	667.222
342.475	14.881	876.880	666.544
343.489	14.899	876.709	666.428
344.504	15.065	875.868	666.391
345.519	15.062	875.525	666.058
346.533	15.224	874.545	665.895
347.548	15.209	874.267	665.566
348.562	15.290	873.950	665.587
349.577	15.205	873.628	664.948
350.592	15.374	872.643	664.809
351.606	15.258	872.158	663.920
352.621	15.080	871.569	662.709
353.635	15.205	870.475	662.312
354.650	15.230	869.906	661.919
355.665	14.980	869.411	660.498
356.679	15.018	868.735	660.075
357.694	15.198	867.639	659.892
358.708	15.283	866.388	659.216
359.723	15.274	866.433	659.157
360.738	15.279	866.342	659.049
361.752	15.407	864.881	658.383
362.767	15.394	864.470	657.959
363.781	15.392	863.735	657.334
364.796	15.306	863.767	656.964
365.810	15.402	863.089	656.764
366.825	15.309	862.663	656.018
367.840	15.400	862.110	655.895
368.854	15.340	861.692	655.288
369.869	15.431	861.089	655.125
370.883	15.427	860.525	654.622
371.898	15.376	860.112	654.051
372.913	15.476	859.580	653.978
373.927	15.546	859.023	653.768
374.942	15.595	858.782	653.718
375.956	15.546	858.383	653.169
376.971	15.547	857.781	652.655
377.986	15.616	857.221	652.438
379.000	15.487	856.833	651.584
380.015	15.629	856.053	651.486
381.029	15.663	855.296	650.984
382.044	15.572	854.963	650.319
383.059	15.646	854.346	650.079
384.073	15.686	853.846	649.796
385.088	15.633	853.181	649.027
386.102	15.637	852.535	648.495
387.117	15.700	851.875	648.179
388.132	15.712	851.120	647.593
389.146	15.726	850.857	647.389
390.161	15.798	850.117	647.044
391.175	15.708	850.074	646.609
392.190	15.748	848.993	645.882
393.205	15.600	848.939	645.217
394.219	15.666	848.695	645.226
395.234	15.786	847.914	645.037
396.248	15.659	847.677	644.313
397.263	15.626	847.504	643.998
398.278	15.669	846.911	643.656
399.292	15.913	846.060	643.885
400.307	15.825	845.410	642.995
401.321	15.716	844.784	642.048
402.336	15.814	844.104	641.845
403.350	15.708	844.060	641.353
404.365	15.813	843.415	641.207
405.380	15.608	843.035	640.078
406.394	15.558	842.531	639.449
407.409	15.708	841.925	639.504
408.423	15.785	841.437	639.370
409.438	15.739	841.199	638.958
410.453	15.802	840.187	638.372
411.467	15.640	839.992	637.551
412.482	15.681	839.502	637.277
413.496	15.834	838.962	637.393
414.511	15.768	838.908	637.044
415.526	15.813	838.162	636.594
416.540	15.867	837.682	636.374
417.555	15.941	836.951	636.043
418.569	15.856	836.593	635.393
419.584	15.986	836.154	635.495
420.599	15.918	835.813	634.922
421.613	149.468	1359.225	1776.041
422.628	130.747	1435.489	1776.181
