DTS Sentinel unit serial number:	SN413079Multiplexer serial number:	ORYXHardware model number:	OX4-SRSoftware version number:	ORYX F/W v4.00 Oryx Data Collector v3.7.2.0data status	okinstallation	princeton_trtdifferential loss correction	single-endedforward channel	channel 1reverse channel	N/Adate	2019/09/15time	07:42:35forward acquisition time	60.00reverse acquisition time	0.00gamma	496.2192k internal	0.2324k external	0.2324temperature offset calibration	1.0006default loss term (dB/km)	0.3790temperature slope calibration	1.0000multiplexer offset coefficient	1.0000multiplexer slope coefficient	1.0000fibre end	0.00T internal ref (°C)	30.62T ext. ref 1 (°C)	4.97T ext. ref 2 (°C)	25.69length (m)	temperature (°C)	Stokes	anti-Stokes-747.200	177.915	-0.102	-0.150
-746.185	553.586	-0.086	0.209
-745.171	742.257	0.080	0.217
-744.156	121.002	-0.259	0.325
-743.142	-200.000	-0.084	0.500
-742.127	105.626	-0.349	0.417
-741.112	-7.241	-0.180	0.123
-740.098	47.280	0.251	0.236
-739.083	-88.321	0.269	0.081
-738.069	-107.932	-0.373	-0.082
-737.054	-200.000	-0.018	0.116
-736.039	-132.829	0.127	0.016
-735.025	49.108	0.114	-0.108
-734.010	-131.802	-0.203	-0.027
-732.996	-76.329	0.200	-0.071
-731.981	-152.271	-0.290	-0.021
-730.966	-1.931	0.036	-0.026
-729.952	-27.794	0.088	0.051
-728.937	-115.151	0.223	-0.043
-727.923	-46.281	-0.190	0.094
-726.908	-142.372	-0.127	0.013
-725.894	41.398	0.268	0.244
-724.879	-5.454	-0.223	-0.155
-723.864	-200.000	0.014	0.150
-722.850	-200.000	-0.009	0.296
-721.835	-200.000	-0.038	-0.276
-720.821	-68.247	-0.447	0.175
-719.806	76.877	-0.190	0.203
-718.791	-200.000	-0.003	-0.259
-717.777	-106.616	0.165	-0.037
-716.762	-96.508	-0.245	-0.065
-715.748	32.850	-0.090	-0.079
-714.733	-39.713	-0.370	0.195
-713.718	-55.439	-0.316	-0.143
-712.704	-110.431	0.326	0.068
-711.689	-200.000	-0.045	-0.305
-710.675	-115.823	0.593	0.112
-709.660	699.083	-0.067	0.178
-708.645	264.903	0.140	0.246
-707.631	-200.000	-0.002	0.298
-706.616	213.210	-0.070	0.112
-705.602	680.121	-0.104	0.274
-704.587	-200.000	0.022	0.117
-703.572	60.561	-0.032	-0.032
-702.558	-82.476	-0.260	0.085
-701.543	-200.000	0.029	0.159
-700.529	45.665	-0.367	0.341
-699.514	-150.939	-0.316	0.024
-698.499	13.791	-0.110	0.086
-697.485	-200.000	0.031	-0.262
-696.470	800.000	0.045	0.159
-695.456	-152.755	-0.371	0.027
-694.441	515.313	-0.063	0.149
-693.426	-141.028	-0.115	0.012
-692.412	800.000	-0.143	-0.530
-691.397	-200.000	-0.034	0.233
-690.383	-74.479	0.099	0.036
-689.368	-71.994	-0.352	-0.132
-688.354	800.000	-0.090	-0.377
-687.339	-0.118	0.166	-0.119
-686.324	800.000	0.126	0.382
-685.310	800.000	-0.035	-0.111
-684.295	84.353	0.091	0.100
-683.281	-151.151	-0.227	-0.017
-682.266	-23.057	-0.431	-0.261
-681.251	-140.149	-0.061	0.007
-680.237	-27.310	-0.016	0.009
-679.222	-12.500	0.143	-0.094
-678.208	-68.165	-0.280	0.110
-677.193	-28.690	-0.128	-0.074
-676.178	541.633	-0.070	0.169
-675.164	800.000	0.014	-0.050
-674.149	56.029	-0.122	0.119
-673.135	-200.000	0.017	-0.091
-672.120	686.681	-0.056	-0.146
-671.105	7.694	0.147	-0.110
-670.091	360.534	-0.088	0.178
-669.076	241.665	-0.156	0.262
-668.062	163.335	-0.234	0.331
-667.047	195.923	0.186	0.285
-666.032	-45.444	-0.092	-0.046
-665.018	244.719	-0.084	-0.142
-664.003	54.480	0.089	0.087
-662.989	-131.040	-0.198	0.027
-661.974	-200.000	-0.003	0.034
-660.959	800.000	-0.109	-0.313
-659.945	-38.872	-0.288	0.153
-658.930	-57.018	0.364	-0.162
-657.916	-30.345	0.430	0.246
-656.901	-20.438	-0.155	-0.096
-655.886	-109.305	-0.162	-0.035
-654.872	-200.000	-0.034	0.161
-653.857	211.259	-0.100	-0.158
-652.843	262.543	0.144	0.251
-651.828	-98.574	-0.382	0.098
-650.814	-158.406	-0.325	0.019
-649.799	-106.277	-0.112	0.025
-648.784	369.727	0.080	-0.163
-647.770	47.072	0.178	0.167
-646.755	43.000	-0.100	0.092
-645.741	780.021	0.107	-0.295
-644.726	-200.000	-0.017	-0.128
-643.711	-200.000	0.006	0.030
-642.697	-104.623	-0.124	0.029
-641.682	60.101	0.341	0.339
-640.668	-5.938	0.251	-0.173
-639.653	-172.008	0.170	-0.006
-638.638	43.467	-0.157	0.145
-637.624	-108.902	0.125	0.027
-636.609	800.000	0.042	0.127
-635.595	152.550	0.051	-0.071
-634.580	33.779	-0.190	-0.166
-633.565	-10.716	-0.079	-0.052
-632.551	-200.000	-0.002	-0.370
-631.536	-200.000	-0.001	0.288
-630.522	-25.618	0.209	0.124
-629.507	195.533	0.057	-0.087
-628.492	21.311	0.134	-0.110
-627.478	-15.475	0.302	-0.193
-626.463	5.518	-0.115	0.085
-625.449	-129.007	-0.116	0.016
-624.434	-148.154	0.426	-0.035
-623.419	4.152	0.268	-0.197
-622.405	10.576	-0.199	-0.152
-621.390	166.516	0.107	-0.153
-620.376	301.928	0.145	-0.269
-619.361	538.415	0.135	0.323
-618.346	36.957	-0.098	-0.087
-617.332	-96.179	0.244	-0.065
-616.317	-124.822	0.081	0.013
-615.303	-40.000	0.089	0.046
-614.288	-200.000	0.043	-0.205
-613.273	-200.000	0.025	0.352
-612.259	799.721	0.061	0.169
-611.244	-23.173	-0.138	-0.083
-610.230	-74.345	0.338	0.123
-609.215	-59.623	-0.232	-0.100
-608.201	235.724	0.093	-0.154
-607.186	-87.089	0.298	0.091
-606.171	-200.000	0.013	0.315
-605.157	90.122	-0.192	0.215
-604.142	36.184	-0.272	0.241
-603.128	-52.575	-0.349	0.162
-602.113	-200.000	-0.028	-0.176
-601.098	469.223	-0.020	-0.044
-600.084	-59.167	0.225	0.097
-599.069	9.946	-0.061	0.046
-598.055	68.073	0.079	0.081
-597.040	-71.623	0.199	-0.074
-596.025	-41.587	-0.295	-0.152
-595.011	132.840	-0.267	-0.346
-593.996	-200.000	-0.049	-0.358
-592.982	-64.340	0.226	-0.092
-591.967	-47.750	0.661	-0.321
-590.952	-200.000	0.011	0.133
-589.938	-145.373	0.190	0.017
-588.923	-134.695	0.213	0.026
-587.909	55.508	-0.103	0.100
-586.894	-63.024	-0.409	-0.170
-585.879	188.094	0.041	0.061
-584.865	-200.000	-0.029	-0.128
-583.850	-64.365	0.101	-0.041
-582.836	-27.186	0.196	0.115
-581.821	800.000	-0.170	-0.532
-580.806	65.351	-0.228	-0.232
-579.792	139.709	-0.066	0.087
-578.777	-75.237	-0.152	-0.054
-577.763	-98.269	-0.329	-0.085
-576.748	19.119	-0.165	-0.132
-575.733	800.000	-0.027	-0.082
-574.719	-79.048	-0.426	0.145
-573.704	800.000	-0.127	-0.393
-572.690	-136.353	0.377	-0.044
-571.675	-200.000	0.010	0.134
-570.661	376.879	0.067	0.138
-569.646	-116.727	0.340	-0.063
-568.631	800.000	0.094	-0.290
-567.617	-50.229	0.121	0.057
-566.602	142.120	-0.197	-0.262
-565.588	800.000	0.076	-0.293
-564.573	-60.166	0.054	-0.023
-563.558	-200.000	-0.003	0.288
-562.544	-200.000	-0.043	-0.214
-561.529	800.000	-0.109	-0.348
-560.515	800.000	0.059	0.198
-559.500	-111.808	0.208	-0.042
-558.485	-57.430	-0.339	-0.149
-557.471	96.337	0.151	-0.173
-556.456	178.233	0.073	0.107
-555.442	-160.276	0.220	-0.012
-554.427	147.114	-0.088	0.119
-553.412	40.825	-0.292	0.264
-552.398	118.038	-0.133	0.164
-551.383	800.000	0.082	0.342
-550.369	-200.000	0.016	0.364
-549.354	80.288	0.147	0.159
-548.339	-89.098	-0.297	-0.088
-547.325	-58.979	-0.250	-0.108
-546.310	105.905	-0.036	-0.043
-545.296	-141.757	-0.084	0.008
-544.281	20.336	-0.159	0.129
-543.266	800.000	0.025	0.085
-542.252	800.000	-0.069	0.266
-541.237	-64.199	-0.062	-0.025
-540.223	169.791	0.072	-0.104
-539.208	-150.567	0.093	0.007
-538.193	-200.000	-0.005	-0.094
-537.179	158.467	0.165	0.229
-536.164	291.583	0.116	0.211
-535.150	800.000	0.026	-0.079
-534.135	-60.832	-0.159	-0.067
-533.121	11.168	-0.150	0.115
-532.106	61.692	-0.198	-0.198
-531.091	-125.334	0.302	-0.046
-530.077	-200.000	0.270	0.000
-529.062	-200.000	-0.035	-0.173
-528.048	5.245	-0.109	-0.080
-527.033	-10.488	-0.369	0.245
-526.018	-200.000	0.011	-0.084
-525.004	-69.676	0.113	0.043
-523.989	-200.000	0.005	-0.150
-522.975	139.171	-0.060	-0.078
-521.960	-0.935	0.169	-0.120
-520.945	67.247	-0.135	-0.138
-519.931	800.000	0.145	-0.418
-518.916	-29.816	-0.228	0.130
-517.902	-200.000	-0.029	0.133
-516.887	-65.888	0.208	0.083
-515.872	-200.000	-0.126	0.594
-514.858	64.616	-0.190	0.191
-513.843	-101.866	-0.151	-0.037
-512.829	800.000	0.026	-0.097
-511.814	800.000	-0.074	0.221
-510.799	-139.968	0.351	0.037
-509.785	-100.654	-0.257	-0.063
-508.770	297.329	-0.191	0.351
-507.756	440.501	0.060	-0.131
-506.741	565.653	-0.087	-0.211
-505.726	-140.657	-0.353	-0.037
-504.712	220.017	-0.102	0.164
-503.697	273.192	-0.120	-0.212
-502.683	374.098	0.118	0.240
-501.668	257.277	-0.096	0.164
-500.653	-200.000	-0.006	-0.204
-499.639	421.051	0.126	-0.271
-498.624	-105.893	0.264	-0.059
-497.610	800.000	0.053	-0.153
-496.595	-92.557	-0.579	0.162
-495.581	-112.756	0.105	0.021
-494.566	528.506	0.038	-0.089
-493.551	754.217	0.102	0.274
-492.537	242.841	0.178	0.298
-491.522	-111.644	-0.034	0.007
-490.508	800.000	-0.068	0.208
-489.493	324.485	-0.054	0.102
-488.478	800.000	-0.065	-0.262
-487.464	346.965	0.164	0.323
-486.449	207.950	-0.126	0.197
-485.435	-103.198	0.154	-0.036
-484.420	-21.455	0.096	-0.059
-483.405	166.219	-0.077	-0.109
-482.391	-200.000	-0.027	0.148
-481.376	62.297	0.051	-0.050
-480.362	115.629	0.246	-0.301
-479.347	30.686	0.229	0.196
-478.332	800.000	0.031	0.095
-477.318	-200.000	0.053	0.348
-476.303	61.067	0.126	-0.125
-475.289	-65.939	0.077	0.031
-474.274	800.000	-0.033	0.109
-473.259	-200.000	0.010	-0.221
-472.245	-22.125	-0.110	0.067
-471.230	-144.084	0.135	-0.013
-470.216	-60.847	0.121	0.051
-469.201	358.765	0.139	0.277
-468.186	-169.656	0.508	0.018
-467.172	184.509	-0.090	0.133
-466.157	391.137	-0.070	0.146
-465.143	98.525	-0.238	0.274
-464.128	86.904	-0.084	0.093
-463.113	-200.000	0.002	0.080
-462.099	19.071	0.329	-0.264
-461.084	135.766	-0.130	0.169
-460.070	-20.236	0.186	-0.115
-459.055	210.320	0.144	-0.225
-458.040	550.339	-0.139	0.334
-457.026	10.139	0.237	0.180
-456.011	28.166	-0.068	-0.058
-454.997	-200.000	0.014	0.188
-453.982	137.231	-0.083	0.108
-452.968	35.846	-0.074	0.065
-451.953	204.064	0.145	0.224
-450.938	-200.000	-0.037	0.327
-449.924	-174.970	0.092	-0.003
-448.909	-78.984	-0.045	0.015
-447.895	-81.573	0.184	0.060
-446.880	-147.281	-0.188	-0.016
-445.865	-40.185	0.264	0.137
-444.851	-120.644	0.222	0.038
-443.836	29.973	0.047	0.040
-442.822	-115.843	-0.138	-0.026
-441.807	-63.475	-0.531	-0.218
-440.792	236.123	-0.124	0.205
-439.778	-200.000	-0.040	0.289
-438.763	86.402	0.059	0.065
-437.749	122.817	0.188	0.234
-436.734	-43.907	-0.297	-0.149
-435.719	-200.000	0.043	-0.232
-434.705	54.706	0.093	-0.090
-433.690	-3.377	-0.239	-0.166
-432.676	484.015	-0.064	-0.145
-431.661	-155.056	0.336	0.022
-430.646	-200.000	-0.008	-0.041
-429.632	72.249	0.156	0.162
-428.617	-200.000	-0.011	-0.101
-427.603	590.027	0.145	-0.357
-426.588	-200.000	-0.034	0.245
-425.573	-200.000	0.049	0.217
-424.559	-200.000	-0.006	0.202
-423.544	-200.000	-0.014	-0.390
-422.530	-20.391	-0.208	0.127
-421.515	-61.541	-0.312	0.131
-420.500	-171.083	0.128	-0.004
-419.486	-200.000	0.049	0.387
-418.471	-200.000	-0.049	-0.288
-417.457	223.676	0.080	-0.128
-416.442	105.655	-0.146	0.172
-415.428	14.705	-0.222	0.173
-414.413	159.198	-0.144	-0.200
-413.398	779.876	0.074	0.201
-412.384	-131.286	0.384	0.051
-411.369	-60.622	0.325	0.137
-410.355	22.797	-0.200	-0.163
-409.340	-117.411	0.177	0.032
-408.325	-92.539	0.174	0.049
-407.311	-104.808	-0.206	0.047
-406.296	-147.297	-0.402	-0.034
-405.282	7.031	0.152	0.113
-404.267	550.969	0.069	-0.164
-403.252	-123.724	0.038	-0.006
-402.238	-142.149	-0.161	0.016
-401.223	430.374	-0.161	0.347
-400.209	-179.785	0.317	0.007
-399.194	800.000	0.032	0.109
-398.179	-200.000	0.011	-0.231
-397.165	-134.589	0.291	-0.035
-396.150	-126.043	-0.230	-0.034
-395.136	60.658	0.213	-0.210
-394.121	115.043	0.324	-0.394
-393.106	-93.289	-0.323	-0.089
-392.092	160.510	0.292	-0.405
-391.077	204.948	-0.211	0.325
-390.063	73.314	0.135	0.140
-389.048	-200.000	-0.048	0.271
-388.033	-17.579	-0.199	0.124
-387.019	36.271	0.141	0.124
-386.004	420.630	-0.056	-0.120
-384.990	-139.090	0.223	0.024
-383.975	-64.123	0.175	-0.071
-382.960	31.593	-0.274	-0.234
-381.946	336.995	0.054	-0.104
-380.931	168.098	0.079	-0.111
-379.917	-20.836	0.161	-0.098
-378.902	-200.000	-0.045	-0.409
-377.888	-156.215	0.207	-0.013
-376.873	-39.262	-0.311	-0.162
-375.858	800.000	0.078	-0.298
-374.844	-136.470	-0.094	0.011
-373.829	-74.839	-0.217	-0.077
-372.815	-24.255	0.198	0.118
-371.800	20.394	-0.164	0.132
-370.785	800.000	-0.073	-0.283
-369.771	162.850	-0.051	0.071
-368.756	-200.000	-0.012	0.100
-367.742	500.022	-0.083	0.192
-366.727	800.000	-0.062	-0.217
-365.712	-200.000	-0.019	-0.105
-364.698	126.592	0.069	-0.087
-363.683	122.453	-0.144	0.179
-362.669	-110.792	0.094	-0.019
-361.654	-86.319	0.143	0.044
-360.639	-35.636	0.218	0.117
-359.625	-151.966	0.176	0.013
-358.610	-25.773	0.141	-0.083
-357.596	104.580	-0.102	-0.119
-356.581	61.081	-0.084	-0.083
-355.566	-93.045	0.192	0.053
-354.552	-91.941	-0.347	-0.098
-353.537	5.844	0.099	-0.073
-352.523	-138.500	0.181	-0.020
-351.508	-76.276	0.203	-0.071
-350.493	-67.480	0.109	-0.043
-349.479	-34.053	-0.253	-0.138
-348.464	800.000	-0.059	0.177
-347.450	-139.933	0.097	0.010
-346.435	-99.124	0.309	-0.078
-345.420	113.133	0.199	0.240
-344.406	103.101	0.204	0.237
-343.391	22.590	-0.107	0.087
-342.377	732.629	0.063	0.167
-341.362	-151.348	-0.260	0.019
-340.348	-200.000	-0.012	-0.302
-339.333	470.054	0.132	0.294
-338.318	-101.079	-0.315	-0.077
-337.304	42.836	-0.261	-0.237
-336.289	341.669	0.141	0.273
-335.275	328.424	-0.151	-0.287
-334.260	-145.363	0.290	0.026
-333.245	411.720	-0.057	0.121
-332.231	16.634	-0.250	0.196
-331.216	-200.000	-0.010	-0.091
-330.202	452.322	0.055	-0.121
-329.187	106.732	0.221	-0.261
-328.172	-128.220	-0.168	0.024
-327.158	631.340	-0.161	-0.406
-326.143	800.000	-0.036	-0.137
-325.129	-45.863	-0.064	-0.032
-324.114	-93.678	-0.324	-0.089
-323.099	-200.000	-0.010	-0.125
-322.085	-52.735	0.077	0.035
-321.070	-47.444	-0.238	0.115
-320.056	65.927	-0.090	0.091
-319.041	127.983	-0.088	-0.111
-318.026	216.300	0.193	0.305
-317.012	-17.683	0.093	0.058
-315.997	39.782	-0.148	0.132
-314.983	96.382	-0.073	0.083
-313.968	13.759	0.273	-0.211
-312.953	223.167	-0.049	0.078
-311.939	419.454	-0.044	0.093
-310.924	479.028	0.161	0.363
-309.910	-121.248	-0.034	0.006
-308.895	73.083	-0.156	0.161
-307.880	225.700	0.115	0.185
-306.866	-178.472	-0.470	0.011
-305.851	-200.000	-0.032	0.168
-304.837	-200.000	0.019	0.098
-303.822	-172.219	0.225	-0.007
-302.807	800.000	0.021	-0.065
-301.793	-134.271	-0.072	-0.009
-300.778	687.795	-0.106	0.275
-299.764	346.118	-0.147	-0.287
-298.749	36.700	0.101	-0.088
-297.735	-200.000	0.001	-0.233
-296.720	-49.956	-0.421	-0.198
-295.705	-200.000	-0.059	0.372
-294.691	800.000	0.086	0.311
-293.676	-16.608	0.123	-0.077
-292.662	-200.000	-0.052	-0.258
-291.647	-5.603	0.149	-0.101
-290.632	35.534	0.421	0.366
-289.618	800.000	0.062	0.181
-288.603	-37.336	-0.174	-0.092
-287.589	-103.090	0.050	0.012
-286.574	-193.095	0.502	0.004
-285.559	136.454	-0.304	0.393
-284.545	-130.996	-0.389	-0.051
-283.530	-200.000	0.010	-0.320
-282.516	-108.271	0.398	-0.085
-281.501	111.351	-0.259	0.310
-280.486	242.207	-0.081	0.135
-279.472	716.795	-0.034	-0.089
-278.457	-54.651	-0.135	0.061
-277.443	-168.660	0.074	0.003
-276.428	-200.000	-0.022	0.382
-275.413	10.811	0.257	0.195
-274.399	16.958	-0.213	-0.167
-273.384	-136.531	-0.095	-0.011
-272.370	484.717	0.053	-0.120
-271.355	238.727	-0.273	-0.450
-270.340	207.505	-0.046	-0.072
-269.326	3.569	-0.155	0.112
-268.311	525.096	0.065	-0.152
-267.297	800.000	-0.009	-0.034
-266.282	800.000	0.089	0.276
-265.267	800.000	0.062	0.253
-264.253	6.110	0.346	-0.254
-263.238	-200.000	0.009	0.275
-262.224	-8.306	0.196	-0.131
-261.209	476.594	-0.127	-0.284
-260.195	372.446	0.048	-0.096
-259.180	-91.160	-0.417	0.118
-258.165	120.375	-0.121	0.149
-257.151	-200.000	-0.013	0.259
-256.136	70.210	-0.104	0.107
-255.122	356.675	-0.221	0.436
-254.107	-200.000	-0.011	-0.142
-253.092	-200.000	0.029	-0.162
-252.078	426.222	0.129	-0.274
-251.063	444.325	-0.117	-0.255
-250.049	-200.000	-0.005	0.182
-249.034	418.762	-0.115	-0.244
-248.019	528.626	-0.157	0.366
-247.005	-200.000	0.029	-0.317
-245.990	-90.265	0.223	0.064
-244.976	-73.497	-0.174	-0.063
-243.961	800.000	-0.045	-0.142
-242.946	800.000	0.186	0.527
-241.932	-94.382	-0.278	-0.075
-240.917	-77.475	-0.207	-0.071
-239.903	-40.359	-0.326	-0.168
-238.888	800.000	0.019	-0.072
-237.873	-85.980	0.155	0.048
-236.859	49.810	-0.033	0.031
-235.844	-68.318	-0.101	-0.039
-234.830	6.595	0.218	-0.160
-233.815	-200.000	-0.003	0.151
-232.800	-200.000	-0.016	-0.111
-231.786	97.972	-0.325	0.370
-230.771	656.466	-0.134	-0.340
-229.757	280.428	-0.063	-0.112
-228.742	162.550	-0.164	0.228
-227.727	-100.142	0.156	0.038
-226.713	-40.699	-0.246	0.126
-225.698	172.261	0.147	-0.209
-224.684	-191.788	0.149	0.001
-223.669	-126.794	0.293	0.043
-222.655	-200.000	0.015	-0.294
-221.640	-41.841	0.096	-0.049
-220.625	800.000	0.041	0.120
-219.611	105.079	-0.144	0.168
-218.596	800.000	0.096	-0.390
-217.582	57.538	-0.066	0.064
-216.567	111.328	-0.040	0.048
-215.552	39.262	0.134	-0.119
-214.538	-117.317	-0.119	-0.021
-213.523	343.562	-0.095	0.184
-212.509	-15.184	-0.112	-0.071
-211.494	19.313	0.281	0.223
-210.479	118.815	-0.100	-0.122
-209.465	-200.000	0.054	0.292
-208.450	95.363	-0.172	-0.194
-207.436	281.361	0.196	-0.347
-206.421	721.767	0.043	0.112
-205.406	-200.000	-0.002	0.146
-204.392	-200.000	0.022	-0.477
-203.377	112.548	0.151	-0.180
-202.363	800.000	-0.079	-0.280
-201.348	800.000	-0.053	-0.198
-200.333	42.737	-0.132	0.119
-199.319	-91.911	-0.225	0.063
-198.304	-200.000	0.006	0.137
-197.290	-35.774	-0.164	0.088
-196.275	-200.000	-0.060	0.286
-195.260	718.654	0.033	-0.085
-194.246	-41.674	-0.220	-0.112
-193.231	273.424	-0.146	0.255
-192.217	128.458	-0.068	-0.086
-191.202	3.980	0.184	-0.133
-190.187	800.000	0.039	-0.119
-189.173	-122.457	0.224	0.036
-188.158	-200.000	0.005	0.117
-187.144	-66.808	0.399	-0.156
-186.129	-45.109	-0.118	-0.058
-185.114	-113.484	-0.243	0.047
-184.100	800.000	-0.032	-0.127
-183.085	234.900	-0.268	-0.436
-182.071	620.405	-0.051	-0.126
-181.056	-10.612	-0.193	0.126
-180.042	38.176	0.095	0.084
-179.027	-200.000	0.003	-0.140
-178.012	800.000	-0.098	-0.311
-176.998	-200.000	0.038	-0.209
-175.983	21.565	-0.176	-0.141
-174.969	13.788	-0.284	-0.218
-173.954	-200.000	-0.002	0.119
-172.939	-102.708	0.175	-0.041
-171.925	323.785	0.015	-0.028
-170.910	580.582	0.031	0.075
-169.896	-158.293	-0.140	-0.008
-168.881	141.393	0.143	0.187
-167.866	-200.000	-0.028	-0.226
-166.852	800.000	0.106	0.296
-165.837	-200.000	0.013	0.296
-164.823	17.570	0.104	0.082
-163.808	53.481	-0.177	0.167
-162.793	-90.066	-0.206	0.059
-161.779	800.000	-0.015	-0.065
-160.764	-200.000	0.016	-0.114
-159.750	595.016	-0.051	0.125
-158.735	-15.559	0.110	0.069
-157.720	49.927	0.061	0.057
-156.706	-85.904	0.302	-0.092
-155.691	-200.000	0.021	0.302
-154.677	-200.000	-0.012	-0.313
-153.662	497.817	0.092	0.208
-152.647	30.581	0.365	-0.308
-151.633	204.489	0.190	-0.291
-150.618	-31.101	-0.095	0.053
-149.604	-38.361	0.374	-0.195
-148.589	67.970	-0.050	0.050
-147.574	3.734	-0.031	0.022
-146.560	-59.611	-0.414	0.175
-145.545	-200.000	0.070	0.376
-144.531	-51.177	0.218	-0.101
-143.516	735.118	0.073	-0.193
-142.502	74.605	-0.235	-0.243
-141.487	372.556	0.026	-0.052
-140.472	-200.000	-0.075	0.329
-139.458	-6.530	-0.119	0.080
-138.443	85.858	0.178	0.193
-137.429	-108.997	0.241	0.051
-136.414	-72.936	0.100	-0.036
-135.399	800.000	0.105	0.360
-134.385	-169.393	0.087	-0.003
-133.370	4.618	0.225	-0.163
-132.356	-6.872	-0.045	-0.030
-131.341	237.853	-0.082	-0.135
-130.326	-140.500	0.155	0.016
-129.312	-200.000	-0.004	-0.053
-128.297	-90.080	0.202	0.058
-127.283	800.000	0.039	-0.115
-126.268	323.069	0.036	0.068
-125.253	-123.109	-0.257	-0.041
-124.239	122.327	0.075	0.092
-123.224	-200.000	-0.028	0.453
-122.210	3.497	0.062	0.044
-121.195	-56.470	0.156	0.068
-120.180	-56.232	0.047	-0.020
-119.166	154.169	-0.161	-0.217
-118.151	-55.955	0.232	0.102
-117.137	-200.000	0.011	-0.253
-116.122	18.847	-0.030	0.024
-115.107	88.979	0.265	0.290
-114.093	-200.000	0.020	0.376
-113.078	102.486	0.173	0.199
-112.064	137.782	-0.161	0.208
-111.049	-155.234	-0.197	-0.013
-110.034	-163.998	-0.098	-0.004
-109.020	221.338	-0.014	-0.022
-108.005	800.000	-0.070	-0.250
-106.991	-10.233	0.118	0.077
-105.976	-57.855	-0.196	-0.084
-104.962	-158.989	-0.080	-0.004
-103.947	-63.022	-0.144	-0.059
-102.932	-67.334	-0.031	0.012
-101.918	-90.967	0.261	0.074
-100.903	246.844	0.127	-0.211
-99.889	702.408	0.035	-0.090
-98.874	165.407	0.057	-0.079
-97.859	800.000	-0.076	0.217
-96.845	-200.000	0.013	-0.095
-95.830	-89.737	0.274	-0.079
-94.816	-200.000	-0.001	0.136
-93.801	-47.646	-0.203	-0.097
-92.786	-200.000	0.049	-0.381
-91.772	-28.284	0.351	-0.199
-90.757	800.000	-0.031	0.090
-89.743	151.086	-0.029	0.039
-88.728	-88.918	0.185	0.054
-87.713	104.233	-0.218	-0.253
-86.699	445.702	-0.023	0.049
-85.684	-200.000	0.014	0.079
-84.670	800.000	0.029	0.091
-83.655	34.698	0.092	0.079
-82.640	800.000	0.093	0.402
-81.626	-182.823	0.060	-0.001
-80.611	-125.795	0.477	-0.071
-79.597	-200.000	-0.001	0.051
-78.582	419.668	-0.034	-0.071
-77.567	327.429	-0.069	0.130
-76.553	31.357	-0.102	0.086
-75.538	-200.000	0.008	-0.075
-74.524	-54.356	-0.065	0.029
-73.509	-200.000	-0.006	0.037
-72.494	-101.580	0.158	0.038
-71.480	800.000	0.122	0.425
-70.465	-80.045	0.351	0.116
-69.451	-7.848	-0.330	0.219
-68.436	-68.270	-0.123	0.047
-67.422	-200.000	-0.000	0.222
-66.407	23.544	0.042	0.034
-65.392	-43.271	-0.290	0.144
-64.378	155.647	-0.101	0.137
-63.363	-89.210	0.108	0.031
-62.349	800.000	-0.088	0.342
-61.334	78.916	-1.084	-1.140
-60.319	800.000	0.065	0.259
-59.305	217.118	-0.718	-1.123
-58.290	135.307	0.942	1.204
-57.276	461.460	0.761	1.667
-56.261	-200.000	102.512	591.964
-55.246	554.555	1433.840	3389.363
-54.232	186.833	2624.878	3842.085
-53.217	117.238	2149.470	2595.673
-52.203	42.684	1594.801	1426.589
-51.188	34.114	1329.547	1138.275
-50.173	30.917	1287.879	1083.996
-49.159	54.705	1339.180	1268.815
-48.144	56.039	1355.573	1292.199
-47.130	34.235	1311.783	1123.604
-46.115	30.704	1294.249	1087.943
-45.100	30.541	1289.162	1082.672
-44.086	30.547	1286.204	1080.177
-43.071	30.502	1284.059	1078.073
-42.057	30.461	1282.395	1076.395
-41.042	30.445	1281.196	1075.257
-40.027	30.512	1278.931	1073.699
-39.013	30.501	1277.436	1072.336
-37.998	30.621	1275.039	1070.972
-36.984	30.568	1273.733	1069.527
-35.969	30.695	1271.680	1068.494
-34.954	30.680	1270.480	1067.359
-33.940	30.628	1269.503	1066.195
-32.925	30.693	1267.729	1065.037
-31.911	30.621	1266.307	1063.388
-30.896	30.679	1265.229	1062.771
-29.881	30.766	1263.240	1061.553
-28.867	30.840	1261.851	1060.765
-27.852	30.750	1261.098	1059.577
-26.838	30.832	1259.229	1058.434
-25.823	30.762	1257.746	1056.744
-24.809	30.723	1256.703	1055.607
-23.794	30.649	1255.445	1054.087
-22.779	30.780	1254.340	1053.858
-21.765	30.778	1252.836	1052.543
-20.750	30.716	1251.708	1051.201
-19.736	30.617	1250.531	1049.615
-18.721	30.517	1249.591	1048.219
-17.706	30.556	1248.471	1047.457
-16.692	30.511	1247.160	1046.063
-15.677	30.548	1246.466	1045.649
-14.663	30.587	1244.579	1044.244
-13.648	30.591	1243.704	1043.492
-12.633	30.504	1242.917	1042.303
-11.619	30.605	1241.799	1041.888
-10.604	30.585	1241.103	1041.150
-9.590	30.588	1240.059	1040.250
-8.575	30.444	1238.891	1038.423
-7.560	30.505	1238.535	1038.423
-6.546	30.586	1237.364	1037.854
-5.531	30.460	1236.594	1036.465
-4.517	30.398	1235.862	1035.464
-3.502	30.449	1235.226	1035.172
-2.487	30.506	1234.211	1034.602
-1.473	30.516	1229.876	1030.979
-0.458	29.283	1214.627	1011.397
0.556	24.743	1198.514	974.191
1.571	21.274	1203.604	959.232
2.586	20.378	1218.898	966.348
3.600	19.890	1207.374	954.436
4.615	15.255	1138.216	875.530
5.629	8.344	1066.247	786.179
6.644	5.136	1048.307	757.337
7.659	4.957	1045.656	754.488
8.673	4.939	1044.411	753.436
9.688	4.837	1043.072	751.912
10.702	5.091	1041.012	751.583
11.717	9.315	1046.466	775.872
12.731	15.963	1056.206	815.302
13.746	18.802	1058.776	830.966
14.761	18.261	1057.430	827.223
15.775	17.198	1055.615	820.596
16.790	16.079	1053.475	813.468
17.804	15.436	1051.895	809.077
18.819	15.033	1050.975	806.352
19.834	14.732	1050.477	804.450
20.848	14.639	1049.217	802.967
21.863	14.501	1048.227	801.475
22.877	14.140	1047.940	799.450
23.892	14.291	1046.869	799.287
24.907	14.183	1046.027	798.057
25.921	14.228	1045.400	797.722
26.936	14.306	1043.768	796.779
27.950	14.353	1042.336	795.841
28.965	14.264	1041.224	794.499
29.980	14.520	1039.439	794.284
30.994	14.580	1038.286	793.620
32.009	14.561	1037.479	792.841
33.023	14.510	1036.399	791.706
34.038	14.597	1035.056	791.019
35.053	14.379	1034.613	789.581
36.067	14.403	1033.303	788.624
37.082	14.513	1032.483	788.445
38.096	14.410	1032.535	787.930
39.111	14.402	1031.086	786.716
40.126	14.341	1030.412	785.846
41.140	14.168	1028.891	783.802
42.155	14.063	1027.998	782.555
43.169	14.036	1026.756	781.413
44.184	14.107	1025.675	780.855
45.199	14.096	1024.598	779.917
46.213	14.304	1023.429	779.932
47.228	14.360	1022.612	779.504
48.242	14.286	1021.642	778.349
49.257	14.363	1020.492	777.763
50.271	14.262	1020.337	777.104
51.286	14.253	1018.836	775.850
52.301	14.297	1018.269	775.553
53.315	14.277	1016.922	774.368
54.330	14.303	1015.730	773.511
55.344	14.221	1015.299	772.735
56.359	14.252	1014.327	772.068
57.374	14.149	1013.561	770.940
58.388	14.283	1012.015	770.317
59.403	14.212	1011.600	769.603
60.417	14.136	1010.989	768.719
61.432	14.093	1010.191	767.847
62.447	14.103	1009.157	767.040
63.461	13.999	1008.680	766.132
64.476	14.097	1007.758	765.811
65.490	14.187	1006.766	765.404
66.505	14.004	1006.452	764.255
67.520	14.149	1005.550	764.170
68.534	14.163	1005.000	763.751
69.549	14.020	1003.987	762.255
70.563	14.035	1003.431	761.836
71.578	13.977	1002.391	760.712
72.593	13.888	1002.351	760.207
73.607	14.018	1001.248	759.899
74.622	14.003	1000.832	759.448
75.636	13.904	999.869	758.197
76.651	13.982	999.381	758.114
77.666	14.055	998.850	757.979
78.680	14.067	997.750	757.130
79.695	14.057	997.675	756.960
80.709	14.217	996.816	756.969
81.724	14.164	996.594	756.495
82.739	14.141	995.704	755.647
83.753	14.334	994.750	755.733
84.768	14.564	993.734	755.937
85.782	14.608	992.951	755.472
86.797	14.582	992.098	754.638
87.812	14.338	991.204	752.789
88.826	14.402	989.881	752.006
89.841	14.393	989.229	751.407
90.855	14.414	988.838	751.136
91.870	14.344	987.923	750.059
92.884	14.408	986.891	749.499
93.899	14.570	986.076	749.542
94.914	14.577	985.282	748.903
95.928	14.497	984.409	747.812
96.943	14.423	983.638	746.830
97.957	14.471	982.643	746.223
98.972	14.443	982.358	745.813
99.987	14.541	981.110	745.238
101.001	14.508	980.102	744.260
102.016	14.498	979.341	743.574
103.030	14.440	978.811	742.847
104.045	14.474	978.277	742.527
105.060	14.352	976.900	740.872
106.074	14.173	976.736	739.887
107.089	14.322	974.791	739.009
108.103	14.137	974.185	737.663
109.118	14.164	973.717	737.363
110.133	14.102	972.707	736.260
111.147	14.154	971.713	735.674
112.162	14.143	970.725	734.810
113.176	14.280	969.716	734.584
114.191	14.290	969.153	734.141
115.206	14.162	968.717	733.178
116.220	14.145	968.074	732.554
117.235	14.285	966.695	732.060
118.249	14.190	966.303	731.283
119.264	14.260	965.513	730.927
120.279	14.175	964.750	729.911
121.293	14.212	963.793	729.283
122.308	14.133	963.057	728.318
123.322	14.200	961.730	727.544
124.337	14.083	961.179	726.548
125.352	14.233	959.706	726.028
126.366	14.224	958.386	724.922
127.381	14.113	957.632	723.807
128.395	14.207	957.054	723.713
129.410	14.163	956.385	722.954
130.424	14.330	955.540	722.974
131.439	14.260	954.739	722.003
132.454	14.370	953.965	721.829
133.468	14.471	952.902	721.400
134.483	14.339	951.848	719.967
135.497	14.321	951.467	719.536
136.512	14.343	950.969	719.191
137.527	14.273	950.092	718.162
138.541	14.288	949.348	717.603
139.556	14.260	948.560	716.823
140.570	14.469	947.793	717.078
141.585	14.653	946.651	716.939
142.600	14.537	946.199	716.036
143.614	14.559	944.873	715.064
144.629	14.579	944.357	714.697
145.643	14.606	943.526	714.121
146.658	14.509	942.340	712.743
147.673	14.408	941.552	711.656
148.687	14.460	940.574	711.074
149.702	14.311	940.104	710.019
150.716	14.380	939.326	709.663
151.731	14.419	938.257	708.958
152.746	14.481	937.894	708.884
153.760	14.502	937.625	708.707
154.775	14.501	937.064	708.218
155.789	14.603	936.130	707.881
156.804	14.503	935.391	706.839
157.819	14.666	934.572	706.845
158.833	14.622	934.739	706.725
159.848	14.642	933.644	705.918
160.862	14.634	932.672	705.085
161.877	14.511	931.394	703.540
162.892	14.581	930.343	702.976
163.906	14.455	929.843	702.005
164.921	14.477	929.404	701.707
165.935	14.498	928.274	700.878
166.950	14.569	927.548	700.567
167.964	14.549	926.484	699.616
168.979	14.521	925.452	698.660
169.994	14.471	924.896	697.967
171.008	14.663	924.223	698.200
172.023	14.706	923.331	697.646
173.037	14.765	922.638	697.307
174.052	14.677	921.922	696.339
175.067	14.654	921.418	695.800
176.081	14.378	921.033	694.298
177.096	14.488	920.283	694.126
178.110	14.623	919.283	693.874
179.125	14.569	919.114	693.462
180.140	14.628	918.588	693.245
181.154	14.629	918.558	693.165
182.169	14.768	917.565	692.932
183.183	14.816	916.941	692.598
184.198	14.917	915.970	692.221
185.213	14.903	915.322	691.612
186.227	14.778	914.960	690.762
187.242	14.827	914.582	690.616
188.256	14.976	913.686	690.497
189.271	15.039	912.464	689.772
190.286	14.684	911.932	687.843
191.300	14.572	911.462	686.967
192.315	14.503	910.617	685.988
193.329	14.530	910.046	685.605
194.344	14.660	909.920	685.985
195.359	14.729	908.820	685.379
196.373	14.876	908.329	685.550
197.388	14.909	907.731	685.172
198.402	15.081	907.348	685.527
199.417	15.184	906.616	685.338
200.432	15.132	906.489	684.967
201.446	15.033	906.108	684.215
202.461	15.152	905.061	683.847
203.475	15.115	904.845	683.474
204.490	15.105	903.387	682.273
205.504	15.079	902.846	681.695
206.519	14.976	902.282	680.792
207.534	14.970	901.654	680.231
208.548	15.079	900.861	680.019
209.563	15.064	900.413	679.556
210.577	15.095	899.972	679.292
211.592	15.310	898.899	679.291
212.607	15.162	898.603	678.410
213.621	15.386	897.738	678.602
214.636	15.264	896.552	677.153
215.650	15.154	896.575	676.665
216.665	15.267	895.801	676.477
217.680	15.371	894.757	676.049
218.694	15.317	894.610	675.660
219.709	15.280	893.986	674.981
220.723	15.505	892.729	674.877
221.738	15.215	892.439	673.430
222.753	15.328	891.741	673.301
223.767	15.508	891.216	673.567
224.782	15.385	890.768	672.675
225.796	15.473	890.265	672.585
226.811	15.495	889.587	672.102
227.826	15.414	888.684	671.037
228.840	15.403	888.124	670.510
229.855	15.338	887.150	669.457
230.869	15.367	886.549	669.060
231.884	15.348	886.004	668.513
232.899	15.372	885.110	667.875
233.913	15.393	884.244	667.247
234.928	15.279	883.835	666.426
235.942	15.379	882.891	666.054
236.957	15.376	882.613	665.771
237.972	15.208	882.523	664.978
238.986	15.289	881.770	664.672
240.001	15.392	881.109	664.524
241.015	15.574	880.410	664.657
242.030	15.395	879.805	663.436
243.045	15.520	879.311	663.499
244.059	15.456	878.812	662.812
245.074	15.524	878.047	662.443
246.088	15.558	877.555	662.145
247.103	15.539	876.783	661.430
248.117	15.732	876.474	661.899
249.132	15.716	876.011	661.428
250.147	15.896	875.228	661.487
251.161	15.993	874.335	661.133
252.176	15.940	874.142	660.721
253.190	15.989	873.414	660.302
254.205	15.838	872.918	659.277
255.220	16.001	872.276	659.374
256.234	15.996	871.609	658.793
257.249	16.007	871.026	658.334
258.263	15.940	870.267	657.443
259.278	15.971	869.556	656.968
260.293	16.103	868.965	656.977
261.307	16.225	868.395	656.965
262.322	16.043	868.030	655.920
263.336	16.187	866.942	655.600
264.351	15.939	866.351	654.133
265.366	16.226	865.820	654.787
266.380	16.096	865.105	653.683
267.395	16.160	864.240	653.220
268.409	16.173	863.468	652.630
269.424	16.182	862.760	652.073
270.439	16.086	862.318	651.307
271.453	16.029	861.216	650.198
272.468	16.162	860.741	650.296
273.482	16.097	860.598	649.880
274.497	16.173	860.148	649.775
275.512	16.153	859.560	649.195
276.526	16.124	859.178	648.737
277.541	16.171	858.551	648.390
278.555	16.184	857.951	647.929
279.570	16.386	856.933	647.878
280.585	16.378	856.456	647.429
281.599	16.386	855.443	646.637
282.614	16.200	854.786	645.370
283.628	16.184	854.326	644.904
284.643	16.349	853.532	644.879
285.657	16.272	853.277	644.336
286.672	16.357	852.390	643.934
287.687	16.303	852.178	643.507
288.701	16.357	851.790	643.364
289.716	16.464	850.546	642.774
290.730	16.512	850.226	642.658
291.745	16.359	849.979	641.836
292.760	16.500	849.329	641.820
293.774	16.404	848.857	641.044
294.789	16.396	848.157	640.429
295.803	16.328	847.428	639.563
296.818	16.364	846.687	639.084
297.833	16.361	845.879	638.406
298.847	16.450	845.427	638.343
299.862	16.478	844.835	637.945
300.876	16.602	844.134	637.831
301.891	16.622	843.736	637.546
302.906	16.565	843.365	636.996
303.920	16.717	842.932	637.184
304.935	16.770	842.298	636.846
305.949	16.757	841.238	635.940
306.964	16.684	840.675	635.185
307.979	16.684	840.263	634.819
308.993	16.683	839.794	634.405
310.008	16.720	838.884	633.798
311.022	16.751	838.735	633.746
312.037	16.726	838.167	633.166
313.052	16.753	837.457	632.675
314.066	16.726	836.609	631.878
315.081	16.638	836.322	631.278
316.095	16.606	835.655	630.601
317.110	16.694	835.356	630.644
318.125	16.612	834.659	629.756
319.139	16.491	834.528	629.155
320.154	16.695	834.010	629.468
321.168	16.843	832.945	629.155
322.183	16.658	832.587	628.145
323.197	16.819	832.175	628.372
324.212	16.826	831.565	627.884
325.227	16.701	831.417	627.252
326.241	16.703	830.533	626.538
327.256	16.907	830.137	626.938
328.270	16.855	829.412	626.144
329.285	16.631	829.201	625.103
330.300	16.755	828.388	624.890
331.314	16.851	827.528	624.540
332.329	16.909	827.437	624.629
333.343	16.941	827.023	624.381
334.358	16.984	826.184	623.851
335.373	16.879	826.174	623.402
336.387	16.954	825.928	623.434
337.402	17.102	825.252	623.413
338.416	17.128	825.041	623.293
339.431	17.127	824.661	622.949
340.446	17.269	824.097	622.988
341.460	17.179	823.952	622.493
342.475	17.281	823.698	622.620
343.489	17.283	822.847	621.929
344.504	17.324	822.846	622.024
345.519	17.364	822.167	621.599
346.533	17.270	821.431	620.646
347.548	17.386	820.997	620.687
348.562	17.209	820.688	619.752
349.577	17.138	819.775	618.751
350.592	17.169	819.359	618.495
351.606	17.130	818.829	617.898
352.621	17.134	818.231	617.406
353.635	17.194	817.257	616.835
354.650	17.275	816.563	616.548
355.665	17.340	816.124	616.399
356.679	17.353	815.448	615.881
357.694	17.371	815.166	615.680
358.708	17.416	814.333	615.157
359.723	17.468	813.332	614.536
360.738	17.413	812.994	614.028
361.752	17.429	812.763	613.854
362.767	17.437	812.379	613.540
363.781	17.569	811.553	613.338
364.796	17.622	811.101	613.133
365.810	17.671	811.002	613.178
366.825	17.507	810.644	612.265
367.840	17.655	809.916	612.191
368.854	17.645	809.395	611.709
369.869	17.462	809.482	611.062
370.883	17.616	808.488	610.811
371.898	17.749	808.456	611.209
372.913	17.800	808.162	611.117
373.927	17.732	807.369	610.218
374.942	17.834	806.903	610.177
375.956	17.758	806.964	609.896
376.971	17.831	806.301	609.603
377.986	17.901	805.705	609.348
379.000	17.880	805.025	608.706
380.015	17.936	804.577	608.514
381.029	17.841	804.140	607.789
382.044	18.030	803.634	608.025
383.059	17.988	802.890	607.260
384.073	17.845	802.512	606.413
385.088	17.811	801.952	605.816
386.102	17.808	801.486	605.398
387.117	17.913	800.724	605.142
388.132	17.804	800.309	604.390
389.146	17.765	799.944	603.922
390.161	18.004	799.228	604.174
391.175	17.954	798.811	603.629
392.190	17.947	798.265	603.136
393.205	17.952	797.761	602.719
394.219	18.008	797.447	602.627
395.234	17.853	797.098	601.762
396.248	17.896	796.476	601.394
397.263	17.861	796.056	600.898
398.278	17.843	795.600	600.437
399.292	17.831	795.335	600.142
400.307	17.746	795.244	599.723
401.321	17.722	795.201	599.553
402.336	17.868	794.090	599.176
403.350	17.910	793.460	598.793
404.365	18.138	792.702	598.969
405.380	18.157	792.571	598.882
406.394	18.103	792.368	598.485
407.409	18.209	792.070	598.579
408.423	18.228	791.591	598.229
409.438	18.426	791.335	598.677
410.453	18.404	790.893	598.211
411.467	18.431	790.162	597.701
412.482	18.311	790.090	597.173
413.496	18.221	789.930	596.685
414.511	18.406	789.107	596.657
415.526	18.323	788.612	595.941
416.540	18.411	788.328	595.978
417.555	18.410	787.837	595.553
418.569	18.356	787.410	594.988
419.584	18.455	786.928	594.917
420.599	18.455	786.604	594.617
421.613	157.823	1369.682	1794.944
422.628	136.461	1454.646	1795.031
