DTS Sentinel unit serial number:	SN413079Multiplexer serial number:	ORYXHardware model number:	OX4-SRSoftware version number:	ORYX F/W v4.00 Oryx Data Collector v3.7.2.0data status	okinstallation	princeton_trtdifferential loss correction	single-endedforward channel	channel 1reverse channel	N/Adate	2019/09/10time	18:24:11forward acquisition time	60.00reverse acquisition time	0.00gamma	496.2192k internal	0.2305k external	0.2305temperature offset calibration	0.9932default loss term (dB/km)	0.3790temperature slope calibration	1.0000multiplexer offset coefficient	1.0000multiplexer slope coefficient	1.0000fibre end	0.00T internal ref (°C)	36.14T ext. ref 1 (°C)	-0.39T ext. ref 2 (°C)	28.26length (m)	temperature (°C)	Stokes	anti-Stokes-747.200	325.180	0.229	-0.446
-746.185	156.381	-0.190	0.268
-745.171	302.288	0.108	0.202
-744.156	522.884	-0.079	-0.189
-743.142	-67.814	0.245	0.098
-742.127	-200.000	-0.011	0.085
-741.112	-200.000	-0.004	-0.027
-740.098	45.002	0.022	0.021
-739.083	-53.532	0.059	0.028
-738.069	-200.000	0.030	0.281
-737.054	800.000	-0.073	-0.207
-736.039	-117.961	0.141	0.026
-735.025	800.000	0.064	0.216
-734.010	-51.444	-0.343	-0.163
-732.996	349.825	-0.076	0.153
-731.981	112.247	-0.187	-0.230
-730.966	392.115	-0.087	-0.184
-729.952	69.559	-0.323	0.338
-728.937	-102.008	-0.126	0.031
-727.923	800.000	0.057	-0.183
-726.908	306.965	-0.004	0.008
-725.894	-200.000	-0.018	-0.257
-724.879	454.589	-0.150	-0.337
-723.864	126.036	-0.095	-0.122
-722.850	65.144	0.041	-0.042
-721.835	-84.761	0.184	0.059
-720.821	-110.184	-0.264	-0.056
-719.806	-130.743	-0.221	0.030
-718.791	-25.188	-0.277	-0.167
-717.777	-41.157	-0.149	-0.078
-716.762	-200.000	-0.031	-0.330
-715.748	-148.279	0.123	-0.010
-714.733	103.607	0.258	-0.308
-713.718	-200.000	-0.059	-0.319
-712.704	-200.000	-0.029	0.340
-711.689	-88.064	0.121	-0.037
-710.675	-61.046	-0.367	-0.158
-709.660	409.126	-0.023	0.050
-708.645	22.740	0.117	0.097
-707.631	-153.459	-0.248	0.017
-706.616	-122.921	-0.195	-0.032
-705.602	-200.000	-0.028	-0.241
-704.587	-131.952	-0.316	-0.042
-703.572	210.601	-0.130	0.207
-702.558	-56.741	0.175	-0.079
-701.543	293.270	0.104	-0.192
-700.529	85.601	-0.066	-0.074
-699.514	207.385	-0.076	-0.121
-698.499	669.173	-0.033	0.087
-697.485	-52.906	0.174	-0.081
-696.470	800.000	0.078	-0.288
-695.456	-200.000	0.028	0.129
-694.441	43.621	0.299	-0.278
-693.426	58.838	-0.157	-0.157
-692.412	-42.551	0.197	0.102
-691.397	800.000	0.056	0.249
-690.383	159.853	0.102	0.144
-689.368	-74.345	0.223	-0.082
-688.354	-138.412	-0.231	0.026
-687.339	800.000	0.052	-0.202
-686.324	-45.025	0.062	0.031
-685.310	233.321	-0.194	0.324
-684.295	-62.199	-0.196	-0.083
-683.281	-133.563	-0.127	0.016
-682.266	81.545	0.207	0.227
-681.251	-160.931	-0.260	0.014
-680.237	-23.293	-0.136	0.083
-679.222	203.710	-0.096	0.151
-678.208	-200.000	-0.010	0.107
-677.193	-75.291	-0.219	-0.079
-676.178	-109.790	0.139	-0.030
-675.164	35.305	-0.152	-0.135
-674.149	8.881	0.010	0.008
-673.135	-200.000	0.001	0.011
-672.120	60.461	-0.194	0.195
-671.105	27.593	0.142	-0.121
-670.091	800.000	-0.099	0.343
-669.076	-171.198	-0.175	-0.006
-668.062	-200.000	0.024	-0.434
-667.047	51.652	-0.128	0.123
-666.032	234.422	0.043	0.071
-665.018	130.321	0.212	-0.276
-664.003	-200.000	0.055	-0.352
-662.989	-33.394	0.189	-0.106
-661.974	-154.921	-0.223	0.015
-660.959	-154.747	-0.151	-0.010
-659.945	-71.132	-0.181	-0.069
-658.930	441.328	0.041	0.091
-657.916	126.224	0.146	0.187
-656.901	117.229	0.051	0.064
-655.886	44.745	-0.106	-0.099
-654.872	179.884	0.128	-0.191
-653.857	800.000	-0.065	-0.194
-652.843	280.278	0.090	0.163
-651.828	-200.000	0.003	-0.175
-650.814	-39.252	0.213	0.113
-649.799	35.806	0.326	-0.291
-648.784	688.227	0.011	0.030
-647.770	157.104	-0.101	0.142
-646.755	21.578	0.139	-0.115
-645.741	56.446	0.098	-0.097
-644.726	-133.889	-0.204	-0.026
-643.711	53.184	0.038	-0.037
-642.697	800.000	-0.035	0.115
-641.682	-159.796	0.140	0.008
-640.668	-87.058	-0.161	-0.050
-639.653	-200.000	-0.016	0.090
-638.638	-200.000	0.005	-0.412
-637.624	-200.000	0.242	0.000
-636.609	29.536	0.068	0.059
-635.595	-113.146	-0.365	-0.073
-634.580	-100.113	-0.141	0.036
-633.565	352.680	0.065	0.130
-632.551	101.403	-0.101	-0.119
-631.536	-200.000	-0.024	-0.200
-630.522	202.530	0.212	0.332
-629.507	-95.759	0.290	-0.078
-628.492	800.000	-0.042	0.138
-627.478	147.752	0.087	0.119
-626.463	-200.000	0.013	-0.062
-625.449	800.000	0.097	-0.279
-624.434	357.017	0.151	-0.305
-623.419	-36.096	-0.163	0.089
-622.405	213.794	-0.272	-0.435
-621.390	-67.657	0.216	-0.085
-620.376	-200.000	-0.001	0.450
-619.361	195.420	-0.276	0.424
-618.346	800.000	-0.088	-0.332
-617.332	-107.519	-0.096	-0.021
-616.317	-60.804	0.077	0.033
-615.303	5.363	0.048	-0.036
-614.288	-134.008	-0.321	0.040
-613.273	-200.000	-0.004	0.419
-612.259	53.085	-0.248	0.240
-611.244	377.444	0.135	-0.279
-610.230	-200.000	-0.032	0.219
-609.215	248.454	-0.184	-0.315
-608.201	321.935	0.076	0.146
-607.186	-200.000	0.121	0.675
-606.171	-29.698	-0.271	0.157
-605.157	289.650	-0.162	0.297
-604.142	90.462	-0.064	-0.072
-603.128	125.495	-0.073	0.094
-602.113	-34.996	-0.214	-0.118
-601.098	-71.159	-0.170	0.064
-600.084	-91.473	0.094	0.027
-599.069	-134.451	-0.090	-0.011
-598.055	-28.699	-0.085	-0.050
-597.040	-200.000	0.046	-0.288
-596.025	-200.000	0.048	-0.215
-595.011	-5.051	-0.117	-0.081
-593.996	-161.685	0.305	-0.016
-592.982	345.291	-0.013	-0.027
-591.967	-78.278	0.210	-0.073
-590.952	392.420	-0.093	-0.196
-589.938	495.919	0.109	-0.254
-588.923	-51.781	-0.118	0.056
-587.909	-121.745	-0.344	-0.057
-586.894	-37.781	0.315	0.169
-585.879	-200.000	0.007	0.079
-584.865	169.509	0.042	-0.061
-583.850	-200.000	0.007	-0.126
-582.836	-14.478	0.235	-0.153
-581.821	194.077	-0.133	-0.204
-580.806	-105.021	-0.034	0.008
-579.792	-3.927	0.262	-0.184
-578.777	34.051	-0.083	-0.073
-577.763	-200.000	0.006	-0.084
-576.748	-74.723	-0.371	0.135
-575.733	-31.795	-0.084	0.047
-574.719	-180.931	0.172	0.004
-573.704	134.891	0.067	-0.088
-572.690	291.980	-0.088	-0.162
-571.675	-200.000	0.010	0.112
-570.661	191.450	0.065	-0.098
-569.646	75.625	-0.424	-0.452
-568.631	800.000	0.056	0.176
-567.617	-1.818	-0.032	0.023
-566.602	117.098	0.197	-0.245
-565.588	155.594	0.152	0.211
-564.573	-154.500	0.315	-0.021
-563.558	103.515	-0.194	0.230
-562.544	-139.032	0.178	-0.019
-561.529	75.289	-0.092	0.098
-560.515	-51.354	-0.179	0.085
-559.500	18.327	-0.097	-0.079
-558.485	253.260	0.128	-0.222
-557.471	-198.336	0.160	-0.001
-556.456	-200.000	0.029	-0.135
-555.442	266.089	-0.138	0.243
-554.427	636.801	-0.173	0.444
-553.412	271.172	-0.067	0.120
-552.398	-147.259	0.184	0.016
-551.383	47.303	-0.283	-0.266
-550.369	-99.440	-0.113	-0.029
-549.354	-200.000	-0.045	0.298
-548.339	373.381	0.125	-0.257
-547.325	350.075	0.071	-0.142
-546.310	769.280	0.040	-0.110
-545.296	-200.000	-0.012	-0.229
-544.281	800.000	-0.079	-0.261
-543.266	-200.000	-0.050	-0.253
-542.252	-132.447	-0.308	-0.040
-541.237	800.000	-0.041	-0.155
-540.223	28.509	-0.355	-0.304
-539.208	-127.333	-0.049	-0.007
-538.193	-92.884	0.063	-0.018
-537.179	-139.405	-0.165	-0.018
-536.164	241.608	-0.123	-0.208
-535.150	232.080	-0.156	-0.259
-534.135	251.117	-0.030	0.052
-533.121	-128.268	0.190	0.027
-532.106	-200.000	0.012	0.074
-531.091	157.524	0.147	-0.206
-530.077	800.000	-0.041	-0.121
-529.062	108.313	-0.175	0.211
-528.048	33.945	0.174	-0.153
-527.033	587.919	-0.186	0.461
-526.018	-200.000	0.015	-0.190
-525.004	-200.000	-0.028	-0.137
-523.989	-200.000	-0.008	0.148
-522.975	226.689	-0.131	-0.214
-521.960	-66.840	-0.287	-0.114
-520.945	-36.511	0.326	0.177
-519.931	545.814	-0.025	0.061
-518.916	-130.180	-0.113	0.016
-517.902	-17.062	-0.049	-0.031
-516.887	8.812	0.251	0.191
-515.872	800.000	-0.082	0.317
-514.858	72.706	0.117	0.123
-513.843	-26.346	0.172	0.102
-512.829	82.163	0.095	-0.104
-511.814	291.869	-0.077	-0.142
-510.799	-144.921	-0.335	-0.031
-509.785	-22.205	-0.289	0.177
-508.770	-0.121	0.221	0.159
-507.756	-56.880	-0.216	0.096
-506.741	-123.240	-0.220	0.036
-505.726	418.815	0.082	-0.177
-504.712	-113.583	0.140	-0.028
-503.697	800.000	0.075	-0.264
-502.683	469.044	0.122	-0.275
-501.668	-136.973	0.350	-0.040
-500.653	-55.914	0.115	0.052
-499.639	-118.190	-0.309	0.056
-498.624	-28.297	0.119	0.069
-497.610	-113.979	-0.054	0.010
-496.595	61.478	-0.373	-0.374
-495.581	135.147	0.044	-0.058
-494.566	141.206	-0.045	-0.060
-493.551	107.223	-0.115	0.138
-492.537	-76.911	0.296	0.104
-491.522	-24.027	0.101	-0.061
-490.508	-98.947	-0.314	-0.080
-489.493	800.000	-0.059	-0.209
-488.478	13.496	-0.187	-0.147
-487.464	800.000	0.072	-0.224
-486.449	267.604	-0.069	0.122
-485.435	-36.934	0.048	-0.026
-484.420	44.520	0.239	0.221
-483.405	526.476	-0.105	-0.250
-482.391	41.355	-0.239	0.218
-481.376	149.576	0.131	0.178
-480.362	-200.000	-0.010	0.208
-479.347	-64.600	0.077	0.031
-478.332	-200.000	0.025	-0.167
-477.318	-200.000	-0.006	0.166
-476.303	276.209	0.121	0.216
-475.289	48.229	0.222	-0.209
-474.274	1.631	0.178	0.129
-473.259	413.877	-0.171	0.367
-472.245	-33.819	0.129	0.071
-471.230	-17.863	0.194	-0.123
-470.216	-37.154	0.109	0.059
-469.201	-105.672	-0.163	-0.037
-468.186	310.443	-0.077	-0.145
-467.172	-89.783	-0.291	0.086
-466.157	-119.048	0.114	0.020
-465.143	744.001	0.113	-0.306
-464.128	-51.854	0.115	0.054
-463.113	-200.000	-0.009	0.043
-462.099	36.974	0.197	0.175
-461.084	-24.287	0.140	-0.084
-460.070	-93.802	0.023	-0.006
-459.055	-129.788	-0.229	-0.032
-458.040	-200.000	-0.063	0.288
-457.026	-132.996	-0.082	-0.010
-456.011	-32.860	-0.171	-0.096
-454.997	-108.202	-0.023	-0.005
-453.982	91.059	-0.126	-0.142
-452.968	142.464	0.140	0.187
-451.953	-136.573	-0.245	-0.029
-450.938	87.090	-0.346	-0.385
-449.924	-19.016	0.160	0.100
-448.909	233.466	0.171	0.284
-447.895	97.553	-0.150	-0.173
-446.880	200.322	-0.133	0.205
-445.865	40.682	0.324	0.294
-444.851	-81.542	-0.122	0.040
-443.836	452.962	0.062	0.137
-442.822	-123.290	-0.309	-0.050
-441.807	-200.000	0.011	0.319
-440.792	-200.000	0.039	0.246
-439.778	25.862	0.288	-0.241
-438.763	-21.244	-0.213	0.131
-437.749	-200.000	-0.001	0.006
-436.734	255.876	-0.268	0.462
-435.719	-200.000	0.066	-0.389
-434.705	218.466	-0.116	-0.187
-433.690	211.930	-0.028	-0.044
-432.676	-120.865	-0.050	0.009
-431.661	-200.000	0.023	0.385
-430.646	602.712	0.140	-0.350
-429.632	21.245	-0.145	-0.119
-428.617	-20.579	0.210	-0.130
-427.603	227.238	-0.062	-0.101
-426.588	-36.501	-0.128	0.069
-425.573	-98.739	-0.148	0.038
-424.559	198.762	0.115	-0.177
-423.544	-67.081	0.161	-0.064
-422.530	-200.000	-0.019	0.120
-421.515	-45.436	0.280	0.140
-420.500	-200.000	-0.011	-0.345
-419.486	-141.287	0.360	-0.037
-418.471	-170.724	-0.040	-0.001
-417.457	-200.000	0.008	-0.389
-416.442	112.753	-0.045	0.054
-415.428	-200.000	0.015	-0.198
-414.413	220.719	0.186	-0.300
-413.398	-57.109	0.194	0.086
-412.384	-33.653	0.257	-0.143
-411.369	51.625	0.024	0.023
-410.355	-200.000	0.016	-0.242
-409.340	-58.587	-0.234	-0.102
-408.325	800.000	-0.036	0.128
-407.311	-132.693	0.078	-0.010
-406.296	126.985	-0.152	-0.193
-405.282	703.583	-0.092	-0.243
-404.267	-129.148	-0.302	-0.042
-403.252	776.581	0.068	0.188
-402.238	11.691	-0.184	0.141
-401.223	-53.534	0.118	0.054
-400.209	-164.450	-0.189	-0.009
-399.194	-49.359	-0.065	-0.031
-398.179	-18.181	-0.224	-0.141
-397.165	-200.000	0.037	0.226
-396.150	42.515	0.189	0.172
-395.136	800.000	-0.023	0.076
-394.121	-136.230	0.214	0.025
-393.106	800.000	0.033	0.105
-392.092	800.000	-0.092	0.281
-391.077	44.805	0.084	0.078
-390.063	-87.816	0.173	-0.052
-389.048	-140.840	0.106	0.011
-388.033	-200.000	-0.032	-0.151
-387.019	800.000	-0.052	-0.215
-386.004	800.000	0.072	-0.202
-384.990	800.000	0.073	-0.288
-383.975	-200.000	0.050	-0.316
-382.960	-200.000	-0.018	0.456
-381.946	264.887	-0.115	0.202
-380.931	76.141	0.152	0.162
-379.917	87.080	-0.168	0.186
-378.902	145.026	0.236	-0.317
-377.888	-91.865	-0.082	0.023
-376.873	-126.108	0.192	0.029
-375.858	-107.343	0.384	-0.085
-374.844	24.737	-0.182	0.151
-373.829	213.744	-0.161	0.255
-372.815	-200.000	-0.036	0.243
-371.800	-55.353	-0.154	0.069
-370.785	296.940	-0.079	0.146
-369.771	126.171	-0.065	0.082
-368.756	-88.638	0.209	0.062
-367.742	430.356	0.106	0.230
-366.727	332.931	-0.139	0.269
-365.712	-145.028	0.322	-0.029
-364.698	263.451	-0.194	0.339
-363.683	170.331	0.154	-0.221
-362.669	-57.778	0.254	0.111
-361.654	800.000	-0.023	-0.068
-360.639	386.251	-0.206	-0.427
-359.625	74.799	0.036	-0.038
-358.610	434.518	0.082	0.178
-357.596	-11.343	0.056	-0.037
-356.581	-200.000	-0.017	0.269
-355.566	-86.026	-0.276	0.085
-354.552	-121.792	-0.290	-0.048
-353.537	124.495	-0.334	-0.421
-352.523	122.403	0.135	-0.169
-351.508	-91.602	0.397	0.113
-350.493	184.062	-0.073	0.109
-349.479	800.000	0.046	-0.199
-348.464	80.952	0.118	0.127
-347.450	-200.000	0.008	-0.327
-346.435	800.000	0.036	0.109
-345.420	-24.205	-0.143	0.086
-344.406	-200.000	0.023	0.135
-343.391	-49.716	-0.187	-0.089
-342.377	-101.092	-0.400	0.098
-341.362	-149.706	0.140	0.011
-340.348	-200.000	0.026	0.283
-339.333	568.709	0.048	-0.116
-338.318	163.887	-0.179	0.252
-337.304	-84.772	-0.027	-0.009
-336.289	-105.032	-0.334	0.077
-335.275	-200.000	0.007	0.121
-334.260	-200.000	-0.014	-0.172
-333.245	379.824	-0.088	0.180
-332.231	-141.288	0.209	0.021
-331.216	800.000	-0.064	0.192
-330.202	-118.768	0.335	0.059
-329.187	-55.724	-0.085	-0.038
-328.172	-163.712	0.114	-0.005
-327.158	57.764	0.046	-0.045
-326.143	-19.738	-0.152	0.094
-325.129	175.963	-0.202	0.294
-324.114	-200.000	0.015	-0.163
-323.099	-22.310	-0.151	0.091
-322.085	475.083	-0.135	0.304
-321.070	-151.109	0.090	0.007
-320.056	-107.997	0.067	-0.015
-319.041	160.568	0.044	-0.062
-318.026	164.781	-0.269	-0.380
-317.012	800.000	-0.034	0.109
-315.997	-55.025	0.254	-0.115
-314.983	126.391	0.107	0.135
-313.968	507.395	0.068	0.159
-312.953	112.590	0.175	0.212
-311.939	15.299	0.440	-0.345
-310.924	-66.564	0.263	-0.104
-309.910	-117.856	0.096	0.017
-308.895	-108.803	0.142	0.030
-307.880	-13.111	0.073	0.047
-306.866	800.000	0.040	-0.133
-305.851	178.542	-0.073	-0.107
-304.837	-44.451	-0.115	0.058
-303.822	-64.270	0.327	0.133
-302.807	50.861	-0.108	-0.102
-301.793	-64.878	0.449	-0.182
-300.778	-121.247	-0.029	0.005
-299.764	-136.837	0.292	0.034
-298.749	208.871	0.035	0.055
-297.735	598.843	-0.178	-0.441
-296.720	363.126	-0.083	0.167
-295.705	-200.000	-0.005	0.218
-294.691	92.672	-0.294	-0.332
-293.676	-132.151	0.436	0.057
-292.662	-164.060	-0.213	0.010
-291.647	-200.000	0.055	-0.474
-290.632	-200.000	0.005	0.087
-289.618	-200.000	0.018	-0.222
-288.603	-66.166	-0.306	-0.122
-287.589	-200.000	-0.018	0.253
-286.574	-69.206	0.291	-0.112
-285.559	440.473	-0.063	-0.137
-284.545	53.449	-0.185	0.178
-283.530	-12.297	-0.287	0.188
-282.516	-162.536	0.158	0.008
-281.501	-200.000	-0.047	0.271
-280.486	-44.874	0.263	0.131
-279.472	54.810	0.261	0.251
-278.457	35.039	-0.304	0.266
-277.443	-78.158	-0.387	0.133
-276.428	165.629	0.134	0.190
-275.413	359.767	0.077	0.153
-274.399	37.784	-0.231	0.205
-273.384	100.173	-0.141	0.163
-272.370	-146.005	-0.087	0.008
-271.355	-87.423	0.319	0.097
-270.340	-114.362	0.297	0.057
-269.326	6.788	0.095	-0.071
-268.311	93.284	-0.399	-0.451
-267.297	-2.588	-0.191	0.134
-266.282	120.828	-0.051	0.063
-265.267	674.634	0.107	0.277
-264.253	800.000	0.095	0.264
-263.238	-112.464	0.273	0.054
-262.224	67.988	-0.301	0.307
-261.209	55.522	-0.181	0.175
-260.195	-200.000	-0.022	-0.098
-259.180	-39.383	-0.173	-0.091
-258.165	6.165	0.139	0.103
-257.151	44.440	-0.202	-0.185
-256.136	361.404	0.075	-0.150
-255.122	174.427	-0.094	-0.136
-254.107	-200.000	-0.009	-0.123
-253.092	-54.622	0.337	0.152
-252.078	-14.882	0.211	-0.135
-251.063	111.390	-0.071	-0.085
-250.049	31.491	0.143	-0.122
-249.034	800.000	0.009	-0.036
-248.019	-134.513	0.229	-0.028
-247.005	800.000	-0.140	-0.546
-245.990	561.195	0.058	0.139
-244.976	74.251	-0.248	0.260
-243.961	-200.000	-0.006	0.327
-242.946	-43.543	0.205	0.104
-241.932	-200.000	0.009	-0.075
-240.917	-139.796	-0.240	-0.025
-239.903	502.476	0.152	-0.350
-238.888	-200.000	0.025	0.120
-237.873	-200.000	0.079	0.418
-236.859	800.000	-0.075	-0.214
-235.844	159.622	0.109	-0.152
-234.830	-49.959	-0.173	0.082
-233.815	-200.000	0.029	-0.141
-232.800	-48.546	0.312	-0.150
-231.786	145.009	0.102	0.136
-230.771	-93.033	-0.224	-0.062
-229.757	-200.000	-0.027	0.410
-228.742	-200.000	0.006	0.151
-227.727	-43.535	0.212	-0.107
-226.713	107.511	0.234	-0.278
-225.698	69.327	-0.102	-0.105
-224.684	800.000	0.134	-0.414
-223.669	774.257	-0.108	-0.293
-222.655	-200.000	0.044	0.195
-221.640	-200.000	-0.072	0.491
-220.625	42.004	0.225	0.204
-219.611	243.006	-0.083	0.138
-218.596	187.939	0.110	0.164
-217.582	90.430	-0.076	0.085
-216.567	-130.202	0.203	0.028
-215.552	-67.657	0.280	-0.109
-214.538	26.981	-0.150	-0.125
-213.523	800.000	0.020	-0.067
-212.509	105.663	-0.055	0.065
-211.494	545.772	-0.120	-0.286
-210.479	-110.238	-0.203	0.042
-209.465	-169.092	0.155	0.006
-208.450	-200.000	-0.002	0.140
-207.436	138.565	0.290	0.380
-206.421	-55.337	-0.140	0.063
-205.406	-200.000	0.012	0.276
-204.392	202.275	-0.165	-0.254
-203.377	116.450	-0.085	-0.104
-202.363	-200.000	0.008	-0.228
-201.348	103.489	0.272	0.319
-200.333	-200.000	-0.012	0.077
-199.319	435.523	-0.105	0.227
-198.304	497.808	-0.152	0.349
-197.290	-106.968	0.107	0.024
-196.275	-29.161	0.090	0.051
-195.260	-53.679	0.249	-0.113
-194.246	434.960	-0.052	0.112
-193.231	142.707	0.192	0.254
-192.217	541.123	0.267	0.634
-191.202	800.000	0.084	0.231
-190.187	7.973	0.100	-0.075
-189.173	-200.000	0.008	-0.451
-188.158	-200.000	-0.031	-0.254
-187.144	-7.720	0.250	0.168
-186.129	-127.226	-0.165	-0.024
-185.114	-10.507	0.087	-0.057
-184.100	-200.000	0.017	-0.252
-183.085	201.122	0.075	0.116
-182.071	19.073	-0.143	0.114
-181.056	-200.000	0.037	-0.230
-180.042	57.065	-0.232	-0.225
-179.027	212.051	-0.128	-0.201
-178.012	113.615	-0.106	-0.128
-176.998	-200.000	0.031	0.248
-175.983	465.181	0.123	-0.275
-174.969	-47.698	-0.170	-0.082
-173.954	147.037	0.076	-0.102
-172.939	-200.000	0.042	0.236
-171.925	-52.624	-0.280	0.129
-170.910	2.400	0.081	0.058
-169.896	-200.000	-0.008	-0.373
-168.881	-44.967	-0.193	-0.095
-167.866	-200.000	-0.271	-0.001
-166.852	-200.000	-0.051	0.315
-165.837	-200.000	0.048	-0.262
-164.823	800.000	0.020	-0.074
-163.808	286.494	0.210	-0.378
-162.793	-92.137	-0.226	-0.063
-161.779	99.687	0.130	-0.150
-160.764	-59.040	0.179	0.077
-159.750	550.599	0.084	0.201
-158.735	-200.000	-0.012	-0.204
-157.720	-165.103	-0.209	-0.009
-156.706	-200.000	0.028	0.148
-155.691	-23.884	0.221	-0.132
-154.677	800.000	0.027	-0.115
-153.662	12.448	0.149	0.114
-152.647	-131.205	0.315	-0.042
-151.633	-23.917	-0.340	-0.202
-150.618	-200.000	0.012	0.259
-149.604	-200.000	0.016	0.145
-148.589	-28.505	0.269	0.154
-147.574	-200.000	-0.010	0.291
-146.560	17.988	0.285	-0.226
-145.545	82.481	0.171	0.185
-144.531	170.056	0.208	-0.295
-143.516	-200.000	-0.050	0.282
-142.502	800.000	0.008	0.027
-141.487	-29.292	0.163	-0.093
-140.472	-132.082	0.391	0.051
-139.458	-200.000	0.052	0.354
-138.443	71.958	-0.201	-0.207
-137.429	-2.415	0.142	0.099
-136.414	-127.030	0.309	-0.045
-135.399	-77.351	-0.390	0.135
-134.385	-187.288	0.324	-0.004
-133.370	-47.753	0.096	0.046
-132.356	-200.000	-0.045	0.264
-131.341	280.087	-0.152	-0.271
-130.326	-0.515	0.298	-0.210
-129.312	-200.000	-0.056	-0.458
-128.297	-200.000	0.018	-0.161
-127.283	14.679	-0.099	-0.077
-126.268	-172.582	0.357	-0.011
-125.253	18.229	0.220	-0.174
-124.239	20.245	-0.360	0.289
-123.224	-166.095	0.317	-0.013
-122.210	523.098	0.067	-0.157
-121.195	16.447	0.141	0.110
-120.180	-200.000	0.042	-0.226
-119.166	2.438	-0.084	0.060
-118.151	-200.000	0.014	0.104
-117.137	-74.278	-0.154	-0.055
-116.122	800.000	-0.021	0.090
-115.107	89.823	-0.088	0.098
-114.093	-200.000	0.038	0.287
-113.078	-200.000	0.035	-0.228
-112.064	-176.171	0.082	-0.002
-111.049	-69.930	0.308	0.116
-110.034	140.493	-0.233	0.306
-109.020	244.593	0.024	0.041
-108.005	-38.114	-0.062	-0.033
-106.991	57.608	-0.183	-0.178
-105.976	-200.000	-0.098	0.429
-104.962	-37.837	0.160	-0.085
-103.947	-168.233	-0.469	-0.018
-102.932	157.248	-0.206	-0.284
-101.918	273.899	-0.121	-0.212
-100.903	-67.984	0.018	-0.007
-99.889	-41.542	0.197	0.100
-98.874	225.366	0.183	0.294
-97.859	126.933	-0.233	0.293
-96.845	306.929	0.129	0.238
-95.830	173.995	0.032	-0.045
-94.816	5.768	-0.207	0.152
-93.801	-200.000	0.022	0.139
-92.786	-120.992	0.260	0.043
-91.772	148.723	0.027	-0.036
-90.757	-122.456	0.250	-0.040
-89.743	15.850	-0.178	0.139
-88.728	-200.000	0.003	-0.032
-87.713	-53.903	0.092	0.042
-86.699	-200.000	0.054	0.358
-85.684	-200.000	0.040	0.198
-84.670	-110.736	-0.128	-0.026
-83.655	386.457	0.080	-0.163
-82.640	-5.027	-0.477	-0.326
-81.626	442.076	0.028	-0.062
-80.611	-68.886	0.260	-0.100
-79.597	86.474	0.142	-0.156
-78.582	78.588	0.191	-0.202
-77.567	233.935	-0.091	-0.149
-76.553	315.462	-0.107	-0.200
-75.538	-53.771	0.037	-0.017
-74.524	178.356	-0.167	-0.242
-73.509	54.197	0.108	-0.103
-72.494	26.852	-0.217	0.180
-71.480	-111.929	-0.257	-0.051
-70.465	-39.582	0.130	-0.068
-69.451	203.678	-0.194	0.298
-68.436	-156.128	0.438	0.027
-67.422	-123.414	0.381	0.060
-66.407	-105.235	0.157	-0.035
-65.392	-40.245	0.188	-0.097
-64.378	256.344	0.061	0.104
-63.363	-95.840	0.153	-0.041
-62.349	-113.040	-0.284	-0.056
-61.334	-45.803	-1.061	-0.520
-60.319	-38.857	0.525	0.274
-59.305	-200.000	0.018	-1.257
-58.290	115.524	0.584	0.707
-57.276	800.000	0.567	1.676
-56.261	-200.000	92.901	526.320
-55.246	573.693	1376.092	3324.861
-54.232	182.934	2623.491	3836.694
-53.217	118.753	2210.224	2704.672
-52.203	47.348	1657.885	1530.039
-51.188	39.627	1388.464	1233.294
-50.173	36.305	1345.399	1174.815
-49.159	55.669	1393.208	1336.991
-48.144	60.148	1411.771	1382.503
-47.130	39.786	1365.767	1213.916
-46.115	36.359	1348.064	1177.285
-45.100	36.036	1343.952	1171.679
-44.086	35.888	1341.161	1168.303
-43.071	35.946	1338.702	1166.464
-42.057	35.900	1336.871	1164.548
-41.042	35.993	1334.693	1163.163
-40.027	36.063	1332.932	1162.009
-39.013	35.991	1331.309	1160.115
-37.998	36.088	1329.083	1158.707
-36.984	36.156	1327.521	1157.712
-35.969	36.144	1325.626	1155.938
-34.954	36.045	1323.830	1153.736
-33.940	36.100	1322.539	1152.891
-32.925	36.266	1320.973	1152.472
-31.911	36.288	1319.373	1151.160
-30.896	36.270	1318.158	1149.948
-29.881	36.290	1316.832	1148.868
-28.867	36.272	1315.407	1147.469
-27.852	36.237	1313.726	1145.749
-26.838	36.245	1312.057	1144.300
-25.823	36.120	1311.016	1142.602
-24.809	36.240	1309.063	1141.568
-23.794	36.232	1307.632	1140.223
-22.779	36.238	1306.375	1139.118
-21.765	36.304	1305.134	1138.381
-20.750	36.221	1303.538	1136.454
-19.736	36.278	1302.000	1135.407
-18.721	36.055	1301.077	1133.246
-17.706	36.031	1300.120	1132.225
-16.692	36.041	1298.685	1130.987
-15.677	36.117	1297.482	1130.343
-14.663	36.068	1296.388	1129.057
-13.648	36.115	1295.362	1128.393
-12.633	36.133	1294.017	1127.279
-11.619	36.102	1293.343	1126.466
-10.604	36.040	1292.839	1125.624
-9.590	36.070	1291.444	1124.535
-8.575	36.130	1290.309	1123.854
-7.560	36.091	1289.671	1123.026
-6.546	35.972	1289.180	1121.865
-5.531	36.034	1287.896	1121.062
-4.517	36.033	1287.071	1120.293
-3.502	36.056	1285.966	1119.418
-2.487	36.017	1285.339	1118.603
-1.473	35.931	1280.736	1114.054
-0.458	34.191	1264.680	1090.093
0.556	27.361	1244.285	1042.490
1.571	22.910	1248.279	1020.101
2.586	21.908	1263.144	1026.301
3.600	21.303	1252.977	1014.440
4.615	15.371	1178.362	921.456
5.629	5.057	1098.427	805.823
6.644	-0.008	1075.631	763.359
7.659	-0.365	1072.994	759.613
8.673	-0.536	1071.630	757.713
9.688	-0.640	1070.677	756.447
10.702	-0.134	1068.594	757.460
11.717	5.903	1077.948	794.663
12.731	14.936	1091.181	850.469
13.746	17.899	1093.826	867.535
14.761	17.199	1092.607	862.937
15.775	17.059	1091.494	861.271
16.790	16.662	1091.002	858.795
17.804	16.694	1090.009	858.096
18.819	16.677	1089.749	857.730
19.834	16.746	1089.001	857.413
20.848	16.564	1088.558	856.072
21.863	16.599	1088.048	855.771
22.877	16.505	1087.612	854.877
23.892	16.572	1086.477	854.248
24.907	16.603	1085.701	853.715
25.921	16.611	1084.524	852.756
26.936	16.652	1083.072	851.744
27.950	16.563	1081.434	849.935
28.965	16.511	1079.410	848.008
29.980	16.601	1077.338	846.755
30.994	16.668	1076.510	846.366
32.009	16.790	1075.309	845.957
33.023	16.494	1073.742	843.170
34.038	16.615	1072.686	842.870
35.053	16.699	1072.014	842.687
36.067	16.758	1071.266	842.316
37.082	16.799	1069.954	841.413
38.096	16.976	1069.141	841.578
39.111	16.973	1068.816	841.232
40.126	16.943	1066.340	839.063
41.140	16.586	1065.006	836.177
42.155	16.460	1063.341	834.171
43.169	16.522	1062.506	833.749
44.184	16.581	1061.446	833.133
45.199	16.466	1059.865	831.255
46.213	16.480	1058.755	830.379
47.228	16.374	1058.715	829.753
48.242	16.375	1056.844	828.219
49.257	16.568	1055.940	828.384
50.271	16.733	1054.362	827.877
51.286	16.654	1053.944	827.089
52.301	16.704	1052.577	826.186
53.315	16.621	1052.025	825.275
54.330	16.524	1050.972	823.903
55.344	16.712	1049.837	823.856
56.359	16.646	1048.801	822.650
57.374	16.567	1047.647	821.286
58.388	16.685	1046.889	821.194
59.403	16.448	1046.087	819.346
60.417	16.400	1045.308	818.430
61.432	16.499	1044.599	818.280
62.447	16.687	1043.625	818.353
63.461	16.740	1042.583	817.718
64.476	16.539	1041.766	816.039
65.490	16.600	1040.659	815.393
66.505	16.586	1039.890	814.650
67.520	16.646	1039.197	814.322
68.534	16.583	1037.534	812.645
69.549	16.284	1036.696	810.482
70.563	16.465	1035.870	810.635
71.578	16.349	1035.606	809.799
72.593	16.272	1034.131	808.204
73.607	16.342	1034.091	808.435
74.622	16.572	1033.288	808.837
75.636	16.674	1032.290	808.471
76.651	16.438	1031.473	806.637
77.666	16.278	1031.074	805.490
78.680	16.359	1030.691	805.504
79.695	16.460	1029.660	805.109
80.709	16.498	1028.848	804.582
81.724	16.458	1027.810	803.509
82.739	16.528	1027.032	803.161
83.753	16.605	1026.457	803.008
84.768	16.778	1025.074	802.672
85.782	16.804	1023.855	801.773
86.797	16.823	1022.966	801.093
87.812	16.741	1021.746	799.681
88.826	16.672	1021.336	798.962
89.841	16.943	1019.870	799.025
90.855	16.833	1018.716	797.530
91.870	16.728	1018.168	796.536
92.884	16.789	1016.827	795.702
93.899	16.708	1016.020	794.622
94.914	16.806	1014.930	794.158
95.928	16.752	1013.558	792.764
96.943	16.658	1012.829	791.682
97.957	16.263	1011.734	788.912
98.972	16.072	1010.688	787.134
99.987	16.392	1009.536	787.657
101.001	16.565	1008.961	787.947
102.016	16.671	1008.028	787.642
103.030	16.397	1007.255	785.692
104.045	16.245	1006.008	783.946
105.060	16.156	1004.857	782.567
106.074	16.338	1004.155	782.793
107.089	16.651	1004.072	784.112
108.103	16.745	1002.408	783.174
109.118	16.608	1001.355	781.651
110.133	16.582	999.957	780.373
111.147	16.477	999.021	779.085
112.162	16.491	997.447	777.855
113.176	16.640	997.074	778.183
114.191	16.429	995.923	776.246
115.206	16.277	994.790	774.594
116.220	16.267	993.578	773.537
117.235	16.521	992.723	773.968
118.249	16.363	992.319	772.861
119.264	16.310	991.428	771.854
120.279	16.370	991.133	771.834
121.293	16.591	989.730	771.679
122.308	16.612	988.432	770.695
123.322	16.552	987.501	769.627
124.337	16.337	986.181	767.555
125.352	16.157	984.331	765.229
126.366	15.837	983.125	762.775
127.381	16.368	982.581	764.690
128.395	16.716	981.733	765.533
129.410	16.900	980.912	765.658
130.424	16.800	979.900	764.348
131.439	16.738	978.686	763.056
132.454	16.737	977.902	762.372
133.468	16.690	977.170	761.521
134.483	16.815	976.611	761.581
135.497	16.917	975.507	761.110
136.512	17.020	974.287	760.552
137.527	17.063	973.036	759.702
138.541	16.972	972.490	758.800
139.556	17.032	971.548	758.269
140.570	16.950	970.598	757.094
141.585	16.977	969.313	756.146
142.600	16.872	968.447	754.936
143.614	17.037	968.016	755.266
144.629	17.163	966.973	754.945
145.643	16.963	965.839	753.107
146.658	16.886	964.623	751.751
147.673	16.878	963.578	750.834
148.687	16.762	962.942	749.756
149.702	16.785	961.466	748.645
150.716	16.824	960.574	748.054
151.731	16.907	960.024	747.926
152.746	17.075	959.771	748.405
153.760	17.159	958.663	747.845
154.775	17.206	957.604	747.159
155.789	16.922	957.308	745.611
156.804	17.047	955.885	744.987
157.819	17.106	955.216	744.659
158.833	17.138	954.019	743.799
159.848	17.033	953.392	742.787
160.862	16.789	952.429	740.902
161.877	17.002	951.267	740.864
162.892	17.161	950.301	740.739
163.906	17.013	949.328	739.270
164.921	16.978	948.684	738.552
165.935	17.119	947.405	738.100
166.950	17.125	946.050	737.008
167.964	17.048	945.355	736.065
168.979	16.887	944.869	734.925
169.994	16.794	943.900	733.703
171.008	17.128	942.690	734.143
172.023	17.070	941.580	732.964
173.037	16.723	940.957	730.918
174.052	16.676	939.821	729.768
175.067	16.951	939.051	730.289
176.081	17.116	938.765	730.709
177.096	17.098	938.017	729.985
178.110	16.851	936.764	727.886
179.125	16.690	936.043	726.571
180.140	16.646	935.771	726.105
181.154	16.860	935.264	726.565
182.169	16.969	935.004	726.766
183.183	17.121	934.294	726.801
184.198	17.036	933.057	725.412
185.213	17.004	932.239	724.576
186.227	17.077	931.910	724.567
187.242	17.024	930.968	723.543
188.256	17.188	929.784	723.258
189.271	17.227	929.112	722.838
190.286	16.877	928.521	720.827
191.300	16.611	927.005	718.458
192.315	16.000	926.115	715.111
193.329	15.904	925.331	714.036
194.344	16.705	925.755	717.694
195.359	17.080	925.078	718.696
196.373	16.999	924.488	717.830
197.388	16.808	923.657	716.313
198.402	16.762	923.069	715.598
199.417	16.747	922.225	714.818
200.432	16.500	921.242	712.953
201.446	16.303	920.301	711.333
202.461	16.359	919.820	711.133
203.475	15.682	918.175	706.952
204.490	15.046	917.587	703.762
205.504	16.018	917.429	707.663
206.519	16.723	916.797	710.070
207.534	16.843	916.799	710.512
208.548	17.005	916.419	710.836
209.563	16.868	914.860	708.989
210.577	16.923	914.271	708.702
211.592	17.166	913.701	709.208
212.607	16.952	912.882	707.619
213.621	17.141	912.307	707.898
214.636	17.087	911.811	707.224
215.650	17.020	910.950	706.217
216.665	17.223	910.287	706.484
217.680	17.132	909.529	705.457
218.694	16.763	907.809	702.531
219.709	16.636	907.559	701.746
220.723	16.937	907.387	702.797
221.738	17.036	906.578	702.522
222.753	17.056	905.380	701.612
223.767	17.129	905.188	701.705
224.782	17.278	904.662	701.849
225.796	17.191	903.846	700.793
226.811	16.718	902.568	697.794
227.826	16.299	900.985	694.785
228.840	16.469	900.794	695.275
229.855	16.506	899.769	694.572
230.869	16.180	898.325	692.059
231.884	16.500	898.857	693.721
232.899	17.085	898.857	696.062
233.913	17.174	897.850	695.583
234.928	17.192	896.882	694.845
235.942	17.220	896.256	694.414
236.957	17.007	895.360	692.786
237.972	17.151	894.682	692.790
238.986	17.017	894.533	692.067
240.001	16.901	893.686	690.876
241.015	16.958	892.848	690.400
242.030	17.104	892.403	690.590
243.045	17.148	892.195	690.546
244.059	17.254	891.317	690.234
245.074	17.202	890.103	689.023
246.088	16.711	889.122	686.213
247.103	16.980	888.655	686.883
248.117	17.281	888.676	688.056
249.132	17.326	888.155	687.774
250.147	17.509	887.271	687.768
251.161	17.624	886.650	687.691
252.176	17.434	885.636	686.077
253.190	17.639	884.720	686.133
254.205	17.759	884.785	686.603
255.220	17.880	884.240	686.609
256.234	17.639	883.400	684.924
257.249	17.532	882.251	683.544
258.263	17.636	881.506	683.323
259.278	17.811	880.977	683.555
260.293	17.776	880.382	682.892
261.307	17.512	879.694	681.242
262.322	17.413	878.577	679.923
263.336	16.789	876.356	675.654
264.351	15.779	875.013	670.535
265.366	15.984	874.363	670.793
266.380	16.995	875.063	675.301
267.395	17.493	874.339	676.658
268.409	17.376	873.721	675.656
269.424	17.698	873.210	676.481
270.439	17.641	872.808	675.884
271.453	17.688	872.037	675.413
272.468	17.896	871.817	676.006
273.482	17.959	870.977	675.546
274.497	17.388	869.710	672.246
275.512	17.173	868.875	670.691
276.526	17.562	868.816	672.122
277.541	17.689	868.325	672.183
278.555	17.331	867.283	669.907
279.570	17.242	865.874	668.410
280.585	17.441	865.474	668.825
281.599	17.604	864.618	668.745
282.614	17.064	863.621	665.798
283.628	17.142	863.402	665.876
284.643	17.401	863.151	666.637
285.657	17.089	861.907	664.398
286.672	16.708	861.145	662.261
287.687	17.386	860.680	664.495
288.701	17.333	860.025	663.721
289.716	17.010	859.424	661.938
290.730	17.040	858.490	661.278
291.745	16.710	857.395	659.091
292.760	16.916	857.548	659.953
293.774	17.937	857.298	663.674
294.789	18.145	856.863	664.085
295.803	18.221	856.023	663.669
296.818	18.309	855.867	663.830
297.833	17.897	854.473	661.095
298.847	17.759	854.016	660.150
299.862	18.079	853.683	661.075
300.876	18.092	853.250	660.729
301.891	17.874	852.412	659.179
302.906	17.525	851.257	656.881
303.920	17.592	850.986	656.875
304.935	17.867	850.576	657.557
305.949	17.956	850.366	657.680
306.964	17.892	849.568	656.760
307.979	18.021	849.416	657.081
308.993	18.267	848.829	657.514
310.008	18.279	847.720	656.642
311.022	17.952	847.289	654.994
312.037	17.940	846.638	654.386
313.052	17.859	845.545	653.177
314.066	17.048	844.500	649.208
315.081	16.977	843.838	648.373
316.095	17.549	844.107	650.706
317.110	17.943	843.661	651.810
318.125	17.463	842.438	648.976
319.139	16.772	841.100	645.257
320.154	16.676	840.821	644.620
321.168	17.435	840.898	647.511
322.183	17.868	840.783	649.016
323.197	18.005	840.319	649.118
324.212	18.241	839.767	649.530
325.227	18.208	839.508	649.148
326.241	18.055	838.958	648.084
327.256	18.078	837.802	647.221
328.270	17.911	837.712	646.463
329.285	17.783	836.906	645.298
330.300	17.697	836.023	644.238
331.314	17.936	835.521	644.696
332.329	18.132	834.959	644.944
333.343	18.126	834.899	644.819
334.358	18.123	834.297	644.283
335.373	18.321	833.946	644.703
336.387	18.391	833.748	644.756
337.402	18.418	833.126	644.320
338.416	18.352	832.770	643.740
339.431	18.327	832.360	643.272
340.446	18.562	832.099	643.896
341.460	18.304	831.502	642.407
342.475	18.020	830.898	640.817
343.489	18.288	830.425	641.401
344.504	18.557	830.078	642.085
345.519	18.679	829.908	642.354
346.533	18.659	829.389	641.820
347.548	18.767	828.921	641.805
348.562	18.831	828.340	641.535
349.577	18.616	827.860	640.307
350.592	18.575	827.636	639.924
351.606	18.770	826.591	639.784
352.621	18.720	825.296	638.540
353.635	18.550	824.713	637.402
354.650	18.083	823.502	634.673
355.665	17.406	821.931	630.896
356.679	17.677	821.331	631.385
357.694	17.995	821.048	632.291
358.708	17.991	820.901	632.105
359.723	18.368	820.482	633.120
360.738	18.533	820.571	633.743
361.752	18.615	819.808	633.399
362.767	18.746	818.920	633.141
363.781	18.952	818.485	633.508
364.796	19.033	818.313	633.617
365.810	18.893	818.069	632.858
366.825	18.799	817.771	632.223
367.840	18.779	816.753	631.307
368.854	18.427	816.104	629.457
369.869	18.601	815.649	629.690
370.883	18.551	815.127	629.047
371.898	18.319	814.645	627.769
372.913	18.493	814.035	627.880
373.927	18.667	814.005	628.438
374.942	18.719	813.682	628.325
375.956	18.919	812.859	628.367
376.971	18.832	812.816	627.959
377.986	18.956	812.226	627.898
379.000	18.886	811.992	627.408
380.015	18.866	810.851	626.398
381.029	18.922	810.242	626.076
382.044	19.046	809.463	625.869
383.059	18.826	809.530	625.066
384.073	18.929	809.032	625.000
385.088	19.244	807.953	625.256
386.102	18.984	807.660	624.028
387.117	18.936	807.386	623.589
388.132	18.580	806.674	621.691
389.146	18.419	805.348	620.034
390.161	18.602	804.882	620.281
391.175	18.753	804.508	620.482
392.190	18.477	803.874	618.944
393.205	17.709	802.006	614.684
394.219	16.596	801.105	609.926
395.234	16.640	800.766	609.773
396.248	17.858	801.851	614.939
397.263	19.032	802.247	619.418
398.278	18.990	801.645	618.745
399.292	18.783	801.107	617.531
400.307	18.671	801.026	617.011
401.321	18.918	800.414	617.372
402.336	19.222	800.038	618.119
403.350	19.427	799.464	618.356
404.365	19.540	799.163	618.474
405.380	19.705	798.533	618.523
406.394	19.695	798.185	618.160
407.409	19.474	798.062	617.221
408.423	19.500	797.643	616.935
409.438	19.461	797.557	616.676
410.453	19.677	796.582	616.638
411.467	19.657	796.188	616.208
412.482	19.698	795.647	615.878
413.496	19.598	795.427	615.298
414.511	19.558	794.944	614.728
415.526	19.686	794.108	614.484
416.540	19.541	793.406	613.369
417.555	19.262	793.038	612.039
418.569	19.287	792.891	611.960
419.584	19.394	791.954	611.564
420.599	19.164	791.511	610.351
421.613	153.644	1359.375	1789.464
422.628	133.053	1442.122	1789.581
