DTS Sentinel unit serial number:	SN413079Multiplexer serial number:	ORYXHardware model number:	OX4-SRSoftware version number:	ORYX F/W v4.00 Oryx Data Collector v3.7.2.0data status	okinstallation	princeton_trtdifferential loss correction	single-endedforward channel	channel 1reverse channel	N/Adate	2019/09/15time	15:54:35forward acquisition time	60.00reverse acquisition time	0.00gamma	496.2192k internal	0.2291k external	0.2291temperature offset calibration	0.9940default loss term (dB/km)	0.3790temperature slope calibration	1.0000multiplexer offset coefficient	1.0000multiplexer slope coefficient	1.0000fibre end	0.00T internal ref (°C)	42.41T ext. ref 1 (°C)	5.28T ext. ref 2 (°C)	40.15length (m)	temperature (°C)	Stokes	anti-Stokes-747.200	104.547	0.028	-0.034
-746.185	78.923	-0.155	-0.170
-745.171	-200.000	0.052	0.286
-744.156	126.829	-0.324	0.420
-743.142	-164.781	0.346	0.016
-742.127	57.086	-0.213	-0.212
-741.112	311.508	-0.045	0.086
-740.098	325.474	0.130	0.255
-739.083	115.052	-0.118	0.148
-738.069	-77.950	0.101	-0.036
-737.054	-200.000	0.012	-0.090
-736.039	-200.000	-0.034	-0.225
-735.025	-200.000	-0.002	0.015
-734.010	-200.000	0.001	0.024
-732.996	-200.000	0.046	-0.230
-731.981	-148.561	-0.139	0.012
-730.966	-3.627	-0.241	0.171
-729.952	-125.797	-0.383	0.059
-728.937	371.898	-0.151	0.313
-727.923	46.920	0.292	0.278
-726.908	-200.000	-0.034	-0.160
-725.894	-149.176	0.152	-0.012
-724.879	158.484	-0.199	-0.282
-723.864	-61.722	0.157	0.067
-722.850	217.771	-0.038	-0.062
-721.835	-11.400	-0.276	-0.186
-720.821	-152.918	-0.327	0.024
-719.806	-89.023	-0.157	-0.047
-718.791	271.985	-0.110	-0.199
-717.777	-148.622	-0.442	0.037
-716.762	7.487	-0.202	0.155
-715.748	104.318	0.260	-0.313
-714.733	-200.000	-0.040	-0.255
-713.718	-200.000	-0.016	0.448
-712.704	800.000	0.043	-0.162
-711.689	-156.903	-0.170	-0.011
-710.675	800.000	0.024	0.108
-709.660	21.204	-0.061	-0.051
-708.645	-65.321	-0.102	0.042
-707.631	800.000	0.044	-0.190
-706.616	-117.042	0.186	0.035
-705.602	74.420	-0.038	0.041
-704.587	-122.607	-0.242	-0.040
-703.572	258.525	-0.068	0.120
-702.558	135.195	0.147	0.195
-701.543	-50.977	-0.279	0.134
-700.529	523.501	-0.143	0.343
-699.514	209.547	-0.036	0.058
-698.499	-100.274	-0.197	0.050
-697.485	-200.000	0.024	0.181
-696.470	-200.000	0.015	0.072
-695.456	-200.000	0.005	0.199
-694.441	-200.000	-0.026	0.316
-693.426	138.652	-0.139	-0.186
-692.412	-200.000	0.016	-0.178
-691.397	-79.867	0.270	-0.093
-690.383	-123.329	-0.061	0.010
-689.368	31.555	-0.121	-0.106
-688.354	-200.000	-0.042	0.279
-687.339	-26.705	-0.372	0.222
-686.324	-77.595	0.249	0.088
-685.310	-58.541	0.097	0.043
-684.295	128.648	-0.195	0.253
-683.281	800.000	-0.029	0.111
-682.266	-50.694	0.080	-0.039
-681.251	-2.296	-0.291	0.208
-680.237	762.813	0.040	-0.111
-679.222	329.765	-0.052	-0.102
-678.208	723.780	0.021	-0.058
-677.193	-61.598	0.250	-0.107
-676.178	26.311	-0.039	-0.033
-675.164	-50.039	-0.272	-0.131
-674.149	-34.335	-0.246	0.138
-673.135	495.770	0.197	-0.462
-672.120	104.846	0.106	-0.128
-671.105	800.000	0.120	-0.362
-670.091	37.446	-0.102	-0.092
-669.076	-200.000	0.034	-0.153
-668.062	-200.000	0.007	-0.345
-667.047	-200.000	-0.026	-0.200
-666.032	-91.470	0.123	0.036
-665.018	800.000	-0.055	-0.155
-664.003	-14.491	-0.095	-0.062
-662.989	-200.000	-0.003	-0.294
-661.974	238.150	0.091	-0.155
-660.959	348.059	0.046	-0.092
-659.945	-26.700	-0.176	-0.105
-658.930	800.000	-0.058	0.235
-657.916	199.832	0.069	0.109
-656.901	28.849	-0.243	-0.210
-655.886	-7.890	-0.158	-0.109
-654.872	476.742	0.040	0.092
-653.857	8.645	-0.086	0.066
-652.843	-42.609	0.048	0.025
-651.828	-28.291	0.128	0.076
-650.814	-136.689	-0.194	-0.023
-649.799	687.253	-0.071	0.189
-648.784	-77.935	0.299	-0.105
-647.770	-31.490	0.209	-0.120
-646.755	133.420	0.223	0.295
-645.741	-200.000	-0.019	-0.254
-644.726	800.000	0.046	0.155
-643.711	-200.000	-0.013	0.172
-642.697	221.427	-0.056	-0.092
-641.682	-200.000	0.036	-0.315
-640.668	105.809	-0.212	0.255
-639.653	-116.478	-0.421	-0.079
-638.638	707.680	0.079	-0.213
-637.624	-200.000	-0.056	-0.252
-636.609	12.313	-0.099	0.078
-635.595	-200.000	-0.048	0.294
-634.580	19.417	-0.110	0.090
-633.565	7.520	0.152	-0.116
-632.551	519.206	-0.085	-0.203
-631.536	-126.900	0.266	0.040
-630.522	96.095	0.115	0.134
-629.507	-0.063	-0.032	-0.023
-628.492	44.327	-0.032	0.030
-627.478	-91.017	-0.414	-0.121
-626.463	205.111	-0.110	0.175
-625.449	156.209	0.075	-0.105
-624.434	-62.891	-0.235	-0.099
-623.419	64.213	-0.093	-0.096
-622.405	116.736	-0.204	0.256
-621.390	800.000	0.045	0.135
-620.376	45.902	0.235	0.221
-619.361	-135.659	0.181	-0.022
-618.346	-0.348	-0.084	0.061
-617.332	-43.865	-0.279	-0.143
-616.317	800.000	-0.071	0.267
-615.303	-135.174	0.288	-0.035
-614.288	768.170	-0.002	0.007
-613.273	30.640	-0.282	-0.246
-612.259	-51.312	-0.215	-0.102
-611.244	-136.375	-0.471	-0.056
-610.230	576.788	0.109	0.270
-609.215	497.198	-0.103	-0.242
-608.201	80.766	-0.175	-0.192
-607.186	-141.802	-0.124	-0.013
-606.171	-14.704	-0.044	0.029
-605.157	-105.964	-0.093	0.021
-604.142	-200.000	0.020	0.304
-603.128	91.281	-0.145	0.166
-602.113	-54.676	-0.424	-0.195
-601.098	95.020	0.097	-0.112
-600.084	174.116	-0.189	-0.278
-599.069	-200.000	-0.046	-0.296
-598.055	-187.326	0.305	0.004
-597.040	98.717	-0.180	-0.212
-596.025	-29.406	-0.244	0.142
-595.011	-92.858	0.407	-0.116
-593.996	-29.288	-0.330	-0.193
-592.982	8.918	0.155	-0.119
-591.967	800.000	0.061	-0.175
-590.952	-168.158	-0.103	0.004
-589.938	74.111	0.060	-0.064
-588.923	-147.786	-0.179	-0.015
-587.909	376.669	0.053	-0.109
-586.894	-174.423	-0.261	0.008
-585.879	575.199	-0.092	-0.229
-584.865	-200.000	-0.016	0.179
-583.850	-82.781	-0.205	0.068
-582.836	9.215	-0.120	0.092
-581.821	-200.000	-0.022	-0.231
-580.806	-19.943	-0.290	-0.182
-579.792	-101.638	-0.210	-0.052
-578.777	92.213	-0.203	0.233
-577.763	800.000	0.036	-0.139
-576.748	800.000	-0.032	-0.139
-575.733	467.993	-0.031	-0.072
-574.719	769.797	-0.123	0.342
-573.704	-18.240	-0.104	-0.066
-572.690	800.000	0.063	0.207
-571.675	-36.956	-0.165	0.090
-570.661	454.991	-0.041	0.093
-569.646	800.000	-0.062	-0.195
-568.631	-174.784	0.241	-0.007
-567.617	-8.057	-0.055	0.038
-566.602	-154.908	0.181	-0.012
-565.588	48.711	0.164	-0.156
-564.573	-135.044	-0.498	-0.061
-563.558	82.712	0.109	-0.120
-562.544	-43.252	-0.299	-0.154
-561.529	92.260	0.075	0.086
-560.515	331.185	0.077	0.151
-559.500	27.852	0.247	-0.211
-558.485	63.994	0.053	-0.054
-557.471	800.000	0.040	-0.155
-556.456	-137.953	0.101	0.011
-555.442	80.120	0.152	-0.167
-554.427	-200.000	-0.002	-0.140
-553.412	-200.000	0.022	-0.230
-552.398	800.000	0.022	-0.085
-551.383	-21.415	-0.247	-0.153
-550.369	-39.201	0.243	0.130
-549.354	-49.085	-0.180	0.087
-548.339	121.810	-0.049	0.062
-547.325	387.204	-0.088	0.185
-546.310	721.008	0.014	-0.038
-545.296	27.343	0.295	0.252
-544.281	44.898	-0.116	-0.109
-543.266	31.838	0.319	-0.279
-542.252	-18.870	-0.100	0.063
-541.237	-115.205	-0.192	0.037
-540.223	108.064	0.030	0.036
-539.208	-169.518	-0.027	-0.001
-538.193	149.271	0.115	0.158
-537.179	800.000	-0.060	0.207
-536.164	800.000	0.070	-0.216
-535.150	-71.780	0.249	0.094
-534.135	303.514	-0.077	0.145
-533.121	-94.472	0.206	-0.057
-532.106	-62.392	-0.215	-0.091
-531.091	-143.522	0.369	-0.036
-530.077	188.964	0.186	-0.283
-529.062	81.082	-0.089	-0.098
-528.048	21.024	-0.222	0.183
-527.033	-159.694	0.289	0.016
-526.018	-76.096	0.272	0.097
-525.004	-48.620	0.035	-0.017
-523.989	79.646	-0.186	-0.202
-522.975	-200.000	-0.011	0.277
-521.960	67.912	0.252	-0.262
-520.945	-200.000	-0.032	-0.330
-519.931	800.000	0.067	-0.199
-518.916	-41.771	0.279	-0.145
-517.902	-96.094	-0.246	-0.066
-516.887	5.677	0.164	-0.123
-515.872	-200.000	0.025	-0.114
-514.858	167.333	-0.126	-0.182
-513.843	-36.486	-0.037	-0.020
-512.829	313.471	0.095	0.181
-511.814	-54.235	-0.207	-0.095
-510.799	-200.000	-0.063	-0.327
-509.785	155.852	-0.218	-0.305
-508.770	-5.280	-0.300	0.209
-507.756	-45.284	-0.178	-0.089
-506.741	-46.750	-0.056	-0.028
-505.726	-61.008	0.218	-0.093
-504.712	193.494	0.071	-0.109
-503.697	-41.660	-0.171	0.089
-502.683	76.035	0.184	-0.197
-501.668	-200.000	-0.096	-0.609
-500.653	-115.248	0.035	-0.007
-499.639	-161.743	-0.220	-0.011
-498.624	-200.000	0.000	-0.005
-497.610	34.495	-0.284	0.251
-496.595	-131.090	0.329	0.044
-495.581	-174.859	0.210	0.006
-494.566	155.844	-0.201	0.281
-493.551	41.006	-0.149	0.137
-492.537	800.000	-0.066	0.267
-491.522	-200.000	0.000	-0.191
-490.508	-27.103	0.252	-0.149
-489.493	-99.628	-0.331	-0.084
-488.478	189.466	0.040	0.060
-487.464	-200.000	-0.220	-0.000
-486.449	181.742	0.051	0.077
-485.435	800.000	0.032	-0.133
-484.420	-123.820	0.304	-0.049
-483.405	19.046	-0.100	0.081
-482.391	-100.725	-0.236	-0.059
-481.376	172.185	-0.064	-0.093
-480.362	26.054	0.370	-0.313
-479.347	-70.777	-0.114	0.044
-478.332	293.176	0.222	0.411
-477.318	-76.334	0.358	-0.128
-476.303	800.000	0.075	-0.222
-475.289	243.987	-0.044	-0.074
-474.274	-74.227	-0.356	0.130
-473.259	-200.000	-0.027	-0.228
-472.245	52.617	-0.093	-0.090
-471.230	20.249	0.304	0.248
-470.216	-200.000	-0.023	0.121
-469.201	-18.655	0.227	0.144
-468.186	800.000	-0.040	-0.168
-467.172	-43.997	-0.252	-0.128
-466.157	-100.424	-0.156	-0.039
-465.143	800.000	-0.069	-0.249
-464.128	800.000	0.063	-0.236
-463.113	-10.554	-0.126	-0.084
-462.099	416.505	-0.085	-0.183
-461.084	655.020	-0.128	0.333
-460.070	68.660	0.108	0.112
-459.055	254.447	-0.084	-0.145
-458.040	349.121	-0.074	0.149
-457.026	-200.000	-0.036	0.207
-456.011	-200.000	-0.032	-0.363
-454.997	800.000	-0.065	-0.261
-453.982	144.116	0.243	0.328
-452.968	-200.000	0.008	0.205
-451.953	6.750	-0.035	0.027
-450.938	-111.929	0.119	-0.024
-449.924	-80.844	-0.224	0.075
-448.909	800.000	-0.046	0.147
-447.895	67.070	-0.187	-0.193
-446.880	-64.656	-0.188	-0.077
-445.865	-200.000	0.003	0.140
-444.851	-158.784	0.260	0.015
-443.836	-100.283	-0.284	-0.071
-442.822	-200.000	-0.011	-0.224
-441.807	96.644	0.026	0.031
-440.792	-17.419	-0.012	0.008
-439.778	-200.000	0.041	0.218
-438.763	-40.556	0.226	0.118
-437.749	669.945	0.049	-0.129
-436.734	494.577	-0.144	0.335
-435.719	146.662	-0.205	0.279
-434.705	-179.153	0.239	0.005
-433.690	-64.778	0.075	0.031
-432.676	384.132	-0.021	0.044
-431.661	28.674	-0.165	-0.142
-430.646	-200.000	-0.004	-0.133
-429.632	-160.256	0.264	0.014
-428.617	800.000	0.039	0.153
-427.603	-200.000	-0.156	-0.001
-426.588	-200.000	0.006	-0.145
-425.573	73.587	-0.097	-0.103
-424.559	444.443	-0.088	0.195
-423.544	-200.000	0.030	0.208
-422.530	77.867	0.158	0.170
-421.515	672.031	0.079	-0.206
-420.500	800.000	0.049	0.196
-419.486	800.000	-0.118	-0.335
-418.471	30.605	0.108	-0.093
-417.457	-24.630	0.169	0.102
-416.442	432.500	0.094	-0.206
-415.428	-148.412	-0.105	-0.009
-414.413	-178.986	0.081	0.002
-413.398	24.131	-0.076	-0.064
-412.384	37.488	0.304	-0.273
-411.369	54.449	0.109	-0.106
-410.355	110.366	-0.114	-0.138
-409.340	32.191	0.050	-0.044
-408.325	-200.000	-0.023	-0.278
-407.311	-71.919	0.288	-0.108
-406.296	-10.928	0.147	0.098
-405.282	800.000	-0.032	-0.140
-404.267	138.500	-0.158	-0.210
-403.252	-9.040	-0.211	-0.142
-402.238	-38.362	0.169	-0.090
-401.223	-200.000	0.011	0.155
-400.209	-200.000	-0.015	0.136
-399.194	800.000	-0.050	-0.206
-398.179	-50.756	0.174	0.083
-397.165	1.267	0.073	0.053
-396.150	-195.658	0.214	-0.002
-395.136	-95.372	0.367	-0.100
-394.121	-191.911	-0.353	0.003
-393.106	168.773	0.124	-0.179
-392.092	-145.763	0.086	0.008
-391.077	174.266	-0.164	0.240
-390.063	-14.504	-0.070	-0.045
-389.048	147.388	0.207	-0.281
-388.033	-200.000	-0.032	-0.179
-387.019	-74.561	0.400	0.145
-386.004	-200.000	0.004	-0.277
-384.990	576.797	-0.136	-0.336
-383.975	-36.558	-0.083	0.045
-382.960	132.693	-0.126	-0.165
-381.946	-67.104	0.507	-0.202
-380.931	217.528	0.044	0.071
-379.917	129.077	-0.283	-0.364
-378.902	-21.435	-0.363	0.224
-377.888	743.359	0.115	0.311
-376.873	-13.940	-0.138	-0.090
-375.858	800.000	-0.023	0.090
-374.844	-55.351	-0.066	-0.030
-373.829	800.000	0.076	-0.254
-372.815	173.271	0.123	-0.179
-371.800	-57.303	-0.415	0.184
-370.785	800.000	-0.064	0.243
-369.771	108.369	0.126	-0.151
-368.756	-129.622	0.151	-0.021
-367.742	-174.491	-0.152	-0.004
-366.727	-200.000	0.009	-0.250
-365.712	-123.834	0.360	-0.057
-364.698	-155.975	0.222	-0.014
-363.683	50.667	-0.390	-0.373
-362.669	571.156	-0.078	-0.192
-361.654	236.308	0.213	-0.355
-360.639	-183.045	-0.362	-0.006
-359.625	-168.078	-0.341	0.013
-358.610	300.682	-0.169	-0.315
-357.596	61.423	-0.117	-0.117
-356.581	-69.807	0.158	-0.061
-355.566	13.540	0.237	-0.186
-354.552	-39.228	-0.066	-0.035
-353.537	731.933	-0.079	-0.212
-352.523	90.169	0.113	0.128
-351.508	-94.135	-0.078	0.022
-350.493	130.128	0.066	0.086
-349.479	0.373	-0.042	0.030
-348.464	-15.081	-0.107	-0.069
-347.450	-76.494	-0.246	0.087
-346.435	-104.383	-0.071	0.017
-345.420	-134.504	0.256	-0.032
-344.406	148.737	0.114	0.155
-343.391	-33.425	-0.249	-0.139
-342.377	-200.000	-0.034	-0.341
-341.362	-70.077	-0.103	-0.039
-340.348	373.549	0.099	-0.204
-339.333	459.076	0.219	0.490
-338.318	520.352	0.145	0.343
-337.304	-200.000	0.006	-0.122
-336.289	60.893	0.135	-0.135
-335.275	5.469	-0.141	0.105
-334.260	-139.270	0.145	0.016
-333.245	169.647	0.112	-0.161
-332.231	-50.098	-0.253	0.121
-331.216	312.119	-0.214	0.405
-330.202	-123.835	0.242	0.038
-329.187	-89.381	0.204	0.060
-328.172	185.610	0.209	-0.312
-327.158	800.000	-0.017	0.047
-326.143	-117.575	0.255	-0.046
-325.129	7.108	0.265	0.199
-324.114	127.262	-0.064	0.081
-323.099	268.867	-0.050	0.088
-322.085	-78.611	-0.323	0.111
-321.070	-200.000	-0.023	-0.289
-320.056	-47.535	-0.273	-0.133
-319.041	-200.000	-0.033	-0.233
-318.026	-144.209	-0.137	-0.013
-317.012	62.144	-0.037	0.037
-315.997	-85.769	-0.112	-0.035
-314.983	205.468	0.171	0.268
-313.968	-101.501	-0.190	0.047
-312.953	800.000	0.053	0.216
-311.939	-23.554	-0.295	0.178
-310.924	-55.702	0.170	0.076
-309.910	-7.136	0.134	-0.091
-308.895	49.868	-0.037	-0.035
-307.880	-200.000	0.020	-0.139
-306.866	-87.125	-0.228	0.070
-305.851	-65.748	-0.206	0.083
-304.837	44.986	-0.158	0.147
-303.822	-200.000	0.040	0.208
-302.807	800.000	0.055	0.182
-301.793	-102.449	0.296	-0.071
-300.778	-98.341	0.107	0.028
-299.764	138.945	-0.088	0.116
-298.749	800.000	0.005	-0.015
-297.735	800.000	0.040	-0.121
-296.720	656.409	-0.059	-0.152
-295.705	79.662	-0.121	0.131
-294.691	-135.497	0.225	-0.027
-293.676	-67.248	0.106	-0.042
-292.662	-200.000	0.001	0.250
-291.647	-200.000	-0.118	-0.000
-290.632	178.770	0.025	0.037
-289.618	-63.393	0.145	-0.060
-288.603	800.000	-0.092	-0.320
-287.589	-7.927	0.054	-0.037
-286.574	-142.812	0.421	-0.041
-285.559	471.678	-0.179	0.404
-284.545	800.000	0.016	0.049
-283.530	-200.000	0.012	0.178
-282.516	-200.000	0.033	-0.181
-281.501	32.597	0.005	-0.004
-280.486	-200.000	-0.040	0.256
-279.472	42.748	0.103	-0.094
-278.457	641.889	0.079	0.202
-277.443	-55.822	-0.135	-0.061
-276.428	583.737	-0.125	0.309
-275.413	-200.000	-0.014	0.133
-274.399	-200.000	0.062	0.443
-273.384	-126.533	-0.200	-0.030
-272.370	114.405	0.199	0.244
-271.355	35.777	-0.219	0.194
-270.340	-191.475	0.094	0.001
-269.326	-52.403	-0.618	0.288
-268.311	-114.129	-0.224	-0.044
-267.297	-133.652	-0.147	-0.019
-266.282	-4.107	-0.147	-0.102
-265.267	-200.000	0.003	-0.069
-264.253	252.524	0.041	-0.070
-263.238	37.000	-0.206	-0.183
-262.224	-6.702	-0.104	-0.071
-261.209	-29.580	-0.172	0.099
-260.195	-113.757	0.159	-0.031
-259.180	2.556	-0.154	0.112
-258.165	-132.138	0.300	-0.039
-257.151	100.665	-0.135	0.158
-256.136	9.006	0.073	-0.055
-255.122	-77.947	0.200	0.069
-254.107	308.643	-0.062	-0.117
-253.092	-25.969	0.053	0.031
-252.078	32.137	-0.165	0.143
-251.063	9.436	0.270	0.205
-250.049	800.000	0.121	-0.377
-249.034	-128.988	0.269	-0.038
-248.019	-68.900	-0.138	0.053
-247.005	15.728	0.175	0.138
-245.990	49.517	-0.176	0.166
-244.976	-139.185	0.354	-0.038
-243.961	-170.241	0.446	0.016
-242.946	-106.584	-0.122	0.027
-241.932	431.252	0.047	-0.102
-240.917	-71.783	-0.032	-0.012
-239.903	192.142	-0.171	0.260
-238.888	-200.000	0.003	0.150
-237.873	-71.455	0.040	-0.015
-236.859	431.477	0.070	0.152
-235.844	88.444	-0.266	0.296
-234.830	24.813	0.220	-0.183
-233.815	-195.047	0.067	0.001
-232.800	-30.932	-0.103	0.058
-231.786	-122.903	-0.111	-0.018
-230.771	216.717	0.140	0.223
-229.757	800.000	-0.063	0.191
-228.742	219.452	0.115	-0.185
-227.727	7.444	0.101	-0.076
-226.713	232.614	0.146	0.240
-225.698	-0.638	-0.210	0.150
-224.684	800.000	-0.114	0.324
-223.669	38.279	0.314	0.280
-222.655	33.701	-0.053	-0.046
-221.640	77.345	-0.188	0.201
-220.625	149.984	0.049	0.066
-219.611	21.876	0.313	0.256
-218.596	-23.017	-0.095	0.057
-217.582	-115.086	0.049	-0.009
-216.567	364.899	0.159	-0.321
-215.552	-200.000	-0.006	0.031
-214.538	276.457	-0.133	0.237
-213.523	-35.275	0.218	0.119
-212.509	-94.346	0.031	-0.008
-211.494	-45.661	0.185	0.092
-210.479	-176.011	-0.216	-0.006
-209.465	42.379	-0.211	0.193
-208.450	-163.271	-0.135	-0.006
-207.436	305.115	0.160	0.298
-206.421	-86.470	-0.017	-0.005
-205.406	-114.508	0.090	-0.017
-204.392	125.427	-0.058	0.073
-203.377	52.847	0.019	0.018
-202.363	156.664	0.111	-0.154
-201.348	-63.645	-0.260	-0.107
-200.333	-200.000	-0.049	0.277
-199.319	-76.890	0.378	0.132
-198.304	8.212	-0.051	-0.038
-197.290	52.179	0.131	0.125
-196.275	-200.000	-0.012	0.119
-195.260	74.000	0.285	0.299
-194.246	259.958	0.068	-0.117
-193.231	-93.404	0.181	-0.050
-192.217	7.335	-0.172	0.128
-191.202	-200.000	0.010	-0.218
-190.187	-27.108	0.214	-0.125
-189.173	2.096	0.069	0.050
-188.158	210.916	0.130	0.205
-187.144	100.889	0.147	-0.171
-186.129	800.000	0.040	-0.160
-185.114	-200.000	0.010	0.305
-184.100	360.589	-0.105	0.212
-183.085	291.894	-0.057	0.105
-182.071	208.108	0.001	0.001
-181.056	-97.842	0.122	0.032
-180.042	177.104	-0.076	0.111
-179.027	-51.271	0.085	-0.040
-178.012	800.000	-0.122	0.518
-176.998	-200.000	-0.019	0.082
-175.983	-139.546	0.190	-0.020
-174.969	6.038	0.155	-0.115
-173.954	285.107	0.072	-0.130
-172.939	71.615	0.106	0.110
-171.925	5.114	0.143	-0.105
-170.910	-200.000	0.013	-0.194
-169.896	38.489	0.306	-0.273
-168.881	-200.000	0.031	0.168
-167.866	-200.000	-0.020	0.107
-166.852	29.171	-0.166	-0.141
-165.837	47.320	0.086	-0.081
-164.823	-183.364	0.243	-0.004
-163.808	-124.414	-0.160	-0.025
-162.793	279.510	0.198	-0.353
-161.779	15.957	0.300	0.236
-160.764	518.062	-0.083	0.195
-159.750	14.791	-0.342	0.268
-158.735	-200.000	-0.011	0.421
-157.720	-90.677	0.122	0.035
-156.706	173.238	0.238	0.344
-155.691	108.581	0.069	0.083
-154.677	-200.000	0.080	0.481
-153.662	195.929	0.112	-0.170
-152.647	800.000	0.073	0.265
-151.633	8.729	0.276	0.208
-150.618	-200.000	0.014	0.089
-149.604	-67.727	0.498	0.195
-148.589	-48.772	0.246	0.118
-147.574	-50.459	-0.286	-0.135
-146.560	120.770	0.248	0.308
-145.545	240.927	0.126	0.210
-144.531	800.000	0.097	-0.287
-143.516	29.569	-0.243	-0.207
-142.502	-47.884	-0.167	0.081
-141.487	20.653	0.395	-0.320
-140.472	124.666	-0.087	-0.110
-139.458	800.000	-0.042	-0.166
-138.443	168.966	-0.093	-0.133
-137.429	-125.449	-0.201	0.031
-136.414	-200.000	-0.030	0.150
-135.399	-149.670	0.396	0.031
-134.385	489.427	-0.077	0.177
-133.370	-91.496	-0.131	-0.037
-132.356	180.322	-0.128	-0.188
-131.341	-23.181	0.480	-0.289
-130.326	400.877	-0.076	-0.159
-129.312	60.733	0.021	-0.021
-128.297	-200.000	-0.040	0.373
-127.283	638.720	-0.060	0.153
-126.268	-76.436	-0.216	-0.076
-125.253	-200.000	-0.055	0.278
-124.239	800.000	-0.051	-0.199
-123.224	-84.357	0.300	0.095
-122.210	-70.288	0.190	-0.072
-121.195	-116.139	0.250	-0.046
-120.180	-4.279	0.163	0.113
-119.166	25.232	0.149	0.124
-118.151	-97.269	-0.099	0.026
-117.137	-200.000	-0.018	-0.119
-116.122	-2.436	-0.241	-0.169
-115.107	788.456	0.075	0.206
-114.093	9.173	0.051	0.038
-113.078	-80.346	-0.239	-0.080
-112.064	-200.000	-0.005	0.071
-111.049	65.894	0.100	-0.102
-110.034	168.087	-0.162	0.230
-109.020	-200.000	0.039	-0.263
-108.005	-200.000	-0.019	0.232
-106.991	105.690	-0.183	0.216
-105.976	-66.146	0.034	0.014
-104.962	179.586	-0.143	0.209
-103.947	-106.101	0.027	0.006
-102.932	-7.642	-0.189	-0.128
-101.918	-200.000	-0.007	-0.283
-100.903	-160.127	-0.179	0.010
-99.889	129.015	0.078	0.100
-98.874	178.795	0.236	-0.344
-97.859	-52.738	0.221	-0.102
-96.845	83.760	-0.164	0.178
-95.830	-27.299	0.265	0.154
-94.816	800.000	-0.036	0.111
-93.801	800.000	0.046	-0.141
-92.786	-174.501	0.577	0.017
-91.772	-200.000	-0.001	-0.068
-90.757	-200.000	-0.011	0.293
-89.743	490.356	0.124	0.282
-88.728	104.815	0.062	0.072
-87.713	505.347	0.150	0.347
-86.699	-200.000	0.050	0.300
-85.684	405.453	-0.021	0.044
-84.670	54.607	-0.154	-0.148
-83.655	-75.760	0.137	-0.048
-82.640	-61.686	0.400	-0.167
-81.626	-200.000	-0.083	0.365
-80.611	-200.000	0.014	-0.163
-79.597	-200.000	-0.000	0.015
-78.582	131.334	0.055	0.070
-77.567	-200.000	-0.023	-0.179
-76.553	-200.000	-0.069	0.391
-75.538	-2.446	0.206	-0.144
-74.524	-159.148	-0.197	-0.011
-73.509	40.502	0.158	0.142
-72.494	33.628	0.094	-0.082
-71.480	635.730	-0.076	0.192
-70.465	119.150	0.065	0.080
-69.451	47.363	0.063	0.059
-68.436	26.565	0.212	0.177
-67.422	800.000	0.127	0.422
-66.407	97.882	0.162	0.186
-65.392	-2.810	-0.023	-0.016
-64.378	13.112	-0.205	-0.158
-63.363	-115.276	0.288	0.054
-62.349	-200.000	-0.003	-0.158
-61.334	-2.382	-0.522	-0.365
-60.319	800.000	-0.097	0.323
-59.305	-200.000	0.124	-0.754
-58.290	14.286	0.393	0.306
-57.276	-200.000	0.413	1.808
-56.261	-200.000	74.427	548.195
-55.246	555.260	1319.202	3165.063
-54.232	143.239	2546.331	3377.185
-53.217	121.694	2239.610	2783.264
-52.203	55.421	1674.024	1614.502
-51.188	46.579	1390.402	1286.062
-50.173	42.779	1342.403	1218.653
-49.159	60.984	1376.192	1360.890
-48.144	69.201	1395.248	1429.744
-47.130	46.994	1357.682	1258.124
-46.115	42.662	1341.051	1216.522
-45.100	42.373	1337.016	1211.070
-44.086	42.336	1333.761	1207.848
-43.071	42.278	1331.842	1205.717
-42.057	42.237	1329.711	1203.494
-41.042	42.271	1327.950	1202.056
-40.027	42.305	1326.306	1200.721
-39.013	42.340	1324.406	1199.165
-37.998	42.392	1322.494	1197.692
-36.984	42.346	1320.617	1195.676
-35.969	42.443	1318.814	1194.568
-34.954	42.593	1316.910	1193.688
-33.940	42.419	1316.325	1192.079
-32.925	42.516	1314.597	1191.042
-31.911	42.449	1313.218	1189.347
-30.896	42.479	1311.467	1187.892
-29.881	42.504	1310.131	1186.783
-28.867	42.610	1308.413	1185.804
-27.852	42.564	1306.969	1184.179
-26.838	42.474	1305.772	1182.517
-25.823	42.562	1303.715	1181.125
-24.809	42.556	1302.728	1180.149
-23.794	42.491	1301.515	1178.624
-22.779	42.511	1299.846	1177.179
-21.765	42.511	1298.324	1175.757
-20.750	42.590	1296.757	1174.751
-19.736	42.451	1295.489	1172.748
-18.721	42.400	1294.345	1171.367
-17.706	42.241	1293.447	1169.580
-16.692	42.399	1292.336	1169.450
-15.677	42.466	1290.935	1168.523
-14.663	42.367	1290.319	1167.343
-13.648	42.363	1288.618	1165.736
-12.633	42.274	1287.920	1164.542
-11.619	42.231	1287.213	1163.605
-10.604	42.329	1286.069	1163.091
-9.590	42.243	1285.232	1161.794
-8.575	42.278	1283.965	1160.803
-7.560	42.210	1283.273	1159.741
-6.546	42.287	1281.922	1158.916
-5.531	42.164	1281.284	1157.581
-4.517	42.242	1280.401	1157.188
-3.502	42.406	1279.304	1157.096
-2.487	42.384	1278.601	1156.288
-1.473	42.633	1275.131	1154.537
-0.458	42.139	1261.641	1139.467
0.556	36.950	1241.502	1100.378
1.571	32.282	1244.473	1076.267
2.586	30.302	1257.395	1075.881
3.600	28.463	1246.338	1055.749
4.615	21.723	1171.961	956.020
5.629	11.155	1090.060	835.217
6.644	5.691	1065.836	789.131
7.659	5.256	1062.588	784.472
8.673	5.164	1061.558	783.178
9.688	5.010	1059.889	781.108
10.702	5.498	1059.394	783.115
11.717	11.440	1068.430	819.642
12.731	19.270	1078.281	866.660
13.746	19.970	1077.580	869.534
14.761	17.706	1074.116	855.316
15.775	16.312	1072.058	846.616
16.790	15.199	1069.819	839.206
17.804	14.548	1068.528	834.859
18.819	14.238	1066.858	831.934
19.834	13.887	1066.226	829.614
20.848	13.658	1064.985	827.432
21.863	13.380	1064.604	825.674
22.877	13.264	1063.508	824.173
23.892	13.235	1062.717	823.342
24.907	13.299	1061.965	823.004
25.921	13.233	1060.845	821.735
26.936	13.235	1059.963	820.992
27.950	13.355	1058.625	820.475
28.965	13.409	1056.676	819.163
29.980	13.394	1055.318	817.962
30.994	13.505	1054.110	817.502
32.009	13.566	1053.138	816.978
33.023	13.505	1051.944	815.678
34.038	13.520	1051.025	814.967
35.053	13.539	1050.294	814.421
36.067	13.442	1049.071	812.923
37.082	13.499	1048.050	812.339
38.096	13.405	1047.981	811.753
39.111	13.368	1047.293	810.969
40.126	13.343	1045.931	809.717
41.140	13.228	1044.647	808.091
42.155	13.227	1043.115	806.830
43.169	13.174	1041.862	805.532
44.184	13.145	1041.222	804.821
45.199	13.183	1039.961	803.960
46.213	13.306	1039.011	803.756
47.228	13.272	1038.106	802.819
48.242	13.340	1037.232	802.399
49.257	13.434	1035.639	801.555
50.271	13.390	1035.062	800.821
51.286	13.299	1034.600	799.954
52.301	13.453	1033.397	799.695
53.315	13.375	1032.386	798.467
54.330	13.235	1031.565	797.089
55.344	13.306	1030.442	796.490
56.359	13.316	1029.690	795.886
57.374	13.281	1028.490	794.721
58.388	13.309	1027.430	793.966
59.403	13.126	1026.789	792.520
60.417	13.249	1025.961	792.401
61.432	13.207	1025.028	791.409
62.447	13.109	1024.666	790.592
63.461	13.037	1024.278	789.877
64.476	13.102	1022.998	789.131
65.490	13.065	1022.281	788.331
66.505	13.038	1021.173	787.282
67.520	13.219	1020.635	787.657
68.534	13.234	1019.701	786.939
69.549	13.165	1019.020	786.017
70.563	13.119	1018.501	785.327
71.578	13.114	1017.318	784.324
72.593	13.093	1016.596	783.594
73.607	13.007	1016.440	782.997
74.622	13.038	1015.557	782.396
75.636	13.050	1014.736	781.750
76.651	13.129	1013.768	781.311
77.666	13.058	1013.158	780.435
78.680	13.134	1012.588	780.287
79.695	13.045	1012.079	779.406
80.709	13.033	1011.276	778.660
81.724	13.185	1011.165	779.225
82.739	13.209	1010.476	778.735
83.753	13.302	1009.803	778.587
84.768	13.504	1008.418	778.398
85.782	13.560	1007.388	777.798
86.797	13.482	1006.414	776.611
87.812	13.336	1006.236	775.718
88.826	13.579	1004.627	775.550
89.841	13.481	1003.691	774.301
90.855	13.554	1002.782	773.872
91.870	13.442	1002.345	772.941
92.884	13.493	1001.307	772.313
93.899	13.414	1000.394	771.169
94.914	13.644	999.352	771.371
95.928	13.569	998.391	770.210
96.943	13.530	997.540	769.306
97.957	13.435	996.971	768.358
98.972	13.626	995.506	768.047
99.987	13.552	995.317	767.489
101.001	13.474	994.397	766.349
102.016	13.433	993.351	765.286
103.030	13.504	992.746	765.081
104.045	13.607	991.438	764.482
105.060	13.377	991.263	763.216
106.074	13.334	990.253	762.176
107.089	13.305	988.896	760.931
108.103	13.189	988.563	760.073
109.118	13.214	987.364	759.199
110.133	13.177	986.489	758.289
111.147	13.158	985.749	757.563
112.162	13.261	984.670	757.140
113.176	13.418	983.808	757.126
114.191	13.430	983.149	756.609
115.206	13.441	982.413	756.028
116.220	13.368	981.848	755.193
117.235	13.391	980.758	754.389
118.249	13.259	980.025	753.160
119.264	13.253	979.454	752.625
120.279	13.222	978.821	751.931
121.293	13.184	977.790	750.900
122.308	13.295	976.641	750.455
123.322	13.258	975.711	749.509
124.337	13.224	974.816	748.598
125.352	13.198	973.643	747.516
126.366	13.256	972.551	746.874
127.381	13.235	971.581	745.965
128.395	13.295	970.552	745.383
129.410	13.327	970.295	745.260
130.424	13.425	968.719	744.427
131.439	13.449	968.254	744.110
132.454	13.477	967.714	743.758
133.468	13.484	967.149	743.285
134.483	13.556	965.649	742.393
135.497	13.460	965.209	741.557
136.512	13.436	964.326	740.705
137.527	13.570	963.295	740.447
138.541	13.531	962.823	739.847
139.556	13.500	962.165	739.135
140.570	13.659	961.221	739.053
141.585	13.719	960.818	738.945
142.600	13.614	959.659	737.524
143.614	13.813	958.780	737.668
144.629	13.785	958.090	736.946
145.643	13.702	957.314	735.917
146.658	13.607	956.428	734.747
147.673	13.521	955.294	733.430
148.687	13.627	954.096	732.914
149.702	13.404	953.610	731.490
150.716	13.458	952.598	730.888
151.731	13.418	951.849	730.071
152.746	13.606	950.736	729.983
153.760	13.518	950.475	729.331
154.775	13.517	950.184	729.037
155.789	13.464	949.759	728.413
156.804	13.626	948.592	728.166
157.819	13.687	947.925	727.858
158.833	13.750	947.166	727.485
159.848	13.727	946.256	726.625
160.862	13.689	945.857	726.086
161.877	13.609	944.530	724.651
162.892	13.508	943.877	723.646
163.906	13.479	942.653	722.517
164.921	13.486	941.858	721.875
165.935	13.705	940.687	721.869
166.950	13.670	939.821	720.987
167.964	13.586	939.125	720.022
168.979	13.529	938.535	719.260
169.994	13.601	937.714	718.882
171.008	13.677	937.093	718.670
172.023	13.717	936.430	718.269
173.037	13.841	935.572	718.086
174.052	13.845	934.484	717.204
175.067	13.760	933.915	716.339
176.081	13.567	933.755	715.317
177.096	13.616	932.983	714.876
178.110	13.665	932.356	714.543
179.125	13.664	931.942	714.157
180.140	13.743	930.976	713.695
181.154	13.727	931.001	713.579
182.169	13.909	930.274	713.742
183.183	13.818	929.866	712.975
184.198	13.895	928.751	712.387
185.213	13.930	927.923	711.839
186.227	14.032	927.395	711.809
187.242	13.866	927.250	710.924
188.256	14.040	926.138	710.752
189.271	13.991	925.470	709.969
190.286	13.920	924.125	708.569
191.300	13.650	923.728	707.051
192.315	13.729	923.040	706.800
193.329	13.628	922.960	706.246
194.344	13.748	922.114	706.045
195.359	13.770	921.575	705.664
196.373	13.869	920.838	705.458
197.388	13.967	920.687	705.694
198.402	13.909	920.613	705.331
199.417	14.161	919.576	705.544
200.432	14.263	918.668	705.215
201.446	14.171	918.305	704.486
202.461	14.325	917.635	704.558
203.475	14.229	917.090	703.675
204.490	14.186	916.233	702.773
205.504	14.157	915.320	701.888
206.519	14.171	914.288	701.094
207.534	14.242	913.734	700.905
208.548	14.133	913.363	700.099
209.563	14.125	912.746	699.531
210.577	14.250	912.016	699.433
211.592	14.282	911.228	698.902
212.607	14.433	910.167	698.662
213.621	14.369	909.743	698.005
214.636	14.283	909.251	697.208
215.650	14.311	908.681	696.824
216.665	14.347	908.027	696.413
217.680	14.478	906.947	696.067
218.694	14.502	906.658	695.886
219.709	14.484	905.705	695.017
220.723	14.414	905.171	694.255
221.738	14.452	904.642	693.946
222.753	14.478	903.995	693.497
223.767	14.426	903.566	692.887
224.782	14.407	903.050	692.355
225.796	14.562	902.436	692.465
226.811	14.489	901.694	691.532
227.826	14.496	901.045	691.003
228.840	14.545	900.085	690.407
229.855	14.541	898.979	689.479
230.869	14.533	898.318	688.882
231.884	14.353	897.891	687.748
232.899	14.405	897.144	687.328
233.913	14.491	896.628	687.228
234.928	14.395	896.019	686.306
235.942	14.379	895.579	685.843
236.957	14.395	894.947	685.362
237.972	14.435	894.344	685.003
238.986	14.528	893.341	684.558
240.001	14.422	892.789	683.641
241.015	14.546	892.227	683.658
242.030	14.613	891.678	683.451
243.045	14.585	891.223	682.926
244.059	14.638	890.576	682.587
245.074	14.745	889.783	682.357
246.088	14.682	889.564	681.871
247.103	14.712	888.745	681.306
248.117	14.735	888.419	681.087
249.132	14.852	887.640	680.906
250.147	14.961	886.906	680.729
251.161	15.020	886.427	680.539
252.176	15.009	886.006	680.112
253.190	14.984	885.165	679.304
254.205	14.998	884.799	679.020
255.220	14.988	884.142	678.415
256.234	15.032	883.635	678.142
257.249	15.143	882.651	677.780
258.263	15.090	882.023	677.020
259.278	15.189	881.036	676.606
260.293	15.194	880.907	676.467
261.307	15.251	879.986	675.929
262.322	15.147	879.717	675.242
263.336	15.411	878.403	675.238
264.351	15.477	877.217	674.531
265.366	15.372	876.985	673.870
266.380	15.255	876.810	673.206
267.395	15.093	876.085	671.939
268.409	15.282	875.329	672.058
269.424	15.228	874.463	671.120
270.439	15.262	873.642	670.566
271.453	15.168	873.330	669.892
272.468	15.208	872.842	669.616
273.482	15.222	872.062	669.014
274.497	15.297	871.430	668.769
275.512	15.070	871.224	667.648
276.526	15.195	871.074	667.973
277.541	15.298	870.226	667.672
278.555	15.360	869.364	667.198
279.570	15.439	868.902	667.100
280.585	15.296	868.118	665.869
281.599	15.310	867.525	665.411
282.614	15.371	866.815	665.052
283.628	15.384	866.117	664.505
284.643	15.343	865.654	663.931
285.657	15.393	865.293	663.792
286.672	15.390	864.480	663.097
287.687	15.457	863.618	662.643
288.701	15.447	863.052	662.113
289.716	15.494	862.868	662.096
290.730	15.540	862.309	661.789
291.745	15.643	861.036	661.159
292.760	15.604	861.000	660.923
293.774	15.762	860.005	660.718
294.789	15.684	859.308	659.821
295.803	15.550	858.550	658.653
296.818	15.606	858.334	658.647
297.833	15.584	857.566	657.915
298.847	15.615	856.876	657.449
299.862	15.494	856.960	656.983
300.876	15.700	855.757	656.806
301.891	15.666	855.642	656.526
302.906	15.805	854.717	656.301
303.920	15.911	854.073	656.164
304.935	15.887	853.744	655.757
305.949	15.953	852.745	655.188
306.964	15.868	852.151	654.342
307.979	15.818	851.805	653.826
308.993	15.940	851.147	653.736
310.008	15.846	850.915	653.136
311.022	15.944	850.000	652.756
312.037	15.761	849.739	651.788
313.052	15.749	849.056	651.162
314.066	15.800	848.419	650.811
315.081	15.754	847.813	650.113
316.095	15.838	847.034	649.781
317.110	15.779	846.763	649.288
318.125	15.821	846.018	648.821
319.139	15.795	845.816	648.508
320.154	15.784	845.646	648.279
321.168	15.850	844.868	647.880
322.183	15.704	844.568	647.031
323.197	15.893	843.976	647.247
324.212	15.774	843.456	646.332
325.227	15.988	842.725	646.536
326.241	15.932	842.118	645.799
327.256	15.943	841.352	645.195
328.270	15.939	840.980	644.836
329.285	15.917	840.229	644.122
330.300	15.870	839.730	643.501
331.314	15.925	839.290	643.319
332.329	16.062	838.901	643.487
333.343	16.054	838.668	643.220
334.358	15.980	838.147	642.481
335.373	15.998	837.914	642.312
336.387	16.128	837.348	642.318
337.402	15.950	837.503	641.701
338.416	16.092	836.722	641.588
339.431	16.261	836.195	641.768
340.446	16.382	835.997	642.022
341.460	16.234	835.399	640.943
342.475	16.352	835.132	641.130
343.489	16.273	834.653	640.405
344.504	16.467	834.121	640.676
345.519	16.507	833.553	640.333
346.533	16.384	832.963	639.357
347.548	16.328	832.696	638.887
348.562	16.421	831.689	638.406
349.577	16.200	831.497	637.368
350.592	16.249	831.174	637.248
351.606	16.334	830.162	636.738
352.621	16.194	829.777	635.858
353.635	16.342	828.794	635.606
354.650	16.291	828.269	634.956
355.665	16.446	827.261	634.710
356.679	16.395	826.863	634.155
357.694	16.525	826.193	634.074
358.708	16.666	825.177	633.768
359.723	16.423	825.257	632.861
360.738	16.467	824.450	632.350
361.752	16.513	824.183	632.264
362.767	16.559	823.550	631.893
363.781	16.660	823.044	631.824
364.796	16.633	822.699	631.406
365.810	16.755	822.313	631.506
366.825	16.732	822.361	631.401
367.840	16.790	821.453	630.865
368.854	16.800	820.964	630.472
369.869	16.755	820.954	630.241
370.883	16.671	820.538	629.551
371.898	16.790	819.755	629.338
372.913	16.888	819.197	629.219
373.927	16.705	818.810	628.185
374.942	16.834	818.587	628.436
375.956	16.917	818.332	628.494
376.971	16.969	817.410	627.924
377.986	16.986	817.101	627.693
379.000	17.065	816.353	627.353
380.015	16.926	816.297	626.741
381.029	16.959	815.406	626.126
382.044	17.007	814.595	625.623
383.059	17.174	813.885	625.638
384.073	17.045	813.763	625.014
385.088	16.928	812.921	623.880
386.102	16.986	812.537	623.742
387.117	17.043	812.018	623.502
388.132	17.061	811.537	623.140
389.146	17.060	810.887	622.585
390.161	17.216	810.391	622.721
391.175	17.115	810.042	622.027
392.190	17.046	809.591	621.374
393.205	16.916	809.293	620.613
394.219	16.986	808.649	620.321
395.234	17.020	808.497	620.271
396.248	17.036	807.858	619.786
397.263	16.992	807.298	619.142
398.278	16.956	807.054	618.767
399.292	17.027	806.623	618.640
400.307	16.904	806.318	617.906
401.321	16.844	805.857	617.277
402.336	16.939	805.710	617.458
403.350	17.129	804.825	617.416
404.365	17.171	804.161	617.002
405.380	17.247	803.826	616.968
406.394	17.357	803.282	616.895
407.409	17.247	802.953	616.189
408.423	17.344	803.106	616.604
409.438	17.430	802.344	616.275
410.453	17.512	801.663	615.995
411.467	17.404	801.632	615.525
412.482	17.422	801.216	615.216
413.496	17.511	800.640	615.042
414.511	17.547	800.100	614.701
415.526	17.557	799.828	614.475
416.540	17.539	799.311	613.957
417.555	17.494	798.963	613.475
418.569	17.430	798.690	612.979
419.584	17.625	798.056	613.139
420.599	17.627	797.491	612.660
421.613	85.774	1251.378	1329.105
422.628	72.919	1317.544	1329.212
