DTS Sentinel unit serial number:	SN413079Multiplexer serial number:	ORYXHardware model number:	OX4-SRSoftware version number:	ORYX F/W v4.00 Oryx Data Collector v3.7.2.0data status	okinstallation	princeton_trtdifferential loss correction	single-endedforward channel	channel 1reverse channel	N/Adate	2019/09/14time	05:18:35forward acquisition time	60.00reverse acquisition time	0.00gamma	496.2192k internal	0.2334k external	0.2334temperature offset calibration	1.0079default loss term (dB/km)	0.3790temperature slope calibration	1.0000multiplexer offset coefficient	1.0000multiplexer slope coefficient	1.0000fibre end	0.00T internal ref (°C)	26.94T ext. ref 1 (°C)	3.38T ext. ref 2 (°C)	21.94length (m)	temperature (°C)	Stokes	anti-Stokes-747.200	-113.040	-0.221	0.044
-746.185	800.000	0.062	0.191
-745.171	97.074	0.058	0.066
-744.156	-59.107	-0.244	0.106
-743.142	800.000	-0.053	0.156
-742.127	176.733	-0.163	0.239
-741.112	1.072	-0.025	-0.018
-740.098	316.219	-0.171	0.325
-739.083	-200.000	-0.013	-0.089
-738.069	-40.332	0.094	-0.049
-737.054	-200.000	-0.030	0.322
-736.039	5.306	0.215	0.160
-735.025	-200.000	-0.031	0.160
-734.010	-200.000	-0.002	-0.105
-732.996	800.000	0.070	0.282
-731.981	-200.000	-0.029	0.157
-730.966	-33.937	-0.197	-0.109
-729.952	-38.981	0.328	-0.173
-728.937	-67.391	-0.161	0.064
-727.923	-85.070	-0.223	0.070
-726.908	-200.000	0.023	0.224
-725.894	51.831	0.188	0.180
-724.879	-88.709	-0.319	-0.095
-723.864	-143.227	0.188	0.018
-722.850	-1.589	0.100	-0.070
-721.835	86.452	-0.109	0.121
-720.821	53.689	-0.046	0.044
-719.806	-120.294	-0.287	-0.049
-718.791	-93.186	0.094	-0.026
-717.777	-104.273	-0.089	-0.021
-716.762	-200.000	-0.045	-0.268
-715.748	-37.843	0.346	-0.185
-714.733	-42.397	-0.153	-0.078
-713.718	-200.000	0.004	-0.281
-712.704	207.075	-0.191	0.299
-711.689	251.446	-0.159	-0.271
-710.675	800.000	0.167	0.524
-709.660	0.941	-0.022	0.016
-708.645	71.706	0.199	-0.208
-707.631	-68.188	-0.211	-0.082
-706.616	-86.044	0.122	0.038
-705.602	-87.446	-0.243	0.074
-704.587	-30.401	0.016	0.009
-703.572	-97.238	-0.101	-0.026
-702.558	-124.654	0.093	0.014
-701.543	-200.000	0.017	-0.324
-700.529	557.612	0.182	-0.441
-699.514	-7.998	-0.143	-0.097
-698.499	340.784	-0.091	-0.178
-697.485	-87.878	0.205	0.062
-696.470	-48.360	0.050	-0.024
-695.456	-94.786	-0.323	0.088
-694.441	70.962	0.201	0.209
-693.426	267.584	0.069	0.122
-692.412	6.760	-0.136	0.102
-691.397	-29.417	0.202	-0.116
-690.383	-200.000	0.017	0.232
-689.368	79.984	-0.140	0.151
-688.354	702.911	-0.083	0.220
-687.339	-21.535	0.132	0.081
-686.324	152.615	-0.116	-0.158
-685.310	-64.666	-0.116	-0.047
-684.295	22.768	0.283	-0.233
-683.281	-97.109	-0.194	0.051
-682.266	-62.650	-0.184	-0.077
-681.251	-200.000	0.034	-0.451
-680.237	634.910	-0.077	0.197
-679.222	-0.135	-0.109	0.078
-678.208	39.622	-0.074	-0.067
-677.193	329.342	0.239	-0.461
-676.178	14.569	-0.051	-0.040
-675.164	67.392	-0.114	0.116
-674.149	54.376	0.097	0.094
-673.135	145.643	0.098	-0.132
-672.120	13.443	-0.507	-0.394
-671.105	-117.984	-0.139	-0.025
-670.091	-66.421	0.113	0.045
-669.076	-200.000	-0.024	0.166
-668.062	-130.657	0.251	0.034
-667.047	-70.098	0.062	0.024
-666.032	-200.000	-0.006	0.069
-665.018	251.807	-0.151	-0.257
-664.003	179.296	-0.138	-0.202
-662.989	392.757	-0.067	-0.140
-661.974	316.492	0.132	-0.250
-660.959	29.882	-0.229	0.195
-659.945	-75.487	-0.206	0.074
-658.930	560.484	-0.196	-0.474
-657.916	76.867	0.046	0.048
-656.901	531.003	0.108	-0.257
-655.886	-2.598	-0.544	0.382
-654.872	-169.003	-0.299	-0.011
-653.857	800.000	-0.080	0.334
-652.843	-59.610	-0.174	-0.075
-651.828	-200.000	-0.029	0.134
-650.814	-146.194	0.090	0.008
-649.799	44.127	-0.036	-0.033
-648.784	96.982	-0.130	-0.149
-647.770	-57.455	0.180	-0.079
-646.755	98.997	-0.058	0.067
-645.741	67.446	0.148	-0.151
-644.726	800.000	-0.056	0.156
-643.711	-153.599	0.131	-0.009
-642.697	279.930	0.047	0.084
-641.682	39.680	-0.378	-0.339
-640.668	-80.571	0.606	-0.202
-639.653	-200.000	0.033	0.289
-638.638	34.377	-0.135	0.118
-637.624	-147.396	0.260	-0.022
-636.609	-33.621	-0.345	-0.190
-635.595	284.970	0.028	0.050
-634.580	8.789	0.156	0.118
-633.565	-200.000	-0.026	0.116
-632.551	-200.000	0.021	-0.172
-631.536	-63.472	-0.082	0.034
-630.522	-129.245	-0.107	-0.015
-629.507	412.298	0.114	0.242
-628.492	-200.000	-0.011	-0.093
-627.478	-133.931	-0.171	0.021
-626.463	-124.730	-0.088	0.014
-625.449	342.620	0.219	0.429
-624.434	215.085	0.159	-0.253
-623.419	783.615	0.156	0.429
-622.405	-162.689	-0.186	0.009
-621.390	-52.234	0.062	0.029
-620.376	-59.550	0.356	0.153
-619.361	69.574	-0.149	-0.153
-618.346	-200.000	0.009	0.434
-617.332	-200.000	0.046	-0.276
-616.317	532.928	-0.144	-0.341
-615.303	451.915	-0.114	-0.251
-614.288	418.635	-0.130	0.279
-613.273	-123.578	-0.156	-0.025
-612.259	260.722	-0.056	0.097
-611.244	-84.327	-0.211	0.067
-610.230	-96.714	-0.077	-0.020
-609.215	138.724	0.202	-0.266
-608.201	144.426	0.043	-0.057
-607.186	-43.789	-0.234	0.118
-606.171	-76.473	-0.182	0.064
-605.157	-56.924	-0.221	-0.098
-604.142	72.824	0.190	0.198
-603.128	16.650	0.190	-0.150
-602.113	-98.584	0.202	0.052
-601.098	-31.334	-0.087	-0.049
-600.084	-147.930	-0.282	-0.024
-599.069	34.018	0.149	0.129
-598.055	16.186	-0.097	0.076
-597.040	-200.000	0.034	-0.172
-596.025	-200.000	-0.006	-0.051
-595.011	-81.390	0.258	0.085
-593.996	-22.472	0.175	-0.106
-592.982	-31.655	0.391	-0.220
-591.967	-112.425	-0.166	0.033
-590.952	69.081	-0.107	-0.110
-589.938	800.000	0.096	0.378
-588.923	27.795	-0.060	-0.050
-587.909	55.256	0.148	-0.143
-586.894	-63.490	0.139	-0.057
-585.879	49.845	-0.080	0.075
-584.865	-28.522	-0.413	0.238
-583.850	-200.000	0.021	-0.238
-582.836	800.000	0.049	0.191
-581.821	-200.000	-0.001	0.209
-580.806	-105.732	0.532	-0.120
-579.792	57.348	0.172	-0.167
-578.777	-60.880	-0.283	0.120
-577.763	-70.696	-0.342	0.129
-576.748	-16.915	-0.096	0.060
-575.733	800.000	-0.098	-0.388
-574.719	-28.996	0.235	-0.135
-573.704	-200.000	-0.004	0.085
-572.690	-58.501	-0.215	0.093
-571.675	-170.786	-0.162	0.006
-570.661	-5.919	-0.089	-0.061
-569.646	-125.207	0.361	0.055
-568.631	225.823	-0.100	0.162
-567.617	22.525	-0.198	0.162
-566.602	24.789	-0.274	0.227
-565.588	524.062	0.126	0.297
-564.573	-119.050	0.145	0.025
-563.558	800.000	-0.030	-0.092
-562.544	290.180	0.146	-0.265
-561.529	-200.000	-0.064	-0.335
-560.515	-200.000	0.004	-0.237
-559.500	573.519	-0.082	-0.201
-558.485	-200.000	0.006	-0.349
-557.471	388.041	0.106	-0.218
-556.456	-23.145	0.253	0.152
-555.442	800.000	0.096	0.293
-554.427	134.801	0.100	0.129
-553.412	-84.688	0.159	-0.050
-552.398	166.721	-0.085	0.120
-551.383	-140.322	0.529	0.055
-550.369	-200.000	-0.002	-0.217
-549.354	-78.485	0.270	-0.092
-548.339	54.422	0.219	0.210
-547.325	100.932	0.051	-0.059
-546.310	-79.477	0.190	-0.064
-545.296	-200.000	0.027	-0.263
-544.281	-200.000	-0.004	-0.262
-543.266	-200.000	0.017	0.292
-542.252	69.848	-0.133	-0.137
-541.237	138.919	-0.034	-0.044
-540.223	-9.193	0.052	0.035
-539.208	-29.499	0.333	0.190
-538.193	-31.210	-0.326	0.183
-537.179	-200.000	-0.275	0.001
-536.164	800.000	0.040	0.135
-535.150	-2.320	-0.127	-0.089
-534.135	499.069	-0.083	0.190
-533.121	800.000	-0.078	-0.253
-532.106	253.593	-0.196	0.335
-531.091	-200.000	-0.003	-0.166
-530.077	-171.631	-0.186	0.006
-529.062	-200.000	-0.034	0.150
-528.048	449.321	-0.197	-0.432
-527.033	-133.534	0.314	-0.039
-526.018	74.653	0.371	0.389
-525.004	126.524	-0.020	-0.025
-523.989	13.887	-0.176	-0.136
-522.975	13.613	0.198	-0.153
-521.960	-52.865	-0.239	0.110
-520.945	96.535	-0.118	0.134
-519.931	13.245	0.091	-0.070
-518.916	203.121	-0.040	-0.062
-517.902	214.476	-0.109	-0.172
-516.887	-200.000	0.067	0.320
-515.872	115.416	-0.046	0.056
-514.858	-200.000	-0.001	0.106
-513.843	800.000	-0.022	0.070
-512.829	791.928	0.038	0.103
-511.814	-200.000	0.000	0.144
-510.799	244.899	-0.168	-0.282
-509.785	3.305	-0.090	0.065
-508.770	63.127	-0.019	0.019
-507.756	-200.000	-0.014	0.567
-506.741	-140.714	0.339	0.035
-505.726	-13.614	0.257	-0.166
-504.712	-10.912	-0.155	-0.102
-503.697	136.433	-0.191	0.248
-502.683	-17.319	-0.109	-0.068
-501.668	-184.496	-0.323	0.005
-500.653	-60.021	-0.087	-0.037
-499.639	-157.205	-0.228	-0.014
-498.624	-200.000	-0.013	-0.068
-497.610	-53.223	0.274	-0.125
-496.595	800.000	0.021	0.067
-495.581	-100.190	-0.054	0.013
-494.566	241.220	0.225	-0.373
-493.551	-92.810	-0.171	-0.048
-492.537	-0.071	-0.024	-0.017
-491.522	-131.004	0.194	-0.026
-490.508	-28.781	0.055	-0.032
-489.493	-200.000	0.045	-0.199
-488.478	12.623	-0.432	0.332
-487.464	800.000	0.092	0.267
-486.449	-200.000	-0.019	-0.345
-485.435	-32.067	0.068	-0.038
-484.420	613.539	-0.130	0.324
-483.405	122.116	0.114	-0.142
-482.391	-200.000	0.027	0.191
-481.376	43.839	-0.206	0.187
-480.362	-29.189	0.154	-0.088
-479.347	-74.748	0.194	-0.069
-478.332	659.980	0.092	-0.235
-477.318	-124.288	-0.048	-0.007
-476.303	-94.597	0.183	-0.049
-475.289	-12.611	-0.294	-0.190
-474.274	-178.696	-0.244	0.006
-473.259	-153.253	-0.262	-0.018
-472.245	303.450	0.134	0.248
-471.230	144.091	0.069	0.092
-470.216	-200.000	0.045	0.250
-469.201	191.628	0.072	0.108
-468.186	-161.426	0.319	-0.016
-467.172	161.573	-0.025	0.035
-466.157	-139.391	0.104	0.011
-465.143	-200.000	0.025	0.192
-464.128	334.789	0.088	-0.170
-463.113	800.000	-0.125	-0.394
-462.099	144.324	-0.212	-0.282
-461.084	17.257	-0.089	-0.070
-460.070	82.324	0.102	0.110
-459.055	544.683	0.071	-0.170
-458.040	800.000	-0.104	0.360
-457.026	-31.318	0.481	0.269
-456.011	137.700	-0.083	-0.109
-454.997	800.000	0.129	0.456
-453.982	-9.891	-0.055	-0.036
-452.968	117.267	0.184	0.224
-451.953	578.915	0.112	-0.273
-450.938	372.602	-0.178	-0.359
-449.924	198.771	0.046	-0.070
-448.909	88.482	-0.083	-0.092
-447.895	50.166	0.252	0.236
-446.880	39.445	0.202	-0.180
-445.865	-17.681	0.112	-0.070
-444.851	40.206	0.095	-0.085
-443.836	-37.518	0.185	-0.098
-442.822	-78.398	0.066	-0.023
-441.807	191.317	-0.121	-0.181
-440.792	-44.596	-0.223	-0.111
-439.778	-200.000	-0.026	-0.392
-438.763	506.478	-0.119	0.273
-437.749	-38.919	-0.388	-0.203
-436.734	171.693	-0.153	-0.218
-435.719	-200.000	0.083	0.381
-434.705	800.000	-0.042	0.162
-433.690	800.000	0.052	0.218
-432.676	-200.000	-0.013	-0.137
-431.661	-149.751	0.182	-0.014
-430.646	-59.157	-0.199	0.085
-429.632	488.560	0.069	0.157
-428.617	223.213	-0.219	0.351
-427.603	-200.000	0.035	0.257
-426.588	262.647	-0.120	-0.207
-425.573	164.909	0.165	0.231
-424.559	164.770	-0.031	0.044
-423.544	800.000	-0.057	-0.186
-422.530	31.153	-0.230	0.196
-421.515	-48.907	-0.134	-0.064
-420.500	120.864	-0.042	0.052
-419.486	195.598	-0.098	-0.148
-418.471	-78.448	0.264	0.090
-417.457	76.285	0.253	-0.266
-416.442	-200.000	0.021	0.334
-415.428	261.323	-0.073	0.126
-414.413	-65.832	0.064	0.026
-413.398	-45.029	-0.263	-0.130
-412.384	800.000	-0.053	-0.182
-411.369	264.250	-0.023	-0.039
-410.355	-200.000	-0.040	-0.268
-409.340	-53.777	-0.139	0.063
-408.325	39.735	-0.237	-0.211
-407.311	130.303	-0.197	0.251
-406.296	-121.058	-0.157	-0.026
-405.282	-58.549	0.176	-0.076
-404.267	-55.391	0.434	-0.193
-403.252	250.770	0.153	-0.259
-402.238	800.000	0.024	-0.091
-401.223	-200.000	0.049	0.293
-400.209	-76.102	0.134	0.047
-399.194	266.179	0.066	-0.115
-398.179	800.000	0.092	-0.305
-397.165	-153.219	0.226	-0.016
-396.150	-46.709	-0.102	-0.049
-395.136	141.876	0.161	0.212
-394.121	195.668	0.141	-0.212
-393.106	73.129	0.309	-0.320
-392.092	-72.495	0.188	0.069
-391.077	-40.275	-0.250	-0.129
-390.063	160.671	0.402	0.556
-389.048	-167.617	-0.205	0.008
-388.033	-87.055	-0.135	-0.041
-387.019	-21.392	0.073	0.044
-386.004	245.510	0.103	-0.172
-384.990	-80.891	-0.296	-0.097
-383.975	112.706	-0.208	-0.249
-382.960	800.000	-0.027	0.075
-381.946	-66.142	0.093	-0.037
-380.931	-200.000	0.007	0.221
-379.917	472.825	-0.202	0.452
-378.902	-200.000	-0.033	0.217
-377.888	92.690	-0.195	-0.218
-376.873	443.249	-0.121	-0.262
-375.858	83.465	-0.114	-0.123
-374.844	800.000	0.020	0.085
-373.829	-36.205	0.296	0.158
-372.815	501.235	-0.060	-0.137
-371.800	-200.000	-0.011	-0.105
-370.785	-200.000	-0.066	-0.288
-369.771	-59.702	0.246	0.104
-368.756	-51.372	-0.137	0.063
-367.742	-135.271	-0.046	0.006
-366.727	98.097	0.155	0.176
-365.712	-98.851	-0.091	0.023
-364.698	-35.225	-0.239	-0.129
-363.683	68.563	0.208	-0.211
-362.669	-26.344	0.257	0.149
-361.654	-137.105	-0.155	0.018
-360.639	66.530	-0.232	-0.234
-359.625	-17.154	0.245	-0.153
-358.610	1.291	-0.320	0.228
-357.596	800.000	0.046	0.127
-356.581	800.000	0.011	-0.038
-355.566	156.586	0.239	0.327
-354.552	-200.000	0.032	0.256
-353.537	241.718	-0.149	-0.247
-352.523	121.840	-0.165	-0.204
-351.508	-172.141	0.140	0.004
-350.493	-41.753	-0.195	0.099
-349.479	22.379	-0.120	-0.097
-348.464	212.575	0.056	0.087
-347.450	-200.000	-0.025	0.141
-346.435	800.000	0.053	-0.175
-345.420	470.252	0.026	0.057
-344.406	-65.987	-0.249	-0.098
-343.391	87.640	-0.212	0.232
-342.377	800.000	0.188	-0.523
-341.362	152.985	-0.013	0.018
-340.348	-200.000	0.006	-0.135
-339.333	800.000	-0.016	-0.057
-338.318	89.368	0.286	0.315
-337.304	-65.116	0.181	-0.072
-336.289	-9.399	-0.309	0.204
-335.275	388.480	-0.021	0.042
-334.260	417.137	0.129	0.273
-333.245	10.017	-0.060	-0.045
-332.231	-143.492	-0.279	0.026
-331.216	-132.148	-0.253	0.033
-330.202	-100.760	-0.461	-0.112
-329.187	-1.512	-0.334	-0.233
-328.172	-22.193	0.122	-0.073
-327.158	-185.669	0.320	0.005
-326.143	-110.869	-0.357	0.073
-325.129	-112.944	0.282	-0.055
-324.114	800.000	0.057	-0.155
-323.099	800.000	-0.058	0.179
-322.085	214.091	-0.082	-0.129
-321.070	41.458	0.199	-0.178
-320.056	-72.786	-0.088	-0.032
-319.041	-43.591	-0.289	-0.144
-318.026	800.000	0.089	0.366
-317.012	558.608	0.119	0.284
-315.997	-200.000	-0.003	-0.168
-314.983	286.708	-0.116	0.208
-313.968	-157.968	-0.289	0.017
-312.953	-27.738	-0.476	-0.273
-311.939	-135.351	-0.057	0.007
-310.924	-200.000	0.011	-0.486
-309.910	81.523	-0.284	-0.303
-308.895	-112.544	0.336	0.066
-307.880	162.301	0.074	0.103
-306.866	-82.023	-0.230	-0.074
-305.851	-200.000	0.115	-0.000
-304.837	117.330	0.162	-0.197
-303.822	-97.804	0.173	0.044
-302.807	280.155	0.062	-0.109
-301.793	192.995	0.072	-0.108
-300.778	800.000	0.085	-0.233
-299.764	-112.644	-0.332	0.065
-298.749	-200.000	-0.016	-0.174
-297.735	800.000	0.104	0.336
-296.720	58.954	0.160	-0.156
-295.705	-103.516	-0.363	0.084
-294.691	-85.851	0.129	0.039
-293.676	800.000	0.063	-0.249
-292.662	-57.468	-0.299	-0.130
-291.647	519.471	-0.106	-0.246
-290.632	-200.000	-0.037	-0.237
-289.618	-92.343	-0.162	-0.045
-288.603	-200.000	0.010	-0.067
-287.589	62.997	0.115	0.114
-286.574	-119.266	-0.073	0.012
-285.559	-200.000	-0.023	0.126
-284.545	-54.244	0.106	-0.048
-283.530	-44.200	0.410	0.203
-282.516	-45.409	-0.035	0.017
-281.501	53.409	0.152	0.144
-280.486	672.469	-0.071	0.182
-279.472	-27.554	-0.216	0.124
-278.457	213.633	0.166	0.258
-277.443	36.382	-0.146	0.127
-276.428	-200.000	-0.043	-0.185
-275.413	-7.141	-0.068	-0.045
-274.399	-200.000	0.013	0.097
-273.384	-138.672	-0.319	0.034
-272.370	-116.702	0.308	-0.056
-271.355	50.108	-0.272	-0.253
-270.340	800.000	0.057	-0.236
-269.326	-49.459	-0.267	-0.126
-268.311	-200.000	0.004	0.022
-267.297	800.000	0.036	0.148
-266.282	-9.076	0.162	-0.107
-265.267	-150.465	0.265	0.020
-264.253	98.133	0.256	-0.290
-263.238	-53.567	0.277	-0.125
-262.224	-200.000	0.005	0.364
-261.209	-200.000	0.045	-0.221
-260.195	-45.158	-0.319	-0.157
-259.180	372.963	0.202	0.405
-258.165	800.000	-0.034	0.133
-257.151	-200.000	-0.039	0.478
-256.136	-149.501	0.314	0.025
-255.122	48.217	-0.342	-0.315
-254.107	69.121	0.145	0.147
-253.092	-52.391	0.288	-0.132
-252.078	380.458	0.112	0.226
-251.063	-62.534	0.323	-0.132
-250.049	-200.000	-0.021	-0.091
-249.034	-111.273	-0.295	0.059
-248.019	182.722	-0.037	0.054
-247.005	-200.000	-0.003	0.129
-245.990	800.000	0.081	-0.275
-244.976	800.000	0.036	-0.116
-243.961	-138.558	-0.188	-0.020
-242.946	800.000	-0.036	-0.129
-241.932	-44.612	-0.096	-0.047
-240.917	-200.000	0.023	0.407
-239.903	38.147	-0.011	-0.010
-238.888	30.902	-0.315	-0.266
-237.873	-122.722	-0.451	0.072
-236.859	-95.630	0.088	-0.023
-235.844	-68.287	-0.038	0.015
-234.830	-155.346	0.194	0.012
-233.815	-99.228	0.143	0.035
-232.800	100.748	0.078	0.089
-231.786	-8.070	-0.445	0.295
-230.771	-134.317	0.241	0.029
-229.757	518.818	0.131	0.302
-228.742	164.373	0.248	0.344
-227.727	103.523	-0.142	-0.164
-226.713	49.619	-0.216	-0.201
-225.698	203.986	0.018	0.028
-224.684	-26.585	0.177	0.102
-223.669	-200.000	-0.046	0.245
-222.655	-51.224	0.313	0.144
-221.640	350.605	-0.027	0.052
-220.625	-154.006	0.439	0.029
-219.611	-134.006	-0.212	0.026
-218.596	154.773	-0.061	-0.082
-217.582	-95.366	-0.118	-0.031
-216.567	78.479	-0.190	-0.200
-215.552	15.480	-0.059	0.046
-214.538	-150.567	-0.285	-0.021
-213.523	-7.517	0.090	0.060
-212.509	-200.000	0.055	0.259
-211.494	-131.506	-0.146	0.019
-210.479	-200.000	0.008	0.236
-209.465	-82.902	0.150	0.048
-208.450	-125.033	0.199	0.030
-207.436	375.920	-0.084	0.169
-206.421	78.781	0.297	-0.313
-205.406	32.246	-0.050	-0.042
-204.392	50.551	0.165	0.154
-203.377	238.560	0.216	0.353
-202.363	-22.639	-0.080	-0.048
-201.348	-83.932	-0.078	0.024
-200.333	-96.360	0.123	0.032
-199.319	-77.155	0.351	-0.120
-198.304	338.018	-0.073	-0.139
-197.290	735.700	-0.021	-0.056
-196.275	-5.740	0.086	0.058
-195.260	298.773	0.101	0.183
-194.246	728.744	0.061	-0.159
-193.231	-1.937	0.103	0.071
-192.217	-169.759	-0.224	0.008
-191.202	-4.042	-0.162	0.111
-190.187	221.365	0.175	0.276
-189.173	166.456	0.064	0.089
-188.158	800.000	-0.047	-0.168
-187.144	-161.112	-0.130	0.007
-186.129	800.000	0.122	-0.336
-185.114	-200.000	0.006	-0.132
-184.100	-113.531	-0.118	-0.023
-183.085	141.724	0.098	0.128
-182.071	680.412	0.129	-0.331
-181.056	800.000	0.031	-0.130
-180.042	-74.783	0.300	0.106
-179.027	152.567	-0.072	-0.097
-178.012	-200.000	-0.028	0.125
-176.998	-87.284	-0.121	0.036
-175.983	-121.127	-0.146	-0.024
-174.969	131.316	-0.144	-0.181
-173.954	-11.621	0.124	0.080
-172.939	83.041	-0.118	-0.127
-171.925	-81.038	-0.158	0.051
-170.910	800.000	-0.025	-0.083
-169.896	129.589	0.129	0.162
-168.881	178.099	0.191	-0.274
-167.866	-125.439	-0.480	0.072
-166.852	800.000	0.081	-0.261
-165.837	418.071	0.167	0.350
-164.823	-12.320	0.206	0.132
-163.808	671.059	0.095	0.242
-162.793	-111.230	0.410	0.082
-161.779	-200.000	0.012	-0.054
-160.764	-36.432	-0.358	0.190
-159.750	-200.000	-0.023	-0.302
-158.735	111.858	-0.133	0.158
-157.720	88.804	0.095	-0.103
-156.706	-200.000	-0.036	-0.238
-155.691	132.611	-0.189	-0.240
-154.677	-120.678	0.313	0.052
-153.662	800.000	-0.074	0.210
-152.647	-200.000	-0.012	0.306
-151.633	-108.927	-0.180	-0.038
-150.618	10.132	-0.018	-0.014
-149.604	-200.000	0.051	0.344
-148.589	505.222	0.031	0.070
-147.574	-57.143	-0.121	0.052
-146.560	425.328	-0.035	-0.074
-145.545	-159.840	0.111	-0.006
-144.531	105.924	-0.118	0.137
-143.516	800.000	-0.141	-0.482
-142.502	124.809	0.194	0.239
-141.487	-200.000	0.061	0.446
-140.472	-65.773	-0.127	0.050
-139.458	-53.588	-0.240	-0.108
-138.443	-93.802	-0.105	-0.028
-137.429	101.246	-0.283	-0.324
-136.414	-62.503	-0.080	0.033
-135.399	-53.109	0.156	0.071
-134.385	328.800	-0.089	0.168
-133.370	748.525	-0.170	0.450
-132.356	-133.805	-0.025	0.003
-131.341	-112.334	-0.371	0.073
-130.326	800.000	-0.035	-0.100
-129.312	-121.882	0.167	0.027
-128.297	22.700	0.258	0.207
-127.283	130.912	0.140	-0.177
-126.268	-200.000	-0.013	0.317
-125.253	-144.730	-0.234	-0.021
-124.239	2.550	-0.270	-0.192
-123.224	-134.353	0.199	-0.024
-122.210	-200.000	0.019	0.246
-121.195	-200.000	-0.055	0.268
-120.180	388.943	0.070	0.141
-119.166	109.270	0.163	0.191
-118.151	-130.363	-0.192	-0.025
-117.137	-126.949	0.253	0.037
-116.122	-2.509	0.328	0.226
-115.107	-109.128	0.421	0.088
-114.093	153.511	-0.143	0.192
-113.078	-122.646	0.563	0.090
-112.064	768.226	-0.089	-0.236
-111.049	-58.157	0.158	-0.068
-110.034	14.161	0.209	0.160
-109.020	-129.663	0.248	0.034
-108.005	7.057	0.123	0.090
-106.991	208.032	-0.250	0.384
-105.976	76.175	0.029	0.030
-104.962	-43.433	-0.173	0.086
-103.947	18.280	-0.276	0.216
-102.932	1.834	0.111	0.078
-101.918	800.000	0.040	-0.143
-100.903	52.879	0.197	0.184
-99.889	-26.462	-0.136	-0.078
-98.874	-69.426	-0.168	0.063
-97.859	-200.000	0.056	-0.384
-96.845	18.275	0.176	0.138
-95.830	-148.440	0.214	-0.017
-94.816	-126.575	-0.048	-0.007
-93.801	44.614	0.371	-0.334
-92.786	19.284	0.282	-0.222
-91.772	800.000	0.114	0.350
-90.757	5.692	0.189	0.137
-89.743	690.214	-0.127	0.327
-88.728	200.163	0.036	-0.054
-87.713	656.897	0.009	-0.022
-86.699	-87.624	0.127	0.037
-85.684	-200.000	0.016	-0.182
-84.670	-17.689	-0.126	-0.078
-83.655	205.113	-0.147	0.224
-82.640	-44.985	-0.180	0.088
-81.626	-87.938	0.149	0.044
-80.611	110.100	-0.388	0.456
-79.597	147.758	-0.202	0.266
-78.582	800.000	0.078	0.269
-77.567	-7.213	-0.389	-0.259
-76.553	32.267	0.122	-0.103
-75.538	-90.899	-0.246	0.069
-74.524	-200.000	0.031	0.402
-73.509	-96.397	-0.200	0.052
-72.494	407.434	-0.209	0.433
-71.480	-137.989	-0.136	-0.015
-70.465	800.000	0.114	-0.317
-69.451	-200.000	0.054	-0.362
-68.436	739.945	0.119	-0.312
-67.422	20.696	0.107	0.085
-66.407	-200.000	0.019	-0.215
-65.392	95.653	-0.286	-0.319
-64.378	-65.060	0.188	-0.074
-63.363	-200.000	0.005	0.219
-62.349	423.109	0.056	-0.118
-61.334	51.317	-1.012	-0.941
-60.319	361.775	0.375	0.737
-59.305	800.000	-0.318	-1.343
-58.290	80.433	1.061	1.119
-57.276	-200.000	0.447	1.937
-56.261	-200.000	116.961	664.524
-55.246	530.475	1534.157	3547.500
-54.232	175.797	2707.499	3843.672
-53.217	108.970	2162.030	2529.722
-52.203	38.834	1598.621	1396.866
-51.188	30.216	1342.885	1121.525
-50.173	27.364	1304.660	1072.774
-49.159	55.787	1362.514	1292.108
-48.144	53.237	1376.326	1289.866
-47.130	30.480	1330.569	1112.644
-46.115	27.045	1313.227	1077.750
-45.100	26.914	1307.636	1072.345
-44.086	26.887	1305.096	1070.066
-43.071	26.725	1303.173	1067.491
-42.057	26.722	1301.024	1065.668
-41.042	26.800	1299.491	1064.832
-40.027	26.774	1297.560	1063.051
-39.013	26.763	1296.283	1061.898
-37.998	26.958	1293.642	1060.836
-36.984	26.950	1292.160	1059.532
-35.969	26.877	1290.351	1057.579
-34.954	26.919	1289.056	1056.721
-33.940	26.926	1287.584	1055.512
-32.925	26.893	1286.475	1054.369
-31.911	27.004	1284.829	1053.624
-30.896	27.048	1283.281	1052.564
-29.881	26.944	1282.011	1050.883
-28.867	26.951	1280.671	1049.785
-27.852	27.078	1279.358	1049.400
-26.838	27.079	1277.485	1047.827
-25.823	27.099	1276.253	1046.888
-24.809	27.026	1275.010	1045.405
-23.794	27.030	1273.848	1044.437
-22.779	26.968	1272.122	1042.624
-21.765	26.999	1271.025	1041.862
-20.750	27.041	1270.007	1041.225
-19.736	27.066	1268.230	1039.874
-18.721	26.937	1267.277	1038.310
-17.706	26.831	1266.644	1037.142
-16.692	26.926	1265.599	1036.793
-15.677	26.883	1264.419	1035.535
-14.663	26.932	1262.944	1034.569
-13.648	26.921	1261.998	1033.686
-12.633	26.850	1261.259	1032.636
-11.619	26.918	1260.001	1031.953
-10.604	26.775	1259.700	1030.854
-9.590	26.891	1258.515	1030.501
-8.575	26.928	1257.229	1029.615
-7.560	26.879	1256.009	1028.298
-6.546	26.958	1255.425	1028.231
-5.531	26.844	1254.535	1026.814
-4.517	26.927	1254.038	1026.834
-3.502	26.840	1253.138	1025.569
-2.487	26.856	1251.761	1024.486
-1.473	26.903	1247.941	1021.585
-0.458	25.405	1232.915	1000.907
0.556	22.298	1215.768	963.705
1.571	18.880	1221.641	949.429
2.586	18.049	1236.363	956.136
3.600	17.553	1224.493	944.122
4.615	13.100	1152.597	865.326
5.629	6.350	1081.300	778.447
6.644	3.565	1063.413	751.941
7.659	3.338	1061.391	749.344
8.673	3.336	1059.920	748.228
9.688	3.292	1059.220	747.452
10.702	3.549	1057.137	747.165
11.717	7.315	1061.839	768.709
12.731	14.596	1071.899	811.449
13.746	18.891	1077.400	836.490
14.761	19.491	1078.020	839.819
15.775	18.592	1076.686	834.335
16.790	17.771	1073.924	828.138
17.804	17.070	1072.293	823.404
18.819	16.720	1071.035	820.671
19.834	16.735	1069.968	819.854
20.848	16.373	1070.044	818.088
21.863	16.297	1069.058	816.893
22.877	15.988	1068.446	814.859
23.892	16.052	1067.630	814.472
24.907	16.173	1066.572	814.177
25.921	16.163	1065.077	812.915
26.936	16.088	1064.616	812.134
27.950	16.176	1063.186	811.393
28.965	16.238	1061.639	810.436
29.980	16.413	1060.162	810.077
30.994	16.354	1059.142	808.942
32.009	16.420	1058.075	808.373
33.023	16.292	1057.321	807.115
34.038	16.237	1055.978	805.753
35.053	16.093	1055.526	804.652
36.067	16.172	1054.364	804.071
37.082	16.220	1053.378	803.474
38.096	16.403	1052.453	803.569
39.111	16.349	1051.813	802.755
40.126	16.116	1050.586	800.638
41.140	16.133	1048.440	799.016
42.155	15.808	1047.857	796.962
43.169	15.812	1046.695	796.025
44.184	15.865	1045.585	795.361
45.199	16.006	1044.350	795.016
46.213	15.990	1043.443	794.178
47.228	16.198	1042.712	794.534
48.242	16.124	1041.958	793.540
49.257	16.199	1040.598	792.788
50.271	16.224	1040.345	792.642
51.286	16.218	1039.261	791.718
52.301	16.171	1038.463	790.818
53.315	16.035	1037.521	789.393
54.330	16.046	1036.052	788.257
55.344	15.993	1035.672	787.653
56.359	16.036	1034.732	787.068
57.374	15.825	1034.020	785.473
58.388	15.937	1032.633	784.870
59.403	15.918	1031.881	784.141
60.417	15.876	1030.889	783.123
61.432	15.862	1030.015	782.325
62.447	15.835	1029.469	781.714
63.461	15.734	1028.741	780.625
64.476	15.792	1027.693	780.028
65.490	15.658	1026.851	778.702
66.505	15.648	1026.331	778.190
67.520	15.785	1025.249	777.934
68.534	15.772	1024.688	777.382
69.549	15.774	1023.795	776.642
70.563	15.705	1023.057	775.697
71.578	15.609	1022.018	774.396
72.593	15.569	1021.477	773.734
73.607	15.560	1020.746	773.069
74.622	15.636	1020.276	772.997
75.636	15.637	1019.539	772.375
76.651	15.616	1018.578	771.482
77.666	15.619	1018.417	771.304
78.680	15.695	1017.483	770.878
79.695	15.731	1016.951	770.574
80.709	15.892	1016.201	770.674
81.724	15.883	1015.733	770.208
82.739	16.023	1014.642	769.953
83.753	16.027	1014.165	769.540
84.768	16.413	1013.226	770.518
85.782	16.396	1012.806	770.054
86.797	16.286	1011.526	768.514
87.812	16.211	1010.583	767.387
88.826	16.275	1009.335	766.664
89.841	16.221	1009.126	766.191
90.855	16.265	1007.848	765.355
91.870	16.373	1007.279	765.342
92.884	16.338	1006.219	764.311
93.899	16.267	1005.223	763.166
94.914	16.520	1004.226	763.482
95.928	16.377	1003.559	762.262
96.943	16.360	1002.688	761.458
97.957	16.220	1001.951	760.199
98.972	16.270	1000.769	759.462
99.987	16.299	1000.117	759.029
101.001	16.272	999.240	758.173
102.016	16.242	998.333	757.287
103.030	16.394	997.599	757.342
104.045	16.400	996.747	756.658
105.060	16.338	995.753	755.559
106.074	16.018	995.113	753.574
107.089	16.004	993.636	752.325
108.103	15.815	993.334	751.188
109.118	15.967	991.809	750.647
110.133	15.939	990.838	749.720
111.147	15.926	989.987	748.950
112.162	15.901	988.987	748.018
113.176	16.003	988.629	748.134
114.191	16.004	988.430	747.920
115.206	15.966	987.332	746.858
116.220	15.997	986.276	746.130
117.235	16.026	985.228	745.398
118.249	16.021	984.610	744.843
119.264	15.853	983.887	743.486
120.279	15.868	983.085	742.881
121.293	15.845	982.107	741.974
122.308	15.724	981.331	740.790
123.322	15.765	979.748	739.709
124.337	15.673	979.006	738.682
125.352	15.664	977.840	737.697
126.366	15.808	976.497	737.249
127.381	15.657	975.879	736.057
128.395	15.665	975.283	735.575
129.410	15.749	974.404	735.214
130.424	15.822	973.241	734.590
131.439	15.922	972.617	734.492
132.454	15.935	971.828	733.888
133.468	16.022	971.036	733.603
134.483	15.922	970.118	732.410
135.497	16.000	969.105	731.917
136.512	15.982	968.419	731.259
137.527	15.971	967.822	730.693
138.541	15.979	967.339	730.300
139.556	15.994	966.491	729.661
140.570	16.110	965.704	729.502
141.585	16.268	965.087	729.657
142.600	16.352	964.137	729.238
143.614	16.317	963.557	728.583
144.629	16.368	963.046	728.349
145.643	16.490	961.251	727.453
146.658	16.247	960.658	725.893
147.673	16.246	959.520	724.969
148.687	16.160	958.637	723.865
149.702	16.076	957.862	722.856
150.716	16.052	956.903	721.966
151.731	16.107	956.370	721.736
152.746	16.093	955.815	721.194
153.760	16.264	954.976	721.229
154.775	16.269	954.534	720.851
155.789	16.398	953.572	720.609
156.804	16.338	952.979	719.846
157.819	16.369	952.206	719.328
158.833	16.322	952.270	719.114
159.848	16.615	950.871	719.240
160.862	16.304	950.304	717.426
161.877	16.180	949.123	715.944
162.892	16.095	948.136	714.776
163.906	16.167	946.867	714.060
164.921	16.176	946.159	713.502
165.935	16.182	944.940	712.544
166.950	16.370	944.084	712.627
167.964	16.266	943.433	711.635
168.979	16.235	942.848	711.001
169.994	16.130	942.369	710.136
171.008	16.240	941.677	710.014
172.023	16.458	940.492	709.972
173.037	16.527	940.182	709.967
174.052	16.499	939.123	708.984
175.067	16.095	938.703	706.911
176.081	16.284	937.474	706.715
177.096	16.163	937.285	706.002
178.110	16.217	936.787	705.793
179.125	16.331	935.910	705.546
180.140	16.458	935.525	705.722
181.154	16.371	934.937	704.855
182.169	16.495	934.786	705.195
183.183	16.508	934.091	704.664
184.198	16.461	933.579	704.018
185.213	16.527	932.532	703.441
186.227	16.553	931.856	702.975
187.242	16.625	931.406	702.876
188.256	16.650	931.075	702.664
189.271	16.691	929.935	701.914
190.286	16.434	929.067	700.132
191.300	16.198	928.204	698.444
192.315	16.200	927.205	697.638
193.329	16.164	927.096	697.346
194.344	16.282	926.515	697.332
195.359	16.366	926.077	697.287
196.373	16.487	925.562	697.338
197.388	16.704	925.002	697.751
198.402	16.795	924.438	697.636
199.417	16.868	923.988	697.537
200.432	16.849	923.511	697.037
201.446	17.052	922.930	697.368
202.461	16.990	922.492	696.723
203.475	17.010	921.943	696.330
204.490	16.714	920.940	694.297
205.504	16.614	919.973	693.095
206.519	16.797	919.249	693.238
207.534	16.777	918.799	692.756
208.548	16.818	917.680	692.018
209.563	16.792	917.246	691.524
210.577	16.825	916.623	691.127
211.592	17.038	916.493	691.838
212.607	17.025	915.724	691.142
213.621	17.097	914.570	690.502
214.636	16.886	913.948	689.115
215.650	17.006	913.503	689.206
216.665	17.069	912.724	688.811
217.680	17.089	912.527	688.685
218.694	17.125	911.541	688.023
219.709	17.247	910.582	687.735
220.723	17.077	910.283	686.757
221.738	17.106	909.338	686.102
222.753	17.100	908.874	685.667
223.767	17.131	908.456	685.417
224.782	17.185	908.240	685.409
225.796	17.219	907.462	684.901
226.811	17.237	906.269	684.010
227.826	17.228	905.850	683.596
228.840	17.040	904.972	682.120
229.855	17.091	903.975	681.512
230.869	17.163	903.002	681.006
231.884	17.028	902.181	679.788
232.899	17.048	902.134	679.771
233.913	16.934	901.208	678.558
234.928	16.902	900.672	677.965
235.942	17.025	900.078	677.950
236.957	17.145	899.447	677.895
237.972	16.895	898.994	676.496
238.986	17.094	898.275	676.689
240.001	16.885	897.978	675.571
241.015	17.009	897.235	675.447
242.030	17.151	896.456	675.363
243.045	17.144	895.788	674.776
244.059	17.196	895.257	674.520
245.074	17.164	894.737	673.944
246.088	17.162	894.512	673.706
247.103	17.346	893.747	673.799
248.117	17.411	893.381	673.721
249.132	17.495	893.091	673.775
250.147	17.706	892.054	673.767
251.161	17.697	891.676	673.386
252.176	17.856	890.714	673.226
253.190	17.831	890.381	672.818
254.205	17.712	889.809	671.855
255.220	17.778	889.425	671.767
256.234	17.868	888.268	671.188
257.249	17.904	887.265	670.510
258.263	17.743	886.801	669.472
259.278	17.681	886.324	668.809
260.293	17.874	885.695	669.032
261.307	18.031	885.021	669.077
262.322	17.892	884.717	668.242
263.336	17.909	884.048	667.745
264.351	18.021	883.278	667.544
265.366	17.967	882.525	666.703
266.380	17.889	881.786	665.782
267.395	17.997	881.006	665.553
268.409	17.830	880.518	664.477
269.424	17.858	879.715	663.922
270.439	17.919	878.742	663.366
271.453	17.873	878.769	663.151
272.468	17.629	878.431	661.889
273.482	17.663	877.764	661.460
274.497	17.872	876.859	661.526
275.512	17.971	876.180	661.342
276.526	17.905	875.884	660.801
277.541	17.892	875.532	660.428
278.555	17.945	874.663	659.918
279.570	18.267	873.875	660.508
280.585	18.178	873.240	659.629
281.599	18.095	872.207	658.471
282.614	17.967	871.618	657.474
283.628	17.988	871.054	657.070
284.643	17.880	870.625	656.274
285.657	18.070	869.766	656.298
286.672	18.112	869.207	655.980
287.687	17.913	869.062	655.047
288.701	17.981	867.991	654.444
289.716	18.031	867.429	654.152
290.730	18.072	867.117	654.018
291.745	18.143	866.474	653.745
292.760	18.106	866.256	653.381
293.774	18.292	865.374	653.369
294.789	18.258	864.575	652.577
295.803	18.203	863.721	651.667
296.818	18.005	863.367	650.588
297.833	18.158	862.568	650.511
298.847	18.068	861.998	649.681
299.862	18.243	861.546	649.947
300.876	18.209	861.248	649.537
301.891	18.359	860.532	649.507
302.906	18.320	859.891	648.820
303.920	18.401	859.733	648.949
304.935	18.456	859.079	648.607
305.949	18.568	857.787	647.995
306.964	18.476	857.345	647.256
307.979	18.300	857.136	646.376
308.993	18.496	856.213	646.362
310.008	18.672	855.749	646.619
311.022	18.542	855.341	645.763
312.037	18.390	854.518	644.514
313.052	18.166	854.086	643.289
314.066	18.238	853.366	642.959
315.081	18.179	852.800	642.254
316.095	18.321	852.204	642.281
317.110	18.264	851.564	641.529
318.125	18.345	851.058	641.396
319.139	18.377	850.794	641.257
320.154	18.332	850.394	640.731
321.168	18.379	850.109	640.637
322.183	18.422	849.050	639.944
323.197	18.176	849.040	638.959
324.212	18.499	848.018	639.337
325.227	18.418	847.545	638.623
326.241	18.403	846.688	637.867
327.256	18.339	846.444	637.388
328.270	18.473	845.721	637.286
329.285	18.394	845.377	636.676
330.300	18.468	844.534	636.259
331.314	18.573	843.869	636.091
332.329	18.590	843.711	635.977
333.343	18.664	843.360	635.930
334.358	18.567	843.097	635.316
335.373	18.622	842.415	634.950
336.387	18.572	842.031	634.420
337.402	18.647	842.293	634.838
338.416	18.778	841.903	634.974
339.431	18.924	841.436	635.104
340.446	18.871	841.266	634.724
341.460	18.946	840.437	634.321
342.475	18.992	840.416	634.416
343.489	19.004	840.156	634.209
344.504	19.022	839.197	633.495
345.519	19.148	838.597	633.451
346.533	19.020	838.011	632.481
347.548	18.934	837.681	631.858
348.562	18.861	836.762	630.842
349.577	18.924	836.148	630.554
350.592	18.818	835.659	629.743
351.606	18.676	835.088	628.737
352.621	18.898	834.258	628.866
353.635	18.881	833.465	628.151
354.650	18.803	833.241	627.641
355.665	18.943	832.484	627.529
356.679	18.886	832.152	627.016
357.694	18.938	831.401	626.581
358.708	18.958	830.558	625.965
359.723	18.926	829.962	625.345
360.738	19.041	829.578	625.416
361.752	19.123	828.891	625.141
362.767	19.184	828.222	624.803
363.781	19.201	828.052	624.682
364.796	19.266	827.884	624.733
365.810	19.343	827.514	624.677
366.825	19.314	827.289	624.348
367.840	19.263	826.942	623.847
368.854	19.282	825.896	623.072
369.869	19.294	825.237	622.563
370.883	19.286	824.863	622.197
371.898	19.448	824.572	622.508
372.913	19.412	824.622	622.360
373.927	19.425	823.904	621.810
374.942	19.539	822.944	621.439
375.956	19.542	822.936	621.390
376.971	19.583	822.284	620.990
377.986	19.754	821.731	621.131
379.000	19.665	821.082	620.266
380.015	19.626	820.972	619.987
381.029	19.651	820.119	619.379
382.044	19.549	819.982	618.857
383.059	19.832	818.968	619.049
384.073	19.662	818.517	618.043
385.088	19.575	817.840	617.170
386.102	19.557	817.056	616.457
387.117	19.412	816.598	615.539
388.132	19.447	815.836	615.037
389.146	19.464	815.776	614.996
390.161	19.725	815.252	615.478
391.175	19.777	814.810	615.273
392.190	19.397	814.501	613.634
393.205	19.552	813.673	613.508
394.219	19.401	813.714	612.946
395.234	19.579	812.848	612.871
396.248	19.307	812.462	611.562
397.263	19.428	811.868	611.491
398.278	19.392	811.645	611.140
399.292	19.432	811.043	610.775
400.307	19.377	810.551	610.154
401.321	19.472	810.425	610.344
402.336	19.507	809.874	609.996
403.350	19.804	809.293	610.555
404.365	19.697	809.128	610.000
405.380	19.888	808.369	610.047
406.394	19.957	807.585	609.644
407.409	19.895	807.490	609.299
408.423	20.012	807.039	609.314
409.438	20.015	806.748	609.053
410.453	19.926	806.813	608.737
411.467	20.045	805.902	608.413
412.482	20.262	805.551	608.854
413.496	20.182	805.225	608.274
414.511	20.060	805.083	607.683
415.526	20.104	804.478	607.329
416.540	20.102	804.027	606.925
417.555	20.157	803.543	606.702
418.569	20.141	803.245	606.366
419.584	20.152	802.596	605.862
420.599	20.088	802.562	605.559
421.613	161.980	1372.156	1797.594
422.628	140.720	1455.132	1797.672
