DTS Sentinel unit serial number:	SN413079Multiplexer serial number:	ORYXHardware model number:	OX4-SRSoftware version number:	ORYX F/W v4.00 Oryx Data Collector v3.7.2.0data status	okinstallation	princeton_trtdifferential loss correction	single-endedforward channel	channel 1reverse channel	N/Adate	2019/09/19time	06:58:35forward acquisition time	60.00reverse acquisition time	0.00gamma	496.2192k internal	0.2342k external	0.2342temperature offset calibration	1.0016default loss term (dB/km)	0.3790temperature slope calibration	1.0000multiplexer offset coefficient	1.0000multiplexer slope coefficient	1.0000fibre end	0.00T internal ref (°C)	19.00T ext. ref 1 (°C)	0.56T ext. ref 2 (°C)	12.77length (m)	temperature (°C)	Stokes	anti-Stokes-747.200	274.517	0.169	0.299
-746.185	-167.877	-0.208	0.008
-745.171	800.000	0.020	0.070
-744.156	-101.719	-0.044	-0.011
-743.142	-190.322	0.278	0.003
-742.127	-175.838	-0.292	-0.008
-741.112	81.696	-0.165	-0.179
-740.098	-196.455	-0.203	0.001
-739.083	-141.516	-0.065	0.007
-738.069	555.431	-0.151	0.363
-737.054	-119.809	0.261	0.045
-736.039	2.484	0.282	-0.205
-735.025	19.279	0.052	0.042
-734.010	11.189	-0.240	-0.184
-732.996	800.000	-0.058	0.162
-731.981	-141.125	-0.252	-0.026
-730.966	-136.710	-0.285	-0.033
-729.952	168.143	-0.134	-0.191
-728.937	-111.744	0.313	-0.063
-727.923	149.680	0.091	0.123
-726.908	-37.828	-0.314	0.167
-725.894	300.434	0.123	-0.227
-724.879	75.693	-0.125	-0.132
-723.864	-12.819	0.209	-0.136
-722.850	53.998	-0.105	-0.101
-721.835	18.386	-0.173	0.139
-720.821	-15.098	0.247	0.159
-719.806	-200.000	0.001	-0.103
-718.791	-88.344	-0.307	0.092
-717.777	-138.003	-0.301	-0.034
-716.762	-69.288	0.241	-0.093
-715.748	-200.000	0.023	-0.147
-714.733	-200.000	-0.058	-0.340
-713.718	-164.702	0.359	0.016
-712.704	-144.494	-0.100	-0.009
-711.689	-200.000	0.012	0.094
-710.675	8.919	0.159	-0.120
-709.660	800.000	-0.100	0.366
-708.645	-51.033	-0.190	-0.089
-707.631	-40.322	-0.044	-0.023
-706.616	117.184	-0.201	0.246
-705.602	800.000	0.093	0.292
-704.587	99.046	0.085	0.098
-703.572	33.084	0.220	0.190
-702.558	-26.354	-0.355	-0.208
-701.543	-114.369	0.339	0.065
-700.529	-200.000	-0.013	-0.278
-699.514	-52.138	-0.124	-0.057
-698.499	-200.000	0.019	0.137
-697.485	-93.141	-0.268	0.075
-696.470	-200.000	0.018	-0.211
-695.456	747.856	0.045	-0.121
-694.441	-38.525	-0.258	0.137
-693.426	47.609	0.110	0.103
-692.412	800.000	-0.080	-0.298
-691.397	117.535	0.088	0.108
-690.383	800.000	0.071	0.204
-689.368	86.743	-0.175	0.194
-688.354	129.234	-0.087	0.111
-687.339	-70.893	-0.314	0.118
-686.324	144.266	-0.196	-0.261
-685.310	73.790	-0.159	0.166
-684.295	-27.381	0.244	0.142
-683.281	-200.000	0.015	0.337
-682.266	-27.150	0.321	0.187
-681.251	219.049	0.186	-0.296
-680.237	-200.000	-0.010	-0.175
-679.222	-200.000	-0.042	0.348
-678.208	800.000	0.062	0.260
-677.193	-200.000	-0.032	-0.206
-676.178	-200.000	0.013	0.085
-675.164	-73.861	-0.326	-0.118
-674.149	21.968	0.286	-0.233
-673.135	455.471	0.028	-0.063
-672.120	-63.288	-0.197	0.081
-671.105	427.919	0.100	0.216
-670.091	59.093	-0.263	0.259
-669.076	6.582	-0.292	-0.216
-668.062	-144.857	0.277	0.025
-667.047	320.833	-0.164	-0.312
-666.032	-64.411	0.142	-0.058
-665.018	122.511	0.211	-0.264
-664.003	780.499	-0.089	-0.244
-662.989	-47.403	0.247	0.120
-661.974	-78.972	0.106	-0.036
-660.959	-134.627	-0.238	-0.029
-659.945	5.831	-0.397	-0.293
-658.930	25.114	0.201	-0.166
-657.916	98.464	0.034	-0.039
-656.901	-4.789	0.175	-0.120
-655.886	34.132	0.243	0.212
-654.872	-41.629	-0.220	0.113
-653.857	173.725	0.156	-0.225
-652.843	-6.964	-0.058	-0.039
-651.828	-169.801	0.217	-0.008
-650.814	68.710	0.085	0.088
-649.799	253.222	0.070	-0.119
-648.784	800.000	-0.055	-0.199
-647.770	800.000	-0.031	-0.109
-646.755	519.251	0.055	-0.130
-645.741	227.028	0.270	-0.438
-644.726	-200.000	0.049	-0.228
-643.711	-129.931	-0.222	-0.030
-642.697	-152.949	0.218	0.015
-641.682	-200.000	-0.024	0.228
-640.668	103.810	-0.204	-0.239
-639.653	-200.000	0.019	0.117
-638.638	3.327	-0.119	0.087
-637.624	84.686	0.122	0.134
-636.609	-46.962	-0.081	0.040
-635.595	-52.253	0.257	0.119
-634.580	238.311	-0.076	0.125
-633.565	129.641	-0.272	-0.346
-632.551	-57.970	-0.128	0.056
-631.536	201.313	-0.259	0.398
-630.522	-108.676	0.194	-0.041
-629.507	-55.185	0.231	0.104
-628.492	800.000	0.035	0.136
-627.478	800.000	-0.041	0.136
-626.463	699.102	0.062	0.162
-625.449	-59.847	-0.461	0.197
-624.434	800.000	0.157	-0.477
-623.419	-36.143	-0.259	-0.140
-622.405	249.237	-0.042	-0.071
-621.390	-63.136	-0.211	-0.087
-620.376	-133.251	0.212	-0.027
-619.361	188.032	0.203	0.302
-618.346	-200.000	0.032	-0.219
-617.332	-200.000	-0.032	-0.248
-616.317	131.912	-0.207	-0.266
-615.303	42.021	-0.142	0.129
-614.288	-11.441	-0.445	0.292
-613.273	-200.000	-0.017	0.136
-612.259	98.304	-0.305	0.350
-611.244	-135.143	-0.263	-0.032
-610.230	554.281	0.139	-0.333
-609.215	381.899	-0.137	-0.280
-608.201	-26.654	0.081	0.047
-607.186	800.000	-0.028	-0.121
-606.171	175.735	-0.207	-0.299
-605.157	-45.727	-0.171	-0.084
-604.142	19.206	-0.198	-0.159
-603.128	800.000	-0.056	0.192
-602.113	673.060	0.125	0.322
-601.098	467.598	0.034	0.076
-600.084	800.000	-0.055	0.215
-599.069	563.340	0.148	0.357
-598.055	45.088	0.352	0.323
-597.040	-62.632	0.332	-0.137
-596.025	14.587	0.143	0.111
-595.011	800.000	0.043	-0.149
-593.996	85.453	0.213	-0.233
-592.982	-130.376	0.213	0.029
-591.967	103.035	0.050	-0.059
-590.952	74.651	-0.161	-0.168
-589.938	47.348	-0.159	-0.148
-588.923	677.249	-0.073	0.188
-587.909	-24.394	-0.194	0.115
-586.894	-200.000	0.008	0.088
-585.879	68.688	0.117	0.120
-584.865	717.575	0.082	-0.216
-583.850	107.938	0.225	0.267
-582.836	257.140	-0.061	-0.104
-581.821	-5.266	0.271	0.185
-580.806	-80.505	-0.053	0.018
-579.792	-53.099	-0.249	0.114
-578.777	-83.516	-0.283	-0.090
-577.763	-200.000	0.036	-0.201
-576.748	384.785	0.047	0.097
-575.733	64.313	0.101	-0.101
-574.719	-178.785	-0.468	-0.011
-573.704	-91.219	0.150	0.043
-572.690	376.229	-0.153	0.310
-571.675	-149.404	0.189	-0.015
-570.661	800.000	0.067	0.243
-569.646	37.276	-0.181	0.159
-568.631	-101.021	-0.394	0.096
-567.617	-10.860	-0.406	-0.267
-566.602	462.032	-0.060	-0.132
-565.588	-200.000	-0.019	0.385
-564.573	87.479	-0.134	-0.148
-563.558	-200.000	0.045	-0.269
-562.544	-91.332	0.204	0.058
-561.529	800.000	-0.037	0.113
-560.515	-12.532	-0.219	0.142
-559.500	98.156	-0.117	0.133
-558.485	21.239	0.235	0.190
-557.471	800.000	-0.069	0.192
-556.456	-200.000	-0.012	-0.086
-555.442	136.070	0.295	-0.382
-554.427	49.083	-0.301	-0.281
-553.412	194.702	-0.089	-0.134
-552.398	388.165	-0.076	-0.156
-551.383	-44.920	0.370	0.183
-550.369	-169.760	-0.089	-0.003
-549.354	-114.569	0.223	-0.042
-548.339	800.000	0.052	0.197
-547.325	-57.728	0.250	-0.109
-546.310	-111.008	-0.257	0.053
-545.296	10.096	-0.164	-0.124
-544.281	189.300	0.149	0.222
-543.266	-200.000	-0.022	-0.189
-542.252	702.559	0.096	-0.252
-541.237	29.633	0.208	-0.176
-540.223	800.000	-0.010	0.039
-539.208	186.932	-0.066	-0.098
-538.193	554.607	0.096	-0.229
-537.179	-200.000	0.063	-0.406
-536.164	-41.465	-0.090	-0.046
-535.150	-14.512	-0.147	-0.094
-534.135	-49.743	-0.027	0.013
-533.121	209.282	-0.053	-0.082
-532.106	-61.611	0.229	-0.096
-531.091	-200.000	-0.006	0.151
-530.077	-74.324	-0.345	-0.124
-529.062	-79.118	0.105	0.036
-528.048	-135.934	0.280	-0.033
-527.033	684.039	-0.122	-0.316
-526.018	800.000	0.110	0.352
-525.004	-123.835	0.205	-0.032
-523.989	-152.170	-0.251	-0.018
-522.975	-11.828	0.135	-0.088
-521.960	65.895	-0.092	-0.093
-520.945	75.828	-0.158	0.166
-519.931	-75.426	-0.349	-0.123
-518.916	-200.000	0.024	0.115
-517.902	501.397	0.140	-0.321
-516.887	94.078	-0.095	0.107
-515.872	-200.000	-0.004	0.190
-514.858	-20.332	-0.247	-0.151
-513.843	-25.804	0.126	-0.074
-512.829	85.126	0.187	-0.203
-511.814	-172.019	0.136	-0.004
-510.799	-6.320	0.129	-0.087
-509.785	-13.298	0.165	-0.106
-508.770	-62.913	-0.175	-0.072
-507.756	738.484	0.080	0.214
-506.741	-120.872	0.063	0.011
-505.726	-157.578	-0.231	-0.014
-504.712	-126.445	0.298	0.044
-503.697	-125.026	0.415	0.063
-502.683	89.487	-0.245	0.271
-501.668	-99.547	-0.084	-0.021
-500.653	135.785	-0.218	-0.282
-499.639	82.750	-0.082	-0.089
-498.624	38.496	-0.205	0.181
-497.610	-200.000	-0.044	-0.408
-496.595	42.009	-0.058	0.053
-495.581	-93.172	-0.065	-0.018
-494.566	-94.064	0.174	0.047
-493.551	-200.000	0.005	-0.130
-492.537	-126.316	0.454	-0.067
-491.522	63.991	0.170	0.170
-490.508	-150.192	0.079	-0.006
-489.493	-200.000	-0.000	-0.238
-488.478	187.457	-0.102	-0.151
-487.464	357.743	0.214	0.424
-486.449	-118.326	0.182	-0.032
-485.435	-200.000	0.002	0.246
-484.420	-139.272	0.478	-0.051
-483.405	-200.000	-0.052	-0.288
-482.391	-200.000	-0.052	0.461
-481.376	-200.000	0.002	0.113
-480.362	276.438	-0.100	-0.175
-479.347	86.813	-0.152	0.166
-478.332	-200.000	0.003	0.396
-477.318	-87.062	0.162	-0.049
-476.303	22.187	0.325	0.263
-475.289	207.478	-0.091	-0.141
-474.274	-200.000	-0.016	0.096
-473.259	586.331	0.096	0.233
-472.245	170.391	0.180	-0.255
-471.230	-11.078	0.277	0.181
-470.216	282.482	-0.081	-0.144
-469.201	-9.280	0.098	-0.065
-468.186	-11.696	-0.235	-0.153
-467.172	-138.859	-0.178	-0.019
-466.157	-65.932	-0.180	0.071
-465.143	-23.071	-0.093	0.056
-464.128	-160.815	-0.259	0.014
-463.113	131.204	0.107	-0.137
-462.099	89.738	0.156	0.172
-461.084	56.575	0.078	0.075
-460.070	-65.300	-0.194	-0.077
-459.055	-114.177	-0.412	-0.079
-458.040	-149.122	-0.459	0.036
-457.026	41.039	0.016	0.014
-456.011	-151.358	0.247	-0.018
-454.997	48.053	0.054	-0.050
-453.982	33.951	-0.077	-0.067
-452.968	-97.277	-0.162	0.042
-451.953	198.525	0.119	0.181
-450.938	72.890	0.134	-0.139
-449.924	-200.000	0.004	-0.272
-448.909	21.341	0.220	0.177
-447.895	-37.032	-0.105	0.056
-446.880	-55.595	-0.173	0.077
-445.865	255.453	0.075	-0.127
-444.851	382.837	0.100	-0.204
-443.836	-120.310	-0.178	-0.030
-442.822	214.420	0.220	-0.345
-441.807	-200.000	0.023	-0.235
-440.792	-182.155	0.260	-0.005
-439.778	-4.339	-0.273	-0.187
-438.763	368.098	0.086	-0.171
-437.749	-110.024	0.251	-0.052
-436.734	-67.044	0.233	0.091
-435.719	140.640	-0.051	-0.066
-434.705	-200.000	0.085	0.472
-433.690	-97.347	-0.045	-0.012
-432.676	-146.445	0.371	0.032
-431.661	-200.000	-0.050	-0.301
-430.646	368.175	-0.046	-0.092
-429.632	-200.000	-0.002	0.037
-428.617	665.796	-0.069	-0.177
-427.603	254.530	0.019	0.032
-426.588	800.000	0.045	0.170
-425.573	-7.530	-0.332	-0.222
-424.559	-60.691	-0.379	-0.159
-423.544	284.831	-0.177	0.315
-422.530	356.608	-0.178	-0.352
-421.515	142.773	-0.074	0.097
-420.500	-169.518	-0.187	0.007
-419.486	-112.172	-0.158	0.031
-418.471	-200.000	-0.015	-0.267
-417.457	69.136	0.021	-0.021
-416.442	-200.000	0.008	0.230
-415.428	-48.598	0.280	0.133
-414.413	22.728	-0.293	-0.238
-413.398	-200.000	-0.070	0.364
-412.384	727.807	-0.096	0.254
-411.369	-67.992	-0.277	0.107
-410.355	-21.455	0.210	-0.126
-409.340	3.674	0.060	0.043
-408.325	499.593	0.031	-0.072
-407.311	190.121	0.054	0.080
-406.296	-54.381	-0.231	0.104
-405.282	10.901	0.281	-0.212
-404.267	-84.065	0.355	-0.111
-403.252	94.109	-0.102	-0.114
-402.238	800.000	-0.026	0.088
-401.223	-119.342	0.024	0.004
-400.209	-200.000	-0.032	0.266
-399.194	-9.659	-0.163	-0.108
-398.179	-200.000	0.047	-0.312
-397.165	595.838	-0.211	0.517
-396.150	513.656	0.088	0.204
-395.136	800.000	-0.131	0.367
-394.121	800.000	0.109	0.415
-393.106	129.206	-0.225	-0.284
-392.092	-200.000	-0.052	0.400
-391.077	-84.773	-0.089	0.028
-390.063	6.222	0.139	0.102
-389.048	-200.000	0.032	0.151
-388.033	284.850	-0.209	-0.371
-387.019	-102.431	0.266	-0.063
-386.004	-86.510	0.170	0.052
-384.990	-200.000	-0.062	0.283
-383.975	-83.291	-0.182	-0.058
-382.960	-73.503	-0.034	-0.012
-381.946	800.000	-0.059	0.174
-380.931	-144.577	-0.250	0.023
-379.917	-102.728	0.256	0.060
-378.902	-200.000	-0.065	0.442
-377.888	515.335	-0.086	0.198
-376.873	34.477	-0.038	-0.032
-375.858	-200.000	0.023	0.106
-374.844	-125.206	0.381	0.058
-373.829	-200.000	-0.008	-0.211
-372.815	-84.746	-0.156	0.048
-371.800	103.432	0.075	-0.087
-370.785	-200.000	0.021	0.165
-369.771	-200.000	0.025	0.213
-368.756	-40.105	-0.015	0.008
-367.742	-188.053	0.076	-0.001
-366.727	-61.771	0.281	-0.116
-365.712	-176.245	0.359	-0.009
-364.698	-200.000	-0.076	0.439
-363.683	-200.000	0.062	-0.314
-362.669	-200.000	-0.018	0.210
-361.654	-53.088	-0.345	0.156
-360.639	800.000	-0.022	-0.076
-359.625	261.582	0.051	0.088
-358.610	-145.513	0.008	-0.001
-357.596	800.000	-0.105	0.313
-356.581	222.964	-0.159	-0.253
-355.566	51.788	-0.101	-0.095
-354.552	-99.578	0.342	0.085
-353.537	-49.929	-0.114	0.053
-352.523	-142.278	-0.368	-0.036
-351.508	-92.564	0.228	-0.063
-350.493	-2.897	0.294	-0.203
-349.479	-127.157	-0.350	-0.051
-348.464	-47.578	-0.084	0.040
-347.450	196.662	-0.090	0.136
-346.435	-39.652	-0.093	-0.048
-345.420	-13.634	-0.183	-0.117
-344.406	-200.000	0.006	-0.140
-343.391	74.808	-0.224	0.233
-342.377	-175.216	-0.233	-0.006
-341.362	800.000	0.072	0.244
-340.348	-13.145	0.127	0.082
-339.333	-200.000	0.024	-0.234
-338.318	-149.805	-0.056	0.004
-337.304	126.764	0.024	-0.030
-336.289	91.599	0.152	-0.168
-335.275	-95.973	-0.019	-0.005
-334.260	211.634	-0.122	0.189
-333.245	70.041	0.215	-0.218
-332.231	-110.780	-0.216	0.044
-331.216	-153.494	0.367	0.025
-330.202	18.620	-0.162	0.127
-329.187	-50.295	0.247	0.115
-328.172	34.179	0.463	0.397
-327.158	53.012	0.219	-0.207
-326.143	-200.000	0.012	0.385
-325.129	-136.457	-0.123	-0.014
-324.114	800.000	-0.002	-0.008
-323.099	800.000	0.034	-0.137
-322.085	491.037	0.078	0.177
-321.070	800.000	-0.080	0.293
-320.056	122.769	0.032	-0.040
-319.041	-200.000	-0.060	-0.280
-318.026	-48.349	-0.332	0.157
-317.012	-94.299	-0.080	-0.022
-315.997	-176.464	-0.138	-0.004
-314.983	225.108	-0.048	0.076
-313.968	-43.989	0.249	0.123
-312.953	75.896	-0.145	-0.151
-311.939	400.129	-0.116	-0.239
-310.924	-200.000	-0.076	-0.405
-309.910	-78.059	0.254	0.086
-308.895	356.299	0.084	0.164
-307.880	4.109	-0.329	0.237
-306.866	122.387	-0.178	0.219
-305.851	-156.021	-0.367	0.023
-304.837	-99.888	0.353	0.087
-303.822	432.852	-0.056	-0.120
-302.807	46.441	0.311	0.284
-301.793	-200.000	0.013	-0.415
-300.778	-78.022	-0.406	0.138
-299.764	-111.565	-0.202	-0.040
-298.749	36.885	-0.445	-0.387
-297.735	25.438	-0.230	-0.188
-296.720	-9.926	0.209	0.137
-295.705	-60.326	0.267	-0.112
-294.691	782.628	-0.030	-0.081
-293.676	139.957	-0.084	-0.108
-292.662	359.425	0.197	-0.388
-291.647	45.868	0.160	-0.145
-290.632	-85.335	-0.137	0.042
-289.618	120.302	0.179	0.219
-288.603	-200.000	0.009	-0.127
-287.589	-200.000	-0.016	-0.112
-286.574	-45.080	-0.280	0.137
-285.559	-200.000	0.033	-0.142
-284.545	134.848	0.189	-0.242
-283.530	800.000	0.057	-0.198
-282.516	-133.390	0.177	-0.022
-281.501	32.984	0.190	-0.162
-280.486	-200.000	-0.000	0.241
-279.472	800.000	0.098	0.356
-278.457	117.727	0.230	-0.278
-277.443	-150.986	0.021	0.002
-276.428	-97.564	0.353	-0.090
-275.413	-200.000	0.071	0.349
-274.399	-200.000	-0.015	0.175
-273.384	-200.000	-0.038	-0.234
-272.370	-200.000	0.022	-0.133
-271.355	-200.000	0.070	0.447
-270.340	224.301	-0.307	-0.487
-269.326	-61.591	0.184	0.076
-268.311	36.313	0.096	-0.083
-267.297	-200.000	0.022	-0.400
-266.282	-200.000	-0.009	-0.330
-265.267	-136.761	-0.169	-0.019
-264.253	-151.477	0.306	-0.022
-263.238	-200.000	0.032	-0.240
-262.224	-200.000	0.025	-0.291
-261.209	-29.950	0.351	-0.196
-260.195	-200.000	0.002	-0.119
-259.180	655.698	-0.058	-0.146
-258.165	88.901	-0.250	0.273
-257.151	53.029	-0.117	-0.110
-256.136	335.355	-0.123	-0.235
-255.122	-200.000	-0.008	0.049
-254.107	-108.998	0.240	-0.050
-253.092	800.000	0.111	-0.303
-252.078	-200.000	-0.055	0.243
-251.063	563.283	-0.010	-0.024
-250.049	157.206	0.201	-0.274
-249.034	-149.122	0.131	0.010
-248.019	-111.551	0.086	0.017
-247.005	-200.000	-0.025	0.121
-245.990	-200.000	0.013	0.270
-244.976	-43.298	-0.190	0.095
-243.961	-89.712	0.193	0.056
-242.946	273.278	0.068	0.118
-241.932	-88.451	0.224	-0.066
-240.917	39.659	0.066	0.058
-239.903	5.316	-0.045	-0.032
-238.888	800.000	0.050	0.197
-237.873	-57.665	0.109	-0.047
-236.859	34.217	0.178	-0.153
-235.844	-200.000	-0.035	-0.202
-234.830	19.391	0.195	0.154
-233.815	-200.000	0.035	0.322
-232.800	712.200	0.055	-0.144
-231.786	-18.685	-0.269	0.164
-230.771	-17.650	-0.099	0.061
-229.757	393.116	-0.074	0.151
-228.742	411.819	0.059	0.123
-227.727	-103.075	-0.127	0.030
-226.713	800.000	0.007	0.027
-225.698	-65.780	0.222	-0.087
-224.684	800.000	-0.007	-0.027
-223.669	-46.121	-0.077	-0.037
-222.655	-81.604	0.251	0.081
-221.640	800.000	0.147	0.432
-220.625	-129.813	-0.212	0.029
-219.611	800.000	0.070	0.236
-218.596	-118.162	-0.024	0.004
-217.582	45.526	-0.180	-0.163
-216.567	-27.252	0.337	-0.193
-215.552	27.840	-0.255	-0.211
-214.538	224.059	0.093	0.148
-213.523	-200.000	-0.015	-0.242
-212.509	-106.282	0.321	0.071
-211.494	37.279	0.141	-0.122
-210.479	-13.776	-0.180	0.114
-209.465	800.000	0.009	0.033
-208.450	735.940	0.073	-0.193
-207.436	437.912	-0.129	0.275
-206.421	-200.000	0.022	-0.124
-205.406	-82.686	0.359	0.114
-204.392	37.556	0.049	-0.042
-203.377	-48.500	-0.262	-0.124
-202.363	171.414	0.107	-0.151
-201.348	128.828	0.145	0.181
-200.333	800.000	-0.035	-0.143
-199.319	-118.574	0.247	0.043
-198.304	153.647	-0.213	-0.287
-197.290	-117.848	-0.320	0.056
-196.275	-40.597	0.245	0.125
-195.260	83.536	-0.072	0.077
-194.246	0.270	0.121	0.084
-193.231	-121.483	0.312	-0.051
-192.217	-84.532	-0.044	-0.014
-191.202	183.355	-0.129	-0.187
-190.187	-200.000	-0.012	0.145
-189.173	297.270	-0.047	-0.084
-188.158	-200.000	-0.032	0.215
-187.144	53.391	-0.250	0.234
-186.129	0.822	-0.108	-0.076
-185.114	34.257	0.145	0.124
-184.100	-200.000	-0.009	-0.046
-183.085	7.779	-0.318	0.233
-182.071	-107.029	-0.100	0.022
-181.056	800.000	0.122	-0.344
-180.042	-170.807	0.041	0.001
-179.027	67.075	0.194	0.193
-178.012	121.574	0.003	0.003
-176.998	378.549	0.038	0.076
-175.983	695.633	-0.104	-0.268
-174.969	-200.000	0.050	-0.382
-173.954	-14.825	-0.104	0.066
-172.939	50.080	0.071	-0.066
-171.925	710.404	0.016	-0.041
-170.910	-136.731	0.128	0.014
-169.896	-200.000	-0.036	0.314
-168.881	11.795	-0.147	-0.111
-167.866	194.232	-0.223	0.331
-166.852	-102.226	0.115	0.027
-165.837	401.453	-0.122	0.251
-164.823	-200.000	0.043	0.384
-163.808	5.025	0.170	-0.122
-162.793	149.754	0.094	0.125
-161.779	219.885	-0.157	0.247
-160.764	-70.788	0.274	-0.101
-159.750	242.134	-0.062	-0.102
-158.735	-200.000	0.013	-0.059
-157.720	509.508	-0.062	-0.141
-156.706	670.158	0.098	-0.249
-155.691	-16.130	-0.176	-0.110
-154.677	338.568	-0.140	0.266
-153.662	-77.274	0.221	-0.075
-152.647	-200.000	-0.088	0.387
-151.633	784.200	-0.100	-0.269
-150.618	356.406	0.123	0.240
-149.604	560.418	0.061	0.144
-148.589	-10.115	0.195	0.127
-147.574	98.820	0.118	-0.133
-146.560	-200.000	0.011	-0.176
-145.545	-74.188	0.117	-0.041
-144.531	91.685	-0.060	0.066
-143.516	-200.000	0.007	0.164
-142.502	-64.402	0.291	-0.116
-141.487	-48.210	0.101	-0.048
-140.472	-111.638	0.009	-0.002
-139.458	-24.352	-0.219	0.127
-138.443	83.957	-0.178	-0.190
-137.429	-178.803	0.032	-0.001
-136.414	-89.973	0.163	-0.046
-135.399	608.120	0.106	-0.259
-134.385	63.804	-0.117	0.115
-133.370	-200.000	-0.005	-0.278
-132.356	413.037	-0.126	0.262
-131.341	-72.532	0.231	-0.083
-130.326	131.710	-0.172	0.217
-129.312	-110.374	0.179	-0.036
-128.297	583.566	-0.057	-0.137
-127.283	39.341	0.102	-0.089
-126.268	540.911	-0.099	-0.229
-125.253	-91.437	-0.129	-0.036
-124.239	800.000	-0.079	0.223
-123.224	800.000	0.019	0.055
-122.210	-125.613	0.177	0.026
-121.195	40.719	-0.065	0.058
-120.180	-42.318	0.120	0.060
-119.166	72.520	0.115	0.117
-118.151	-200.000	-0.000	0.246
-117.137	-62.737	-0.229	-0.093
-116.122	360.657	0.197	-0.386
-115.107	-116.431	-0.228	-0.041
-114.093	-31.681	0.330	0.181
-113.078	800.000	-0.072	0.233
-112.064	800.000	-0.055	-0.153
-111.049	105.150	0.217	-0.250
-110.034	-62.633	-0.404	-0.164
-109.020	800.000	-0.109	-0.349
-108.005	59.922	0.132	-0.127
-106.991	-132.964	-0.208	-0.026
-105.976	102.368	-0.098	-0.111
-104.962	-77.507	0.131	0.044
-103.947	-149.510	-0.567	0.044
-102.932	15.043	0.230	-0.176
-101.918	800.000	-0.080	-0.239
-100.903	-61.726	0.331	-0.135
-99.889	375.406	0.148	-0.294
-98.874	-61.879	0.241	-0.099
-97.859	-139.818	-0.398	-0.041
-96.845	-59.420	0.243	-0.102
-95.830	-20.677	-0.077	-0.046
-94.816	-155.835	0.168	0.010
-93.801	800.000	-0.078	0.231
-92.786	-61.608	0.362	0.148
-91.772	-112.246	-0.118	0.023
-90.757	44.825	-0.078	0.070
-89.743	-78.474	-0.152	-0.051
-88.728	172.662	0.122	-0.172
-87.713	-152.748	0.168	-0.012
-86.699	-200.000	-0.016	0.185
-85.684	-26.283	0.121	0.070
-84.670	-200.000	0.060	0.374
-83.655	-200.000	-0.011	-0.082
-82.640	585.671	-0.085	-0.205
-81.626	-123.846	-0.377	0.058
-80.611	-136.667	0.145	-0.016
-79.597	-68.736	0.059	-0.022
-78.582	-200.000	0.018	0.077
-77.567	353.874	0.038	0.073
-76.553	268.290	0.071	0.121
-75.538	-200.000	-0.004	0.280
-74.524	-109.094	0.327	-0.068
-73.509	23.502	0.153	0.123
-72.494	-176.803	0.172	-0.004
-71.480	-200.000	-0.047	0.301
-70.465	-20.034	0.068	0.041
-69.451	-37.845	0.262	-0.136
-68.436	-58.035	0.274	0.117
-67.422	-15.262	0.227	-0.142
-66.407	384.498	0.100	0.202
-65.392	-5.429	-0.035	0.023
-64.378	292.494	0.241	-0.428
-63.363	114.079	-0.244	-0.290
-62.349	374.153	-0.034	-0.068
-61.334	40.579	-1.438	-1.264
-60.319	117.964	0.777	0.934
-59.305	508.179	-0.629	-1.423
-58.290	285.561	0.921	1.618
-57.276	304.486	0.749	1.355
-56.261	-200.000	136.179	630.504
-55.246	346.109	1633.396	3130.979
-54.232	137.744	2769.665	3536.109
-53.217	81.267	2153.631	2268.169
-52.203	29.595	1589.402	1318.072
-51.188	22.097	1341.968	1067.461
-50.173	20.120	1307.638	1028.392
-49.159	46.940	1382.203	1252.557
-48.144	42.182	1390.872	1231.222
-47.130	22.038	1339.014	1064.585
-46.115	19.217	1320.088	1032.612
-45.100	18.953	1314.734	1026.807
-44.086	18.866	1313.133	1024.995
-43.071	18.876	1310.351	1022.842
-42.057	18.895	1308.315	1021.325
-41.042	18.820	1306.737	1019.606
-40.027	18.918	1305.044	1018.826
-39.013	18.891	1303.345	1017.302
-37.998	18.906	1301.536	1015.939
-36.984	18.973	1299.869	1014.991
-35.969	19.021	1297.800	1013.620
-34.954	18.956	1296.255	1011.991
-33.940	18.998	1294.898	1011.136
-32.925	19.095	1293.542	1010.607
-31.911	19.017	1292.366	1009.188
-30.896	19.121	1290.760	1008.507
-29.881	19.130	1289.288	1007.370
-28.867	19.090	1287.930	1006.035
-27.852	19.128	1286.263	1004.916
-26.838	19.199	1284.855	1004.189
-25.823	19.109	1283.531	1002.587
-24.809	19.113	1282.369	1001.664
-23.794	19.085	1281.047	1000.431
-22.779	19.169	1279.632	999.772
-21.765	19.039	1278.895	998.401
-20.750	19.021	1277.169	996.909
-19.736	19.002	1275.874	995.747
-18.721	18.919	1274.867	994.442
-17.706	19.034	1273.520	994.018
-16.692	18.910	1272.724	992.639
-15.677	18.889	1271.758	991.728
-14.663	18.872	1270.773	990.824
-13.648	18.848	1269.334	989.520
-12.633	18.980	1268.164	989.331
-11.619	18.946	1267.897	988.889
-10.604	19.039	1266.601	988.374
-9.590	18.903	1265.821	986.946
-8.575	18.964	1264.826	986.476
-7.560	18.917	1264.019	985.538
-6.546	18.912	1263.052	984.717
-5.531	19.024	1262.344	984.768
-4.517	19.007	1261.185	983.727
-3.502	19.017	1260.508	983.220
-2.487	18.878	1259.809	981.842
-1.473	18.905	1254.904	978.132
-0.458	17.240	1240.280	957.321
0.556	12.938	1224.944	921.444
1.571	9.590	1232.711	908.354
2.586	8.975	1248.098	916.099
3.600	9.254	1235.422	908.294
4.615	6.888	1164.300	843.312
5.629	2.671	1096.618	772.991
6.644	0.675	1080.858	751.889
7.659	0.571	1079.785	750.559
8.673	0.464	1078.825	749.297
9.688	0.541	1077.666	748.806
10.702	0.683	1074.607	747.317
11.717	3.292	1076.880	761.750
12.731	9.386	1084.513	797.361
13.746	14.900	1092.585	830.686
14.761	17.056	1094.713	842.950
15.775	16.368	1093.083	838.208
16.790	15.412	1091.115	831.888
17.804	14.797	1089.813	827.777
18.819	14.459	1088.630	825.131
19.834	14.342	1087.724	823.796
20.848	14.050	1087.008	821.738
21.863	13.855	1085.605	819.639
22.877	13.607	1085.230	818.062
23.892	13.515	1084.907	817.290
24.907	13.479	1084.260	816.556
25.921	13.571	1082.794	815.831
26.936	13.689	1082.164	815.864
27.950	13.602	1081.483	814.850
28.965	13.751	1079.873	814.299
29.980	13.833	1078.102	813.294
30.994	13.843	1077.360	812.708
32.009	13.710	1076.950	811.678
33.023	13.957	1075.064	811.391
34.038	13.740	1074.892	810.126
35.053	13.725	1073.843	809.194
36.067	13.667	1072.982	808.188
37.082	13.797	1071.753	807.826
38.096	13.815	1071.331	807.522
39.111	13.790	1070.391	806.621
40.126	13.734	1069.080	805.292
41.140	13.700	1067.850	804.128
42.155	13.689	1066.924	803.305
43.169	13.506	1065.629	801.376
44.184	13.584	1065.075	801.267
45.199	13.498	1063.897	799.892
46.213	13.581	1062.905	799.474
47.228	13.653	1061.554	798.734
48.242	13.585	1060.668	797.673
49.257	13.673	1059.726	797.318
50.271	13.685	1058.970	796.732
51.286	13.651	1058.241	795.951
52.301	13.677	1056.993	795.068
53.315	13.616	1056.078	794.018
54.330	13.665	1054.929	793.319
55.344	13.575	1054.009	792.123
56.359	13.581	1053.397	791.622
57.374	13.582	1052.324	790.753
58.388	13.542	1051.860	790.141
59.403	13.494	1050.602	788.901
60.417	13.542	1049.689	788.370
61.432	13.479	1049.538	787.890
62.447	13.460	1048.206	786.728
63.461	13.511	1047.969	786.726
64.476	13.537	1046.694	785.820
65.490	13.573	1045.441	784.982
66.505	13.571	1044.740	784.376
67.520	13.446	1044.370	783.438
68.534	13.519	1043.518	783.073
69.549	13.604	1042.839	782.897
70.563	13.626	1041.719	782.088
71.578	13.472	1041.451	781.090
72.593	13.458	1040.648	780.358
73.607	13.423	1040.001	779.636
74.622	13.462	1038.854	778.891
75.636	13.473	1038.061	778.278
76.651	13.404	1037.675	777.596
77.666	13.548	1036.919	777.639
78.680	13.501	1036.222	776.825
79.695	13.610	1035.159	776.469
80.709	13.611	1034.902	776.212
81.724	13.495	1034.321	775.166
82.739	13.652	1033.341	775.099
83.753	13.618	1032.842	774.494
84.768	13.714	1031.519	773.884
85.782	13.843	1030.331	773.527
86.797	13.682	1029.622	772.176
87.812	13.639	1029.295	771.659
88.826	13.632	1028.030	770.610
89.841	13.781	1026.980	770.449
90.855	13.761	1026.178	769.683
91.870	13.798	1025.106	768.984
92.884	13.784	1024.672	768.524
93.899	13.693	1024.029	767.554
94.914	13.735	1022.875	766.815
95.928	13.845	1021.577	766.282
96.943	13.791	1021.161	765.656
97.957	13.704	1020.437	764.642
98.972	13.676	1019.649	763.853
99.987	13.763	1018.346	763.214
101.001	13.808	1017.183	762.481
102.016	13.753	1016.485	761.635
103.030	13.727	1015.981	761.074
104.045	13.833	1015.144	760.864
105.060	13.796	1013.987	759.761
106.074	13.661	1013.729	758.882
107.089	13.825	1012.358	758.539
108.103	13.490	1011.975	756.651
109.118	13.620	1010.402	756.003
110.133	13.652	1009.580	755.466
111.147	13.695	1008.795	755.008
112.162	13.610	1008.308	754.189
113.176	13.636	1007.724	753.805
114.191	13.760	1006.353	753.275
115.206	13.585	1005.409	751.708
116.220	13.604	1004.930	751.368
117.235	13.709	1003.755	750.903
118.249	13.710	1002.620	749.990
119.264	13.658	1002.368	749.499
120.279	13.671	1001.749	749.028
121.293	13.699	1000.565	748.203
122.308	13.743	999.678	747.674
123.322	13.551	998.842	746.118
124.337	13.642	997.339	745.337
125.352	13.601	996.335	744.338
126.366	13.624	995.293	743.594
127.381	13.659	994.288	742.937
128.395	13.517	993.683	741.784
129.410	13.678	992.722	741.720
130.424	13.556	991.900	740.496
131.439	13.671	991.242	740.450
132.454	13.672	990.392	739.755
133.468	13.666	989.927	739.318
134.483	13.727	988.385	738.371
135.497	13.702	987.623	737.624
136.512	13.788	986.709	737.260
137.527	13.726	986.087	736.453
138.541	13.743	985.225	735.818
139.556	13.721	984.827	735.359
140.570	13.652	984.257	734.562
141.585	13.755	983.056	734.059
142.600	13.795	982.378	733.665
143.614	13.940	980.920	733.151
144.629	13.832	980.710	732.453
145.643	13.884	979.312	731.573
146.658	13.858	978.190	730.557
147.673	13.841	977.676	730.031
148.687	13.919	976.764	729.629
149.702	13.773	976.500	728.724
150.716	13.842	975.190	727.987
151.731	13.923	974.474	727.740
152.746	13.838	973.922	726.894
153.760	13.847	973.347	726.437
154.775	13.903	972.699	726.137
155.789	13.920	971.704	725.404
156.804	14.003	971.425	725.491
157.819	13.965	970.509	724.578
158.833	14.013	970.194	724.490
159.848	14.082	968.690	723.602
160.862	14.024	967.766	722.595
161.877	14.020	967.084	722.005
162.892	14.001	966.158	721.166
163.906	13.886	965.594	720.182
164.921	13.961	964.710	719.784
165.935	14.002	963.451	718.962
166.950	13.960	962.810	718.237
167.964	14.003	961.818	717.618
168.979	13.932	960.669	716.391
169.994	14.082	960.114	716.560
171.008	14.088	958.940	715.648
172.023	13.966	958.684	714.870
173.037	13.987	958.389	714.675
174.052	14.011	957.450	714.014
175.067	14.109	956.238	713.467
176.081	14.006	956.120	712.875
177.096	14.158	955.618	713.089
178.110	14.168	954.762	712.433
179.125	14.200	953.980	711.919
180.140	14.138	953.441	711.191
181.154	14.198	953.047	711.089
182.169	14.111	952.788	710.465
183.183	14.320	951.931	710.652
184.198	14.160	950.990	709.204
185.213	14.181	950.482	708.851
186.227	14.193	950.150	708.594
187.242	14.280	948.850	707.932
188.256	14.317	948.486	707.755
189.271	14.261	948.011	707.099
190.286	14.170	947.168	706.023
191.300	14.247	946.085	705.478
192.315	14.211	945.632	704.924
193.329	14.176	945.589	704.685
194.344	14.189	944.619	703.954
195.359	14.171	943.841	703.234
196.373	14.387	942.945	703.417
197.388	14.359	942.927	703.224
198.402	14.438	942.259	702.998
199.417	14.430	941.165	702.084
200.432	14.483	941.002	702.125
201.446	14.583	940.202	701.887
202.461	14.563	940.227	701.756
203.475	14.514	939.545	700.982
204.490	14.431	938.589	699.857
205.504	14.478	937.432	699.129
206.519	14.542	936.845	698.900
207.534	14.483	936.285	698.171
208.548	14.612	935.579	698.122
209.563	14.680	934.738	697.717
210.577	14.510	934.351	696.659
211.592	14.729	933.490	696.868
212.607	14.628	932.676	695.778
213.621	14.685	931.855	695.342
214.636	14.687	931.121	694.741
215.650	14.754	930.142	694.227
216.665	14.636	929.821	693.433
217.680	14.749	928.863	693.128
218.694	14.719	928.532	692.696
219.709	14.820	927.707	692.438
220.723	14.871	926.819	691.923
221.738	14.866	926.322	691.469
222.753	14.833	925.570	690.713
223.767	14.709	925.332	689.962
224.782	14.836	924.373	689.710
225.796	14.657	924.572	689.058
226.811	14.880	923.605	689.195
227.826	14.797	922.508	687.976
228.840	14.956	921.706	687.968
229.855	14.993	920.935	687.485
230.869	15.074	919.888	686.977
231.884	14.731	919.820	685.455
232.899	14.890	919.072	685.491
233.913	14.924	918.192	684.912
234.928	14.806	917.659	683.973
235.942	14.916	917.050	683.906
236.957	14.997	916.174	683.522
237.972	14.868	915.875	682.714
238.986	14.957	914.998	682.363
240.001	14.964	914.246	681.768
241.015	14.955	913.929	681.435
242.030	15.082	912.984	681.188
243.045	15.008	912.109	680.174
244.059	15.135	911.761	680.369
245.074	15.192	910.743	679.780
246.088	15.147	910.508	679.362
247.103	15.023	910.114	678.507
248.117	15.084	909.542	678.266
249.132	15.170	908.882	678.062
250.147	15.256	908.182	677.827
251.161	15.164	907.592	676.957
252.176	15.258	906.737	676.637
253.190	15.365	905.804	676.315
254.205	15.283	905.346	675.581
255.220	15.179	904.754	674.661
256.234	15.274	904.202	674.573
257.249	15.403	903.296	674.356
258.263	15.409	902.575	673.782
259.278	15.468	901.712	673.313
260.293	15.488	901.487	673.166
261.307	15.426	901.133	672.595
262.322	15.477	900.343	672.150
263.336	15.517	899.450	671.582
264.351	15.617	898.888	671.505
265.366	15.482	898.173	670.369
266.380	15.429	897.450	669.561
267.395	15.634	896.518	669.624
268.409	15.560	896.088	668.947
269.424	15.609	895.128	668.367
270.439	15.550	894.400	667.530
271.453	15.603	893.740	667.190
272.468	15.548	893.502	666.734
273.482	15.787	892.388	666.790
274.497	15.552	892.311	665.744
275.512	15.719	891.708	665.895
276.526	15.711	891.221	665.443
277.541	15.789	890.422	665.096
278.555	15.739	889.827	664.395
279.570	15.724	889.405	663.958
280.585	15.843	888.362	663.590
281.599	15.793	887.562	662.737
282.614	15.751	886.866	661.997
283.628	15.869	886.257	661.945
284.643	15.856	885.738	661.449
285.657	15.724	885.055	660.360
286.672	15.857	884.551	660.448
287.687	15.828	883.899	659.792
288.701	15.751	883.543	659.166
289.716	15.858	882.845	659.003
290.730	16.021	882.378	659.236
291.745	16.016	881.683	658.638
292.760	16.076	880.775	658.134
293.774	15.897	880.346	657.059
294.789	15.953	879.851	656.850
295.803	16.011	878.857	656.274
296.818	15.972	877.942	655.383
297.833	15.993	877.443	655.034
298.847	15.985	877.066	654.662
299.862	16.009	876.416	654.214
300.876	16.032	875.904	653.860
301.891	16.139	875.324	653.786
302.906	16.114	874.692	653.160
303.920	16.123	874.189	652.760
304.935	16.190	873.727	652.616
305.949	16.235	873.057	652.231
306.964	16.255	872.286	651.676
307.979	16.078	871.995	650.716
308.993	16.153	871.169	650.333
310.008	16.226	870.734	650.233
311.022	16.250	870.260	649.914
312.037	16.287	869.363	649.326
313.052	16.313	868.560	648.772
314.066	16.267	868.415	648.429
315.081	16.316	867.619	647.965
316.095	16.305	866.693	647.173
317.110	16.323	866.641	647.146
318.125	16.208	866.111	646.253
319.139	16.426	865.703	646.725
320.154	16.334	865.109	645.871
321.168	16.335	864.662	645.486
322.183	16.316	864.182	644.997
323.197	16.354	863.672	644.707
324.212	16.274	862.959	643.810
325.227	16.383	862.476	643.808
326.241	16.332	861.860	643.098
327.256	16.520	860.923	643.056
328.270	16.458	860.380	642.360
329.285	16.419	859.772	641.701
330.300	16.374	859.440	641.223
331.314	16.452	859.091	641.203
332.329	16.368	858.466	640.360
333.343	16.517	858.121	640.611
334.358	16.530	857.269	639.970
335.373	16.482	857.218	639.691
336.387	16.598	856.740	639.719
337.402	16.683	856.532	639.826
338.416	16.503	856.422	639.007
339.431	16.662	855.693	639.006
340.446	16.679	855.356	638.763
341.460	16.690	854.968	638.461
342.475	16.650	854.615	637.988
343.489	16.760	853.987	637.879
344.504	16.739	853.781	637.586
345.519	16.955	852.998	637.759
346.533	16.859	852.310	636.828
347.548	16.763	852.044	636.210
348.562	16.753	851.628	635.806
349.577	16.734	851.177	635.343
350.592	16.801	850.365	634.930
351.606	16.744	849.992	634.382
352.621	16.798	848.729	633.585
353.635	16.768	848.281	633.085
354.650	16.799	847.725	632.729
355.665	16.854	846.928	632.283
356.679	17.088	846.361	632.678
357.694	16.894	845.800	631.477
358.708	16.944	845.156	631.127
359.723	16.999	844.314	630.646
360.738	16.848	844.235	629.971
361.752	17.037	843.326	629.939
362.767	17.151	842.582	629.749
363.781	16.916	842.633	628.861
364.796	17.257	841.448	629.185
365.810	17.142	841.428	628.687
366.825	17.191	840.808	628.350
367.840	17.074	840.336	627.509
368.854	17.199	839.768	627.492
369.869	17.162	839.462	627.070
370.883	17.188	838.859	626.661
371.898	17.255	838.618	626.673
372.913	17.240	838.535	626.500
373.927	17.236	838.026	626.048
374.942	17.233	837.632	625.690
375.956	17.229	837.103	625.224
376.971	17.306	836.568	625.052
377.986	17.227	836.498	624.655
379.000	17.472	835.275	624.583
380.015	17.425	834.874	624.057
381.029	17.477	834.407	623.844
382.044	17.387	833.688	622.919
383.059	17.495	832.882	622.658
384.073	17.442	833.020	622.513
385.088	17.407	832.115	621.652
386.102	17.354	831.891	621.236
387.117	17.414	830.932	620.686
388.132	17.508	830.408	620.582
389.146	17.547	829.720	620.152
390.161	17.554	829.236	619.761
391.175	17.497	829.163	619.446
392.190	17.532	828.404	618.950
393.205	17.597	827.911	618.764
394.219	17.513	827.932	618.421
395.234	17.670	827.232	618.412
396.248	17.496	826.414	617.116
397.263	17.443	826.583	616.994
398.278	17.363	826.374	616.495
399.292	17.440	825.767	616.265
400.307	17.584	824.983	616.147
401.321	17.462	824.680	615.424
402.336	17.671	823.771	615.448
403.350	17.608	823.425	614.907
404.365	17.596	823.272	614.695
405.380	17.753	822.639	614.734
406.394	17.780	822.024	614.315
407.409	17.770	821.568	613.886
408.423	17.821	821.567	614.014
409.438	17.831	820.981	613.560
410.453	17.908	820.351	613.308
411.467	17.784	819.991	612.539
412.482	17.816	819.770	612.438
413.496	18.035	819.038	612.619
414.511	17.965	818.925	612.231
415.526	17.906	818.988	612.012
416.540	18.005	817.898	611.499
417.555	18.059	817.210	611.123
418.569	18.003	817.192	610.857
419.584	18.030	816.763	610.576
420.599	18.012	816.184	610.024
421.613	115.905	1301.642	1493.648
422.628	100.455	1372.321	1493.715
