DTS Sentinel unit serial number:	SN413079Multiplexer serial number:	ORYXHardware model number:	OX4-SRSoftware version number:	ORYX F/W v4.00 Oryx Data Collector v3.7.2.0data status	okinstallation	princeton_trtdifferential loss correction	single-endedforward channel	channel 1reverse channel	N/Adate	2019/09/12time	19:17:34forward acquisition time	15.00reverse acquisition time	0.00gamma	496.2192k internal	0.2321k external	0.2321temperature offset calibration	1.0115default loss term (dB/km)	0.3790temperature slope calibration	1.0000multiplexer offset coefficient	1.0000multiplexer slope coefficient	1.0000fibre end	0.00T internal ref (°C)	32.50T ext. ref 1 (°C)	3.21T ext. ref 2 (°C)	27.03length (m)	temperature (°C)	Stokes	anti-Stokes-747.200	-87.006	0.545	0.168
-746.185	800.000	-0.060	0.174
-745.171	-147.336	0.748	-0.064
-744.156	250.038	-0.071	0.122
-743.142	182.090	0.349	0.520
-742.127	-200.000	0.093	-0.491
-741.112	-4.663	-0.372	-0.260
-740.098	-67.883	0.701	-0.277
-739.083	800.000	0.158	-0.495
-738.069	20.559	0.232	-0.189
-737.054	564.296	-0.448	-1.098
-736.039	115.151	-0.424	0.523
-735.025	-163.790	-1.155	0.055
-734.010	-88.225	-0.854	-0.258
-732.996	-200.000	-0.003	0.061
-731.981	170.700	0.162	0.234
-730.966	136.993	0.122	0.161
-729.952	-35.785	-0.292	-0.160
-728.937	-15.255	-0.173	0.111
-727.923	-89.202	-0.612	-0.182
-726.908	453.219	0.218	0.487
-725.894	131.280	-0.197	0.256
-724.879	-117.664	0.581	-0.106
-723.864	261.248	0.267	-0.466
-722.850	-122.501	-0.677	-0.111
-721.835	43.753	-0.542	-0.501
-720.821	-4.949	-0.391	0.272
-719.806	19.839	0.270	0.219
-718.791	-141.603	0.802	-0.082
-717.777	-29.378	-0.227	-0.131
-716.762	339.341	-0.205	-0.404
-715.748	23.912	-0.123	-0.102
-714.733	-200.000	-0.116	0.960
-713.718	346.483	0.380	-0.756
-712.704	-88.839	0.317	0.095
-711.689	102.957	-0.382	0.451
-710.675	180.162	0.203	0.300
-709.660	-23.391	0.470	0.285
-708.645	-95.768	-0.306	0.082
-707.631	-200.000	0.086	1.033
-706.616	-112.325	-0.259	0.052
-705.602	-15.993	-0.757	0.486
-704.587	-200.000	-0.008	0.372
-703.572	-200.000	0.018	0.306
-702.558	64.542	0.184	-0.187
-701.543	37.818	-0.516	-0.463
-700.529	22.960	0.524	-0.433
-699.514	330.279	0.216	-0.420
-698.499	651.217	0.195	-0.504
-697.485	-21.315	-0.341	0.210
-696.470	800.000	-0.246	0.717
-695.456	-36.418	0.333	0.181
-694.441	395.469	0.135	0.285
-693.426	99.429	-0.115	-0.134
-692.412	-200.000	-0.055	-1.051
-691.397	-200.000	-0.008	-0.473
-690.383	-93.080	-0.718	0.202
-689.368	-61.066	-0.529	0.225
-688.354	-200.000	0.092	0.505
-687.339	160.728	-0.126	0.177
-686.324	-166.736	0.460	-0.019
-685.310	800.000	-0.060	-0.256
-684.295	35.277	0.448	0.396
-683.281	-72.490	-0.326	0.122
-682.266	-200.000	-0.021	0.095
-681.251	566.357	-0.179	0.438
-680.237	-200.000	0.005	-0.412
-679.222	-190.360	0.556	-0.006
-678.208	21.933	-0.758	-0.623
-677.193	-140.039	0.381	0.041
-676.178	-200.000	-0.042	-0.432
-675.164	-56.653	0.248	0.111
-674.149	185.512	0.164	0.246
-673.135	6.896	0.737	0.553
-672.120	306.820	0.266	-0.498
-671.105	-75.421	-0.400	0.144
-670.091	-200.000	-0.010	-0.152
-669.076	243.962	0.113	-0.191
-668.062	-67.788	-0.608	-0.240
-667.047	-200.000	0.446	0.002
-666.032	800.000	-0.155	-0.437
-665.018	-120.063	-0.291	-0.050
-664.003	252.962	0.366	0.630
-662.989	-200.000	-0.014	0.450
-661.974	86.402	-0.353	-0.392
-660.959	-200.000	-0.001	0.155
-659.945	-70.596	0.676	-0.257
-658.930	800.000	0.277	-0.951
-657.916	-90.664	-0.258	-0.075
-656.901	-127.971	0.024	-0.003
-655.886	-200.000	0.052	-0.930
-654.872	146.332	0.236	-0.319
-653.857	-200.000	0.019	0.355
-652.843	-157.853	-0.519	-0.031
-651.828	120.050	0.436	-0.545
-650.814	-59.453	-0.289	0.125
-649.799	-200.000	0.021	-0.418
-648.784	504.298	0.090	0.209
-647.770	216.057	-0.190	0.304
-646.755	-200.000	-0.162	-0.752
-645.741	-200.000	0.045	-0.328
-644.726	109.248	-0.370	-0.446
-643.711	-136.883	-0.470	0.054
-642.697	-30.582	0.446	-0.254
-641.682	10.821	-0.617	0.474
-640.668	-97.618	0.086	0.022
-639.653	-97.687	-0.392	-0.102
-638.638	217.208	0.211	-0.338
-637.624	800.000	0.111	-0.486
-636.609	68.829	-0.606	0.626
-635.595	135.713	0.336	-0.441
-634.580	300.650	-0.395	-0.734
-633.565	800.000	0.152	0.610
-632.551	30.758	0.140	0.121
-631.536	221.140	0.138	-0.222
-630.522	800.000	0.183	-0.639
-629.507	-200.000	-0.014	-0.346
-628.492	250.398	-0.390	0.667
-627.478	-36.154	-1.393	-0.757
-626.463	-200.000	-0.117	0.528
-625.449	194.625	0.206	0.314
-624.434	800.000	-0.049	0.187
-623.419	-200.000	-0.044	-0.552
-622.405	-50.006	-0.601	-0.287
-621.390	515.176	-0.390	-0.915
-620.376	9.027	0.186	-0.141
-619.361	71.949	-0.097	0.101
-618.346	36.885	0.191	0.170
-617.332	-127.132	0.126	-0.019
-616.317	296.704	-0.405	-0.747
-615.303	-200.000	-0.018	0.142
-614.288	2.789	-0.328	0.239
-613.273	-47.805	-0.786	-0.383
-612.259	346.444	-0.089	-0.177
-611.244	103.200	0.151	-0.178
-610.230	195.105	0.470	-0.717
-609.215	-200.000	0.002	0.425
-608.201	530.762	-0.038	0.090
-607.186	-11.335	0.255	-0.169
-606.171	-171.128	-0.752	-0.026
-605.157	-64.189	0.114	0.047
-604.142	366.339	-0.142	-0.288
-603.128	86.144	0.426	-0.472
-602.113	-84.102	0.511	-0.163
-601.098	800.000	0.192	-0.585
-600.084	800.000	0.228	0.895
-599.069	-148.356	-0.715	-0.059
-598.055	187.920	0.787	-1.182
-597.040	79.470	0.189	0.204
-596.025	22.363	-0.583	0.479
-595.011	800.000	-0.194	0.565
-593.996	266.444	0.381	0.669
-592.982	-200.000	1.134	-0.004
-591.967	-64.883	-0.336	-0.137
-590.952	254.002	-0.450	-0.773
-589.938	-24.831	-0.546	-0.326
-588.923	800.000	0.046	0.165
-587.909	236.844	0.242	-0.403
-586.894	-131.120	-0.456	-0.061
-585.879	-119.443	0.864	0.151
-584.865	105.407	0.322	-0.382
-583.850	800.000	0.123	-0.394
-582.836	800.000	0.212	-0.625
-581.821	341.068	0.217	0.425
-580.806	8.563	0.807	0.610
-579.792	73.861	-0.234	-0.246
-578.777	-46.942	-0.703	-0.345
-577.763	-65.706	0.320	0.129
-576.748	800.000	0.139	0.573
-575.733	-182.521	0.643	0.012
-574.719	-83.120	-0.329	0.106
-573.704	-104.835	-0.090	0.021
-572.690	102.683	-0.203	-0.239
-571.675	219.941	-0.107	0.171
-570.661	71.276	-0.335	-0.348
-569.646	506.577	-0.340	0.791
-568.631	88.415	-0.169	0.188
-567.617	509.047	-0.121	-0.283
-566.602	750.321	0.312	-0.844
-565.588	-39.924	-0.367	0.192
-564.573	-151.758	-0.644	-0.048
-563.558	-59.865	1.132	-0.486
-562.544	-100.406	0.211	0.052
-561.529	-103.443	-0.249	-0.059
-560.515	-124.515	-0.680	-0.106
-559.500	-200.000	0.053	-0.753
-558.485	-150.913	1.038	-0.079
-557.471	-200.000	0.039	0.276
-556.456	706.142	-0.245	-0.648
-555.442	-99.228	-1.160	0.294
-554.427	124.519	0.251	0.317
-553.412	112.813	0.121	-0.147
-552.398	48.173	0.305	0.286
-551.383	133.451	0.438	-0.569
-550.369	46.254	0.210	0.195
-549.354	-200.000	0.009	-0.618
-548.339	-200.000	0.071	0.541
-547.325	-22.105	0.360	-0.219
-546.310	192.317	0.225	0.340
-545.296	-52.126	-0.426	0.198
-544.281	-200.000	-0.075	0.864
-543.266	179.217	-0.269	0.394
-542.252	800.000	0.045	-0.134
-541.237	18.183	-0.676	-0.541
-540.223	10.628	-0.513	0.392
-539.208	69.509	-0.150	0.155
-538.193	404.413	0.232	-0.490
-537.179	67.892	-0.428	-0.439
-536.164	-98.535	0.377	0.097
-535.150	-50.036	-0.606	0.288
-534.135	403.990	0.089	0.188
-533.121	177.006	0.511	-0.746
-532.106	-166.591	-0.476	-0.020
-531.091	-98.295	-0.087	-0.022
-530.077	-200.000	0.015	-0.236
-529.062	-81.005	-0.816	-0.271
-528.048	125.459	-0.232	0.294
-527.033	-20.770	-0.594	0.365
-526.018	-172.086	0.187	-0.006
-525.004	-200.000	0.011	0.196
-523.989	481.195	0.356	-0.811
-522.975	-97.438	-0.979	-0.255
-521.960	27.272	0.797	0.671
-520.945	509.163	0.252	0.587
-519.931	-132.624	0.666	0.086
-518.916	-46.296	-0.144	0.071
-517.902	119.538	0.401	0.497
-516.887	-49.044	-0.771	-0.369
-515.872	68.889	-0.288	0.296
-514.858	24.037	0.353	-0.291
-513.843	-200.000	-0.014	0.147
-512.829	-47.857	0.812	-0.394
-511.814	11.788	0.515	-0.396
-510.799	11.355	0.209	0.160
-509.785	208.930	0.607	0.952
-508.770	-66.522	-0.792	0.315
-507.756	-115.765	-0.689	0.129
-506.741	785.921	0.329	0.905
-505.726	-167.432	0.913	0.037
-504.712	-200.000	-0.101	0.499
-503.697	-42.789	-0.069	0.035
-502.683	-200.000	0.017	-0.366
-501.668	-116.983	-0.271	0.050
-500.653	-96.509	-0.524	-0.138
-499.639	-200.000	-0.008	0.341
-498.624	-76.495	-0.998	0.351
-497.610	-66.319	0.493	0.196
-496.595	-37.029	0.290	-0.155
-495.581	-147.940	-0.591	0.049
-494.566	-98.556	-0.147	0.038
-493.551	13.615	0.493	-0.383
-492.537	26.576	-0.360	0.302
-491.522	-159.318	-0.060	-0.003
-490.508	83.227	-0.050	-0.054
-489.493	800.000	-0.103	0.321
-488.478	-85.429	-1.264	-0.394
-487.464	152.348	0.394	-0.538
-486.449	-200.000	-0.006	-0.222
-485.435	-6.938	-0.951	0.647
-484.420	-72.814	0.545	-0.201
-483.405	303.984	0.078	0.144
-482.391	800.000	0.159	0.648
-481.376	646.754	-0.108	-0.277
-480.362	73.731	-0.375	-0.393
-479.347	800.000	-0.045	0.169
-478.332	281.493	0.380	-0.680
-477.318	-152.486	0.652	0.047
-476.303	30.976	0.289	-0.247
-475.289	-70.805	-0.634	0.239
-474.274	-87.777	0.246	0.074
-473.259	141.423	-0.154	0.204
-472.245	-200.000	0.005	-0.641
-471.230	69.083	-0.558	-0.573
-470.216	-115.201	0.572	0.108
-469.201	142.990	0.041	0.055
-468.186	162.709	-0.746	-1.047
-467.172	221.755	0.474	0.762
-466.157	78.275	-0.199	-0.213
-465.143	233.126	-0.092	0.152
-464.128	301.519	0.261	0.483
-463.113	-200.000	-0.046	-0.445
-462.099	-168.616	-1.128	-0.043
-461.084	8.270	-0.301	0.226
-460.070	-96.617	0.612	-0.161
-459.055	-86.296	-1.028	-0.316
-458.040	-200.000	-0.138	-0.617
-457.026	363.736	-0.123	-0.247
-456.011	-51.130	0.823	0.386
-454.997	800.000	0.066	0.247
-453.982	-110.448	0.773	-0.160
-452.968	75.317	0.057	0.060
-451.953	-37.371	0.778	0.415
-450.938	-0.953	-0.444	0.314
-449.924	0.267	-0.231	-0.165
-448.909	-130.217	-0.577	-0.079
-447.895	-119.852	-0.788	-0.135
-446.880	-136.645	-0.491	-0.057
-445.865	112.714	-0.241	0.292
-444.851	678.400	0.383	0.995
-443.836	240.378	-0.201	0.335
-442.822	310.483	0.148	0.277
-441.807	800.000	-0.099	-0.294
-440.792	-200.000	0.077	-0.616
-439.778	-200.000	0.102	-1.000
-438.763	800.000	-0.241	0.718
-437.749	-180.038	1.173	-0.025
-436.734	41.789	-0.438	0.396
-435.719	-77.227	0.206	0.072
-434.705	266.687	0.233	-0.406
-433.690	333.409	-0.067	-0.130
-432.676	-130.390	1.226	0.166
-431.661	-22.245	-0.593	0.359
-430.646	-200.000	-0.109	-0.489
-429.632	-164.524	0.912	-0.041
-428.617	-67.677	-0.101	-0.039
-427.603	-200.000	0.071	-0.687
-426.588	138.372	0.664	0.870
-425.573	469.100	-0.063	-0.140
-424.559	800.000	-0.163	-0.513
-423.544	800.000	-0.189	-0.570
-422.530	39.306	-0.663	0.592
-421.515	105.930	0.273	0.322
-420.500	-181.573	-1.007	-0.020
-419.486	-102.778	0.712	0.169
-418.471	-121.672	-0.513	-0.085
-417.457	35.740	0.801	0.703
-416.442	-192.008	-0.800	-0.008
-415.428	131.610	0.327	0.420
-414.413	-102.899	0.498	-0.118
-413.398	122.265	0.450	-0.561
-412.384	-90.844	0.672	0.193
-411.369	77.722	-0.311	-0.330
-410.355	41.201	0.372	-0.336
-409.340	326.969	-0.208	-0.397
-408.325	-91.896	-0.892	-0.252
-407.311	66.458	0.360	0.365
-406.296	-21.479	-0.069	0.042
-405.282	250.555	0.208	0.353
-404.267	366.871	-0.168	-0.339
-403.252	-50.950	-0.585	0.274
-402.238	187.848	-0.251	0.374
-401.223	-1.369	0.484	0.341
-400.209	-111.992	-0.238	0.048
-399.194	34.115	0.520	0.452
-398.179	684.195	0.039	-0.101
-397.165	-46.033	0.377	0.185
-396.150	-200.000	-0.161	-0.705
-395.136	-200.000	-0.056	0.549
-394.121	-200.000	0.476	-0.002
-393.106	-100.739	0.248	0.061
-392.092	-163.431	-0.363	0.017
-391.077	-200.000	-0.033	-0.341
-390.063	-200.000	0.041	-0.473
-389.048	-35.489	0.618	0.335
-388.033	800.000	-0.191	-0.723
-387.019	-200.000	0.031	-0.762
-386.004	-26.844	0.233	0.136
-384.990	-137.686	0.810	0.091
-383.975	-158.947	-0.451	0.026
-382.960	18.291	-0.289	-0.230
-381.946	-90.898	-0.629	-0.180
-380.931	-76.254	0.616	-0.216
-379.917	-15.757	0.412	0.262
-378.902	-1.184	0.755	0.532
-377.888	-76.274	-0.635	0.223
-376.873	-13.427	0.123	-0.079
-375.858	-22.616	-0.489	-0.295
-374.844	-132.570	-0.368	-0.047
-373.829	-200.000	-0.093	-0.466
-372.815	800.000	-0.325	1.036
-371.800	800.000	0.063	-0.237
-370.785	-200.000	-0.073	0.479
-369.771	-200.000	0.042	0.808
-368.756	22.745	-0.444	0.362
-367.742	-200.000	0.005	0.396
-366.727	-200.000	-0.013	-0.078
-365.712	800.000	-0.162	-0.551
-364.698	-99.212	-0.268	-0.067
-363.683	-67.669	0.532	-0.207
-362.669	-58.081	0.560	0.243
-361.654	800.000	0.093	-0.349
-360.639	-146.096	-0.712	-0.063
-359.625	-37.786	0.544	0.288
-358.610	-200.000	-0.093	0.429
-357.596	-121.361	-0.503	-0.083
-356.581	-89.262	-0.578	0.170
-355.566	41.241	-0.761	0.685
-354.552	148.559	-0.277	0.373
-353.537	-134.335	0.473	-0.058
-352.523	800.000	-0.043	-0.177
-351.508	-200.000	0.078	0.440
-350.493	-130.625	-0.609	0.082
-349.479	800.000	0.087	-0.256
-348.464	-176.832	-0.220	0.006
-347.450	66.566	-0.229	-0.232
-346.435	105.203	-0.469	-0.551
-345.420	36.803	-0.668	-0.587
-344.406	-105.439	0.535	-0.121
-343.391	-54.397	-0.204	-0.092
-342.377	-200.000	-0.006	0.200
-341.362	-83.431	-0.198	-0.063
-340.348	681.279	0.112	-0.292
-339.333	-200.000	0.111	-0.960
-338.318	-200.000	0.124	-0.811
-337.304	-62.275	-0.335	-0.139
-336.289	-103.855	-0.427	-0.099
-335.275	148.016	-0.399	-0.536
-334.260	109.811	-0.367	0.437
-333.245	-75.535	-0.741	-0.262
-332.231	14.416	-0.896	0.695
-331.216	-42.992	-0.935	-0.472
-330.202	245.670	0.137	0.229
-329.187	-200.000	0.055	-0.372
-328.172	800.000	-0.179	0.657
-327.158	-200.000	-0.009	-0.707
-326.143	172.786	-0.135	0.194
-325.129	12.676	-0.269	0.207
-324.114	85.821	-0.276	0.302
-323.099	-125.762	0.668	0.100
-322.085	270.908	-0.481	0.842
-321.070	-200.000	0.051	0.525
-320.056	-62.717	-0.921	-0.379
-319.041	225.861	0.167	-0.270
-318.026	-72.945	-0.512	0.187
-317.012	800.000	0.087	-0.291
-315.997	-200.000	-0.197	0.937
-314.983	-124.333	0.760	0.118
-313.968	-151.052	0.322	0.024
-312.953	-93.378	-0.152	-0.042
-311.939	-51.066	0.547	0.255
-310.924	266.476	0.261	-0.453
-309.910	-0.399	-0.333	-0.235
-308.895	373.815	-0.431	0.872
-307.880	-33.045	0.676	0.372
-306.866	-46.811	0.365	0.177
-305.851	-83.211	0.186	-0.059
-304.837	800.000	0.134	-0.411
-303.822	-74.764	0.610	-0.218
-302.807	-65.962	0.439	0.174
-301.793	381.463	-0.262	0.534
-300.778	-85.266	0.653	-0.203
-299.764	-200.000	-0.209	-0.941
-298.749	161.946	0.259	-0.360
-297.735	-200.000	0.048	0.819
-296.720	95.964	-0.253	0.287
-295.705	302.325	-0.347	0.638
-294.691	-200.000	0.008	0.436
-293.676	480.751	-0.217	0.489
-292.662	629.518	-0.156	-0.391
-291.647	-200.000	-0.031	0.887
-290.632	-109.580	0.424	-0.089
-289.618	800.000	-0.195	-0.587
-288.603	-65.304	0.089	-0.036
-287.589	-26.779	-0.241	-0.140
-286.574	-136.094	-0.369	-0.043
-285.559	380.281	0.362	-0.736
-284.545	800.000	0.059	0.197
-283.530	-200.000	-0.057	0.999
-282.516	-200.000	0.073	0.857
-281.501	-6.798	-0.607	-0.410
-280.486	-115.289	0.750	0.141
-279.472	533.301	0.089	-0.208
-278.457	548.396	-0.231	0.549
-277.443	40.423	0.229	-0.205
-276.428	800.000	0.098	-0.408
-275.413	-153.053	1.309	-0.091
-274.399	-20.983	0.166	-0.101
-273.384	800.000	-0.126	0.426
-272.370	800.000	-0.284	0.892
-271.355	185.697	0.236	-0.348
-270.340	9.913	-0.434	-0.327
-269.326	32.522	0.599	0.514
-268.311	8.407	-0.527	0.393
-267.297	-98.428	0.539	0.137
-266.282	-121.649	0.654	-0.108
-265.267	-37.299	0.300	0.159
-264.253	-97.186	0.511	0.132
-263.238	25.692	-0.554	-0.457
-262.224	-85.117	0.958	-0.297
-261.209	324.370	0.373	-0.707
-260.195	-29.339	-0.406	0.230
-259.180	-97.512	0.550	-0.142
-258.165	22.591	-1.113	-0.903
-257.151	105.648	0.367	-0.430
-256.136	-103.573	-0.011	0.002
-255.122	-96.643	0.175	-0.046
-254.107	72.531	-0.216	-0.223
-253.092	-144.346	-0.587	0.054
-252.078	16.978	0.572	0.449
-251.063	64.505	0.505	-0.505
-250.049	-12.501	0.815	-0.527
-249.034	-93.829	0.622	-0.170
-248.019	526.062	0.302	0.704
-247.005	263.989	-0.109	0.187
-245.990	239.985	0.220	0.362
-244.976	-7.426	0.360	-0.241
-243.961	-174.842	0.929	-0.026
-242.946	2.106	-0.590	-0.423
-241.932	405.787	0.331	0.692
-240.917	186.983	0.361	-0.534
-239.903	89.153	-0.246	0.271
-238.888	-84.899	0.824	0.256
-237.873	-118.040	0.827	0.147
-236.859	-200.000	-0.154	-0.976
-235.844	176.163	0.104	0.150
-234.830	110.482	0.483	-0.575
-233.815	-200.000	0.061	-0.836
-232.800	-200.000	0.163	0.736
-231.786	-55.844	0.216	-0.095
-230.771	-200.000	0.008	-0.295
-229.757	68.990	0.066	0.068
-228.742	-74.445	-0.618	0.221
-227.727	116.840	0.634	-0.771
-226.713	-162.982	0.628	-0.030
-225.698	584.298	-0.286	-0.696
-224.684	-1.537	-0.381	0.266
-223.669	-42.851	-0.328	-0.165
-222.655	-200.000	0.015	0.782
-221.640	-31.495	0.017	0.009
-220.625	141.757	0.621	0.815
-219.611	-110.266	-0.932	0.192
-218.596	800.000	-0.378	-1.221
-217.582	-54.738	0.441	-0.197
-216.567	-18.547	-0.206	-0.127
-215.552	-52.769	-0.240	0.110
-214.538	-13.280	0.613	-0.394
-213.523	280.996	0.409	0.725
-212.509	-19.237	-0.511	0.314
-211.494	800.000	-0.232	0.705
-210.479	693.302	-0.073	-0.191
-209.465	-200.000	-0.073	0.859
-208.450	-25.020	0.469	-0.275
-207.436	48.080	-0.292	0.270
-206.421	-39.849	-0.186	0.096
-205.406	-112.594	1.014	-0.200
-204.392	14.934	-0.107	0.083
-203.377	-18.243	0.227	0.141
-202.363	-76.430	0.252	-0.088
-201.348	-200.000	0.004	0.386
-200.333	-119.225	0.784	-0.135
-199.319	146.844	0.179	0.238
-198.304	18.243	0.550	-0.435
-197.290	-163.380	0.121	-0.006
-196.275	24.364	-0.187	0.153
-195.260	-6.309	0.296	0.200
-194.246	448.047	-0.443	0.964
-193.231	800.000	0.138	-0.467
-192.217	-200.000	-0.104	0.526
-191.202	-162.618	-0.367	-0.018
-190.187	-36.676	-0.240	-0.128
-189.173	141.968	0.271	-0.355
-188.158	100.005	-0.393	0.450
-187.144	53.873	0.675	-0.641
-186.129	-84.210	-0.414	-0.130
-185.114	-132.220	0.449	-0.058
-184.100	191.081	0.097	0.144
-183.085	71.299	-0.219	-0.225
-182.071	-200.000	-0.039	1.130
-181.056	-123.497	-0.396	-0.062
-180.042	-173.238	-0.862	-0.026
-179.027	178.706	0.205	-0.296
-178.012	300.841	0.191	0.348
-176.998	-155.301	0.358	-0.023
-175.983	800.000	-0.259	-0.785
-174.969	17.378	0.549	0.431
-173.954	-89.855	0.471	-0.136
-172.939	-194.289	-0.586	-0.005
-171.925	-4.833	0.602	0.410
-170.910	258.616	-0.391	0.666
-169.896	-54.471	-0.644	-0.288
-168.881	800.000	0.062	0.216
-167.866	-117.359	-0.579	0.104
-166.852	-133.580	-0.269	0.033
-165.837	-6.099	0.851	0.575
-164.823	12.607	0.140	0.107
-163.808	-200.000	-0.026	0.130
-162.793	-18.827	-0.074	-0.045
-161.779	168.351	-0.456	0.641
-160.764	260.833	-0.219	0.375
-159.750	-23.481	0.298	-0.177
-158.735	-76.325	0.654	0.227
-157.720	-200.000	-0.197	-1.037
-156.706	-200.000	0.048	-0.281
-155.691	739.578	0.248	0.657
-154.677	89.965	0.114	-0.126
-153.662	47.175	0.164	0.150
-152.647	-200.000	-0.045	0.854
-151.633	351.778	0.078	-0.152
-150.618	8.900	-0.319	0.237
-149.604	278.089	-0.297	0.523
-148.589	800.000	-0.241	0.676
-147.574	-200.000	-0.027	0.445
-146.560	-147.403	-0.100	0.008
-145.545	-48.302	0.446	0.212
-144.531	-54.183	0.340	-0.153
-143.516	-94.398	-0.380	-0.102
-142.502	27.870	-0.527	0.439
-141.487	800.000	-0.156	-0.651
-140.472	-30.323	0.323	-0.181
-139.458	-118.951	-0.617	0.107
-138.443	-79.275	0.338	-0.113
-137.429	20.421	-0.465	0.371
-136.414	-134.957	0.627	0.075
-135.399	-113.916	-0.336	0.064
-134.385	-73.741	0.346	-0.124
-133.370	800.000	0.025	-0.072
-132.356	216.384	-0.352	-0.553
-131.341	18.096	-0.137	0.108
-130.326	42.248	-0.537	0.481
-129.312	18.678	0.519	0.409
-128.297	120.721	-0.341	0.418
-127.283	-200.000	0.088	0.671
-126.268	18.404	-0.297	0.234
-125.253	-200.000	-0.028	1.096
-124.239	-133.599	0.696	0.086
-123.224	16.162	0.413	0.321
-122.210	25.223	-0.455	0.372
-121.195	32.840	-0.210	-0.180
-120.180	-200.000	0.089	-0.724
-119.166	-200.000	0.031	0.141
-118.151	698.188	0.220	-0.570
-117.137	71.494	0.679	0.695
-116.122	155.923	-0.315	0.428
-115.107	-155.044	-0.668	-0.043
-114.093	97.363	-0.073	0.083
-113.078	-41.914	0.809	0.409
-112.064	800.000	-0.224	-0.733
-111.049	-161.476	0.718	-0.036
-110.034	226.129	-0.491	0.785
-109.020	-200.000	-0.072	-0.335
-108.005	-200.000	0.050	0.470
-106.991	742.553	-0.218	-0.577
-105.976	373.549	0.322	-0.646
-104.962	13.190	-0.462	-0.353
-103.947	-123.298	0.359	-0.057
-102.932	-120.382	0.461	-0.077
-101.918	24.744	0.608	0.496
-100.903	31.032	0.272	-0.230
-99.889	-200.000	-0.005	0.287
-98.874	-14.050	-0.542	-0.345
-97.859	-200.000	0.082	-0.388
-96.845	800.000	0.145	-0.458
-95.830	-68.158	0.419	-0.161
-94.816	-72.959	0.869	-0.314
-93.801	557.241	-0.345	0.820
-92.786	800.000	-0.124	-0.359
-91.772	-160.567	0.741	-0.039
-90.757	165.661	-0.324	-0.452
-89.743	469.101	-0.351	-0.776
-88.728	12.673	-0.809	0.616
-87.713	9.457	-0.165	0.123
-86.699	-137.313	-0.755	0.084
-85.684	-200.000	0.023	0.268
-84.670	-59.008	0.967	-0.411
-83.655	800.000	0.110	-0.311
-82.640	-55.895	-0.588	-0.259
-81.626	-131.736	0.541	0.070
-80.611	34.794	-0.287	-0.247
-79.597	97.699	-0.650	0.736
-78.582	4.756	0.520	0.376
-77.567	-147.395	-0.673	-0.056
-76.553	800.000	0.244	0.777
-75.538	-200.000	-0.077	0.338
-74.524	16.472	-0.381	-0.297
-73.509	-73.530	-0.131	0.047
-72.494	-127.084	-0.379	-0.055
-71.480	190.689	0.782	-1.157
-70.465	-13.769	-0.198	0.126
-69.451	84.738	0.589	0.635
-68.436	-47.020	-0.715	0.344
-67.422	-200.000	0.224	1.204
-66.407	89.511	-0.413	-0.453
-65.392	-62.358	1.045	-0.428
-64.378	-148.939	0.452	-0.036
-63.363	-2.607	-0.745	0.513
-62.349	-44.009	-1.555	0.769
-61.334	800.000	-0.155	-0.561
-60.319	-90.646	0.581	0.165
-59.305	-200.000	-0.070	-0.852
-58.290	-200.000	0.139	0.625
-57.276	800.000	0.545	1.845
-56.261	-200.000	95.068	593.392
-55.246	684.908	1348.601	3463.546
-54.232	205.301	2513.261	3840.384
-53.217	120.637	2119.299	2591.026
-52.203	44.539	1591.802	1439.001
-51.188	36.087	1331.628	1153.445
-50.173	32.823	1291.987	1100.072
-49.159	55.677	1341.053	1278.039
-48.144	56.699	1358.423	1300.607
-47.130	36.301	1315.382	1140.461
-46.115	32.955	1298.099	1105.874
-45.100	32.569	1293.201	1099.408
-44.086	32.276	1292.104	1096.722
-43.071	32.429	1288.329	1094.362
-42.057	32.344	1285.729	1091.616
-41.042	32.598	1284.464	1091.974
-40.027	32.445	1283.755	1090.442
-39.013	32.271	1281.716	1087.657
-37.998	32.561	1280.147	1087.958
-36.984	32.690	1277.186	1086.143
-35.969	32.454	1275.782	1083.545
-34.954	32.378	1275.228	1082.595
-33.940	32.557	1272.631	1081.373
-32.925	32.367	1271.685	1079.440
-31.911	32.281	1271.600	1078.832
-30.896	32.551	1269.366	1078.442
-29.881	32.662	1267.793	1077.696
-28.867	32.711	1265.864	1076.290
-27.852	32.884	1263.601	1075.313
-26.838	32.650	1264.601	1074.786
-25.823	32.681	1262.478	1073.117
-24.809	32.737	1260.585	1071.780
-23.794	32.725	1259.407	1070.670
-22.779	32.585	1257.775	1068.442
-21.765	32.538	1257.364	1067.784
-20.750	32.370	1256.622	1066.164
-19.736	32.472	1254.426	1064.832
-18.721	32.575	1253.317	1064.431
-17.706	32.573	1251.740	1063.042
-16.692	32.460	1251.342	1062.024
-15.677	32.609	1249.264	1061.056
-14.663	32.470	1248.484	1059.570
-13.648	32.434	1247.892	1058.821
-12.633	32.587	1246.603	1058.544
-11.619	32.351	1245.811	1056.504
-10.604	32.417	1244.915	1056.073
-9.590	32.177	1244.436	1054.281
-8.575	32.273	1243.608	1054.075
-7.560	32.241	1242.001	1052.491
-6.546	32.418	1240.467	1052.139
-5.531	32.529	1240.672	1052.891
-4.517	32.740	1239.289	1052.855
-3.502	32.470	1238.163	1050.351
-2.487	32.462	1237.994	1050.123
-1.473	31.977	1234.643	1044.537
-0.458	30.967	1218.500	1025.288
0.556	28.143	1201.045	985.409
1.571	24.499	1204.222	968.207
2.586	23.485	1218.925	974.370
3.600	22.620	1208.852	961.515
4.615	16.858	1136.973	874.623
5.629	7.652	1061.580	772.006
6.644	3.621	1041.581	738.151
7.659	3.034	1038.996	733.454
8.673	2.928	1037.671	731.950
9.688	3.259	1036.203	732.423
10.702	3.481	1034.962	732.538
11.717	9.328	1043.777	766.654
12.731	19.105	1057.620	823.770
13.746	23.627	1064.060	850.431
14.761	24.436	1062.982	853.365
15.775	24.074	1061.734	850.559
16.790	23.677	1061.176	848.136
17.804	23.549	1059.691	846.264
18.819	23.362	1060.023	845.564
19.834	23.625	1059.857	846.610
20.848	23.911	1059.033	847.240
21.863	23.502	1058.432	844.739
22.877	23.513	1057.167	843.704
23.892	23.335	1057.620	843.147
24.907	23.348	1055.652	841.565
25.921	23.292	1054.987	840.691
26.936	23.811	1053.033	841.521
27.950	23.141	1052.656	837.971
28.965	23.254	1050.693	836.870
29.980	23.795	1048.453	837.563
30.994	23.415	1049.053	836.174
32.009	23.431	1048.019	835.352
33.023	23.237	1046.985	833.540
34.038	23.312	1046.933	833.776
35.053	23.424	1044.708	832.460
36.067	23.294	1043.885	831.117
37.082	23.501	1042.771	831.128
38.096	23.669	1042.345	831.504
39.111	23.586	1041.745	830.561
40.126	23.389	1040.716	828.747
41.140	22.982	1039.432	825.752
42.155	22.847	1038.264	824.120
43.169	22.842	1037.414	823.348
44.184	22.751	1036.232	821.915
45.199	22.829	1034.618	820.922
46.213	22.927	1034.668	821.346
47.228	23.622	1033.880	823.875
48.242	23.597	1034.173	823.920
49.257	23.341	1033.004	821.725
50.271	23.641	1031.724	822.024
51.286	23.739	1030.300	821.272
52.301	23.841	1029.952	821.395
53.315	23.795	1028.720	820.124
54.330	23.329	1028.200	817.488
55.344	23.176	1027.612	816.245
56.359	23.266	1026.591	815.773
57.374	23.128	1025.414	814.131
58.388	23.050	1024.985	813.361
59.403	22.963	1023.679	811.851
60.417	22.651	1023.105	809.892
61.432	23.236	1021.873	811.530
62.447	22.828	1021.283	809.118
63.461	22.843	1020.789	808.726
64.476	23.066	1019.407	808.580
65.490	22.761	1018.372	806.292
66.505	22.933	1017.812	806.564
67.520	22.918	1017.738	806.366
68.534	22.705	1017.064	804.788
69.549	22.595	1015.343	802.853
70.563	22.575	1014.469	801.999
71.578	22.219	1013.274	799.367
72.593	22.156	1012.842	798.668
73.607	22.210	1012.274	798.396
74.622	22.453	1011.854	799.096
75.636	22.243	1012.024	798.206
76.651	22.731	1010.233	798.933
77.666	22.349	1009.892	796.866
78.680	22.553	1009.442	797.360
79.695	22.490	1008.148	795.983
80.709	22.738	1008.365	797.207
81.724	22.843	1006.788	796.360
82.739	23.111	1007.230	797.852
83.753	23.265	1006.486	797.886
84.768	23.538	1006.414	798.986
85.782	24.026	1005.834	800.650
86.797	23.937	1004.677	799.259
87.812	23.963	1002.147	797.291
88.826	23.856	1002.112	796.716
89.841	24.084	1000.979	796.762
90.855	23.693	1001.436	795.305
91.870	23.847	999.935	794.734
92.884	23.852	999.304	794.185
93.899	23.776	997.882	792.642
94.914	24.207	996.536	793.422
95.928	23.775	996.940	791.753
96.943	23.327	995.814	788.791
97.957	23.462	994.425	788.224
98.972	23.729	993.259	788.412
99.987	23.767	992.675	788.050
101.001	23.549	992.072	786.535
102.016	23.493	991.276	785.585
103.030	23.534	991.127	785.580
104.045	23.618	990.385	785.292
105.060	23.698	989.194	784.633
106.074	23.512	987.850	782.677
107.089	23.442	987.644	782.136
108.103	23.159	986.248	779.714
109.118	22.792	984.629	776.752
110.133	22.611	983.609	775.081
111.147	22.739	982.492	774.693
112.162	22.713	981.461	773.697
113.176	22.704	981.153	773.350
114.191	22.951	980.213	773.620
115.206	22.735	979.238	771.839
116.220	22.679	978.426	770.885
117.235	22.637	977.666	770.032
118.249	22.590	976.784	769.064
119.264	22.521	976.206	768.243
120.279	22.368	975.595	767.025
121.293	22.374	974.322	765.982
122.308	22.364	972.973	764.814
123.322	22.276	972.230	763.777
124.337	22.423	971.564	763.827
125.352	22.365	970.726	762.848
126.366	22.378	969.539	761.904
127.381	22.672	968.799	762.528
128.395	22.715	969.133	762.906
129.410	22.698	967.778	761.700
130.424	23.027	966.721	762.220
131.439	23.230	966.050	762.500
132.454	22.976	965.485	760.889
133.468	23.093	964.049	760.194
134.483	23.611	963.427	761.860
135.497	23.493	962.569	760.610
136.512	23.344	962.225	759.632
137.527	23.201	961.171	758.121
138.541	23.292	960.288	757.744
139.556	23.532	959.502	758.084
140.570	23.388	960.196	757.951
141.585	23.656	959.556	758.524
142.600	23.950	957.700	758.243
143.614	23.683	957.021	756.499
144.629	24.014	956.122	757.133
145.643	23.779	955.385	755.481
146.658	23.608	953.995	753.587
147.673	23.418	952.947	751.888
148.687	23.438	950.902	750.293
149.702	22.834	951.279	747.967
150.716	23.542	949.180	749.239
151.731	23.297	948.939	747.950
152.746	23.398	949.776	748.970
153.760	23.552	948.070	748.208
154.775	23.635	947.551	748.084
155.789	23.633	947.566	748.017
156.804	23.733	947.089	747.999
157.819	23.599	945.364	746.006
158.833	24.032	944.989	747.464
159.848	24.179	942.802	746.282
160.862	23.788	941.952	743.910
161.877	23.454	941.643	742.199
162.892	23.578	939.514	740.973
163.906	23.326	938.817	739.305
164.921	23.173	938.712	738.521
165.935	23.098	938.273	737.798
166.950	23.416	936.504	737.663
167.964	23.531	935.369	737.184
168.979	23.304	935.948	736.630
169.994	23.492	933.367	735.312
171.008	23.947	933.274	737.059
172.023	24.011	932.268	736.465
173.037	24.441	931.418	737.508
174.052	23.455	931.983	733.809
175.067	23.510	929.351	731.898
176.081	22.840	929.332	729.053
177.096	23.309	928.862	730.556
178.110	22.812	929.385	728.849
179.125	22.741	927.766	727.223
180.140	22.759	928.319	727.668
181.154	23.258	927.082	728.689
182.169	23.681	927.193	730.453
183.183	23.534	927.315	729.879
184.198	23.820	925.985	729.942
185.213	23.615	925.617	728.744
186.227	23.471	924.666	727.340
187.242	23.622	923.826	727.234
188.256	23.913	922.673	727.452
189.271	24.040	921.869	727.275
190.286	23.505	921.749	724.930
191.300	22.741	920.447	720.721
192.315	22.646	918.743	718.937
193.329	22.865	918.439	719.527
194.344	23.405	918.238	721.503
195.359	23.264	919.409	721.788
196.373	23.393	918.608	721.617
197.388	23.642	918.387	722.396
198.402	23.913	918.066	723.182
199.417	24.113	917.080	723.152
200.432	24.084	916.930	722.852
201.446	24.377	915.750	723.046
202.461	24.244	916.091	722.713
203.475	23.636	914.868	719.222
204.490	23.342	913.137	716.607
205.504	23.568	912.328	716.823
206.519	23.850	911.870	717.537
207.534	23.926	911.072	717.152
208.548	23.711	911.493	716.551
209.563	23.571	910.773	715.358
210.577	23.591	910.721	715.337
211.592	24.071	909.683	716.389
212.607	24.030	908.886	715.533
213.621	24.090	908.154	715.133
214.636	24.070	907.166	714.213
215.650	23.898	907.181	713.471
216.665	24.044	905.145	712.392
217.680	24.166	905.272	712.915
218.694	23.865	905.074	711.491
219.709	23.533	904.280	709.479
220.723	23.688	903.267	709.241
221.738	23.883	901.355	708.452
222.753	23.368	901.932	706.789
223.767	23.891	901.066	708.132
224.782	24.195	900.789	709.061
225.796	24.333	900.449	709.279
226.811	24.143	899.139	707.433
227.826	23.604	898.840	704.991
228.840	23.615	897.681	704.064
229.855	23.474	898.088	703.763
230.869	23.174	896.677	701.406
231.884	23.326	896.177	701.554
232.899	23.338	896.158	701.524
233.913	23.569	894.685	701.224
234.928	23.560	893.379	700.103
235.942	22.922	893.624	697.711
236.957	23.493	891.608	698.326
237.972	23.167	891.416	696.832
238.986	23.174	891.395	696.782
240.001	23.275	890.144	696.138
241.015	23.256	890.910	696.600
242.030	23.418	890.317	696.712
243.045	23.461	889.645	696.295
244.059	23.441	889.307	695.887
245.074	23.609	889.257	696.447
246.088	23.871	888.509	696.828
247.103	23.981	887.397	696.322
248.117	24.350	888.437	698.525
249.132	24.474	888.064	698.653
250.147	24.921	887.034	699.526
251.161	25.033	887.384	700.181
252.176	24.955	886.629	699.219
253.190	25.082	885.218	698.539
254.205	24.927	885.047	697.736
255.220	24.593	885.059	696.383
256.234	24.558	883.549	694.999
257.249	24.638	882.301	694.264
258.263	24.157	882.559	692.538
259.278	24.787	880.827	693.561
260.293	24.508	881.319	692.803
261.307	24.837	880.885	693.678
262.322	24.904	879.987	693.169
263.336	24.791	878.047	691.141
264.351	24.438	877.598	689.366
265.366	24.500	876.917	689.007
266.380	24.759	877.160	690.137
267.395	24.872	877.843	691.048
268.409	24.703	876.053	688.927
269.424	24.542	875.799	688.048
270.439	24.408	874.253	686.258
271.453	24.344	873.895	685.670
272.468	24.578	873.077	685.865
273.482	24.769	871.787	685.525
274.497	24.767	871.735	685.414
275.512	24.644	871.217	684.476
276.526	24.230	872.089	683.513
277.541	24.613	871.030	684.088
278.555	24.854	870.488	684.524
279.570	24.964	869.373	684.006
280.585	24.844	869.412	683.520
281.599	24.734	868.414	682.254
282.614	23.923	867.414	678.318
283.628	24.473	866.564	679.685
284.643	24.353	866.319	678.979
285.657	24.129	866.202	677.974
286.672	24.332	864.764	677.558
287.687	24.168	864.225	676.455
288.701	24.529	864.189	677.735
289.716	24.564	863.378	677.173
290.730	24.736	863.039	677.499
291.745	24.528	862.050	675.874
292.760	24.741	862.149	676.697
293.774	25.130	862.117	678.087
294.789	25.114	861.117	677.179
295.803	24.486	861.059	674.700
296.818	24.701	859.105	673.919
297.833	24.440	859.182	672.939
298.847	24.378	857.786	671.551
299.862	24.303	857.925	671.318
300.876	25.151	857.033	673.747
301.891	25.259	856.028	673.304
302.906	25.329	855.961	673.453
303.920	25.049	856.557	672.813
304.935	25.459	855.643	673.573
305.949	24.800	855.859	671.210
306.964	24.799	854.001	669.689
307.979	24.946	852.277	668.828
308.993	25.003	852.466	669.128
310.008	24.851	853.113	669.010
311.022	24.597	852.086	667.199
312.037	24.533	851.477	666.422
313.052	24.526	850.552	665.616
314.066	24.063	849.666	663.137
315.081	24.293	849.132	663.519
316.095	24.544	848.325	663.762
317.110	24.518	848.055	663.394
318.125	24.542	846.973	662.581
319.139	23.615	847.250	659.297
320.154	23.996	846.198	659.831
321.168	24.219	845.586	660.124
322.183	24.232	845.232	659.836
323.197	24.147	845.492	659.667
324.212	24.379	843.495	658.907
325.227	24.196	844.118	658.658
326.241	24.228	843.523	658.253
327.256	24.055	842.600	656.836
328.270	24.187	842.288	657.024
329.285	24.166	840.921	655.821
330.300	23.891	841.011	654.822
331.314	24.124	839.897	654.752
332.329	24.583	839.242	655.866
333.343	24.765	839.135	656.394
334.358	24.601	839.543	656.053
335.373	24.821	838.915	656.314
336.387	24.968	839.256	657.060
337.402	24.683	840.042	656.570
338.416	25.048	838.801	656.882
339.431	25.426	838.275	657.795
340.446	25.240	838.120	656.935
341.460	25.332	837.940	657.071
342.475	25.553	837.702	657.635
343.489	25.402	836.717	656.254
344.504	25.085	836.996	655.256
345.519	25.522	836.127	656.111
346.533	25.231	835.813	654.744
347.548	25.742	834.121	655.223
348.562	24.934	834.290	652.355
349.577	24.990	833.214	651.658
350.592	25.229	832.287	651.744
351.606	24.969	831.236	649.920
352.621	24.853	830.579	648.928
353.635	24.943	830.320	648.995
354.650	24.626	829.154	646.878
355.665	24.512	828.924	646.229
356.679	24.687	829.327	647.120
357.694	24.720	827.556	645.802
358.708	24.816	827.301	645.892
359.723	24.871	827.162	645.923
360.738	25.214	824.740	645.211
361.752	25.277	824.427	645.133
362.767	25.211	825.336	645.550
363.781	25.705	825.166	647.136
364.796	25.971	824.265	647.329
365.810	25.357	824.550	645.287
366.825	25.554	824.044	645.544
367.840	25.347	823.171	644.060
368.854	25.406	822.026	643.317
369.869	25.447	820.878	642.508
370.883	24.965	821.904	641.530
371.898	25.761	821.066	643.667
372.913	25.394	821.348	642.518
373.927	25.172	820.918	641.329
374.942	25.668	819.274	641.757
375.956	25.591	818.733	641.004
376.971	25.479	819.297	640.988
377.986	25.639	818.647	640.995
379.000	25.769	818.083	640.961
380.015	25.942	816.802	640.512
381.029	25.964	816.118	639.999
382.044	25.708	817.223	639.897
383.059	25.982	816.413	640.178
384.073	25.738	814.461	637.730
385.088	25.423	814.051	636.236
386.102	24.902	814.013	634.306
387.117	25.180	812.459	634.020
388.132	24.963	811.288	632.284
389.146	25.134	811.520	633.013
390.161	25.601	810.789	634.032
391.175	25.695	811.231	634.656
392.190	25.719	810.185	633.865
393.205	24.951	809.184	630.323
394.219	24.312	808.786	627.709
395.234	24.099	807.989	626.287
396.248	24.962	808.370	629.561
397.263	24.887	806.861	628.067
398.278	24.867	807.200	628.206
399.292	24.928	806.900	628.131
400.307	24.731	805.955	626.647
401.321	24.749	804.063	625.183
402.336	24.788	805.727	626.560
403.350	25.652	805.281	629.181
404.365	25.845	805.337	629.843
405.380	25.848	805.244	629.726
406.394	26.032	804.439	629.680
407.409	26.533	803.931	630.975
408.423	26.117	804.253	629.722
409.438	26.103	803.446	628.986
410.453	26.090	802.267	627.961
411.467	25.751	802.598	626.982
412.482	26.190	802.318	628.239
413.496	26.231	801.399	627.607
414.511	26.152	801.489	627.345
415.526	25.803	801.225	625.871
416.540	26.183	800.852	626.843
417.555	26.016	800.179	625.683
418.569	26.232	799.290	625.680
419.584	25.834	798.672	623.764
420.599	26.130	798.792	624.825
421.613	160.863	1370.661	1793.723
422.628	139.612	1453.960	1793.805
