DTS Sentinel unit serial number:	SN413079Multiplexer serial number:	ORYXHardware model number:	OX4-SRSoftware version number:	ORYX F/W v4.00 Oryx Data Collector v3.7.2.0data status	okinstallation	princeton_trtdifferential loss correction	single-endedforward channel	channel 1reverse channel	N/Adate	2019/09/11time	11:12:11forward acquisition time	60.00reverse acquisition time	0.00gamma	496.2192k internal	0.2296k external	0.2296temperature offset calibration	0.9957default loss term (dB/km)	0.3790temperature slope calibration	1.0000multiplexer offset coefficient	1.0000multiplexer slope coefficient	1.0000fibre end	0.00T internal ref (°C)	37.53T ext. ref 1 (°C)	0.17T ext. ref 2 (°C)	33.66length (m)	temperature (°C)	Stokes	anti-Stokes-747.200	-49.491	0.154	0.075
-746.185	-61.413	-0.269	0.116
-745.171	-49.435	-0.081	0.040
-744.156	-200.000	-0.031	-0.215
-743.142	-127.499	-0.277	-0.041
-742.127	173.354	-0.130	0.191
-741.112	26.863	0.126	0.108
-740.098	-138.443	0.226	-0.025
-739.083	-161.480	-0.188	-0.010
-738.069	354.835	0.096	0.195
-737.054	-63.991	0.111	0.046
-736.039	6.575	-0.109	0.083
-735.025	-18.652	0.326	-0.207
-734.010	-15.358	0.101	0.066
-732.996	267.239	-0.052	-0.092
-731.981	-44.277	-0.324	-0.166
-730.966	-83.716	0.234	-0.076
-729.952	-19.904	-0.262	-0.165
-728.937	800.000	0.028	0.090
-727.923	-200.000	0.066	0.356
-726.908	-111.056	-0.664	-0.139
-725.894	-200.000	-0.024	-0.123
-724.879	-118.854	0.076	-0.014
-723.864	-200.000	-0.024	0.233
-722.850	13.616	-0.264	-0.209
-721.835	800.000	0.076	-0.277
-720.821	-200.000	-0.029	-0.151
-719.806	19.428	0.195	-0.160
-718.791	-200.000	-0.010	-0.319
-717.777	98.066	0.117	0.137
-716.762	68.817	-0.039	0.041
-715.748	-200.000	-0.020	-0.167
-714.733	392.872	-0.076	-0.161
-713.718	800.000	-0.111	-0.478
-712.704	-68.365	0.350	-0.139
-711.689	-33.393	-0.184	-0.104
-710.675	-31.150	0.179	0.103
-709.660	-200.000	-0.029	-0.175
-708.645	-200.000	0.003	-0.071
-707.631	15.960	0.108	0.087
-706.616	800.000	-0.055	-0.158
-705.602	52.523	0.076	0.074
-704.587	128.732	-0.104	-0.136
-703.572	255.899	-0.054	0.095
-702.558	106.656	0.096	-0.116
-701.543	40.805	-0.285	0.262
-700.529	-117.219	0.040	-0.007
-699.514	87.300	0.160	-0.180
-698.499	-68.507	0.249	-0.098
-697.485	-69.505	0.155	0.060
-696.470	-200.000	-0.044	0.230
-695.456	237.017	-0.095	0.160
-694.441	-70.149	0.271	-0.105
-693.426	100.611	-0.116	-0.137
-692.412	800.000	0.086	-0.256
-691.397	542.412	0.044	-0.107
-690.383	-95.729	0.264	0.072
-689.368	387.322	0.115	-0.242
-688.354	552.275	-0.101	-0.248
-687.339	-114.051	0.213	0.042
-686.324	-40.976	0.330	-0.174
-685.310	-200.000	-0.029	0.256
-684.295	-200.000	0.008	-0.218
-683.281	128.926	-0.121	-0.157
-682.266	-16.898	-0.403	0.260
-681.251	390.978	-0.126	0.266
-680.237	-200.000	-0.005	0.498
-679.222	110.322	-0.314	0.385
-678.208	48.439	0.266	-0.253
-677.193	72.720	-0.057	-0.060
-676.178	-200.000	0.207	0.001
-675.164	-200.000	0.024	-0.174
-674.149	-68.159	-0.243	0.097
-673.135	-143.688	0.484	0.047
-672.120	102.494	-0.038	-0.046
-671.105	292.367	0.158	-0.293
-670.091	-200.000	-0.018	0.351
-669.076	174.309	0.074	-0.109
-668.062	-200.000	-0.011	-0.119
-667.047	-50.943	0.116	0.056
-666.032	-114.683	0.227	0.044
-665.018	252.535	0.102	0.178
-664.003	800.000	-0.025	0.095
-662.989	54.678	-0.165	-0.162
-661.974	40.115	-0.224	-0.205
-660.959	-68.801	-0.315	-0.124
-659.945	-15.331	0.129	-0.084
-658.930	369.295	0.039	0.080
-657.916	222.205	-0.033	0.054
-656.901	800.000	0.036	0.102
-655.886	237.677	0.281	-0.474
-654.872	-20.897	0.371	-0.232
-653.857	-114.555	0.140	0.027
-652.843	800.000	-0.049	-0.159
-651.828	-124.104	0.372	-0.059
-650.814	-16.636	-0.429	0.276
-649.799	51.346	-0.015	0.014
-648.784	-53.904	0.067	0.031
-647.770	305.340	0.120	0.227
-646.755	358.652	-0.071	-0.145
-645.741	66.571	0.052	-0.054
-644.726	-98.935	-0.140	0.036
-643.711	-155.628	-0.157	0.010
-642.697	263.671	-0.139	-0.247
-641.682	211.094	0.122	-0.195
-640.668	800.000	0.053	0.170
-639.653	47.315	-0.188	0.178
-638.638	800.000	-0.103	0.345
-637.624	129.454	0.155	0.202
-636.609	-30.181	0.085	-0.049
-635.595	-200.000	-0.044	-0.304
-634.580	800.000	-0.116	-0.354
-633.565	151.034	0.203	-0.280
-632.551	-111.229	-0.337	0.070
-631.536	-6.164	0.176	-0.122
-630.522	182.884	-0.076	-0.113
-629.507	107.463	0.174	-0.210
-628.492	-47.866	-0.032	-0.016
-627.478	-94.609	-0.174	0.048
-626.463	7.397	-0.027	0.021
-625.449	-200.000	0.097	-0.447
-624.434	-76.097	0.132	0.047
-623.419	5.682	-0.141	0.106
-622.405	44.656	-0.221	0.206
-621.390	-140.712	0.317	-0.033
-620.376	-200.000	-0.008	-0.112
-619.361	800.000	0.073	-0.308
-618.346	211.335	-0.102	0.164
-617.332	-200.000	-0.065	0.365
-616.317	-140.255	-0.204	-0.022
-615.303	29.487	-0.137	0.118
-614.288	-12.943	0.164	-0.108
-613.273	-92.509	-0.246	-0.070
-612.259	184.734	-0.068	0.103
-611.244	304.577	-0.134	-0.252
-610.230	136.232	0.106	-0.141
-609.215	466.699	0.038	-0.086
-608.201	-101.567	0.145	0.036
-607.186	98.898	-0.124	-0.146
-606.171	800.000	0.083	-0.292
-605.157	-77.412	-0.046	0.016
-604.142	-123.015	0.193	-0.032
-603.128	143.029	-0.137	0.185
-602.113	173.492	-0.107	-0.157
-601.098	-46.400	0.298	-0.149
-600.084	59.363	-0.202	0.202
-599.069	318.462	0.122	-0.234
-598.055	-38.903	0.142	0.076
-597.040	255.003	-0.220	-0.384
-596.025	-174.923	-0.357	0.010
-595.011	405.206	-0.087	-0.186
-593.996	-200.000	-0.037	0.307
-592.982	327.006	-0.112	-0.218
-591.967	-93.585	-0.118	0.033
-590.952	-200.000	0.083	0.385
-589.938	-171.958	0.501	-0.017
-588.923	-33.381	-0.108	0.061
-587.909	-105.881	-0.213	-0.049
-586.894	800.000	-0.136	0.390
-585.879	-31.161	0.329	0.188
-584.865	188.261	-0.092	0.139
-583.850	384.001	-0.056	-0.116
-582.836	-73.898	-0.162	-0.060
-581.821	109.741	0.043	0.052
-580.806	65.511	-0.393	-0.404
-579.792	-172.033	0.277	-0.009
-578.777	-142.379	0.447	-0.045
-577.763	-116.197	-0.283	-0.053
-576.748	42.010	0.264	0.243
-575.733	-193.098	-0.304	0.003
-574.719	-88.756	0.061	-0.018
-573.704	-113.773	-0.198	-0.039
-572.690	-157.644	-0.323	-0.020
-571.675	89.933	0.133	-0.151
-570.661	-21.534	-0.257	-0.159
-569.646	150.260	0.070	-0.097
-568.631	108.655	-0.115	-0.139
-567.617	-99.345	0.021	-0.005
-566.602	-200.000	0.027	-0.126
-565.588	-200.000	-0.024	0.259
-564.573	-135.703	-0.370	-0.044
-563.558	173.457	0.163	-0.238
-562.544	-99.933	0.401	0.102
-561.529	-200.000	0.000	-0.318
-560.515	-102.336	-0.243	0.059
-559.500	272.292	-0.207	0.371
-558.485	-38.708	-0.044	-0.024
-557.471	-41.548	0.183	-0.096
-556.456	-42.732	0.183	0.094
-555.442	-104.087	-0.254	-0.060
-554.427	-200.000	-0.039	-0.186
-553.412	-200.000	0.003	-0.161
-552.398	-120.368	0.260	0.045
-551.383	-28.078	-0.153	0.090
-550.369	-140.524	0.062	-0.006
-549.354	-200.000	-0.007	-0.114
-548.339	-110.527	-0.116	-0.024
-547.325	-200.000	0.019	0.437
-546.310	-41.421	0.071	0.037
-545.296	176.629	0.213	0.315
-544.281	162.055	0.109	-0.155
-543.266	170.433	-0.104	-0.151
-542.252	-88.000	0.240	0.073
-541.237	18.842	-0.135	-0.109
-540.223	144.234	0.260	-0.352
-539.208	-200.000	-0.023	0.153
-538.193	12.599	0.354	-0.277
-537.179	183.837	0.122	-0.183
-536.164	-185.198	0.294	0.005
-535.150	273.796	-0.086	0.155
-534.135	800.000	-0.073	0.257
-533.121	124.406	-0.272	-0.347
-532.106	367.119	-0.127	-0.259
-531.091	9.496	0.112	0.086
-530.077	797.116	-0.036	-0.099
-529.062	-17.792	0.490	-0.311
-528.048	-116.740	0.494	0.092
-527.033	-40.928	0.267	0.140
-526.018	800.000	0.089	0.371
-525.004	71.608	0.172	0.181
-523.989	12.402	-0.141	-0.110
-522.975	-115.999	-0.076	0.014
-521.960	453.301	0.089	0.200
-520.945	-200.000	0.023	0.153
-519.931	8.731	-0.235	-0.180
-518.916	800.000	0.071	0.254
-517.902	-117.979	0.272	-0.049
-516.887	485.724	0.160	-0.369
-515.872	-72.345	-0.174	-0.065
-514.858	421.633	0.077	0.167
-513.843	-200.000	0.017	0.301
-512.829	115.133	0.071	-0.088
-511.814	130.654	-0.102	-0.133
-510.799	185.660	-0.113	-0.170
-509.785	-128.688	-0.220	0.031
-508.770	800.000	-0.082	0.257
-507.756	-66.711	-0.064	-0.025
-506.741	83.422	0.135	-0.149
-505.726	800.000	0.043	-0.176
-504.712	-87.483	-0.113	0.035
-503.697	287.521	-0.010	0.019
-502.683	-13.158	-0.507	-0.334
-501.668	-106.690	0.059	0.013
-500.653	-66.429	0.423	0.170
-499.639	441.831	-0.109	0.242
-498.624	78.832	0.023	0.025
-497.610	226.239	-0.112	-0.184
-496.595	800.000	-0.049	-0.168
-495.581	92.328	-0.182	0.208
-494.566	59.078	-0.290	0.288
-493.551	61.355	0.202	0.204
-492.537	-51.867	-0.183	0.086
-491.522	800.000	-0.126	-0.376
-490.508	-80.238	0.132	-0.045
-489.493	800.000	0.058	0.176
-488.478	115.923	-0.180	-0.222
-487.464	-200.000	0.011	0.128
-486.449	-200.000	0.031	-0.250
-485.435	-25.546	-0.038	0.023
-484.420	48.255	-0.184	0.175
-483.405	-8.986	-0.214	0.145
-482.391	653.464	-0.036	0.094
-481.376	26.394	0.230	0.194
-480.362	49.066	-0.126	0.120
-479.347	-4.990	-0.103	0.072
-478.332	-121.492	-0.209	0.035
-477.318	-47.710	0.076	-0.037
-476.303	117.709	0.151	0.188
-475.289	-200.000	0.040	0.193
-474.274	800.000	-0.036	-0.109
-473.259	13.606	0.206	0.162
-472.245	173.416	0.122	-0.178
-471.230	800.000	-0.033	-0.115
-470.216	174.580	-0.082	0.119
-469.201	-49.827	0.145	0.070
-468.186	191.818	-0.071	0.108
-467.172	-1.281	-0.088	0.063
-466.157	469.560	0.119	0.270
-465.143	-64.558	0.136	-0.056
-464.128	-200.000	0.009	0.104
-463.113	41.951	-0.099	-0.091
-462.099	-20.931	-0.232	0.143
-461.084	-11.655	0.468	0.310
-460.070	66.384	-0.107	-0.110
-459.055	123.822	0.242	-0.307
-458.040	360.878	0.136	0.275
-457.026	177.520	0.124	0.183
-456.011	319.447	0.073	0.139
-454.997	-91.636	0.028	-0.008
-453.982	382.370	-0.158	-0.327
-452.968	-79.435	-0.168	0.057
-451.953	-73.820	-0.283	-0.104
-450.938	56.086	-0.134	-0.132
-449.924	-85.211	0.365	-0.115
-448.909	-177.687	-0.241	-0.006
-447.895	198.888	0.041	-0.063
-446.880	-138.032	-0.339	-0.038
-445.865	208.521	0.102	0.160
-444.851	39.547	-0.170	-0.154
-443.836	-42.319	-0.095	-0.049
-442.822	75.884	-0.145	-0.155
-441.807	-13.520	-0.144	-0.094
-440.792	-9.517	0.250	0.168
-439.778	72.611	-0.107	0.112
-438.763	-200.000	0.057	-0.431
-437.749	114.672	0.112	0.138
-436.734	688.225	-0.128	0.337
-435.719	-99.873	-0.154	-0.039
-434.705	40.302	-0.146	0.132
-433.690	-29.031	-0.185	-0.107
-432.676	-96.554	-0.174	0.046
-431.661	-200.000	-0.056	0.252
-430.646	102.031	0.049	0.058
-429.632	94.538	-0.152	0.174
-428.617	-92.979	-0.083	-0.023
-427.603	20.973	-0.085	0.070
-426.588	-200.000	-0.028	-0.133
-425.573	136.516	-0.132	-0.174
-424.559	-139.361	0.074	-0.008
-423.544	800.000	0.073	-0.208
-422.530	-81.178	-0.312	0.104
-421.515	-74.515	-0.339	0.123
-420.500	48.798	0.334	-0.316
-419.486	-200.000	-0.047	-0.244
-418.471	176.493	-0.179	-0.262
-417.457	-30.320	-0.042	0.024
-416.442	-200.000	-0.019	-0.147
-415.428	800.000	-0.002	-0.005
-414.413	95.353	-0.108	-0.125
-413.398	-119.384	0.081	-0.014
-412.384	-200.000	-0.010	-0.057
-411.369	-95.211	0.152	0.041
-410.355	37.976	0.072	0.065
-409.340	800.000	-0.061	-0.211
-408.325	-113.379	0.343	0.068
-407.311	-200.000	0.035	0.161
-406.296	284.750	-0.110	0.199
-405.282	-97.407	-0.110	0.029
-404.267	-191.940	-0.284	-0.003
-403.252	44.603	-0.034	-0.031
-402.238	-8.118	-0.219	0.149
-401.223	-66.268	0.162	-0.065
-400.209	-200.000	0.029	-0.289
-399.194	-112.408	0.318	0.064
-398.179	-200.000	0.011	0.107
-397.165	-52.928	0.094	-0.044
-396.150	-38.400	-0.049	0.026
-395.136	1.482	-0.201	-0.146
-394.121	42.944	0.081	0.074
-393.106	800.000	-0.058	0.245
-392.092	-94.658	0.238	0.065
-391.077	-90.075	0.192	0.056
-390.063	800.000	0.044	0.126
-389.048	-68.617	-0.336	0.131
-388.033	4.130	-0.272	0.201
-387.019	362.073	0.111	-0.225
-386.004	173.355	0.066	-0.096
-384.990	-27.516	-0.008	-0.005
-383.975	293.852	-0.043	-0.079
-382.960	22.274	0.303	-0.249
-381.946	159.185	-0.060	-0.085
-380.931	-200.000	-0.030	0.201
-379.917	498.733	-0.050	0.115
-378.902	-200.000	-0.007	-0.149
-377.888	45.934	0.125	0.116
-376.873	-107.744	0.367	0.081
-375.858	129.241	-0.088	0.113
-374.844	800.000	0.036	-0.114
-373.829	90.654	-0.231	0.261
-372.815	-150.129	0.111	-0.009
-371.800	800.000	-0.084	0.283
-370.785	-31.419	0.048	-0.027
-369.771	-200.000	-0.052	0.338
-368.756	360.117	-0.060	-0.121
-367.742	-33.844	-0.212	0.117
-366.727	42.716	0.230	-0.211
-365.712	-12.881	-0.064	-0.042
-364.698	-103.241	0.090	-0.021
-363.683	-200.000	0.026	-0.207
-362.669	-72.118	0.325	0.121
-361.654	183.892	-0.021	0.031
-360.639	-26.567	0.158	0.093
-359.625	-70.513	0.244	-0.093
-358.610	-92.937	-0.141	0.040
-357.596	-11.820	0.059	-0.039
-356.581	800.000	-0.059	0.184
-355.566	800.000	0.015	-0.048
-354.552	-172.730	0.186	0.006
-353.537	800.000	0.064	-0.231
-352.523	-53.345	0.194	0.090
-351.508	-200.000	-0.044	0.266
-350.493	-61.124	-0.348	-0.148
-349.479	297.973	0.051	-0.095
-348.464	800.000	0.063	0.200
-347.450	116.956	-0.156	0.193
-346.435	223.974	-0.030	-0.049
-345.420	203.039	-0.053	-0.082
-344.406	-200.000	-0.060	-0.358
-343.391	457.680	-0.080	-0.179
-342.377	187.032	0.189	0.283
-341.362	-98.465	-0.164	0.042
-340.348	546.273	0.171	-0.411
-339.333	105.935	-0.183	0.218
-338.318	520.816	0.140	-0.330
-337.304	-127.865	-0.198	0.029
-336.289	-200.000	-0.002	0.022
-335.275	239.689	0.087	0.146
-334.260	-152.784	0.142	-0.010
-333.245	-14.256	-0.141	0.092
-332.231	-200.000	0.004	0.098
-331.216	47.301	-0.153	-0.143
-330.202	3.537	0.111	-0.082
-329.187	388.342	0.044	-0.091
-328.172	110.578	0.279	-0.338
-327.158	800.000	0.078	0.286
-326.143	800.000	0.045	-0.156
-325.129	242.336	-0.036	0.061
-324.114	57.131	-0.028	0.028
-323.099	243.371	-0.205	-0.346
-322.085	-82.851	0.092	0.030
-321.070	550.199	-0.079	-0.191
-320.056	182.997	-0.075	-0.112
-319.041	-31.284	-0.208	-0.118
-318.026	83.120	0.296	0.324
-317.012	800.000	0.029	-0.106
-315.997	-47.365	0.172	0.084
-314.983	39.258	0.203	0.183
-313.968	-57.341	0.021	0.009
-312.953	513.887	-0.080	0.189
-311.939	440.529	0.008	0.017
-310.924	-180.043	0.154	0.003
-309.910	-131.813	-0.169	-0.022
-308.895	-24.115	-0.176	-0.106
-307.880	-200.000	-0.035	0.369
-306.866	450.710	-0.080	0.177
-305.851	219.600	-0.156	0.251
-304.837	-200.000	0.008	0.221
-303.822	-200.000	-0.028	-0.182
-302.807	293.102	-0.101	0.185
-301.793	207.553	0.096	0.150
-300.778	-89.038	-0.204	-0.060
-299.764	-2.177	0.325	0.229
-298.749	-34.533	0.088	-0.048
-297.735	31.397	0.190	0.164
-296.720	-89.101	-0.288	0.085
-295.705	145.808	-0.070	0.094
-294.691	141.060	0.090	-0.120
-293.676	60.692	-0.340	-0.338
-292.662	-167.661	-0.111	-0.004
-291.647	44.649	0.176	0.162
-290.632	-15.179	-0.104	-0.067
-289.618	-175.384	-0.143	0.004
-288.603	-200.000	0.006	0.141
-287.589	-9.400	0.188	0.126
-286.574	-200.000	-0.026	-0.306
-285.559	-10.026	-0.140	0.094
-284.545	477.664	-0.061	-0.138
-283.530	176.677	0.129	-0.188
-282.516	-56.392	-0.330	-0.147
-281.501	-175.631	0.227	-0.006
-280.486	-99.609	0.277	0.070
-279.472	335.221	-0.112	-0.218
-278.457	-44.079	-0.037	0.019
-277.443	-26.921	-0.158	-0.092
-276.428	508.998	-0.022	-0.052
-275.413	130.553	-0.125	-0.161
-274.399	1.023	0.138	0.099
-273.384	-106.183	-0.164	0.037
-272.370	-50.762	0.320	0.151
-271.355	-139.475	-0.147	-0.016
-270.340	-200.000	-0.020	0.142
-269.326	253.973	-0.068	0.117
-268.311	-116.180	-0.171	0.032
-267.297	363.521	-0.135	-0.272
-266.282	49.540	-0.080	0.076
-265.267	-52.492	-0.164	0.076
-264.253	-53.665	0.244	0.112
-263.238	-170.229	0.279	0.010
-262.224	-98.990	-0.117	-0.030
-261.209	185.613	-0.054	0.080
-260.195	50.299	0.182	-0.172
-259.180	-111.079	-0.113	-0.023
-258.165	133.754	0.082	0.106
-257.151	-103.357	-0.293	-0.069
-256.136	-81.067	0.115	0.038
-255.122	182.964	-0.127	-0.187
-254.107	-115.847	0.174	0.033
-253.092	-177.620	-0.308	-0.007
-252.078	800.000	-0.039	0.108
-251.063	167.880	0.109	0.155
-250.049	237.471	0.182	0.303
-249.034	106.658	0.131	-0.156
-248.019	-109.876	0.188	0.039
-247.005	-164.782	0.156	0.007
-245.990	-97.677	0.307	-0.080
-244.976	-13.780	-0.178	0.115
-243.961	-200.000	-0.019	-0.154
-242.946	-90.424	-0.113	-0.033
-241.932	179.605	-0.126	-0.185
-240.917	-200.000	-0.009	0.256
-239.903	800.000	0.053	0.195
-238.888	-93.701	0.273	-0.076
-237.873	-95.128	0.137	-0.037
-236.859	522.465	-0.149	0.351
-235.844	130.941	-0.112	0.143
-234.830	-49.029	0.097	0.046
-233.815	255.411	-0.038	-0.065
-232.800	-123.077	-0.186	-0.030
-231.786	-73.167	0.212	0.078
-230.771	497.602	0.147	-0.339
-229.757	-90.640	0.119	-0.035
-228.742	-34.273	-0.206	-0.113
-227.727	-32.195	0.291	-0.163
-226.713	-115.442	-0.041	0.008
-225.698	-12.478	-0.136	0.089
-224.684	-200.000	-0.052	0.308
-223.669	172.870	0.015	-0.022
-222.655	800.000	-0.054	0.209
-221.640	204.558	0.118	-0.183
-220.625	-200.000	0.021	0.161
-219.611	-96.419	0.166	-0.044
-218.596	-200.000	0.010	0.251
-217.582	-168.740	-0.248	0.009
-216.567	-119.315	0.213	0.037
-215.552	-46.974	-0.298	-0.146
-214.538	-126.977	0.303	-0.045
-213.523	-131.842	-0.110	-0.014
-212.509	-200.000	0.030	0.170
-211.494	-103.478	0.443	0.104
-210.479	238.999	-0.097	-0.162
-209.465	-78.196	-0.145	0.050
-208.450	-8.279	0.185	0.125
-207.436	402.381	0.142	0.298
-206.421	429.640	0.033	0.071
-205.406	800.000	0.042	-0.164
-204.392	-21.863	-0.268	0.163
-203.377	-200.000	0.055	0.264
-202.363	-33.746	-0.277	-0.153
-201.348	800.000	-0.053	-0.182
-200.333	25.425	-0.296	0.246
-199.319	88.931	-0.220	0.245
-198.304	-200.000	-0.024	-0.217
-197.290	800.000	0.027	0.115
-196.275	214.224	0.057	0.090
-195.260	250.107	0.071	-0.120
-194.246	-29.134	0.232	-0.133
-193.231	-200.000	0.021	0.211
-192.217	-200.000	0.028	-0.330
-191.202	466.111	0.109	-0.243
-190.187	-126.473	0.500	-0.074
-189.173	55.095	0.285	0.275
-188.158	800.000	0.095	-0.339
-187.144	-77.592	0.228	-0.079
-186.129	119.147	0.246	0.305
-185.114	693.952	0.131	0.343
-184.100	179.964	0.166	-0.243
-183.085	-200.000	-0.052	-0.299
-182.071	192.311	-0.178	-0.269
-181.056	198.001	0.135	0.206
-180.042	301.318	0.142	-0.261
-179.027	800.000	-0.069	-0.231
-178.012	-12.397	-0.230	0.150
-176.998	-54.041	-0.280	-0.127
-175.983	-91.224	-0.040	0.011
-174.969	560.270	0.047	-0.114
-173.954	-8.095	-0.119	0.080
-172.939	284.418	0.086	0.154
-171.925	205.742	0.030	0.047
-170.910	606.129	0.021	-0.051
-169.896	468.672	-0.063	0.141
-168.881	-53.924	0.182	-0.083
-167.866	-200.000	-0.039	0.305
-166.852	-71.955	-0.031	0.012
-165.837	88.808	0.048	-0.053
-164.823	54.544	0.154	-0.148
-163.808	-122.372	-0.080	0.013
-162.793	800.000	-0.063	-0.228
-161.779	130.269	0.083	0.107
-160.764	157.414	0.174	0.241
-159.750	12.454	0.265	-0.204
-158.735	-38.565	-0.392	-0.207
-157.720	153.509	-0.162	-0.222
-156.706	-200.000	-0.017	0.107
-155.691	18.710	-0.015	0.012
-154.677	-87.881	0.361	-0.108
-153.662	800.000	-0.010	-0.041
-152.647	800.000	-0.050	0.201
-151.633	-73.538	0.147	-0.054
-150.618	423.828	0.114	-0.246
-149.604	82.963	-0.165	-0.179
-148.589	-139.934	0.118	0.012
-147.574	-104.883	-0.343	0.079
-146.560	261.972	-0.113	-0.195
-145.545	-48.046	0.227	-0.109
-144.531	-129.306	0.265	0.037
-143.516	-30.144	0.136	-0.077
-142.502	-36.034	0.094	0.051
-141.487	298.933	0.133	0.243
-140.472	667.741	0.129	0.334
-139.458	51.678	0.256	0.243
-138.443	-12.841	-0.339	-0.220
-137.429	800.000	-0.099	0.291
-136.414	292.906	0.110	0.200
-135.399	54.642	-0.128	0.123
-134.385	101.630	0.163	0.189
-133.370	800.000	0.070	0.264
-132.356	-146.539	-0.344	0.030
-131.341	-141.750	-0.254	-0.025
-130.326	-200.000	0.038	0.514
-129.312	-50.194	0.195	0.092
-128.297	27.343	0.258	-0.216
-127.283	0.080	-0.222	-0.158
-126.268	-43.255	0.095	-0.048
-125.253	-188.637	-0.331	0.004
-124.239	-56.546	0.104	-0.046
-123.224	597.437	-0.085	0.209
-122.210	800.000	0.109	0.359
-121.195	-200.000	-0.030	0.301
-120.180	-91.132	0.328	0.094
-119.166	-165.443	-0.111	0.005
-118.151	-200.000	-0.037	0.185
-117.137	135.705	-0.176	0.228
-116.122	-12.291	-0.212	-0.139
-115.107	257.428	0.084	0.143
-114.093	-200.000	0.028	0.173
-113.078	100.323	-0.036	0.042
-112.064	-144.877	0.202	0.018
-111.049	133.313	-0.170	-0.220
-110.034	255.182	-0.136	-0.233
-109.020	129.641	0.042	0.054
-108.005	-200.000	0.010	-0.050
-106.991	89.492	0.113	-0.125
-105.976	261.587	-0.121	0.209
-104.962	800.000	-0.072	-0.216
-103.947	800.000	-0.067	0.288
-102.932	-200.000	-0.011	-0.358
-101.918	381.849	0.025	-0.051
-100.903	349.491	-0.064	-0.125
-99.889	436.408	0.142	-0.308
-98.874	-200.000	0.003	-0.289
-97.859	-104.051	-0.084	0.019
-96.845	161.412	0.155	0.215
-95.830	282.470	-0.071	-0.127
-94.816	3.902	-0.209	-0.152
-93.801	-200.000	-0.001	-0.230
-92.786	-150.393	-0.295	0.023
-91.772	-76.845	0.151	-0.052
-90.757	496.777	0.096	0.220
-89.743	800.000	-0.027	-0.118
-88.728	-36.723	-0.458	-0.245
-87.713	40.806	-0.323	-0.290
-86.699	800.000	0.069	0.229
-85.684	-100.576	-0.022	-0.005
-84.670	117.732	-0.042	-0.051
-83.655	97.429	0.101	-0.115
-82.640	-184.874	0.578	0.009
-81.626	-121.388	-0.125	0.021
-80.611	-87.032	0.401	0.122
-79.597	552.637	-0.078	0.187
-78.582	-66.195	-0.269	0.107
-77.567	-31.848	-0.117	0.065
-76.553	-200.000	0.028	0.159
-75.538	162.189	-0.086	0.119
-74.524	800.000	0.024	0.106
-73.509	22.178	0.033	-0.027
-72.494	0.826	-0.151	0.108
-71.480	-36.553	0.239	-0.128
-70.465	-128.952	-0.452	-0.063
-69.451	-200.000	-0.016	0.090
-68.436	-55.152	0.252	-0.113
-67.422	150.220	-0.252	0.341
-66.407	115.534	0.326	0.397
-65.392	116.880	0.052	-0.064
-64.378	-147.423	0.115	0.010
-63.363	46.538	-0.226	0.209
-62.349	512.979	0.057	-0.132
-61.334	116.771	-0.731	-0.892
-60.319	-200.000	0.069	0.437
-59.305	697.044	-0.194	-0.508
-58.290	199.070	0.304	0.463
-57.276	800.000	0.410	1.462
-56.261	-200.000	85.072	505.004
-55.246	552.101	1375.653	3285.643
-54.232	182.441	2611.246	3828.759
-53.217	119.245	2246.638	2764.041
-52.203	48.534	1694.066	1578.343
-51.188	40.856	1424.854	1278.328
-50.173	37.558	1380.279	1217.692
-49.159	56.480	1421.181	1374.099
-48.144	61.082	1439.203	1420.608
-47.130	41.365	1399.110	1258.249
-46.115	37.587	1382.935	1220.022
-45.100	37.536	1377.588	1214.935
-44.086	37.364	1375.388	1211.878
-43.071	37.370	1372.522	1209.338
-42.057	37.417	1370.211	1207.551
-41.042	37.366	1368.898	1206.024
-40.027	37.475	1366.719	1204.735
-39.013	37.379	1365.526	1203.039
-37.998	37.543	1363.267	1202.014
-36.984	37.561	1361.639	1200.644
-35.969	37.529	1359.762	1198.744
-34.954	37.562	1358.145	1197.473
-33.940	37.502	1357.071	1196.109
-32.925	37.658	1355.395	1195.542
-31.911	37.563	1353.679	1193.398
-30.896	37.731	1352.018	1192.920
-29.881	37.701	1350.654	1191.484
-28.867	37.667	1349.306	1190.040
-27.852	37.529	1348.231	1188.202
-26.838	37.633	1346.460	1187.229
-25.823	37.660	1345.251	1186.277
-24.809	37.683	1343.859	1185.147
-23.794	37.682	1342.131	1183.567
-22.779	37.617	1341.161	1182.273
-21.765	37.651	1339.730	1181.166
-20.750	37.645	1338.075	1179.627
-19.736	37.577	1336.888	1178.119
-18.721	37.442	1335.712	1176.221
-17.706	37.455	1334.588	1175.265
-16.692	37.606	1332.766	1174.526
-15.677	37.521	1331.658	1172.989
-14.663	37.400	1330.977	1171.614
-13.648	37.464	1329.667	1170.799
-12.633	37.441	1328.824	1169.872
-11.619	37.424	1327.649	1168.687
-10.604	37.381	1327.343	1168.116
-9.590	37.443	1325.949	1167.216
-8.575	37.438	1325.102	1166.390
-7.560	37.473	1324.192	1165.752
-6.546	37.441	1323.043	1164.505
-5.531	37.298	1322.603	1163.215
-4.517	37.472	1321.112	1162.896
-3.502	37.564	1320.035	1162.453
-2.487	37.495	1319.176	1161.241
-1.473	37.624	1315.550	1158.771
-0.458	36.536	1300.029	1138.647
0.556	31.491	1281.343	1099.300
1.571	27.783	1285.780	1081.088
2.586	26.963	1300.322	1088.305
3.600	25.620	1289.335	1071.022
4.615	17.948	1209.850	961.872
5.629	5.898	1124.659	830.609
6.644	0.526	1101.162	785.290
7.659	0.099	1098.391	781.028
8.673	0.008	1096.686	779.279
9.688	0.068	1094.872	778.231
10.702	0.556	1094.370	780.327
11.717	8.137	1106.152	828.149
12.731	18.754	1122.201	895.761
13.746	22.370	1125.800	917.442
14.761	22.234	1125.222	916.180
15.775	22.179	1124.547	915.263
16.790	21.944	1123.744	913.306
17.804	21.728	1123.308	911.747
18.819	21.961	1122.323	912.074
19.834	21.989	1122.227	912.063
20.848	21.933	1121.650	911.223
21.863	22.179	1120.539	911.518
22.877	21.961	1120.165	909.998
23.892	21.952	1119.600	909.413
24.907	22.089	1118.664	909.282
25.921	21.945	1117.812	907.763
26.936	21.921	1116.016	906.102
27.950	21.959	1114.589	905.062
28.965	21.742	1112.338	902.036
29.980	21.844	1111.229	901.582
30.994	22.031	1109.986	901.450
32.009	21.979	1109.124	900.404
33.023	21.844	1107.748	898.518
34.038	21.819	1107.062	897.752
35.053	21.972	1106.277	897.820
36.067	21.974	1105.646	897.236
37.082	22.076	1104.650	896.874
38.096	22.228	1103.916	896.972
39.111	22.395	1103.196	897.159
40.126	22.118	1102.003	894.697
41.140	21.804	1099.784	891.222
42.155	21.377	1099.336	888.610
43.169	21.642	1097.519	888.409
44.184	21.704	1096.587	887.889
45.199	21.459	1095.811	885.941
46.213	21.632	1094.842	885.957
47.228	21.689	1093.862	885.370
48.242	21.767	1092.814	884.838
49.257	21.914	1092.374	885.143
50.271	22.109	1091.214	885.111
51.286	22.146	1090.421	884.577
52.301	22.058	1089.477	883.290
53.315	21.952	1088.825	882.146
54.330	21.863	1087.648	880.672
55.344	21.909	1086.948	880.255
56.359	21.916	1085.783	879.272
57.374	21.767	1085.004	877.815
58.388	21.811	1084.377	877.449
59.403	21.619	1083.405	875.624
60.417	21.506	1082.348	874.130
61.432	21.697	1081.627	874.425
62.447	21.778	1080.974	874.224
63.461	21.776	1080.090	873.421
64.476	21.928	1078.491	872.805
65.490	21.565	1078.178	870.672
66.505	21.796	1077.339	871.063
67.520	21.688	1076.918	870.109
68.534	21.475	1075.675	867.971
69.549	21.265	1074.023	865.523
70.563	21.275	1073.082	864.735
71.578	21.226	1072.641	864.063
72.593	21.114	1071.793	862.750
73.607	21.295	1071.035	862.958
74.622	21.603	1070.538	864.001
75.636	21.464	1069.984	862.789
76.651	21.400	1069.062	861.654
77.666	21.367	1067.738	860.352
78.680	21.456	1067.559	860.567
79.695	21.471	1066.964	860.084
80.709	21.596	1066.022	859.861
81.724	21.605	1065.298	859.247
82.739	21.729	1064.219	858.910
83.753	22.065	1063.881	860.208
84.768	22.157	1063.201	860.031
85.782	22.429	1061.872	860.210
86.797	22.346	1060.821	858.877
87.812	22.118	1060.192	857.181
88.826	22.222	1059.357	856.934
89.841	22.295	1057.845	855.990
90.855	22.298	1057.289	855.479
91.870	22.213	1056.043	853.982
92.884	22.022	1055.049	852.175
93.899	22.091	1053.778	851.410
94.914	22.235	1052.907	851.328
95.928	22.032	1052.166	849.671
96.943	21.786	1051.005	847.468
97.957	21.520	1049.591	844.972
98.972	21.412	1048.513	843.504
99.987	21.780	1047.423	844.328
101.001	21.896	1046.850	844.349
102.016	21.866	1045.673	843.180
103.030	21.807	1045.074	842.341
104.045	21.631	1044.065	840.608
105.060	21.594	1042.717	839.269
106.074	21.690	1042.050	839.118
107.089	22.078	1041.670	840.597
108.103	22.055	1040.229	839.249
109.118	21.671	1039.240	836.542
110.133	21.714	1038.382	835.984
111.147	21.554	1036.901	833.954
112.162	21.496	1035.758	832.688
113.176	21.555	1035.543	832.720
114.191	21.516	1034.591	831.695
115.206	21.338	1033.273	829.716
116.220	21.253	1032.406	828.544
117.235	21.519	1031.200	828.765
118.249	21.383	1030.676	827.627
119.264	21.379	1029.873	826.891
120.279	21.481	1028.908	826.525
121.293	21.421	1028.162	825.565
122.308	21.582	1027.162	825.450
123.322	21.424	1025.871	823.595
124.337	21.196	1024.796	821.587
125.352	20.928	1022.622	818.514
126.366	20.749	1022.133	817.207
127.381	21.405	1021.954	820.072
128.395	21.841	1021.782	821.907
129.410	22.114	1020.463	822.049
130.424	22.073	1019.467	820.983
131.439	21.955	1018.632	819.684
132.454	21.925	1017.835	818.830
133.468	21.911	1016.904	817.946
134.483	21.992	1016.097	817.600
135.497	22.205	1015.542	818.074
136.512	22.239	1014.540	817.353
137.527	22.225	1013.911	816.709
138.541	22.072	1013.340	815.464
139.556	22.285	1012.044	815.337
140.570	22.258	1011.184	814.447
141.585	22.354	1010.160	813.996
142.600	22.239	1009.346	812.734
143.614	22.470	1008.725	813.230
144.629	22.535	1007.984	812.863
145.643	22.303	1006.535	810.554
146.658	22.252	1004.893	808.923
147.673	22.025	1004.139	807.201
148.687	21.972	1002.939	805.923
149.702	21.993	1001.547	804.829
150.716	21.941	1000.203	803.439
151.731	22.173	999.864	804.156
152.746	22.158	999.328	803.586
153.760	22.201	999.155	803.573
154.775	22.316	998.590	803.573
155.789	22.200	997.384	802.000
156.804	22.294	996.366	801.541
157.819	22.427	995.380	801.283
158.833	22.530	994.612	801.061
159.848	22.418	993.736	799.777
160.862	22.369	992.336	798.358
161.877	22.354	991.666	797.677
162.892	22.365	990.625	796.821
163.906	22.293	989.150	795.239
164.921	22.247	988.530	794.461
165.935	22.327	987.261	793.734
166.950	22.380	986.289	793.121
167.964	22.407	985.290	792.367
168.979	22.188	984.502	790.681
169.994	22.100	983.590	789.479
171.008	22.398	982.746	790.073
172.023	22.478	981.998	789.760
173.037	22.188	980.883	787.493
174.052	22.091	979.634	785.989
175.067	22.147	979.182	785.806
176.081	22.116	978.701	785.213
177.096	22.170	977.831	784.682
178.110	21.739	976.901	781.945
179.125	21.640	976.102	780.795
180.140	21.788	975.868	781.200
181.154	21.944	975.739	781.723
182.169	22.194	975.160	782.301
183.183	22.310	974.809	782.468
184.198	22.440	973.282	781.748
185.213	22.200	973.191	780.539
186.227	22.266	972.672	780.351
187.242	22.318	971.649	779.689
188.256	22.338	971.359	779.474
189.271	22.379	970.417	778.835
190.286	22.141	969.213	776.744
191.300	21.649	967.343	773.008
192.315	20.857	965.833	768.242
193.329	20.758	965.271	767.290
194.344	21.636	965.952	771.634
195.359	22.136	966.175	773.948
196.373	22.227	965.685	773.886
197.388	22.150	964.483	772.517
198.402	22.154	963.984	772.065
199.417	22.173	963.057	771.338
200.432	22.055	962.200	770.066
201.446	21.766	961.439	768.124
202.461	21.934	960.640	768.152
203.475	20.954	958.952	762.448
204.490	20.308	957.457	758.370
205.504	21.207	957.920	762.601
206.519	21.843	957.931	765.319
207.534	22.024	957.037	765.323
208.548	22.235	957.250	766.347
209.563	22.011	956.006	764.306
210.577	22.165	955.399	764.423
211.592	22.347	955.240	765.020
212.607	22.351	954.228	764.160
213.621	22.539	953.359	764.210
214.636	22.444	952.739	763.238
215.650	22.321	951.802	761.884
216.665	22.462	951.348	762.064
217.680	22.327	950.740	760.927
218.694	21.967	949.199	758.074
219.709	21.856	948.338	756.839
220.723	22.150	947.998	757.766
221.738	22.287	947.417	757.827
222.753	22.147	946.885	756.731
223.767	22.272	946.480	756.878
224.782	22.390	946.059	756.981
225.796	22.492	945.149	756.626
226.811	21.870	943.979	752.954
227.826	21.250	942.450	749.006
228.840	21.439	941.929	749.338
229.855	21.400	941.129	748.468
230.869	21.263	940.150	747.036
231.884	21.637	940.278	748.673
232.899	22.120	940.414	750.779
233.913	22.240	939.517	750.510
234.928	22.244	938.760	749.853
235.942	22.129	938.191	748.845
236.957	21.836	937.212	746.750
237.972	21.877	936.686	746.439
238.986	21.934	936.264	746.279
240.001	21.800	935.868	745.327
241.015	22.096	934.877	745.728
242.030	22.112	934.399	745.348
243.045	22.290	934.258	745.926
244.059	22.297	933.522	745.302
245.074	22.083	932.898	743.832
246.088	21.802	931.602	741.542
247.103	22.094	931.579	742.695
248.117	22.546	931.435	744.422
249.132	22.848	930.703	745.046
250.147	22.929	929.920	744.698
251.161	23.003	929.692	744.760
252.176	23.119	928.953	744.591
253.190	23.211	928.485	744.537
254.205	23.250	927.874	744.145
255.220	23.224	927.554	743.711
256.234	22.972	926.838	742.013
257.249	22.901	925.905	740.903
258.263	22.914	925.181	740.311
259.278	23.166	924.318	740.614
260.293	23.031	924.131	739.834
261.307	23.038	922.670	738.627
262.322	22.900	921.753	737.251
263.336	22.086	919.883	732.299
264.351	21.087	918.071	726.631
265.366	21.233	917.559	726.771
266.380	22.140	918.877	731.528
267.395	22.603	918.257	732.896
268.409	22.510	917.759	732.048
269.424	22.793	916.986	732.538
270.439	22.895	916.307	732.356
271.453	22.969	915.750	732.152
272.468	23.031	915.838	732.414
273.482	23.173	914.773	732.085
274.497	22.785	913.800	729.640
275.512	22.438	912.998	727.501
276.526	22.758	912.555	728.406
277.541	23.004	912.341	729.183
278.555	22.681	911.517	727.128
279.570	22.645	910.536	726.132
280.585	22.737	909.915	725.952
281.599	22.694	909.183	725.127
282.614	22.154	907.791	721.736
283.628	22.144	907.123	721.102
284.643	22.640	906.712	722.744
285.657	22.141	905.582	719.734
286.672	21.962	904.638	718.191
287.687	22.423	905.204	720.461
288.701	22.568	903.910	719.962
289.716	22.322	903.092	718.241
290.730	22.159	902.838	717.311
291.745	21.775	901.554	714.662
292.760	22.150	901.628	716.186
293.774	23.114	902.257	720.553
294.789	23.479	901.613	721.458
295.803	23.529	901.004	721.111
296.818	23.571	900.079	720.475
297.833	23.044	899.148	717.532
298.847	22.750	898.303	715.599
299.862	23.089	898.333	716.936
300.876	23.552	897.700	718.240
301.891	23.398	897.204	717.157
302.906	22.858	896.117	714.043
303.920	22.928	895.994	714.166
304.935	23.312	895.701	715.419
305.949	23.337	894.862	714.785
306.964	23.155	893.760	713.111
307.979	23.151	893.695	712.977
308.993	23.620	893.174	714.389
310.008	23.560	892.804	713.787
311.022	23.365	891.732	712.083
312.037	23.149	891.531	710.991
313.052	22.948	890.277	709.124
314.066	22.027	888.682	704.099
315.081	21.759	887.919	702.357
316.095	22.515	888.416	705.720
317.110	23.102	888.163	707.802
318.125	22.338	886.513	703.376
319.139	21.317	884.705	697.801
320.154	21.201	884.802	697.354
321.168	22.198	884.959	701.398
322.183	22.686	885.293	703.546
323.197	22.984	884.684	704.188
324.212	23.243	884.420	704.946
325.227	23.091	884.046	703.982
326.241	23.106	882.847	703.024
327.256	22.994	882.440	702.191
328.270	22.924	881.523	701.123
329.285	22.717	880.972	699.802
330.300	22.520	879.950	698.146
331.314	22.895	879.557	699.259
332.329	23.020	879.904	699.969
333.343	23.429	879.270	701.018
334.358	23.263	878.830	699.949
335.373	23.318	878.679	699.985
336.387	23.538	878.799	700.887
337.402	23.689	878.079	700.848
338.416	23.669	877.723	700.422
339.431	23.704	877.425	700.261
340.446	23.802	877.267	700.458
341.460	23.792	876.410	699.672
342.475	23.578	875.528	698.067
343.489	23.643	875.518	698.251
344.504	23.932	875.155	699.037
345.519	23.924	875.010	698.827
346.533	24.171	874.194	699.084
347.548	24.000	873.924	698.133
348.562	24.016	873.121	697.493
349.577	23.846	872.647	696.389
350.592	23.961	871.759	696.068
351.606	23.952	871.374	695.663
352.621	23.770	870.169	693.929
353.635	23.827	868.987	693.149
354.650	23.118	867.567	689.193
355.665	22.204	865.925	684.270
356.679	22.492	865.989	685.383
357.694	23.174	865.513	687.596
358.708	22.971	864.824	686.198
359.723	23.364	864.748	687.602
360.738	23.544	864.521	688.060
361.752	23.698	864.285	688.409
362.767	24.236	863.546	689.843
363.781	24.398	863.405	690.297
364.796	24.317	862.683	689.344
365.810	24.450	862.477	689.630
366.825	24.289	862.274	688.786
367.840	24.110	861.241	687.211
368.854	23.654	860.689	684.951
369.869	23.790	860.048	684.903
370.883	23.803	859.397	684.376
371.898	23.579	859.076	683.198
372.913	23.700	858.839	683.411
373.927	23.836	857.809	683.055
374.942	24.009	858.014	683.824
375.956	24.056	857.585	683.602
376.971	24.310	856.867	683.942
377.986	24.316	856.782	683.838
379.000	24.400	855.875	683.376
380.015	24.162	855.231	681.887
381.029	24.259	854.729	681.798
382.044	24.394	854.048	681.711
383.059	24.362	853.590	681.164
384.073	24.472	853.070	681.106
385.088	24.317	852.522	680.019
386.102	24.165	851.395	678.482
387.117	24.201	850.752	678.047
388.132	23.668	850.245	675.555
389.146	23.203	849.128	672.840
390.161	23.547	849.099	674.066
391.175	24.206	848.398	675.949
392.190	23.930	847.473	674.107
393.205	22.419	845.317	666.614
394.219	20.909	843.518	659.430
395.234	20.986	843.789	659.873
396.248	22.512	845.104	666.621
397.263	23.828	845.947	672.207
398.278	24.007	845.302	672.314
399.292	23.727	844.423	670.497
400.307	23.656	844.013	669.845
401.321	23.882	843.501	670.231
402.336	24.140	843.520	671.159
403.350	24.530	843.723	672.732
404.365	24.876	843.147	673.514
405.380	25.008	842.990	673.826
406.394	25.144	842.442	673.841
407.409	25.045	841.778	672.876
408.423	25.004	841.368	672.335
409.438	25.002	841.487	672.365
410.453	25.041	840.679	671.806
411.467	24.996	840.062	671.083
412.482	25.166	839.443	671.167
413.496	25.209	838.803	670.755
414.511	25.158	838.550	670.303
415.526	25.138	838.344	670.005
416.540	24.933	837.786	668.735
417.555	24.597	837.111	666.883
418.569	24.675	836.580	666.691
419.584	24.671	835.906	666.082
420.599	24.696	834.935	665.340
421.613	149.743	1366.010	1781.373
422.628	130.827	1443.385	1781.488
