DTS Sentinel unit serial number:	SN413079Multiplexer serial number:	ORYXHardware model number:	OX4-SRSoftware version number:	ORYX F/W v4.00 Oryx Data Collector v3.7.2.0data status	okinstallation	princeton_trtdifferential loss correction	single-endedforward channel	channel 1reverse channel	N/Adate	2019/09/19time	07:46:35forward acquisition time	60.00reverse acquisition time	0.00gamma	496.2192k internal	0.2342k external	0.2342temperature offset calibration	1.0013default loss term (dB/km)	0.3790temperature slope calibration	1.0000multiplexer offset coefficient	1.0000multiplexer slope coefficient	1.0000fibre end	0.00T internal ref (°C)	19.52T ext. ref 1 (°C)	0.56T ext. ref 2 (°C)	14.73length (m)	temperature (°C)	Stokes	anti-Stokes-747.200	-200.000	0.009	0.217
-746.185	-127.028	-0.087	0.013
-745.171	-192.765	-0.377	0.003
-744.156	-62.626	0.119	0.049
-743.142	-122.733	-0.063	-0.010
-742.127	-73.262	0.131	0.048
-741.112	800.000	-0.099	0.364
-740.098	425.293	0.243	0.524
-739.083	377.293	-0.102	0.208
-738.069	-84.120	-0.048	0.015
-737.054	800.000	-0.110	-0.306
-736.039	-200.000	0.052	-0.358
-735.025	157.846	0.321	0.446
-734.010	52.121	-0.196	-0.187
-732.996	-200.000	-0.086	-0.496
-731.981	-21.596	-0.146	-0.089
-730.966	-170.780	-0.180	-0.006
-729.952	-200.000	-0.016	0.191
-728.937	-200.000	-0.027	0.280
-727.923	-170.288	-0.080	0.003
-726.908	237.564	0.134	-0.223
-725.894	-8.335	0.193	0.130
-724.879	-88.162	-0.057	0.017
-723.864	-162.563	0.382	-0.019
-722.850	260.387	-0.131	-0.226
-721.835	-200.000	0.051	-0.319
-720.821	98.900	-0.161	0.187
-719.806	83.182	-0.257	-0.280
-718.791	800.000	0.061	-0.199
-717.777	-200.000	-0.011	-0.231
-716.762	-200.000	-0.071	0.314
-715.748	-83.646	0.173	0.055
-714.733	-200.000	-0.006	-0.246
-713.718	-99.891	-0.094	0.023
-712.704	800.000	-0.059	-0.179
-711.689	321.633	-0.106	-0.203
-710.675	-13.519	-0.003	-0.002
-709.660	284.229	0.027	-0.048
-708.645	800.000	-0.127	0.415
-707.631	800.000	-0.019	-0.080
-706.616	174.421	-0.244	0.352
-705.602	-22.601	0.109	0.066
-704.587	247.547	0.154	-0.260
-703.572	-168.591	-0.078	0.003
-702.558	60.647	0.092	0.091
-701.543	154.981	-0.112	-0.154
-700.529	265.460	-0.225	-0.393
-699.514	-107.858	-0.375	-0.082
-698.499	-140.376	0.254	-0.027
-697.485	11.963	0.126	0.097
-696.470	-200.000	-0.021	-0.431
-695.456	-189.054	-0.112	0.001
-694.441	-190.468	-0.284	-0.003
-693.426	250.461	-0.127	0.216
-692.412	164.787	0.184	-0.259
-691.397	-200.000	-0.050	0.236
-690.383	-200.000	0.010	-0.146
-689.368	-2.519	-0.129	0.090
-688.354	145.118	0.201	-0.269
-687.339	299.845	0.050	-0.092
-686.324	490.639	0.049	0.112
-685.310	-8.455	-0.067	0.045
-684.295	-78.655	0.085	0.029
-683.281	185.515	0.117	-0.174
-682.266	583.735	-0.072	0.176
-681.251	93.417	0.046	0.052
-680.237	626.062	0.085	-0.213
-679.222	-107.171	-0.373	0.082
-678.208	716.413	0.107	0.284
-677.193	-83.153	-0.285	0.092
-676.178	299.919	0.059	-0.108
-675.164	-200.000	-0.049	0.221
-674.149	-200.000	0.028	0.237
-673.135	75.336	0.099	-0.105
-672.120	800.000	-0.086	0.315
-671.105	451.811	-0.088	0.194
-670.091	-98.148	0.228	-0.059
-669.076	617.141	0.028	-0.069
-668.062	-63.418	-0.318	-0.131
-667.047	-103.800	0.189	-0.044
-666.032	-85.902	-0.219	-0.068
-665.018	-28.033	-0.314	-0.182
-664.003	-99.512	-0.221	0.056
-662.989	-145.550	0.101	0.009
-661.974	800.000	-0.085	0.301
-660.959	-87.519	-0.087	-0.026
-659.945	-68.949	-0.103	-0.040
-658.930	367.911	-0.170	0.342
-657.916	-200.000	-0.037	-0.255
-656.901	-200.000	-0.006	0.224
-655.886	-86.538	-0.399	0.122
-654.872	40.036	-0.087	-0.078
-653.857	-82.699	-0.362	-0.117
-652.843	-9.207	0.141	-0.094
-651.828	-138.673	0.236	-0.026
-650.814	-61.917	0.311	0.130
-649.799	48.693	-0.083	0.078
-648.784	210.203	0.049	0.076
-647.770	-90.692	-0.206	-0.059
-646.755	287.497	0.037	-0.067
-645.741	-116.719	0.290	0.053
-644.726	-145.259	-0.204	0.018
-643.711	-200.000	0.010	0.214
-642.697	-124.143	-0.082	0.013
-641.682	157.822	0.170	-0.235
-640.668	-200.000	-0.022	-0.168
-639.653	800.000	-0.078	-0.253
-638.638	244.194	-0.054	-0.091
-637.624	297.676	0.202	0.371
-636.609	349.513	0.093	-0.184
-635.595	450.519	-0.044	-0.096
-634.580	-66.122	0.185	-0.074
-633.565	-34.466	0.054	-0.029
-632.551	35.382	0.170	-0.149
-631.536	-200.000	-0.059	0.262
-630.522	-139.232	0.242	-0.026
-629.507	-200.000	0.016	-0.312
-628.492	-200.000	-0.002	-0.043
-627.478	512.735	0.095	-0.222
-626.463	-64.893	-0.303	-0.122
-625.449	800.000	0.114	0.378
-624.434	133.115	0.079	0.102
-623.419	-109.323	0.050	-0.011
-622.405	-96.255	0.264	0.070
-621.390	42.903	-0.116	-0.106
-620.376	-14.373	-0.083	-0.053
-619.361	-94.813	0.422	0.114
-618.346	-200.000	-0.001	-0.260
-617.332	800.000	0.066	0.249
-616.317	-55.163	0.102	0.046
-615.303	539.839	-0.140	-0.333
-614.288	-81.721	0.147	-0.048
-613.273	473.358	0.096	0.215
-612.259	-174.621	-0.314	-0.009
-611.244	-200.000	-0.022	0.160
-610.230	-200.000	0.020	-0.149
-609.215	-200.000	0.003	-0.164
-608.201	-125.316	-0.247	-0.038
-607.186	-30.685	-0.076	-0.043
-606.171	-0.696	-0.246	0.174
-605.157	-0.295	-0.163	-0.115
-604.142	-109.272	0.049	-0.010
-603.128	-58.420	0.082	-0.036
-602.113	49.089	0.166	0.156
-601.098	-166.371	-0.263	0.011
-600.084	800.000	-0.065	0.228
-599.069	800.000	-0.114	0.314
-598.055	91.707	0.298	0.334
-597.040	800.000	0.057	0.249
-596.025	-92.243	-0.280	0.079
-595.011	-76.966	-0.201	-0.070
-593.996	-139.467	0.145	-0.015
-592.982	278.556	0.043	-0.077
-591.967	40.022	-0.038	-0.034
-590.952	-98.160	-0.203	0.052
-589.938	461.555	0.179	0.397
-588.923	648.796	0.072	-0.183
-587.909	-69.223	-0.022	-0.008
-586.894	800.000	0.072	0.312
-585.879	320.032	-0.291	-0.550
-584.865	133.922	0.087	-0.112
-583.850	190.985	0.104	0.156
-582.836	-115.445	0.215	-0.040
-581.821	72.789	-0.136	0.142
-580.806	326.178	-0.112	0.213
-579.792	546.543	-0.073	-0.174
-578.777	-149.604	-0.045	-0.004
-577.763	51.843	-0.290	-0.275
-576.748	-200.000	0.020	0.127
-575.733	7.009	-0.128	0.095
-574.719	172.399	-0.336	0.481
-573.704	-107.822	0.053	-0.011
-572.690	-200.000	-0.038	0.187
-571.675	172.192	-0.150	0.215
-570.661	17.453	0.224	0.177
-569.646	94.034	0.060	0.068
-568.631	534.849	0.024	-0.058
-567.617	-104.107	-0.169	-0.039
-566.602	-200.000	0.063	0.333
-565.588	-200.000	0.007	0.038
-564.573	16.465	0.096	-0.076
-563.558	363.365	-0.018	0.036
-562.544	-18.231	-0.145	0.090
-561.529	-39.886	0.224	0.116
-560.515	800.000	0.006	0.025
-559.500	363.766	-0.075	-0.151
-558.485	72.906	-0.445	0.462
-557.471	75.013	-0.130	-0.136
-556.456	-96.273	0.146	0.038
-555.442	-72.959	-0.224	0.082
-554.427	-16.650	-0.239	-0.150
-553.412	800.000	-0.079	-0.280
-552.398	-80.192	0.114	0.038
-551.383	-115.615	-0.328	0.061
-550.369	-148.656	-0.078	0.006
-549.354	-11.915	-0.274	0.178
-548.339	50.255	0.081	-0.076
-547.325	-200.000	0.018	0.143
-546.310	-151.789	-0.252	-0.018
-545.296	-149.375	-0.385	0.030
-544.281	-200.000	-0.019	0.348
-543.266	-135.681	0.175	-0.021
-542.252	-200.000	-0.017	-0.419
-541.237	-40.084	-0.222	-0.115
-540.223	-200.000	0.011	-0.136
-539.208	-62.693	-0.210	0.087
-538.193	-74.449	-0.281	-0.101
-537.179	800.000	0.128	0.356
-536.164	-57.895	0.400	0.174
-535.150	-200.000	-0.082	0.426
-534.135	-95.033	0.087	-0.023
-533.121	12.626	-0.341	0.262
-532.106	-24.239	0.150	-0.089
-531.091	-58.346	0.158	-0.068
-530.077	-41.376	0.407	0.208
-529.062	119.205	-0.121	-0.148
-528.048	-118.082	-0.019	-0.003
-527.033	-70.575	0.123	0.046
-526.018	800.000	-0.049	-0.184
-525.004	-140.139	-0.416	0.043
-523.989	800.000	0.029	0.079
-522.975	-119.482	0.056	-0.010
-521.960	574.468	0.087	-0.212
-520.945	800.000	-0.146	-0.471
-519.931	475.946	0.114	-0.255
-518.916	173.864	0.174	0.250
-517.902	117.702	-0.089	-0.108
-516.887	-31.779	0.210	-0.117
-515.872	-71.650	-0.154	-0.057
-514.858	-49.522	-0.148	0.070
-513.843	30.420	0.230	0.195
-512.829	-114.760	-0.270	-0.051
-511.814	-15.793	-0.037	0.023
-510.799	-56.045	0.144	0.064
-509.785	-7.265	-0.312	-0.210
-508.770	724.921	0.090	0.239
-507.756	-139.662	-0.223	-0.024
-506.741	-96.419	0.312	0.082
-505.726	-200.000	0.026	0.154
-504.712	470.715	-0.102	0.229
-503.697	-40.278	-0.352	0.182
-502.683	-117.338	0.394	0.071
-501.668	59.890	0.134	-0.131
-500.653	800.000	-0.008	-0.025
-499.639	-96.194	0.275	0.072
-498.624	-200.000	0.056	-0.425
-497.610	144.057	-0.127	-0.167
-496.595	-93.403	0.304	0.084
-495.581	143.576	-0.058	0.077
-494.566	-63.188	-0.406	-0.166
-493.551	-200.000	-0.006	0.246
-492.537	800.000	0.085	0.302
-491.522	82.462	-0.128	0.138
-490.508	-29.952	-0.389	-0.220
-489.493	-45.193	0.148	-0.073
-488.478	776.891	-0.104	0.282
-487.464	-200.000	-0.062	-0.492
-486.449	-200.000	-0.012	-0.153
-485.435	32.769	0.215	0.185
-484.420	-155.911	-0.196	0.012
-483.405	232.034	-0.041	-0.066
-482.391	-200.000	-0.041	-0.207
-481.376	15.642	-0.350	-0.273
-480.362	-19.261	0.180	-0.111
-479.347	-118.373	0.399	0.070
-478.332	164.841	0.164	0.229
-477.318	433.084	-0.167	-0.359
-476.303	-138.062	0.293	-0.032
-475.289	36.069	0.097	-0.085
-474.274	800.000	-0.069	-0.223
-473.259	-34.880	0.243	0.131
-472.245	-149.884	0.098	-0.008
-471.230	107.851	-0.184	-0.217
-470.216	442.309	0.140	-0.305
-469.201	37.438	-0.027	-0.024
-468.186	-200.000	0.022	-0.220
-467.172	800.000	-0.174	-0.529
-466.157	-200.000	0.051	-0.293
-465.143	-125.539	-0.110	-0.017
-464.128	-76.900	0.328	0.114
-463.113	79.551	-0.168	-0.179
-462.099	-7.476	0.196	0.131
-461.084	-200.000	0.008	0.051
-460.070	-80.504	-0.276	0.091
-459.055	115.837	-0.112	-0.135
-458.040	-10.785	-0.098	-0.064
-457.026	6.249	-0.078	-0.057
-456.011	138.669	0.212	0.276
-454.997	-41.855	0.308	-0.157
-453.982	307.167	-0.078	-0.144
-452.968	-60.323	-0.204	-0.086
-451.953	-25.156	-0.176	-0.103
-450.938	-62.454	-0.297	-0.122
-449.924	4.348	0.152	-0.110
-448.909	51.917	-0.166	0.157
-447.895	50.762	-0.255	0.239
-446.880	-17.748	-0.240	-0.149
-445.865	4.771	-0.238	-0.173
-444.851	292.305	-0.174	0.314
-443.836	-94.720	0.097	0.026
-442.822	-28.895	-0.286	0.163
-441.807	-75.794	0.249	-0.087
-440.792	377.849	0.153	0.309
-439.778	-200.000	-0.001	-0.065
-438.763	161.872	-0.151	0.209
-437.749	-150.909	-0.161	-0.012
-436.734	800.000	0.008	-0.035
-435.719	-200.000	-0.020	0.135
-434.705	-200.000	-0.046	0.342
-433.690	-112.985	0.278	-0.054
-432.676	800.000	0.033	-0.104
-431.661	0.504	-0.284	0.201
-430.646	303.907	0.198	0.364
-429.632	491.226	0.186	-0.422
-428.617	669.906	0.087	-0.224
-427.603	106.324	0.196	-0.230
-426.588	-84.104	0.140	-0.044
-425.573	-200.000	0.050	0.463
-424.559	90.827	0.316	0.350
-423.544	-107.519	0.164	0.036
-422.530	-109.007	-0.249	0.052
-421.515	-186.179	0.124	0.002
-420.500	-200.000	-0.008	-0.213
-419.486	-188.831	0.172	-0.002
-418.471	-125.272	0.077	-0.012
-417.457	-96.647	-0.296	0.077
-416.442	800.000	0.020	-0.082
-415.428	39.145	-0.086	-0.076
-414.413	-200.000	0.011	0.064
-413.398	-200.000	0.029	0.195
-412.384	-200.000	-0.069	0.331
-411.369	-26.128	0.041	-0.024
-410.355	-200.000	-0.024	-0.206
-409.340	-75.354	-0.173	0.061
-408.325	-200.000	-0.032	-0.172
-407.311	414.023	0.069	0.145
-406.296	37.711	0.371	-0.325
-405.282	-200.000	-0.055	0.279
-404.267	-21.329	0.170	-0.103
-403.252	-61.665	-0.294	0.122
-402.238	7.900	-0.072	-0.054
-401.223	-4.744	-0.253	-0.173
-400.209	21.214	-0.171	0.138
-399.194	-136.686	0.195	-0.022
-398.179	-200.000	0.014	0.185
-397.165	-86.169	0.290	0.088
-396.150	-200.000	0.056	0.323
-395.136	82.889	0.154	-0.165
-394.121	-28.137	0.087	0.050
-393.106	383.316	0.082	0.167
-392.092	567.663	-0.060	0.144
-391.077	99.653	0.150	0.171
-390.063	800.000	0.044	-0.126
-389.048	-159.815	0.120	-0.007
-388.033	73.637	-0.198	-0.205
-387.019	76.828	-0.107	-0.112
-386.004	125.641	0.195	0.243
-384.990	331.994	0.115	-0.220
-383.975	-50.228	-0.160	0.075
-382.960	-200.000	0.007	-0.033
-381.946	-110.832	-0.238	0.048
-380.931	-200.000	0.006	0.370
-379.917	381.010	-0.153	-0.309
-378.902	73.301	-0.062	-0.064
-377.888	-171.326	0.064	0.002
-376.873	-67.950	-0.276	-0.106
-375.858	-200.000	-0.015	0.201
-374.844	-75.218	0.430	-0.152
-373.829	800.000	0.071	-0.281
-372.815	74.024	0.046	-0.047
-371.800	-200.000	-0.005	0.344
-370.785	192.617	-0.091	-0.135
-369.771	800.000	-0.010	0.040
-368.756	800.000	-0.037	-0.132
-367.742	117.083	0.196	-0.238
-366.727	316.361	0.160	0.298
-365.712	-36.017	0.309	-0.165
-364.698	-16.861	-0.083	-0.052
-363.683	201.993	-0.159	-0.242
-362.669	-159.888	-0.203	0.011
-361.654	193.070	-0.231	0.345
-360.639	-200.000	0.002	0.240
-359.625	759.131	-0.047	-0.126
-358.610	-24.356	-0.202	0.119
-357.596	-200.000	-0.009	-0.174
-356.581	-65.632	-0.353	-0.140
-355.566	230.475	-0.083	-0.134
-354.552	800.000	-0.021	-0.084
-353.537	-7.730	0.138	-0.092
-352.523	-136.464	0.131	-0.015
-351.508	318.601	0.095	-0.177
-350.493	-148.073	0.403	0.033
-349.479	800.000	-0.091	-0.249
-348.464	22.074	-0.061	0.049
-347.450	-200.000	0.001	-0.075
-346.435	359.218	0.110	-0.216
-345.420	-121.708	0.411	-0.067
-344.406	-76.515	-0.246	0.085
-343.391	177.102	0.165	0.237
-342.377	-200.000	-0.048	0.311
-341.362	559.531	-0.104	-0.247
-340.348	185.861	0.227	-0.332
-339.333	-200.000	-0.007	0.080
-338.318	265.401	-0.107	0.184
-337.304	-200.000	0.009	0.145
-336.289	33.551	0.215	-0.185
-335.275	-190.635	-0.151	-0.002
-334.260	-117.229	-0.179	-0.032
-333.245	-39.808	0.102	-0.053
-332.231	25.608	-0.196	-0.161
-331.216	800.000	0.033	0.101
-330.202	391.640	-0.119	0.243
-329.187	-46.108	-0.233	0.113
-328.172	152.269	0.041	0.054
-327.158	64.551	0.115	-0.114
-326.143	234.708	0.096	0.156
-325.129	-104.804	-0.252	0.057
-324.114	58.175	-0.031	-0.030
-323.099	800.000	0.041	0.123
-322.085	-200.000	-0.020	0.248
-321.070	197.636	0.049	0.074
-320.056	-200.000	-0.002	0.220
-319.041	248.926	-0.113	0.189
-318.026	60.974	0.264	0.258
-317.012	112.474	-0.209	0.249
-315.997	-200.000	0.028	-0.264
-314.983	-200.000	0.051	0.253
-313.968	-200.000	0.020	0.115
-312.953	146.727	0.290	-0.384
-311.939	-10.832	0.116	-0.076
-310.924	-112.926	0.137	-0.027
-309.910	246.876	-0.174	-0.290
-308.895	89.203	0.215	-0.236
-307.880	-114.228	-0.178	-0.034
-306.866	-200.000	0.000	0.051
-305.851	-110.087	-0.106	-0.022
-304.837	42.472	0.149	-0.134
-303.822	288.527	0.113	-0.201
-302.807	-179.733	0.145	-0.003
-301.793	44.811	-0.161	0.146
-300.778	-16.273	0.014	0.009
-299.764	800.000	0.117	-0.321
-298.749	800.000	-0.044	0.161
-297.735	-200.000	0.065	0.317
-296.720	478.008	0.022	-0.050
-295.705	800.000	0.075	0.247
-294.691	27.191	0.315	0.261
-293.676	800.000	0.087	-0.374
-292.662	336.065	0.058	0.111
-291.647	475.310	0.066	0.147
-290.632	556.990	0.043	0.101
-289.618	106.683	0.291	-0.339
-288.603	21.865	0.202	-0.162
-287.589	21.208	-0.221	-0.177
-286.574	-109.540	0.216	-0.045
-285.559	377.181	0.048	0.097
-284.545	111.845	0.152	-0.180
-283.530	-132.907	-0.149	-0.019
-282.516	135.640	-0.039	-0.050
-281.501	-159.128	0.040	-0.002
-280.486	-133.159	-0.254	0.032
-279.472	-85.554	0.125	-0.038
-278.457	231.882	0.143	0.230
-277.443	141.565	0.136	0.177
-276.428	202.058	0.159	0.241
-275.413	800.000	0.044	0.148
-274.399	-112.280	-0.057	-0.011
-273.384	-11.069	0.155	-0.101
-272.370	5.563	0.298	0.216
-271.355	-200.000	-0.002	-0.103
-270.340	-17.166	0.107	-0.066
-269.326	36.768	-0.104	-0.091
-268.311	2.792	-0.019	-0.013
-267.297	-125.576	-0.295	0.044
-266.282	46.621	-0.088	0.081
-265.267	-92.115	-0.216	0.060
-264.253	168.971	0.319	0.448
-263.238	29.185	0.169	0.141
-262.224	-200.000	0.004	0.273
-261.209	-67.077	-0.043	0.017
-260.195	-80.744	0.238	0.078
-259.180	-200.000	0.013	0.166
-258.165	-44.251	-0.326	-0.161
-257.151	129.352	-0.166	-0.208
-256.136	21.029	-0.193	0.154
-255.122	-37.992	0.075	0.039
-254.107	800.000	-0.138	-0.386
-253.092	-61.638	-0.025	0.010
-252.078	-200.000	0.000	-0.361
-251.063	800.000	-0.112	0.319
-250.049	160.517	0.193	0.265
-249.034	-109.885	-0.202	0.042
-248.019	-86.533	0.116	-0.035
-247.005	-105.615	0.295	-0.066
-245.990	82.650	0.076	0.081
-244.976	-0.627	0.007	0.005
-243.961	-23.867	-0.183	-0.108
-242.946	56.208	-0.194	0.185
-241.932	177.449	-0.214	-0.306
-240.917	157.230	-0.027	0.037
-239.903	149.425	-0.335	-0.445
-238.888	-48.886	0.213	0.100
-237.873	36.222	0.350	0.303
-236.859	-14.400	0.197	0.124
-235.844	800.000	-0.052	0.181
-234.830	297.591	0.084	0.151
-233.815	-20.711	-0.235	0.142
-232.800	-200.000	-0.009	0.094
-231.786	-63.228	-0.273	0.110
-230.771	-72.626	0.131	0.047
-229.757	-143.489	-0.023	0.002
-228.742	235.923	0.101	0.164
-227.727	-27.386	-0.117	-0.067
-226.713	96.808	-0.065	-0.073
-225.698	-78.405	0.100	-0.034
-224.684	-40.722	-0.130	0.066
-223.669	-170.985	0.323	-0.011
-222.655	-174.550	-0.297	0.008
-221.640	34.892	0.079	-0.068
-220.625	-200.000	0.001	-0.221
-219.611	189.266	-0.126	-0.185
-218.596	800.000	-0.126	-0.369
-217.582	33.166	-0.128	0.109
-216.567	-123.882	-0.147	-0.023
-215.552	-200.000	-0.009	-0.049
-214.538	-200.000	0.071	-0.308
-213.523	362.684	0.229	0.451
-212.509	-200.000	0.001	0.071
-211.494	-67.266	-0.140	0.054
-210.479	50.635	0.045	0.042
-209.465	-200.000	0.028	-0.144
-208.450	-124.479	0.259	-0.039
-207.436	188.032	-0.056	0.082
-206.421	55.704	0.153	-0.145
-205.406	-200.000	0.079	-0.400
-204.392	-36.677	-0.016	-0.008
-203.377	139.141	-0.076	-0.098
-202.363	-200.000	0.040	-0.192
-201.348	-73.614	0.188	-0.067
-200.333	69.574	0.106	0.107
-199.319	-102.410	0.145	0.034
-198.304	57.956	0.129	0.124
-197.290	800.000	0.022	0.071
-196.275	-46.792	0.217	-0.104
-195.260	-90.483	-0.371	-0.105
-194.246	800.000	-0.080	-0.235
-193.231	384.523	0.112	-0.227
-192.217	-40.544	0.169	-0.086
-191.202	-79.632	-0.074	-0.024
-190.187	-82.432	-0.234	-0.074
-189.173	31.541	-0.220	-0.186
-188.158	117.821	0.167	0.202
-187.144	352.331	0.121	-0.236
-186.129	39.127	0.257	0.226
-185.114	-200.000	-0.030	-0.129
-184.100	91.945	-0.164	-0.181
-183.085	-75.202	0.025	-0.009
-182.071	-196.423	-0.358	0.002
-181.056	251.272	0.068	-0.114
-180.042	-48.565	-0.561	-0.264
-179.027	349.601	-0.043	-0.083
-178.012	-120.274	0.386	0.064
-176.998	800.000	-0.061	-0.248
-175.983	-58.500	0.272	0.116
-174.969	800.000	-0.092	-0.272
-173.954	52.603	0.106	0.099
-172.939	-2.765	-0.300	-0.205
-171.925	800.000	0.023	-0.070
-170.910	-58.276	0.352	0.150
-169.896	198.408	0.179	-0.268
-168.881	-168.581	0.130	-0.005
-167.866	-116.211	-0.456	-0.083
-166.852	-200.000	-0.092	0.614
-165.837	-19.777	0.232	-0.140
-164.823	138.315	-0.096	-0.124
-163.808	480.867	-0.044	-0.098
-162.793	126.554	0.139	-0.172
-161.779	240.418	-0.117	-0.192
-160.764	800.000	-0.066	-0.202
-159.750	73.713	-0.040	0.041
-158.735	139.799	0.112	0.145
-157.720	54.377	0.379	0.357
-156.706	517.170	-0.090	-0.207
-155.691	-59.837	-0.114	-0.048
-154.677	-66.685	-0.231	0.090
-153.662	-139.557	0.587	0.061
-152.647	-200.000	0.006	0.212
-151.633	166.717	0.091	-0.126
-150.618	148.193	-0.182	0.240
-149.604	-35.352	0.077	0.041
-148.589	-200.000	-0.011	-0.080
-147.574	555.462	0.080	-0.188
-146.560	-78.927	-0.295	-0.098
-145.545	800.000	-0.013	-0.035
-144.531	-4.453	-0.104	0.070
-143.516	-130.573	-0.215	0.028
-142.502	800.000	0.038	0.106
-141.487	800.000	-0.080	0.221
-140.472	134.151	0.081	-0.103
-139.458	-200.000	0.081	0.379
-138.443	-86.211	0.268	0.081
-137.429	-93.114	0.444	-0.121
-136.414	-119.624	0.213	0.036
-135.399	485.971	-0.101	-0.225
-134.385	8.680	0.263	-0.194
-133.370	-20.814	-0.084	-0.050
-132.356	187.597	0.123	-0.180
-131.341	12.870	-0.231	-0.175
-130.326	246.723	0.089	0.146
-129.312	800.000	0.033	-0.121
-128.297	-100.085	0.133	-0.032
-127.283	108.151	-0.058	0.068
-126.268	-87.158	-0.067	-0.020
-125.253	-200.000	-0.003	-0.119
-124.239	-200.000	0.017	0.207
-123.224	616.984	-0.112	-0.275
-122.210	245.060	-0.084	0.139
-121.195	-200.000	0.016	-0.316
-120.180	800.000	-0.126	0.353
-119.166	-57.305	-0.100	-0.043
-118.151	-82.338	-0.170	-0.054
-117.137	115.931	-0.247	0.296
-116.122	-200.000	0.033	0.173
-115.107	-10.932	0.140	-0.090
-114.093	800.000	0.031	0.091
-113.078	34.404	0.206	0.176
-112.064	-96.768	-0.212	-0.055
-111.049	-99.769	-0.034	0.008
-110.034	-200.000	0.059	0.319
-109.020	-124.467	0.189	-0.029
-108.005	236.194	0.257	0.415
-106.991	-18.040	0.264	0.162
-105.976	-47.176	-0.090	0.043
-104.962	487.489	-0.096	0.213
-103.947	-124.583	-0.502	-0.076
-102.932	74.784	0.101	0.103
-101.918	204.964	-0.096	0.146
-100.903	-41.091	-0.319	0.161
-99.889	-200.000	0.052	-0.539
-98.874	249.178	0.092	0.152
-97.859	-89.309	-0.093	0.027
-96.845	-200.000	0.034	-0.196
-95.830	10.670	0.502	-0.374
-94.816	-76.663	0.130	-0.045
-93.801	800.000	-0.097	-0.316
-92.786	-200.000	-0.007	0.196
-91.772	301.975	-0.083	0.150
-90.757	-67.979	-0.381	0.145
-89.743	-84.283	0.115	0.036
-88.728	50.911	-0.163	0.151
-87.713	-80.982	0.343	-0.111
-86.699	-200.000	-0.025	0.229
-85.684	5.629	-0.080	0.058
-84.670	-26.271	0.134	0.077
-83.655	-145.665	0.146	-0.013
-82.640	800.000	0.145	-0.421
-81.626	-60.177	0.214	0.089
-80.611	800.000	0.122	0.373
-79.597	-112.033	0.157	-0.031
-78.582	294.531	0.054	-0.096
-77.567	-200.000	0.065	0.325
-76.553	-61.180	-0.267	-0.110
-75.538	122.169	-0.077	-0.094
-74.524	800.000	0.020	-0.077
-73.509	-156.925	0.193	-0.012
-72.494	41.502	-0.060	-0.053
-71.480	-200.000	0.009	-0.050
-70.465	800.000	-0.084	-0.245
-69.451	-176.675	0.287	0.007
-68.436	-100.378	0.144	0.035
-67.422	-200.000	0.013	0.211
-66.407	-158.842	-0.352	-0.020
-65.392	-62.080	-0.264	-0.107
-64.378	-200.000	0.007	0.082
-63.363	-56.072	0.167	0.073
-62.349	54.428	0.283	-0.265
-61.334	67.544	-1.122	-1.118
-60.319	25.185	0.956	0.774
-59.305	276.224	-0.646	-1.118
-58.290	187.479	0.884	1.286
-57.276	-200.000	0.189	1.474
-56.261	-200.000	136.474	629.425
-55.246	329.196	1657.505	3107.203
-54.232	134.183	2797.965	3535.511
-53.217	82.338	2170.861	2296.497
-52.203	30.253	1599.990	1331.873
-51.188	22.486	1349.688	1076.220
-50.173	20.562	1314.603	1036.739
-49.159	47.032	1390.554	1260.969
-48.144	42.834	1398.887	1242.628
-47.130	22.605	1346.223	1074.010
-46.115	19.653	1327.422	1041.210
-45.100	19.515	1321.618	1035.786
-44.086	19.448	1319.657	1033.806
-43.071	19.373	1317.640	1031.735
-42.057	19.379	1314.683	1029.416
-41.042	19.400	1313.696	1028.729
-40.027	19.439	1312.229	1027.771
-39.013	19.391	1310.233	1025.881
-37.998	19.453	1308.614	1024.942
-36.984	19.428	1306.657	1023.219
-35.969	19.563	1304.712	1022.456
-34.954	19.547	1303.310	1021.224
-33.940	19.508	1302.060	1019.970
-32.925	19.589	1300.473	1019.164
-31.911	19.511	1299.320	1017.760
-30.896	19.703	1297.432	1017.371
-29.881	19.687	1296.722	1016.679
-28.867	19.651	1295.104	1015.160
-27.852	19.601	1293.772	1013.783
-26.838	19.760	1291.834	1013.154
-25.823	19.704	1290.348	1011.621
-24.809	19.535	1290.078	1010.383
-23.794	19.516	1288.781	1009.216
-22.779	19.499	1287.414	1008.007
-21.765	19.650	1285.469	1007.320
-20.750	19.592	1284.907	1006.503
-19.736	19.432	1283.346	1004.311
-18.721	19.560	1282.020	1003.979
-17.706	19.416	1281.040	1002.331
-16.692	19.414	1279.411	1001.007
-15.677	19.519	1279.011	1001.266
-14.663	19.473	1277.522	999.794
-13.648	19.544	1275.699	998.739
-12.633	19.399	1275.673	997.836
-11.619	19.450	1274.223	996.956
-10.604	19.480	1273.993	996.910
-9.590	19.559	1272.796	996.389
-8.575	19.377	1271.548	994.327
-7.560	19.435	1270.921	994.132
-6.546	19.408	1270.082	993.282
-5.531	19.394	1268.847	992.191
-4.517	19.388	1268.428	991.790
-3.502	19.484	1267.670	991.711
-2.487	19.429	1266.867	990.729
-1.473	19.467	1262.305	987.340
-0.458	18.074	1247.809	968.077
0.556	14.018	1232.879	933.974
1.571	10.803	1241.520	922.218
2.586	10.315	1257.530	931.222
3.600	10.429	1244.639	922.241
4.615	7.837	1172.783	855.011
5.629	2.877	1103.656	779.413
6.644	0.740	1088.071	757.638
7.659	0.527	1086.122	755.147
8.673	0.423	1085.836	754.362
9.688	0.540	1084.246	753.771
10.702	0.694	1081.647	752.669
11.717	3.742	1084.231	769.596
12.731	9.877	1092.616	806.199
13.746	15.185	1099.682	837.954
14.761	17.028	1102.113	848.960
15.775	16.471	1100.070	844.531
16.790	15.455	1098.613	838.267
17.804	14.787	1096.649	833.364
18.819	14.364	1096.434	831.013
19.834	14.227	1094.839	829.050
20.848	13.971	1094.163	827.192
21.863	13.866	1092.800	825.565
22.877	13.616	1092.251	823.832
23.892	13.525	1091.404	822.671
24.907	13.482	1091.005	822.084
25.921	13.515	1090.093	821.487
26.936	13.628	1089.221	821.315
27.950	13.636	1088.379	820.649
28.965	13.657	1087.014	819.650
29.980	13.819	1085.124	818.951
30.994	13.742	1084.767	818.231
32.009	13.778	1083.295	817.227
33.023	13.675	1082.583	816.112
34.038	13.721	1081.767	815.650
35.053	13.813	1080.651	815.189
36.067	13.712	1080.057	814.171
37.082	13.719	1078.936	813.287
38.096	13.722	1078.530	812.922
39.111	13.667	1077.813	812.045
40.126	13.645	1076.123	810.592
41.140	13.532	1075.012	809.132
42.155	13.591	1073.967	808.561
43.169	13.557	1073.326	807.838
44.184	13.680	1071.774	807.198
45.199	13.542	1071.108	805.954
46.213	13.623	1069.645	805.174
47.228	13.652	1068.550	804.421
48.242	13.660	1067.884	803.888
49.257	13.734	1066.430	803.080
50.271	13.703	1065.792	802.380
51.286	13.665	1065.293	801.749
52.301	13.831	1063.826	801.376
53.315	13.649	1062.664	799.551
54.330	13.597	1061.609	798.435
55.344	13.581	1061.404	798.136
56.359	13.665	1059.816	797.275
57.374	13.599	1059.297	796.494
58.388	13.622	1058.081	795.620
59.403	13.585	1057.186	794.702
60.417	13.554	1056.961	794.312
61.432	13.458	1055.899	792.985
62.447	13.471	1055.208	792.458
63.461	13.483	1054.209	791.692
64.476	13.538	1053.295	791.199
65.490	13.399	1052.953	790.208
66.505	13.705	1051.288	790.347
67.520	13.628	1050.794	789.541
68.534	13.467	1050.378	788.391
69.549	13.546	1049.637	788.143
70.563	13.583	1048.582	787.457
71.578	13.491	1048.203	786.664
72.593	13.496	1047.104	785.792
73.607	13.489	1046.038	784.892
74.622	13.400	1046.321	784.611
75.636	13.381	1045.290	783.681
76.651	13.444	1044.603	783.391
77.666	13.480	1043.668	782.792
78.680	13.556	1043.015	782.591
79.695	13.372	1042.372	781.170
80.709	13.515	1041.421	781.067
81.724	13.569	1040.987	780.927
82.739	13.614	1040.271	780.531
83.753	13.544	1039.462	779.526
84.768	13.671	1038.379	779.243
85.782	13.727	1037.357	778.666
86.797	13.650	1037.009	777.977
87.812	13.716	1035.594	777.157
88.826	13.552	1035.105	775.949
89.841	13.703	1033.518	775.401
90.855	13.616	1033.238	774.713
91.870	13.752	1032.260	774.548
92.884	13.712	1031.378	773.628
93.899	13.768	1030.282	772.999
94.914	13.799	1029.317	772.352
95.928	13.901	1028.428	772.092
96.943	13.761	1027.818	770.916
97.957	13.714	1026.794	769.861
98.972	13.733	1025.860	769.181
99.987	13.800	1024.934	768.727
101.001	13.662	1023.954	767.286
102.016	13.733	1023.292	767.051
103.030	13.834	1022.063	766.530
104.045	13.727	1021.536	765.571
105.060	13.740	1020.471	764.766
106.074	13.723	1019.399	763.816
107.089	13.646	1018.273	762.552
108.103	13.704	1017.266	761.994
109.118	13.616	1016.682	761.087
110.133	13.674	1015.484	760.390
111.147	13.667	1014.886	759.842
112.162	13.525	1013.865	758.361
113.176	13.587	1013.103	758.006
114.191	13.644	1012.324	757.619
115.206	13.610	1011.722	756.941
116.220	13.748	1010.300	756.444
117.235	13.711	1009.446	755.567
118.249	13.658	1008.708	754.705
119.264	13.733	1007.608	754.157
120.279	13.670	1006.881	753.263
121.293	13.696	1006.193	752.796
122.308	13.707	1005.185	752.027
123.322	13.590	1004.617	751.004
124.337	13.718	1003.114	750.396
125.352	13.624	1002.072	749.125
126.366	13.466	1001.675	748.046
127.381	13.610	1000.307	747.610
128.395	13.626	999.356	746.901
129.410	13.756	998.019	746.423
130.424	13.661	997.465	745.517
131.439	13.756	996.701	745.304
132.454	13.763	995.732	744.548
133.468	13.673	994.925	743.476
134.483	13.711	993.683	742.649
135.497	13.631	993.258	741.911
136.512	13.708	992.109	741.330
137.527	13.719	991.463	740.831
138.541	13.700	990.531	739.981
139.556	13.763	990.328	740.047
140.570	13.761	989.536	739.381
141.585	13.936	988.216	739.106
142.600	13.831	987.318	737.904
143.614	13.973	986.278	737.694
144.629	13.921	986.146	737.296
145.643	13.835	985.271	736.195
146.658	13.865	983.999	735.313
147.673	13.904	983.230	734.847
148.687	13.750	982.597	733.630
149.702	13.881	981.407	733.251
150.716	13.804	980.618	732.259
151.731	13.887	979.956	732.064
152.746	13.854	979.609	731.597
153.760	13.934	978.528	731.075
154.775	13.952	978.367	730.971
155.789	13.990	977.660	730.545
156.804	13.938	977.065	729.805
157.819	14.024	976.272	729.527
158.833	14.028	975.469	728.883
159.848	14.038	974.522	728.154
160.862	13.948	974.040	727.332
161.877	14.027	972.883	726.749
162.892	14.024	971.705	725.792
163.906	14.014	971.019	725.173
164.921	13.995	970.588	724.705
165.935	13.984	969.160	723.526
166.950	14.005	968.139	722.792
167.964	14.032	967.922	722.681
168.979	14.010	966.574	721.515
169.994	14.177	965.397	721.296
171.008	14.025	965.329	720.522
172.023	14.088	964.234	719.917
173.037	14.008	963.408	718.892
174.052	14.073	962.872	718.708
175.067	14.141	961.991	718.281
176.081	14.092	961.367	717.538
177.096	14.053	960.961	717.004
178.110	14.012	960.312	716.279
179.125	14.125	959.739	716.276
180.140	14.228	959.020	716.118
181.154	14.181	958.681	715.599
182.169	14.216	958.138	715.284
183.183	14.334	957.244	715.057
184.198	14.232	956.567	714.052
185.213	14.249	956.082	713.701
186.227	14.143	955.642	712.854
187.242	14.299	954.650	712.719
188.256	14.216	954.301	712.039
189.271	14.372	953.444	712.004
190.286	14.250	952.772	710.916
191.300	14.315	951.628	710.279
192.315	14.001	951.412	708.713
193.329	14.170	950.711	708.851
194.344	14.176	950.062	708.330
195.359	14.350	949.231	708.388
196.373	14.290	948.495	707.520
197.388	14.438	948.076	707.772
198.402	14.477	947.499	707.448
199.417	14.545	946.821	707.166
200.432	14.602	946.159	706.849
201.446	14.478	945.878	706.053
202.461	14.539	945.722	706.132
203.475	14.659	944.613	705.750
204.490	14.614	943.438	704.620
205.504	14.507	943.000	703.776
206.519	14.540	942.260	703.301
207.534	14.434	941.719	702.391
208.548	14.482	941.149	702.106
209.563	14.550	940.634	701.943
210.577	14.588	939.767	701.393
211.592	14.632	939.281	701.155
212.607	14.674	938.115	700.400
213.621	14.668	937.534	699.878
214.636	14.613	936.579	698.874
215.650	14.737	936.014	698.907
216.665	14.837	935.100	698.581
217.680	14.737	934.676	697.783
218.694	14.645	934.179	696.966
219.709	14.792	933.203	696.793
220.723	14.835	932.302	696.235
221.738	14.750	932.059	695.641
222.753	14.834	930.892	695.057
223.767	14.788	930.895	694.805
224.782	14.887	929.916	694.423
225.796	14.832	929.794	694.042
226.811	14.895	929.049	693.685
227.826	14.911	927.772	692.739
228.840	14.898	927.857	692.687
229.855	14.758	927.054	691.447
230.869	14.923	925.570	690.960
231.884	14.940	925.160	690.663
232.899	14.858	924.694	689.916
233.913	15.039	923.526	689.729
234.928	14.927	922.957	688.782
235.942	14.856	922.837	688.341
236.957	14.802	922.336	687.682
237.972	14.996	921.290	687.638
238.986	14.939	920.727	686.924
240.001	14.942	920.240	686.512
241.015	14.929	919.246	685.655
242.030	14.997	918.537	685.347
243.045	15.032	918.115	685.115
244.059	15.038	917.347	684.507
245.074	14.988	917.094	684.050
246.088	14.972	916.449	683.443
247.103	14.969	915.605	682.743
248.117	15.125	915.371	683.144
249.132	15.220	914.293	682.666
250.147	15.298	913.458	682.297
251.161	15.121	913.254	681.367
252.176	15.225	912.499	681.166
253.190	15.399	911.481	681.053
254.205	15.300	911.153	680.344
255.220	15.338	910.396	679.874
256.234	15.314	909.672	679.174
257.249	15.370	909.038	678.869
258.263	15.296	908.359	678.001
259.278	15.462	907.285	677.810
260.293	15.368	907.039	677.185
261.307	15.449	906.775	677.256
262.322	15.446	905.765	676.431
263.336	15.553	905.010	676.237
264.351	15.513	904.243	675.445
265.366	15.564	903.621	675.123
266.380	15.616	903.278	675.018
267.395	15.599	902.113	674.018
268.409	15.557	901.395	673.255
269.424	15.552	900.410	672.437
270.439	15.513	899.831	671.790
271.453	15.585	899.276	671.605
272.468	15.544	899.261	671.370
273.482	15.622	898.512	671.065
274.497	15.593	897.815	670.369
275.512	15.586	897.528	670.066
276.526	15.667	896.922	669.877
277.541	15.712	896.400	669.607
278.555	15.894	895.691	669.745
279.570	15.787	895.011	668.751
280.585	15.737	894.262	667.933
281.599	15.778	893.211	667.252
282.614	15.758	892.598	666.657
283.628	15.768	892.147	666.297
284.643	15.906	891.485	666.291
285.657	15.685	891.446	665.330
286.672	15.844	890.305	665.048
287.687	15.783	889.892	664.438
288.701	15.848	888.988	663.962
289.716	15.850	888.597	663.619
290.730	15.865	887.880	663.083
291.745	15.981	887.030	662.845
292.760	15.951	886.863	662.543
293.774	15.881	886.036	661.594
294.789	16.036	885.480	661.727
295.803	15.956	884.501	660.625
296.818	16.015	883.593	660.119
297.833	16.063	882.743	659.613
298.847	16.029	882.556	659.283
299.862	15.953	882.171	658.638
300.876	16.010	881.416	658.239
301.891	16.114	880.690	658.047
302.906	16.077	880.329	657.574
303.920	16.133	879.600	657.188
304.935	16.281	878.891	657.176
305.949	16.284	878.513	656.846
306.964	16.372	877.595	656.446
307.979	16.328	877.133	655.869
308.993	16.235	876.835	655.228
310.008	16.308	875.957	654.798
311.022	16.218	875.426	653.994
312.037	16.230	874.888	653.582
313.052	16.208	874.239	652.953
314.066	16.385	873.420	652.965
315.081	16.329	873.313	652.614
316.095	16.302	872.797	652.065
317.110	16.457	871.801	651.863
318.125	16.366	871.604	651.306
319.139	16.225	871.125	650.346
320.154	16.263	870.629	650.067
321.168	16.214	870.056	649.391
322.183	16.247	869.719	649.210
323.197	16.261	869.056	648.710
324.212	16.412	868.396	648.741
325.227	16.344	867.925	648.072
326.241	16.382	867.217	647.629
327.256	16.292	866.568	646.744
328.270	16.374	866.298	646.799
329.285	16.343	865.554	646.069
330.300	16.360	864.908	645.595
331.314	16.298	864.633	645.094
332.329	16.539	863.725	645.279
333.343	16.590	863.198	645.023
334.358	16.557	862.713	644.476
335.373	16.521	862.498	644.122
336.387	16.624	862.374	644.365
337.402	16.592	861.762	643.730
338.416	16.607	861.569	643.584
339.431	16.652	860.963	643.247
340.446	16.603	860.601	642.735
341.460	16.827	859.912	643.013
342.475	16.747	859.421	642.285
343.489	16.806	859.224	642.302
344.504	16.636	859.102	641.510
345.519	16.814	858.442	641.637
346.533	16.817	857.836	641.138
347.548	16.833	857.009	640.523
348.562	16.640	856.714	639.518
349.577	16.828	855.853	639.528
350.592	16.811	855.349	639.029
351.606	16.737	854.658	638.177
352.621	16.832	853.771	637.817
353.635	16.834	853.296	637.414
354.650	16.728	852.990	636.730
355.665	16.841	852.267	636.559
356.679	16.893	851.487	636.113
357.694	16.962	850.518	635.591
358.708	16.871	850.040	634.839
359.723	16.827	850.032	634.610
360.738	17.001	848.975	634.416
361.752	17.009	848.472	634.016
362.767	17.037	847.576	633.396
363.781	17.022	847.234	633.028
364.796	17.231	846.456	633.169
365.810	17.069	846.552	632.579
366.825	17.205	845.853	632.507
367.840	17.339	845.175	632.441
368.854	17.250	844.821	631.793
369.869	17.224	844.480	631.382
370.883	17.259	844.332	631.347
371.898	17.229	843.737	630.735
372.913	17.258	843.470	630.587
373.927	17.339	842.894	630.403
374.942	17.269	842.442	629.749
375.956	17.379	841.698	629.545
376.971	17.385	841.286	629.202
377.986	17.370	841.153	628.989
379.000	17.417	840.658	628.738
380.015	17.532	839.566	628.290
381.029	17.341	839.602	627.557
382.044	17.361	839.087	627.191
383.059	17.461	838.469	627.043
384.073	17.376	837.876	626.231
385.088	17.524	837.073	626.119
386.102	17.473	836.585	625.512
387.117	17.442	835.983	624.891
388.132	17.404	835.210	624.118
389.146	17.387	835.004	623.846
390.161	17.583	834.463	624.106
391.175	17.566	833.809	623.501
392.190	17.430	833.490	622.707
393.205	17.417	833.079	622.297
394.219	17.531	832.625	622.322
395.234	17.429	831.922	621.369
396.248	17.570	831.655	621.627
397.263	17.427	831.393	620.856
398.278	17.600	830.933	621.088
399.292	17.470	830.777	620.441
400.307	17.434	830.136	619.776
401.321	17.435	829.967	619.602
402.336	17.672	828.655	619.428
403.350	17.756	828.309	619.420
404.365	17.663	828.237	618.974
405.380	17.686	827.572	618.504
406.394	17.625	826.928	617.748
407.409	17.894	826.423	618.289
408.423	17.729	826.409	617.628
409.438	17.764	825.933	617.344
410.453	17.704	825.379	616.659
411.467	17.896	824.854	616.907
412.482	17.964	824.079	616.515
413.496	17.871	824.067	616.118
414.511	17.903	823.959	616.097
415.526	17.865	823.562	615.609
416.540	17.815	822.790	614.797
417.555	17.976	822.603	615.183
418.569	17.952	822.147	614.701
419.584	18.101	821.414	614.635
420.599	18.037	821.038	614.068
421.613	115.411	1301.410	1491.755
422.628	100.153	1371.328	1491.821
