DTS Sentinel unit serial number:	SN413079Multiplexer serial number:	ORYXHardware model number:	OX4-SRSoftware version number:	ORYX F/W v4.00 Oryx Data Collector v3.7.2.0data status	okinstallation	princeton_trtdifferential loss correction	single-endedforward channel	channel 1reverse channel	N/Adate	2019/09/15time	13:46:35forward acquisition time	60.00reverse acquisition time	0.00gamma	496.2192k internal	0.2293k external	0.2293temperature offset calibration	0.9972default loss term (dB/km)	0.3790temperature slope calibration	1.0000multiplexer offset coefficient	1.0000multiplexer slope coefficient	1.0000fibre end	0.00T internal ref (°C)	38.03T ext. ref 1 (°C)	4.91T ext. ref 2 (°C)	35.20length (m)	temperature (°C)	Stokes	anti-Stokes-747.200	47.009	-0.108	-0.103
-746.185	284.171	0.034	0.063
-745.171	-64.115	-0.141	0.059
-744.156	-67.918	0.310	-0.124
-743.142	800.000	-0.057	-0.230
-742.127	66.428	-0.138	0.143
-741.112	-169.253	0.111	-0.004
-740.098	82.951	-0.317	0.353
-739.083	-41.160	-0.330	-0.174
-738.069	800.000	0.013	0.051
-737.054	-61.983	-0.064	-0.028
-736.039	200.169	-0.085	0.134
-735.025	-122.146	-0.247	-0.041
-734.010	26.005	0.054	0.046
-732.996	-47.178	-0.463	-0.231
-731.981	18.299	0.096	-0.079
-730.966	-121.920	0.063	-0.011
-729.952	-176.514	-0.050	-0.001
-728.937	-96.853	-0.179	0.048
-727.923	-136.509	0.096	0.011
-726.908	284.023	-0.139	0.256
-725.894	73.037	-0.067	0.071
-724.879	-39.551	-0.356	-0.191
-723.864	800.000	0.068	-0.217
-722.850	102.915	0.191	0.229
-721.835	-99.929	-0.293	0.075
-720.821	-85.353	0.310	0.099
-719.806	27.316	0.367	-0.315
-718.791	-153.612	-0.153	0.011
-717.777	331.755	-0.130	-0.256
-716.762	522.724	0.128	-0.307
-715.748	-58.936	-0.188	-0.083
-714.733	-76.194	0.132	-0.048
-713.718	-50.302	0.224	-0.108
-712.704	-1.067	-0.107	-0.077
-711.689	-97.549	-0.148	0.039
-710.675	239.075	0.093	-0.158
-709.660	-82.979	0.268	-0.088
-708.645	251.356	0.093	-0.161
-707.631	-31.069	-0.066	-0.038
-706.616	91.484	-0.127	0.145
-705.602	723.524	0.101	-0.274
-704.587	445.233	-0.053	-0.119
-703.572	93.334	-0.273	-0.316
-702.558	-200.000	-0.051	-0.411
-701.543	-61.832	-0.117	-0.050
-700.529	-200.000	0.006	0.106
-699.514	43.405	-0.174	0.163
-698.499	22.213	0.053	0.044
-697.485	688.367	-0.061	0.163
-696.470	-99.831	-0.161	-0.041
-695.456	207.276	0.040	-0.064
-694.441	-200.000	0.014	0.298
-693.426	-40.882	-0.125	-0.066
-692.412	-157.543	0.152	0.009
-691.397	-200.000	-0.018	-0.119
-690.383	-185.562	0.252	-0.004
-689.368	46.800	0.269	-0.255
-688.354	92.837	0.216	-0.249
-687.339	228.135	0.082	-0.136
-686.324	800.000	-0.086	0.335
-685.310	-19.536	0.235	-0.149
-684.295	275.210	0.118	-0.213
-683.281	-174.069	0.352	-0.011
-682.266	123.043	-0.175	0.224
-681.251	296.048	-0.123	0.230
-680.237	288.104	-0.109	-0.201
-679.222	800.000	0.030	0.089
-678.208	-114.824	-0.240	-0.047
-677.193	36.877	-0.108	0.098
-676.178	-200.000	-0.027	-0.207
-675.164	-36.889	0.257	-0.141
-674.149	51.852	0.042	-0.041
-673.135	-21.164	-0.246	0.154
-672.120	-200.000	-0.018	0.175
-671.105	136.328	0.155	-0.206
-670.091	-200.000	-0.096	-0.431
-669.076	-200.000	-0.025	-0.176
-668.062	800.000	-0.090	-0.265
-667.047	800.000	0.024	-0.105
-666.032	-98.892	0.226	-0.059
-665.018	-64.319	0.345	-0.143
-664.003	-55.089	0.076	-0.035
-662.989	80.731	-0.172	-0.190
-661.974	-66.696	-0.578	-0.234
-660.959	707.281	0.106	-0.287
-659.945	-4.882	-0.187	-0.132
-658.930	-117.927	0.098	-0.018
-657.916	29.125	-0.148	-0.128
-656.901	-90.258	0.100	0.030
-655.886	-20.704	-0.234	-0.146
-654.872	11.836	-0.323	-0.253
-653.857	90.413	0.199	-0.227
-652.843	-147.635	-0.492	-0.042
-651.828	-5.494	0.240	0.168
-650.814	2.091	0.273	0.201
-649.799	-200.000	0.025	0.349
-648.784	-200.000	0.010	-0.047
-647.770	71.781	0.152	0.161
-646.755	-85.641	0.155	-0.049
-645.741	356.534	0.112	-0.228
-644.726	-92.913	0.231	-0.066
-643.711	-90.611	0.115	-0.034
-642.697	-27.644	-0.033	0.020
-641.682	39.979	0.267	0.244
-640.668	-76.802	-0.326	-0.116
-639.653	189.032	-0.243	-0.371
-638.638	62.614	-0.230	-0.234
-637.624	-200.000	-0.045	-0.214
-636.609	70.654	-0.120	-0.126
-635.595	-181.004	-0.360	0.007
-634.580	-170.369	0.158	0.006
-633.565	800.000	-0.061	-0.203
-632.551	82.332	0.091	0.100
-631.536	12.310	-0.171	-0.134
-630.522	116.708	0.133	-0.166
-629.507	-159.587	-0.138	0.008
-628.492	-200.000	0.050	-0.367
-627.478	-34.184	-0.271	0.151
-626.463	-15.148	-0.213	-0.139
-625.449	-52.727	0.376	-0.176
-624.434	800.000	0.015	-0.065
-623.419	-92.056	0.278	-0.080
-622.405	92.694	-0.268	0.308
-621.390	126.677	0.074	0.095
-620.376	3.195	0.140	0.104
-619.361	-40.754	-0.154	0.081
-618.346	576.627	-0.101	-0.252
-617.332	-14.702	0.082	-0.054
-616.317	800.000	0.058	-0.168
-615.303	155.780	0.031	0.043
-614.288	-175.461	0.386	0.011
-613.273	-66.709	0.117	0.047
-612.259	-200.000	-0.062	-0.340
-611.244	800.000	-0.081	-0.286
-610.230	-200.000	0.004	0.257
-609.215	-155.741	-0.482	-0.031
-608.201	800.000	0.037	-0.107
-607.186	-200.000	-0.025	-0.285
-606.171	-200.000	0.018	-0.255
-605.157	-99.167	-0.388	0.100
-604.142	10.381	-0.216	0.167
-603.128	55.930	-0.071	-0.070
-602.113	-200.000	-0.012	0.300
-601.098	48.582	0.349	-0.333
-600.084	707.396	0.032	-0.086
-599.069	-200.000	0.024	0.150
-598.055	180.155	0.131	-0.196
-597.040	39.944	0.048	-0.044
-596.025	418.257	-0.091	-0.199
-595.011	800.000	-0.052	-0.199
-593.996	86.512	-0.169	0.190
-592.982	-171.299	-0.119	-0.004
-591.967	610.089	0.110	-0.280
-590.952	742.283	-0.152	-0.415
-589.938	-127.416	-0.303	0.045
-588.923	149.602	-0.151	-0.208
-587.909	-194.695	0.092	-0.001
-586.894	800.000	0.089	0.293
-585.879	-49.183	0.122	-0.059
-584.865	620.123	-0.097	-0.249
-583.850	18.787	-0.119	-0.097
-582.836	800.000	-0.048	-0.149
-581.821	-140.843	-0.142	-0.015
-580.806	-119.031	-0.255	-0.045
-579.792	83.176	0.142	-0.157
-578.777	-200.000	0.006	-0.121
-577.763	-9.833	0.272	0.184
-576.748	-41.819	0.240	-0.125
-575.733	97.804	-0.184	-0.215
-574.719	-31.888	-0.133	0.076
-573.704	-131.197	-0.122	-0.016
-572.690	-200.000	-0.013	-0.071
-571.675	2.994	0.231	-0.171
-570.661	-0.313	-0.143	-0.103
-569.646	-6.137	0.248	-0.172
-568.631	299.380	-0.185	0.347
-567.617	-200.000	-0.077	-0.587
-566.602	34.365	-0.184	-0.163
-565.588	157.216	0.132	-0.185
-564.573	800.000	0.058	0.211
-563.558	-74.737	0.072	0.026
-562.544	-146.787	0.122	-0.011
-561.529	-200.000	0.002	-0.101
-560.515	-159.186	0.168	0.010
-559.500	-200.000	0.008	0.154
-558.485	-55.895	0.133	0.060
-557.471	-200.000	-0.099	-0.550
-556.456	-200.000	0.055	-0.464
-555.442	-41.426	-0.388	-0.203
-554.427	-200.000	-0.007	0.049
-553.412	-99.030	0.219	-0.056
-552.398	68.239	0.141	0.147
-551.383	-193.143	-0.314	0.003
-550.369	400.893	0.086	0.183
-549.354	116.860	0.133	-0.166
-548.339	27.284	-0.133	-0.113
-547.325	-66.363	-0.230	0.093
-546.310	-60.102	0.307	0.133
-545.296	-165.211	0.357	-0.016
-544.281	-62.838	0.050	0.021
-543.266	-200.000	0.026	0.262
-542.252	617.969	0.131	0.333
-541.237	-25.859	-0.075	-0.045
-540.223	-88.325	0.112	0.034
-539.208	78.893	-0.161	-0.175
-538.193	114.692	-0.185	0.229
-537.179	-124.221	-0.517	-0.082
-536.164	-53.045	-0.301	0.140
-535.150	25.147	0.141	-0.119
-534.135	238.606	-0.054	-0.092
-533.121	-58.709	-0.271	-0.119
-532.106	800.000	-0.014	-0.046
-531.091	800.000	0.040	0.117
-530.077	-98.427	-0.464	-0.120
-529.062	244.301	0.167	-0.284
-528.048	800.000	0.079	0.280
-527.033	-98.354	-0.139	-0.036
-526.018	133.185	0.095	-0.124
-525.004	-63.979	-0.172	-0.071
-523.989	163.617	0.191	0.272
-522.975	232.852	-0.276	0.460
-521.960	-98.233	0.180	-0.047
-520.945	-76.865	-0.255	0.090
-519.931	-49.077	-0.293	-0.142
-518.916	314.982	0.091	0.174
-517.902	398.902	-0.085	0.180
-516.887	-17.547	0.177	0.113
-515.872	-79.617	0.200	0.068
-514.858	-17.730	0.389	0.248
-513.843	678.579	0.107	-0.281
-512.829	84.764	-0.147	0.164
-511.814	-200.000	-0.004	0.132
-510.799	367.632	-0.079	0.162
-509.785	275.308	-0.112	0.201
-508.770	-130.032	-0.384	0.053
-507.756	127.228	-0.049	0.064
-506.741	800.000	-0.019	0.075
-505.726	-17.656	0.205	-0.130
-504.712	-200.000	0.046	-0.241
-503.697	11.447	-0.103	0.080
-502.683	-200.000	-0.037	0.257
-501.668	-144.229	-0.223	-0.021
-500.653	236.711	0.093	0.157
-499.639	800.000	0.121	0.428
-498.624	-104.339	0.111	-0.026
-497.610	-200.000	0.025	0.218
-496.595	-62.719	0.089	-0.037
-495.581	130.081	0.215	0.279
-494.566	-116.952	-0.387	0.072
-493.551	-200.000	-0.011	-0.128
-492.537	-200.000	0.030	0.276
-491.522	800.000	-0.064	-0.200
-490.508	21.515	-0.153	-0.126
-489.493	-200.000	0.075	0.375
-488.478	-34.836	-0.204	-0.113
-487.464	-61.379	0.386	-0.165
-486.449	-200.000	-0.041	0.248
-485.435	-200.000	0.056	0.258
-484.420	445.021	0.137	-0.304
-483.405	-105.072	-0.075	0.017
-482.391	372.457	-0.071	-0.146
-481.376	-45.560	0.145	0.073
-480.362	31.501	0.121	0.105
-479.347	-40.232	-0.052	0.027
-478.332	-200.000	-0.025	0.120
-477.318	-77.653	0.393	-0.138
-476.303	-200.000	-0.006	0.267
-475.289	-87.693	-0.147	0.045
-474.274	116.072	-0.003	0.004
-473.259	496.097	-0.078	-0.181
-472.245	800.000	0.025	-0.104
-471.230	-100.870	0.303	0.075
-470.216	110.374	-0.180	0.219
-469.201	-83.402	0.209	0.068
-468.186	-111.469	-0.167	0.034
-467.172	-72.628	0.208	-0.078
-466.157	32.717	0.316	0.277
-465.143	-200.000	0.036	-0.392
-464.128	-200.000	0.032	-0.179
-463.113	137.498	-0.251	-0.332
-462.099	-10.421	0.264	0.177
-461.084	-81.526	-0.229	-0.076
-460.070	4.066	0.063	-0.047
-459.055	81.219	-0.198	-0.216
-458.040	744.985	0.033	-0.090
-457.026	800.000	0.027	0.115
-456.011	777.009	0.124	0.343
-454.997	161.744	0.024	-0.034
-453.982	139.372	-0.123	-0.163
-452.968	-55.406	0.261	-0.118
-451.953	-8.082	0.024	-0.016
-450.938	331.322	0.097	0.188
-449.924	53.163	-0.215	-0.208
-448.909	-200.000	0.001	-0.055
-447.895	-67.872	0.219	-0.087
-446.880	44.691	0.070	0.065
-445.865	193.283	-0.209	0.319
-444.851	-7.417	0.224	-0.154
-443.836	-50.232	-0.187	-0.089
-442.822	40.622	0.138	-0.125
-441.807	237.690	-0.246	-0.412
-440.792	-200.000	0.004	-0.130
-439.778	-84.495	0.379	-0.121
-438.763	-54.545	0.072	0.033
-437.749	50.695	0.130	0.125
-436.734	-70.747	-0.342	-0.130
-435.719	-200.000	-0.014	0.147
-434.705	-144.016	0.190	0.018
-433.690	45.619	0.157	-0.146
-432.676	100.153	-0.211	0.248
-431.661	-49.085	0.253	-0.122
-430.646	-200.000	-0.103	0.480
-429.632	160.400	-0.162	-0.229
-428.617	385.200	0.102	0.212
-427.603	97.424	-0.094	0.109
-426.588	251.934	-0.138	0.238
-425.573	-176.962	0.501	-0.013
-424.559	-200.000	0.032	0.204
-423.544	-200.000	-0.023	0.396
-422.530	-11.699	-0.175	-0.116
-421.515	6.826	-0.145	-0.109
-420.500	48.433	0.124	0.117
-419.486	-10.451	-0.147	-0.098
-418.471	-200.000	-0.017	-0.109
-417.457	-107.171	0.189	0.042
-416.442	102.860	-0.201	0.238
-415.428	-45.246	0.106	0.053
-414.413	-120.904	-0.350	-0.060
-413.398	-17.261	0.270	-0.172
-412.384	-14.513	0.161	0.104
-411.369	-200.000	0.056	0.490
-410.355	1.910	-0.082	-0.059
-409.340	-37.710	0.376	0.202
-408.325	-99.250	-0.108	-0.028
-407.311	-22.817	-0.183	-0.112
-406.296	266.338	0.099	0.174
-405.282	381.363	0.182	0.378
-404.267	249.815	-0.201	-0.343
-403.252	800.000	0.197	-0.686
-402.238	-20.969	0.078	-0.048
-401.223	-200.000	0.018	0.211
-400.209	-179.370	-0.062	-0.001
-399.194	18.700	0.028	-0.023
-398.179	-162.241	-0.229	0.012
-397.165	-102.653	-0.375	-0.090
-396.150	20.195	0.123	0.100
-395.136	128.844	0.207	0.267
-394.121	-200.000	-0.007	0.049
-393.106	800.000	0.047	-0.159
-392.092	-92.152	0.261	-0.074
-391.077	-200.000	0.003	-0.102
-390.063	-65.576	-0.215	-0.087
-389.048	-200.000	0.034	-0.246
-388.033	800.000	0.127	-0.381
-387.019	262.752	0.161	-0.282
-386.004	458.503	0.108	-0.242
-384.990	-51.538	0.184	-0.087
-383.975	-200.000	-0.010	-0.222
-382.960	-200.000	-0.025	0.122
-381.946	529.447	-0.128	0.304
-380.931	275.829	0.145	-0.259
-379.917	-200.000	0.043	0.237
-378.902	-200.000	-0.046	0.213
-377.888	307.631	-0.049	-0.093
-376.873	-118.186	-0.246	0.044
-375.858	800.000	-0.011	-0.036
-374.844	-111.528	0.110	-0.023
-373.829	522.820	0.074	-0.176
-372.815	21.971	0.317	-0.260
-371.800	46.314	0.113	0.106
-370.785	-200.000	0.100	-0.000
-369.771	-122.412	0.233	-0.038
-368.756	-78.866	0.257	-0.088
-367.742	-9.409	0.153	0.103
-366.727	-105.865	0.213	-0.048
-365.712	-107.066	-0.193	-0.043
-364.698	179.239	0.164	0.241
-363.683	800.000	0.090	-0.252
-362.669	229.975	0.062	-0.102
-361.654	6.058	-0.277	-0.207
-360.639	-200.000	-0.026	0.336
-359.625	69.494	-0.247	-0.256
-358.610	-60.835	-0.100	-0.042
-357.596	-160.980	0.263	0.014
-356.581	552.945	0.040	0.096
-355.566	800.000	-0.038	0.161
-354.552	344.405	0.082	-0.161
-353.537	-200.000	0.032	-0.197
-352.523	162.883	-0.216	0.305
-351.508	473.314	-0.088	-0.199
-350.493	161.891	0.126	0.178
-349.479	209.594	0.058	-0.092
-348.464	28.865	-0.099	-0.084
-347.450	-96.137	0.125	0.034
-346.435	800.000	-0.055	0.233
-345.420	-86.376	0.163	-0.050
-344.406	800.000	0.070	0.239
-343.391	179.024	-0.184	-0.270
-342.377	-200.000	0.023	0.215
-341.362	-139.076	-0.182	0.020
-340.348	153.374	-0.074	-0.102
-339.333	-200.000	0.014	0.238
-338.318	434.069	-0.171	0.375
-337.304	-173.057	-0.257	0.008
-336.289	-44.325	-0.207	-0.105
-335.275	235.245	-0.183	0.304
-334.260	-131.526	-0.289	-0.038
-333.245	30.065	0.242	0.208
-332.231	-46.391	-0.192	0.095
-331.216	82.134	0.347	-0.379
-330.202	62.555	0.077	-0.078
-329.187	150.951	-0.312	-0.427
-328.172	-63.291	0.130	-0.054
-327.158	-200.000	-0.021	-0.099
-326.143	-63.750	0.230	-0.095
-325.129	24.745	0.303	0.252
-324.114	81.472	0.183	-0.200
-323.099	-43.383	0.094	-0.048
-322.085	-139.844	0.295	-0.031
-321.070	800.000	-0.047	-0.150
-320.056	-52.265	-0.352	-0.164
-319.041	-64.369	-0.153	0.062
-318.026	79.064	-0.099	0.107
-317.012	-200.000	-0.022	0.165
-315.997	12.932	0.208	-0.162
-314.983	53.315	-0.219	0.212
-313.968	-39.999	0.402	-0.211
-312.953	800.000	-0.040	-0.127
-311.939	97.388	0.080	0.092
-310.924	-161.065	-0.345	-0.018
-309.910	800.000	-0.047	0.183
-308.895	-154.085	-0.292	-0.020
-307.880	429.136	-0.037	0.081
-306.866	98.188	-0.019	0.022
-305.851	-200.000	0.084	0.376
-304.837	-98.191	0.269	0.069
-303.822	82.979	-0.015	-0.017
-302.807	-200.000	0.039	0.196
-301.793	-200.000	0.031	-0.156
-300.778	148.983	0.120	0.164
-299.764	684.435	-0.009	-0.025
-298.749	800.000	0.025	0.081
-297.735	-19.177	-0.467	0.291
-296.720	19.412	0.084	-0.068
-295.705	-74.103	-0.075	0.027
-294.691	-97.506	-0.156	0.041
-293.676	42.331	0.282	0.258
-292.662	7.276	-0.298	0.224
-291.647	-162.959	-0.113	0.006
-290.632	148.734	0.157	0.213
-289.618	-46.848	-0.215	-0.106
-288.603	-200.000	0.031	0.463
-287.589	-17.204	-0.252	0.160
-286.574	414.968	0.096	0.206
-285.559	-92.913	-0.116	0.033
-284.545	482.791	0.120	0.274
-283.530	-134.558	0.291	0.036
-282.516	-200.000	-0.029	-0.269
-281.501	-0.352	0.150	0.107
-280.486	-200.000	0.067	0.408
-279.472	281.581	0.045	-0.081
-278.457	221.041	-0.132	0.213
-277.443	-47.405	0.155	0.076
-276.428	-200.000	-0.010	-0.101
-275.413	150.693	-0.075	0.103
-274.399	-13.282	-0.252	0.164
-273.384	-143.396	-0.321	0.031
-272.370	-200.000	0.007	-0.214
-271.355	-200.000	-0.015	0.184
-270.340	121.314	-0.091	0.114
-269.326	-98.766	-0.081	-0.021
-268.311	-92.083	0.170	-0.048
-267.297	-114.595	-0.156	-0.030
-266.282	171.691	0.040	0.058
-265.267	105.516	-0.254	-0.302
-264.253	-19.126	0.147	0.092
-263.238	-152.709	0.289	-0.021
-262.224	800.000	-0.127	-0.414
-261.209	347.593	-0.037	-0.074
-260.195	-7.227	0.077	-0.053
-259.180	-24.519	0.179	0.107
-258.165	395.096	-0.082	0.172
-257.151	70.079	-0.077	-0.079
-256.136	113.835	-0.059	0.073
-255.122	-37.703	-0.247	0.132
-254.107	-132.828	0.216	0.028
-253.092	-13.430	-0.226	0.147
-252.078	-114.917	0.047	0.009
-251.063	-130.073	-0.047	0.006
-250.049	11.207	0.065	0.050
-249.034	-12.573	-0.307	0.201
-248.019	123.437	-0.089	-0.112
-247.005	710.454	0.128	-0.341
-245.990	-31.723	0.345	0.194
-244.976	800.000	0.027	0.115
-243.961	-94.530	-0.345	0.094
-242.946	-55.927	0.360	-0.161
-241.932	-200.000	-0.070	-0.343
-240.917	-200.000	0.012	0.223
-239.903	-200.000	-0.014	0.136
-238.888	-122.720	-0.336	-0.054
-237.873	800.000	-0.076	-0.321
-236.859	-52.486	-0.282	-0.131
-235.844	800.000	-0.059	-0.229
-234.830	-17.865	-0.238	0.150
-233.815	-105.195	0.332	0.076
-232.800	-82.317	0.162	-0.053
-231.786	-60.706	0.252	-0.107
-230.771	-50.059	0.116	0.055
-229.757	800.000	0.076	-0.274
-228.742	-200.000	-0.037	-0.207
-227.727	302.773	0.031	-0.057
-226.713	226.619	-0.137	0.224
-225.698	443.185	-0.023	-0.050
-224.684	-2.958	-0.264	0.185
-223.669	-132.486	0.133	0.017
-222.655	215.098	-0.109	0.174
-221.640	-13.631	-0.200	-0.130
-220.625	800.000	-0.012	-0.047
-219.611	259.821	0.038	-0.066
-218.596	290.601	-0.079	-0.143
-217.582	-116.959	-0.064	0.012
-216.567	-95.677	-0.122	-0.033
-215.552	198.678	0.208	0.319
-214.538	-200.000	-0.047	0.367
-213.523	-200.000	-0.047	0.578
-212.509	800.000	-0.060	-0.193
-211.494	70.080	0.172	-0.178
-210.479	-161.055	0.274	-0.014
-209.465	-88.767	-0.180	-0.054
-208.450	800.000	0.086	0.298
-207.436	74.211	0.142	-0.149
-206.421	-7.867	-0.051	0.034
-205.406	800.000	-0.085	0.310
-204.392	800.000	-0.054	0.161
-203.377	-59.049	-0.052	0.022
-202.363	-35.858	0.272	-0.148
-201.348	-44.708	-0.253	-0.126
-200.333	-67.373	0.167	-0.066
-199.319	-32.015	0.324	-0.181
-198.304	170.240	0.013	-0.018
-197.290	800.000	0.017	0.063
-196.275	-200.000	-0.041	-0.284
-195.260	-155.008	-0.188	-0.012
-194.246	611.708	0.106	0.264
-193.231	-200.000	0.032	0.245
-192.217	-200.000	-0.030	0.171
-191.202	552.917	-0.070	0.168
-190.187	-87.504	0.288	-0.087
-189.173	207.131	-0.062	0.096
-188.158	7.710	0.201	0.151
-187.144	-114.060	0.087	-0.017
-186.129	14.474	-0.299	0.234
-185.114	-80.980	0.016	-0.005
-184.100	-200.000	0.014	-0.149
-183.085	-200.000	-0.088	0.385
-182.071	533.337	-0.085	0.201
-181.056	-200.000	0.021	-0.114
-180.042	-156.878	-0.106	0.007
-179.027	-70.687	-0.187	-0.071
-178.012	85.701	-0.163	0.179
-176.998	-101.091	-0.454	-0.111
-175.983	572.428	0.031	-0.076
-174.969	221.434	-0.057	-0.091
-173.954	-88.722	0.201	0.060
-172.939	-52.290	0.288	0.133
-171.925	-152.878	-0.155	0.011
-170.910	-125.793	0.436	0.066
-169.896	431.681	-0.092	0.200
-168.881	79.052	0.253	-0.271
-167.866	800.000	0.051	-0.143
-166.852	-130.294	0.185	0.025
-165.837	800.000	-0.009	-0.030
-164.823	-99.631	-0.097	-0.024
-163.808	-63.039	0.233	0.096
-162.793	-149.425	0.285	0.023
-161.779	-91.392	0.299	-0.085
-160.764	-1.168	-0.352	-0.249
-159.750	-60.634	-0.285	-0.121
-158.735	61.489	0.198	-0.197
-157.720	-55.709	0.149	-0.067
-156.706	-3.494	0.249	0.173
-155.691	-200.000	0.052	-0.272
-154.677	107.971	-0.087	0.104
-153.662	-30.879	0.124	0.070
-152.647	11.405	-0.195	-0.149
-151.633	557.485	-0.019	0.046
-150.618	-200.000	0.002	0.030
-149.604	240.544	0.138	0.231
-148.589	599.731	-0.167	0.413
-147.574	49.258	-0.104	0.098
-146.560	13.993	0.291	-0.226
-145.545	-98.991	0.185	0.047
-144.531	2.309	-0.182	-0.132
-143.516	655.089	-0.082	-0.210
-142.502	-179.232	0.176	-0.004
-141.487	-79.630	0.184	-0.062
-140.472	-106.098	-0.134	-0.030
-139.458	-84.621	-0.370	-0.117
-138.443	-70.631	0.429	-0.162
-137.429	800.000	-0.092	-0.395
-136.414	-200.000	-0.005	0.238
-135.399	84.087	0.065	0.071
-134.385	68.232	0.161	0.165
-133.370	-200.000	0.000	0.100
-132.356	-51.632	0.414	-0.193
-131.341	-22.834	-0.203	-0.122
-130.326	-200.000	0.032	0.166
-129.312	-139.865	-0.194	-0.020
-128.297	-117.983	0.068	-0.012
-127.283	800.000	-0.068	-0.198
-126.268	315.492	0.037	-0.069
-125.253	544.420	-0.056	-0.133
-124.239	-129.863	-0.349	0.048
-123.224	800.000	0.024	0.074
-122.210	800.000	0.045	-0.169
-121.195	-84.440	0.203	-0.064
-120.180	-36.174	-0.345	-0.186
-119.166	48.286	0.185	-0.173
-118.151	-180.347	0.162	0.003
-117.137	-8.245	-0.034	0.023
-116.122	-100.906	0.173	0.043
-115.107	-200.000	0.029	-0.285
-114.093	393.302	0.206	-0.427
-113.078	-99.169	0.219	0.055
-112.064	-94.611	-0.381	-0.103
-111.049	-153.701	0.072	0.005
-110.034	63.089	-0.108	-0.108
-109.020	-200.000	-0.033	-0.185
-108.005	800.000	-0.139	-0.395
-106.991	101.769	0.179	0.208
-105.976	-133.678	0.152	0.019
-104.962	-56.342	0.162	-0.072
-103.947	-200.000	-0.008	-0.302
-102.932	-91.975	0.254	0.072
-101.918	-200.000	-0.022	-0.300
-100.903	-26.614	0.231	0.135
-99.889	-80.429	0.222	-0.074
-98.874	10.723	0.284	-0.216
-97.859	126.542	0.141	-0.178
-96.845	136.856	0.208	0.271
-95.830	-52.790	-0.224	0.103
-94.816	10.097	-0.220	-0.167
-93.801	-200.000	0.032	-0.241
-92.786	-94.394	0.315	0.086
-91.772	618.956	-0.037	0.092
-90.757	-10.093	-0.113	0.075
-89.743	-200.000	0.007	0.457
-88.728	-51.013	0.111	0.052
-87.713	-30.973	-0.152	-0.086
-86.699	-144.210	-0.254	0.024
-85.684	-163.600	0.346	0.016
-84.670	-200.000	-0.015	-0.309
-83.655	-192.813	0.185	-0.002
-82.640	800.000	0.036	0.129
-81.626	-200.000	0.018	-0.274
-80.611	-200.000	-0.026	0.243
-79.597	800.000	0.049	0.157
-78.582	-57.301	0.110	0.048
-77.567	-63.358	-0.120	0.049
-76.553	-79.097	-0.075	0.025
-75.538	-62.008	-0.158	-0.066
-74.524	-60.496	-0.262	0.111
-73.509	-103.864	-0.148	-0.034
-72.494	147.227	-0.039	0.052
-71.480	-138.063	-0.116	-0.013
-70.465	286.640	-0.124	0.223
-69.451	-200.000	-0.030	0.245
-68.436	279.638	-0.115	0.204
-67.422	114.832	-0.116	-0.142
-66.407	30.486	0.171	-0.146
-65.392	263.636	-0.146	-0.253
-64.378	800.000	-0.081	-0.311
-63.363	36.073	0.143	-0.125
-62.349	-200.000	-0.011	-0.075
-61.334	122.524	-0.818	-1.019
-60.319	78.667	0.358	0.382
-59.305	-200.000	0.068	-1.133
-58.290	197.636	0.574	0.872
-57.276	800.000	0.412	1.344
-56.261	-200.000	83.382	499.465
-55.246	530.738	1386.454	3263.771
-54.232	181.136	2610.434	3821.257
-53.217	118.867	2245.209	2762.998
-52.203	48.817	1689.371	1578.435
-51.188	41.499	1418.671	1278.786
-50.173	38.092	1375.457	1218.567
-49.159	56.532	1415.437	1370.892
-48.144	61.210	1433.834	1418.213
-47.130	41.900	1394.285	1259.131
-46.115	38.138	1377.006	1220.031
-45.100	37.952	1372.422	1214.767
-44.086	37.844	1369.913	1211.824
-43.071	37.843	1367.570	1209.696
-42.057	37.763	1365.756	1207.549
-41.042	37.885	1363.543	1206.298
-40.027	37.996	1362.155	1205.710
-39.013	37.872	1360.399	1203.340
-37.998	37.904	1358.200	1201.550
-36.984	38.010	1356.310	1200.479
-35.969	38.040	1354.951	1199.416
-34.954	38.073	1352.903	1197.753
-33.940	38.244	1351.507	1197.521
-32.925	38.210	1350.198	1196.107
-31.911	38.120	1348.895	1194.353
-30.896	38.136	1347.430	1193.107
-29.881	38.093	1345.904	1191.447
-28.867	38.152	1344.469	1190.484
-27.852	38.184	1343.001	1189.332
-26.838	38.198	1341.601	1188.134
-25.823	38.177	1340.200	1186.718
-24.809	38.100	1338.570	1184.761
-23.794	38.100	1337.270	1183.561
-22.779	38.159	1336.085	1182.825
-21.765	38.066	1334.741	1181.026
-20.750	37.993	1333.565	1179.497
-19.736	38.081	1331.672	1178.305
-18.721	37.927	1330.972	1176.713
-17.706	37.940	1329.752	1175.663
-16.692	37.992	1328.910	1175.185
-15.677	38.052	1327.046	1173.850
-14.663	37.938	1325.846	1172.060
-13.648	37.979	1325.090	1171.590
-12.633	37.991	1323.804	1170.477
-11.619	37.962	1323.174	1169.700
-10.604	37.956	1322.027	1168.602
-9.590	37.968	1321.031	1167.747
-8.575	37.926	1320.314	1166.818
-7.560	37.914	1319.460	1165.943
-6.546	37.855	1318.449	1164.656
-5.531	37.988	1317.238	1164.333
-4.517	37.931	1316.561	1163.346
-3.502	37.971	1315.739	1162.810
-2.487	38.033	1314.960	1162.449
-1.473	38.095	1310.800	1159.094
-0.458	37.263	1295.748	1140.850
0.556	32.384	1276.945	1100.732
1.571	28.489	1280.252	1080.588
2.586	27.048	1295.356	1084.638
3.600	25.961	1283.424	1068.119
4.615	19.977	1207.627	971.482
5.629	10.222	1125.511	854.089
6.644	5.256	1102.677	810.958
7.659	4.833	1099.519	806.378
8.673	4.767	1098.451	805.179
9.688	4.775	1096.541	803.749
10.702	5.160	1095.948	805.231
11.717	11.116	1104.706	842.485
12.731	18.951	1115.633	891.523
13.746	19.966	1115.664	896.730
14.761	17.931	1112.502	883.588
15.775	16.688	1109.882	875.010
16.790	15.639	1107.393	867.558
17.804	14.993	1105.704	862.829
18.819	14.523	1105.072	859.835
19.834	14.160	1104.338	857.318
20.848	13.998	1102.873	855.270
21.863	13.765	1102.207	853.481
22.877	13.573	1101.573	851.928
23.892	13.670	1100.666	851.648
24.907	13.544	1099.900	850.331
25.921	13.686	1098.578	849.963
26.936	13.634	1097.815	849.031
27.950	13.640	1096.008	847.590
28.965	13.715	1094.772	846.945
29.980	13.891	1093.105	846.478
30.994	13.956	1091.876	845.782
32.009	13.928	1090.941	844.837
33.023	13.737	1089.975	843.046
34.038	13.810	1088.551	842.238
35.053	13.847	1087.511	841.550
36.067	13.658	1086.843	839.997
37.082	13.682	1085.775	839.219
38.096	13.771	1085.155	839.119
39.111	13.756	1084.127	838.171
40.126	13.685	1083.007	836.875
41.140	13.521	1082.016	835.209
42.155	13.519	1080.549	833.990
43.169	13.477	1079.549	832.935
44.184	13.591	1078.181	832.380
45.199	13.434	1077.590	831.059
46.213	13.525	1076.607	830.685
47.228	13.545	1075.430	829.804
48.242	13.642	1074.120	829.204
49.257	13.654	1073.516	828.724
50.271	13.790	1072.216	828.324
51.286	13.642	1071.674	827.096
52.301	13.742	1070.259	826.431
53.315	13.667	1069.004	825.016
54.330	13.649	1068.023	824.095
55.344	13.545	1067.224	822.886
56.359	13.637	1066.329	822.583
57.374	13.612	1064.946	821.317
58.388	13.637	1064.270	820.847
59.403	13.453	1063.711	819.432
60.417	13.568	1062.774	819.207
61.432	13.514	1061.864	818.169
62.447	13.416	1061.013	816.954
63.461	13.348	1060.672	816.286
64.476	13.399	1059.708	815.724
65.490	13.402	1058.440	814.687
66.505	13.288	1058.587	814.170
67.520	13.490	1057.118	813.960
68.534	13.444	1056.757	813.385
69.549	13.481	1055.716	812.694
70.563	13.336	1055.340	811.621
71.578	13.316	1054.535	810.832
72.593	13.210	1053.489	809.433
73.607	13.329	1052.640	809.291
74.622	13.348	1052.064	808.872
75.636	13.376	1051.096	808.194
76.651	13.330	1050.240	807.240
77.666	13.305	1050.096	806.934
78.680	13.384	1049.000	806.404
79.695	13.414	1048.518	806.112
80.709	13.373	1048.058	805.485
81.724	13.412	1047.523	805.195
82.739	13.464	1046.604	804.669
83.753	13.533	1045.727	804.256
84.768	13.878	1044.489	804.906
85.782	13.924	1043.410	804.229
86.797	13.695	1043.306	802.965
87.812	13.632	1041.945	801.545
88.826	13.748	1040.743	801.111
89.841	13.754	1039.902	800.421
90.855	13.802	1038.784	799.717
91.870	13.843	1038.098	799.319
92.884	13.758	1037.082	798.058
93.899	13.790	1036.464	797.665
94.914	14.022	1035.004	797.585
95.928	13.965	1034.634	796.952
96.943	13.819	1033.748	795.501
97.957	13.789	1032.848	794.595
98.972	13.753	1032.040	793.731
99.987	13.810	1031.177	793.270
101.001	13.808	1030.254	792.477
102.016	13.731	1029.325	791.329
103.030	13.710	1028.583	790.584
104.045	13.779	1028.029	790.418
105.060	13.711	1027.018	789.248
106.074	13.521	1026.253	787.686
107.089	13.503	1024.716	786.352
108.103	13.555	1023.441	785.553
109.118	13.673	1022.427	785.261
110.133	13.547	1022.006	784.275
111.147	13.552	1020.959	783.424
112.162	13.441	1020.552	782.519
113.176	13.654	1019.471	782.626
114.191	13.602	1018.980	781.936
115.206	13.783	1017.745	781.767
116.220	13.572	1017.312	780.372
117.235	13.565	1016.229	779.439
118.249	13.595	1015.229	778.745
119.264	13.579	1015.078	778.488
120.279	13.615	1013.800	777.605
121.293	13.521	1013.201	776.639
122.308	13.469	1012.098	775.480
123.322	13.422	1011.097	774.425
124.337	13.475	1010.211	773.925
125.352	13.399	1008.640	772.299
126.366	13.420	1007.868	771.738
127.381	13.503	1006.746	771.195
128.395	13.623	1005.460	770.700
129.410	13.696	1004.829	770.489
130.424	13.559	1003.679	768.900
131.439	13.795	1003.207	769.569
132.454	13.758	1002.232	768.580
133.468	13.875	1001.319	768.352
134.483	13.758	1000.956	767.464
135.497	13.805	1000.116	766.973
136.512	13.680	999.479	765.836
137.527	13.689	998.077	764.734
138.541	13.803	997.262	764.572
139.556	13.738	996.830	763.873
140.570	13.820	996.394	763.849
141.585	13.900	995.610	763.546
142.600	14.023	994.577	763.251
143.614	13.900	993.746	761.983
144.629	13.944	992.952	761.509
145.643	14.022	991.464	760.656
146.658	13.813	990.696	759.044
147.673	13.749	989.805	758.003
148.687	13.768	989.042	757.437
149.702	13.681	988.163	756.302
150.716	13.655	987.448	755.569
151.731	13.944	986.078	755.769
152.746	13.825	985.712	754.880
153.760	13.853	984.994	754.390
154.775	13.847	984.779	754.128
155.789	13.884	983.939	753.589
156.804	13.923	983.187	753.122
157.819	13.944	982.179	752.378
158.833	13.995	981.884	752.317
159.848	13.948	981.330	751.614
160.862	14.003	980.208	750.936
161.877	13.897	978.789	749.306
162.892	13.821	977.909	748.221
163.906	13.723	976.763	746.838
164.921	13.764	976.389	746.670
165.935	13.929	974.840	746.161
166.950	13.922	974.281	745.637
167.964	13.852	973.721	744.826
168.979	13.970	972.326	744.221
169.994	13.957	971.430	743.414
171.008	13.985	970.826	743.010
172.023	13.978	970.312	742.518
173.037	14.055	969.509	742.185
174.052	13.969	968.798	741.189
175.067	13.912	967.800	740.107
176.081	13.952	967.389	739.905
177.096	13.794	966.793	738.680
178.110	13.998	966.151	739.034
179.125	13.902	965.518	738.055
180.140	13.996	965.070	738.064
181.154	14.034	964.478	737.716
182.169	14.194	963.380	737.518
183.183	14.148	963.252	737.151
184.198	14.215	962.300	736.658
185.213	14.137	961.735	735.812
186.227	14.185	960.755	735.212
187.242	14.250	960.310	735.092
188.256	14.349	959.723	735.014
189.271	14.267	958.954	733.997
190.286	14.226	957.914	732.956
191.300	13.991	957.306	731.394
192.315	13.894	957.031	730.690
193.329	14.005	956.271	730.534
194.344	14.050	955.476	730.061
195.359	14.115	954.462	729.506
196.373	14.248	954.021	729.688
197.388	14.294	953.879	729.717
198.402	14.392	953.413	729.726
199.417	14.364	952.486	728.827
200.432	14.460	952.012	728.822
201.446	14.537	951.315	728.560
202.461	14.662	950.822	728.662
203.475	14.579	950.261	727.804
204.490	14.381	950.012	726.686
205.504	14.303	949.138	725.613
206.519	14.329	948.187	724.934
207.534	14.362	947.410	724.422
208.548	14.368	946.642	723.796
209.563	14.410	946.340	723.681
210.577	14.409	945.286	722.810
211.592	14.522	944.713	722.795
212.607	14.625	943.849	722.517
213.621	14.684	942.772	721.884
214.636	14.612	942.402	721.228
215.650	14.623	941.431	720.467
216.665	14.700	941.057	720.447
217.680	14.727	940.550	720.112
218.694	14.735	939.778	719.491
219.709	14.761	938.754	718.756
220.723	14.644	938.333	717.869
221.738	14.544	937.705	716.894
222.753	14.595	936.899	716.432
223.767	14.668	936.324	716.246
224.782	14.689	935.678	715.775
225.796	14.937	934.862	716.150
226.811	14.797	934.358	715.102
227.826	14.702	933.567	714.027
228.840	14.712	932.875	713.478
229.855	14.694	931.969	712.646
230.869	14.656	931.113	711.765
231.884	14.699	930.666	711.543
232.899	14.697	930.030	710.986
233.913	14.651	929.167	710.067
234.928	14.693	928.241	709.478
235.942	14.578	928.161	708.862
236.957	14.706	927.151	708.573
237.972	14.701	926.736	708.170
238.986	14.636	926.132	707.372
240.001	14.630	925.562	706.848
241.015	14.657	924.437	706.038
242.030	14.773	923.942	706.089
243.045	14.829	923.585	705.991
244.059	14.785	923.146	705.409
245.074	14.835	922.369	704.961
246.088	14.894	921.425	704.427
247.103	14.976	920.806	704.239
248.117	14.983	920.479	703.952
249.132	15.243	919.589	704.305
250.147	15.317	918.831	703.973
251.161	15.151	918.596	703.031
252.176	15.304	917.751	702.964
253.190	15.358	917.168	702.684
254.205	15.267	916.422	701.669
255.220	15.316	915.888	701.402
256.234	15.466	915.055	701.329
257.249	15.419	914.212	700.425
258.263	15.326	913.517	699.444
259.278	15.306	913.052	698.941
260.293	15.304	912.674	698.579
261.307	15.406	911.907	698.358
262.322	15.578	911.200	698.467
263.336	15.474	910.306	697.290
264.351	15.507	909.374	696.650
265.366	15.370	909.158	695.854
266.380	15.338	908.916	695.475
267.395	15.465	907.906	695.168
268.409	15.369	907.156	694.137
269.424	15.538	905.857	693.778
270.439	15.420	905.516	692.970
271.453	15.462	904.939	692.639
272.468	15.551	904.163	692.351
273.482	15.602	903.567	692.042
274.497	15.578	902.804	691.298
275.512	15.487	902.538	690.661
276.526	15.571	902.002	690.532
277.541	15.537	901.654	690.066
278.555	15.619	900.811	689.696
279.570	15.701	900.404	689.661
280.585	15.740	899.300	688.912
281.599	15.668	898.300	687.792
282.614	15.603	897.988	687.226
283.628	15.645	897.464	686.936
284.643	15.651	896.790	686.384
285.657	15.539	896.418	685.579
286.672	15.653	895.614	685.372
287.687	15.659	894.850	684.751
288.701	15.698	894.445	684.537
289.716	15.815	893.565	684.279
290.730	15.830	893.216	684.012
291.745	15.723	892.764	683.171
292.760	15.919	892.216	683.488
293.774	15.918	891.375	682.779
294.789	15.867	890.415	681.775
295.803	15.820	889.802	681.057
296.818	15.839	889.020	680.474
297.833	15.819	888.627	680.031
298.847	15.834	887.880	679.461
299.862	15.895	887.186	679.115
300.876	15.962	886.629	678.899
301.891	15.890	886.378	678.357
302.906	15.976	885.734	678.152
303.920	16.093	885.136	678.102
304.935	16.198	884.415	677.912
305.949	16.215	883.286	677.054
306.964	16.218	883.013	676.800
307.979	16.223	882.665	676.493
308.993	16.211	881.772	675.701
310.008	16.084	881.394	674.842
311.022	16.057	880.616	674.078
312.037	15.952	880.414	673.444
313.052	16.016	879.331	672.813
314.066	15.841	879.438	672.137
315.081	15.931	878.489	671.710
316.095	16.079	877.524	671.503
317.110	16.077	876.963	671.005
318.125	16.090	876.674	670.778
319.139	15.904	876.429	669.791
320.154	16.028	876.122	669.988
321.168	16.075	875.215	669.424
322.183	16.014	874.689	668.721
323.197	16.027	874.472	668.546
324.212	16.122	873.320	667.984
325.227	16.084	872.938	667.481
326.241	16.192	872.049	667.169
327.256	16.183	871.624	666.751
328.270	16.146	871.355	666.339
329.285	16.138	870.662	665.717
330.300	16.064	869.715	664.642
331.314	16.106	869.529	664.608
332.329	16.226	869.237	664.797
333.343	16.289	868.364	664.320
334.358	16.251	868.227	664.008
335.373	16.326	867.860	663.962
336.387	16.404	867.548	663.972
337.402	16.397	867.383	663.760
338.416	16.454	866.837	663.505
339.431	16.419	866.742	663.235
340.446	16.560	866.226	663.336
341.460	16.617	865.499	662.944
342.475	16.617	865.056	662.545
343.489	16.640	864.807	662.388
344.504	16.593	863.960	661.497
345.519	16.758	863.487	661.721
346.533	16.780	863.047	661.411
347.548	16.654	862.532	660.464
348.562	16.478	861.702	659.084
349.577	16.423	861.786	658.875
350.592	16.522	860.652	658.337
351.606	16.590	859.743	657.848
352.621	16.520	859.285	657.166
353.635	16.637	858.463	656.933
354.650	16.674	857.876	656.570
355.665	16.660	857.661	656.293
356.679	16.619	856.973	655.551
357.694	16.728	856.281	655.385
358.708	16.738	855.666	654.895
359.723	16.759	855.037	654.436
360.738	16.746	854.544	653.950
361.752	16.675	853.664	652.945
362.767	16.868	853.075	653.181
363.781	16.819	852.895	652.796
364.796	17.010	851.912	652.720
365.810	16.993	851.960	652.636
366.825	16.964	851.675	652.247
367.840	17.001	851.145	651.926
368.854	16.972	850.173	651.012
369.869	16.988	849.955	650.849
370.883	16.892	849.619	650.166
371.898	17.136	849.356	650.842
372.913	17.234	848.589	650.574
373.927	17.105	848.110	649.653
374.942	16.948	847.720	648.698
375.956	17.001	847.522	648.690
376.971	17.299	846.700	649.145
377.986	17.330	846.328	648.917
379.000	17.229	845.839	648.100
380.015	17.245	845.463	647.817
381.029	17.372	844.294	647.348
382.044	17.360	843.760	646.834
383.059	17.270	843.686	646.377
384.073	17.338	842.714	645.834
385.088	17.318	842.242	645.341
386.102	17.226	841.796	644.593
387.117	16.993	841.306	643.278
388.132	17.088	840.826	643.214
389.146	17.209	840.095	643.056
390.161	17.287	839.667	642.967
391.175	17.258	839.195	642.439
392.190	17.280	838.640	642.039
393.205	17.240	838.065	641.390
394.219	17.201	837.932	641.086
395.234	17.227	837.200	640.566
396.248	17.082	836.759	639.627
397.263	17.107	836.179	639.218
398.278	17.192	836.020	639.362
399.292	17.251	835.104	638.828
400.307	17.293	834.695	638.616
401.321	17.289	834.465	638.367
402.336	17.383	833.796	638.152
403.350	17.315	833.434	637.563
404.365	17.326	833.572	637.653
405.380	17.517	832.649	637.606
406.394	17.624	831.658	637.192
407.409	17.612	831.475	636.952
408.423	17.553	831.434	636.642
409.438	17.471	831.265	636.148
410.453	17.654	830.850	636.459
411.467	17.734	830.258	636.247
412.482	17.736	829.933	635.950
413.496	17.715	829.574	635.542
414.511	17.688	829.013	634.953
415.526	17.702	828.490	634.548
416.540	17.726	827.974	634.188
417.555	17.843	827.366	634.100
418.569	17.765	827.035	633.502
419.584	17.771	826.789	633.277
420.599	17.867	825.942	632.928
421.613	147.600	1368.359	1773.778
422.628	128.523	1447.427	1773.909
