DTS Sentinel unit serial number:	SN413079Multiplexer serial number:	ORYXHardware model number:	OX4-SRSoftware version number:	ORYX F/W v4.00 Oryx Data Collector v3.7.2.0data status	okinstallation	princeton_trtdifferential loss correction	single-endedforward channel	channel 1reverse channel	N/Adate	2019/09/13time	13:14:35forward acquisition time	60.00reverse acquisition time	0.00gamma	496.2192k internal	0.2304k external	0.2304temperature offset calibration	1.0162default loss term (dB/km)	0.3790temperature slope calibration	1.0000multiplexer offset coefficient	1.0000multiplexer slope coefficient	1.0000fibre end	0.00T internal ref (°C)	34.89T ext. ref 1 (°C)	4.56T ext. ref 2 (°C)	31.04length (m)	temperature (°C)	Stokes	anti-Stokes-747.200	65.499	0.183	0.188
-746.185	151.276	0.176	-0.245
-745.171	-90.608	-0.270	-0.080
-744.156	-42.726	-0.195	-0.101
-743.142	-129.158	-0.371	0.053
-742.127	-89.819	-0.120	0.036
-741.112	-200.000	0.009	-0.057
-740.098	420.302	0.075	0.164
-739.083	-45.201	0.195	0.099
-738.069	231.107	-0.126	0.210
-737.054	50.024	-0.095	0.091
-736.039	-132.921	-0.364	-0.047
-735.025	47.306	-0.103	-0.097
-734.010	257.005	-0.160	0.280
-732.996	-200.000	0.023	-0.188
-731.981	-34.544	-0.213	0.119
-730.966	-133.879	0.134	0.017
-729.952	81.571	0.170	-0.188
-728.937	116.415	-0.073	-0.091
-727.923	238.356	0.073	-0.124
-726.908	264.008	-0.107	0.189
-725.894	-96.747	-0.339	0.091
-724.879	722.683	-0.136	-0.367
-723.864	-135.307	-0.055	0.007
-722.850	-72.231	-0.255	-0.096
-721.835	-200.000	0.057	-0.300
-720.821	-71.573	-0.153	-0.058
-719.806	12.074	0.236	0.185
-718.791	232.641	-0.210	-0.351
-717.777	-89.083	-0.335	0.101
-716.762	800.000	0.089	-0.296
-715.748	-17.841	-0.156	0.100
-714.733	-168.705	0.302	0.012
-713.718	-109.790	-0.257	-0.055
-712.704	-64.285	-0.193	0.080
-711.689	-8.245	0.058	0.040
-710.675	-86.358	0.256	-0.080
-709.660	-200.000	0.069	-0.357
-708.645	-200.000	0.015	-0.170
-707.631	150.733	0.126	-0.175
-706.616	76.134	-0.089	0.096
-705.602	33.396	-0.248	0.219
-704.587	-200.000	-0.039	0.254
-703.572	13.349	-0.070	-0.055
-702.558	800.000	-0.074	-0.246
-701.543	36.632	-0.146	0.131
-700.529	574.653	0.085	-0.210
-699.514	-200.000	0.032	-0.242
-698.499	-26.107	0.274	0.163
-697.485	7.755	0.149	0.114
-696.470	-0.116	-0.091	0.066
-695.456	-103.531	-0.088	-0.021
-694.441	-166.786	-0.137	-0.006
-693.426	-174.447	-0.159	0.005
-692.412	-200.000	0.011	-0.521
-691.397	96.283	0.154	0.179
-690.383	60.428	-0.251	0.252
-689.368	97.822	-0.086	-0.101
-688.354	687.917	0.135	-0.359
-687.339	800.000	-0.083	0.273
-686.324	185.804	-0.216	-0.326
-685.310	715.008	-0.082	-0.220
-684.295	195.318	0.206	-0.317
-683.281	-129.398	-0.162	-0.023
-682.266	211.300	-0.239	-0.382
-681.251	-100.942	0.103	0.026
-680.237	-154.346	-0.182	-0.012
-679.222	-200.000	-0.038	0.229
-678.208	75.706	0.091	0.098
-677.193	-200.000	0.059	0.357
-676.178	-119.567	0.206	-0.036
-675.164	-176.612	-0.142	-0.004
-674.149	103.447	0.144	-0.171
-673.135	-44.493	-0.243	-0.123
-672.120	45.496	0.159	-0.149
-671.105	-200.000	-0.004	-0.107
-670.091	-90.414	-0.124	0.036
-669.076	-74.067	-0.326	0.120
-668.062	-66.779	0.152	0.061
-667.047	-200.000	-0.032	0.231
-666.032	-124.666	-0.155	-0.024
-665.018	248.859	-0.010	-0.017
-664.003	-31.261	0.315	-0.180
-662.989	407.098	-0.046	0.098
-661.974	-104.146	-0.520	-0.123
-660.959	-26.139	0.176	0.105
-659.945	-16.538	-0.142	0.092
-658.930	-50.231	0.089	0.043
-657.916	97.659	-0.150	-0.175
-656.901	380.263	-0.040	0.083
-655.886	-200.000	0.008	-0.144
-654.872	-51.594	0.136	-0.064
-653.857	639.054	-0.005	-0.014
-652.843	-200.000	-0.054	-0.300
-651.828	-73.669	-0.317	-0.117
-650.814	311.375	0.048	-0.091
-649.799	-147.566	-0.093	-0.008
-648.784	109.213	0.042	-0.051
-647.770	-83.703	-0.372	-0.121
-646.755	-20.939	-0.079	-0.049
-645.741	183.494	-0.225	-0.338
-644.726	177.171	-0.161	0.238
-643.711	-23.555	0.212	-0.129
-642.697	21.895	0.205	0.169
-641.682	61.959	0.113	-0.114
-640.668	40.346	-0.184	-0.168
-639.653	12.587	0.184	0.144
-638.638	436.320	-0.095	-0.209
-637.624	800.000	-0.077	-0.217
-636.609	-31.187	-0.266	-0.152
-635.595	-200.000	0.027	0.264
-634.580	-144.479	-0.275	-0.026
-633.565	-200.000	0.005	0.164
-632.551	44.420	0.115	-0.107
-631.536	-107.009	0.095	-0.021
-630.522	-2.925	-0.170	-0.120
-629.507	-188.276	0.169	-0.002
-628.492	-48.451	0.295	-0.144
-627.478	800.000	0.022	0.079
-626.463	800.000	0.014	-0.051
-625.449	800.000	-0.037	-0.146
-624.434	-131.532	0.215	0.029
-623.419	39.146	0.025	-0.023
-622.405	-69.150	-0.344	-0.134
-621.390	29.785	0.136	-0.118
-620.376	800.000	-0.162	0.547
-619.361	278.179	0.094	-0.170
-618.346	160.721	-0.040	-0.056
-617.332	-42.294	0.142	0.073
-616.317	-71.025	0.093	-0.036
-615.303	204.172	-0.133	-0.209
-614.288	-152.638	0.080	-0.006
-613.273	-111.852	0.046	0.009
-612.259	-120.624	0.121	0.021
-611.244	-200.000	-0.030	-0.179
-610.230	226.950	0.176	0.290
-609.215	-107.321	0.262	-0.058
-608.201	-126.506	-0.089	-0.013
-607.186	-200.000	-0.008	0.311
-606.171	519.431	0.035	0.084
-605.157	-132.989	0.565	0.073
-604.142	79.749	0.200	0.218
-603.128	-200.000	0.001	-0.141
-602.113	176.371	-0.157	0.231
-601.098	-46.367	-0.095	-0.047
-600.084	-83.475	-0.203	-0.066
-599.069	-75.054	0.388	-0.141
-598.055	281.772	0.066	0.119
-597.040	-43.721	-0.178	0.091
-596.025	-135.839	-0.474	0.057
-595.011	-105.283	0.220	-0.051
-593.996	332.339	0.060	-0.118
-592.982	-98.638	0.167	-0.043
-591.967	102.976	0.231	-0.274
-590.952	-200.000	0.040	-0.190
-589.938	67.275	-0.153	0.158
-588.923	60.780	-0.080	0.081
-587.909	800.000	0.070	0.209
-586.894	-1.834	0.066	0.047
-585.879	-200.000	-0.019	-0.237
-584.865	-182.965	-0.332	0.006
-583.850	-200.000	-0.026	-0.273
-582.836	-200.000	-0.017	0.152
-581.821	-146.766	-0.247	0.022
-580.806	-200.000	-0.009	0.200
-579.792	-151.704	-0.099	-0.007
-578.777	57.534	-0.350	0.346
-577.763	800.000	-0.015	-0.043
-576.748	41.168	0.169	-0.155
-575.733	-114.924	-0.351	-0.068
-574.719	510.172	-0.134	-0.316
-573.704	-200.000	0.012	-0.090
-572.690	102.141	-0.061	0.071
-571.675	-200.000	0.000	0.022
-570.661	-108.628	0.176	0.038
-569.646	-60.633	-0.289	0.124
-568.631	-10.545	0.164	-0.110
-567.617	-105.486	0.146	-0.034
-566.602	-200.000	0.003	0.175
-565.588	-200.000	-0.019	-0.373
-564.573	33.997	0.220	-0.194
-563.558	281.745	-0.069	0.125
-562.544	-126.067	-0.131	-0.020
-561.529	-161.355	0.279	0.015
-560.515	-50.047	0.136	-0.065
-559.500	-80.410	0.303	0.102
-558.485	374.742	-0.166	0.343
-557.471	-9.306	-0.177	-0.119
-556.456	382.235	0.128	0.265
-555.442	639.673	0.044	-0.114
-554.427	289.608	0.068	0.125
-553.412	9.607	-0.269	-0.206
-552.398	800.000	0.049	0.158
-551.383	-106.800	0.115	-0.026
-550.369	-184.380	-0.093	0.002
-549.354	800.000	-0.063	-0.226
-548.339	800.000	0.057	-0.201
-547.325	308.080	-0.149	-0.280
-546.310	546.005	0.092	-0.222
-545.296	-84.936	0.306	-0.097
-544.281	-12.575	0.087	-0.057
-543.266	82.106	-0.079	0.086
-542.252	-200.000	0.038	-0.389
-541.237	-37.968	-0.176	-0.094
-540.223	-104.742	0.269	-0.062
-539.208	-200.000	-0.022	0.197
-538.193	101.135	-0.037	-0.044
-537.179	454.180	0.130	-0.291
-536.164	84.460	-0.185	0.205
-535.150	494.270	-0.097	0.225
-534.135	-139.424	-0.274	-0.030
-533.121	-200.000	0.011	0.165
-532.106	-72.221	0.171	0.064
-531.091	-200.000	0.076	-0.354
-530.077	-78.899	-0.284	0.098
-529.062	-15.585	0.268	-0.173
-528.048	273.943	-0.095	-0.169
-527.033	-200.000	0.104	-0.505
-526.018	172.326	0.117	-0.169
-525.004	219.337	-0.072	0.117
-523.989	-200.000	-0.024	-0.120
-522.975	-43.543	-0.325	0.166
-521.960	6.494	-0.254	-0.191
-520.945	-99.636	0.247	-0.063
-519.931	164.376	-0.223	0.317
-518.916	596.537	0.055	-0.136
-517.902	-70.444	-0.185	-0.071
-516.887	-93.122	-0.156	0.044
-515.872	-200.000	0.001	-0.459
-514.858	697.712	-0.044	0.117
-513.843	800.000	0.087	0.318
-512.829	93.804	-0.141	0.161
-511.814	-31.331	0.151	0.086
-510.799	178.219	-0.180	-0.266
-509.785	-200.000	0.017	-0.379
-508.770	-14.545	0.214	0.139
-507.756	800.000	-0.025	0.103
-506.741	-200.000	0.033	0.159
-505.726	-138.814	-0.231	0.025
-504.712	-200.000	0.024	0.238
-503.697	425.634	0.138	-0.300
-502.683	286.856	-0.181	-0.330
-501.668	-97.054	-0.197	-0.052
-500.653	-100.123	-0.018	-0.004
-499.639	-62.685	-0.106	-0.045
-498.624	6.846	-0.072	-0.054
-497.610	-63.282	0.198	-0.082
-496.595	-145.313	0.067	-0.006
-495.581	-82.962	-0.094	0.031
-494.566	19.832	0.032	0.026
-493.551	-36.675	0.399	0.216
-492.537	-110.781	0.209	-0.043
-491.522	-10.510	-0.126	-0.084
-490.508	3.702	-0.104	0.076
-489.493	-67.585	0.137	0.054
-488.478	-134.747	0.131	0.016
-487.464	-125.956	-0.302	0.046
-486.449	-15.667	-0.206	-0.133
-485.435	-88.306	0.074	0.022
-484.420	-50.759	0.305	-0.144
-483.405	69.206	0.025	-0.026
-482.391	-100.020	0.179	0.045
-481.376	439.516	-0.076	-0.167
-480.362	79.891	0.250	-0.271
-479.347	-200.000	-0.025	-0.150
-478.332	-200.000	0.007	0.052
-477.318	800.000	-0.167	-0.523
-476.303	198.126	-0.160	-0.247
-475.289	-82.019	0.135	0.044
-474.274	216.029	-0.052	0.084
-473.259	150.636	-0.240	-0.328
-472.245	-42.928	-0.409	-0.209
-471.230	-114.570	0.137	0.026
-470.216	323.474	0.077	-0.147
-469.201	800.000	0.084	0.287
-468.186	-180.373	-0.270	0.006
-467.172	-53.460	-0.077	-0.035
-466.157	-31.974	0.256	-0.144
-465.143	-29.990	-0.176	0.101
-464.128	116.821	0.246	0.305
-463.113	170.172	-0.147	-0.212
-462.099	58.612	-0.101	0.100
-461.084	-68.739	0.278	0.108
-460.070	-155.176	0.280	-0.018
-459.055	-136.604	-0.445	0.052
-458.040	800.000	-0.077	0.267
-457.026	-154.588	-0.150	-0.010
-456.011	42.344	-0.073	0.067
-454.997	-200.000	0.039	0.230
-453.982	-200.000	-0.093	0.411
-452.968	754.355	-0.098	0.266
-451.953	-98.973	-0.123	0.031
-450.938	-54.355	0.366	0.167
-449.924	-68.523	0.299	-0.117
-448.909	800.000	-0.089	-0.291
-447.895	248.148	0.184	-0.313
-446.880	-200.000	0.039	-0.242
-445.865	88.531	0.351	0.393
-444.851	800.000	-0.053	0.150
-443.836	-200.000	-0.009	-0.231
-442.822	8.995	0.324	-0.246
-441.807	-66.512	-0.243	0.097
-440.792	-3.703	0.044	0.031
-439.778	-167.451	-0.150	-0.006
-438.763	12.342	0.225	-0.175
-437.749	-200.000	0.016	-0.126
-436.734	-9.882	-0.144	-0.096
-435.719	118.071	-0.054	-0.067
-434.705	-139.564	-0.054	0.006
-433.690	39.402	0.123	0.111
-432.676	105.249	-0.048	-0.057
-431.661	326.017	0.087	-0.167
-430.646	-29.009	0.256	-0.148
-429.632	85.364	0.172	-0.190
-428.617	378.842	0.062	-0.129
-427.603	-89.517	0.204	0.060
-426.588	373.745	0.130	0.266
-425.573	800.000	-0.134	0.426
-424.559	-200.000	-0.002	-0.207
-423.544	-145.226	-0.335	0.030
-422.530	158.754	-0.123	-0.172
-421.515	90.370	-0.097	0.109
-420.500	146.645	-0.037	0.050
-419.486	132.020	0.159	0.206
-418.471	800.000	0.193	0.564
-417.457	176.479	-0.074	0.108
-416.442	182.817	-0.185	-0.275
-415.428	-105.555	0.272	-0.062
-414.413	-108.985	-0.210	-0.045
-413.398	-71.554	0.104	-0.039
-412.384	38.779	-0.258	0.231
-411.369	109.872	0.207	0.250
-410.355	575.370	-0.249	0.610
-409.340	128.566	0.168	0.216
-408.325	124.732	0.037	-0.047
-407.311	100.928	-0.174	-0.203
-406.296	-117.704	-0.171	-0.031
-405.282	-200.000	-0.023	0.221
-404.267	311.625	-0.160	0.302
-403.252	-38.685	0.238	0.126
-402.238	662.251	-0.087	-0.224
-401.223	800.000	-0.043	-0.175
-400.209	0.976	0.104	0.075
-399.194	4.801	-0.039	-0.028
-398.179	106.487	0.230	0.274
-397.165	129.481	-0.169	0.217
-396.150	195.340	-0.140	0.214
-395.136	-200.000	-0.003	-0.029
-394.121	-14.879	0.262	-0.169
-393.106	-200.000	-0.011	-0.502
-392.092	-72.004	-0.164	0.061
-391.077	800.000	-0.093	0.294
-390.063	800.000	-0.109	0.314
-389.048	308.298	-0.052	-0.097
-388.033	-16.216	-0.033	-0.021
-387.019	-200.000	0.055	0.352
-386.004	229.285	-0.156	0.256
-384.990	10.610	-0.175	-0.134
-383.975	-180.823	-0.136	-0.003
-382.960	460.480	0.061	0.137
-381.946	-83.312	-0.495	0.160
-380.931	800.000	-0.093	-0.365
-379.917	-200.000	0.047	-0.217
-378.902	327.101	-0.148	0.284
-377.888	800.000	-0.059	-0.182
-376.873	-10.931	-0.155	0.103
-375.858	-200.000	0.016	0.124
-374.844	-188.005	-0.128	0.002
-373.829	63.834	-0.212	-0.214
-372.815	8.866	-0.045	0.034
-371.800	-200.000	0.023	-0.144
-370.785	-82.285	0.145	0.047
-369.771	-200.000	0.019	-0.227
-368.756	1.018	0.039	-0.028
-367.742	-191.639	-0.218	-0.002
-366.727	-28.233	0.199	-0.115
-365.712	-64.593	-0.384	-0.156
-364.698	-84.553	-0.095	0.030
-363.683	-61.644	0.203	-0.085
-362.669	358.492	0.059	-0.117
-361.654	410.387	0.085	0.181
-360.639	16.235	-0.085	0.067
-359.625	151.673	-0.180	0.246
-358.610	-36.799	0.062	0.033
-357.596	141.348	0.065	0.087
-356.581	-144.223	0.538	-0.050
-355.566	-82.539	0.194	-0.063
-354.552	36.575	-0.402	0.356
-353.537	800.000	0.068	-0.194
-352.523	-110.870	0.417	0.086
-351.508	800.000	0.060	-0.252
-350.493	-48.099	-0.324	-0.157
-349.479	128.254	0.048	-0.062
-348.464	36.454	0.135	0.119
-347.450	-125.445	-0.061	0.009
-346.435	489.684	-0.020	-0.047
-345.420	133.908	-0.188	0.244
-344.406	800.000	-0.005	0.015
-343.391	-200.000	-0.025	-0.329
-342.377	800.000	0.040	0.119
-341.362	-131.385	0.359	-0.048
-340.348	-31.362	-0.084	-0.048
-339.333	100.584	-0.269	0.313
-338.318	168.820	-0.152	-0.217
-337.304	-200.000	-0.019	-0.084
-336.289	-103.047	0.169	-0.040
-335.275	40.322	-0.124	0.112
-334.260	637.338	-0.065	0.167
-333.245	800.000	-0.041	0.128
-332.231	-124.022	0.258	-0.041
-331.216	-33.607	0.244	0.135
-330.202	118.175	-0.076	0.094
-329.187	-63.023	0.183	-0.076
-328.172	-44.393	0.101	0.051
-327.158	184.476	-0.226	-0.335
-326.143	-141.353	-0.401	-0.041
-325.129	334.411	-0.123	-0.239
-324.114	346.440	-0.144	-0.283
-323.099	-82.825	0.293	-0.095
-322.085	-200.000	-0.048	0.456
-321.070	-88.731	-0.361	0.108
-320.056	-200.000	0.051	-0.279
-319.041	100.902	-0.109	-0.126
-318.026	-200.000	0.256	0.001
-317.012	23.362	0.266	-0.219
-315.997	-25.648	-0.014	-0.008
-314.983	800.000	0.097	0.279
-313.968	-164.266	-0.316	-0.015
-312.953	635.170	0.052	0.132
-311.939	800.000	0.106	0.373
-310.924	-189.474	-0.021	-0.000
-309.910	557.440	0.034	0.082
-308.895	143.289	0.268	0.357
-307.880	-137.048	-0.191	0.022
-306.866	-139.733	0.178	0.019
-305.851	-21.014	0.024	0.015
-304.837	-108.534	-0.118	-0.025
-303.822	286.174	-0.226	-0.407
-302.807	-103.829	0.183	-0.043
-301.793	-113.932	0.631	0.123
-300.778	267.304	-0.057	-0.099
-299.764	-200.000	-0.045	0.349
-298.749	-119.519	0.045	-0.008
-297.735	544.023	-0.195	0.465
-296.720	505.451	0.040	-0.093
-295.705	-152.711	0.232	0.017
-294.691	-41.533	0.160	0.082
-293.676	-11.395	0.018	-0.012
-292.662	165.148	0.192	0.271
-291.647	531.996	-0.046	0.109
-290.632	70.407	0.227	0.235
-289.618	-132.670	-0.159	-0.020
-288.603	41.875	0.080	-0.072
-287.589	46.774	-0.107	-0.099
-286.574	-157.169	0.179	0.011
-285.559	-95.633	-0.088	0.023
-284.545	-108.720	-0.200	0.043
-283.530	800.000	-0.032	0.112
-282.516	409.400	-0.139	-0.295
-281.501	-141.483	-0.217	-0.022
-280.486	-64.516	0.074	-0.030
-279.472	3.924	0.419	0.306
-278.457	-68.407	0.177	-0.069
-277.443	-82.173	0.312	0.102
-276.428	97.316	-0.196	0.225
-275.413	-95.070	0.165	-0.045
-274.399	-114.851	0.277	0.053
-273.384	788.135	0.055	0.150
-272.370	-200.000	0.007	-0.072
-271.355	800.000	-0.050	-0.204
-270.340	-200.000	-0.012	-0.347
-269.326	126.219	0.107	0.135
-268.311	62.828	0.234	0.234
-267.297	800.000	0.059	0.258
-266.282	16.104	-0.057	-0.045
-265.267	800.000	0.056	-0.232
-264.253	-139.119	-0.174	-0.019
-263.238	-136.450	0.120	-0.014
-262.224	-200.000	0.007	0.125
-261.209	-200.000	-0.005	-0.418
-260.195	-71.945	0.250	0.093
-259.180	-137.936	0.241	-0.027
-258.165	82.699	0.111	0.121
-257.151	-58.958	0.346	-0.149
-256.136	-44.729	0.196	0.097
-255.122	-136.000	-0.155	-0.018
-254.107	-85.588	0.136	-0.042
-253.092	-200.000	-0.007	-0.035
-252.078	-25.359	-0.255	-0.151
-251.063	800.000	0.071	-0.281
-250.049	195.503	-0.055	0.083
-249.034	5.425	-0.186	-0.137
-248.019	155.120	-0.045	-0.062
-247.005	-166.451	0.082	0.003
-245.990	-110.200	-0.139	0.029
-244.976	-110.394	0.402	0.083
-243.961	352.923	-0.051	0.100
-242.946	228.181	-0.088	-0.143
-241.932	800.000	-0.049	-0.171
-240.917	-191.539	-0.250	-0.002
-239.903	13.677	-0.060	0.046
-238.888	-75.512	-0.239	0.085
-237.873	800.000	-0.012	0.037
-236.859	137.963	-0.117	0.153
-235.844	-83.988	-0.215	0.068
-234.830	-141.548	0.159	-0.016
-233.815	779.526	-0.113	0.308
-232.800	800.000	0.063	0.201
-231.786	20.479	0.168	-0.136
-230.771	-200.000	0.006	0.369
-229.757	-168.623	-0.358	0.014
-228.742	-24.757	-0.117	-0.069
-227.727	291.967	0.215	-0.390
-226.713	135.004	-0.138	-0.179
-225.698	800.000	0.011	-0.041
-224.684	-200.000	-0.021	-0.175
-223.669	545.324	-0.062	-0.147
-222.655	116.430	-0.217	0.265
-221.640	800.000	0.054	-0.192
-220.625	800.000	0.065	-0.281
-219.611	57.607	-0.120	0.117
-218.596	311.964	-0.160	0.300
-217.582	101.290	0.045	-0.053
-216.567	-10.226	0.148	0.098
-215.552	-11.486	-0.042	-0.028
-214.538	-200.000	0.004	0.089
-213.523	-62.278	0.200	0.083
-212.509	58.484	0.285	0.279
-211.494	152.862	-0.144	-0.196
-210.479	800.000	0.049	0.178
-209.465	-142.734	0.180	-0.017
-208.450	-12.520	0.238	0.155
-207.436	-200.000	-0.021	0.256
-206.421	455.372	-0.109	-0.242
-205.406	-105.432	-0.129	-0.029
-204.392	321.440	-0.135	0.256
-203.377	138.274	0.108	0.141
-202.363	800.000	-0.082	-0.306
-201.348	800.000	-0.028	0.122
-200.333	282.697	0.152	0.272
-199.319	-200.000	-0.064	0.335
-198.304	-83.030	-0.399	0.128
-197.290	-200.000	0.014	-0.072
-196.275	-200.000	0.061	-0.326
-195.260	-200.000	-0.000	0.096
-194.246	635.654	0.138	-0.350
-193.231	61.980	-0.158	0.157
-192.217	267.751	-0.239	-0.418
-191.202	8.424	0.191	0.143
-190.187	156.482	0.128	-0.176
-189.173	800.000	-0.051	-0.145
-188.158	-65.623	0.173	0.069
-187.144	62.405	-0.171	-0.170
-186.129	-200.000	-0.013	-0.071
-185.114	-98.600	0.182	-0.046
-184.100	-200.000	-0.026	-0.125
-183.085	-151.143	-0.356	0.027
-182.071	93.914	-0.225	-0.254
-181.056	-94.218	0.246	0.067
-180.042	-90.682	-0.261	0.075
-179.027	-68.103	0.240	-0.093
-178.012	-200.000	-0.071	-0.348
-176.998	-200.000	-0.020	0.246
-175.983	-86.264	-0.162	-0.050
-174.969	-200.000	-0.071	0.432
-173.954	-88.758	0.351	-0.104
-172.939	365.053	0.050	-0.101
-171.925	-143.650	0.152	-0.014
-170.910	147.679	-0.059	-0.079
-169.896	-45.577	-0.116	-0.057
-168.881	-11.570	-0.121	0.079
-167.866	379.819	0.077	0.157
-166.852	-14.878	0.152	0.097
-165.837	24.827	0.118	0.097
-164.823	-52.144	0.130	0.060
-163.808	-46.443	-0.252	0.123
-162.793	-12.977	-0.251	0.163
-161.779	-89.831	0.150	0.044
-160.764	134.072	0.083	-0.107
-159.750	173.633	-0.141	0.202
-158.735	-69.093	-0.515	0.197
-157.720	273.800	0.130	-0.229
-156.706	-118.593	0.217	0.038
-155.691	38.846	-0.148	0.131
-154.677	234.800	0.202	0.331
-153.662	-37.300	0.056	0.030
-152.647	-59.559	0.152	-0.065
-151.633	-143.005	0.205	0.020
-150.618	372.266	0.032	0.064
-149.604	508.779	-0.082	0.188
-148.589	-200.000	0.006	-0.264
-147.574	211.327	-0.121	0.189
-146.560	-112.108	-0.193	0.039
-145.545	-200.000	0.048	0.404
-144.531	103.975	0.285	0.333
-143.516	35.774	-0.245	-0.214
-142.502	-200.000	-0.009	-0.095
-141.487	234.446	0.159	0.260
-140.472	100.011	0.107	-0.124
-139.458	-200.000	-0.014	-0.151
-138.443	800.000	-0.065	0.217
-137.429	-200.000	-0.031	0.204
-136.414	-120.389	0.172	0.029
-135.399	-200.000	0.012	0.134
-134.385	-21.401	0.149	0.090
-133.370	38.228	0.219	-0.194
-132.356	338.460	0.082	0.158
-131.341	490.166	-0.099	-0.225
-130.326	61.747	0.245	-0.243
-129.312	121.658	-0.138	-0.171
-128.297	-58.286	-0.240	-0.104
-127.283	-177.046	-0.076	-0.002
-126.268	-179.817	-0.419	0.009
-125.253	33.021	-0.181	0.156
-124.239	-200.000	0.016	0.102
-123.224	15.383	-0.228	0.178
-122.210	-21.753	-0.032	0.019
-121.195	135.141	0.131	0.170
-120.180	177.949	-0.176	-0.255
-119.166	232.787	-0.162	-0.265
-118.151	-100.598	0.113	-0.028
-117.137	-11.348	-0.123	-0.080
-116.122	800.000	-0.023	-0.073
-115.107	-70.082	0.098	-0.037
-114.093	213.888	-0.098	0.154
-113.078	509.786	0.145	-0.334
-112.064	73.917	-0.228	-0.237
-111.049	-200.000	-0.015	-0.266
-110.034	-200.000	-0.014	0.238
-109.020	-100.051	-0.405	-0.100
-108.005	-107.870	0.122	0.026
-106.991	-107.964	-0.169	0.037
-105.976	351.637	0.028	-0.055
-104.962	-105.825	-0.181	-0.041
-103.947	141.030	-0.119	0.157
-102.932	176.003	-0.128	0.185
-101.918	-200.000	0.006	0.035
-100.903	800.000	-0.033	0.122
-99.889	85.750	0.158	-0.172
-98.874	-200.000	0.013	0.185
-97.859	329.253	0.011	0.021
-96.845	800.000	0.153	0.557
-95.830	139.807	0.361	-0.473
-94.816	-93.957	0.160	-0.044
-93.801	303.257	0.111	0.204
-92.786	800.000	0.043	-0.156
-91.772	46.393	0.358	0.330
-90.757	364.336	0.117	-0.233
-89.743	442.751	-0.120	-0.260
-88.728	-108.604	0.121	0.026
-87.713	-13.198	-0.256	0.165
-86.699	-192.553	-0.400	-0.004
-85.684	-63.883	-0.240	-0.098
-84.670	322.688	-0.120	0.227
-83.655	-128.775	0.175	-0.024
-82.640	-200.000	-0.013	0.217
-81.626	-200.000	-0.016	0.073
-80.611	-140.971	0.058	-0.006
-79.597	18.721	-0.061	0.048
-78.582	66.440	-0.115	0.116
-77.567	90.418	-0.115	-0.127
-76.553	-200.000	0.007	0.140
-75.538	800.000	-0.072	0.253
-74.524	-36.469	-0.185	-0.099
-73.509	4.233	-0.181	0.131
-72.494	-78.186	0.417	0.142
-71.480	-200.000	0.013	0.259
-70.465	-200.000	-0.016	0.081
-69.451	-163.533	0.226	-0.011
-68.436	800.000	-0.046	-0.142
-67.422	-62.142	0.195	0.081
-66.407	800.000	-0.108	0.419
-65.392	-200.000	0.029	-0.260
-64.378	17.610	0.333	0.262
-63.363	-5.836	0.217	0.148
-62.349	-46.337	0.382	-0.186
-61.334	44.535	-0.883	-0.804
-60.319	652.315	0.164	0.416
-59.305	-200.000	0.050	-0.935
-58.290	108.391	0.496	0.587
-57.276	676.746	0.642	1.654
-56.261	-200.000	94.950	559.188
-55.246	629.201	1384.393	3468.984
-54.232	185.094	2608.737	3836.166
-53.217	121.930	2198.898	2719.365
-52.203	46.791	1647.587	1517.005
-51.188	38.410	1381.197	1219.715
-50.173	35.078	1338.325	1161.638
-49.159	55.298	1386.366	1328.653
-48.144	59.600	1404.812	1372.831
-47.130	38.653	1359.409	1201.773
-46.115	35.095	1341.096	1163.957
-45.100	34.816	1336.577	1158.303
-44.086	34.745	1334.225	1155.787
-43.071	34.699	1331.679	1153.255
-42.057	34.748	1329.187	1151.350
-41.042	34.861	1327.645	1150.649
-40.027	34.767	1326.174	1148.765
-39.013	34.754	1324.284	1147.004
-37.998	34.826	1322.194	1145.577
-36.984	34.784	1320.556	1143.864
-35.969	34.913	1318.255	1142.594
-34.954	34.898	1317.178	1141.526
-33.940	34.916	1315.763	1140.359
-32.925	35.003	1314.012	1139.315
-31.911	35.049	1312.812	1138.504
-30.896	34.957	1310.970	1136.315
-29.881	34.977	1310.130	1135.662
-28.867	35.109	1308.373	1134.875
-27.852	35.051	1307.176	1133.449
-26.838	35.145	1305.491	1132.498
-25.823	35.044	1304.195	1130.735
-24.809	34.926	1303.351	1129.260
-23.794	34.964	1301.961	1128.235
-22.779	35.024	1300.169	1126.990
-21.765	35.019	1298.899	1125.816
-20.750	34.943	1297.620	1124.215
-19.736	34.829	1296.617	1122.635
-18.721	34.850	1295.143	1121.432
-17.706	34.888	1293.554	1120.235
-16.692	34.870	1292.626	1119.282
-15.677	34.883	1291.324	1118.184
-14.663	34.803	1290.306	1116.792
-13.648	34.810	1289.103	1115.751
-12.633	34.824	1288.215	1115.016
-11.619	34.762	1287.457	1113.958
-10.604	34.734	1286.946	1113.305
-9.590	34.853	1285.621	1112.811
-8.575	34.796	1284.751	1111.680
-7.560	34.754	1284.076	1110.808
-6.546	34.782	1283.290	1110.245
-5.531	34.778	1282.202	1109.235
-4.517	34.742	1281.173	1108.093
-3.502	34.793	1280.266	1107.562
-2.487	34.862	1279.233	1107.027
-1.473	34.796	1275.525	1103.391
-0.458	33.565	1260.117	1082.989
0.556	31.710	1240.884	1040.705
1.571	27.396	1244.025	1019.153
2.586	25.748	1257.705	1020.934
3.600	24.010	1245.422	1001.106
4.615	17.906	1172.026	909.608
5.629	9.192	1094.713	805.983
6.644	4.966	1073.529	769.490
7.659	4.489	1071.226	765.419
8.673	4.397	1069.386	763.587
9.688	4.390	1068.077	762.549
10.702	4.989	1066.941	764.612
11.717	10.736	1075.067	798.698
12.731	19.159	1087.077	849.264
13.746	22.238	1090.191	866.825
14.761	22.089	1088.895	864.982
15.775	21.024	1087.909	858.881
16.790	20.016	1085.427	851.893
17.804	19.493	1083.574	847.795
18.819	19.113	1082.996	845.401
19.834	18.974	1082.090	843.936
20.848	18.858	1081.578	842.892
21.863	18.540	1081.317	841.056
22.877	18.470	1080.264	839.822
23.892	18.439	1079.240	838.799
24.907	18.320	1078.755	837.765
25.921	18.469	1077.608	837.529
26.936	18.385	1076.333	836.050
27.950	18.654	1074.125	835.574
28.965	18.625	1073.733	835.053
29.980	18.878	1071.442	834.424
30.994	18.760	1070.855	833.325
32.009	18.755	1070.237	832.744
33.023	18.800	1068.842	831.802
34.038	18.771	1067.519	830.559
35.053	18.588	1066.446	828.767
36.067	18.607	1065.602	828.131
37.082	18.675	1064.935	827.866
38.096	18.861	1064.050	828.002
39.111	18.820	1063.466	827.276
40.126	18.592	1062.578	825.416
41.140	18.214	1060.690	822.060
42.155	18.163	1059.438	820.770
43.169	18.159	1058.267	819.771
44.184	18.201	1057.028	818.940
45.199	18.184	1056.426	818.319
46.213	18.281	1055.740	818.182
47.228	18.424	1054.969	818.193
48.242	18.622	1053.595	818.001
49.257	18.417	1053.124	816.585
50.271	18.638	1051.687	816.449
51.286	18.528	1051.197	815.474
52.301	18.564	1050.085	814.709
53.315	18.545	1048.970	813.683
54.330	18.325	1048.051	811.854
55.344	18.308	1047.060	810.936
56.359	18.387	1046.278	810.633
57.374	18.212	1045.608	809.214
58.388	18.048	1044.662	807.636
59.403	18.102	1044.034	807.334
60.417	18.139	1042.884	806.547
61.432	18.146	1042.427	806.154
62.447	18.010	1041.209	804.502
63.461	18.087	1040.370	804.144
64.476	18.003	1039.437	802.955
65.490	17.978	1038.491	802.038
66.505	17.937	1037.894	801.314
67.520	17.961	1037.286	800.884
68.534	18.126	1036.073	800.653
69.549	17.889	1035.941	799.366
70.563	17.880	1035.072	798.586
71.578	17.746	1034.322	797.308
72.593	17.693	1033.075	796.031
73.607	17.724	1032.383	795.569
74.622	17.749	1031.878	795.230
75.636	17.824	1031.730	795.393
76.651	17.854	1030.792	794.739
77.666	17.847	1030.605	794.491
78.680	17.905	1029.430	793.787
79.695	17.881	1028.580	792.947
80.709	18.081	1028.219	793.528
81.724	18.189	1027.639	793.509
82.739	18.279	1026.183	792.733
83.753	18.408	1026.761	793.709
84.768	18.625	1025.789	793.891
85.782	18.882	1024.588	794.079
86.797	18.732	1023.973	792.839
87.812	18.513	1023.259	791.206
88.826	18.680	1021.390	790.458
89.841	18.785	1021.001	790.570
90.855	18.768	1020.098	789.724
91.870	18.831	1019.474	789.461
92.884	18.812	1018.071	788.219
93.899	18.791	1017.289	787.448
94.914	18.933	1017.122	787.899
95.928	18.824	1015.963	786.431
96.943	18.744	1014.748	785.055
97.957	18.752	1013.569	784.110
98.972	18.658	1013.190	783.321
99.987	18.860	1011.903	783.177
101.001	18.617	1011.520	781.703
102.016	18.705	1010.192	781.011
103.030	18.733	1009.381	780.438
104.045	18.688	1008.930	779.818
105.060	18.592	1007.832	778.464
106.074	18.332	1006.736	776.368
107.089	18.146	1005.451	774.469
108.103	18.132	1004.225	773.393
109.118	18.090	1003.439	772.526
110.133	18.093	1002.330	771.619
111.147	17.957	1001.826	770.551
112.162	18.182	1000.745	770.664
113.176	18.238	1000.567	770.709
114.191	18.321	999.668	770.322
115.206	18.262	998.945	769.434
116.220	18.141	997.852	767.981
117.235	18.227	997.198	767.796
118.249	18.017	996.438	766.200
119.264	17.998	995.188	765.087
120.279	18.049	994.366	764.616
121.293	17.957	993.496	763.468
122.308	17.967	992.682	762.817
123.322	17.958	991.201	761.571
124.337	17.888	990.657	760.774
125.352	17.827	989.412	759.481
126.366	17.787	988.094	758.224
127.381	17.833	987.393	757.824
128.395	17.898	986.796	757.588
129.410	18.015	985.812	757.281
130.424	18.165	984.988	757.246
131.439	18.119	984.685	756.742
132.454	18.317	983.716	756.807
133.468	18.313	983.036	756.198
134.483	18.294	981.835	755.124
135.497	18.222	981.221	754.268
136.512	18.260	980.536	753.840
137.527	18.324	979.717	753.427
138.541	18.320	978.905	752.720
139.556	18.413	978.399	752.671
140.570	18.587	977.561	752.724
141.585	18.696	977.012	752.712
142.600	18.757	976.121	752.226
143.614	18.848	974.977	751.677
144.629	18.981	974.388	751.737
145.643	18.742	973.494	749.937
146.658	18.588	972.032	748.075
147.673	18.413	971.226	746.624
148.687	18.358	970.159	745.496
149.702	18.362	969.099	744.636
150.716	18.333	968.471	743.962
151.731	18.397	967.613	743.512
152.746	18.343	967.044	742.776
153.760	18.404	966.311	742.411
154.775	18.506	965.858	742.440
155.789	18.477	965.526	741.992
156.804	18.576	964.267	741.389
157.819	18.823	963.501	741.802
158.833	18.749	963.244	741.217
159.848	18.935	962.532	741.405
160.862	18.819	961.232	739.838
161.877	18.552	959.848	737.561
162.892	18.402	958.766	736.019
163.906	18.208	957.961	734.506
164.921	18.388	956.962	734.444
165.935	18.504	956.705	734.682
166.950	18.580	955.743	734.200
167.964	18.490	954.916	733.117
168.979	18.430	953.553	731.750
169.994	18.435	952.734	731.077
171.008	18.531	952.126	730.955
172.023	18.863	951.289	731.660
173.037	18.769	951.274	731.186
174.052	18.725	950.196	730.106
175.067	18.392	949.727	728.264
176.081	18.301	948.674	727.005
177.096	18.271	948.341	726.560
178.110	18.367	947.449	726.218
179.125	18.500	946.862	726.269
180.140	18.501	946.341	725.808
181.154	18.614	946.707	726.504
182.169	18.826	945.514	726.421
183.183	18.697	945.198	725.568
184.198	18.838	944.169	725.310
185.213	18.733	943.682	724.429
186.227	18.858	943.138	724.473
187.242	18.892	942.384	723.974
188.256	18.953	941.677	723.624
189.271	19.146	941.268	724.057
190.286	18.735	940.241	721.474
191.300	18.367	938.750	718.725
192.315	18.278	938.514	718.105
193.329	18.297	937.986	717.715
194.344	18.524	937.461	718.203
195.359	18.512	936.963	717.707
196.373	18.676	936.466	717.951
197.388	18.922	936.183	718.697
198.402	18.947	935.846	718.480
199.417	19.184	935.000	718.757
200.432	19.374	934.688	719.244
201.446	19.356	934.005	718.580
202.461	19.301	933.725	718.071
203.475	19.210	933.247	717.265
204.490	18.987	932.116	715.404
205.504	18.972	930.940	714.373
206.519	18.913	930.305	713.578
207.534	18.958	929.339	712.964
208.548	18.865	929.226	712.426
209.563	18.868	928.452	711.781
210.577	18.926	927.880	711.522
211.592	19.248	927.067	712.165
212.607	19.373	926.316	712.040
213.621	19.225	925.408	710.669
214.636	19.157	924.950	709.977
215.650	19.240	923.703	709.299
216.665	19.333	923.566	709.510
217.680	19.494	922.264	709.110
218.694	19.463	922.007	708.722
219.709	19.458	921.590	708.319
220.723	19.379	920.714	707.257
221.738	19.201	920.062	705.964
222.753	19.314	919.241	705.737
223.767	19.354	918.928	705.596
224.782	19.646	918.370	706.299
225.796	19.514	918.269	705.622
226.811	19.415	917.204	704.334
227.826	19.309	916.350	703.184
228.840	19.294	915.424	702.350
229.855	19.287	914.611	701.636
230.869	19.311	913.973	701.183
231.884	19.205	913.355	700.214
232.899	19.181	912.770	699.607
233.913	19.053	911.724	698.224
234.928	19.017	911.288	697.682
235.942	19.075	910.294	697.095
236.957	19.070	910.015	696.800
237.972	19.065	909.446	696.284
238.986	19.190	908.688	696.145
240.001	19.160	908.065	695.485
241.015	19.047	907.750	694.727
242.030	19.297	907.369	695.384
243.045	19.279	906.889	694.881
244.059	19.307	906.139	694.355
245.074	19.366	905.250	693.853
246.088	19.555	904.965	694.331
247.103	19.629	904.233	694.007
248.117	19.864	903.903	694.635
249.132	19.886	903.809	694.591
250.147	20.132	902.948	694.853
251.161	20.235	902.680	694.998
252.176	20.190	901.980	694.217
253.190	20.233	901.244	693.761
254.205	20.232	900.439	693.077
255.220	20.201	899.787	692.389
256.234	20.130	899.468	691.800
257.249	20.170	898.878	691.442
258.263	20.046	898.087	690.281
259.278	20.178	896.530	689.548
260.293	20.158	896.740	689.568
261.307	20.362	896.094	689.821
262.322	20.424	895.218	689.332
263.336	20.406	894.603	688.727
264.351	20.362	893.708	687.800
265.366	20.458	892.980	687.562
266.380	20.299	892.733	686.680
267.395	20.251	891.942	685.823
268.409	20.207	891.218	685.029
269.424	20.114	890.169	683.797
270.439	20.161	889.233	683.201
271.453	19.951	889.044	682.170
272.468	19.875	888.540	681.421
273.482	20.095	887.989	681.807
274.497	20.002	887.166	680.746
275.512	20.013	886.746	680.408
276.526	20.003	886.108	679.818
277.541	20.143	885.427	679.784
278.555	20.318	884.946	680.043
279.570	20.525	884.734	680.631
280.585	20.416	883.880	679.485
281.599	20.369	882.671	678.315
282.614	20.305	882.215	677.652
283.628	20.119	881.760	676.517
284.643	20.218	880.606	675.960
285.657	20.169	880.235	675.421
286.672	20.265	879.463	675.146
287.687	20.266	878.756	674.546
288.701	20.237	878.539	674.205
289.716	20.383	877.782	674.133
290.730	20.329	877.247	673.452
291.745	20.422	876.486	673.168
292.760	20.418	876.480	673.090
293.774	20.480	875.718	672.685
294.789	20.476	875.128	672.155
295.803	20.213	874.347	670.480
296.818	20.187	873.666	669.798
297.833	20.221	872.931	669.308
298.847	20.445	871.910	669.328
299.862	20.454	871.421	668.929
300.876	20.619	871.206	669.341
301.891	20.695	870.586	669.096
302.906	20.956	869.964	669.563
303.920	20.867	870.025	669.207
304.935	20.924	869.453	668.926
305.949	20.701	869.168	667.792
306.964	20.651	867.885	666.558
307.979	20.649	867.524	666.212
308.993	20.738	867.314	666.334
310.008	20.819	866.262	665.776
311.022	20.776	865.775	665.178
312.037	20.620	865.055	663.972
313.052	20.514	864.184	662.838
314.066	20.416	863.421	661.824
315.081	20.340	863.332	661.404
316.095	20.551	862.245	661.317
317.110	20.374	862.079	660.457
318.125	20.400	861.355	659.943
319.139	20.454	860.666	659.563
320.154	20.406	860.654	659.313
321.168	20.574	859.892	659.306
322.183	20.546	859.197	658.608
323.197	20.632	858.851	658.611
324.212	20.657	858.420	658.320
325.227	20.650	857.254	657.341
326.241	20.517	856.980	656.570
327.256	20.474	856.300	655.826
328.270	20.537	855.681	655.534
329.285	20.538	855.059	655.002
330.300	20.575	854.613	654.743
331.314	20.463	854.208	653.954
332.329	20.739	853.982	654.761
333.343	20.892	853.471	654.887
334.358	20.719	853.285	654.033
335.373	20.925	852.532	654.171
336.387	20.925	852.435	654.041
337.402	20.930	852.298	653.895
338.416	21.149	851.687	654.192
339.431	21.077	851.547	653.756
340.446	21.170	851.314	653.868
341.460	21.288	850.877	653.916
342.475	21.394	850.439	653.917
343.489	21.455	849.822	653.614
344.504	21.381	849.556	653.075
345.519	21.473	849.464	653.288
346.533	21.498	848.501	652.585
347.548	21.117	847.480	650.322
348.562	20.937	847.293	649.449
349.577	20.861	846.049	648.155
350.592	20.895	845.657	647.924
351.606	20.866	844.971	647.235
352.621	21.034	843.993	647.050
353.635	20.903	843.640	646.238
354.650	21.094	842.947	646.357
355.665	21.060	842.284	645.664
356.679	21.183	842.038	645.873
357.694	21.204	840.988	645.091
358.708	21.125	840.904	644.677
359.723	21.166	840.126	644.174
360.738	21.036	839.881	643.451
361.752	21.248	839.131	643.599
362.767	21.432	838.497	643.733
363.781	21.415	838.252	643.425
364.796	21.524	838.216	643.742
365.810	21.809	837.483	644.170
366.825	21.851	836.933	643.842
367.840	21.706	836.343	642.801
368.854	21.700	835.807	642.312
369.869	21.472	835.570	641.236
370.883	21.586	835.028	641.182
371.898	21.773	834.748	641.594
372.913	21.765	834.133	641.035
373.927	21.756	833.255	640.271
374.942	21.727	833.090	639.980
375.956	21.938	832.617	640.332
376.971	22.073	831.972	640.272
377.986	21.922	832.143	639.794
379.000	21.925	831.432	639.202
380.015	21.983	830.738	638.825
381.029	21.972	830.184	638.301
382.044	21.857	829.664	637.426
383.059	21.940	828.750	636.971
384.073	21.936	828.240	636.505
385.088	21.637	827.745	634.987
386.102	21.587	827.032	634.201
387.117	21.617	826.722	634.017
388.132	21.679	825.549	633.284
389.146	21.687	825.330	633.089
390.161	21.909	825.220	633.751
391.175	21.940	824.700	633.406
392.190	21.893	823.429	632.205
393.205	21.721	823.451	631.546
394.219	21.682	822.768	630.828
395.234	21.542	822.701	630.217
396.248	21.457	821.832	629.187
397.263	21.400	821.695	628.824
398.278	21.417	820.938	628.248
399.292	21.339	821.052	628.000
400.307	21.594	820.073	628.109
401.321	21.525	819.631	627.470
402.336	21.715	819.405	627.922
403.350	21.789	818.941	627.776
404.365	21.935	818.635	628.008
405.380	21.894	818.411	627.634
406.394	22.101	817.719	627.789
407.409	22.076	817.722	627.644
408.423	22.125	817.280	627.424
409.438	22.305	816.439	627.368
410.453	22.366	816.391	627.491
411.467	22.261	816.085	626.825
412.482	22.494	815.478	627.133
413.496	22.420	815.272	626.658
414.511	22.534	814.986	626.787
415.526	22.296	814.241	625.315
416.540	22.380	813.494	624.983
417.555	22.329	813.356	624.638
418.569	22.327	812.957	624.270
419.584	22.323	812.659	623.972
420.599	22.414	811.819	623.596
421.613	159.080	1369.449	1788.517
422.628	138.471	1450.705	1788.647
