DTS Sentinel unit serial number:	SN413079Multiplexer serial number:	ORYXHardware model number:	OX4-SRSoftware version number:	ORYX F/W v4.00 Oryx Data Collector v3.7.2.0data status	okinstallation	princeton_trtdifferential loss correction	single-endedforward channel	channel 1reverse channel	N/Adate	2019/09/18time	06:14:35forward acquisition time	60.00reverse acquisition time	0.00gamma	496.2192k internal	0.2339k external	0.2339temperature offset calibration	0.9976default loss term (dB/km)	0.3790temperature slope calibration	1.0000multiplexer offset coefficient	1.0000multiplexer slope coefficient	1.0000fibre end	0.00T internal ref (°C)	23.22T ext. ref 1 (°C)	0.17T ext. ref 2 (°C)	17.75length (m)	temperature (°C)	Stokes	anti-Stokes-747.200	-108.531	0.056	-0.012
-746.185	277.696	0.216	-0.386
-745.171	-200.000	0.011	0.154
-744.156	-175.824	-0.463	0.012
-743.142	-200.000	0.006	-0.075
-742.127	9.608	-0.241	0.183
-741.112	187.644	-0.140	0.210
-740.098	26.440	-0.171	0.143
-739.083	-141.043	0.143	-0.015
-738.069	-54.411	-0.098	-0.045
-737.054	303.056	0.047	-0.087
-736.039	110.037	0.226	0.272
-735.025	-39.800	0.227	0.119
-734.010	-200.000	-0.021	-0.105
-732.996	800.000	-0.124	-0.459
-731.981	-112.286	0.037	0.008
-730.966	-28.386	-0.184	0.106
-729.952	-15.185	-0.298	-0.191
-728.937	-74.580	0.134	-0.049
-727.923	187.788	0.151	0.226
-726.908	143.705	-0.148	-0.197
-725.894	132.285	0.147	-0.190
-724.879	-200.000	-0.010	-0.325
-723.864	800.000	0.069	0.199
-722.850	-77.760	0.284	-0.098
-721.835	219.321	0.239	0.382
-720.821	-200.000	-0.041	-0.204
-719.806	800.000	-0.045	-0.154
-718.791	-21.183	-0.350	-0.214
-717.777	-117.357	0.195	0.035
-716.762	800.000	-0.068	-0.259
-715.748	767.310	-0.059	0.161
-714.733	-200.000	-0.025	-0.361
-713.718	6.028	0.321	0.238
-712.704	-6.451	-0.115	0.078
-711.689	152.958	0.151	-0.206
-710.675	800.000	0.048	-0.185
-709.660	-108.608	0.024	0.005
-708.645	-56.838	0.105	-0.046
-707.631	800.000	0.066	0.233
-706.616	-37.504	0.164	-0.088
-705.602	-200.000	0.023	0.106
-704.587	364.283	0.162	-0.326
-703.572	-122.148	-0.159	-0.026
-702.558	-47.367	-0.033	-0.016
-701.543	-71.346	-0.131	-0.049
-700.529	-106.698	-0.123	0.027
-699.514	67.352	0.146	-0.149
-698.499	224.352	-0.150	-0.243
-697.485	-1.269	0.045	0.032
-696.470	-85.128	-0.226	0.071
-695.456	-200.000	-0.025	0.181
-694.441	430.238	0.128	-0.278
-693.426	182.617	0.163	0.241
-692.412	800.000	-0.127	-0.388
-691.397	-200.000	0.039	-0.236
-690.383	-26.324	0.214	0.126
-689.368	-110.869	-0.211	-0.043
-688.354	-76.940	-0.159	0.055
-687.339	-18.856	-0.350	-0.218
-686.324	-130.742	-0.249	0.034
-685.310	-200.000	0.027	0.252
-684.295	-142.611	-0.127	-0.012
-683.281	215.982	0.093	-0.148
-682.266	371.882	-0.132	-0.267
-681.251	348.087	-0.128	-0.253
-680.237	11.310	0.166	-0.127
-679.222	73.730	0.154	-0.161
-678.208	34.173	0.176	0.154
-677.193	496.736	-0.049	-0.112
-676.178	-200.000	0.044	0.242
-675.164	-14.217	-0.214	-0.138
-674.149	115.769	-0.125	-0.153
-673.135	-200.000	-0.038	0.181
-672.120	84.968	0.199	0.218
-671.105	-46.648	0.137	-0.067
-670.091	672.936	-0.034	-0.087
-669.076	-16.636	0.439	0.278
-668.062	304.907	-0.104	-0.193
-667.047	-158.022	0.190	-0.011
-666.032	430.259	-0.140	-0.303
-665.018	781.899	0.070	0.191
-664.003	239.283	0.060	-0.099
-662.989	-107.006	0.221	0.049
-661.974	-97.364	-0.245	0.064
-660.959	-104.607	0.254	-0.059
-659.945	5.923	-0.404	-0.299
-658.930	487.179	0.007	0.016
-657.916	24.417	0.316	-0.261
-656.901	360.623	0.092	-0.183
-655.886	-111.631	-0.119	-0.024
-654.872	-55.982	0.096	-0.043
-653.857	-200.000	0.059	0.300
-652.843	800.000	0.018	0.076
-651.828	95.998	0.148	0.168
-650.814	-135.935	-0.271	-0.032
-649.799	-156.405	-0.185	-0.012
-648.784	229.778	0.023	-0.038
-647.770	-200.000	0.056	-0.332
-646.755	217.883	-0.241	-0.384
-645.741	311.341	-0.011	-0.021
-644.726	800.000	-0.033	-0.108
-643.711	-3.179	0.142	0.099
-642.697	-181.753	0.113	0.002
-641.682	-17.625	0.164	0.103
-640.668	-2.042	-0.216	-0.152
-639.653	47.495	-0.086	-0.080
-638.638	-3.349	-0.146	-0.102
-637.624	-86.730	-0.163	0.050
-636.609	-62.395	-0.069	-0.029
-635.595	193.059	0.195	-0.294
-634.580	-135.058	-0.068	-0.008
-633.565	-107.249	0.057	-0.012
-632.551	74.198	-0.140	-0.146
-631.536	800.000	0.107	-0.323
-630.522	-93.183	0.226	-0.063
-629.507	-192.966	-0.264	0.002
-628.492	638.778	0.011	-0.027
-627.478	-200.000	0.052	-0.367
-626.463	-60.834	-0.174	0.073
-625.449	-90.257	0.182	-0.053
-624.434	220.643	-0.127	-0.204
-623.419	168.673	-0.155	0.221
-622.405	110.048	-0.143	0.171
-621.390	60.598	0.082	-0.081
-620.376	-71.209	-0.229	-0.086
-619.361	-63.578	0.364	-0.149
-618.346	-84.025	0.291	-0.092
-617.332	-1.456	-0.306	0.215
-616.317	-160.846	0.136	-0.007
-615.303	-1.674	-0.135	0.095
-614.288	589.655	-0.054	-0.132
-613.273	-60.972	-0.114	0.048
-612.259	-200.000	-0.021	0.128
-611.244	-120.156	0.305	0.052
-610.230	209.147	-0.226	0.354
-609.215	16.464	-0.289	-0.227
-608.201	-200.000	-0.030	-0.206
-607.186	120.198	0.028	-0.035
-606.171	289.555	-0.043	-0.078
-605.157	-65.879	0.211	-0.084
-604.142	-142.462	0.187	0.018
-603.128	-0.893	-0.198	0.140
-602.113	-99.795	-0.415	0.104
-601.098	120.827	0.086	0.107
-600.084	-61.106	-0.081	0.034
-599.069	800.000	0.044	-0.172
-598.055	-200.000	-0.019	-0.450
-597.040	-200.000	0.025	-0.221
-596.025	774.177	0.037	-0.101
-595.011	-25.893	-0.331	-0.194
-593.996	-136.429	-0.046	0.005
-592.982	-27.773	-0.108	-0.062
-591.967	-87.485	0.264	0.080
-590.952	5.820	-0.164	-0.121
-589.938	-160.682	-0.281	-0.015
-588.923	-200.000	-0.010	0.288
-587.909	31.275	-0.269	0.231
-586.894	102.291	-0.137	0.160
-585.879	114.521	0.173	-0.210
-584.865	-64.704	-0.186	-0.075
-583.850	-200.000	0.028	0.151
-582.836	-200.000	-0.038	0.220
-581.821	-113.761	-0.333	-0.065
-580.806	800.000	-0.078	-0.226
-579.792	-16.678	0.149	-0.094
-578.777	622.987	0.141	0.353
-577.763	434.478	-0.133	-0.287
-576.748	-200.000	0.005	0.184
-575.733	7.426	0.041	0.031
-574.719	-200.000	0.060	0.301
-573.704	800.000	0.052	0.210
-572.690	800.000	-0.069	-0.259
-571.675	-200.000	0.055	-0.462
-570.661	20.792	0.149	-0.120
-569.646	800.000	-0.024	0.088
-568.631	43.438	-0.130	0.119
-567.617	-200.000	-0.031	0.181
-566.602	52.703	-0.150	-0.142
-565.588	21.560	0.314	-0.255
-564.573	-200.000	-0.021	0.257
-563.558	42.100	0.080	0.072
-562.544	800.000	0.026	0.112
-561.529	257.404	-0.147	-0.251
-560.515	-200.000	0.002	0.116
-559.500	800.000	-0.066	-0.279
-558.485	-101.256	0.286	-0.069
-557.471	105.177	-0.125	0.147
-556.456	-31.622	0.276	0.154
-555.442	157.423	-0.158	0.218
-554.427	-6.036	0.013	-0.009
-553.412	-22.919	0.061	0.037
-552.398	-73.993	-0.324	0.117
-551.383	-44.391	0.217	0.108
-550.369	-21.529	0.312	-0.189
-549.354	-200.000	-0.020	-0.095
-548.339	276.027	0.196	0.346
-547.325	-200.000	-0.002	0.027
-546.310	9.041	-0.048	0.036
-545.296	-200.000	-0.022	0.189
-544.281	-200.000	-0.018	-0.218
-543.266	35.256	0.082	-0.072
-542.252	-141.366	0.245	-0.025
-541.237	20.394	-0.039	0.031
-540.223	-15.556	0.118	0.075
-539.208	-200.000	0.027	-0.181
-538.193	800.000	-0.040	0.150
-537.179	-109.418	0.106	0.022
-536.164	-200.000	-0.330	-0.001
-535.150	-72.490	0.198	0.073
-534.135	-200.000	-0.004	-0.329
-533.121	-78.111	-0.201	0.069
-532.106	-200.000	-0.089	0.458
-531.091	800.000	0.051	0.179
-530.077	272.505	-0.101	0.178
-529.062	-37.214	-0.298	-0.158
-528.048	-200.000	-0.022	-0.126
-527.033	261.948	-0.060	0.104
-526.018	-200.000	0.037	-0.184
-525.004	-200.000	-0.022	0.314
-523.989	-200.000	-0.003	-0.077
-522.975	-29.940	0.140	0.079
-521.960	325.321	0.079	-0.150
-520.945	-151.580	-0.085	-0.006
-519.931	9.753	-0.132	0.099
-518.916	-81.695	-0.184	-0.060
-517.902	240.429	0.049	0.081
-516.887	335.455	-0.110	-0.213
-515.872	-68.163	0.349	-0.135
-514.858	282.147	-0.107	-0.191
-513.843	-45.409	0.013	0.006
-512.829	238.049	-0.037	0.061
-511.814	-200.000	0.026	-0.420
-510.799	800.000	-0.030	-0.120
-509.785	-122.697	-0.170	-0.027
-508.770	800.000	0.030	0.094
-507.756	18.275	0.134	0.107
-506.741	-31.538	0.513	-0.287
-505.726	268.528	0.012	-0.020
-504.712	-200.000	-0.027	0.183
-503.697	-153.909	-0.153	0.010
-502.683	-200.000	-0.080	-0.552
-501.668	-30.984	-0.226	-0.127
-500.653	-172.028	-0.183	0.006
-499.639	322.698	-0.074	0.140
-498.624	225.135	-0.145	-0.233
-497.610	800.000	0.052	-0.143
-496.595	800.000	0.061	-0.172
-495.581	6.174	-0.132	-0.097
-494.566	-118.426	-0.163	-0.029
-493.551	800.000	0.125	0.358
-492.537	-64.011	-0.257	0.104
-491.522	-33.599	-0.125	-0.069
-490.508	-100.630	0.255	0.063
-489.493	22.183	-0.084	-0.068
-488.478	556.205	0.052	-0.125
-487.464	-14.593	-0.379	0.242
-486.449	196.346	0.177	-0.268
-485.435	800.000	-0.060	0.185
-484.420	187.455	-0.238	-0.352
-483.405	-59.798	0.174	0.074
-482.391	800.000	-0.049	0.143
-481.376	-20.005	0.179	-0.110
-480.362	245.020	-0.084	0.140
-479.347	-28.425	-0.182	-0.104
-478.332	-74.513	0.189	-0.068
-477.318	399.488	-0.141	-0.293
-476.303	36.062	-0.239	-0.209
-475.289	-89.423	-0.073	0.021
-474.274	-46.288	-0.107	0.052
-473.259	-17.326	0.091	-0.057
-472.245	10.310	0.066	0.050
-471.230	-200.000	0.022	-0.374
-470.216	-200.000	-0.018	-0.283
-469.201	421.177	-0.052	-0.110
-468.186	7.782	-0.241	0.179
-467.172	-200.000	-0.038	0.389
-466.157	-39.165	0.146	0.076
-465.143	110.416	-0.024	-0.029
-464.128	-65.818	0.154	0.061
-463.113	530.400	-0.080	-0.188
-462.099	-75.995	0.139	0.049
-461.084	-200.000	-0.024	-0.168
-460.070	-19.911	-0.048	0.029
-459.055	-90.059	0.092	0.027
-458.040	-13.990	0.050	0.032
-457.026	253.548	0.040	0.068
-456.011	-121.866	-0.301	-0.049
-454.997	-64.309	0.263	-0.106
-453.982	-1.430	-0.219	0.153
-452.968	-79.983	-0.189	0.063
-451.953	-22.115	0.029	0.017
-450.938	-64.456	0.278	-0.112
-449.924	-111.447	-0.165	0.033
-448.909	-200.000	-0.062	-0.278
-447.895	67.322	0.094	-0.095
-446.880	135.956	0.151	-0.195
-445.865	-200.000	-0.031	-0.223
-444.851	-64.490	0.281	0.113
-443.836	35.055	-0.080	0.069
-442.822	800.000	-0.095	0.335
-441.807	-200.000	0.044	0.272
-440.792	80.667	-0.258	0.275
-439.778	288.797	-0.095	-0.171
-438.763	-26.101	0.206	-0.120
-437.749	-8.980	0.498	-0.331
-436.734	1.467	-0.455	-0.324
-435.719	-93.617	0.193	0.053
-434.705	54.577	-0.164	-0.157
-433.690	-200.000	-0.009	0.152
-432.676	-73.335	0.080	0.029
-431.661	247.747	0.051	0.086
-430.646	188.630	0.044	0.066
-429.632	108.235	0.182	0.215
-428.617	268.087	-0.197	-0.343
-427.603	22.480	0.123	-0.100
-426.588	-59.504	-0.167	-0.071
-425.573	-200.000	0.022	0.247
-424.559	-200.000	0.008	0.176
-423.544	334.599	0.186	-0.357
-422.530	-45.631	-0.169	0.083
-421.515	83.337	0.356	0.384
-420.500	-200.000	0.032	-0.211
-419.486	220.373	0.242	-0.384
-418.471	-200.000	0.198	-0.001
-417.457	-162.996	0.079	0.004
-416.442	-152.753	0.261	0.018
-415.428	-95.468	-0.217	0.058
-414.413	2.334	0.079	0.056
-413.398	4.442	0.355	-0.258
-412.384	39.729	0.118	0.105
-411.369	196.951	0.173	0.260
-410.355	36.432	-0.140	-0.122
-409.340	530.619	0.175	-0.409
-408.325	-200.000	-0.026	0.251
-407.311	433.758	0.083	-0.179
-406.296	390.698	0.054	-0.111
-405.282	44.271	-0.215	0.195
-404.267	255.473	0.121	0.206
-403.252	21.876	0.168	-0.135
-402.238	515.792	0.128	0.297
-401.223	286.252	0.127	0.227
-400.209	-164.947	-0.181	0.008
-399.194	267.773	0.127	-0.221
-398.179	276.299	0.023	0.040
-397.165	76.651	0.212	0.223
-396.150	-9.715	0.177	-0.117
-395.136	270.751	0.072	-0.126
-394.121	-200.000	0.011	-0.127
-393.106	-188.627	0.235	-0.003
-392.092	800.000	-0.043	-0.154
-391.077	-16.443	0.211	0.132
-390.063	800.000	-0.100	0.284
-389.048	105.900	0.210	0.245
-388.033	284.763	0.099	-0.176
-387.019	-195.010	-0.144	-0.001
-386.004	458.914	-0.079	0.174
-384.990	-30.650	0.134	0.075
-383.975	109.664	0.115	0.136
-382.960	-138.209	-0.126	-0.014
-381.946	-200.000	-0.048	-0.222
-380.931	-200.000	-0.016	-0.105
-379.917	800.000	0.087	0.337
-378.902	-200.000	-0.045	-0.227
-377.888	112.094	-0.119	-0.142
-376.873	30.084	0.120	-0.101
-375.858	224.753	-0.141	-0.226
-374.844	-122.945	0.235	0.037
-373.829	-200.000	-0.018	-0.297
-372.815	-138.465	-0.384	0.042
-371.800	117.547	-0.214	0.260
-370.785	-9.886	0.257	0.169
-369.771	98.339	0.100	0.114
-368.756	800.000	-0.114	0.334
-367.742	295.185	0.117	-0.212
-366.727	-34.092	0.076	-0.041
-365.712	514.408	0.141	0.324
-364.698	-21.732	-0.098	0.059
-363.683	-109.545	-0.032	0.007
-362.669	110.810	-0.154	-0.183
-361.654	9.977	0.049	-0.037
-360.639	800.000	0.139	-0.382
-359.625	-96.270	-0.249	-0.065
-358.610	622.598	0.092	0.228
-357.596	800.000	0.043	0.170
-356.581	775.861	-0.024	0.066
-355.566	4.630	-0.310	0.225
-354.552	283.429	-0.166	0.295
-353.537	-200.000	0.045	-0.465
-352.523	413.049	0.056	-0.118
-351.508	231.652	-0.154	-0.249
-350.493	197.244	0.173	0.261
-349.479	-136.252	-0.266	0.031
-348.464	267.694	0.102	-0.177
-347.450	-114.713	0.230	-0.043
-346.435	68.006	-0.008	-0.008
-345.420	-72.201	0.064	0.024
-344.406	-87.333	-0.303	0.091
-343.391	-105.271	0.337	-0.076
-342.377	234.649	-0.123	-0.199
-341.362	148.007	-0.079	0.106
-340.348	-44.051	0.069	0.034
-339.333	-48.406	0.272	-0.130
-338.318	-200.000	-0.036	0.161
-337.304	-40.441	0.214	0.110
-336.289	12.411	-0.310	-0.236
-335.275	-147.056	0.177	0.015
-334.260	800.000	-0.050	-0.165
-333.245	-200.000	-0.016	0.258
-332.231	318.812	-0.246	0.460
-331.216	800.000	0.096	0.340
-330.202	82.956	0.106	0.114
-329.187	-10.446	-0.261	0.170
-328.172	173.936	0.088	0.126
-327.158	-113.796	0.161	0.031
-326.143	647.849	0.049	-0.123
-325.129	371.525	0.116	-0.233
-324.114	1.056	-0.278	-0.197
-323.099	110.319	0.183	-0.216
-322.085	-89.961	-0.257	-0.074
-321.070	-95.987	-0.266	0.070
-320.056	654.813	-0.176	0.447
-319.041	384.471	0.081	-0.165
-318.026	-200.000	-0.069	0.352
-317.012	30.174	0.181	0.152
-315.997	164.755	-0.149	0.207
-314.983	385.875	0.104	-0.212
-313.968	800.000	-0.021	-0.078
-312.953	-200.000	0.018	-0.087
-311.939	-200.000	-0.013	0.139
-310.924	35.374	-0.132	-0.114
-309.910	-79.123	-0.177	0.059
-308.895	800.000	-0.033	0.112
-307.880	-95.287	-0.233	-0.062
-306.866	32.487	0.199	0.170
-305.851	656.476	-0.113	-0.286
-304.837	62.242	0.048	0.047
-303.822	-125.546	0.152	0.023
-302.807	-110.731	0.049	0.010
-301.793	-200.000	0.014	0.120
-300.778	-69.351	0.213	-0.081
-299.764	-109.956	-0.035	0.007
-298.749	204.661	-0.129	-0.198
-297.735	86.880	0.218	0.237
-296.720	132.396	-0.092	-0.117
-295.705	-200.000	0.004	-0.191
-294.691	-200.000	-0.016	0.176
-293.676	-95.068	0.194	-0.052
-292.662	125.233	-0.042	-0.053
-291.647	413.941	-0.207	-0.434
-290.632	-105.770	-0.213	-0.047
-289.618	-39.199	0.154	-0.080
-288.603	562.337	-0.075	0.178
-287.589	-22.083	0.234	0.140
-286.574	47.440	-0.201	0.184
-285.559	267.379	0.126	-0.216
-284.545	40.680	-0.133	0.118
-283.530	-32.577	-0.104	-0.057
-282.516	360.586	0.083	-0.163
-281.501	-200.000	-0.032	-0.320
-280.486	445.726	0.034	-0.074
-279.472	-132.220	-0.335	0.043
-278.457	-150.252	0.183	-0.014
-277.443	-36.338	0.107	-0.057
-276.428	-200.000	0.021	-0.162
-275.413	-113.869	-0.225	0.043
-274.399	-69.411	0.223	0.084
-273.384	-200.000	0.025	0.227
-272.370	-160.772	-0.125	0.007
-271.355	-14.092	-0.083	-0.053
-270.340	349.627	-0.031	-0.060
-269.326	-169.841	-0.334	0.012
-268.311	793.461	0.068	-0.183
-267.297	800.000	-0.051	0.143
-266.282	-139.832	-0.326	-0.034
-265.267	48.060	0.322	0.296
-264.253	-200.000	-0.000	0.195
-263.238	-105.739	-0.126	-0.028
-262.224	-200.000	-0.005	0.295
-261.209	22.454	0.289	0.233
-260.195	-21.417	0.126	-0.076
-259.180	800.000	-0.073	0.209
-258.165	260.710	0.142	0.241
-257.151	598.819	-0.249	-0.607
-256.136	427.498	-0.061	0.129
-255.122	60.520	-0.266	0.259
-254.107	-200.000	0.048	0.470
-253.092	-95.851	-0.115	-0.030
-252.078	371.340	0.088	0.175
-251.063	-69.342	0.245	-0.093
-250.049	-200.000	-0.003	0.149
-249.034	-200.000	0.037	0.229
-248.019	-200.000	0.014	-0.195
-247.005	-200.000	0.011	-0.096
-245.990	-48.431	-0.154	0.073
-244.976	-87.676	0.431	0.128
-243.961	800.000	0.025	0.069
-242.946	-200.000	-0.017	-0.189
-241.932	447.201	-0.256	-0.555
-240.917	2.832	-0.107	-0.076
-239.903	-148.122	0.200	0.016
-238.888	475.752	-0.088	0.196
-237.873	-200.000	-0.002	0.311
-236.859	151.224	-0.129	-0.172
-235.844	800.000	-0.134	-0.411
-234.830	-200.000	0.013	0.142
-233.815	-173.812	-0.249	-0.007
-232.800	-9.088	0.374	-0.246
-231.786	-33.644	-0.039	0.021
-230.771	-75.223	-0.286	0.100
-229.757	-200.000	0.012	0.281
-228.742	4.015	0.111	-0.080
-227.727	713.749	-0.060	0.158
-226.713	303.790	0.083	-0.152
-225.698	258.923	-0.082	0.139
-224.684	77.317	0.433	0.453
-223.669	-51.109	-0.151	0.069
-222.655	-99.617	-0.381	0.094
-221.640	743.834	-0.023	-0.061
-220.625	-200.000	-0.034	0.210
-219.611	-200.000	-0.037	-0.181
-218.596	800.000	0.054	0.179
-217.582	-200.000	-0.043	-0.277
-216.567	-119.089	-0.347	0.060
-215.552	-175.640	0.475	0.013
-214.538	38.500	-0.285	0.250
-213.523	-200.000	0.044	-0.260
-212.509	-200.000	0.006	-0.060
-211.494	-200.000	-0.040	0.236
-210.479	27.517	0.226	-0.187
-209.465	-200.000	0.064	0.340
-208.450	-200.000	-0.026	0.133
-207.436	-200.000	0.021	-0.210
-206.421	166.904	-0.191	0.266
-205.406	800.000	-0.033	-0.143
-204.392	202.730	-0.149	0.226
-203.377	81.289	-0.118	0.125
-202.363	800.000	0.138	0.438
-201.348	-128.239	0.504	0.071
-200.333	446.440	0.095	-0.206
-199.319	-61.922	-0.308	0.127
-198.304	-147.160	0.534	0.045
-197.290	84.484	-0.209	0.225
-196.275	507.350	0.064	-0.146
-195.260	-34.929	0.307	-0.165
-194.246	-60.509	0.299	-0.125
-193.231	800.000	-0.096	0.385
-192.217	9.046	0.131	0.097
-191.202	29.017	0.121	0.101
-190.187	-108.933	0.452	0.095
-189.173	357.697	-0.143	-0.280
-188.158	-23.481	0.289	0.170
-187.144	-200.000	-0.021	-0.347
-186.129	-70.531	-0.486	-0.180
-185.114	330.010	0.111	0.209
-184.100	800.000	-0.111	0.321
-183.085	-116.249	-0.072	0.013
-182.071	122.095	-0.202	0.247
-181.056	-148.767	0.220	-0.018
-180.042	-187.370	0.352	-0.005
-179.027	-68.616	0.039	0.015
-178.012	-28.491	0.125	0.071
-176.998	46.475	-0.075	0.069
-175.983	-11.005	-0.134	-0.087
-174.969	-200.000	-0.014	0.247
-173.954	-48.655	0.421	-0.199
-172.939	-40.085	0.246	0.126
-171.925	-33.341	-0.383	-0.208
-170.910	-180.940	0.060	0.001
-169.896	800.000	0.031	-0.110
-168.881	145.061	0.098	0.128
-167.866	-116.531	0.152	0.028
-166.852	178.331	-0.176	0.252
-165.837	203.449	-0.103	0.156
-164.823	-200.000	-0.044	-0.265
-163.808	432.434	-0.111	0.236
-162.793	-200.000	0.005	-0.211
-161.779	179.019	-0.212	0.303
-160.764	86.070	-0.096	-0.104
-159.750	-65.909	0.368	-0.144
-158.735	-129.686	-0.074	0.010
-157.720	-112.628	0.236	-0.046
-156.706	-200.000	-0.000	-0.199
-155.691	555.505	-0.062	-0.146
-154.677	-200.000	-0.005	0.065
-153.662	-200.000	0.037	0.252
-152.647	-159.215	0.288	-0.016
-151.633	-200.000	-0.001	0.150
-150.618	157.220	0.106	0.144
-149.604	-138.166	0.043	-0.005
-148.589	45.098	0.031	0.028
-147.574	127.157	-0.171	-0.212
-146.560	-76.108	0.089	0.031
-145.545	-1.710	0.221	-0.152
-144.531	613.789	0.046	-0.113
-143.516	-200.000	0.042	0.317
-142.502	-200.000	0.022	-0.503
-141.487	-200.000	-0.045	0.284
-140.472	-23.844	0.139	0.081
-139.458	12.679	-0.409	-0.309
-138.443	10.320	-0.191	-0.142
-137.429	72.439	0.117	0.120
-136.414	177.426	-0.104	0.149
-135.399	80.949	-0.262	0.277
-134.385	11.830	0.057	0.043
-133.370	800.000	0.008	0.024
-132.356	-200.000	-0.020	0.119
-131.341	800.000	-0.035	-0.140
-130.326	-81.672	-0.209	0.067
-129.312	144.122	0.088	0.116
-128.297	11.759	-0.131	0.099
-127.283	287.845	-0.106	0.188
-126.268	-200.000	0.061	0.308
-125.253	-129.012	0.107	-0.015
-124.239	159.046	-0.126	-0.171
-123.224	-85.350	0.182	-0.056
-122.210	-200.000	-0.022	0.286
-121.195	800.000	0.051	0.197
-120.180	122.736	-0.154	0.189
-119.166	222.439	0.103	0.162
-118.151	800.000	-0.080	-0.298
-117.137	-200.000	-0.032	-0.196
-116.122	11.224	0.300	0.224
-115.107	-62.479	0.112	-0.046
-114.093	-200.000	-0.014	-0.294
-113.078	-95.450	-0.180	-0.047
-112.064	-65.645	0.143	-0.056
-111.049	-85.002	-0.232	0.071
-110.034	-11.132	-0.184	-0.119
-109.020	118.526	0.181	0.218
-108.005	-37.005	0.159	-0.083
-106.991	16.854	0.417	0.323
-105.976	-68.469	-0.275	0.104
-104.962	-200.000	-0.008	0.057
-103.947	125.800	0.328	0.405
-102.932	-70.809	0.128	-0.047
-101.918	-200.000	-0.023	0.209
-100.903	800.000	-0.096	-0.286
-99.889	570.909	0.038	-0.092
-98.874	-56.037	-0.180	0.078
-97.859	-200.000	-0.064	-0.500
-96.845	-108.008	0.201	0.043
-95.830	-200.000	-0.014	0.298
-94.816	-87.562	0.443	0.131
-93.801	699.955	0.119	0.305
-92.786	205.026	0.081	-0.123
-91.772	-133.853	-0.095	0.012
-90.757	18.442	0.203	-0.158
-89.743	-200.000	0.003	0.113
-88.728	800.000	0.044	-0.140
-87.713	31.850	-0.259	0.218
-86.699	-180.935	0.396	0.008
-85.684	217.474	-0.210	-0.327
-84.670	33.460	-0.178	-0.151
-83.655	-200.000	-0.010	-0.106
-82.640	-200.000	-0.033	-0.150
-81.626	-33.174	-0.310	0.168
-80.611	-200.000	0.011	-0.159
-79.597	-36.436	-0.131	0.069
-78.582	-164.327	-0.220	-0.010
-77.567	-104.288	0.170	0.039
-76.553	-75.786	0.188	-0.065
-75.538	260.192	-0.046	-0.078
-74.524	-63.357	0.223	-0.090
-73.509	230.962	-0.111	0.177
-72.494	20.742	0.083	-0.066
-71.480	-200.000	-0.010	0.059
-70.465	230.254	0.064	0.102
-69.451	104.152	0.202	0.232
-68.436	800.000	-0.105	-0.391
-67.422	-140.622	0.094	0.009
-66.407	57.835	-0.274	0.262
-65.392	-200.000	-0.014	0.350
-64.378	263.435	0.081	-0.138
-63.363	-30.088	0.223	-0.124
-62.349	57.741	0.158	-0.151
-61.334	96.152	-1.140	-1.273
-60.319	156.437	0.553	0.745
-59.305	800.000	-0.393	-1.087
-58.290	276.822	0.956	1.659
-57.276	538.559	0.761	1.767
-56.261	-200.000	124.491	645.190
-55.246	404.577	1573.067	3235.303
-54.232	141.661	2734.395	3535.639
-53.217	94.845	2166.429	2405.692
-52.203	34.737	1597.189	1363.031
-51.188	26.386	1340.103	1093.340
-50.173	23.892	1302.572	1048.003
-49.159	51.527	1371.537	1272.043
-48.144	48.349	1383.271	1263.637
-47.130	26.549	1330.967	1086.695
-46.115	23.353	1312.383	1052.527
-45.100	23.120	1307.210	1046.957
-44.086	23.114	1304.173	1044.444
-43.071	23.102	1302.116	1042.686
-42.057	23.045	1300.200	1040.777
-41.042	23.066	1298.780	1039.724
-40.027	23.126	1296.827	1038.467
-39.013	23.107	1295.278	1037.078
-37.998	23.132	1293.002	1035.360
-36.984	23.226	1291.241	1034.457
-35.969	23.180	1289.948	1033.112
-34.954	23.234	1288.305	1032.071
-33.940	23.357	1286.640	1031.412
-32.925	23.241	1285.782	1030.007
-31.911	23.290	1284.063	1028.875
-30.896	23.328	1283.223	1028.380
-29.881	23.428	1280.977	1027.118
-28.867	23.418	1279.913	1026.166
-27.852	23.380	1278.910	1025.104
-26.838	23.469	1277.329	1024.310
-25.823	23.258	1276.141	1022.100
-24.809	23.251	1275.011	1021.114
-23.794	23.245	1273.677	1019.970
-22.779	23.400	1271.523	1019.096
-21.765	23.380	1270.325	1017.978
-20.750	23.210	1269.831	1016.568
-19.736	23.095	1268.457	1014.767
-18.721	23.267	1266.961	1014.516
-17.706	23.141	1266.044	1013.018
-16.692	23.039	1264.936	1011.508
-15.677	23.158	1263.873	1011.300
-14.663	23.088	1262.622	1009.856
-13.648	23.069	1261.635	1008.917
-12.633	23.208	1260.658	1008.891
-11.619	23.250	1259.858	1008.453
-10.604	23.165	1259.225	1007.419
-9.590	23.067	1258.068	1005.898
-8.575	23.036	1257.403	1005.148
-7.560	23.229	1256.237	1005.271
-6.546	23.182	1255.786	1004.606
-5.531	23.123	1254.738	1003.392
-4.517	23.147	1253.977	1002.877
-3.502	23.113	1253.329	1002.130
-2.487	23.226	1251.883	1001.575
-1.473	23.169	1247.600	997.787
-0.458	21.717	1232.658	977.698
0.556	16.917	1217.886	943.141
1.571	13.502	1226.258	930.384
2.586	13.011	1241.726	939.243
3.600	13.175	1229.251	930.645
4.615	9.596	1157.694	857.380
5.629	3.190	1086.762	772.692
6.644	0.449	1069.038	746.472
7.659	0.147	1067.167	743.610
8.673	-0.040	1067.021	742.514
9.688	0.135	1065.085	741.966
10.702	0.334	1062.513	741.090
11.717	4.139	1067.180	763.041
12.731	11.075	1076.785	804.204
13.746	15.665	1081.613	830.465
14.761	16.716	1082.954	836.614
15.775	16.033	1081.063	831.711
16.790	15.034	1079.110	825.213
17.804	14.322	1077.946	820.739
18.819	14.004	1076.739	818.182
19.834	13.781	1075.832	816.326
20.848	13.636	1075.131	815.009
21.863	13.233	1074.420	812.416
22.877	13.210	1072.736	810.958
23.892	13.016	1072.802	809.983
24.907	13.163	1071.830	809.901
25.921	13.025	1071.922	809.223
26.936	13.185	1070.437	808.809
27.950	13.138	1069.449	807.765
28.965	13.281	1068.237	807.477
29.980	13.400	1066.540	806.699
30.994	13.271	1066.123	805.686
32.009	13.353	1065.108	805.247
33.023	13.314	1063.684	803.911
34.038	13.249	1062.677	802.763
35.053	13.313	1061.887	802.403
36.067	13.368	1060.983	801.917
37.082	13.250	1060.099	800.605
38.096	13.347	1059.245	800.360
39.111	13.362	1058.353	799.690
40.126	13.132	1057.605	797.940
41.140	13.206	1056.355	797.282
42.155	13.212	1054.774	796.049
43.169	13.014	1053.956	794.408
44.184	13.121	1053.035	794.159
45.199	13.096	1051.969	793.164
46.213	13.084	1050.749	792.116
47.228	13.300	1049.803	792.368
48.242	13.220	1048.477	790.916
49.257	13.172	1047.902	790.183
50.271	13.250	1046.712	789.585
51.286	13.265	1045.591	788.743
52.301	13.176	1044.974	787.784
53.315	13.220	1044.060	787.233
54.330	13.172	1043.029	786.156
55.344	13.207	1042.166	785.604
56.359	13.325	1040.940	785.173
57.374	13.167	1040.920	784.335
58.388	13.182	1039.828	783.514
59.403	13.208	1038.459	782.540
60.417	13.026	1038.510	781.647
61.432	13.171	1037.256	781.317
62.447	13.072	1036.500	780.211
63.461	13.044	1035.606	779.340
64.476	13.062	1034.932	778.848
65.490	12.978	1034.236	777.859
66.505	13.073	1033.435	777.632
67.520	13.164	1032.786	777.503
68.534	13.130	1031.931	776.631
69.549	13.093	1031.099	775.766
70.563	12.967	1030.386	774.565
71.578	13.027	1029.340	773.993
72.593	13.164	1028.411	773.868
73.607	12.997	1028.006	772.712
74.622	12.863	1027.809	771.869
75.636	13.119	1026.715	772.175
76.651	13.111	1025.957	771.502
77.666	13.005	1025.483	770.582
78.680	12.996	1024.825	769.976
79.695	13.023	1024.398	769.715
80.709	13.034	1023.776	769.231
81.724	13.040	1022.972	768.587
82.739	13.159	1021.991	768.332
83.753	13.369	1020.739	768.299
84.768	13.262	1020.241	767.359
85.782	13.292	1019.556	766.915
86.797	13.213	1018.419	765.627
87.812	13.196	1017.893	765.085
88.826	13.206	1016.407	763.949
89.841	13.147	1015.578	762.985
90.855	13.259	1015.080	763.060
91.870	13.330	1014.291	762.724
92.884	13.375	1013.097	761.968
93.899	13.228	1012.761	760.969
94.914	13.523	1011.243	761.121
95.928	13.470	1010.785	760.464
96.943	13.445	1009.995	759.688
97.957	13.256	1009.201	758.156
98.972	13.320	1008.087	757.547
99.987	13.408	1007.108	757.145
101.001	13.263	1006.520	755.973
102.016	13.339	1005.638	755.591
103.030	13.408	1004.629	755.083
104.045	13.353	1003.952	754.255
105.060	13.251	1003.213	753.168
106.074	13.352	1002.280	752.859
107.089	13.258	1001.239	751.585
108.103	13.250	1000.655	751.044
109.118	13.271	999.016	749.844
110.133	13.150	998.737	749.017
111.147	13.188	997.182	747.958
112.162	13.115	997.083	747.486
113.176	13.335	995.750	747.415
114.191	13.270	995.461	746.839
115.206	13.283	994.573	746.166
116.220	13.160	994.050	745.150
117.235	13.306	992.837	744.834
118.249	13.243	991.969	743.832
119.264	13.179	991.599	743.202
120.279	13.291	990.446	742.776
121.293	13.335	989.638	742.301
122.308	13.209	988.933	741.143
123.322	13.197	987.694	740.097
124.337	13.345	986.790	740.016
125.352	13.176	985.856	738.494
126.366	13.279	984.797	738.096
127.381	13.240	983.873	737.164
128.395	13.191	982.570	735.903
129.410	13.189	982.096	735.472
130.424	13.247	980.802	734.695
131.439	13.367	980.211	734.725
132.454	13.274	979.693	733.858
133.468	13.253	978.656	732.923
134.483	13.196	977.721	731.902
135.497	13.250	976.664	731.285
136.512	13.310	975.896	730.911
137.527	13.332	975.039	730.302
138.541	13.320	974.520	729.797
139.556	13.204	974.289	729.047
140.570	13.439	973.264	729.249
141.585	13.393	971.867	727.938
142.600	13.347	971.289	727.239
143.614	13.553	970.191	727.255
144.629	13.431	969.783	726.349
145.643	13.623	968.399	726.093
146.658	13.486	967.711	724.910
147.673	13.367	966.700	723.570
148.687	13.346	966.020	722.904
149.702	13.376	965.030	722.230
150.716	13.306	964.261	721.285
151.731	13.598	963.732	722.098
152.746	13.367	963.280	720.691
153.760	13.531	962.479	720.742
154.775	13.535	961.668	720.086
155.789	13.491	961.400	719.633
156.804	13.678	959.991	719.326
157.819	13.709	959.522	719.044
158.833	13.644	959.623	718.776
159.848	13.699	958.316	717.968
160.862	13.624	957.278	716.806
161.877	13.463	956.904	715.766
162.892	13.477	955.508	714.716
163.906	13.604	954.797	714.670
164.921	13.480	954.043	713.509
165.935	13.553	953.091	713.047
166.950	13.674	951.738	712.493
167.964	13.559	951.449	711.717
168.979	13.615	950.305	711.040
169.994	13.678	949.005	710.276
171.008	13.663	948.903	710.070
172.023	13.690	948.030	709.470
173.037	13.672	947.502	708.938
174.052	13.746	946.662	708.559
175.067	13.561	946.273	707.418
176.081	13.556	945.726	706.923
177.096	13.669	945.134	706.901
178.110	13.652	943.988	705.907
179.125	13.753	943.479	705.894
180.140	13.761	942.803	705.361
181.154	13.744	942.607	705.080
182.169	13.770	941.713	704.458
183.183	13.824	941.199	704.244
184.198	13.861	940.394	703.734
185.213	13.897	939.545	703.190
186.227	13.899	938.982	702.715
187.242	13.942	938.328	702.343
188.256	13.911	937.882	701.818
189.271	13.818	937.220	700.867
190.286	13.763	936.085	699.726
191.300	13.722	935.232	698.852
192.315	13.673	935.061	698.456
193.329	13.875	934.336	698.705
194.344	13.727	933.878	697.677
195.359	13.886	933.016	697.640
196.373	13.978	932.343	697.461
197.388	13.937	932.182	697.107
198.402	13.911	931.825	696.666
199.417	14.049	931.229	696.738
200.432	14.069	930.465	696.189
201.446	14.163	929.830	696.045
202.461	14.026	929.461	695.137
203.475	14.050	928.604	694.533
204.490	14.159	927.927	694.420
205.504	14.127	926.728	693.328
206.519	14.120	926.254	692.883
207.534	14.137	925.388	692.243
208.548	14.013	925.353	691.641
209.563	14.084	924.444	691.195
210.577	14.179	923.494	690.818
211.592	14.300	922.749	690.702
212.607	14.317	921.691	689.919
213.621	14.173	921.330	688.992
214.636	14.368	920.511	689.125
215.650	14.380	920.110	688.812
216.665	14.458	918.901	688.169
217.680	14.431	918.625	687.791
218.694	14.484	918.075	687.536
219.709	14.319	917.454	686.330
220.723	14.246	916.797	685.477
221.738	14.387	915.597	685.101
222.753	14.374	915.312	684.771
223.767	14.426	914.803	684.544
224.782	14.514	913.926	684.188
225.796	14.562	913.745	684.191
226.811	14.444	913.036	683.113
227.826	14.470	912.269	682.588
228.840	14.504	911.295	681.937
229.855	14.431	910.825	681.225
230.869	14.452	909.937	680.588
231.884	14.589	909.166	680.511
232.899	14.389	908.829	679.382
233.913	14.387	907.653	678.436
234.928	14.485	907.235	678.460
235.942	14.537	906.768	678.263
236.957	14.514	906.083	677.597
237.972	14.478	905.475	676.936
238.986	14.385	904.869	676.047
240.001	14.446	904.662	676.081
241.015	14.394	903.850	675.204
242.030	14.546	903.100	675.199
243.045	14.584	902.385	674.758
244.059	14.693	901.552	674.513
245.074	14.652	900.888	673.792
246.088	14.502	900.762	673.032
247.103	14.601	899.868	672.706
248.117	14.733	899.377	672.810
249.132	14.721	898.543	672.078
250.147	14.826	897.989	672.028
251.161	14.773	897.520	671.404
252.176	14.844	896.718	671.028
253.190	14.910	896.064	670.746
254.205	14.881	895.552	670.186
255.220	14.965	894.734	669.852
256.234	15.042	893.923	669.491
257.249	14.977	893.404	668.785
258.263	14.954	892.566	668.005
259.278	15.028	891.799	667.668
260.293	15.080	891.287	667.433
261.307	15.233	890.481	667.379
262.322	15.084	890.036	666.394
263.336	15.199	889.223	666.185
264.351	15.150	888.472	665.367
265.366	15.069	888.070	664.686
266.380	15.025	887.946	664.361
267.395	15.125	886.753	663.806
268.409	15.146	886.039	663.294
269.424	15.073	885.510	662.551
270.439	15.215	884.430	662.245
271.453	15.247	883.756	661.811
272.468	15.221	883.221	661.248
273.482	15.105	882.958	660.536
274.497	15.187	882.158	660.198
275.512	15.106	881.963	659.678
276.526	15.213	881.162	659.439
277.541	15.308	880.772	659.465
278.555	15.298	880.140	658.895
279.570	15.216	879.643	658.140
280.585	15.349	878.716	657.911
281.599	15.366	877.665	657.132
282.614	15.344	877.067	656.541
283.628	15.401	876.638	656.384
284.643	15.330	875.881	655.481
285.657	15.322	875.644	655.213
286.672	15.484	874.969	655.284
287.687	15.480	874.042	654.515
288.701	15.467	873.752	654.191
289.716	15.460	873.089	653.610
290.730	15.511	872.151	653.046
291.745	15.497	871.660	652.568
292.760	15.542	871.116	652.278
293.774	15.452	870.883	651.696
294.789	15.497	870.004	651.155
295.803	15.596	868.492	650.349
296.818	15.353	868.763	649.555
297.833	15.587	867.712	649.616
298.847	15.611	867.238	649.295
299.862	15.719	866.198	648.875
300.876	15.655	866.170	648.551
301.891	15.623	865.560	647.914
302.906	15.632	865.089	647.537
303.920	15.778	864.704	647.756
304.935	15.829	864.148	647.478
305.949	15.687	863.547	646.423
306.964	15.857	862.593	646.305
307.979	15.963	861.925	646.155
308.993	15.772	861.604	645.125
310.008	15.750	860.958	644.500
311.022	15.790	860.240	644.057
312.037	15.791	859.761	643.647
313.052	15.727	859.051	642.812
314.066	15.866	858.367	642.775
315.081	15.818	858.011	642.268
316.095	15.844	857.442	641.886
317.110	16.054	856.404	641.850
318.125	15.893	856.504	641.254
319.139	15.795	855.993	640.441
320.154	15.691	856.098	640.068
321.168	15.990	854.542	639.986
322.183	15.910	854.449	639.557
323.197	15.907	854.084	639.213
324.212	16.014	853.212	638.911
325.227	15.853	852.961	638.055
326.241	15.926	852.088	637.623
327.256	15.911	851.813	637.302
328.270	15.960	851.224	636.991
329.285	16.024	850.360	636.531
330.300	16.046	849.849	636.173
331.314	16.017	849.179	635.508
332.329	16.062	848.962	635.459
333.343	15.917	848.614	634.596
334.358	15.999	848.129	634.485
335.373	16.019	847.869	634.310
336.387	16.055	847.567	634.163
337.402	16.013	847.432	633.849
338.416	16.143	846.545	633.618
339.431	16.087	846.304	633.171
340.446	16.222	846.068	633.443
341.460	16.187	845.493	632.827
342.475	16.307	844.674	632.606
343.489	16.363	844.267	632.457
344.504	16.524	843.607	632.508
345.519	16.494	843.395	632.182
346.533	16.372	842.902	631.299
347.548	16.218	842.745	630.549
348.562	16.254	842.166	630.198
349.577	16.246	841.721	629.779
350.592	16.302	840.589	629.085
351.606	16.349	840.070	628.814
352.621	16.236	839.436	627.865
353.635	16.300	838.880	627.631
354.650	16.498	837.787	627.490
355.665	16.372	837.315	626.617
356.679	16.390	836.732	626.192
357.694	16.430	836.346	625.995
358.708	16.529	835.476	625.656
359.723	16.447	835.077	624.997
360.738	16.464	834.416	624.510
361.752	16.562	833.635	624.232
362.767	16.474	833.253	623.565
363.781	16.576	832.839	623.576
364.796	16.670	832.157	623.358
365.810	16.837	831.617	623.511
366.825	16.615	831.761	622.747
367.840	16.945	830.907	623.267
368.854	16.595	830.582	621.683
369.869	16.678	830.463	621.843
370.883	16.643	830.082	621.372
371.898	16.641	829.722	621.042
372.913	16.856	828.898	621.159
373.927	16.909	828.063	620.672
374.942	16.956	828.103	620.816
375.956	16.916	827.608	620.246
376.971	16.868	827.289	619.776
377.986	16.854	826.955	619.420
379.000	17.004	826.398	619.495
380.015	17.072	825.778	619.226
381.029	17.017	824.994	618.381
382.044	17.193	824.148	618.332
383.059	17.037	823.819	617.466
384.073	16.947	823.278	616.677
385.088	17.032	822.723	616.513
386.102	16.912	822.216	615.644
387.117	16.916	822.024	615.462
388.132	17.112	820.971	615.330
389.146	17.081	820.259	614.627
390.161	17.089	820.328	614.656
391.175	16.978	819.777	613.785
392.190	17.022	819.209	613.466
393.205	16.967	818.655	612.798
394.219	16.998	818.636	612.839
395.234	16.887	818.105	611.989
396.248	17.016	817.843	612.202
397.263	17.052	817.282	611.859
398.278	17.085	816.872	611.617
399.292	16.964	816.343	610.732
400.307	17.052	815.771	610.567
401.321	17.226	815.034	610.587
402.336	17.092	815.122	610.116
403.350	17.046	814.656	609.548
404.365	17.255	814.086	609.818
405.380	17.353	813.604	609.755
406.394	17.319	812.599	608.825
407.409	17.388	812.407	608.876
408.423	17.300	812.186	608.342
409.438	17.234	811.835	607.786
410.453	17.332	811.548	607.869
411.467	17.451	810.519	607.470
412.482	17.728	810.077	608.071
413.496	17.535	809.681	607.031
414.511	17.593	809.691	607.195
415.526	17.497	809.257	606.472
416.540	17.459	808.695	605.863
417.555	17.504	808.277	605.655
418.569	17.516	808.091	605.504
419.584	17.459	807.688	604.948
420.599	17.511	806.972	604.543
421.613	113.882	1299.122	1488.661
422.628	98.361	1370.812	1488.752
