DTS Sentinel unit serial number:	SN413079Multiplexer serial number:	ORYXHardware model number:	OX4-SRSoftware version number:	ORYX F/W v4.00 Oryx Data Collector v3.7.2.0data status	okinstallation	princeton_trtdifferential loss correction	single-endedforward channel	channel 1reverse channel	N/Adate	2019/09/12time	18:03:34forward acquisition time	15.00reverse acquisition time	0.00gamma	496.2192k internal	0.2317k external	0.2317temperature offset calibration	1.0105default loss term (dB/km)	0.3790temperature slope calibration	1.0000multiplexer offset coefficient	1.0000multiplexer slope coefficient	1.0000fibre end	0.00T internal ref (°C)	33.75T ext. ref 1 (°C)	2.93T ext. ref 2 (°C)	28.15length (m)	temperature (°C)	Stokes	anti-Stokes-747.200	800.000	0.155	0.611
-746.185	46.049	-0.210	0.197
-745.171	147.298	0.858	-1.170
-744.156	-200.000	-0.131	1.119
-743.142	-200.000	-0.059	-0.313
-742.127	567.271	-0.289	-0.711
-741.112	-103.704	0.817	0.194
-740.098	270.810	-0.333	-0.593
-739.083	-137.416	0.232	0.027
-738.069	4.681	-0.361	0.268
-737.054	-200.000	0.102	0.590
-736.039	1.936	0.381	0.279
-735.025	800.000	-0.147	-0.456
-734.010	597.582	-0.150	0.377
-732.996	134.910	0.265	0.349
-731.981	195.854	0.267	-0.411
-730.966	-200.000	-0.003	-0.373
-729.952	114.316	0.278	0.343
-728.937	-77.942	-0.700	-0.244
-727.923	-178.984	-0.323	0.007
-726.908	267.267	0.203	-0.359
-725.894	-200.000	-0.053	-0.274
-724.879	51.599	-0.401	0.386
-723.864	69.706	-0.222	0.231
-722.850	-200.000	-0.020	0.239
-721.835	-141.412	-0.704	-0.072
-720.821	180.830	0.154	-0.229
-719.806	1.702	-0.729	-0.532
-718.791	-128.571	-1.161	-0.166
-717.777	40.598	0.320	-0.292
-716.762	800.000	0.234	0.693
-715.748	-68.445	-0.766	0.301
-714.733	-34.043	-0.854	0.475
-713.718	-131.714	0.760	-0.101
-712.704	-32.626	-0.534	0.301
-711.689	800.000	0.182	0.562
-710.675	317.352	0.302	0.578
-709.660	-61.788	-0.253	0.107
-708.645	-125.537	0.322	-0.050
-707.631	-200.000	0.048	-0.390
-706.616	417.754	-0.092	0.199
-705.602	-200.000	0.032	-0.352
-704.587	60.147	0.353	0.353
-703.572	-33.985	-0.452	0.252
-702.558	6.082	-0.158	0.118
-701.543	48.667	-0.177	-0.168
-700.529	-106.648	-0.536	-0.121
-699.514	13.011	0.582	-0.455
-698.499	800.000	-0.081	0.315
-697.485	-5.901	-0.996	-0.689
-696.470	78.267	-0.394	0.426
-695.456	-79.115	-0.811	-0.278
-694.441	474.453	-0.251	0.573
-693.426	-39.569	-0.425	-0.225
-692.412	-194.775	0.714	-0.006
-691.397	147.844	-0.208	0.284
-690.383	72.457	-0.038	-0.040
-689.368	-99.944	-0.715	-0.181
-688.354	-200.000	0.067	-0.418
-687.339	11.560	0.290	-0.225
-686.324	-81.391	-0.408	0.136
-685.310	777.849	-0.094	-0.260
-684.295	-195.065	-0.861	-0.007
-683.281	44.691	-0.166	0.154
-682.266	-200.000	0.055	-0.487
-681.251	800.000	-0.204	-0.780
-680.237	368.739	-0.260	-0.531
-679.222	-7.474	-0.650	0.444
-678.208	175.941	0.116	0.170
-677.193	223.556	0.248	0.404
-676.178	213.431	-0.349	-0.556
-675.164	-200.000	-0.075	0.458
-674.149	-33.188	-0.437	-0.245
-673.135	-22.481	0.856	0.523
-672.120	-200.000	0.161	-0.834
-671.105	-69.099	0.611	0.238
-670.091	-0.840	0.392	0.280
-669.076	-107.013	0.415	-0.093
-668.062	43.755	-0.884	-0.817
-667.047	-87.630	0.193	0.059
-666.032	-132.627	0.394	0.051
-665.018	-159.788	-0.431	0.024
-664.003	800.000	-0.112	-0.322
-662.989	-200.000	0.082	0.729
-661.974	-88.397	-0.411	0.124
-660.959	734.209	0.126	-0.341
-659.945	-185.126	-0.357	-0.006
-658.930	652.497	0.087	-0.225
-657.916	-1.577	-0.229	-0.163
-656.901	427.088	-0.069	-0.150
-655.886	800.000	-0.208	-0.590
-654.872	-58.061	-0.526	-0.232
-653.857	26.466	-0.341	-0.288
-652.843	-15.701	-0.466	-0.300
-651.828	324.051	0.328	-0.632
-650.814	-72.341	-0.927	-0.346
-649.799	800.000	0.055	-0.159
-648.784	-146.247	-0.207	-0.018
-647.770	118.402	-0.155	0.193
-646.755	312.597	-0.570	1.079
-645.741	373.636	0.109	0.224
-644.726	-200.000	0.117	-0.662
-643.711	800.000	-0.110	-0.380
-642.697	800.000	0.088	0.366
-641.682	129.706	0.498	-0.642
-640.668	-200.000	0.092	-0.593
-639.653	643.637	0.251	-0.645
-638.638	-128.427	0.875	-0.125
-637.624	6.281	-0.233	0.174
-636.609	103.437	0.327	0.387
-635.595	-27.816	-0.552	-0.323
-634.580	128.607	0.464	-0.596
-633.565	96.466	-0.459	-0.530
-632.551	-52.298	-0.447	-0.209
-631.536	-111.318	0.461	0.095
-630.522	31.177	0.539	0.466
-629.507	-200.000	-0.042	0.503
-628.492	86.493	-0.527	-0.586
-627.478	-192.779	0.260	0.002
-626.463	64.948	0.191	-0.194
-625.449	-170.998	-0.456	-0.016
-624.434	-109.163	-0.566	-0.121
-623.419	-200.000	-0.099	0.542
-622.405	209.486	-0.245	-0.388
-621.390	-19.740	0.327	-0.204
-620.376	19.637	-0.482	0.390
-619.361	-27.159	-0.204	0.120
-618.346	-200.000	0.053	-0.809
-617.332	711.463	0.253	-0.675
-616.317	-92.077	0.805	-0.229
-615.303	-200.000	0.034	0.322
-614.288	800.000	0.159	-0.469
-613.273	489.809	-0.253	0.582
-612.259	-113.221	-0.295	-0.058
-611.244	79.790	-0.179	0.194
-610.230	-200.000	0.123	0.983
-609.215	82.687	0.524	-0.573
-608.201	-200.000	-0.023	-0.314
-607.186	87.912	0.459	0.513
-606.171	17.921	-0.332	-0.266
-605.157	28.791	0.353	0.301
-604.142	-47.508	-0.593	-0.290
-603.128	268.730	0.192	-0.339
-602.113	145.346	-0.338	0.456
-601.098	242.157	-0.417	-0.702
-600.084	-171.426	-0.209	0.007
-599.069	-200.000	0.007	-0.392
-598.055	-134.269	-0.990	-0.123
-597.040	227.814	-0.068	0.111
-596.025	-28.032	0.717	-0.418
-595.011	346.773	-0.401	-0.794
-593.996	-52.586	-0.302	0.140
-592.982	315.304	-0.137	-0.260
-591.967	-72.542	-0.320	0.119
-590.952	-52.342	-0.570	-0.266
-589.938	-116.168	-0.294	-0.055
-588.923	768.575	0.024	0.065
-587.909	-200.000	-0.034	0.338
-586.894	101.411	0.355	0.416
-585.879	190.535	0.034	0.051
-584.865	-48.169	-0.589	-0.286
-583.850	286.264	-0.373	-0.677
-582.836	81.050	0.246	-0.268
-581.821	800.000	0.244	-0.701
-580.806	96.862	-0.268	0.309
-579.792	-179.824	-0.402	0.009
-578.777	-22.375	0.428	0.261
-577.763	-41.790	0.882	-0.455
-576.748	-82.299	0.514	-0.168
-575.733	612.948	0.098	-0.247
-574.719	108.333	-0.406	0.488
-573.704	178.275	-0.185	0.271
-572.690	-59.699	0.093	-0.040
-571.675	566.733	0.226	0.552
-570.661	-94.926	-0.296	0.081
-569.646	-49.723	-0.942	-0.451
-568.631	-20.330	0.596	0.369
-567.617	2.223	0.438	0.319
-566.602	-23.000	0.704	-0.427
-565.588	203.563	-0.175	-0.272
-564.573	-114.865	0.257	-0.049
-563.558	153.000	0.244	0.335
-562.544	19.450	0.428	-0.346
-561.529	128.191	-0.351	-0.449
-560.515	355.127	-0.185	-0.371
-559.500	231.178	-0.224	-0.368
-558.485	-102.785	-0.933	-0.223
-557.471	-180.717	-0.591	-0.012
-556.456	144.673	-0.702	-0.943
-555.442	-113.701	-0.682	-0.134
-554.427	78.015	0.291	0.312
-553.412	-21.603	-0.460	-0.282
-552.398	-156.511	0.585	-0.037
-551.383	-95.328	0.735	0.199
-550.369	-200.000	-0.072	0.427
-549.354	-83.474	0.557	-0.179
-548.339	-34.487	0.416	0.229
-547.325	603.501	-0.113	-0.283
-546.310	0.195	0.846	-0.606
-545.296	800.000	0.280	-0.805
-544.281	-79.850	-0.121	-0.041
-543.266	-151.002	0.867	-0.066
-542.252	562.677	0.193	-0.469
-541.237	117.702	-0.228	0.282
-540.223	-200.000	-0.044	-0.599
-539.208	87.272	-0.342	0.379
-538.193	527.150	-0.127	-0.300
-537.179	-200.000	0.004	0.455
-536.164	-15.594	-0.720	0.462
-535.150	28.507	0.335	-0.284
-534.135	-200.000	0.012	-0.192
-533.121	800.000	-0.342	1.412
-532.106	535.283	-0.054	0.128
-531.091	107.996	0.607	0.727
-530.077	48.610	-0.133	-0.125
-529.062	800.000	-0.031	-0.126
-528.048	642.252	0.241	-0.617
-527.033	800.000	-0.404	-1.323
-526.018	-200.000	0.032	0.966
-525.004	-200.000	0.208	-0.938
-523.989	55.412	0.298	-0.289
-522.975	-117.242	-0.505	-0.092
-521.960	-58.063	-0.336	0.147
-520.945	159.674	0.234	0.328
-519.931	-39.743	-0.450	-0.236
-518.916	-92.501	0.195	0.055
-517.902	2.542	0.369	-0.268
-516.887	800.000	0.173	-0.522
-515.872	-62.228	-0.231	0.097
-514.858	-77.596	0.257	-0.089
-513.843	-200.000	-0.127	1.148
-512.829	-149.222	0.401	0.032
-511.814	-50.592	0.975	-0.461
-510.799	-200.000	-0.029	0.257
-509.785	-84.764	0.332	-0.105
-508.770	-137.100	-0.354	0.041
-507.756	800.000	0.235	-0.664
-506.741	147.323	0.129	0.175
-505.726	-200.000	-0.082	1.428
-504.712	800.000	0.125	-0.513
-503.697	485.727	-0.208	0.476
-502.683	800.000	-0.147	0.452
-501.668	25.556	-0.434	0.362
-500.653	9.990	0.103	0.078
-499.639	256.450	-0.252	-0.434
-498.624	504.803	-0.228	-0.530
-497.610	-92.623	-0.286	-0.080
-496.595	445.396	0.380	0.838
-495.581	-49.286	0.671	-0.321
-494.566	295.834	-0.547	-1.005
-493.551	-55.846	-0.842	-0.377
-492.537	-164.015	-0.588	0.027
-491.522	292.292	0.362	0.661
-490.508	-95.164	-0.306	-0.083
-489.493	-200.000	0.055	-0.348
-488.478	-200.000	0.017	0.376
-487.464	-34.571	0.559	0.307
-486.449	344.155	0.008	-0.017
-485.435	-137.258	-0.348	-0.040
-484.420	-84.524	0.338	-0.107
-483.405	-200.000	-0.084	-0.568
-482.391	98.169	-0.529	0.610
-481.376	-163.524	0.343	0.016
-480.362	658.799	0.308	0.794
-479.347	-0.500	0.153	0.109
-478.332	231.659	0.187	-0.308
-477.318	66.207	0.203	-0.207
-476.303	-35.259	-0.541	0.295
-475.289	800.000	0.145	-0.603
-474.274	150.324	-0.170	-0.232
-473.259	288.178	-0.137	-0.248
-472.245	-200.000	0.043	0.494
-471.230	-156.414	-0.417	-0.026
-470.216	64.398	0.440	-0.444
-469.201	-41.385	-0.107	-0.055
-468.186	72.042	0.251	0.261
-467.172	226.621	-0.198	-0.322
-466.157	88.699	0.339	-0.378
-465.143	-71.227	0.527	-0.198
-464.128	-3.608	0.424	0.295
-463.113	800.000	-0.100	-0.349
-462.099	-121.595	-0.364	0.060
-461.084	-50.622	0.534	0.252
-460.070	-17.753	-0.364	0.229
-459.055	-15.720	0.336	-0.215
-458.040	168.848	0.189	0.271
-457.026	-31.071	-0.396	-0.224
-456.011	-27.846	0.285	0.165
-454.997	-141.911	0.233	0.023
-453.982	-13.121	-0.482	-0.314
-452.968	-90.029	0.501	0.146
-451.953	117.659	-0.108	0.133
-450.938	49.228	0.424	-0.399
-449.924	58.359	-0.833	-0.818
-448.909	-37.724	-0.274	-0.146
-447.895	-49.605	-0.466	-0.222
-446.880	-104.986	0.328	-0.075
-445.865	49.971	-0.299	-0.283
-444.851	-107.215	-0.356	0.079
-443.836	436.361	-0.215	-0.468
-442.822	34.396	-0.344	0.301
-441.807	57.185	0.298	-0.291
-440.792	-7.424	-0.441	-0.299
-439.778	-200.000	0.016	-0.797
-438.763	800.000	-0.260	0.777
-437.749	800.000	-0.272	0.870
-436.734	-151.945	-0.456	-0.033
-435.719	9.407	0.366	0.277
-434.705	11.092	0.138	-0.105
-433.690	-200.000	0.121	0.574
-432.676	-72.042	0.407	0.151
-431.661	1.908	-0.172	-0.124
-430.646	-84.032	0.670	0.213
-429.632	-24.830	-0.282	-0.168
-428.617	349.423	-0.239	-0.472
-427.603	28.222	0.444	0.375
-426.588	-200.000	0.088	0.716
-425.573	586.189	0.406	0.998
-424.559	23.856	-0.621	0.512
-423.544	800.000	-0.228	0.745
-422.530	800.000	0.146	-0.450
-421.515	-200.000	-0.069	0.451
-420.500	-200.000	0.100	-0.585
-419.486	-122.443	0.220	-0.036
-418.471	-200.000	0.034	-0.608
-417.457	304.401	0.384	0.712
-416.442	-68.682	-0.126	-0.049
-415.428	23.952	0.573	-0.472
-414.413	-46.257	0.574	0.282
-413.398	800.000	-0.299	-0.882
-412.384	-64.442	0.369	-0.150
-411.369	-55.724	-0.448	0.200
-410.355	-67.517	-0.428	0.168
-409.340	173.285	-0.638	0.920
-408.325	490.807	0.436	-0.998
-407.311	-103.427	0.290	0.068
-406.296	-94.110	0.269	0.074
-405.282	47.026	-0.227	-0.211
-404.267	595.703	0.176	0.435
-403.252	324.699	-0.291	0.556
-402.238	679.679	0.120	-0.313
-401.223	34.766	-0.618	-0.540
-400.209	402.289	-0.421	-0.884
-399.194	-63.967	-0.756	0.309
-398.179	-68.638	0.844	-0.327
-397.165	-200.000	-0.089	-0.662
-396.150	2.071	-0.852	0.615
-395.136	193.491	0.050	-0.075
-394.121	800.000	-0.231	0.674
-393.106	-200.000	-0.099	0.534
-392.092	690.414	-0.239	-0.624
-391.077	800.000	0.277	0.824
-390.063	670.367	-0.441	-1.141
-389.048	-200.000	-0.130	0.916
-388.033	164.439	0.106	0.149
-387.019	-40.611	0.477	0.247
-386.004	-200.000	0.053	0.457
-384.990	800.000	0.205	0.773
-383.975	-56.013	0.426	0.190
-382.960	-152.706	0.223	0.016
-381.946	-42.287	-0.819	-0.418
-380.931	-134.726	0.659	-0.080
-379.917	6.013	-0.532	0.394
-378.902	-92.990	0.719	-0.200
-377.888	800.000	0.087	0.287
-376.873	800.000	0.138	0.546
-375.858	71.146	-0.516	0.534
-374.844	800.000	-0.100	-0.278
-373.829	-57.413	-0.613	0.269
-372.815	341.394	0.293	-0.572
-371.800	85.783	-0.680	0.747
-370.785	-81.339	0.509	0.167
-369.771	-200.000	0.025	-0.134
-368.756	404.664	-0.234	0.491
-367.742	800.000	-0.151	0.435
-366.727	-85.219	-0.366	0.114
-365.712	-92.639	0.745	-0.208
-364.698	-141.942	0.193	-0.019
-363.683	-10.428	0.361	0.239
-362.669	800.000	0.112	-0.445
-361.654	-50.191	-0.903	-0.427
-360.639	122.053	-0.660	-0.822
-359.625	-57.065	0.792	0.348
-358.610	-105.944	1.549	0.348
-357.596	282.346	-0.333	-0.595
-356.581	682.341	-0.287	-0.747
-355.566	-85.897	1.017	0.314
-354.552	53.914	-0.198	-0.190
-353.537	-200.000	-0.038	0.223
-352.523	-200.000	-0.030	-0.630
-351.508	-179.504	0.349	0.008
-350.493	-162.756	0.473	0.023
-349.479	-8.649	0.576	0.385
-348.464	304.453	-0.219	-0.405
-347.450	32.471	0.196	0.169
-346.435	787.724	-0.268	-0.733
-345.420	-53.389	0.430	-0.196
-344.406	-126.312	-0.660	-0.098
-343.391	-200.000	-0.029	0.263
-342.377	-133.537	-0.337	-0.042
-341.362	-200.000	0.022	-1.103
-340.348	18.801	-0.128	0.102
-339.333	435.513	-0.235	-0.509
-338.318	-76.000	0.419	0.148
-337.304	764.651	0.347	-0.939
-336.289	267.563	0.217	0.378
-335.275	476.149	-0.191	0.430
-334.260	55.070	-0.623	-0.600
-333.245	51.309	-0.215	0.203
-332.231	-124.153	1.017	0.159
-331.216	-95.701	0.129	0.034
-330.202	-111.848	0.484	0.097
-329.187	800.000	0.218	0.672
-328.172	95.190	-0.476	-0.540
-327.158	-200.000	-0.086	0.516
-326.143	-42.855	0.347	0.176
-325.129	6.984	-0.339	-0.252
-324.114	0.085	-0.976	0.693
-323.099	-37.700	-0.134	0.071
-322.085	34.128	0.572	0.497
-321.070	279.469	-0.280	0.497
-320.056	-200.000	0.060	0.868
-319.041	125.820	-0.512	-0.644
-318.026	-114.501	1.035	-0.198
-317.012	-56.598	0.526	0.232
-315.997	-200.000	-0.048	0.250
-314.983	112.422	-0.113	0.136
-313.968	94.738	-0.471	-0.533
-312.953	-200.000	-0.127	0.586
-311.939	-94.905	0.535	-0.144
-310.924	21.763	-0.280	0.227
-309.910	-137.023	0.601	0.069
-308.895	469.431	0.368	0.824
-307.880	-175.792	0.025	-0.001
-306.866	-73.390	0.529	0.192
-305.851	800.000	0.048	0.138
-304.837	18.979	0.365	0.292
-303.822	-21.157	0.589	-0.358
-302.807	493.607	-0.060	-0.138
-301.793	41.352	0.210	-0.189
-300.778	-26.941	-0.483	0.281
-299.764	800.000	0.201	0.574
-298.749	-158.149	-0.555	-0.032
-297.735	18.256	-0.746	-0.592
-296.720	-200.000	0.000	0.150
-295.705	-67.573	0.884	-0.345
-294.691	333.823	0.538	-1.036
-293.676	489.154	-0.318	-0.723
-292.662	-164.528	-0.346	0.016
-291.647	-200.000	-0.062	-0.401
-290.632	-54.600	0.713	0.321
-289.618	781.329	0.150	0.408
-288.603	800.000	-0.226	-0.717
-287.589	33.236	-0.332	-0.287
-286.574	-35.447	-0.443	0.240
-285.559	800.000	-0.203	0.834
-284.545	70.278	0.400	0.411
-283.530	-117.741	0.268	0.048
-282.516	36.351	0.375	0.329
-281.501	455.472	0.307	0.678
-280.486	483.184	0.040	0.091
-279.472	137.084	-0.797	1.036
-278.457	503.528	0.142	0.327
-277.443	-112.171	0.577	0.115
-276.428	-60.924	-0.268	0.113
-275.413	85.390	-0.205	0.223
-274.399	15.001	-0.368	-0.287
-273.384	-200.000	-0.068	-0.318
-272.370	800.000	-0.055	0.162
-271.355	-106.371	0.622	0.138
-270.340	560.662	-0.170	0.408
-269.326	-48.170	-0.213	-0.102
-268.311	100.221	-0.600	0.692
-267.297	-111.484	0.080	-0.016
-266.282	53.428	-0.481	-0.458
-265.267	-139.932	-0.672	0.071
-264.253	800.000	-0.177	0.535
-263.238	751.518	-0.253	0.678
-262.224	418.271	-0.377	0.800
-261.209	-200.000	-0.107	0.594
-260.195	800.000	-0.069	0.229
-259.180	-46.082	0.295	-0.145
-258.165	-5.464	-0.079	0.054
-257.151	582.630	-0.311	0.757
-256.136	800.000	-0.193	-0.599
-255.122	743.823	-0.086	0.231
-254.107	-70.185	0.056	0.021
-253.092	-126.489	-0.387	-0.057
-252.078	-170.182	1.257	0.044
-251.063	800.000	-0.135	0.416
-250.049	42.436	0.577	0.521
-249.034	82.831	-0.584	-0.631
-248.019	-191.629	0.423	0.004
-247.005	49.544	0.349	-0.326
-245.990	-200.000	-0.081	0.605
-244.976	163.439	0.119	-0.167
-243.961	-200.000	-0.006	0.076
-242.946	-53.484	0.302	-0.137
-241.932	90.238	0.174	0.194
-240.917	81.847	0.277	0.297
-239.903	11.665	-0.334	0.255
-238.888	-91.752	0.937	-0.264
-237.873	8.277	0.977	-0.729
-236.859	-63.221	-0.305	-0.125
-235.844	-64.358	0.182	-0.074
-234.830	764.376	0.210	-0.566
-233.815	-200.000	-0.141	-0.987
-232.800	85.858	0.788	-0.861
-231.786	96.634	0.289	0.328
-230.771	-200.000	-0.122	1.213
-229.757	93.066	-0.466	-0.522
-228.742	-29.182	0.309	-0.176
-227.727	177.708	-0.185	0.267
-226.713	800.000	-0.265	-0.746
-225.698	13.237	0.078	0.060
-224.684	-95.185	-0.690	0.184
-223.669	44.851	-0.164	-0.150
-222.655	136.815	-0.303	0.393
-221.640	-200.000	-0.102	0.752
-220.625	34.586	-0.193	0.167
-219.611	31.850	0.220	-0.188
-218.596	291.360	-0.194	-0.351
-217.582	800.000	-0.126	0.521
-216.567	-132.687	0.240	-0.031
-215.552	5.712	0.373	-0.274
-214.538	497.093	0.197	-0.449
-213.523	223.994	0.482	-0.772
-212.509	57.645	0.283	-0.275
-211.494	-10.072	-0.350	0.231
-210.479	-85.943	-0.498	0.153
-209.465	211.350	0.331	-0.516
-208.450	-10.655	-0.679	-0.445
-207.436	75.163	-0.655	-0.685
-206.421	-92.283	0.459	0.128
-205.406	135.619	-0.627	-0.809
-204.392	-69.296	-0.340	0.130
-203.377	-200.000	0.049	-0.381
-202.363	-49.888	0.641	-0.302
-201.348	15.578	0.550	0.429
-200.333	105.539	-0.432	0.506
-199.319	-60.228	-0.353	-0.149
-198.304	63.327	-0.380	0.377
-197.290	355.243	-0.377	0.743
-196.275	-126.762	-0.551	0.081
-195.260	347.364	-0.509	0.994
-194.246	19.985	0.619	0.494
-193.231	-154.918	0.292	-0.019
-192.217	-200.000	0.033	0.254
-191.202	-30.790	-0.852	0.478
-190.187	-91.699	0.507	-0.143
-189.173	24.667	-0.542	-0.444
-188.158	800.000	0.103	-0.378
-187.144	274.069	0.017	-0.030
-186.129	800.000	0.095	-0.397
-185.114	250.819	0.258	0.434
-184.100	586.624	-0.296	0.722
-183.085	333.190	0.475	0.909
-182.071	-200.000	0.010	0.093
-181.056	-133.605	-0.413	-0.051
-180.042	118.014	-0.293	-0.358
-179.027	-200.000	0.051	0.390
-178.012	-113.732	-0.062	-0.012
-176.998	-111.668	-0.743	0.149
-175.983	-100.832	-0.332	0.081
-174.969	800.000	0.123	-0.403
-173.954	467.098	0.229	-0.509
-172.939	-200.000	0.027	-0.479
-171.925	-7.864	0.347	-0.232
-170.910	-200.000	0.088	0.505
-169.896	303.865	0.153	-0.280
-168.881	-109.725	-0.350	0.073
-167.866	39.720	-0.460	0.409
-166.852	-66.675	-0.099	-0.039
-165.837	61.996	0.274	-0.271
-164.823	-200.000	0.022	-0.116
-163.808	-200.000	-0.027	-0.140
-162.793	-168.066	-0.521	-0.020
-161.779	-23.572	0.335	-0.199
-160.764	800.000	0.010	0.031
-159.750	173.210	0.409	0.584
-158.735	-200.000	0.106	1.201
-157.720	-32.538	-0.104	-0.057
-156.706	-200.000	0.073	-0.557
-155.691	-88.942	0.557	0.163
-154.677	463.945	0.143	-0.317
-153.662	-200.000	-0.028	-0.346
-152.647	299.694	0.250	0.456
-151.633	-200.000	-0.035	0.394
-150.618	-122.552	-0.534	-0.086
-149.604	39.717	-0.310	0.275
-148.589	170.514	-0.065	-0.092
-147.574	312.728	-0.398	-0.739
-146.560	772.021	-0.053	-0.142
-145.545	-132.985	-0.576	0.072
-144.531	-58.261	0.506	0.218
-143.516	-200.000	-0.200	-0.874
-142.502	159.597	-0.620	-0.853
-141.487	-134.207	0.449	0.055
-140.472	-99.468	0.708	-0.176
-139.458	-80.236	0.539	0.178
-138.443	61.875	0.599	0.590
-137.429	316.833	0.518	-0.967
-136.414	735.725	-0.137	-0.362
-135.399	-73.174	0.389	-0.141
-134.385	17.510	-0.824	-0.648
-133.370	-71.869	-0.372	-0.137
-132.356	13.273	0.854	-0.654
-131.341	800.000	0.168	-0.486
-130.326	-115.105	0.607	-0.114
-129.312	-200.000	-0.141	0.732
-128.297	-200.000	0.159	-0.768
-127.283	246.856	0.196	0.326
-126.268	601.827	-0.085	0.208
-125.253	-81.075	-0.505	0.165
-124.239	17.007	0.283	-0.222
-123.224	133.688	0.190	-0.243
-122.210	417.872	0.238	-0.503
-121.195	-200.000	0.022	-0.178
-120.180	-128.397	0.102	0.014
-119.166	28.628	0.382	0.319
-118.151	800.000	-0.258	0.901
-117.137	-200.000	0.085	0.957
-116.122	-200.000	0.028	-0.413
-115.107	336.479	0.087	-0.166
-114.093	-14.382	-0.143	0.091
-113.078	657.551	-0.179	0.454
-112.064	-45.830	-1.200	0.585
-111.049	800.000	0.112	-0.391
-110.034	-69.138	1.059	0.402
-109.020	-200.000	-0.033	-0.775
-108.005	-200.000	0.059	-0.452
-106.991	142.685	0.165	-0.216
-105.976	-200.000	-0.002	0.287
-104.962	518.907	-0.038	0.089
-103.947	252.453	0.259	-0.436
-102.932	31.374	0.484	0.410
-101.918	800.000	-0.168	-0.709
-100.903	-164.063	1.039	0.048
-99.889	-160.016	0.224	0.012
-98.874	272.023	0.471	-0.821
-97.859	-200.000	-0.191	-0.969
-96.845	-149.613	-0.051	-0.004
-95.830	112.270	-0.616	-0.735
-94.816	60.084	0.190	-0.186
-93.801	756.131	0.101	0.270
-92.786	-200.000	-0.064	-0.899
-91.772	-31.583	0.595	0.330
-90.757	-200.000	0.036	0.666
-89.743	-20.003	0.854	-0.520
-88.728	-51.063	-0.524	-0.243
-87.713	-76.035	0.432	-0.151
-86.699	-102.625	0.602	-0.142
-85.684	149.086	-0.507	0.678
-84.670	517.885	0.114	-0.263
-83.655	206.693	-0.292	-0.449
-82.640	385.089	-0.231	0.469
-81.626	421.348	-0.227	0.480
-80.611	-153.986	-0.429	-0.029
-79.597	-157.627	0.986	0.058
-78.582	800.000	-0.165	-0.469
-77.567	223.690	-0.356	0.567
-76.553	747.712	-0.150	-0.399
-75.538	-116.179	0.189	-0.035
-74.524	16.006	-0.472	0.367
-73.509	70.039	-0.235	0.239
-72.494	-41.434	0.277	-0.141
-71.480	-46.312	0.595	0.289
-70.465	118.244	0.098	0.120
-69.451	-200.000	-0.099	0.660
-68.436	29.248	-0.554	-0.464
-67.422	78.444	-0.218	-0.230
-66.407	-5.101	0.234	-0.159
-65.392	-66.654	0.899	0.351
-64.378	-197.373	0.844	-0.005
-63.363	42.051	0.369	0.331
-62.349	642.732	-0.234	0.588
-61.334	-102.623	-1.400	-0.329
-60.319	-37.195	0.820	0.433
-59.305	800.000	-0.295	-1.148
-58.290	50.585	0.891	0.831
-57.276	47.176	1.556	1.428
-56.261	-200.000	96.979	581.184
-55.246	634.193	1378.131	3444.933
-54.232	196.620	2555.825	3838.581
-53.217	118.369	2137.553	2599.267
-52.203	44.996	1602.483	1454.676
-51.188	37.534	1340.662	1172.212
-50.173	33.781	1300.360	1114.936
-49.159	57.808	1350.251	1301.841
-48.144	59.120	1366.976	1325.739
-47.130	37.423	1323.263	1156.153
-46.115	33.924	1305.702	1120.185
-45.100	33.796	1301.668	1115.928
-44.086	33.802	1297.650	1112.470
-43.071	33.793	1295.703	1110.707
-42.057	33.406	1295.066	1107.851
-41.042	33.573	1292.587	1106.663
-40.027	33.757	1291.259	1106.553
-39.013	33.721	1289.326	1104.643
-37.998	33.738	1287.749	1103.347
-36.984	33.678	1286.448	1101.841
-35.969	33.888	1284.361	1101.230
-34.954	33.658	1283.108	1098.780
-33.940	33.950	1282.289	1099.724
-32.925	33.885	1280.372	1097.662
-31.911	33.842	1278.795	1096.016
-30.896	34.038	1277.116	1095.664
-29.881	33.896	1276.327	1094.127
-28.867	33.816	1274.294	1091.882
-27.852	33.791	1273.233	1090.785
-26.838	33.762	1271.874	1089.410
-25.823	33.826	1271.067	1089.041
-24.809	33.372	1270.555	1085.955
-23.794	33.905	1267.259	1086.142
-22.779	33.622	1267.422	1084.626
-21.765	33.855	1265.426	1084.202
-20.750	33.715	1264.577	1082.633
-19.736	33.988	1262.096	1082.021
-18.721	33.759	1261.832	1080.448
-17.706	33.720	1260.591	1079.119
-16.692	33.752	1258.747	1077.679
-15.677	33.480	1259.008	1076.316
-14.663	33.625	1257.574	1075.871
-13.648	33.782	1255.440	1074.891
-12.633	33.763	1255.267	1074.594
-11.619	33.787	1254.146	1073.728
-10.604	33.812	1254.036	1073.732
-9.590	33.679	1251.891	1071.099
-8.575	33.469	1251.337	1069.401
-7.560	33.773	1250.494	1070.351
-6.546	33.633	1251.216	1070.134
-5.531	33.762	1249.176	1069.077
-4.517	33.499	1248.858	1067.279
-3.502	33.603	1247.452	1066.624
-2.487	33.882	1246.146	1067.031
-1.473	33.718	1243.144	1063.496
-0.458	32.133	1227.117	1040.969
0.556	28.984	1208.798	999.191
1.571	25.348	1213.722	983.300
2.586	23.965	1228.668	987.652
3.600	23.322	1217.573	975.110
4.615	17.324	1145.532	886.169
5.629	7.633	1070.310	780.503
6.644	3.218	1049.267	743.790
7.659	2.951	1046.571	740.528
8.673	2.840	1045.786	739.374
9.688	2.712	1044.163	737.543
10.702	3.315	1042.452	739.165
11.717	9.356	1049.918	773.518
12.731	19.223	1064.644	832.195
13.746	25.106	1071.752	866.193
14.761	26.158	1074.312	873.278
15.775	26.575	1072.703	873.905
16.790	25.958	1073.005	871.094
17.804	26.102	1072.286	871.131
18.819	26.435	1071.415	871.950
19.834	26.683	1070.280	872.145
20.848	26.411	1070.889	871.251
21.863	26.326	1071.684	871.411
22.877	26.387	1069.736	870.045
23.892	26.280	1069.108	868.945
24.907	26.396	1067.971	868.496
25.921	26.111	1067.549	866.712
26.936	26.396	1065.814	866.589
27.950	26.327	1064.428	865.055
28.965	26.380	1061.549	862.896
29.980	26.019	1062.145	861.579
30.994	26.486	1060.542	862.430
32.009	26.589	1060.006	862.405
33.023	26.177	1058.150	858.860
34.038	26.138	1058.469	858.859
35.053	26.441	1056.674	858.767
36.067	26.280	1055.687	857.123
37.082	26.389	1055.701	857.577
38.096	26.344	1055.651	857.243
39.111	26.559	1053.868	856.738
40.126	26.687	1052.804	856.404
41.140	26.116	1051.435	852.518
42.155	26.152	1049.844	851.321
43.169	25.778	1049.019	848.815
44.184	26.208	1046.860	849.016
45.199	25.819	1047.377	847.529
46.213	25.993	1046.012	847.169
47.228	26.071	1045.538	847.075
48.242	26.030	1045.267	846.589
49.257	26.237	1043.796	846.290
50.271	26.390	1043.519	846.711
51.286	26.335	1043.005	845.960
52.301	26.795	1040.376	845.899
53.315	26.296	1040.498	843.593
54.330	26.404	1039.475	843.194
55.344	26.436	1038.523	842.496
56.359	26.270	1037.857	841.107
57.374	26.241	1036.083	839.463
58.388	26.249	1036.651	839.883
59.403	25.939	1036.169	837.981
60.417	25.971	1035.070	837.164
61.432	26.253	1033.406	837.053
62.447	26.377	1032.289	836.648
63.461	26.113	1032.366	835.415
64.476	26.180	1031.407	834.873
65.490	26.013	1030.947	833.658
66.505	26.370	1030.154	834.590
67.520	26.088	1030.188	833.240
68.534	26.346	1026.622	831.470
69.549	25.623	1026.924	828.312
70.563	25.774	1026.810	828.845
71.578	25.407	1026.360	826.719
72.593	25.911	1023.445	826.610
73.607	25.896	1024.404	827.242
74.622	26.154	1023.537	827.650
75.636	25.825	1023.821	826.301
76.651	25.652	1023.396	825.089
77.666	25.497	1021.936	823.130
78.680	25.852	1020.871	823.821
79.695	25.866	1020.949	823.877
80.709	25.983	1019.451	823.129
81.724	26.304	1018.780	823.978
82.739	25.785	1018.756	821.520
83.753	26.417	1018.623	824.221
84.768	26.752	1017.329	824.622
85.782	26.915	1016.145	824.335
86.797	26.766	1015.048	822.695
87.812	26.611	1013.474	820.644
88.826	26.959	1013.035	821.792
89.841	26.480	1012.713	819.286
90.855	26.933	1011.413	820.211
91.870	26.743	1010.506	818.544
92.884	26.392	1009.723	816.254
93.899	26.172	1009.342	814.884
94.914	26.539	1008.704	815.948
95.928	26.287	1007.451	813.728
96.943	26.229	1006.385	812.536
97.957	25.881	1004.627	809.481
98.972	26.020	1003.740	809.318
99.987	26.083	1003.843	809.612
101.001	26.142	1002.384	808.628
102.016	26.655	1001.274	809.958
103.030	26.378	1000.164	807.748
104.045	26.175	1000.289	806.870
105.060	26.203	998.994	805.883
106.074	26.091	998.803	805.155
107.089	26.605	997.978	806.709
108.103	26.423	997.031	805.063
109.118	26.239	995.137	802.645
110.133	26.193	994.082	801.518
111.147	25.978	992.559	799.269
112.162	25.865	992.327	798.510
113.176	26.099	993.157	800.143
114.191	25.697	991.768	797.174
115.206	25.763	989.996	795.971
116.220	25.625	989.255	794.694
117.235	25.600	988.279	793.732
118.249	25.957	987.259	794.413
119.264	25.678	987.025	792.927
120.279	25.495	986.557	791.674
121.293	25.817	985.373	792.072
122.308	25.975	984.383	791.901
123.322	25.800	983.087	790.020
124.337	25.437	982.497	787.885
125.352	24.957	980.736	784.300
126.366	25.023	980.142	784.046
127.381	25.917	979.452	787.329
128.395	26.030	979.908	788.119
129.410	26.258	978.605	787.997
130.424	26.430	977.633	787.894
131.439	26.088	977.212	785.996
132.454	26.163	975.751	785.076
133.468	26.273	974.650	784.601
134.483	26.336	973.924	784.221
135.497	26.763	972.592	784.928
136.512	26.662	973.024	784.770
137.527	26.456	972.390	783.296
138.541	26.495	971.430	782.623
139.556	26.478	971.193	782.288
140.570	26.871	969.807	782.801
141.585	26.809	967.841	780.877
142.600	26.576	967.899	779.850
143.614	27.151	967.278	781.757
144.629	26.688	966.733	779.254
145.643	26.677	965.654	778.267
146.658	26.666	963.836	776.689
147.673	26.401	963.086	774.880
148.687	26.545	961.798	774.391
149.702	26.330	961.972	773.541
150.716	26.458	959.473	772.010
151.731	26.379	960.422	772.367
152.746	26.625	959.186	772.354
153.760	26.549	959.459	772.184
154.775	26.821	958.480	772.483
155.789	26.908	957.313	771.846
156.804	26.990	955.235	770.451
157.819	26.818	955.438	769.815
158.833	26.892	955.078	769.773
159.848	26.936	952.644	767.930
160.862	26.990	951.677	767.310
161.877	26.971	951.520	767.034
162.892	27.079	949.588	765.866
163.906	26.643	949.211	763.655
164.921	26.758	948.417	763.434
165.935	26.618	948.398	762.762
166.950	26.830	946.975	762.440
167.964	26.793	946.643	761.949
168.979	26.653	944.617	759.666
169.994	26.484	944.696	758.953
171.008	26.954	943.735	760.081
172.023	27.026	942.478	759.304
173.037	26.409	941.654	755.995
174.052	26.454	941.386	755.898
175.067	26.460	941.028	755.568
176.081	26.817	939.386	755.673
177.096	26.224	939.358	753.112
178.110	26.208	937.963	751.862
179.125	26.180	936.860	750.791
180.140	26.073	937.052	750.436
181.154	26.461	935.930	751.083
182.169	26.578	936.845	752.234
183.183	26.720	936.180	752.227
184.198	26.519	935.607	750.864
185.213	26.603	935.289	750.889
186.227	26.833	933.936	750.691
187.242	26.747	933.225	749.696
188.256	26.999	932.412	750.018
189.271	26.921	931.246	748.693
190.286	26.411	931.021	746.342
191.300	25.862	929.010	742.404
192.315	25.244	927.426	738.529
193.329	24.897	927.506	737.097
194.344	26.208	927.275	742.242
195.359	26.620	927.846	744.326
196.373	26.618	927.644	744.089
197.388	26.464	926.780	742.699
198.402	26.426	926.187	742.002
199.417	26.545	925.767	742.087
200.432	26.476	924.859	741.013
201.446	26.259	924.187	739.520
202.461	26.157	923.467	738.461
203.475	25.550	920.537	733.575
204.490	24.583	919.103	728.430
205.504	25.585	920.848	733.839
206.519	26.385	920.167	736.489
207.534	26.333	920.849	736.759
208.548	26.903	919.415	737.865
209.563	26.605	918.175	735.593
210.577	26.701	918.018	735.792
211.592	26.996	916.981	736.092
212.607	26.767	916.925	735.055
213.621	26.832	916.888	735.225
214.636	26.795	915.679	734.037
215.650	26.581	915.736	733.153
216.665	26.916	914.723	733.632
217.680	27.237	912.832	733.346
218.694	26.408	912.451	729.630
219.709	26.334	912.316	729.159
220.723	26.633	911.586	729.719
221.738	26.713	911.407	729.833
222.753	26.305	910.523	727.415
223.767	26.549	909.992	727.908
224.782	27.144	909.144	729.558
225.796	27.048	909.383	729.297
226.811	26.231	907.446	724.407
227.826	25.331	907.164	720.508
228.840	25.803	906.373	721.705
229.855	25.857	905.154	720.888
230.869	25.336	904.708	718.383
231.884	26.277	903.745	721.313
232.899	26.499	904.858	723.029
233.913	26.684	902.924	722.154
234.928	26.532	903.359	721.834
235.942	26.082	903.118	719.781
236.957	25.896	902.058	718.132
237.972	26.004	901.192	717.811
238.986	26.038	900.465	717.303
240.001	26.610	900.054	719.183
241.015	26.495	899.758	718.427
242.030	26.406	899.777	718.024
243.045	26.711	899.248	718.750
244.059	26.683	898.812	718.228
245.074	26.533	897.556	716.567
246.088	26.278	896.149	714.370
247.103	26.849	896.344	716.719
248.117	27.173	896.370	717.958
249.132	27.406	896.156	718.643
250.147	27.415	896.078	718.551
251.161	27.481	895.623	718.384
252.176	27.585	894.483	717.815
253.190	27.601	893.860	717.313
254.205	27.448	893.914	716.691
255.220	27.695	892.574	716.524
256.234	27.297	892.430	714.783
257.249	27.491	890.974	714.313
258.263	27.025	891.514	712.856
259.278	27.406	890.005	713.079
260.293	27.345	889.530	712.394
261.307	27.584	889.321	713.098
262.322	27.106	889.007	710.917
263.336	26.318	886.624	705.870
264.351	25.666	884.037	701.211
265.366	25.978	883.793	702.171
266.380	26.918	884.486	706.318
267.395	27.206	884.292	707.223
268.409	26.932	883.557	705.505
269.424	27.221	882.840	705.992
270.439	27.364	882.414	706.145
271.453	27.335	881.572	705.296
272.468	27.490	881.557	705.823
273.482	27.501	880.669	705.092
274.497	27.181	879.109	702.544
275.512	26.989	878.482	701.240
276.526	27.245	879.042	702.614
277.541	27.504	878.278	702.940
278.555	27.172	878.297	701.611
279.570	27.178	877.467	700.908
280.585	27.160	877.182	700.552
281.599	27.286	875.232	699.415
282.614	26.588	875.141	696.597
283.628	26.647	873.843	695.730
284.643	26.919	874.343	697.108
285.657	26.755	871.831	694.419
286.672	26.213	871.843	692.290
287.687	26.543	871.877	693.520
288.701	27.118	871.339	695.232
289.716	26.442	870.211	691.683
290.730	26.224	869.920	690.561
291.745	26.289	868.344	689.495
292.760	26.436	868.736	690.305
293.774	27.790	868.463	695.189
294.789	27.891	868.537	695.574
295.803	27.877	869.001	695.829
296.818	27.896	867.220	694.415
297.833	27.524	866.286	692.193
298.847	27.604	865.714	691.977
299.862	27.727	865.566	692.265
300.876	27.908	866.541	693.670
301.891	27.699	864.772	691.399
302.906	27.441	863.081	689.011
303.920	27.676	863.532	690.199
304.935	27.858	862.797	690.239
305.949	27.997	861.603	689.746
306.964	27.790	861.442	688.778
307.979	27.922	860.391	688.372
308.993	28.046	861.059	689.312
310.008	27.886	860.966	688.576
311.022	27.313	860.327	685.845
312.037	27.759	859.001	686.402
313.052	27.687	857.598	684.950
314.066	26.446	857.206	679.915
315.081	26.436	854.845	677.946
316.095	27.031	856.131	681.137
317.110	27.210	856.547	682.083
318.125	26.613	854.740	678.345
319.139	25.736	853.378	673.926
320.154	25.333	852.563	671.715
321.168	26.338	854.119	676.642
322.183	27.652	853.079	680.670
323.197	27.165	852.849	678.609
324.212	27.413	853.601	680.073
325.227	27.455	851.972	678.871
326.241	27.494	851.308	678.429
327.256	27.070	851.565	676.991
328.270	27.142	849.929	675.901
329.285	26.947	849.557	674.818
330.300	26.873	848.803	673.884
331.314	27.243	848.408	674.888
332.329	27.726	847.146	675.610
333.343	27.878	847.123	676.095
334.358	27.346	847.524	674.386
335.373	27.687	846.595	674.850
336.387	28.101	846.305	676.087
337.402	28.186	847.134	677.005
338.416	28.398	845.727	676.604
339.431	27.970	846.505	675.585
340.446	27.981	846.666	675.692
341.460	28.392	844.871	675.719
342.475	28.465	843.934	675.175
343.489	28.354	844.700	675.321
344.504	28.634	844.811	676.381
345.519	28.273	843.726	674.124
346.533	28.717	843.405	675.442
347.548	28.631	842.879	674.644
348.562	28.430	842.583	673.611
349.577	28.312	841.910	672.577
350.592	28.663	840.518	672.694
351.606	28.232	840.335	670.908
352.621	28.461	839.069	670.675
353.635	28.453	838.770	670.347
354.650	27.808	837.169	666.655
355.665	26.893	835.462	661.899
356.679	27.232	835.099	662.790
357.694	27.533	835.434	664.093
358.708	27.874	833.771	663.954
359.723	28.014	833.828	664.449
360.738	27.862	834.599	664.451
361.752	28.326	833.334	665.072
362.767	28.935	833.228	667.137
363.781	28.872	833.464	667.040
364.796	28.854	832.678	666.286
365.810	28.729	832.679	665.773
366.825	28.680	832.209	665.164
367.840	28.682	831.182	664.291
368.854	28.308	829.672	661.671
369.869	28.281	829.463	661.349
370.883	28.280	828.969	660.896
371.898	28.287	828.697	660.645
372.913	28.467	828.402	661.000
373.927	28.373	828.330	660.545
374.942	28.044	828.640	659.545
375.956	28.845	826.932	661.011
376.971	28.752	827.656	661.195
377.986	29.144	826.971	661.999
379.000	29.181	825.972	661.276
380.015	28.937	825.203	659.725
381.029	28.750	825.615	659.327
382.044	28.775	824.420	658.403
383.059	28.820	824.313	658.418
384.073	28.762	824.593	658.378
385.088	28.778	822.458	656.670
386.102	28.616	821.674	655.407
387.117	28.473	821.148	654.421
388.132	28.230	820.131	652.687
389.146	27.401	819.068	648.831
390.161	28.448	818.698	652.205
391.175	28.780	819.082	653.638
392.190	28.084	818.864	650.929
393.205	26.497	816.437	643.304
394.219	25.251	813.998	636.908
395.234	25.139	814.340	636.719
396.248	26.792	815.823	643.696
397.263	28.550	815.990	650.007
398.278	28.300	815.995	649.069
399.292	28.053	814.732	647.132
400.307	28.340	815.368	648.596
401.321	28.258	814.588	647.629
402.336	28.722	813.984	648.729
403.350	29.364	814.395	651.270
404.365	29.141	814.243	650.300
405.380	29.355	814.346	651.082
406.394	29.473	813.643	650.879
407.409	29.601	813.083	650.823
408.423	29.694	812.685	650.776
409.438	30.300	811.270	651.716
410.453	29.541	811.763	649.383
411.467	29.958	809.781	649.203
412.482	29.693	810.260	648.601
413.496	29.629	809.784	647.937
414.511	29.618	810.373	648.314
415.526	29.462	808.909	646.539
416.540	29.290	808.209	645.319
417.555	29.123	807.891	644.423
418.569	29.274	807.570	644.639
419.584	29.278	806.624	643.840
420.599	29.141	806.162	642.936
421.613	159.332	1371.275	1792.421
422.628	138.444	1453.625	1792.425
