DTS Sentinel unit serial number:	SN413079Multiplexer serial number:	ORYXHardware model number:	OX4-SRSoftware version number:	ORYX F/W v4.00 Oryx Data Collector v3.7.2.0data status	okinstallation	princeton_trtdifferential loss correction	single-endedforward channel	channel 1reverse channel	N/Adate	2019/09/12time	15:16:11forward acquisition time	60.00reverse acquisition time	0.00gamma	496.2192k internal	0.2292k external	0.2292temperature offset calibration	1.0055default loss term (dB/km)	0.3790temperature slope calibration	1.0000multiplexer offset coefficient	1.0000multiplexer slope coefficient	1.0000fibre end	0.00T internal ref (°C)	40.75T ext. ref 1 (°C)	2.38T ext. ref 2 (°C)	38.01length (m)	temperature (°C)	Stokes	anti-Stokes-747.200	-42.959	0.135	-0.070
-746.185	800.000	-0.116	0.353
-745.171	-200.000	-0.032	-0.248
-744.156	-200.000	-0.030	0.190
-743.142	-14.450	-0.337	-0.222
-742.127	-24.868	-0.331	0.201
-741.112	-68.668	0.273	-0.108
-740.098	-97.016	-0.776	-0.208
-739.083	41.842	-0.053	0.049
-738.069	-41.868	0.244	0.128
-737.054	159.097	0.173	0.246
-736.039	53.430	-0.222	-0.217
-735.025	74.061	0.236	-0.253
-734.010	-200.000	-0.036	-0.198
-732.996	-200.000	-0.093	-0.451
-731.981	30.042	-0.118	0.103
-730.966	89.604	-0.113	-0.129
-729.952	114.313	-0.255	0.318
-728.937	800.000	0.056	0.167
-727.923	-36.789	0.183	0.100
-726.908	170.806	0.076	-0.111
-725.894	-66.166	-0.131	0.053
-724.879	15.066	0.047	0.037
-723.864	242.138	-0.153	-0.262
-722.850	-109.147	-0.126	-0.027
-721.835	-79.272	0.357	0.124
-720.821	-91.626	-0.336	-0.098
-719.806	560.907	0.025	-0.061
-718.791	624.891	0.128	-0.329
-717.777	218.282	-0.058	-0.094
-716.762	-200.000	0.011	-0.279
-715.748	800.000	-0.032	-0.095
-714.733	800.000	-0.119	-0.365
-713.718	-41.222	0.155	0.082
-712.704	111.016	-0.162	0.200
-711.689	-200.000	-0.046	-0.217
-710.675	432.207	0.151	-0.335
-709.660	38.302	-0.194	-0.177
-708.645	800.000	-0.062	0.213
-707.631	109.114	-0.323	-0.394
-706.616	706.074	-0.047	0.126
-705.602	-118.044	0.205	0.037
-704.587	521.553	0.056	0.133
-703.572	509.005	0.091	0.216
-702.558	168.652	-0.210	0.306
-701.543	602.971	0.105	0.266
-700.529	-24.169	0.076	-0.046
-699.514	104.806	-0.132	0.159
-698.499	800.000	-0.042	0.156
-697.485	346.833	0.141	0.283
-696.470	-200.000	-0.044	0.378
-695.456	800.000	0.044	-0.162
-694.441	800.000	0.071	0.302
-693.426	453.988	-0.100	-0.227
-692.412	-39.620	-0.142	-0.076
-691.397	155.953	0.101	0.142
-690.383	-9.539	-0.251	0.171
-689.368	-68.753	0.160	0.063
-688.354	27.156	0.096	-0.082
-687.339	-28.450	-0.135	0.079
-686.324	-137.019	-0.427	-0.050
-685.310	-200.000	-0.096	0.000
-684.295	-106.260	0.289	0.066
-683.281	-17.429	0.346	-0.222
-682.266	100.274	0.153	-0.181
-681.251	-2.625	-0.116	-0.083
-680.237	106.326	-0.130	-0.157
-679.222	47.578	0.037	-0.035
-678.208	-40.664	-0.037	0.020
-677.193	-116.579	-0.400	-0.075
-676.178	57.154	0.142	-0.141
-675.164	2.200	0.101	0.075
-674.149	375.980	0.134	-0.279
-673.135	160.906	0.164	0.234
-672.120	329.383	-0.186	-0.364
-671.105	7.304	0.042	-0.032
-670.091	43.105	-0.120	-0.112
-669.076	-70.026	0.069	0.027
-668.062	-81.923	-0.095	0.032
-667.047	45.643	0.155	-0.146
-666.032	800.000	0.034	-0.140
-665.018	-65.470	0.008	-0.003
-664.003	-200.000	-0.026	-0.397
-662.989	-35.249	0.076	-0.042
-661.974	-26.485	0.278	0.166
-660.959	16.910	0.192	0.155
-659.945	64.786	0.286	0.295
-658.930	800.000	-0.067	-0.253
-657.916	-56.165	-0.154	0.070
-656.901	157.239	-0.242	-0.342
-655.886	-200.000	-0.004	-0.206
-654.872	271.406	-0.177	-0.319
-653.857	-200.000	0.027	-0.245
-652.843	-49.361	-0.142	0.069
-651.828	-13.156	0.323	0.214
-650.814	-125.562	0.259	-0.040
-649.799	435.631	-0.064	-0.142
-648.784	82.474	0.298	0.330
-647.770	-23.579	-0.210	0.129
-646.755	227.901	-0.081	0.134
-645.741	151.556	0.101	-0.140
-644.726	287.967	0.197	-0.364
-643.711	53.287	-0.151	-0.148
-642.697	526.216	0.078	0.188
-641.682	-177.814	0.281	0.007
-640.668	-200.000	0.005	0.132
-639.653	19.493	-0.161	-0.132
-638.638	124.338	-0.090	0.115
-637.624	-6.312	0.229	-0.159
-636.609	150.280	0.210	-0.291
-635.595	298.002	-0.096	-0.179
-634.580	-104.371	0.060	-0.014
-633.565	-200.000	0.014	0.148
-632.551	128.228	0.037	0.048
-631.536	-200.000	-0.037	0.232
-630.522	-200.000	0.317	0.000
-629.507	-25.035	0.140	-0.085
-628.492	-38.106	-0.458	-0.247
-627.478	-154.389	0.214	0.015
-626.463	800.000	-0.023	0.094
-625.449	-200.000	-0.027	-0.224
-624.434	27.766	-0.273	-0.235
-623.419	-200.000	-0.052	0.333
-622.405	17.956	-0.312	0.253
-621.390	-200.000	0.037	-0.368
-620.376	301.056	-0.105	-0.197
-619.361	-200.000	0.015	0.072
-618.346	-131.308	-0.158	0.021
-617.332	354.406	-0.125	0.253
-616.317	18.730	0.073	-0.059
-615.303	-200.000	0.019	0.111
-614.288	-121.725	-0.211	0.036
-613.273	-200.000	-0.005	0.074
-612.259	-200.000	0.036	0.209
-611.244	80.947	-0.181	-0.199
-610.230	11.047	0.161	-0.126
-609.215	-200.000	-0.013	0.122
-608.201	-83.412	0.140	-0.046
-607.186	47.731	0.188	-0.179
-606.171	-200.000	0.025	-0.309
-605.157	350.103	0.115	-0.231
-604.142	-200.000	-0.018	-0.213
-603.128	-200.000	-0.220	0.001
-602.113	-17.133	0.031	-0.020
-601.098	-10.064	0.053	-0.036
-600.084	-65.530	-0.105	0.043
-599.069	-34.328	-0.085	0.047
-598.055	-200.000	0.019	0.093
-597.040	151.697	-0.022	0.030
-596.025	-32.552	-0.260	0.148
-595.011	-137.939	0.047	-0.005
-593.996	-200.000	0.005	0.256
-592.982	-3.073	0.244	-0.173
-591.967	-48.124	-0.083	0.041
-590.952	-105.185	-0.146	-0.034
-589.938	-25.123	0.389	-0.234
-588.923	800.000	0.017	0.077
-587.909	-32.546	0.104	-0.059
-586.894	-157.560	-0.398	0.024
-585.879	42.654	-0.085	-0.079
-584.865	-87.529	0.260	-0.080
-583.850	-194.126	-0.150	-0.001
-582.836	-120.932	0.477	-0.082
-581.821	-200.000	0.018	0.256
-580.806	301.668	-0.143	-0.268
-579.792	6.151	-0.147	-0.111
-578.777	106.152	-0.273	0.328
-577.763	-200.000	-0.040	-0.419
-576.748	-110.136	0.190	-0.040
-575.733	-0.754	0.193	-0.139
-574.719	-112.211	-0.172	0.035
-573.704	428.593	-0.065	-0.143
-572.690	657.959	0.113	-0.295
-571.675	-122.041	-0.153	-0.026
-570.661	-9.693	-0.333	-0.226
-569.646	-60.577	0.499	-0.215
-568.631	-87.654	-0.266	0.082
-567.617	-63.911	0.332	0.138
-566.602	-200.000	-0.040	-0.508
-565.588	166.154	-0.278	-0.399
-564.573	22.856	0.299	0.249
-563.558	-42.949	-0.165	-0.085
-562.544	462.223	-0.046	-0.103
-561.529	64.298	-0.300	0.306
-560.515	122.636	-0.079	0.100
-559.500	82.665	0.158	0.174
-558.485	800.000	0.017	0.069
-557.471	14.407	-0.236	0.187
-556.456	800.000	0.034	-0.097
-555.442	160.391	0.161	-0.229
-554.427	-200.000	0.023	-0.337
-553.412	-25.877	-0.183	0.110
-552.398	84.860	0.073	0.081
-551.383	378.238	-0.080	0.167
-550.369	81.729	-0.044	0.048
-549.354	49.857	0.097	0.093
-548.339	67.127	-0.149	-0.154
-547.325	1.015	-0.179	-0.130
-546.310	-43.738	0.338	0.173
-545.296	-86.205	-0.223	-0.070
-544.281	-83.697	0.400	-0.130
-543.266	-10.824	-0.025	0.017
-542.252	610.552	-0.116	0.294
-541.237	278.046	-0.058	0.105
-540.223	90.337	0.193	0.219
-539.208	30.056	0.090	0.078
-538.193	-111.765	-0.081	-0.017
-537.179	-200.000	-0.019	-0.162
-536.164	-169.999	-0.134	-0.005
-535.150	654.722	0.066	0.172
-534.135	-98.979	-0.095	0.024
-533.121	86.107	0.067	-0.075
-532.106	64.827	0.078	-0.080
-531.091	800.000	-0.042	-0.179
-530.077	-45.303	-0.139	-0.070
-529.062	800.000	-0.020	0.071
-528.048	800.000	0.039	-0.127
-527.033	-200.000	0.022	0.225
-526.018	-177.677	0.137	-0.003
-525.004	539.356	0.067	0.161
-523.989	-200.000	-0.026	0.226
-522.975	-86.433	0.126	-0.039
-521.960	72.908	-0.118	-0.125
-520.945	-200.000	-0.001	-0.016
-519.931	-16.808	0.245	0.157
-518.916	45.895	0.079	0.074
-517.902	-128.141	-0.059	-0.009
-516.887	-98.873	0.314	0.081
-515.872	-32.390	0.224	0.127
-514.858	-123.894	-0.023	-0.004
-513.843	800.000	-0.074	-0.283
-512.829	24.533	-0.187	0.157
-511.814	548.677	0.087	0.211
-510.799	-200.000	0.008	-0.180
-509.785	-83.530	-0.388	-0.126
-508.770	56.836	-0.064	-0.063
-507.756	66.308	-0.144	0.149
-506.741	-16.570	0.110	-0.071
-505.726	-78.041	-0.062	0.022
-504.712	-104.803	0.274	0.064
-503.697	-200.000	-0.015	-0.122
-502.683	567.424	-0.131	-0.323
-501.668	-200.000	0.013	-0.061
-500.653	-68.076	-0.111	-0.044
-499.639	-56.885	-0.064	-0.029
-498.624	454.368	-0.118	0.265
-497.610	800.000	0.097	0.327
-496.595	-30.753	0.216	-0.124
-495.581	800.000	-0.109	-0.379
-494.566	520.265	-0.084	-0.199
-493.551	-2.712	0.226	-0.160
-492.537	-156.215	-0.560	0.036
-491.522	800.000	-0.025	-0.105
-490.508	300.232	-0.105	-0.197
-489.493	-62.641	0.204	0.086
-488.478	24.737	-0.161	0.135
-487.464	-77.795	0.237	-0.083
-486.449	-75.180	-0.233	0.084
-485.435	800.000	-0.124	-0.349
-484.420	-200.000	-0.012	0.464
-483.405	800.000	-0.071	-0.305
-482.391	-74.919	0.052	0.019
-481.376	217.533	0.163	-0.264
-480.362	800.000	-0.078	-0.233
-479.347	-200.000	0.048	-0.276
-478.332	-106.421	0.100	0.023
-477.318	800.000	-0.102	-0.286
-476.303	382.318	-0.137	0.285
-475.289	-200.000	0.040	0.242
-474.274	-85.285	0.149	0.047
-473.259	800.000	-0.022	0.068
-472.245	-169.991	0.257	0.009
-471.230	800.000	-0.025	-0.103
-470.216	-171.979	0.165	0.005
-469.201	50.143	-0.046	-0.044
-468.186	800.000	0.068	-0.266
-467.172	-109.304	0.530	-0.114
-466.157	800.000	0.024	0.088
-465.143	-200.000	0.018	0.323
-464.128	-16.103	0.202	-0.130
-463.113	-80.414	-0.246	-0.083
-462.099	800.000	0.031	-0.101
-461.084	-54.571	0.080	0.037
-460.070	76.908	-0.167	0.179
-459.055	800.000	-0.040	0.164
-458.040	-127.382	-0.189	-0.028
-457.026	-30.316	-0.358	-0.206
-456.011	800.000	-0.094	-0.387
-454.997	-113.501	0.135	-0.027
-453.982	3.296	0.087	0.064
-452.968	-21.680	-0.251	-0.155
-451.953	-29.961	0.208	0.120
-450.938	-200.000	0.013	0.084
-449.924	375.759	-0.119	-0.246
-448.909	-200.000	0.014	0.112
-447.895	-75.858	-0.207	0.074
-446.880	-184.973	0.183	-0.003
-445.865	40.740	0.140	-0.128
-444.851	-50.636	-0.120	-0.057
-443.836	800.000	0.045	-0.155
-442.822	21.954	-0.136	-0.112
-441.807	108.090	-0.050	-0.060
-440.792	341.457	0.027	0.053
-439.778	251.017	-0.148	0.255
-438.763	-178.975	0.492	-0.011
-437.749	250.472	-0.115	-0.198
-436.734	344.250	-0.106	-0.210
-435.719	171.499	-0.058	0.084
-434.705	88.529	-0.311	-0.349
-433.690	145.448	0.077	-0.105
-432.676	800.000	-0.041	-0.155
-431.661	-42.009	0.040	-0.021
-430.646	800.000	-0.109	0.399
-429.632	289.208	-0.096	0.176
-428.617	247.755	0.059	-0.101
-427.603	0.483	-0.242	-0.175
-426.588	53.531	0.100	0.097
-425.573	-37.706	-0.342	-0.184
-424.559	-200.000	-0.002	0.055
-423.544	107.575	0.264	-0.317
-422.530	191.593	-0.078	-0.119
-421.515	-200.000	0.016	-0.132
-420.500	180.126	-0.083	-0.123
-419.486	-27.929	0.139	0.081
-418.471	299.987	0.088	-0.163
-417.457	-135.398	-0.247	0.030
-416.442	-52.078	-0.297	0.140
-415.428	-81.079	0.128	0.043
-414.413	-121.226	-0.342	-0.058
-413.398	-37.588	-0.054	-0.029
-412.384	-200.000	-0.048	-0.294
-411.369	800.000	-0.056	-0.212
-410.355	-16.591	-0.299	0.191
-409.340	800.000	0.036	0.125
-408.325	-56.284	0.076	0.034
-407.311	-95.753	0.161	-0.044
-406.296	-116.493	-0.112	0.021
-405.282	-200.000	0.028	0.324
-404.267	800.000	-0.045	0.166
-403.252	-93.072	-0.257	-0.072
-402.238	426.280	0.184	0.400
-401.223	-200.000	0.031	0.223
-400.209	-90.315	-0.414	-0.121
-399.194	246.091	0.065	0.110
-398.179	-68.247	0.179	0.070
-397.165	-62.283	-0.278	0.117
-396.150	-141.458	-0.316	0.032
-395.136	86.707	0.112	-0.125
-394.121	75.248	0.126	-0.134
-393.106	-31.225	0.225	0.128
-392.092	79.934	0.041	0.045
-391.077	16.351	-0.200	0.159
-390.063	800.000	-0.081	0.254
-389.048	-39.070	-0.301	-0.160
-388.033	-121.996	-0.103	0.017
-387.019	-133.757	0.075	-0.009
-386.004	23.496	-0.226	-0.188
-384.990	-142.540	0.236	-0.023
-383.975	299.848	-0.106	0.197
-382.960	-22.595	0.272	0.166
-381.946	-112.462	0.285	0.058
-380.931	-143.148	0.218	0.021
-379.917	800.000	0.015	-0.047
-378.902	15.587	-0.159	-0.126
-377.888	-114.776	0.161	0.031
-376.873	-147.620	0.218	-0.018
-375.858	-123.605	-0.324	0.052
-374.844	-200.000	0.003	-0.046
-373.829	-200.000	0.035	-0.289
-372.815	-200.000	0.006	0.072
-371.800	79.261	-0.050	-0.054
-370.785	238.613	-0.132	-0.220
-369.771	-200.000	0.022	0.116
-368.756	348.737	0.074	-0.147
-367.742	800.000	0.099	0.277
-366.727	800.000	-0.002	-0.008
-365.712	-200.000	0.037	0.390
-364.698	-200.000	0.023	0.205
-363.683	800.000	0.081	-0.246
-362.669	25.624	0.186	0.156
-361.654	-35.236	-0.129	0.071
-360.639	-0.531	-0.227	0.162
-359.625	-36.203	-0.150	-0.082
-358.610	-200.000	0.001	-0.158
-357.596	-189.314	-0.180	0.002
-356.581	684.165	0.034	-0.089
-355.566	800.000	0.006	0.025
-354.552	-105.466	-0.295	0.068
-353.537	344.820	0.091	0.181
-352.523	-200.000	0.015	0.269
-351.508	-114.957	-0.292	-0.056
-350.493	74.870	-0.099	0.105
-349.479	9.381	0.048	0.036
-348.464	-200.000	0.001	0.070
-347.450	-69.509	-0.288	0.111
-346.435	800.000	0.126	0.393
-345.420	268.856	0.163	-0.288
-344.406	164.362	0.164	-0.232
-343.391	3.301	0.195	0.143
-342.377	67.862	-0.122	0.126
-341.362	159.384	-0.162	-0.227
-340.348	548.848	0.082	0.198
-339.333	57.727	-0.269	0.265
-338.318	-2.355	0.168	-0.119
-337.304	237.759	-0.023	0.038
-336.289	-200.000	0.009	-0.067
-335.275	-1.631	0.213	-0.151
-334.260	-67.603	-0.204	-0.081
-333.245	800.000	-0.136	0.384
-332.231	-154.203	-0.330	-0.022
-331.216	-52.507	0.153	0.071
-330.202	73.353	0.017	0.018
-329.187	52.212	-0.074	0.071
-328.172	497.248	-0.093	-0.215
-327.158	148.674	0.209	0.284
-326.143	800.000	0.125	0.398
-325.129	-32.544	-0.185	0.104
-324.114	-21.995	0.260	0.159
-323.099	627.127	0.051	0.129
-322.085	630.537	0.083	0.212
-321.070	647.780	0.036	0.093
-320.056	166.760	-0.006	-0.009
-319.041	800.000	0.118	-0.375
-318.026	-159.256	-0.072	0.004
-317.012	174.280	-0.209	-0.304
-315.997	800.000	0.035	0.103
-314.983	47.196	0.137	0.129
-313.968	157.859	-0.172	0.239
-312.953	-143.423	-0.170	0.016
-311.939	-200.000	-0.030	0.167
-310.924	143.220	-0.159	-0.213
-309.910	-67.693	0.222	-0.088
-308.895	-194.029	0.220	0.002
-307.880	-102.982	0.204	0.049
-306.866	-106.676	0.224	0.050
-305.851	-19.876	0.097	0.060
-304.837	90.495	-0.138	0.155
-303.822	-78.988	-0.243	-0.083
-302.807	-106.553	0.106	0.024
-301.793	-75.751	0.216	0.077
-300.778	-101.974	0.110	0.027
-299.764	328.289	-0.108	-0.209
-298.749	31.322	0.110	-0.095
-297.735	337.100	-0.126	0.247
-296.720	72.564	0.105	0.110
-295.705	-60.774	-0.203	-0.087
-294.691	-200.000	-0.003	-0.165
-293.676	-90.807	0.023	-0.007
-292.662	-197.867	-0.132	0.001
-291.647	-24.635	0.258	-0.155
-290.632	268.369	-0.116	0.205
-289.618	9.445	-0.068	0.052
-288.603	-94.508	-0.084	-0.023
-287.589	-39.446	0.363	0.191
-286.574	111.320	0.060	-0.072
-285.559	800.000	0.007	0.028
-284.545	131.742	0.038	-0.050
-283.530	800.000	0.109	0.438
-282.516	-9.314	-0.314	0.211
-281.501	141.964	0.054	-0.072
-280.486	229.116	0.137	0.225
-279.472	800.000	-0.065	-0.241
-278.457	-200.000	-0.001	-0.068
-277.443	-157.922	0.194	-0.011
-276.428	800.000	0.031	0.119
-275.413	-147.139	-0.356	0.031
-274.399	110.136	0.155	0.187
-273.384	212.555	-0.132	0.209
-272.370	-7.153	-0.198	0.135
-271.355	-95.467	0.257	0.069
-270.340	102.620	-0.122	0.144
-269.326	800.000	-0.007	0.027
-268.311	-147.446	0.140	0.012
-267.297	24.701	-0.158	0.132
-266.282	51.501	-0.077	-0.073
-265.267	-107.127	0.197	-0.044
-264.253	669.280	0.131	0.339
-263.238	-42.703	0.160	-0.082
-262.224	-142.911	0.172	-0.017
-261.209	-132.015	0.155	0.020
-260.195	220.113	-0.098	0.158
-259.180	211.805	0.195	-0.308
-258.165	-200.000	-0.009	-0.229
-257.151	200.555	-0.048	0.074
-256.136	-200.000	0.005	0.239
-255.122	-112.663	-0.084	-0.017
-254.107	-200.000	-0.015	0.295
-253.092	-41.417	-0.033	0.017
-252.078	705.605	0.136	0.360
-251.063	26.358	-0.267	0.224
-250.049	29.019	0.184	0.157
-249.034	-200.000	0.058	0.325
-248.019	356.579	0.089	-0.179
-247.005	-200.000	0.005	0.061
-245.990	-142.177	0.129	-0.013
-244.976	-10.473	-0.285	0.190
-243.961	-79.951	-0.156	0.053
-242.946	-33.947	0.122	0.067
-241.932	-200.000	0.023	-0.343
-240.917	97.864	-0.103	-0.119
-239.903	490.314	0.148	-0.340
-238.888	-143.927	0.358	0.034
-237.873	-200.000	0.011	-0.134
-236.859	-36.173	0.288	-0.156
-235.844	84.158	0.234	-0.257
-234.830	310.639	-0.126	-0.237
-233.815	649.575	0.055	0.141
-232.800	-20.317	0.114	0.070
-231.786	-200.000	0.027	0.231
-230.771	51.051	-0.055	0.053
-229.757	-191.363	0.330	-0.003
-228.742	-200.000	-0.013	-0.082
-227.727	68.028	0.054	0.055
-226.713	230.487	0.179	-0.294
-225.698	-200.000	-0.038	0.261
-224.684	186.967	-0.096	0.143
-223.669	800.000	0.036	-0.157
-222.655	6.646	0.213	-0.159
-221.640	306.057	-0.092	-0.172
-220.625	-200.000	0.008	-0.171
-219.611	297.453	0.066	-0.122
-218.596	18.602	-0.113	-0.091
-217.582	-98.737	0.254	0.065
-216.567	117.001	-0.280	-0.345
-215.552	-200.000	0.015	0.434
-214.538	152.207	-0.075	-0.103
-213.523	-200.000	0.025	0.290
-212.509	74.788	0.154	-0.163
-211.494	102.915	0.164	-0.192
-210.479	236.362	-0.073	-0.122
-209.465	-87.902	0.199	-0.060
-208.450	89.282	0.207	-0.232
-207.436	489.428	-0.172	-0.393
-206.421	329.456	-0.063	-0.122
-205.406	-91.047	0.221	0.063
-204.392	108.128	0.107	-0.128
-203.377	800.000	0.029	-0.097
-202.363	130.830	-0.110	0.141
-201.348	-21.064	0.170	0.104
-200.333	185.821	-0.084	-0.125
-199.319	217.425	-0.071	-0.114
-198.304	800.000	0.081	-0.226
-197.290	225.817	0.160	-0.260
-196.275	29.982	0.140	0.120
-195.260	309.866	-0.187	0.351
-194.246	-200.000	-0.020	0.392
-193.231	-200.000	0.056	0.320
-192.217	5.988	0.233	0.173
-191.202	-22.802	-0.292	-0.177
-190.187	-44.428	0.150	-0.075
-189.173	-114.623	-0.190	0.036
-188.158	800.000	0.033	0.128
-187.144	-18.827	0.065	0.040
-186.129	176.855	-0.139	0.202
-185.114	-200.000	-0.000	0.100
-184.100	2.327	-0.314	-0.227
-183.085	53.439	-0.229	-0.220
-182.071	800.000	0.120	0.391
-181.056	55.962	0.166	-0.161
-180.042	-151.988	-0.188	0.014
-179.027	13.526	-0.062	0.048
-178.012	-152.386	-0.387	0.028
-176.998	-200.000	-0.013	0.342
-175.983	-73.278	0.191	-0.070
-174.969	655.258	-0.127	0.327
-173.954	-200.000	0.014	0.153
-172.939	800.000	0.060	-0.183
-171.925	177.438	0.279	0.407
-170.910	-200.000	0.016	0.292
-169.896	-61.551	-0.056	0.024
-168.881	-66.684	0.338	0.134
-167.866	-94.255	-0.105	-0.029
-166.852	694.562	0.103	0.272
-165.837	-62.362	0.277	-0.115
-164.823	199.565	-0.037	0.056
-163.808	727.966	-0.151	-0.404
-162.793	-21.304	-0.357	-0.218
-161.779	50.518	0.127	-0.120
-160.764	306.162	0.138	-0.257
-159.750	-200.000	-0.254	-0.000
-158.735	252.511	-0.101	-0.173
-157.720	40.149	-0.026	-0.023
-156.706	-200.000	-0.023	-0.181
-155.691	-3.750	0.157	-0.109
-154.677	-200.000	0.013	0.171
-153.662	472.952	0.080	-0.181
-152.647	74.336	0.172	0.180
-151.633	124.308	0.032	-0.041
-150.618	-149.610	-0.372	-0.029
-149.604	-200.000	-0.007	0.192
-148.589	488.436	0.050	0.115
-147.574	59.306	0.194	-0.191
-146.560	-17.701	-0.190	-0.119
-145.545	43.268	0.077	-0.070
-144.531	-32.725	0.393	0.219
-143.516	-182.407	0.342	0.006
-142.502	226.317	0.073	0.118
-141.487	-153.681	0.353	-0.024
-140.472	224.694	-0.071	-0.115
-139.458	-45.413	0.159	-0.079
-138.443	46.634	0.131	0.121
-137.429	800.000	-0.023	-0.089
-136.414	120.082	0.165	-0.204
-135.399	800.000	0.155	0.547
-134.385	-16.389	0.090	-0.057
-133.370	91.653	0.189	-0.212
-132.356	147.771	-0.194	-0.261
-131.341	-45.439	0.304	0.151
-130.326	800.000	0.037	-0.116
-129.312	138.222	0.214	0.280
-128.297	331.495	0.100	0.192
-127.283	173.328	-0.192	-0.276
-126.268	-95.809	0.104	0.028
-125.253	-157.114	0.253	0.015
-124.239	-183.186	0.402	-0.007
-123.224	800.000	0.054	-0.174
-122.210	-84.425	-0.203	-0.064
-121.195	-200.000	0.009	0.258
-120.180	-69.102	-0.249	0.096
-119.166	-127.734	0.164	-0.024
-118.151	362.474	-0.192	0.386
-117.137	131.649	0.266	-0.342
-116.122	-200.000	0.002	0.093
-115.107	800.000	-0.064	-0.189
-114.093	128.340	0.176	0.223
-113.078	30.668	-0.118	0.101
-112.064	-65.864	-0.268	-0.107
-111.049	800.000	0.052	-0.191
-110.034	98.974	-0.260	0.300
-109.020	136.186	0.118	-0.153
-108.005	-63.971	0.374	-0.153
-106.991	-200.000	-0.012	0.287
-105.976	800.000	-0.082	0.227
-104.962	-144.003	0.203	-0.019
-103.947	-200.000	-0.031	-0.203
-102.932	-32.250	-0.305	0.170
-101.918	33.020	-0.075	-0.065
-100.903	-200.000	-0.006	0.212
-99.889	25.215	0.171	-0.142
-98.874	-6.225	0.213	0.145
-97.859	-61.523	0.165	0.069
-96.845	-155.864	-0.087	-0.006
-95.830	5.760	0.184	0.136
-94.816	800.000	0.071	-0.213
-93.801	-15.585	-0.209	-0.133
-92.786	2.670	-0.076	0.055
-91.772	132.094	-0.123	-0.158
-90.757	104.914	0.252	-0.296
-89.743	-5.819	0.177	0.121
-88.728	44.735	0.109	0.100
-87.713	91.491	-0.063	0.070
-86.699	-177.651	0.211	-0.005
-85.684	-24.201	0.410	0.244
-84.670	119.550	0.089	-0.110
-83.655	-200.000	-0.030	0.416
-82.640	94.526	0.040	-0.046
-81.626	-77.148	-0.164	0.057
-80.611	447.861	0.074	0.162
-79.597	13.084	0.157	-0.121
-78.582	168.025	0.294	0.417
-77.567	-138.777	0.018	0.002
-76.553	-156.499	0.221	0.014
-75.538	265.701	0.039	0.068
-74.524	-200.000	-0.036	0.279
-73.509	27.331	-0.135	0.113
-72.494	-200.000	-0.014	-0.067
-71.480	30.051	0.150	-0.127
-70.465	-96.839	0.064	-0.017
-69.451	234.674	0.083	-0.136
-68.436	-200.000	0.007	-0.122
-67.422	-31.255	-0.207	-0.116
-66.407	-57.418	0.363	0.159
-65.392	-200.000	-0.018	0.077
-64.378	800.000	0.032	-0.092
-63.363	-200.000	-0.023	-0.126
-62.349	-118.773	0.437	0.077
-61.334	95.373	-0.425	-0.482
-60.319	46.642	-0.139	0.129
-59.305	-200.000	-0.057	-0.985
-58.290	800.000	0.241	0.807
-57.276	800.000	0.593	1.941
-56.261	-200.000	75.917	511.503
-55.246	526.478	1322.141	3102.911
-54.232	147.756	2549.153	3422.737
-53.217	118.315	2220.210	2728.024
-52.203	52.595	1665.620	1584.694
-51.188	44.580	1389.784	1272.367
-50.173	40.830	1344.657	1208.254
-49.159	59.800	1379.739	1356.537
-48.144	66.767	1398.291	1417.365
-47.130	45.046	1360.973	1248.642
-46.115	41.017	1344.560	1209.107
-45.100	40.732	1339.871	1203.116
-44.086	40.567	1337.860	1200.265
-43.071	40.546	1335.048	1197.566
-42.057	40.598	1332.804	1195.824
-41.042	40.617	1331.451	1194.675
-40.027	40.592	1330.192	1193.349
-39.013	40.599	1327.778	1191.177
-37.998	40.655	1325.943	1189.821
-36.984	40.802	1324.209	1189.099
-35.969	40.791	1322.461	1187.411
-34.954	40.791	1321.096	1186.140
-33.940	40.693	1319.914	1184.450
-32.925	40.960	1317.907	1184.193
-31.911	40.883	1316.700	1182.600
-30.896	40.899	1315.282	1181.373
-29.881	40.819	1314.050	1179.747
-28.867	40.846	1312.447	1178.421
-27.852	40.862	1311.071	1177.234
-26.838	40.819	1309.823	1175.810
-25.823	40.864	1308.531	1174.870
-24.809	40.866	1306.849	1173.326
-23.794	40.875	1305.295	1171.940
-22.779	40.771	1304.391	1170.468
-21.765	40.807	1302.633	1169.054
-20.750	40.897	1301.509	1168.529
-19.736	40.777	1299.803	1166.247
-18.721	40.551	1299.240	1164.365
-17.706	40.713	1297.785	1163.969
-16.692	40.680	1296.557	1162.629
-15.677	40.719	1295.658	1162.001
-14.663	40.646	1294.725	1160.695
-13.648	40.708	1292.984	1159.446
-12.633	40.650	1292.492	1158.622
-11.619	40.709	1291.109	1157.680
-10.604	40.755	1290.290	1157.167
-9.590	40.690	1289.813	1156.318
-8.575	40.756	1288.308	1155.303
-7.560	40.679	1287.814	1154.371
-6.546	40.614	1286.884	1153.112
-5.531	40.605	1286.152	1152.358
-4.517	40.735	1284.990	1152.027
-3.502	40.698	1284.481	1151.308
-2.487	40.678	1283.199	1149.999
-1.473	40.740	1279.467	1146.963
-0.458	39.849	1264.472	1128.387
0.556	36.384	1244.829	1087.019
1.571	32.260	1248.031	1066.381
2.586	30.920	1262.587	1071.029
3.600	28.694	1250.662	1048.126
4.615	20.389	1172.600	937.965
5.629	8.270	1089.792	810.448
6.644	2.877	1066.165	765.958
7.659	2.398	1063.260	761.422
8.673	2.224	1061.489	759.221
9.688	2.044	1060.331	757.436
10.702	2.576	1058.913	758.992
11.717	9.579	1069.788	801.669
12.731	20.622	1085.433	868.789
13.746	25.424	1090.959	897.181
14.761	25.705	1090.996	898.530
15.775	25.709	1090.552	898.110
16.790	25.591	1089.815	896.831
17.804	25.372	1089.228	895.181
18.819	25.577	1088.326	895.380
19.834	25.758	1087.937	895.879
20.848	25.668	1087.758	895.206
21.863	25.750	1087.200	895.076
22.877	25.593	1086.551	893.684
23.892	25.638	1085.897	893.287
24.907	25.540	1085.348	892.273
25.921	25.633	1083.795	891.374
26.936	25.570	1082.547	889.959
27.950	25.495	1081.307	888.490
28.965	25.471	1078.972	886.376
29.980	25.481	1078.271	885.770
30.994	25.725	1076.948	885.808
32.009	25.670	1075.875	884.574
33.023	25.498	1074.714	882.700
34.038	25.585	1074.420	882.804
35.053	25.660	1073.323	882.194
36.067	25.645	1072.633	881.475
37.082	25.703	1071.735	880.943
38.096	25.777	1071.429	880.974
39.111	25.891	1070.838	880.971
40.126	25.723	1069.448	878.924
41.140	25.375	1067.612	875.642
42.155	25.223	1066.383	873.820
43.169	25.251	1064.748	872.539
44.184	25.208	1064.400	871.967
45.199	25.109	1063.599	870.753
46.213	25.201	1062.424	870.157
47.228	25.371	1061.992	870.555
48.242	25.500	1061.125	870.390
49.257	25.674	1060.260	870.445
50.271	25.705	1059.610	869.986
51.286	25.735	1058.897	869.464
52.301	25.793	1057.556	868.569
53.315	25.657	1056.541	867.000
54.330	25.605	1056.003	866.232
55.344	25.751	1054.980	866.020
56.359	25.544	1054.519	864.568
57.374	25.292	1053.713	862.620
58.388	25.426	1052.676	862.342
59.403	25.288	1051.873	860.943
60.417	25.210	1050.900	859.699
61.432	25.242	1050.770	859.667
62.447	25.401	1049.601	859.398
63.461	25.583	1048.679	859.434
64.476	25.287	1048.269	857.611
65.490	25.260	1046.803	856.207
66.505	25.307	1046.397	856.020
67.520	25.406	1045.581	855.753
68.534	25.208	1044.737	854.043
69.549	24.794	1043.756	851.196
70.563	24.871	1042.939	850.817
71.578	24.866	1042.084	850.021
72.593	24.618	1041.056	847.932
73.607	24.769	1040.570	848.176
74.622	25.100	1040.591	849.686
75.636	25.290	1039.441	849.573
76.651	25.101	1038.678	847.981
77.666	24.955	1037.934	846.609
78.680	24.971	1037.150	845.968
79.695	25.013	1036.803	845.808
80.709	25.054	1036.197	845.433
81.724	25.184	1035.255	845.203
82.739	25.340	1034.299	845.084
83.753	25.537	1034.210	845.862
84.768	25.986	1033.177	847.051
85.782	26.089	1031.998	846.494
86.797	25.869	1031.332	844.839
87.812	25.850	1030.157	843.714
88.826	25.894	1029.163	843.034
89.841	25.896	1028.695	842.581
90.855	25.911	1027.888	841.919
91.870	25.926	1027.031	841.211
92.884	25.676	1025.699	838.879
93.899	25.669	1024.538	837.824
94.914	25.821	1023.931	837.961
95.928	25.770	1023.031	836.913
96.943	25.446	1021.750	834.287
97.957	25.355	1020.332	832.635
98.972	25.046	1019.601	830.533
99.987	25.345	1019.053	831.396
101.001	25.563	1018.381	831.785
102.016	25.624	1017.229	831.051
103.030	25.638	1015.942	829.990
104.045	25.386	1015.623	828.492
105.060	25.209	1014.637	826.800
106.074	25.378	1013.372	826.472
107.089	25.765	1013.103	827.960
108.103	25.578	1011.798	825.961
109.118	25.224	1011.167	823.748
110.133	25.292	1010.292	823.276
111.147	25.163	1008.472	821.130
112.162	25.096	1007.755	820.164
113.176	25.150	1007.820	820.394
114.191	25.131	1006.747	819.360
115.206	24.742	1005.939	816.853
116.220	24.858	1004.528	816.163
117.235	24.875	1004.244	815.938
118.249	25.089	1003.081	815.899
119.264	24.976	1002.391	814.750
120.279	25.050	1001.431	814.235
121.293	24.961	1001.051	813.447
122.308	25.085	1000.446	813.449
123.322	24.991	998.727	811.550
124.337	24.886	997.319	809.859
125.352	24.470	996.034	806.865
126.366	24.354	995.089	805.507
127.381	25.105	995.247	808.952
128.395	25.418	995.001	810.093
129.410	25.485	994.394	809.827
130.424	25.507	993.139	808.833
131.439	25.574	991.836	808.002
132.454	25.578	991.304	807.517
133.468	25.487	990.802	806.627
134.483	25.686	989.465	806.359
135.497	25.781	989.116	806.427
136.512	25.903	988.441	806.353
137.527	25.931	987.158	805.358
138.541	25.802	986.823	804.437
139.556	25.825	986.434	804.153
140.570	25.914	985.329	803.579
141.585	25.956	984.363	802.906
142.600	25.796	983.303	801.259
143.614	26.202	982.572	802.397
144.629	26.207	981.755	801.678
145.643	26.035	980.724	800.003
146.658	25.890	979.434	798.239
147.673	25.779	978.066	796.564
148.687	25.675	977.310	795.419
149.702	25.509	976.411	793.880
150.716	25.506	975.505	793.060
151.731	25.645	974.970	793.172
152.746	25.747	974.296	793.001
153.760	25.953	973.579	793.255
154.775	26.070	972.986	793.216
155.789	25.927	972.094	791.791
156.804	25.779	971.400	790.502
157.819	26.083	970.268	790.844
158.833	26.032	970.074	790.393
159.848	26.115	968.465	789.377
160.862	26.009	967.196	787.807
161.877	25.985	966.044	786.697
162.892	26.098	965.364	786.567
163.906	25.945	964.159	784.848
164.921	25.935	963.273	784.014
165.935	26.016	962.548	783.707
166.950	25.960	961.818	782.801
167.964	26.001	961.064	782.294
168.979	25.853	959.535	780.338
169.994	25.680	959.062	779.136
171.008	25.999	958.465	779.962
172.023	26.043	957.508	779.307
173.037	25.850	956.311	777.430
174.052	25.735	955.488	776.195
175.067	25.658	955.253	775.603
176.081	25.658	954.454	774.888
177.096	25.737	953.954	774.754
178.110	25.487	952.487	772.416
179.125	25.155	952.264	770.742
180.140	25.313	951.302	770.572
181.154	25.418	951.401	771.035
182.169	25.801	951.278	772.512
183.183	25.925	950.897	772.664
184.198	25.868	949.822	771.478
185.213	25.910	949.176	771.065
186.227	25.862	948.501	770.243
187.242	25.963	947.901	770.122
188.256	26.047	947.233	769.870
189.271	26.215	946.350	769.797
190.286	25.764	944.952	766.673
191.300	25.051	943.710	762.565
192.315	24.304	941.806	757.785
193.329	24.242	941.402	757.132
194.344	25.195	942.083	761.661
195.359	25.743	942.009	763.857
196.373	25.902	941.369	763.947
197.388	25.651	941.069	762.573
198.402	25.656	940.633	762.171
199.417	25.802	939.965	762.182
200.432	25.584	938.890	760.320
201.446	25.456	937.965	758.963
202.461	25.400	937.784	758.513
203.475	24.711	935.333	753.561
204.490	23.892	934.017	748.985
205.504	24.704	934.874	753.030
206.519	25.467	934.364	755.761
207.534	25.503	934.179	755.696
208.548	25.980	934.127	757.592
209.563	25.640	933.076	755.244
210.577	25.685	932.438	754.850
211.592	25.908	932.459	755.738
212.607	26.036	931.427	755.367
213.621	25.989	930.870	754.653
214.636	25.857	930.586	753.807
215.650	25.967	929.427	753.259
216.665	26.077	929.123	753.406
217.680	26.050	928.211	752.485
218.694	25.671	926.683	749.601
219.709	25.473	926.277	748.385
220.723	25.809	925.840	749.364
221.738	25.822	925.413	749.003
222.753	25.870	924.393	748.311
223.767	25.916	924.458	748.489
224.782	26.214	924.015	749.300
225.796	26.069	923.828	748.483
226.811	25.411	922.218	744.387
227.826	24.840	920.411	740.499
228.840	24.841	920.022	740.125
229.855	25.149	919.187	740.660
230.869	24.760	918.021	738.048
231.884	25.064	918.248	739.423
232.899	25.756	918.411	742.340
233.913	25.797	917.608	741.796
234.928	25.765	917.045	741.142
235.942	25.724	916.276	740.288
236.957	25.343	915.785	738.258
237.972	25.411	915.039	737.872
238.986	25.432	914.719	737.633
240.001	25.423	914.297	737.191
241.015	25.637	913.567	737.417
242.030	25.726	913.303	737.502
243.045	25.785	912.588	737.103
244.059	25.989	912.089	737.468
245.074	25.831	910.908	735.803
246.088	25.601	909.890	733.977
247.103	25.885	909.717	734.931
248.117	26.306	910.306	737.058
249.132	26.618	909.664	737.742
250.147	26.701	909.037	737.509
251.161	26.787	908.435	737.305
252.176	26.759	907.862	736.660
253.190	26.728	907.620	736.271
254.205	26.948	907.141	736.713
255.220	26.822	906.492	735.608
256.234	26.781	905.551	734.613
257.249	26.537	904.931	733.056
258.263	26.684	904.221	733.013
259.278	26.838	903.234	732.770
260.293	26.859	903.042	732.632
261.307	26.769	902.390	731.678
262.322	26.553	901.429	729.961
263.336	25.909	899.427	725.685
264.351	24.748	897.997	719.796
265.366	24.921	897.304	719.873
266.380	26.089	897.781	724.886
267.395	26.351	898.143	726.166
268.409	26.331	897.047	725.137
269.424	26.464	896.762	725.378
270.439	26.384	896.250	724.578
271.453	26.662	895.303	724.861
272.468	26.735	895.051	724.885
273.482	26.605	894.833	724.123
274.497	26.477	893.370	722.364
275.512	26.007	892.603	719.806
276.526	26.428	892.857	721.625
277.541	26.655	892.116	721.866
278.555	26.492	891.304	720.499
279.570	26.342	890.112	718.874
280.585	26.397	889.933	718.886
281.599	26.334	889.303	718.061
282.614	25.765	888.148	714.806
283.628	25.814	887.490	714.410
284.643	26.153	887.379	715.600
285.657	25.855	885.903	713.167
286.672	25.445	885.416	711.091
287.687	25.966	885.432	713.102
288.701	26.142	885.004	713.391
289.716	25.628	884.225	710.670
290.730	25.732	883.132	710.137
291.745	25.383	882.317	708.042
292.760	25.915	881.865	709.712
293.774	26.766	882.462	713.481
294.789	27.040	882.590	714.603
295.803	27.119	881.494	713.962
296.818	27.251	880.864	713.904
297.833	26.612	879.807	710.481
298.847	26.553	879.011	709.542
299.862	26.852	878.929	710.584
300.876	27.056	878.960	711.348
301.891	27.114	877.948	710.693
302.906	26.518	877.166	707.666
303.920	26.803	876.741	708.375
304.935	27.015	876.862	709.239
305.949	26.907	876.267	708.273
306.964	26.637	875.182	706.279
307.979	26.888	874.363	706.533
308.993	27.234	874.372	707.825
310.008	27.238	873.717	707.250
311.022	26.884	873.112	705.321
312.037	26.627	872.554	703.809
313.052	26.475	871.179	702.048
314.066	25.618	869.695	697.468
315.081	25.327	869.332	695.987
316.095	26.157	869.636	699.387
317.110	26.826	869.147	701.519
318.125	25.809	867.647	696.316
319.139	24.911	866.128	691.569
320.154	24.772	865.665	690.604
321.168	25.728	866.081	694.565
322.183	26.323	866.543	697.170
323.197	26.718	865.588	697.859
324.212	26.698	865.719	697.829
325.227	26.922	864.984	698.034
326.241	26.806	864.069	696.788
327.256	26.670	863.654	695.870
328.270	26.516	862.644	694.405
329.285	26.289	862.373	693.254
330.300	26.064	861.353	691.509
331.314	26.336	861.181	692.351
332.329	26.699	861.310	693.786
333.343	26.824	860.967	693.927
334.358	26.971	860.121	693.746
335.373	27.046	859.809	693.717
336.387	27.236	860.125	694.637
337.402	27.283	860.170	694.792
338.416	27.190	859.445	693.789
339.431	27.457	858.976	694.366
340.446	27.648	858.922	694.990
341.460	27.436	858.338	693.651
342.475	27.253	857.503	692.218
343.489	27.416	857.092	692.445
344.504	27.531	857.278	692.968
345.519	27.845	856.422	693.411
346.533	27.787	856.078	692.851
347.548	27.729	856.002	692.505
348.562	27.723	855.229	691.798
349.577	27.534	854.705	690.596
350.592	27.615	854.026	690.294
351.606	27.677	853.079	689.700
352.621	27.552	852.058	688.343
353.635	27.480	851.187	687.305
354.650	26.824	850.151	683.936
355.665	25.896	848.251	678.851
356.679	26.153	848.367	679.855
357.694	26.742	848.059	681.764
358.708	26.784	847.173	681.148
359.723	27.026	847.057	681.904
360.738	27.457	846.594	683.088
361.752	27.486	845.996	682.654
362.767	27.892	845.605	683.799
363.781	27.940	845.754	684.039
364.796	28.220	845.321	684.675
365.810	28.104	845.088	683.989
366.825	27.995	844.778	683.273
367.840	27.882	843.534	681.784
368.854	27.450	842.812	679.529
369.869	27.303	842.354	678.552
370.883	27.461	841.784	678.620
371.898	27.302	841.642	677.853
372.913	27.382	841.212	677.744
373.927	27.458	841.110	677.887
374.942	27.730	840.481	678.332
375.956	27.793	839.890	678.027
376.971	27.927	839.410	678.078
377.986	28.059	839.384	678.486
379.000	28.050	838.456	677.642
380.015	27.904	837.731	676.455
381.029	28.002	837.163	676.300
382.044	28.110	836.676	676.248
383.059	28.227	836.077	676.136
384.073	28.042	835.942	675.282
385.088	28.072	835.473	674.956
386.102	27.800	834.585	673.175
387.117	27.786	833.495	672.185
388.132	27.517	832.463	670.302
389.146	26.869	831.723	667.266
390.161	27.299	831.873	668.909
391.175	27.781	831.695	670.476
392.190	27.427	830.760	668.364
393.205	26.138	828.462	661.733
394.219	24.632	826.247	654.396
395.234	24.287	826.152	653.002
396.248	26.004	827.748	660.499
397.263	27.612	828.491	666.920
398.278	27.433	828.259	666.019
399.292	27.229	827.487	664.594
400.307	27.251	826.806	664.068
401.321	27.449	826.527	664.510
402.336	27.722	826.590	665.496
403.350	28.318	826.452	667.502
404.365	28.646	826.652	668.796
405.380	28.763	826.224	668.819
406.394	28.805	825.772	668.545
407.409	28.748	825.146	667.775
408.423	28.506	825.073	666.775
409.438	28.845	824.340	667.354
410.453	28.861	824.050	667.119
411.467	28.654	823.240	665.653
412.482	28.755	822.920	665.704
413.496	28.930	822.509	665.945
414.511	28.907	822.136	665.501
415.526	28.856	821.654	664.866
416.540	28.528	820.818	662.946
417.555	28.390	820.004	661.733
418.569	28.408	819.937	661.682
419.584	28.439	819.410	661.312
420.599	28.220	818.794	659.966
421.613	95.037	1265.071	1374.657
422.628	81.877	1330.116	1374.785
