DTS Sentinel unit serial number:	SN413079Multiplexer serial number:	ORYXHardware model number:	OX4-SRSoftware version number:	ORYX F/W v4.00 Oryx Data Collector v3.7.2.0data status	okinstallation	princeton_trtdifferential loss correction	single-endedforward channel	channel 1reverse channel	N/Adate	2019/09/15time	16:22:35forward acquisition time	60.00reverse acquisition time	0.00gamma	496.2192k internal	0.2292k external	0.2292temperature offset calibration	0.9934default loss term (dB/km)	0.3790temperature slope calibration	1.0000multiplexer offset coefficient	1.0000multiplexer slope coefficient	1.0000fibre end	0.00T internal ref (°C)	43.69T ext. ref 1 (°C)	5.52T ext. ref 2 (°C)	40.06length (m)	temperature (°C)	Stokes	anti-Stokes-747.200	-84.178	0.257	0.083
-746.185	-74.925	-0.318	0.117
-745.171	455.886	-0.104	0.237
-744.156	800.000	0.083	0.268
-743.142	436.088	0.076	0.169
-742.127	300.903	-0.095	0.179
-741.112	-200.000	-0.001	-0.199
-740.098	779.763	-0.045	0.126
-739.083	800.000	0.075	0.243
-738.069	-23.788	-0.437	-0.268
-737.054	-20.391	0.048	-0.030
-736.039	-46.394	-0.263	0.132
-735.025	78.832	0.206	0.226
-734.010	590.648	0.019	-0.048
-732.996	122.446	-0.081	-0.103
-731.981	559.610	0.081	0.201
-730.966	247.843	-0.129	-0.224
-729.952	-126.306	-0.301	0.046
-728.937	-200.000	0.006	0.080
-727.923	145.460	0.172	0.235
-726.908	107.605	-0.290	0.353
-725.894	-104.251	0.382	0.091
-724.879	-51.960	0.230	0.110
-723.864	281.156	0.136	-0.248
-722.850	-73.598	-0.182	0.068
-721.835	187.859	-0.019	0.029
-720.821	598.623	-0.026	0.065
-719.806	-155.537	0.038	-0.003
-718.791	-53.088	0.333	0.157
-717.777	202.592	-0.024	0.037
-716.762	-200.000	-0.083	-0.437
-715.748	83.136	-0.200	-0.223
-714.733	-79.151	0.201	0.070
-713.718	69.735	0.086	-0.091
-712.704	10.090	0.195	0.152
-711.689	-130.526	-0.417	-0.058
-710.675	-187.527	0.186	0.003
-709.660	-200.000	0.002	-0.241
-708.645	-124.097	-0.442	-0.071
-707.631	-113.719	0.268	-0.053
-706.616	5.158	0.202	-0.152
-705.602	-20.584	0.109	0.069
-704.587	-106.851	-0.194	-0.044
-703.572	-200.000	-0.035	-0.356
-702.558	333.217	-0.089	0.177
-701.543	-92.986	-0.399	0.114
-700.529	-8.998	-0.315	0.216
-699.514	115.917	0.117	0.147
-698.499	-200.000	-0.022	0.538
-697.485	107.819	-0.237	0.288
-696.470	-200.000	-0.008	-0.075
-695.456	-95.634	0.095	0.026
-694.441	-100.255	0.282	-0.072
-693.426	-200.000	-0.036	0.217
-692.412	116.901	-0.087	0.110
-691.397	-200.000	-0.063	0.368
-690.383	800.000	0.058	-0.176
-689.368	-200.000	0.067	-0.384
-688.354	-58.083	-0.149	0.066
-687.339	-45.097	-0.057	-0.029
-686.324	-19.211	-0.241	-0.153
-685.310	191.916	-0.136	-0.210
-684.295	-125.176	0.211	0.033
-683.281	-200.000	0.033	-0.196
-682.266	241.786	0.142	-0.243
-681.251	215.083	-0.016	0.025
-680.237	-132.244	0.210	-0.028
-679.222	-2.399	-0.102	-0.073
-678.208	563.619	0.164	0.405
-677.193	-200.000	0.015	-0.117
-676.178	-200.000	-0.033	0.154
-675.164	800.000	-0.061	-0.244
-674.149	210.725	0.109	0.174
-673.135	-103.759	-0.207	-0.050
-672.120	-145.174	0.212	-0.020
-671.105	281.368	0.008	-0.014
-670.091	148.849	-0.119	0.164
-669.076	800.000	0.151	0.442
-668.062	800.000	0.055	-0.169
-667.047	800.000	0.034	-0.106
-666.032	-45.167	-0.297	-0.151
-665.018	-1.019	0.313	-0.226
-664.003	800.000	-0.067	0.209
-662.989	-77.140	-0.272	0.097
-661.974	210.761	-0.102	-0.164
-660.959	322.574	0.005	0.010
-659.945	-200.000	-0.061	-0.462
-658.930	248.139	0.145	-0.250
-657.916	-200.000	0.053	0.249
-656.901	-200.000	-0.003	0.112
-655.886	800.000	-0.051	0.200
-654.872	140.313	-0.128	0.172
-653.857	-200.000	0.018	-0.154
-652.843	-200.000	-0.058	0.300
-651.828	333.976	-0.089	-0.176
-650.814	42.577	0.206	0.191
-649.799	-15.740	-0.214	-0.139
-648.784	-200.000	-0.001	0.092
-647.770	-61.563	-0.252	-0.108
-646.755	-200.000	-0.079	-0.405
-645.741	82.324	0.194	-0.214
-644.726	90.031	0.140	-0.159
-643.711	-200.000	0.007	-0.447
-642.697	-53.852	0.148	0.069
-641.682	31.912	0.239	0.210
-640.668	318.985	0.094	0.181
-639.653	-200.000	0.006	0.052
-638.638	619.169	-0.084	-0.216
-637.624	-106.476	-0.169	-0.038
-636.609	-95.515	0.231	-0.063
-635.595	73.830	-0.250	0.268
-634.580	129.794	-0.131	0.171
-633.565	-64.264	-0.055	-0.023
-632.551	60.277	0.205	-0.206
-631.536	-134.399	0.242	0.030
-630.522	57.265	0.052	-0.052
-629.507	226.247	-0.048	0.080
-628.492	-74.867	-0.146	0.053
-627.478	-7.150	-0.209	0.144
-626.463	-200.000	0.108	0.617
-625.449	-200.000	0.059	-0.284
-624.434	165.639	-0.138	0.199
-623.419	-99.954	-0.236	-0.060
-622.405	-200.000	-0.000	-0.113
-621.390	39.094	-0.177	-0.161
-620.376	40.965	-0.081	-0.075
-619.361	-20.707	-0.194	-0.121
-618.346	11.533	-0.179	-0.140
-617.332	-129.845	-0.140	-0.020
-616.317	585.463	0.023	0.058
-615.303	175.077	-0.262	0.387
-614.288	-88.328	0.202	0.061
-613.273	337.733	0.044	0.087
-612.259	-38.818	0.283	0.152
-611.244	61.332	0.244	-0.247
-610.230	-45.173	-0.374	-0.189
-609.215	800.000	-0.052	0.204
-608.201	4.797	-0.126	0.094
-607.186	32.198	-0.140	-0.123
-606.171	-14.144	0.167	0.110
-605.157	41.715	-0.135	-0.124
-604.142	-120.266	0.053	0.009
-603.128	-134.536	0.088	0.011
-602.113	-174.945	-0.068	0.002
-601.098	140.455	-0.087	-0.117
-600.084	22.944	-0.065	-0.055
-599.069	-1.896	0.304	-0.217
-598.055	-136.024	-0.205	-0.024
-597.040	-87.859	0.262	0.080
-596.025	-119.729	-0.089	-0.016
-595.011	-90.342	-0.400	0.118
-593.996	-100.824	-0.205	0.051
-592.982	-36.745	0.390	0.213
-591.967	800.000	-0.115	0.402
-590.952	800.000	-0.040	0.149
-589.938	-34.681	0.329	-0.183
-588.923	-161.814	0.198	0.010
-587.909	-54.043	-0.222	-0.103
-586.894	-121.888	0.098	0.016
-585.879	-135.402	0.437	-0.053
-584.865	800.000	0.014	0.041
-583.850	-200.000	-0.005	0.060
-582.836	800.000	-0.039	-0.165
-581.821	-84.567	0.334	-0.107
-580.806	-199.528	-0.085	0.000
-579.792	690.434	-0.067	0.179
-578.777	-200.000	0.003	-0.120
-577.763	135.992	0.034	-0.045
-576.748	574.824	-0.154	0.382
-575.733	164.994	-0.009	-0.013
-574.719	52.763	-0.234	-0.228
-573.704	800.000	0.076	0.278
-572.690	70.124	0.062	-0.065
-571.675	-75.832	-0.131	-0.047
-570.661	87.672	-0.121	0.136
-569.646	-30.336	0.194	0.112
-568.631	47.716	-0.065	0.062
-567.617	800.000	-0.045	0.145
-566.602	135.103	-0.098	0.129
-565.588	800.000	0.023	0.090
-564.573	250.160	0.032	-0.055
-563.558	43.244	-0.136	-0.126
-562.544	-200.000	0.208	-0.001
-561.529	-148.864	-0.042	-0.003
-560.515	67.947	0.202	0.210
-559.500	415.426	-0.093	0.202
-558.485	-70.768	-0.147	0.056
-557.471	23.258	0.162	0.136
-556.456	-199.927	-0.321	-0.002
-555.442	800.000	-0.154	0.452
-554.427	18.884	0.198	-0.161
-553.412	339.893	0.204	-0.404
-552.398	-130.216	0.079	0.011
-551.383	5.553	-0.205	0.154
-550.369	800.000	-0.041	-0.182
-549.354	202.873	-0.028	-0.044
-548.339	-200.000	0.003	-0.019
-547.325	14.743	0.132	0.105
-546.310	-100.656	0.088	-0.022
-545.296	-200.000	0.065	-0.392
-544.281	-200.000	0.023	0.126
-543.266	-200.000	-0.006	0.288
-542.252	186.355	-0.104	0.158
-541.237	222.811	-0.026	0.042
-540.223	24.580	0.061	0.051
-539.208	-65.204	0.287	-0.117
-538.193	48.322	-0.091	0.086
-537.179	-102.238	0.385	0.094
-536.164	-185.752	-0.225	0.003
-535.150	800.000	0.047	-0.205
-534.135	150.840	0.174	-0.241
-533.121	-57.090	-0.203	-0.091
-532.106	-200.000	0.001	-0.037
-531.091	-200.000	0.006	0.029
-530.077	-115.363	0.377	-0.072
-529.062	-105.960	0.083	-0.019
-528.048	-55.234	-0.172	-0.078
-527.033	433.252	0.025	-0.055
-526.018	184.041	0.070	0.106
-525.004	265.503	0.068	-0.121
-523.989	50.029	0.075	0.072
-522.975	800.000	-0.080	0.324
-521.960	196.634	0.189	-0.291
-520.945	27.032	-0.252	-0.215
-519.931	-82.473	0.106	-0.035
-518.916	39.441	-0.155	-0.140
-517.902	109.894	-0.106	0.129
-516.887	325.230	-0.056	0.109
-515.872	-200.000	-0.026	-0.189
-514.858	122.483	-0.106	-0.134
-513.843	72.896	-0.016	0.017
-512.829	-95.464	-0.159	0.043
-511.814	-82.569	-0.149	-0.049
-510.799	-81.624	-0.176	-0.059
-509.785	-95.182	-0.137	0.038
-508.770	81.960	-0.102	0.113
-507.756	17.322	-0.235	0.190
-506.741	382.481	0.152	0.316
-505.726	-22.187	0.038	-0.024
-504.712	54.688	0.154	0.150
-503.697	800.000	0.049	0.190
-502.683	-200.000	0.031	-0.197
-501.668	473.337	-0.037	0.086
-500.653	-133.259	0.114	-0.015
-499.639	95.290	-0.032	-0.037
-498.624	106.037	-0.117	0.141
-497.610	26.448	-0.148	0.126
-496.595	-200.000	0.022	0.101
-495.581	-200.000	-0.003	-0.073
-494.566	10.374	0.150	0.116
-493.551	179.269	-0.094	-0.139
-492.537	-1.879	-0.131	0.093
-491.522	-51.085	0.319	-0.152
-490.508	122.186	0.115	0.146
-489.493	-200.000	-0.058	-0.300
-488.478	-200.000	-0.040	-0.201
-487.464	326.008	0.132	-0.256
-486.449	-200.000	-0.002	0.190
-485.435	800.000	-0.063	0.178
-484.420	-129.067	0.252	0.036
-483.405	-200.000	-0.019	-0.124
-482.391	81.816	0.175	0.192
-481.376	-200.000	-0.018	0.255
-480.362	800.000	0.133	-0.573
-479.347	-200.000	0.054	-0.262
-478.332	-97.750	0.205	0.054
-477.318	-130.239	-0.170	-0.023
-476.303	-200.000	-0.009	0.182
-475.289	-200.000	0.006	-0.040
-474.274	-69.575	0.282	-0.109
-473.259	-113.630	-0.282	0.056
-472.245	7.852	0.181	-0.137
-471.230	-165.796	-0.296	0.013
-470.216	120.584	-0.180	0.226
-469.201	-65.064	0.114	0.047
-468.186	-104.830	0.160	-0.037
-467.172	-29.822	0.114	-0.066
-466.157	-200.000	0.019	-0.300
-465.143	800.000	-0.011	-0.039
-464.128	97.671	0.273	0.318
-463.113	-128.827	-0.017	0.002
-462.099	79.264	-0.087	0.095
-461.084	-38.840	0.238	-0.127
-460.070	-37.301	-0.080	-0.043
-459.055	-56.006	-0.357	-0.161
-458.040	-185.107	0.235	-0.004
-457.026	18.305	0.075	-0.060
-456.011	-200.000	0.008	0.269
-454.997	735.116	-0.127	-0.345
-453.982	800.000	-0.048	-0.143
-452.968	260.956	-0.237	0.415
-451.953	-52.514	0.163	-0.076
-450.938	37.736	0.121	-0.108
-449.924	800.000	0.025	0.073
-448.909	-200.000	-0.124	0.567
-447.895	-108.437	0.161	0.035
-446.880	-124.682	0.389	-0.061
-445.865	185.665	-0.078	-0.117
-444.851	-16.144	-0.056	-0.036
-443.836	-200.000	0.057	0.305
-442.822	110.304	0.062	-0.075
-441.807	-61.958	-0.297	0.126
-440.792	150.485	-0.191	0.262
-439.778	-83.450	-0.032	-0.010
-438.763	800.000	-0.140	-0.408
-437.749	134.313	-0.066	0.087
-436.734	-96.726	0.240	0.064
-435.719	43.836	0.032	0.030
-434.705	-200.000	0.056	-0.442
-433.690	-54.942	-0.222	0.101
-432.676	211.597	-0.188	-0.298
-431.661	800.000	-0.042	-0.122
-430.646	800.000	-0.037	-0.104
-429.632	-200.000	-0.033	0.274
-428.617	-200.000	-0.023	0.117
-427.603	171.666	-0.058	-0.084
-426.588	-200.000	-0.006	0.045
-425.573	800.000	-0.046	0.152
-424.559	241.708	-0.104	-0.175
-423.544	382.700	0.206	-0.427
-422.530	-40.628	-0.140	-0.073
-421.515	-0.808	-0.251	0.180
-420.500	800.000	-0.007	0.022
-419.486	-200.000	-0.049	0.258
-418.471	28.616	-0.066	-0.057
-417.457	-200.000	-0.020	0.134
-416.442	-74.736	0.336	0.122
-415.428	178.013	0.122	-0.179
-414.413	-33.699	0.295	0.164
-413.398	-115.264	-0.265	-0.051
-412.384	-85.814	-0.278	-0.087
-411.369	150.922	-0.053	0.073
-410.355	800.000	-0.036	0.149
-409.340	800.000	-0.025	-0.080
-408.325	556.718	-0.107	-0.261
-407.311	454.598	0.131	-0.293
-406.296	7.070	0.124	-0.093
-405.282	-132.016	0.245	0.032
-404.267	143.614	0.113	0.152
-403.252	-200.000	-0.037	-0.371
-402.238	800.000	-0.082	-0.250
-401.223	57.490	0.077	0.076
-400.209	-200.000	0.028	0.160
-399.194	694.944	0.058	0.155
-398.179	68.803	0.218	0.226
-397.165	-42.866	-0.162	0.083
-396.150	-171.681	-0.102	-0.003
-395.136	-44.655	0.213	-0.107
-394.121	-59.686	-0.199	0.086
-393.106	-170.689	0.264	0.009
-392.092	167.900	0.160	-0.230
-391.077	-200.000	-0.033	-0.338
-390.063	272.697	-0.097	0.173
-389.048	430.735	0.102	0.222
-388.033	-200.000	-0.068	0.325
-387.019	800.000	-0.015	0.045
-386.004	-200.000	0.014	0.089
-384.990	253.819	-0.185	-0.319
-383.975	38.052	0.121	0.108
-382.960	-72.269	-0.050	-0.019
-381.946	-62.309	0.157	0.066
-380.931	8.622	0.080	0.061
-379.917	-38.756	0.405	0.215
-378.902	433.100	-0.113	0.247
-377.888	790.930	-0.034	0.095
-376.873	-200.000	0.054	0.278
-375.858	269.342	-0.073	-0.130
-374.844	672.780	0.014	-0.035
-373.829	-60.525	-0.101	-0.043
-372.815	145.286	-0.178	-0.240
-371.800	-74.839	0.250	-0.090
-370.785	31.420	-0.288	0.249
-369.771	265.343	0.106	0.186
-368.756	39.486	-0.032	0.029
-367.742	196.494	0.190	-0.292
-366.727	512.290	0.098	-0.230
-365.712	-27.862	-0.157	-0.092
-364.698	33.099	-0.297	0.260
-363.683	-108.226	0.317	0.069
-362.669	212.888	-0.192	-0.306
-361.654	134.052	0.110	-0.144
-360.639	192.227	0.064	0.098
-359.625	800.000	0.037	-0.140
-358.610	-86.135	0.062	-0.019
-357.596	355.978	-0.271	0.544
-356.581	-183.539	0.128	-0.002
-355.566	326.942	0.126	-0.244
-354.552	10.491	-0.357	0.274
-353.537	-63.735	0.317	-0.131
-352.523	-152.031	-0.273	0.020
-351.508	180.075	-0.166	0.246
-350.493	634.711	0.070	-0.179
-349.479	800.000	-0.091	-0.378
-348.464	-130.425	-0.070	-0.009
-347.450	800.000	0.021	0.087
-346.435	-200.000	0.062	0.539
-345.420	290.304	0.115	0.211
-344.406	60.419	0.054	-0.054
-343.391	-129.048	0.196	-0.028
-342.377	151.643	0.045	0.062
-341.362	-31.031	0.337	-0.192
-340.348	-200.000	-0.048	0.366
-339.333	-10.622	-0.067	0.045
-338.318	-182.077	0.227	0.004
-337.304	-200.000	-0.023	-0.229
-336.289	86.924	-0.184	-0.204
-335.275	469.137	-0.100	0.227
-334.260	-5.328	0.204	-0.141
-333.245	788.197	-0.103	-0.285
-332.231	-72.523	0.160	0.060
-331.216	525.271	0.098	0.233
-330.202	495.676	-0.051	0.118
-329.187	-67.157	0.249	0.099
-328.172	-32.907	0.180	-0.101
-327.158	-200.000	-0.037	0.280
-326.143	27.348	-0.025	0.021
-325.129	132.698	-0.069	-0.090
-324.114	-41.472	-0.078	-0.041
-323.099	-140.662	0.138	-0.014
-322.085	-200.000	0.005	0.120
-321.070	800.000	0.068	0.190
-320.056	-79.935	0.287	0.097
-319.041	-4.722	0.154	0.107
-318.026	313.025	0.163	-0.308
-317.012	9.990	0.185	0.142
-315.997	800.000	0.056	-0.180
-314.983	506.121	0.089	-0.207
-313.968	-109.274	0.256	-0.055
-312.953	-200.000	-0.017	-0.276
-311.939	-125.264	0.152	-0.023
-310.924	-200.000	0.027	-0.187
-309.910	137.253	0.037	0.048
-308.895	-102.089	-0.178	-0.043
-307.880	800.000	-0.046	-0.176
-306.866	-200.000	0.033	0.455
-305.851	-200.000	0.028	0.168
-304.837	-200.000	0.014	-0.090
-303.822	-30.091	-0.133	0.076
-302.807	144.754	-0.188	-0.253
-301.793	184.021	-0.117	0.175
-300.778	-162.339	0.154	-0.008
-299.764	-111.017	0.173	0.036
-298.749	-105.893	0.186	-0.042
-297.735	-200.000	-0.013	0.068
-296.720	-200.000	-0.305	-0.000
-295.705	-39.755	-0.228	-0.120
-294.691	-92.251	-0.151	0.043
-293.676	-127.725	-0.345	-0.050
-292.662	-134.507	-0.448	0.055
-291.647	90.929	0.055	0.062
-290.632	-65.295	-0.345	0.140
-289.618	34.237	0.236	-0.207
-288.603	-116.308	-0.224	0.042
-287.589	-200.000	-0.060	-0.285
-286.574	181.611	-0.127	-0.188
-285.559	800.000	-0.015	-0.044
-284.545	-5.056	-0.166	-0.115
-283.530	646.456	-0.092	0.237
-282.516	800.000	-0.048	-0.134
-281.501	746.456	-0.015	0.040
-280.486	151.167	0.245	0.336
-279.472	483.968	0.103	-0.236
-278.457	-42.134	0.210	-0.108
-277.443	-200.000	0.072	-0.379
-276.428	-94.996	-0.081	0.022
-275.413	618.357	0.041	-0.104
-274.399	-16.345	0.321	-0.205
-273.384	-133.476	0.266	0.034
-272.370	-200.000	0.004	-0.386
-271.355	89.112	0.189	-0.211
-270.340	-200.000	-0.049	0.258
-269.326	-28.703	0.130	0.075
-268.311	-172.484	0.350	0.011
-267.297	92.791	0.197	-0.223
-266.282	155.032	-0.104	-0.144
-265.267	0.218	-0.308	-0.221
-264.253	-200.000	-0.095	0.530
-263.238	-65.865	0.233	0.094
-262.224	-200.000	-0.020	0.207
-261.209	-18.921	-0.295	-0.184
-260.195	-149.343	-0.253	0.020
-259.180	586.790	-0.033	-0.082
-258.165	-4.804	0.092	-0.064
-257.151	-123.982	-0.474	-0.075
-256.136	-106.881	0.188	-0.042
-255.122	-42.686	-0.157	0.080
-254.107	-14.515	-0.045	0.029
-253.092	6.940	0.112	-0.084
-252.078	-64.647	-0.100	0.041
-251.063	790.988	-0.080	0.221
-250.049	-53.308	-0.214	0.098
-249.034	82.728	-0.141	0.153
-248.019	-103.567	0.431	-0.102
-247.005	-133.378	-0.371	0.047
-245.990	800.000	-0.019	-0.073
-244.976	331.248	-0.100	-0.194
-243.961	-200.000	-0.034	0.414
-242.946	-200.000	0.003	0.018
-241.932	-105.795	0.346	-0.079
-240.917	-76.714	-0.125	0.044
-239.903	322.988	0.018	0.035
-238.888	660.954	0.054	-0.138
-237.873	800.000	-0.088	0.279
-236.859	-110.697	-0.250	-0.052
-235.844	219.726	-0.195	0.314
-234.830	56.509	0.128	0.125
-233.815	24.191	0.173	-0.143
-232.800	-73.977	-0.343	0.125
-231.786	-102.582	-0.162	0.039
-230.771	-115.611	0.150	-0.028
-229.757	350.783	-0.047	-0.094
-228.742	-96.109	0.203	-0.054
-227.727	-90.093	0.201	0.059
-226.713	-85.313	0.227	0.071
-225.698	800.000	-0.079	-0.324
-224.684	-200.000	0.077	-0.400
-223.669	-154.546	0.204	-0.014
-222.655	-67.411	-0.058	-0.023
-221.640	149.838	0.136	0.184
-220.625	-122.726	0.306	-0.050
-219.611	-78.341	0.184	0.063
-218.596	-28.641	-0.116	0.067
-217.582	800.000	-0.053	-0.186
-216.567	-30.654	0.049	0.028
-215.552	542.804	0.034	0.082
-214.538	800.000	0.075	-0.297
-213.523	243.399	-0.122	0.205
-212.509	-200.000	0.023	-0.145
-211.494	800.000	-0.027	-0.095
-210.479	236.367	0.094	-0.156
-209.465	-135.783	0.238	0.028
-208.450	-39.479	0.124	-0.065
-207.436	-47.078	-0.253	-0.124
-206.421	800.000	0.076	-0.270
-205.406	59.947	0.182	-0.180
-204.392	-200.000	0.004	-0.043
-203.377	-104.170	-0.122	0.029
-202.363	-107.894	0.357	-0.078
-201.348	-200.000	-0.064	0.431
-200.333	39.757	0.176	-0.158
-199.319	721.554	0.064	0.169
-198.304	-88.229	-0.415	0.124
-197.290	-93.908	-0.276	-0.076
-196.275	187.153	-0.125	0.186
-195.260	-94.621	-0.173	-0.047
-194.246	-75.207	-0.403	-0.144
-193.231	2.258	0.264	0.191
-192.217	-166.083	0.164	0.007
-191.202	33.027	-0.039	-0.034
-190.187	100.258	0.316	0.367
-189.173	397.968	0.097	0.204
-188.158	-200.000	0.003	0.053
-187.144	-200.000	0.017	-0.172
-186.129	121.148	0.111	-0.139
-185.114	-122.958	0.191	0.031
-184.100	-78.483	-0.068	-0.023
-183.085	-24.764	0.182	-0.108
-182.071	85.942	-0.167	-0.184
-181.056	233.681	0.190	-0.313
-180.042	-200.000	-0.022	0.125
-179.027	-200.000	-0.010	-0.083
-178.012	51.129	-0.353	-0.335
-176.998	-31.796	0.158	-0.089
-175.983	81.114	0.136	0.147
-174.969	-154.331	-0.366	0.025
-173.954	-68.127	-0.353	0.138
-172.939	-24.080	0.140	0.084
-171.925	-200.000	-0.007	-0.033
-170.910	115.117	-0.028	-0.035
-169.896	-27.005	-0.267	-0.156
-168.881	220.632	0.128	0.206
-167.866	220.884	-0.166	-0.266
-166.852	-200.000	0.012	-0.117
-165.837	800.000	-0.075	-0.293
-164.823	70.652	0.184	0.190
-163.808	212.040	0.156	0.245
-162.793	-113.920	-0.343	0.067
-161.779	25.980	-0.244	0.203
-160.764	22.044	-0.346	0.282
-159.750	-200.000	-0.014	0.166
-158.735	-41.774	-0.210	0.108
-157.720	-127.428	0.064	0.009
-156.706	800.000	0.051	-0.164
-155.691	-159.003	-0.597	-0.034
-154.677	-200.000	-0.011	-0.318
-153.662	-157.690	0.102	0.006
-152.647	105.844	0.103	0.121
-151.633	800.000	0.050	0.185
-150.618	-132.818	-0.058	-0.007
-149.604	-200.000	-0.010	0.186
-148.589	-148.795	0.037	-0.003
-147.574	-200.000	0.014	-0.174
-146.560	-118.472	0.323	0.057
-145.545	134.276	-0.094	-0.122
-144.531	123.061	-0.178	-0.222
-143.516	-139.981	-0.103	0.011
-142.502	-78.393	0.409	-0.140
-141.487	95.073	0.125	0.142
-140.472	-138.058	-0.270	0.030
-139.458	-55.112	0.330	-0.148
-138.443	175.456	0.238	0.345
-137.429	522.299	0.145	0.341
-136.414	427.054	0.036	-0.078
-135.399	147.605	-0.091	0.123
-134.385	49.767	0.103	-0.097
-133.370	444.844	0.101	0.222
-132.356	-74.730	0.315	0.113
-131.341	-200.000	0.079	-0.350
-130.326	800.000	-0.015	-0.058
-129.312	-5.303	-0.122	-0.084
-128.297	113.963	0.364	-0.443
-127.283	-35.337	0.220	-0.119
-126.268	52.135	0.190	0.181
-125.253	-200.000	0.027	0.190
-124.239	-121.907	-0.282	0.046
-123.224	-143.252	0.107	0.010
-122.210	-200.000	-0.004	0.076
-121.195	-200.000	0.004	0.043
-120.180	-200.000	-0.004	0.257
-119.166	-200.000	0.006	0.068
-118.151	-200.000	-0.034	-0.236
-117.137	465.927	-0.079	-0.176
-116.122	173.081	0.135	0.195
-115.107	-35.310	-0.267	0.145
-114.093	-200.000	-0.031	-0.151
-113.078	-46.819	0.083	0.041
-112.064	-200.000	0.045	0.376
-111.049	800.000	0.004	-0.011
-110.034	11.365	-0.060	0.046
-109.020	-57.976	0.175	-0.076
-108.005	-66.362	0.301	-0.119
-106.991	-200.000	0.082	0.368
-105.976	257.515	0.263	0.452
-104.962	203.507	0.084	0.130
-103.947	-200.000	-0.004	-0.239
-102.932	85.513	0.056	-0.061
-101.918	-200.000	0.001	-0.058
-100.903	800.000	0.046	0.187
-99.889	-200.000	0.016	-0.081
-98.874	-38.441	-0.109	0.058
-97.859	-200.000	-0.003	0.133
-96.845	-200.000	-0.003	-0.175
-95.830	-7.161	0.151	-0.102
-94.816	207.565	0.101	0.158
-93.801	289.885	0.305	0.552
-92.786	-200.000	-0.011	0.154
-91.772	5.646	-0.174	-0.128
-90.757	-69.666	0.117	-0.045
-89.743	485.304	0.079	-0.179
-88.728	171.875	-0.181	-0.259
-87.713	-29.993	-0.148	0.084
-86.699	-11.899	0.035	-0.023
-85.684	144.488	-0.079	-0.106
-84.670	30.143	0.175	-0.149
-83.655	133.450	0.120	-0.154
-82.640	82.607	0.102	-0.110
-81.626	216.508	-0.048	-0.076
-80.611	564.678	0.056	0.135
-79.597	67.737	0.059	0.060
-78.582	-66.492	0.100	-0.040
-77.567	281.856	-0.105	-0.188
-76.553	-122.482	0.253	-0.041
-75.538	100.539	0.104	-0.120
-74.524	-125.730	0.162	0.024
-73.509	142.554	-0.143	0.189
-72.494	-94.122	-0.053	0.014
-71.480	-35.657	0.040	0.021
-70.465	68.359	0.125	-0.128
-69.451	-200.000	0.007	0.362
-68.436	800.000	0.069	-0.242
-67.422	152.854	-0.041	0.056
-66.407	-106.409	-0.071	-0.016
-65.392	19.705	-0.091	-0.073
-64.378	800.000	-0.118	-0.377
-63.363	251.985	-0.121	0.205
-62.349	257.284	0.098	0.168
-61.334	74.748	-0.944	-0.990
-60.319	-192.613	0.177	-0.002
-59.305	800.000	0.138	-0.414
-58.290	44.815	0.497	0.456
-57.276	634.898	0.678	1.715
-56.261	-200.000	70.493	533.162
-55.246	585.331	1280.505	3135.614
-54.232	141.009	2535.397	3339.313
-53.217	122.386	2248.354	2798.715
-52.203	57.049	1686.895	1638.160
-51.188	48.140	1400.977	1304.921
-50.173	44.014	1352.401	1234.570
-49.159	61.889	1383.708	1373.060
-48.144	70.874	1402.341	1446.375
-47.130	48.285	1366.560	1273.550
-46.115	43.924	1350.085	1231.715
-45.100	43.603	1345.610	1225.639
-44.086	43.659	1342.867	1223.426
-43.071	43.540	1340.478	1220.487
-42.057	43.441	1338.533	1218.068
-41.042	43.511	1336.435	1216.534
-40.027	43.597	1335.166	1215.847
-39.013	43.551	1333.546	1214.046
-37.998	43.650	1330.784	1212.077
-36.984	43.551	1329.396	1210.173
-35.969	43.618	1327.877	1209.143
-34.954	43.871	1326.098	1208.982
-33.940	43.674	1324.809	1206.588
-32.925	43.711	1323.111	1205.212
-31.911	43.852	1321.634	1204.657
-30.896	43.767	1320.005	1202.621
-29.881	43.726	1318.492	1200.951
-28.867	43.722	1317.952	1200.386
-27.852	43.851	1315.669	1199.025
-26.838	43.961	1313.721	1197.850
-25.823	43.859	1312.534	1196.119
-24.809	43.747	1311.555	1194.516
-23.794	43.850	1309.951	1193.615
-22.779	43.807	1308.295	1191.811
-21.765	43.833	1307.207	1190.924
-20.750	43.718	1306.367	1189.437
-19.736	43.812	1303.913	1187.705
-18.721	43.646	1303.449	1186.262
-17.706	43.600	1302.682	1185.248
-16.692	43.642	1300.971	1183.885
-15.677	43.660	1299.905	1182.974
-14.663	43.665	1298.796	1181.951
-13.648	43.608	1297.689	1180.565
-12.633	43.614	1296.991	1179.913
-11.619	43.554	1296.017	1178.631
-10.604	43.603	1295.569	1178.464
-9.590	43.525	1294.164	1176.682
-8.575	43.507	1293.000	1175.474
-7.560	43.605	1292.099	1175.179
-6.546	43.615	1291.017	1174.204
-5.531	43.642	1289.871	1173.275
-4.517	43.608	1289.309	1172.517
-3.502	43.577	1288.600	1171.648
-2.487	43.712	1287.154	1171.069
-1.473	43.740	1283.966	1168.286
-0.458	43.061	1269.145	1150.878
0.556	37.098	1248.375	1107.382
1.571	32.243	1249.463	1080.430
2.586	30.213	1262.827	1080.077
3.600	28.307	1252.016	1059.721
4.615	21.953	1177.183	961.601
5.629	11.387	1095.840	840.895
6.644	5.946	1070.789	794.136
7.659	5.551	1067.606	789.712
8.673	5.394	1066.293	787.882
9.688	5.191	1065.042	785.862
10.702	5.723	1064.521	788.084
11.717	11.638	1073.127	824.294
12.731	19.230	1083.071	870.361
13.746	19.818	1082.620	872.887
14.761	17.505	1079.347	858.522
15.775	16.309	1076.737	850.351
16.790	15.268	1074.348	843.157
17.804	14.608	1072.462	838.286
18.819	14.087	1071.688	834.990
19.834	13.906	1070.392	833.001
20.848	13.514	1069.430	830.211
21.863	13.288	1068.951	828.635
22.877	13.280	1067.858	827.676
23.892	13.140	1067.531	826.645
24.907	13.139	1066.585	825.834
25.921	13.208	1065.459	825.238
26.936	13.305	1064.079	824.579
27.950	13.280	1063.137	823.652
28.965	13.301	1061.600	822.492
29.980	13.399	1060.111	821.753
30.994	13.544	1058.281	820.978
32.009	13.483	1057.698	820.153
33.023	13.490	1055.867	818.696
34.038	13.420	1055.436	817.943
35.053	13.335	1054.439	816.678
36.067	13.334	1053.086	815.553
37.082	13.305	1052.659	815.005
38.096	13.485	1051.923	815.250
39.111	13.341	1051.482	814.127
40.126	13.291	1050.134	812.764
41.140	13.240	1048.714	811.347
42.155	13.191	1047.553	810.138
43.169	13.134	1046.342	808.848
44.184	13.033	1045.425	807.575
45.199	13.105	1044.113	806.841
46.213	13.214	1043.052	806.481
47.228	13.280	1042.314	806.159
48.242	13.269	1041.143	805.131
49.257	13.220	1040.325	804.189
50.271	13.464	1038.975	804.258
51.286	13.456	1038.486	803.769
52.301	13.270	1037.480	802.016
53.315	13.218	1036.860	801.216
54.330	13.238	1035.176	799.940
55.344	13.164	1034.467	798.963
56.359	13.254	1033.573	798.637
57.374	13.165	1032.498	797.308
58.388	13.177	1031.905	796.835
59.403	13.142	1031.036	795.925
60.417	13.090	1030.578	795.252
61.432	13.098	1029.464	794.361
62.447	13.076	1028.876	793.729
63.461	13.045	1028.027	792.854
64.476	12.959	1026.853	791.469
65.490	12.885	1026.514	790.780
66.505	13.103	1024.965	790.561
67.520	13.133	1024.492	790.270
68.534	13.067	1023.971	789.484
69.549	13.060	1023.385	788.928
70.563	13.078	1022.438	788.215
71.578	13.007	1021.442	787.040
72.593	13.000	1020.793	786.437
73.607	12.955	1020.228	785.718
74.622	12.952	1019.599	785.150
75.636	12.957	1018.596	784.330
76.651	13.104	1017.899	784.421
77.666	13.002	1017.725	783.736
78.680	12.901	1017.011	782.636
79.695	12.966	1016.050	782.134
80.709	13.143	1015.632	782.585
81.724	13.153	1014.870	781.972
82.739	13.185	1014.355	781.660
83.753	13.348	1013.296	781.547
84.768	13.386	1012.632	781.143
85.782	13.425	1011.807	780.621
86.797	13.329	1010.972	779.454
87.812	13.302	1010.012	778.521
88.826	13.381	1008.598	777.734
89.841	13.400	1007.895	777.208
90.855	13.445	1006.783	776.495
91.870	13.499	1006.067	776.130
92.884	13.279	1005.891	774.891
93.899	13.355	1004.609	774.192
94.914	13.544	1003.477	774.132
95.928	13.476	1002.714	773.158
96.943	13.527	1001.875	772.681
97.957	13.427	1000.960	771.443
98.972	13.427	1000.379	770.924
99.987	13.437	999.358	770.119
101.001	13.348	998.604	769.053
102.016	13.416	997.256	768.262
103.030	13.392	996.782	767.721
104.045	13.335	996.154	766.905
105.060	13.347	994.938	765.955
106.074	13.345	993.900	765.079
107.089	13.177	992.981	763.529
108.103	13.214	992.106	762.959
109.118	13.067	991.353	761.631
110.133	13.146	989.978	760.873
111.147	13.195	989.254	760.476
112.162	13.231	988.496	759.990
113.176	13.243	987.677	759.351
114.191	13.267	987.053	758.911
115.206	13.322	986.252	758.483
116.220	13.265	985.315	757.433
117.235	13.146	984.376	756.097
118.249	13.234	983.498	755.761
119.264	13.266	982.758	755.270
120.279	13.236	982.010	754.492
121.293	13.240	981.223	753.840
122.308	13.114	980.266	752.464
123.322	13.049	979.023	751.148
124.337	13.246	977.947	751.151
125.352	13.153	977.176	750.070
126.366	13.128	976.116	749.078
127.381	13.152	975.215	748.427
128.395	13.237	974.482	748.184
129.410	13.261	973.610	747.553
130.424	13.217	972.737	746.619
131.439	13.293	972.188	746.476
132.454	13.265	971.799	745.984
133.468	13.390	970.741	745.669
134.483	13.314	969.910	744.625
135.497	13.418	968.584	744.008
136.512	13.434	967.950	743.527
137.527	13.331	967.080	742.332
138.541	13.488	966.401	742.447
139.556	13.440	965.567	741.524
140.570	13.485	965.162	741.352
141.585	13.587	964.166	740.977
142.600	13.585	963.211	740.170
143.614	13.676	962.554	740.002
144.629	13.539	962.140	739.008
145.643	13.579	960.826	738.115
146.658	13.489	959.527	736.647
147.673	13.588	958.640	736.342
148.687	13.507	957.801	735.275
149.702	13.379	957.339	734.284
150.716	13.381	956.473	733.568
151.731	13.336	955.563	732.603
152.746	13.426	955.134	732.607
153.760	13.506	954.434	732.362
154.775	13.462	954.028	731.788
155.789	13.612	953.209	731.760
156.804	13.552	952.209	730.661
157.819	13.611	951.760	730.512
158.833	13.578	951.460	730.071
159.848	13.616	950.466	729.412
160.862	13.591	949.613	728.583
161.877	13.492	948.308	727.082
162.892	13.513	947.089	726.175
163.906	13.463	945.946	725.015
164.921	13.428	945.681	724.596
165.935	13.455	945.183	724.269
166.950	13.464	943.879	723.246
167.964	13.579	943.200	723.164
168.979	13.488	942.259	721.981
169.994	13.550	941.434	721.554
171.008	13.573	940.430	720.820
172.023	13.736	940.070	721.191
173.037	13.684	939.182	720.218
174.052	13.694	938.122	719.385
175.067	13.708	937.630	719.007
176.081	13.609	937.397	718.333
177.096	13.580	936.793	717.682
178.110	13.695	935.862	717.404
179.125	13.488	935.768	716.372
180.140	13.609	935.246	716.430
181.154	13.757	934.364	716.333
182.169	13.733	934.127	715.981
183.183	13.833	933.454	715.836
184.198	13.891	932.483	715.277
185.213	13.858	931.903	714.628
186.227	13.888	931.052	714.041
187.242	13.992	930.943	714.341
188.256	13.977	929.784	713.322
189.271	14.029	929.214	713.046
190.286	13.640	928.416	710.704
191.300	13.547	928.190	710.068
192.315	13.606	927.063	709.398
193.329	13.676	926.568	709.253
194.344	13.706	925.711	708.663
195.359	13.754	925.229	708.435
196.373	13.931	924.816	708.812
197.388	13.980	924.489	708.708
198.402	14.074	923.945	708.630
199.417	14.071	923.328	708.080
200.432	14.094	922.723	707.654
201.446	14.120	922.398	707.451
202.461	14.158	921.796	707.091
203.475	14.320	920.703	706.874
204.490	14.195	920.509	706.134
205.504	14.123	919.454	704.955
206.519	14.043	918.719	703.994
207.534	14.046	917.621	703.102
208.548	14.082	917.545	703.133
209.563	14.087	916.480	702.275
210.577	14.087	916.141	701.955
211.592	14.329	915.250	702.229
212.607	14.184	914.830	701.234
213.621	14.197	914.100	700.666
214.636	14.302	913.154	700.321
215.650	14.267	912.439	699.565
216.665	14.383	911.509	699.275
217.680	14.222	911.603	698.609
218.694	14.426	910.394	698.478
219.709	14.373	909.990	697.884
220.723	14.306	909.607	697.247
221.738	14.284	908.996	696.627
222.753	14.260	908.512	696.092
223.767	14.381	907.489	695.752
224.782	14.539	907.299	696.203
225.796	14.498	906.491	695.352
226.811	14.555	905.719	694.936
227.826	14.445	905.313	694.105
228.840	14.339	904.450	692.941
229.855	14.354	903.238	692.014
230.869	14.418	902.203	691.427
231.884	14.504	901.551	691.221
232.899	14.361	901.323	690.391
233.913	14.405	900.232	689.677
234.928	14.371	899.472	688.894
235.942	14.386	899.085	688.599
236.957	14.342	898.866	688.189
237.972	14.414	898.241	687.946
238.986	14.400	897.367	687.157
240.001	14.395	896.966	686.768
241.015	14.419	896.305	686.300
242.030	14.564	895.464	686.193
243.045	14.523	895.121	685.700
244.059	14.452	894.426	684.816
245.074	14.418	893.988	684.278
246.088	14.663	893.211	684.628
247.103	14.595	892.605	683.825
248.117	14.768	891.878	683.918
249.132	14.845	891.788	684.102
250.147	14.810	890.813	683.152
251.161	15.014	889.950	683.263
252.176	14.855	889.931	682.537
253.190	15.073	888.823	682.517
254.205	15.053	887.877	681.649
255.220	14.853	887.843	680.747
256.234	14.944	887.481	680.781
257.249	15.100	886.343	680.480
258.263	14.955	886.011	679.577
259.278	14.913	885.046	678.604
260.293	15.037	884.556	678.671
261.307	15.079	884.021	678.372
262.322	15.132	883.281	677.959
263.336	15.247	882.214	677.546
264.351	15.167	881.889	676.912
265.366	15.180	881.393	676.525
266.380	15.205	880.696	676.029
267.395	15.130	879.789	674.970
268.409	15.154	879.093	674.474
269.424	15.243	878.642	674.429
270.439	15.066	877.748	672.970
271.453	15.188	876.934	672.774
272.468	15.232	876.529	672.583
273.482	15.014	876.441	671.583
274.497	15.173	875.567	671.491
275.512	15.253	874.389	670.845
276.526	15.244	874.215	670.619
277.541	15.258	874.140	670.556
278.555	15.237	873.715	670.088
279.570	15.355	872.717	669.733
280.585	15.334	871.987	669.032
281.599	15.202	871.360	667.962
282.614	15.121	870.413	666.857
283.628	15.361	870.103	667.515
284.643	15.331	869.446	666.832
285.657	15.267	868.545	665.828
286.672	15.395	868.142	665.969
287.687	15.402	867.481	665.429
288.701	15.522	866.701	665.249
289.716	15.373	866.183	664.204
290.730	15.549	865.496	664.315
291.745	15.519	865.195	663.906
292.760	15.472	864.479	663.111
293.774	15.636	864.037	663.359
294.789	15.447	863.114	661.846
295.803	15.536	862.185	661.426
296.818	15.359	862.255	660.726
297.833	15.470	861.284	660.358
298.847	15.481	860.874	660.030
299.862	15.558	860.100	659.681
300.876	15.656	859.535	659.573
301.891	15.701	858.727	659.072
302.906	15.836	858.228	659.158
303.920	15.743	858.122	658.654
304.935	15.932	857.041	658.505
305.949	15.758	856.668	657.480
306.964	15.775	856.425	657.304
307.979	15.815	855.210	656.469
308.993	15.786	854.929	656.083
310.008	15.890	854.529	656.123
311.022	15.850	853.581	655.180
312.037	15.761	853.295	654.558
313.052	15.570	852.920	653.467
314.066	15.611	852.055	652.907
315.081	15.681	851.686	652.839
316.095	15.721	850.419	651.964
317.110	15.829	850.032	652.028
318.125	15.782	849.765	651.582
319.139	15.653	849.243	650.628
320.154	15.802	848.934	650.908
321.168	15.780	848.281	650.267
322.183	15.833	847.709	649.975
323.197	15.828	847.265	649.556
324.212	15.940	846.503	649.348
325.227	15.915	846.041	648.838
326.241	15.688	845.633	647.593
327.256	15.850	845.172	647.809
328.270	15.760	844.679	647.027
329.285	15.870	843.563	646.537
330.300	15.906	843.059	646.231
331.314	15.884	842.852	645.931
332.329	15.975	842.569	646.006
333.343	16.147	841.438	645.739
334.358	15.892	841.474	644.735
335.373	15.991	841.075	644.751
336.387	16.126	840.536	644.796
337.402	16.061	840.683	644.602
338.416	16.096	840.351	644.426
339.431	16.148	839.909	644.230
340.446	16.311	839.124	644.190
341.460	16.271	839.244	644.073
342.475	16.342	838.370	643.616
343.489	16.315	838.352	643.443
344.504	16.521	837.412	643.450
345.519	16.384	837.085	642.617
346.533	16.320	836.748	642.059
347.548	16.313	835.987	641.394
348.562	16.158	835.536	640.401
349.577	16.172	834.968	639.963
350.592	16.148	834.604	639.536
351.606	16.254	833.458	639.004
352.621	16.297	832.563	638.424
353.635	16.279	832.191	638.014
354.650	16.353	831.785	637.925
355.665	16.324	831.147	637.271
356.679	16.386	830.294	636.791
357.694	16.418	829.726	636.423
358.708	16.415	829.400	636.102
359.723	16.536	828.896	636.115
360.738	16.503	828.088	635.315
361.752	16.413	827.728	634.644
362.767	16.614	827.002	634.786
363.781	16.511	826.558	634.003
364.796	16.634	825.721	633.767
365.810	16.675	825.464	633.665
366.825	16.830	825.215	633.998
367.840	16.641	825.126	633.168
368.854	16.743	824.878	633.304
369.869	16.690	823.942	632.329
370.883	16.707	823.106	631.694
371.898	16.773	822.973	631.783
372.913	16.828	822.645	631.680
373.927	16.734	822.157	630.902
374.942	16.748	821.794	630.620
375.956	16.882	821.300	630.683
376.971	16.882	820.533	630.038
377.986	16.958	820.727	630.414
379.000	17.015	820.021	630.026
380.015	17.058	819.392	629.648
381.029	17.032	818.490	628.802
382.044	16.979	818.301	628.406
383.059	17.044	817.703	628.130
384.073	16.979	817.318	627.539
385.088	16.887	816.584	626.580
386.102	16.841	815.914	625.842
387.117	16.865	815.671	625.686
388.132	16.937	815.133	625.482
389.146	17.101	813.886	625.075
390.161	16.936	814.058	624.544
391.175	17.101	813.583	624.731
392.190	17.003	812.933	623.817
393.205	16.878	812.393	622.890
394.219	16.936	812.317	622.988
395.234	17.072	811.547	622.842
396.248	16.941	811.104	621.967
397.263	16.826	810.975	621.390
398.278	16.795	810.866	621.137
399.292	16.852	810.303	620.862
400.307	17.014	809.305	620.634
401.321	17.001	809.015	620.308
402.336	16.917	808.664	619.680
403.350	17.164	807.995	620.013
404.365	17.185	807.631	619.755
405.380	17.031	807.247	618.843
406.394	17.333	806.527	619.338
407.409	17.237	806.687	619.054
408.423	17.503	805.758	619.255
409.438	17.398	805.725	618.793
410.453	17.436	805.338	618.578
411.467	17.446	804.672	618.052
412.482	17.423	804.399	617.703
413.496	17.433	804.197	617.530
414.511	17.398	803.617	616.903
415.526	17.440	803.462	616.880
416.540	17.447	802.871	616.399
417.555	17.460	802.101	615.800
418.569	17.463	801.819	615.538
419.584	17.387	801.565	615.013
420.599	17.614	801.035	615.374
421.613	80.156	1242.629	1291.193
422.628	67.937	1306.994	1291.320
