DTS Sentinel unit serial number:	SN413079Multiplexer serial number:	ORYXHardware model number:	OX4-SRSoftware version number:	ORYX F/W v4.00 Oryx Data Collector v3.7.2.0data status	okinstallation	princeton_trtdifferential loss correction	single-endedforward channel	channel 1reverse channel	N/Adate	2019/09/13time	06:34:35forward acquisition time	60.00reverse acquisition time	0.00gamma	496.2192k internal	0.2336k external	0.2336temperature offset calibration	1.0159default loss term (dB/km)	0.3790temperature slope calibration	1.0000multiplexer offset coefficient	1.0000multiplexer slope coefficient	1.0000fibre end	0.00T internal ref (°C)	26.05T ext. ref 1 (°C)	4.09T ext. ref 2 (°C)	20.61length (m)	temperature (°C)	Stokes	anti-Stokes-747.200	180.854	-0.146	0.216
-746.185	800.000	0.140	0.472
-745.171	-154.612	0.329	-0.022
-744.156	-200.000	0.004	0.048
-743.142	122.800	0.119	-0.150
-742.127	-138.830	-0.232	0.025
-741.112	-6.089	0.125	0.086
-740.098	-95.032	0.165	0.045
-739.083	259.682	0.125	0.217
-738.069	-10.988	0.099	-0.066
-737.054	-200.000	0.047	0.253
-736.039	23.656	-0.280	0.232
-735.025	800.000	0.053	0.169
-734.010	800.000	0.085	-0.289
-732.996	-146.729	0.083	0.007
-731.981	-33.428	0.231	0.128
-730.966	7.706	-0.047	-0.035
-729.952	-200.000	-0.039	-0.186
-728.937	0.167	0.156	-0.112
-727.923	-95.162	0.236	-0.064
-726.908	100.406	0.157	0.183
-725.894	750.554	0.112	-0.304
-724.879	-200.000	0.004	0.207
-723.864	-141.867	-0.073	-0.007
-722.850	225.610	-0.019	0.031
-721.835	-27.304	-0.253	0.148
-720.821	-76.806	0.362	-0.127
-719.806	276.867	0.150	-0.267
-718.791	206.901	-0.128	-0.201
-717.777	166.915	-0.064	0.092
-716.762	-153.394	0.144	0.010
-715.748	102.739	-0.148	-0.173
-714.733	266.548	-0.156	0.273
-713.718	-48.432	-0.240	-0.116
-712.704	65.081	0.125	-0.126
-711.689	-38.056	-0.247	-0.132
-710.675	-138.859	-0.270	0.030
-709.660	659.216	0.041	-0.106
-708.645	439.733	0.159	0.349
-707.631	206.101	-0.037	-0.058
-706.616	-200.000	-0.016	-0.131
-705.602	64.604	0.173	-0.175
-704.587	800.000	0.098	0.362
-703.572	20.044	0.187	-0.151
-702.558	-39.728	0.182	-0.095
-701.543	-109.680	-0.387	0.082
-700.529	-67.860	0.179	-0.070
-699.514	-90.152	0.249	-0.073
-698.499	-2.151	-0.272	-0.191
-697.485	-80.154	0.047	0.016
-696.470	57.652	-0.213	0.209
-695.456	-5.417	-0.070	0.048
-694.441	107.607	-0.245	-0.292
-693.426	-200.000	0.001	0.051
-692.412	-37.482	0.167	-0.090
-691.397	312.463	-0.062	0.117
-690.383	600.264	0.085	0.211
-689.368	-164.035	-0.077	-0.004
-688.354	-200.000	0.039	0.271
-687.339	-200.000	-0.037	0.261
-686.324	284.859	-0.101	-0.183
-685.310	-200.000	-0.024	-0.177
-684.295	-200.000	0.028	0.168
-683.281	100.841	0.124	0.144
-682.266	89.370	0.057	0.064
-681.251	232.092	-0.089	-0.146
-680.237	800.000	-0.056	-0.186
-679.222	-25.027	-0.061	-0.036
-678.208	-52.917	0.259	-0.120
-677.193	-71.023	0.167	0.063
-676.178	-55.053	0.330	-0.149
-675.164	-59.870	-0.238	-0.102
-674.149	-130.493	-0.036	-0.005
-673.135	10.185	-0.165	-0.126
-672.120	179.811	-0.085	0.125
-671.105	169.952	0.090	0.129
-670.091	800.000	0.119	-0.485
-669.076	800.000	0.100	-0.394
-668.062	-23.608	0.315	-0.189
-667.047	-29.560	0.189	-0.108
-666.032	378.054	-0.085	0.173
-665.018	71.127	-0.195	-0.203
-664.003	-63.679	0.184	-0.075
-662.989	13.715	0.173	0.134
-661.974	-200.000	-0.025	-0.122
-660.959	-86.485	-0.222	0.068
-659.945	800.000	-0.018	-0.078
-658.930	463.602	0.046	0.102
-657.916	615.768	-0.010	0.025
-656.901	-96.278	-0.274	-0.073
-655.886	-29.131	0.290	0.166
-654.872	49.766	-0.090	0.084
-653.857	8.705	-0.228	0.172
-652.843	-200.000	0.025	-0.281
-651.828	379.941	0.099	0.203
-650.814	-76.094	0.072	0.026
-649.799	488.794	0.217	-0.495
-648.784	800.000	-0.049	0.175
-647.770	-97.312	0.237	-0.062
-646.755	11.484	0.107	0.082
-645.741	-12.960	-0.166	0.108
-644.726	200.707	0.109	0.167
-643.711	-40.465	-0.296	-0.154
-642.697	-200.000	0.092	-0.560
-641.682	196.227	-0.057	-0.087
-640.668	-35.646	-0.064	-0.034
-639.653	-56.485	-0.145	0.064
-638.638	-50.475	0.214	-0.101
-637.624	125.233	0.266	-0.336
-636.609	-4.976	-0.071	-0.049
-635.595	522.715	0.100	-0.234
-634.580	-55.297	0.348	-0.156
-633.565	-189.216	-0.378	-0.004
-632.551	232.617	-0.096	0.158
-631.536	-200.000	-0.027	-0.122
-630.522	-200.000	0.040	-0.252
-629.507	800.000	-0.024	-0.087
-628.492	-70.215	0.172	-0.065
-627.478	-143.527	-0.275	0.026
-626.463	382.303	0.084	-0.173
-625.449	-200.000	-0.007	-0.074
-624.434	-112.477	0.170	0.034
-623.419	-58.515	-0.270	0.117
-622.405	16.207	0.210	-0.166
-621.390	-38.493	-0.016	-0.008
-620.376	-200.000	-0.098	0.492
-619.361	-58.202	0.350	-0.152
-618.346	-20.309	-0.401	0.247
-617.332	389.044	0.069	-0.143
-616.317	-78.529	0.139	-0.048
-615.303	699.033	0.051	-0.135
-614.288	-48.460	0.085	-0.041
-613.273	-41.073	0.174	0.090
-612.259	-200.000	-0.013	0.198
-611.244	-200.000	0.017	0.245
-610.230	565.439	-0.075	0.182
-609.215	23.830	0.186	-0.153
-608.201	-103.196	-0.210	-0.050
-607.186	-200.000	0.009	-0.282
-606.171	-93.300	-0.424	-0.117
-605.157	-200.000	0.068	0.310
-604.142	-39.528	0.559	-0.292
-603.128	81.356	0.313	0.338
-602.113	-200.000	0.007	0.092
-601.098	-200.000	-0.066	-0.388
-600.084	-56.683	0.083	-0.037
-599.069	-44.141	-0.185	-0.093
-598.055	-49.857	-0.045	-0.021
-597.040	-200.000	-0.035	-0.199
-596.025	800.000	-0.130	-0.386
-595.011	-160.449	0.094	0.005
-593.996	-100.275	0.126	0.031
-592.982	800.000	0.112	-0.319
-591.967	-200.000	-0.010	-0.284
-590.952	-106.757	0.286	-0.063
-589.938	-10.572	-0.258	-0.171
-588.923	-200.000	0.001	-0.327
-587.909	-105.824	0.292	-0.066
-586.894	800.000	-0.069	-0.198
-585.879	-200.000	-0.060	-0.347
-584.865	-91.157	-0.201	-0.058
-583.850	419.345	-0.096	-0.206
-582.836	-49.340	0.155	-0.074
-581.821	-64.551	0.090	0.037
-580.806	274.198	-0.102	-0.181
-579.792	162.781	-0.135	0.189
-578.777	800.000	0.141	-0.423
-577.763	347.904	0.169	-0.333
-576.748	-200.000	-0.012	-0.058
-575.733	-93.431	-0.070	-0.019
-574.719	53.968	-0.154	0.148
-573.704	574.708	-0.113	0.276
-572.690	-93.844	-0.525	0.144
-571.675	54.939	-0.149	-0.144
-570.661	47.390	0.052	-0.048
-569.646	-117.977	0.154	-0.027
-568.631	229.892	-0.119	0.193
-567.617	-133.479	0.040	0.005
-566.602	391.069	-0.044	-0.090
-565.588	-143.362	-0.226	-0.022
-564.573	102.102	-0.168	0.196
-563.558	214.236	-0.085	-0.135
-562.544	-129.022	0.164	-0.023
-561.529	-200.000	-0.046	0.226
-560.515	399.704	-0.104	0.218
-559.500	279.617	0.091	-0.163
-558.485	-5.040	-0.257	0.176
-557.471	-139.416	-0.304	0.032
-556.456	74.145	-0.164	0.171
-555.442	230.645	-0.110	0.180
-554.427	-37.754	0.127	-0.068
-553.412	27.676	-0.079	-0.067
-552.398	-58.973	-0.254	-0.109
-551.383	49.998	-0.154	-0.145
-550.369	111.089	-0.197	0.237
-549.354	118.245	-0.154	-0.190
-548.339	273.925	0.063	-0.111
-547.325	-173.394	-0.237	-0.007
-546.310	-91.476	-0.351	-0.100
-545.296	-22.156	0.104	-0.063
-544.281	13.584	0.132	-0.102
-543.266	-98.093	-0.141	-0.036
-542.252	238.600	0.213	0.354
-541.237	155.498	-0.126	0.173
-540.223	135.906	0.319	-0.414
-539.208	800.000	-0.015	0.048
-538.193	89.357	0.104	-0.115
-537.179	14.086	-0.260	-0.201
-536.164	62.256	0.119	-0.118
-535.150	112.600	-0.124	-0.150
-534.135	-200.000	-0.009	0.135
-533.121	-64.330	0.108	0.044
-532.106	621.278	-0.026	-0.065
-531.091	-120.260	0.200	0.034
-530.077	92.432	0.129	0.145
-529.062	31.782	0.106	0.091
-528.048	518.964	0.134	0.314
-527.033	181.976	0.115	0.169
-526.018	83.457	0.105	-0.114
-525.004	-200.000	-0.033	-0.307
-523.989	90.310	-0.193	-0.215
-522.975	318.227	-0.159	-0.300
-521.960	-152.879	0.525	-0.037
-520.945	-127.318	0.374	0.054
-519.931	-200.000	-0.027	0.150
-518.916	-140.786	-0.357	0.037
-517.902	800.000	-0.031	0.115
-516.887	274.923	0.010	0.018
-515.872	-200.000	0.007	0.080
-514.858	-132.660	0.314	-0.040
-513.843	7.659	0.062	0.046
-512.829	-91.492	-0.144	-0.041
-511.814	743.786	0.058	-0.155
-510.799	101.294	-0.069	-0.080
-509.785	-42.660	-0.379	0.192
-508.770	-10.193	0.046	-0.031
-507.756	95.338	-0.068	0.077
-506.741	-97.224	-0.191	0.050
-505.726	-139.847	-0.293	0.031
-504.712	800.000	0.091	0.314
-503.697	-144.055	0.049	0.005
-502.683	-200.000	-0.019	0.252
-501.668	-30.116	0.136	-0.077
-500.653	800.000	0.066	-0.205
-499.639	444.116	-0.208	0.453
-498.624	89.733	-0.092	0.103
-497.610	186.694	-0.158	0.235
-496.595	28.431	0.080	0.067
-495.581	-99.020	-0.302	0.076
-494.566	-80.099	0.168	0.056
-493.551	800.000	0.084	0.302
-492.537	487.737	0.100	0.228
-491.522	-81.976	-0.198	0.064
-490.508	86.180	-0.042	0.046
-489.493	-86.655	0.298	-0.091
-488.478	-200.000	0.009	-0.074
-487.464	-132.769	-0.367	0.047
-486.449	330.535	0.119	-0.228
-485.435	-200.000	-0.001	0.165
-484.420	-200.000	-0.017	-0.202
-483.405	109.638	0.174	0.207
-482.391	-72.956	-0.278	-0.102
-481.376	-29.730	-0.125	-0.071
-480.362	800.000	0.047	0.178
-479.347	293.190	0.092	-0.167
-478.332	-75.105	-0.309	0.110
-477.318	379.696	0.094	0.191
-476.303	-3.853	0.367	0.253
-475.289	250.948	-0.054	0.091
-474.274	213.567	0.070	0.111
-473.259	693.105	-0.035	-0.092
-472.245	18.812	0.187	0.149
-471.230	-131.086	-0.063	0.008
-470.216	332.213	-0.131	0.252
-469.201	335.362	-0.123	0.236
-468.186	800.000	-0.101	0.371
-467.172	-110.800	0.178	0.036
-466.157	160.198	0.154	0.214
-465.143	203.742	0.110	0.169
-464.128	-20.313	-0.269	0.165
-463.113	-120.958	0.065	0.011
-462.099	-119.218	0.276	0.048
-461.084	12.055	0.207	-0.158
-460.070	157.912	0.241	-0.331
-459.055	119.304	0.042	0.052
-458.040	-185.556	-0.392	0.006
-457.026	-28.846	0.148	-0.085
-456.011	-74.095	0.242	-0.087
-454.997	800.000	-0.064	-0.234
-453.982	-38.175	0.244	0.129
-452.968	-37.088	0.259	0.138
-451.953	-15.121	0.301	0.191
-450.938	99.248	-0.167	-0.191
-449.924	800.000	0.098	-0.390
-448.909	676.925	-0.032	-0.084
-447.895	-43.529	0.265	-0.133
-446.880	-134.165	-0.149	-0.018
-445.865	-200.000	0.019	0.224
-444.851	5.503	0.187	-0.137
-443.836	-120.106	0.271	-0.046
-442.822	478.337	-0.106	-0.238
-441.807	800.000	-0.051	0.167
-440.792	-127.345	-0.155	0.022
-439.778	-8.904	0.355	-0.236
-438.763	-61.266	0.184	0.077
-437.749	800.000	-0.037	0.119
-436.734	-139.642	0.094	-0.010
-435.719	-200.000	-0.054	0.286
-434.705	296.491	0.134	-0.245
-433.690	-200.000	-0.026	0.219
-432.676	347.098	0.038	0.073
-431.661	-0.390	-0.258	0.182
-430.646	-200.000	0.018	-0.096
-429.632	308.458	-0.091	-0.169
-428.617	-177.634	-0.390	-0.009
-427.603	451.243	-0.114	-0.251
-426.588	-28.501	-0.349	0.200
-425.573	-52.399	0.259	0.119
-424.559	-200.000	0.011	0.436
-423.544	-14.495	-0.194	0.124
-422.530	334.453	0.083	-0.159
-421.515	113.272	0.174	0.209
-420.500	-200.000	-0.058	0.275
-419.486	35.278	-0.111	-0.097
-418.471	27.870	-0.217	-0.181
-417.457	222.923	0.099	0.159
-416.442	-65.809	0.127	-0.050
-415.428	-200.000	-0.013	-0.058
-414.413	91.437	-0.072	-0.080
-413.398	-102.170	-0.119	0.028
-412.384	-40.193	0.296	0.153
-411.369	85.596	0.282	-0.308
-410.355	389.977	0.029	-0.059
-409.340	-195.161	-0.301	-0.002
-408.325	800.000	0.113	-0.366
-407.311	195.147	0.153	-0.230
-406.296	-134.446	-0.387	-0.047
-405.282	744.087	-0.073	-0.196
-404.267	-108.602	0.356	0.076
-403.252	-185.619	0.157	0.002
-402.238	72.074	0.052	0.053
-401.223	-200.000	-0.065	-0.314
-400.209	3.732	-0.066	-0.047
-399.194	-112.171	-0.315	0.063
-398.179	800.000	-0.051	-0.170
-397.165	-155.825	-0.310	0.020
-396.150	-80.193	-0.269	-0.089
-395.136	-38.696	-0.219	0.114
-394.121	-62.607	0.250	0.103
-393.106	-141.557	-0.089	-0.009
-392.092	99.301	0.101	0.116
-391.077	-150.075	-0.060	-0.005
-390.063	21.453	0.184	0.148
-389.048	-57.972	0.268	-0.116
-388.033	-32.022	-0.086	-0.048
-387.019	-98.636	-0.251	0.063
-386.004	-141.347	-0.200	0.020
-384.990	-81.554	-0.323	-0.105
-383.975	-68.947	0.171	0.065
-382.960	111.090	0.230	-0.274
-381.946	-194.958	0.434	-0.003
-380.931	-7.685	-0.051	-0.034
-379.917	49.383	0.271	0.253
-378.902	22.380	-0.061	-0.049
-377.888	586.122	0.068	-0.166
-376.873	-73.460	0.289	-0.104
-375.858	-61.862	-0.190	-0.079
-374.844	188.085	-0.066	-0.098
-373.829	-156.821	0.136	0.008
-372.815	800.000	0.037	-0.156
-371.800	-200.000	0.022	-0.405
-370.785	-57.113	0.348	-0.152
-369.771	-36.487	0.144	-0.077
-368.756	118.567	0.216	-0.264
-367.742	-85.436	-0.140	-0.043
-366.727	80.369	0.261	-0.278
-365.712	268.550	-0.225	0.391
-364.698	-89.128	0.096	0.028
-363.683	-200.000	-0.008	-0.048
-362.669	-28.617	-0.280	0.160
-361.654	32.700	-0.128	0.110
-360.639	800.000	-0.085	0.323
-359.625	-15.424	0.256	0.162
-358.610	800.000	-0.102	0.310
-357.596	-123.829	-0.032	0.005
-356.581	262.512	-0.162	-0.279
-355.566	-187.930	-0.229	0.003
-354.552	-200.000	-0.008	-0.193
-353.537	12.573	0.189	0.145
-352.523	800.000	-0.046	0.181
-351.508	-200.000	-0.021	-0.097
-350.493	228.967	-0.086	0.139
-349.479	-55.356	-0.218	0.097
-348.464	-106.850	-0.120	0.026
-347.450	6.337	-0.476	-0.350
-346.435	72.164	-0.094	0.097
-345.420	-200.000	-0.060	0.298
-344.406	772.661	-0.066	-0.177
-343.391	-54.771	-0.206	-0.092
-342.377	800.000	-0.125	0.359
-341.362	258.446	-0.089	-0.152
-340.348	-30.999	0.174	-0.097
-339.333	268.400	-0.112	0.193
-338.318	-200.000	0.002	0.237
-337.304	-200.000	0.007	0.077
-336.289	-41.089	0.266	0.136
-335.275	800.000	-0.110	-0.347
-334.260	-200.000	0.007	0.252
-333.245	58.340	0.216	-0.209
-332.231	17.979	-0.175	-0.138
-331.216	684.797	0.110	0.285
-330.202	-15.726	-0.318	-0.200
-329.187	-200.000	-0.021	-0.209
-328.172	-200.000	0.008	0.285
-327.158	-200.000	-0.030	-0.265
-326.143	58.422	0.155	-0.150
-325.129	192.426	0.160	0.239
-324.114	6.949	-0.209	-0.154
-323.099	-200.000	-0.029	-0.162
-322.085	-45.978	0.150	-0.073
-321.070	453.491	0.093	0.204
-320.056	16.249	0.165	-0.129
-319.041	378.810	-0.143	0.289
-318.026	-1.532	-0.054	-0.038
-317.012	141.096	-0.039	-0.051
-315.997	-76.215	0.173	-0.060
-314.983	-160.672	-0.357	-0.019
-313.968	319.944	-0.033	0.062
-312.953	-78.450	-0.060	0.020
-311.939	-170.281	-0.061	-0.002
-310.924	-200.000	0.006	-0.078
-309.910	463.012	-0.134	0.295
-308.895	417.469	-0.096	0.201
-307.880	-140.070	0.199	-0.021
-306.866	-83.066	-0.344	-0.109
-305.851	-200.000	0.040	0.187
-304.837	800.000	0.043	0.184
-303.822	-200.000	0.006	0.219
-302.807	-200.000	-0.007	-0.045
-301.793	-76.327	-0.230	-0.080
-300.778	71.815	0.186	0.190
-299.764	268.785	0.097	0.169
-298.749	-50.419	0.084	-0.039
-297.735	-200.000	0.027	0.265
-296.720	-98.074	0.037	-0.009
-295.705	146.842	0.151	-0.201
-294.691	-59.446	-0.159	0.068
-293.676	202.010	-0.097	-0.147
-292.662	800.000	0.080	0.277
-291.647	800.000	0.023	0.083
-290.632	-200.000	-0.021	0.172
-289.618	-200.000	0.017	0.411
-288.603	11.439	0.194	0.146
-287.589	800.000	0.054	-0.153
-286.574	800.000	0.098	0.298
-285.559	564.894	0.108	0.257
-284.545	800.000	-0.072	-0.256
-283.530	-200.000	-0.033	-0.181
-282.516	532.035	0.089	0.208
-281.501	-200.000	-0.057	0.326
-280.486	-94.495	-0.242	-0.065
-279.472	97.596	0.176	0.199
-278.457	-26.091	-0.089	0.051
-277.443	652.582	0.118	-0.298
-276.428	5.622	0.206	0.150
-275.413	26.251	-0.049	0.040
-274.399	-81.304	0.353	0.115
-273.384	136.557	-0.036	0.046
-272.370	269.921	0.082	0.142
-271.355	-100.697	0.069	0.017
-270.340	3.595	-0.185	0.133
-269.326	-200.000	-0.016	0.124
-268.311	800.000	-0.031	-0.119
-267.297	56.365	0.040	0.038
-266.282	-27.525	0.136	-0.078
-265.267	8.807	0.416	0.309
-264.253	-200.000	0.026	-0.404
-263.238	-64.908	-0.249	0.099
-262.224	-56.339	-0.271	-0.119
-261.209	-35.599	-0.435	0.233
-260.195	-200.000	-0.059	0.292
-259.180	14.609	-0.138	-0.106
-258.165	800.000	-0.098	-0.395
-257.151	100.620	-0.099	0.114
-256.136	73.086	0.143	0.148
-255.122	-200.000	-0.008	-0.106
-254.107	59.283	-0.053	0.051
-253.092	7.045	-0.061	-0.045
-252.078	-83.921	0.023	-0.007
-251.063	-200.000	0.016	0.098
-250.049	134.418	-0.150	-0.191
-249.034	67.908	0.022	-0.022
-248.019	216.711	-0.115	0.181
-247.005	-77.646	-0.247	0.084
-245.990	-90.126	-0.319	0.092
-244.976	716.614	-0.117	-0.307
-243.961	68.615	0.285	0.288
-242.946	-200.000	0.083	0.374
-241.932	-200.000	0.042	0.241
-240.917	-200.000	0.021	0.179
-239.903	800.000	0.038	-0.152
-238.888	-200.000	0.026	-0.356
-237.873	-200.000	0.020	0.166
-236.859	-157.674	-0.166	0.010
-235.844	800.000	0.096	-0.389
-234.830	-111.906	0.098	0.020
-233.815	-200.000	0.056	-0.312
-232.800	-133.050	-0.115	0.014
-231.786	-51.815	-0.107	-0.049
-230.771	92.049	-0.076	-0.084
-229.757	48.246	-0.102	0.094
-228.742	-200.000	0.030	-0.208
-227.727	249.284	0.025	-0.041
-226.713	-200.000	0.032	0.351
-225.698	800.000	0.106	0.319
-224.684	-200.000	0.016	0.294
-223.669	-200.000	0.048	0.359
-222.655	-26.729	-0.253	-0.145
-221.640	-91.862	-0.085	0.024
-220.625	-83.014	0.105	-0.033
-219.611	-200.000	0.025	-0.124
-218.596	-182.200	-0.160	0.003
-217.582	-140.605	0.388	0.040
-216.567	276.717	0.175	-0.307
-215.552	140.619	0.100	-0.130
-214.538	-34.180	-0.273	0.147
-213.523	237.867	0.139	-0.227
-212.509	258.645	0.037	-0.062
-211.494	49.558	-0.274	-0.254
-210.479	800.000	-0.084	-0.351
-209.465	323.408	0.113	-0.212
-208.450	-27.088	0.219	-0.126
-207.436	-159.490	-0.209	-0.011
-206.421	173.218	-0.057	0.081
-205.406	-166.120	0.306	-0.013
-204.392	-200.000	-0.005	0.144
-203.377	2.568	-0.126	0.090
-202.363	522.903	-0.037	0.085
-201.348	-200.000	-0.047	0.361
-200.333	-128.270	0.249	-0.035
-199.319	-103.018	-0.397	0.092
-198.304	-62.171	-0.184	0.075
-197.290	721.123	0.068	-0.178
-196.275	-18.491	0.107	-0.066
-195.260	138.914	0.033	-0.042
-194.246	-11.245	0.172	0.111
-193.231	-36.554	-0.178	0.094
-192.217	-72.736	0.030	0.011
-191.202	230.986	0.233	0.374
-190.187	-21.871	0.096	-0.057
-189.173	-200.000	0.045	0.233
-188.158	-47.263	0.065	-0.031
-187.144	61.678	-0.048	-0.047
-186.129	691.263	-0.041	-0.105
-185.114	-64.317	0.276	-0.110
-184.100	-148.297	-0.225	0.018
-183.085	-74.856	0.234	-0.082
-182.071	96.966	-0.035	0.039
-181.056	-50.675	-0.121	0.056
-180.042	-200.000	0.011	-0.262
-179.027	442.720	0.126	-0.272
-178.012	-10.319	-0.282	0.184
-176.998	36.868	-0.238	0.207
-175.983	-122.818	-0.209	-0.033
-174.969	315.943	0.164	0.305
-173.954	637.888	0.105	-0.262
-172.939	-107.457	0.245	0.053
-171.925	10.209	-0.291	0.218
-170.910	-200.000	0.033	-0.186
-169.896	163.953	0.096	-0.133
-168.881	113.959	-0.038	-0.046
-167.866	-81.251	0.197	-0.064
-166.852	-119.949	-0.209	-0.035
-165.837	-200.000	0.018	-0.124
-164.823	-96.971	0.285	0.073
-163.808	-79.540	0.186	-0.062
-162.793	127.634	0.139	-0.173
-161.779	36.789	0.101	0.088
-160.764	33.279	0.194	-0.165
-159.750	800.000	0.122	0.466
-158.735	-167.602	0.372	0.015
-157.720	-200.000	0.043	-0.261
-156.706	-200.000	0.002	-0.236
-155.691	-146.441	0.293	-0.025
-154.677	-162.289	-0.039	0.002
-153.662	-28.389	0.273	0.154
-152.647	800.000	-0.054	0.175
-151.633	445.794	-0.076	-0.164
-150.618	-200.000	-0.009	0.476
-149.604	-80.419	-0.339	0.111
-148.589	-18.368	0.080	-0.049
-147.574	145.707	-0.063	0.083
-146.560	-126.162	-0.217	0.032
-145.545	-200.000	-0.022	-0.182
-144.531	-146.235	0.160	0.014
-143.516	239.501	0.170	0.278
-142.502	-132.885	-0.069	0.009
-141.487	800.000	0.087	-0.251
-140.472	94.551	0.212	0.236
-139.458	-5.006	0.227	-0.154
-138.443	-16.790	0.314	0.195
-137.429	-200.000	0.042	0.261
-136.414	-59.233	0.118	0.050
-135.399	-27.379	0.136	-0.078
-134.385	-200.000	-0.021	-0.105
-133.370	132.085	0.163	0.206
-132.356	-58.646	0.324	0.138
-131.341	197.744	0.104	-0.155
-130.326	-112.122	-0.180	-0.036
-129.312	-93.714	0.300	0.081
-128.297	-109.939	0.066	0.014
-127.283	-68.251	-0.233	-0.089
-126.268	-49.953	0.198	0.092
-125.253	699.947	-0.077	0.199
-124.239	57.622	-0.180	0.172
-123.224	-14.612	0.119	-0.075
-122.210	-104.130	-0.050	-0.011
-121.195	800.000	-0.020	0.058
-120.180	168.920	-0.095	-0.132
-119.166	63.351	0.185	0.182
-118.151	485.626	-0.089	-0.199
-117.137	90.314	0.124	0.136
-116.122	72.196	0.108	0.110
-115.107	-200.000	-0.010	0.220
-114.093	-200.000	0.018	0.081
-113.078	252.087	-0.068	0.113
-112.064	800.000	0.130	0.372
-111.049	-200.000	0.025	0.164
-110.034	-200.000	0.028	0.229
-109.020	394.980	0.079	0.161
-108.005	4.671	0.284	0.205
-106.991	-86.411	-0.217	-0.065
-105.976	269.669	-0.048	0.082
-104.962	128.667	0.210	-0.263
-103.947	227.576	0.125	-0.199
-102.932	-87.591	0.343	-0.101
-101.918	380.217	-0.095	0.191
-100.903	649.885	0.161	0.403
-99.889	-200.000	-0.002	-0.236
-98.874	568.752	-0.071	0.170
-97.859	46.130	0.150	0.136
-96.845	403.485	0.061	-0.126
-95.830	487.251	0.068	0.152
-94.816	800.000	0.036	-0.129
-93.801	800.000	-0.054	0.146
-92.786	-93.898	0.167	-0.045
-91.772	-12.392	-0.229	0.146
-90.757	-62.299	0.149	-0.061
-89.743	-200.000	-0.032	-0.221
-88.728	420.784	-0.028	-0.058
-87.713	-200.000	0.042	0.245
-86.699	-38.982	-0.153	0.079
-85.684	416.985	0.158	-0.330
-84.670	393.141	-0.171	-0.348
-83.655	800.000	0.093	0.263
-82.640	257.407	0.034	-0.057
-81.626	-150.270	0.095	-0.007
-80.611	93.808	-0.090	0.099
-79.597	287.869	0.057	-0.100
-78.582	19.783	-0.050	-0.039
-77.567	-57.810	0.189	-0.081
-76.553	189.298	-0.071	0.104
-75.538	-118.738	0.073	0.013
-74.524	-20.517	-0.047	0.028
-73.509	300.836	0.169	-0.305
-72.494	34.016	-0.275	-0.234
-71.480	-126.463	-0.097	0.014
-70.465	-12.113	-0.355	0.228
-69.451	800.000	-0.061	0.230
-68.436	-63.730	0.164	0.066
-67.422	77.574	-0.161	-0.168
-66.407	-15.917	-0.195	0.122
-65.392	-128.535	-0.179	-0.025
-64.378	260.429	0.177	0.300
-63.363	-200.000	0.001	0.308
-62.349	0.778	-0.122	-0.085
-61.334	152.609	-0.922	-1.232
-60.319	173.534	0.611	0.863
-59.305	-200.000	-0.255	-1.501
-58.290	800.000	0.380	1.298
-57.276	565.913	0.686	1.627
-56.261	-200.000	118.073	640.875
-55.246	478.937	1555.830	3445.792
-54.232	173.714	2722.815	3842.456
-53.217	104.280	2154.803	2478.915
-52.203	37.610	1586.929	1376.888
-51.188	29.404	1329.897	1104.925
-50.173	26.635	1291.599	1056.926
-49.159	52.127	1351.481	1259.066
-48.144	50.783	1364.325	1262.962
-47.130	29.418	1318.215	1095.125
-46.115	26.173	1299.986	1060.907
-45.100	25.935	1295.042	1055.438
-44.086	25.951	1292.299	1053.253
-43.071	25.820	1290.287	1050.811
-42.057	25.858	1288.313	1049.380
-41.042	25.787	1286.367	1047.339
-40.027	25.897	1284.850	1046.701
-39.013	26.095	1282.489	1045.886
-37.998	25.929	1280.805	1043.510
-36.984	26.101	1279.186	1043.142
-35.969	26.025	1277.829	1041.557
-34.954	26.132	1275.413	1040.162
-33.940	26.004	1274.434	1038.589
-32.925	26.068	1272.946	1037.703
-31.911	26.050	1271.578	1036.441
-30.896	26.086	1270.258	1035.530
-29.881	26.174	1268.868	1034.863
-28.867	26.129	1267.904	1033.777
-27.852	26.193	1265.963	1032.520
-26.838	26.142	1265.150	1031.522
-25.823	26.170	1263.455	1030.257
-24.809	25.947	1262.558	1028.217
-23.794	26.230	1260.488	1028.102
-22.779	26.067	1259.434	1026.275
-21.765	26.127	1258.285	1025.635
-20.750	26.122	1256.809	1024.361
-19.736	26.005	1255.677	1022.737
-18.721	26.016	1254.435	1021.750
-17.706	25.976	1253.290	1020.546
-16.692	26.016	1252.104	1019.769
-15.677	26.020	1251.136	1018.963
-14.663	25.975	1250.394	1018.063
-13.648	25.913	1249.215	1016.714
-12.633	26.033	1247.881	1016.263
-11.619	26.034	1247.252	1015.714
-10.604	26.074	1246.148	1015.000
-9.590	26.024	1245.055	1013.788
-8.575	26.026	1244.341	1013.177
-7.560	25.867	1243.946	1011.927
-6.546	26.026	1242.675	1011.745
-5.531	26.015	1241.930	1011.034
-4.517	25.983	1240.851	1009.939
-3.502	25.977	1239.813	1009.020
-2.487	26.006	1239.115	1008.574
-1.473	25.976	1235.205	1005.183
-0.458	24.450	1220.442	984.716
0.556	22.655	1203.747	947.857
1.571	18.839	1209.650	931.768
2.586	18.044	1224.387	938.670
3.600	17.841	1212.732	928.550
4.615	13.837	1142.128	853.855
5.629	7.160	1071.535	768.686
6.644	4.315	1053.967	742.417
7.659	4.136	1051.508	739.765
8.673	3.988	1049.999	737.934
9.688	3.932	1049.043	736.928
10.702	4.272	1047.234	737.210
11.717	8.577	1052.551	761.414
12.731	16.129	1063.383	805.381
13.746	21.079	1069.303	833.499
14.761	22.093	1070.700	839.364
15.775	21.405	1068.990	834.664
16.790	20.442	1067.018	828.462
17.804	19.867	1065.426	824.414
18.819	19.561	1064.836	822.425
19.834	19.683	1063.745	822.090
20.848	19.676	1062.934	821.359
21.863	19.310	1062.604	819.294
22.877	19.093	1061.718	817.506
23.892	19.246	1060.778	817.438
24.907	18.948	1060.506	815.738
25.921	19.100	1059.149	815.345
26.936	19.110	1057.814	814.290
27.950	19.196	1057.124	814.094
28.965	19.248	1055.069	812.685
29.980	19.423	1054.073	812.673
30.994	19.614	1052.839	812.547
32.009	19.568	1052.052	811.652
33.023	19.347	1051.197	809.883
34.038	19.369	1050.359	809.266
35.053	19.303	1049.117	807.930
36.067	19.254	1047.789	806.607
37.082	19.131	1047.822	805.982
38.096	19.388	1047.358	806.760
39.111	19.466	1046.470	806.366
40.126	19.183	1044.772	803.666
41.140	19.025	1042.788	801.334
42.155	18.755	1042.096	799.474
43.169	18.660	1041.025	798.143
44.184	18.784	1039.843	797.740
45.199	18.652	1039.250	796.602
46.213	19.008	1038.027	797.245
47.228	19.086	1037.807	797.368
48.242	19.304	1036.290	797.140
49.257	19.187	1035.539	795.952
50.271	19.293	1034.795	795.797
51.286	19.359	1033.981	795.406
52.301	19.270	1033.454	794.518
53.315	19.175	1031.851	792.778
54.330	18.959	1031.068	791.112
55.344	19.065	1029.889	790.624
56.359	19.047	1028.690	789.551
57.374	18.883	1028.005	788.205
58.388	18.712	1027.441	786.919
59.403	18.700	1026.759	786.273
60.417	18.705	1025.952	785.610
61.432	18.740	1025.005	784.972
62.447	18.617	1024.338	783.832
63.461	18.516	1023.606	782.738
64.476	18.492	1022.348	781.601
65.490	18.467	1021.817	781.012
66.505	18.552	1021.048	780.741
67.520	18.776	1019.897	780.809
68.534	18.523	1019.451	779.250
69.549	18.506	1018.833	778.628
70.563	18.495	1017.734	777.670
71.578	18.451	1016.802	776.690
72.593	18.290	1016.461	775.633
73.607	18.264	1015.764	774.916
74.622	18.349	1015.105	774.726
75.636	18.326	1014.561	774.139
76.651	18.379	1014.044	773.919
77.666	18.489	1013.105	773.629
78.680	18.446	1012.668	773.033
79.695	18.391	1012.210	772.365
80.709	18.716	1011.483	773.208
81.724	18.760	1011.016	772.982
82.739	18.893	1010.121	772.826
83.753	19.268	1009.978	774.334
84.768	19.563	1009.064	774.890
85.782	19.649	1008.225	774.560
86.797	19.544	1007.219	773.248
87.812	19.316	1006.634	771.713
88.826	19.450	1005.450	771.336
89.841	19.353	1005.125	770.583
90.855	19.585	1003.819	770.549
91.870	19.686	1002.821	770.167
92.884	19.581	1001.799	768.846
93.899	19.522	1001.632	768.385
94.914	19.617	1000.262	767.689
95.928	19.544	999.286	766.547
96.943	19.422	998.464	765.309
97.957	19.373	997.665	764.408
98.972	19.511	996.914	764.380
99.987	19.593	995.201	763.360
101.001	19.451	994.989	762.502
102.016	19.377	994.129	761.449
103.030	19.490	993.227	761.187
104.045	19.472	992.564	760.533
105.060	19.227	991.809	758.809
106.074	18.968	990.470	756.579
107.089	18.762	988.890	754.399
108.103	18.658	988.481	753.564
109.118	18.664	987.180	752.534
110.133	18.509	986.645	751.378
111.147	18.633	985.161	750.726
112.162	18.737	984.754	750.803
113.176	18.746	984.220	750.371
114.191	18.995	983.295	750.684
115.206	18.848	982.728	749.543
116.220	18.810	981.986	748.744
117.235	18.852	981.380	748.399
118.249	18.685	980.759	747.136
119.264	18.625	979.522	745.863
120.279	18.494	978.811	744.686
121.293	18.539	977.714	743.981
122.308	18.391	976.935	742.681
123.322	18.352	976.020	741.753
124.337	18.451	974.204	740.736
125.352	18.392	973.933	740.208
126.366	18.528	972.473	739.618
127.381	18.295	971.722	737.981
128.395	18.414	971.054	737.918
129.410	18.401	970.575	737.433
130.424	18.595	970.001	737.767
131.439	18.746	968.903	737.514
132.454	18.789	968.542	737.358
133.468	18.813	967.413	736.537
134.483	18.804	966.787	735.956
135.497	18.822	965.762	735.188
136.512	18.918	965.112	735.037
137.527	18.816	964.498	734.072
138.541	18.814	963.774	733.449
139.556	18.959	963.170	733.541
140.570	19.191	962.023	733.591
141.585	19.375	961.697	734.060
142.600	19.379	960.653	733.213
143.614	19.530	960.019	733.307
144.629	19.604	959.214	732.942
145.643	19.488	958.016	731.471
146.658	19.289	956.929	729.733
147.673	19.017	955.925	727.751
148.687	18.958	954.818	726.595
149.702	18.989	953.983	726.026
150.716	18.945	953.370	725.312
151.731	18.863	952.721	724.409
152.746	18.870	952.172	723.956
153.760	18.866	951.797	723.590
154.775	19.042	951.149	723.775
155.789	19.286	950.401	724.165
156.804	19.219	949.727	723.308
157.819	19.352	948.719	723.034
158.833	19.508	948.404	723.380
159.848	19.575	947.894	723.208
160.862	19.345	946.437	721.072
161.877	19.105	944.844	718.793
162.892	18.910	943.901	717.200
163.906	18.815	942.931	716.004
164.921	18.840	942.392	715.635
165.935	19.000	941.361	715.452
166.950	19.097	940.647	715.249
167.964	19.072	939.326	714.080
168.979	19.069	938.663	713.497
169.994	19.010	938.332	712.939
171.008	19.106	937.371	712.544
172.023	19.349	936.988	713.195
173.037	19.463	936.418	713.171
174.052	19.266	935.678	711.730
175.067	19.037	934.703	709.979
176.081	18.827	934.196	708.666
177.096	18.809	933.602	708.077
178.110	18.897	932.727	707.714
179.125	18.899	932.231	707.282
180.140	19.080	932.245	707.976
181.154	19.319	931.477	708.313
182.169	19.330	931.443	708.268
183.183	19.442	930.542	707.980
184.198	19.475	929.519	707.277
185.213	19.484	928.794	706.696
186.227	19.536	928.098	706.318
187.242	19.565	927.858	706.190
188.256	19.849	927.358	706.910
189.271	19.829	926.314	705.969
190.286	19.366	925.606	703.478
191.300	18.869	924.483	700.537
192.315	18.831	923.441	699.531
193.329	18.927	923.121	699.617
194.344	18.995	922.805	699.592
195.359	19.193	921.909	699.656
196.373	19.255	921.390	699.451
197.388	19.407	921.826	700.340
198.402	19.770	920.905	701.047
199.417	19.891	920.387	701.083
200.432	19.949	919.947	700.921
201.446	20.141	919.447	701.256
202.461	20.115	919.248	700.934
203.475	19.959	918.516	699.683
204.490	19.505	917.275	696.847
205.504	19.577	915.969	696.080
206.519	19.505	915.787	695.593
207.534	19.422	914.982	694.584
208.548	19.574	914.271	694.594
209.563	19.489	913.684	693.745
210.577	19.634	913.228	693.922
211.592	19.812	912.942	694.356
212.607	19.969	911.944	694.167
213.621	19.770	911.348	692.852
214.636	19.823	910.368	692.258
215.650	19.862	909.738	691.874
216.665	20.033	909.177	692.070
217.680	20.083	908.791	691.915
218.694	20.035	908.272	691.267
219.709	19.989	907.621	690.527
220.723	19.967	907.157	690.024
221.738	19.842	906.083	688.649
222.753	19.980	905.781	688.908
223.767	20.104	904.982	688.732
224.782	20.106	904.689	688.455
225.796	20.153	904.605	688.518
226.811	20.090	903.675	687.498
227.826	19.930	902.751	686.099
228.840	19.906	901.852	685.260
229.855	19.717	901.147	683.919
230.869	19.695	900.588	683.348
231.884	19.756	899.911	683.012
232.899	19.679	898.827	681.828
233.913	19.569	898.208	680.862
234.928	19.373	897.478	679.475
235.942	19.519	897.015	679.640
236.957	19.597	896.461	679.466
237.972	19.592	895.570	678.713
238.986	19.539	895.246	678.199
240.001	19.708	894.631	678.338
241.015	19.599	894.299	677.597
242.030	19.813	893.703	677.925
243.045	19.917	893.310	677.974
244.059	19.844	892.805	677.244
245.074	19.915	891.792	676.694
246.088	19.797	891.538	675.982
247.103	20.184	890.634	676.747
248.117	20.415	890.946	677.822
249.132	20.749	890.234	678.524
250.147	20.882	890.032	678.829
251.161	20.860	889.493	678.274
252.176	20.771	889.042	677.521
253.190	20.810	888.490	677.195
254.205	20.911	887.906	677.082
255.220	20.800	887.240	676.082
256.234	20.662	886.336	674.799
257.249	20.971	885.249	675.107
258.263	20.806	884.943	674.176
259.278	20.770	884.267	673.462
260.293	20.998	883.412	673.632
261.307	20.961	883.527	673.517
262.322	21.039	882.655	673.095
263.336	21.036	882.056	672.565
264.351	21.112	881.271	672.201
265.366	21.068	880.782	671.600
266.380	21.012	880.115	670.814
267.395	20.850	878.952	669.245
268.409	20.779	878.574	668.628
269.424	20.732	877.546	667.606
270.439	20.813	876.705	667.216
271.453	20.699	876.286	666.403
272.468	20.586	875.697	665.465
273.482	20.656	875.026	665.162
274.497	20.665	874.043	664.392
275.512	20.601	874.142	664.162
276.526	20.759	873.525	664.236
277.541	20.892	872.713	664.068
278.555	21.070	872.737	664.706
279.570	21.123	872.145	664.400
280.585	20.960	871.342	663.109
281.599	20.888	870.448	662.096
282.614	20.685	869.700	660.698
283.628	20.578	869.295	659.926
284.643	20.725	868.659	659.940
285.657	20.832	867.937	659.738
286.672	20.975	867.175	659.642
287.687	20.780	866.831	658.586
288.701	20.829	866.180	658.219
289.716	20.924	865.460	657.972
290.730	20.996	865.286	658.051
291.745	20.983	864.353	657.235
292.760	21.099	863.980	657.331
293.774	21.297	863.629	657.751
294.789	21.138	862.907	656.547
295.803	20.943	861.714	654.846
296.818	20.824	861.222	653.968
297.833	20.838	860.563	653.462
298.847	20.914	860.074	653.318
299.862	21.016	859.539	653.237
300.876	21.107	859.656	653.609
301.891	21.154	859.018	653.241
302.906	21.406	858.411	653.663
303.920	21.476	857.946	653.514
304.935	21.635	857.174	653.461
305.949	21.496	856.241	652.173
306.964	21.393	855.760	651.366
307.979	21.388	854.962	650.681
308.993	21.360	854.986	650.540
310.008	21.439	854.230	650.200
311.022	21.248	853.715	649.041
312.037	21.272	852.501	648.148
313.052	20.918	851.739	646.198
314.066	20.923	851.054	645.642
315.081	20.862	850.924	645.258
316.095	20.947	850.238	644.999
317.110	20.834	849.425	643.907
318.125	20.944	849.020	643.949
319.139	20.769	848.841	643.108
320.154	20.964	848.122	643.226
321.168	20.891	847.469	642.407
322.183	21.028	847.069	642.550
323.197	21.119	846.460	642.368
324.212	21.099	846.134	641.990
325.227	20.861	845.724	640.744
326.241	20.873	844.853	640.074
327.256	20.898	844.321	639.704
328.270	21.055	843.596	639.674
329.285	20.924	842.838	638.565
330.300	20.969	842.046	638.072
331.314	21.014	841.894	638.064
332.329	21.156	841.968	638.583
333.343	21.358	841.286	638.748
334.358	21.304	840.643	638.005
335.373	21.376	840.762	638.304
336.387	21.437	840.337	638.146
337.402	21.603	839.960	638.408
338.416	21.563	840.125	638.331
339.431	21.827	839.713	638.926
340.446	21.754	839.315	638.301
341.460	21.821	838.931	638.196
342.475	21.848	838.481	637.896
343.489	22.112	837.864	638.328
344.504	22.175	837.753	638.415
345.519	22.106	837.188	637.677
346.533	21.851	836.632	636.274
347.548	21.543	835.619	634.330
348.562	21.645	834.758	633.990
349.577	21.341	833.988	632.251
350.592	21.327	833.477	631.757
351.606	21.446	832.562	631.437
352.621	21.509	832.017	631.195
353.635	21.443	831.800	630.736
354.650	21.624	831.002	630.728
355.665	21.698	830.371	630.459
356.679	21.675	829.977	630.022
357.694	21.679	829.360	629.510
358.708	21.583	828.739	628.640
359.723	21.726	828.364	628.811
360.738	21.558	827.793	627.720
361.752	21.830	826.802	627.887
362.767	21.997	826.406	628.128
363.781	21.999	826.650	628.267
364.796	22.229	825.930	628.484
365.810	22.371	825.655	628.728
366.825	22.460	825.054	628.532
367.840	22.365	824.440	627.671
368.854	22.145	823.946	626.453
369.869	22.069	823.596	625.863
370.883	22.149	822.935	625.588
371.898	22.292	822.839	625.971
372.913	22.372	822.445	625.900
373.927	22.045	821.787	624.181
374.942	22.262	821.193	624.446
375.956	22.258	821.117	624.318
376.971	22.517	820.675	624.844
377.986	22.606	820.698	625.123
379.000	22.420	819.692	623.644
380.015	22.503	818.907	623.284
381.029	22.475	818.227	622.611
382.044	22.509	817.844	622.385
383.059	22.475	817.318	621.811
384.073	22.463	816.471	621.070
385.088	22.101	816.098	619.454
386.102	22.041	815.362	618.628
387.117	21.998	814.770	617.974
388.132	22.040	814.115	617.569
389.146	22.197	813.757	617.797
390.161	22.437	813.344	618.270
391.175	22.463	812.820	617.907
392.190	22.249	812.039	616.509
393.205	22.032	811.583	615.347
394.219	22.138	811.333	615.476
395.234	22.034	810.918	614.741
396.248	21.877	810.162	613.567
397.263	21.860	810.027	613.348
398.278	21.740	809.844	612.739
399.292	21.800	808.816	612.114
400.307	21.707	808.575	611.554
401.321	21.902	808.317	611.985
402.336	22.040	807.807	612.025
403.350	22.178	807.515	612.232
404.365	22.422	807.197	612.785
405.380	22.533	806.829	612.839
406.394	22.713	805.889	612.696
407.409	22.748	805.792	612.688
408.423	22.753	806.083	612.873
409.438	22.839	805.349	612.560
410.453	22.805	804.868	612.022
411.467	22.877	804.240	611.740
412.482	23.058	804.153	612.245
413.496	23.105	803.969	612.213
414.511	22.933	803.504	611.210
415.526	22.879	802.899	610.508
416.540	22.742	802.308	609.532
417.555	22.796	802.231	609.605
418.569	22.915	801.368	609.307
419.584	23.095	800.451	609.175
420.599	22.943	800.260	608.452
421.613	165.615	1371.348	1797.926
422.628	143.950	1454.515	1798.007
