DTS Sentinel unit serial number:	SN413079Multiplexer serial number:	ORYXHardware model number:	OX4-SRSoftware version number:	ORYX F/W v4.00 Oryx Data Collector v3.7.2.0data status	okinstallation	princeton_trtdifferential loss correction	single-endedforward channel	channel 1reverse channel	N/Adate	2019/09/10time	19:32:11forward acquisition time	60.00reverse acquisition time	0.00gamma	496.2192k internal	0.2321k external	0.2321temperature offset calibration	0.9929default loss term (dB/km)	0.3790temperature slope calibration	1.0000multiplexer offset coefficient	1.0000multiplexer slope coefficient	1.0000fibre end	0.00T internal ref (°C)	33.42T ext. ref 1 (°C)	-0.35T ext. ref 2 (°C)	26.09length (m)	temperature (°C)	Stokes	anti-Stokes-747.200	800.000	0.093	-0.299
-746.185	-41.979	0.101	-0.052
-745.171	800.000	-0.073	-0.238
-744.156	337.570	0.119	0.234
-743.142	6.303	0.040	-0.030
-742.127	-72.063	-0.027	-0.010
-741.112	28.714	-0.215	-0.184
-740.098	-75.202	-0.176	0.063
-739.083	386.874	0.097	0.202
-738.069	800.000	-0.101	0.411
-737.054	23.381	-0.204	0.169
-736.039	-164.611	-0.241	-0.011
-735.025	800.000	0.082	0.340
-734.010	-94.304	-0.099	-0.027
-732.996	-200.000	0.010	-0.368
-731.981	60.181	-0.112	0.112
-730.966	-73.408	-0.369	-0.136
-729.952	65.542	-0.374	0.382
-728.937	143.119	0.201	-0.270
-727.923	-104.483	-0.357	-0.083
-726.908	-200.000	-0.010	-0.128
-725.894	154.144	-0.172	0.238
-724.879	-36.878	0.237	0.129
-723.864	-127.685	-0.326	-0.048
-722.850	412.889	0.101	-0.216
-721.835	-200.000	-0.004	-0.146
-720.821	325.034	0.061	-0.118
-719.806	800.000	0.033	-0.109
-718.791	-51.729	-0.161	0.076
-717.777	80.609	0.025	0.027
-716.762	-109.145	-0.350	-0.075
-715.748	800.000	0.077	-0.333
-714.733	63.602	-0.084	-0.085
-713.718	387.420	0.116	-0.242
-712.704	-200.000	0.005	-0.173
-711.689	41.745	-0.181	-0.166
-710.675	-67.531	-0.235	-0.093
-709.660	-42.973	0.215	0.110
-708.645	468.040	-0.022	0.049
-707.631	-200.000	-0.066	-0.321
-706.616	85.844	0.063	0.069
-705.602	339.226	0.057	0.112
-704.587	-37.873	-0.185	-0.099
-703.572	-50.779	0.197	-0.093
-702.558	-168.567	0.091	-0.004
-701.543	323.827	-0.112	-0.216
-700.529	-3.275	0.198	-0.139
-699.514	-73.428	-0.189	0.070
-698.499	-112.765	-0.315	-0.063
-697.485	217.172	-0.064	-0.103
-696.470	-9.040	-0.260	0.175
-695.456	-72.942	-0.424	0.157
-694.441	240.981	0.079	-0.133
-693.426	472.286	0.076	0.172
-692.412	98.730	-0.196	-0.228
-691.397	-200.000	-0.013	-0.159
-690.383	-200.000	0.061	-0.352
-689.368	96.178	0.039	-0.044
-688.354	-200.000	-0.021	-0.220
-687.339	-138.484	0.683	0.076
-686.324	76.690	-0.025	-0.027
-685.310	-200.000	0.014	-0.268
-684.295	-135.311	0.303	0.037
-683.281	-32.117	-0.208	-0.117
-682.266	-200.000	-0.008	0.179
-681.251	323.998	-0.040	-0.076
-680.237	47.315	0.148	-0.139
-679.222	-190.701	0.061	-0.001
-678.208	356.546	0.159	-0.320
-677.193	-49.912	0.075	-0.036
-676.178	-21.953	0.072	-0.044
-675.164	299.818	-0.253	0.470
-674.149	-200.000	-0.074	-0.344
-673.135	-130.442	0.390	0.053
-672.120	-3.477	-0.201	-0.141
-671.105	-117.624	0.317	0.058
-670.091	-128.884	0.161	0.023
-669.076	21.810	0.165	-0.136
-668.062	-200.000	0.073	-0.428
-667.047	128.299	0.083	0.107
-666.032	403.829	-0.079	-0.168
-665.018	197.473	-0.017	-0.027
-664.003	-200.000	-0.041	0.262
-662.989	246.180	-0.005	0.008
-661.974	-76.616	-0.219	0.078
-660.959	800.000	-0.055	-0.240
-659.945	-106.584	0.339	-0.076
-658.930	-200.000	0.044	-0.313
-657.916	-43.073	-0.328	-0.167
-656.901	-200.000	-0.069	-0.492
-655.886	-43.113	0.034	0.017
-654.872	-200.000	0.052	-0.373
-653.857	-17.448	0.165	-0.104
-652.843	150.374	-0.058	-0.080
-651.828	240.587	-0.076	-0.128
-650.814	85.150	-0.301	-0.332
-649.799	-200.000	0.009	0.054
-648.784	112.741	-0.121	0.148
-647.770	-99.419	-0.157	-0.040
-646.755	-39.830	-0.014	0.007
-645.741	-35.992	-0.140	0.076
-644.726	-153.685	0.104	0.007
-643.711	-52.159	0.179	0.084
-642.697	800.000	0.095	-0.322
-641.682	-174.594	0.101	-0.003
-640.668	496.669	-0.109	-0.252
-639.653	-200.000	-0.019	0.509
-638.638	431.798	-0.049	-0.107
-637.624	-200.000	0.001	-0.267
-636.609	-10.739	-0.059	-0.039
-635.595	-155.164	-0.288	0.019
-634.580	800.000	-0.068	-0.296
-633.565	171.850	0.129	-0.187
-632.551	-9.785	0.145	-0.097
-631.536	-64.105	0.281	-0.115
-630.522	-71.812	-0.325	0.122
-629.507	50.558	0.308	0.293
-628.492	221.567	-0.143	-0.231
-627.478	-119.838	-0.258	0.045
-626.463	62.698	0.070	0.071
-625.449	275.634	0.142	-0.253
-624.434	800.000	0.040	-0.143
-623.419	800.000	0.065	0.247
-622.405	194.931	-0.257	0.392
-621.390	-2.704	-0.107	-0.075
-620.376	539.394	-0.077	0.185
-619.361	800.000	0.091	-0.294
-618.346	-16.214	-0.292	0.186
-617.332	112.969	0.101	-0.123
-616.317	70.703	-0.044	-0.046
-615.303	-93.429	0.299	-0.083
-614.288	800.000	0.037	-0.121
-613.273	-200.000	0.024	0.210
-612.259	-155.125	0.224	-0.015
-611.244	-177.827	-0.353	0.009
-610.230	384.492	0.087	-0.180
-609.215	11.404	-0.078	-0.060
-608.201	115.289	-0.330	-0.405
-607.186	315.557	-0.141	0.267
-606.171	33.407	0.161	-0.141
-605.157	-37.112	-0.078	-0.042
-604.142	28.742	0.112	-0.095
-603.128	0.109	-0.209	0.150
-602.113	-200.000	-0.020	0.203
-601.098	-17.895	0.069	0.044
-600.084	-3.169	0.363	-0.255
-599.069	-200.000	0.042	-0.352
-598.055	-200.000	-0.021	-0.128
-597.040	-193.255	-0.228	-0.002
-596.025	374.476	0.240	-0.490
-595.011	90.722	0.219	0.246
-593.996	116.121	0.112	-0.138
-592.982	-200.000	0.083	-0.509
-591.967	800.000	0.030	-0.085
-590.952	75.529	-0.090	-0.095
-589.938	-128.646	-0.130	-0.018
-588.923	-76.562	-0.224	-0.079
-587.909	-69.526	0.163	-0.063
-586.894	46.071	-0.196	-0.182
-585.879	13.897	0.177	0.138
-584.865	800.000	0.003	-0.013
-583.850	-39.051	-0.163	-0.086
-582.836	18.100	0.207	0.166
-581.821	800.000	0.073	-0.244
-580.806	110.769	0.088	0.106
-579.792	-92.355	0.143	0.040
-578.777	148.637	0.021	0.028
-577.763	155.801	0.059	0.081
-576.748	-200.000	-0.029	0.149
-575.733	-120.217	0.065	0.011
-574.719	55.075	0.027	-0.027
-573.704	800.000	0.038	-0.108
-572.690	-19.986	0.121	0.075
-571.675	-200.000	0.035	-0.218
-570.661	800.000	0.036	-0.110
-569.646	-64.083	0.197	-0.081
-568.631	-200.000	0.015	-0.074
-567.617	-2.163	0.030	0.021
-566.602	-73.367	-0.118	-0.043
-565.588	425.150	-0.046	0.100
-564.573	-200.000	0.016	-0.102
-563.558	800.000	-0.097	0.281
-562.544	-200.000	0.058	-0.283
-561.529	-123.390	0.354	-0.057
-560.515	67.792	0.083	-0.085
-559.500	-84.925	-0.177	0.056
-558.485	-118.304	-0.183	0.033
-557.471	339.667	0.136	0.265
-556.456	800.000	-0.055	0.224
-555.442	121.780	0.034	-0.043
-554.427	50.863	-0.043	-0.041
-553.412	-27.766	-0.132	-0.077
-552.398	147.034	-0.151	-0.203
-551.383	-32.589	-0.150	-0.084
-550.369	98.182	-0.170	-0.196
-549.354	52.314	-0.264	-0.253
-548.339	27.412	0.060	0.051
-547.325	-115.060	-0.368	0.070
-546.310	-77.965	-0.230	-0.079
-545.296	800.000	-0.097	-0.380
-544.281	-16.184	0.339	-0.216
-543.266	-55.169	-0.393	0.177
-542.252	-200.000	-0.004	-0.097
-541.237	186.107	-0.137	0.204
-540.223	71.286	0.160	0.166
-539.208	-81.428	-0.094	-0.031
-538.193	385.515	0.101	-0.209
-537.179	-167.069	0.362	0.015
-536.164	544.113	-0.250	-0.599
-535.150	-106.850	0.281	-0.062
-534.135	-16.041	0.076	-0.048
-533.121	800.000	-0.078	-0.286
-532.106	800.000	-0.124	0.356
-531.091	-97.551	-0.256	0.067
-530.077	-152.039	-0.042	-0.003
-529.062	-15.166	0.210	-0.135
-528.048	-75.516	-0.173	0.062
-527.033	-145.966	-0.265	-0.024
-526.018	-200.000	-0.014	-0.069
-525.004	-200.000	0.049	-0.250
-523.989	9.705	-0.246	-0.187
-522.975	-17.589	-0.056	0.036
-521.960	2.255	0.091	0.066
-520.945	55.480	-0.053	0.051
-519.931	-200.000	-0.053	-0.342
-518.916	499.252	-0.077	0.177
-517.902	82.876	-0.122	-0.133
-516.887	-200.000	0.028	-0.199
-515.872	800.000	-0.066	-0.258
-514.858	533.561	-0.052	-0.123
-513.843	800.000	0.041	-0.138
-512.829	384.088	0.114	-0.234
-511.814	-47.478	-0.164	0.080
-510.799	-200.000	0.001	0.014
-509.785	179.824	-0.105	0.154
-508.770	-123.207	0.458	-0.073
-507.756	166.537	0.025	0.036
-506.741	800.000	0.043	0.133
-505.726	196.848	-0.157	0.239
-504.712	385.083	0.108	0.224
-503.697	-14.171	0.202	-0.131
-502.683	207.780	0.190	-0.298
-501.668	-77.918	-0.133	0.046
-500.653	31.741	-0.129	-0.111
-499.639	-64.702	0.303	0.123
-498.624	522.681	-0.151	-0.355
-497.610	-38.030	0.219	-0.116
-496.595	-79.210	-0.178	0.061
-495.581	-24.067	-0.150	-0.090
-494.566	-200.000	-0.065	0.289
-493.551	-56.714	-0.278	-0.123
-492.537	-161.745	0.025	0.001
-491.522	-1.127	0.147	0.104
-490.508	251.236	-0.055	-0.094
-489.493	-200.000	-0.021	0.208
-488.478	292.843	-0.126	0.230
-487.464	-200.000	-0.271	0.001
-486.449	-104.865	0.080	0.018
-485.435	-82.438	-0.025	-0.008
-484.420	-87.278	-0.215	0.065
-483.405	-80.215	0.135	0.045
-482.391	800.000	-0.079	-0.231
-481.376	-18.003	-0.174	0.109
-480.362	67.672	-0.284	0.290
-479.347	-38.868	0.123	-0.065
-478.332	-60.351	0.182	-0.077
-477.318	102.009	0.122	-0.142
-476.303	-96.792	0.199	-0.052
-475.289	-89.815	0.132	0.039
-474.274	-41.452	0.157	-0.081
-473.259	800.000	0.014	-0.056
-472.245	80.248	-0.121	-0.130
-471.230	-98.316	-0.088	-0.023
-470.216	-200.000	0.053	0.255
-469.201	800.000	-0.046	-0.175
-468.186	800.000	0.009	-0.032
-467.172	51.808	-0.163	-0.155
-466.157	533.411	-0.128	0.303
-465.143	408.483	-0.029	-0.062
-464.128	800.000	-0.063	0.173
-463.113	800.000	0.098	-0.326
-462.099	-161.466	0.036	0.002
-461.084	-200.000	-0.061	-0.390
-460.070	-200.000	0.382	-0.001
-459.055	-151.004	-0.295	-0.022
-458.040	-200.000	-0.000	-0.026
-457.026	123.396	0.127	0.159
-456.011	-71.797	-0.224	-0.083
-454.997	386.210	-0.063	-0.130
-453.982	-200.000	-0.040	0.224
-452.968	56.533	0.141	0.137
-451.953	367.516	0.042	0.085
-450.938	-51.102	-0.243	0.114
-449.924	-34.320	-0.240	-0.131
-448.909	-123.075	0.153	-0.025
-447.895	214.331	0.031	0.049
-446.880	-46.543	0.061	0.030
-445.865	-200.000	0.041	0.180
-444.851	-103.228	0.312	0.074
-443.836	84.071	-0.249	0.272
-442.822	-37.380	0.181	0.097
-441.807	27.571	0.152	0.128
-440.792	800.000	-0.055	0.207
-439.778	800.000	0.089	0.298
-438.763	-150.991	0.112	-0.008
-437.749	546.399	0.066	0.158
-436.734	800.000	-0.046	-0.167
-435.719	-53.447	0.212	-0.097
-434.705	-200.000	0.064	0.427
-433.690	800.000	0.039	0.148
-432.676	64.583	0.096	0.097
-431.661	-143.894	0.107	0.010
-430.646	57.023	0.075	-0.073
-429.632	800.000	0.072	0.241
-428.617	678.909	0.112	-0.292
-427.603	-97.831	-0.127	-0.033
-426.588	-178.819	-0.481	-0.011
-425.573	-62.135	0.262	0.109
-424.559	-29.834	0.083	-0.047
-423.544	-200.000	-0.025	0.262
-422.530	800.000	-0.059	0.219
-421.515	151.274	-0.036	-0.048
-420.500	800.000	-0.053	-0.199
-419.486	800.000	0.039	-0.168
-418.471	-200.000	-0.009	0.171
-417.457	366.179	0.014	0.029
-416.442	196.904	-0.046	-0.070
-415.428	291.675	-0.028	-0.052
-414.413	-112.131	-0.363	0.073
-413.398	570.614	-0.056	0.136
-412.384	-200.000	0.033	-0.324
-411.369	-97.009	-0.431	-0.113
-410.355	-47.655	0.312	-0.151
-409.340	77.460	-0.102	0.108
-408.325	-72.893	0.099	0.036
-407.311	-200.000	0.023	0.122
-406.296	429.464	0.166	0.358
-405.282	84.028	-0.181	0.198
-404.267	136.839	-0.117	0.153
-403.252	-200.000	0.036	0.275
-402.238	404.133	0.159	0.333
-401.223	-108.111	0.317	0.069
-400.209	203.615	-0.110	0.170
-399.194	-200.000	0.021	-0.278
-398.179	52.108	0.086	0.081
-397.165	800.000	0.105	0.333
-396.150	-13.961	0.118	0.076
-395.136	-73.676	-0.175	-0.063
-394.121	800.000	-0.053	0.165
-393.106	-200.000	-0.035	-0.335
-392.092	411.321	0.066	0.139
-391.077	-104.776	0.261	0.060
-390.063	-68.053	-0.333	0.130
-389.048	-1.044	0.231	0.163
-388.033	22.556	0.072	0.059
-387.019	-54.108	-0.390	0.177
-386.004	-71.816	-0.023	0.008
-384.990	-116.033	0.113	0.021
-383.975	243.742	-0.199	0.333
-382.960	-68.815	0.356	0.137
-381.946	-116.860	-0.188	-0.034
-380.931	-43.194	-0.154	-0.078
-379.917	309.414	0.131	-0.243
-378.902	118.781	-0.145	-0.179
-377.888	424.131	-0.027	0.057
-376.873	-176.858	0.274	0.007
-375.858	220.670	0.041	0.065
-374.844	-31.255	0.072	-0.040
-373.829	-112.732	0.555	0.110
-372.815	-200.000	0.016	-0.253
-371.800	75.808	-0.038	-0.040
-370.785	387.621	0.130	0.267
-369.771	78.761	-0.026	-0.028
-368.756	230.492	-0.028	-0.046
-367.742	68.128	0.086	0.088
-366.727	-84.789	0.079	-0.025
-365.712	-88.440	0.171	-0.051
-364.698	-101.064	-0.113	0.028
-363.683	-148.242	0.249	-0.020
-362.669	259.355	-0.158	0.272
-361.654	18.480	0.080	0.063
-360.639	-200.000	-0.006	0.205
-359.625	-200.000	0.002	-0.021
-358.610	2.043	-0.115	-0.082
-357.596	-71.047	0.236	0.088
-356.581	10.518	-0.272	-0.207
-355.566	27.433	0.095	0.080
-354.552	-5.633	-0.174	-0.119
-353.537	31.517	0.151	0.129
-352.523	572.975	-0.086	0.209
-351.508	-177.047	-0.169	0.004
-350.493	-57.629	-0.120	-0.052
-349.479	38.162	-0.350	0.310
-348.464	-129.833	0.533	0.073
-347.450	143.123	-0.070	0.093
-346.435	-23.028	0.181	-0.109
-345.420	75.155	-0.162	0.170
-344.406	800.000	0.069	0.250
-343.391	104.703	0.138	-0.162
-342.377	800.000	0.014	0.045
-341.362	-139.068	-0.097	0.010
-340.348	-111.342	-0.322	-0.065
-339.333	-48.075	-0.112	0.054
-338.318	-200.000	-0.031	-0.207
-337.304	663.592	0.039	-0.100
-336.289	-200.000	-0.076	0.401
-335.275	1.722	-0.172	-0.123
-334.260	-105.675	0.054	-0.012
-333.245	163.007	-0.144	0.201
-332.231	-110.740	-0.238	0.049
-331.216	181.606	-0.266	0.389
-330.202	153.271	-0.149	0.203
-329.187	-89.259	0.229	0.067
-328.172	-176.509	0.165	0.004
-327.158	-11.682	-0.156	0.102
-326.143	24.663	0.208	0.171
-325.129	-71.946	-0.103	-0.038
-324.114	-72.446	0.200	-0.074
-323.099	-85.958	0.054	-0.017
-322.085	-86.024	-0.246	0.076
-321.070	176.775	0.062	-0.089
-320.056	-200.000	-0.067	-0.513
-319.041	-149.163	0.249	0.020
-318.026	-36.384	-0.152	0.081
-317.012	49.472	0.137	0.128
-315.997	96.284	0.040	-0.045
-314.983	-39.938	-0.214	0.111
-313.968	-75.007	0.475	0.169
-312.953	800.000	-0.103	-0.326
-311.939	-200.000	-0.002	0.071
-310.924	-66.455	0.141	0.056
-309.910	-7.459	-0.223	0.150
-308.895	-56.540	0.290	0.128
-307.880	800.000	-0.042	0.167
-306.866	-200.000	0.026	-0.331
-305.851	-200.000	-0.054	-0.362
-304.837	209.303	-0.142	0.221
-303.822	-116.703	0.302	0.055
-302.807	-26.728	-0.159	-0.092
-301.793	-200.000	-0.082	0.455
-300.778	-83.145	-0.148	-0.047
-299.764	-200.000	-0.019	-0.491
-298.749	-94.280	-0.064	-0.017
-297.735	-131.061	-0.275	-0.036
-296.720	-101.610	0.113	-0.027
-295.705	800.000	-0.044	-0.168
-294.691	-147.383	0.386	-0.032
-293.676	-69.239	-0.186	-0.071
-292.662	82.435	0.018	-0.020
-291.647	800.000	-0.052	-0.225
-290.632	132.457	0.037	-0.047
-289.618	-192.233	-0.370	0.003
-288.603	-200.000	-0.008	-0.207
-287.589	1.046	-0.214	-0.152
-286.574	23.020	-0.079	0.064
-285.559	26.284	-0.046	0.038
-284.545	-171.567	-0.106	-0.004
-283.530	418.508	0.099	0.211
-282.516	18.182	-0.137	-0.108
-281.501	-22.908	0.091	-0.055
-280.486	-200.000	0.050	0.272
-279.472	-88.370	0.447	-0.133
-278.457	-76.328	0.166	0.058
-277.443	-200.000	0.026	-0.159
-276.428	56.451	0.248	-0.239
-275.413	320.725	0.139	-0.262
-274.399	-200.000	0.009	0.135
-273.384	49.576	-0.353	-0.330
-272.370	156.490	0.211	0.289
-271.355	132.018	-0.064	0.082
-270.340	-200.000	0.000	0.336
-269.326	-35.537	0.112	0.061
-268.311	3.178	0.204	-0.147
-267.297	-30.277	0.282	0.159
-266.282	51.171	-0.080	0.075
-265.267	800.000	0.087	-0.241
-264.253	176.622	0.019	-0.028
-263.238	800.000	-0.040	-0.116
-262.224	119.913	0.287	-0.352
-261.209	23.809	-0.147	0.120
-260.195	-145.726	-0.125	-0.011
-259.180	-38.363	0.268	-0.141
-258.165	-63.925	-0.125	0.051
-257.151	-200.000	-0.027	0.170
-256.136	-171.789	-0.396	-0.013
-255.122	181.292	-0.210	-0.307
-254.107	-52.564	-0.356	-0.163
-253.092	-53.701	0.198	0.089
-252.078	30.444	0.173	0.146
-251.063	37.770	0.171	-0.150
-250.049	127.737	0.147	-0.185
-249.034	800.000	-0.103	0.309
-248.019	68.462	-0.141	0.144
-247.005	-89.938	0.123	-0.036
-245.990	-200.000	-0.029	-0.348
-244.976	-200.000	0.025	-0.330
-243.961	-1.810	-0.387	0.270
-242.946	-200.000	0.009	-0.282
-241.932	-149.041	0.213	0.017
-240.917	800.000	0.050	0.175
-239.903	139.550	0.215	0.281
-238.888	-80.160	-0.244	-0.081
-237.873	5.855	0.040	-0.029
-236.859	192.408	-0.066	-0.098
-235.844	-12.382	0.290	-0.188
-234.830	299.945	0.082	-0.150
-233.815	-200.000	-0.009	-0.086
-232.800	-55.781	-0.042	0.018
-231.786	-106.607	-0.209	-0.046
-230.771	645.927	-0.006	0.016
-229.757	800.000	0.095	-0.319
-228.742	-200.000	-0.034	0.246
-227.727	-200.000	0.060	0.375
-226.713	-43.975	0.205	-0.102
-225.698	-195.500	0.114	-0.001
-224.684	235.836	-0.146	-0.239
-223.669	-26.217	-0.242	0.141
-222.655	-69.714	0.201	0.076
-221.640	-200.000	-0.018	-0.239
-220.625	686.770	0.026	-0.067
-219.611	65.144	-0.311	-0.312
-218.596	211.566	0.033	0.051
-217.582	-131.028	-0.109	-0.014
-216.567	291.168	0.108	0.194
-215.552	-66.297	-0.094	-0.037
-214.538	-107.134	0.477	0.104
-213.523	212.469	-0.284	0.444
-212.509	-109.606	-0.136	-0.028
-211.494	-200.000	0.018	0.268
-210.479	-200.000	0.023	0.327
-209.465	-200.000	-0.040	0.247
-208.450	609.868	0.098	0.243
-207.436	-112.112	0.223	-0.044
-206.421	41.707	0.222	0.199
-205.406	-24.318	0.095	0.056
-204.392	-85.026	0.163	-0.051
-203.377	800.000	-0.029	-0.100
-202.363	-136.616	-0.097	0.011
-201.348	-44.266	0.398	0.198
-200.333	-190.755	0.105	-0.001
-199.319	-200.000	-0.010	-0.112
-198.304	-200.000	-0.041	0.229
-197.290	-200.000	0.029	-0.151
-196.275	-122.805	-0.269	-0.043
-195.260	-200.000	0.016	0.254
-194.246	-145.822	-0.232	0.020
-193.231	592.273	-0.111	-0.272
-192.217	-119.320	-0.078	-0.013
-191.202	300.181	0.096	-0.175
-190.187	-193.756	-0.168	-0.001
-189.173	28.971	0.123	-0.103
-188.158	26.846	0.065	-0.054
-187.144	8.217	0.169	0.126
-186.129	108.476	-0.179	-0.211
-185.114	-200.000	0.011	-0.325
-184.100	800.000	0.076	0.286
-183.085	287.159	-0.244	0.435
-182.071	107.875	0.208	0.245
-181.056	-164.183	0.236	0.011
-180.042	-82.551	-0.342	0.110
-179.027	604.923	0.086	-0.212
-178.012	-69.594	-0.253	0.096
-176.998	0.174	0.200	-0.141
-175.983	286.591	0.071	-0.127
-174.969	-52.198	0.091	0.042
-173.954	-138.899	0.099	-0.011
-172.939	7.953	-0.175	-0.130
-171.925	224.386	0.159	0.254
-170.910	298.836	-0.136	0.247
-169.896	243.032	-0.208	-0.344
-168.881	-131.080	-0.099	-0.013
-167.866	701.815	0.150	0.392
-166.852	800.000	-0.024	0.075
-165.837	100.481	-0.016	0.019
-164.823	10.522	0.401	0.302
-163.808	-133.280	0.119	0.015
-162.793	217.610	0.060	0.094
-161.779	-92.676	0.224	-0.062
-160.764	172.138	-0.084	-0.119
-159.750	44.820	0.118	-0.107
-158.735	800.000	-0.022	-0.094
-157.720	22.504	0.159	0.129
-156.706	-200.000	-0.281	-0.001
-155.691	-183.190	-0.320	0.006
-154.677	-200.000	-0.017	-0.363
-153.662	146.958	-0.191	0.253
-152.647	-25.347	0.134	0.078
-151.633	-135.097	0.174	0.021
-150.618	-71.555	-0.391	0.145
-149.604	-24.784	0.344	-0.202
-148.589	241.636	0.072	0.120
-147.574	-19.580	0.091	0.056
-146.560	-164.973	0.288	0.013
-145.545	-79.727	0.234	-0.078
-144.531	-200.000	0.005	0.123
-143.516	8.270	-0.130	0.097
-142.502	-164.389	0.061	0.003
-141.487	-62.269	-0.048	0.020
-140.472	277.262	0.150	-0.263
-139.458	-200.000	-0.006	0.256
-138.443	165.942	0.076	-0.106
-137.429	143.752	-0.164	0.216
-136.414	-200.000	0.005	-0.124
-135.399	-122.146	0.072	0.012
-134.385	2.984	-0.170	-0.122
-133.370	-200.000	-0.014	-0.358
-132.356	584.019	0.205	-0.498
-131.341	-38.566	0.320	0.167
-130.326	-16.620	-0.133	-0.083
-129.312	-71.794	-0.293	-0.108
-128.297	-115.618	0.064	0.012
-127.283	800.000	0.051	0.216
-126.268	-59.071	0.203	0.086
-125.253	40.800	-0.319	-0.284
-124.239	693.172	-0.053	0.138
-123.224	376.431	-0.250	0.504
-122.210	-88.594	-0.116	0.034
-121.195	-200.000	-0.000	-0.135
-120.180	151.833	-0.079	-0.106
-119.166	-17.655	0.249	-0.154
-118.151	82.276	-0.261	-0.279
-117.137	-200.000	0.040	-0.196
-116.122	800.000	0.087	-0.291
-115.107	405.774	-0.068	-0.141
-114.093	69.556	0.079	0.080
-113.078	800.000	0.086	0.246
-112.064	429.620	-0.137	-0.293
-111.049	-200.000	0.002	-0.410
-110.034	-200.000	0.058	-0.298
-109.020	-132.835	-0.242	-0.031
-108.005	-200.000	0.047	0.451
-106.991	720.745	-0.093	0.243
-105.976	673.936	0.068	0.175
-104.962	-104.337	0.353	0.081
-103.947	579.300	0.052	-0.124
-102.932	-153.618	-0.077	-0.005
-101.918	-200.000	0.005	0.145
-100.903	224.658	0.118	-0.188
-99.889	-82.234	-0.180	0.058
-98.874	-156.680	0.101	0.006
-97.859	-170.888	-0.200	0.007
-96.845	800.000	0.059	-0.217
-95.830	-200.000	-0.012	0.127
-94.816	-200.000	-0.027	0.156
-93.801	-135.551	-0.170	-0.020
-92.786	372.011	0.033	0.066
-91.772	80.436	-0.106	0.112
-90.757	-200.000	0.008	0.081
-89.743	800.000	-0.134	-0.457
-88.728	234.167	-0.124	-0.202
-87.713	320.300	0.080	0.150
-86.699	-200.000	0.049	0.482
-85.684	-131.421	-0.346	-0.045
-84.670	-10.712	0.228	0.148
-83.655	800.000	-0.100	-0.386
-82.640	793.352	0.187	-0.506
-81.626	-200.000	0.035	0.185
-80.611	-130.472	0.153	-0.020
-79.597	-200.000	-0.017	0.165
-78.582	-65.165	-0.118	0.047
-77.567	-150.377	0.208	0.016
-76.553	-200.000	-0.013	0.119
-75.538	-124.307	-0.350	0.054
-74.524	128.299	0.139	0.174
-73.509	9.236	-0.120	-0.089
-72.494	11.954	0.249	-0.188
-71.480	-12.404	0.098	-0.063
-70.465	-200.000	0.015	0.203
-69.451	-99.040	-0.166	0.041
-68.436	-53.163	-0.143	0.065
-67.422	-48.082	-0.246	-0.117
-66.407	-87.292	-0.074	0.022
-65.392	-133.707	-0.199	-0.024
-64.378	-1.316	0.142	0.099
-63.363	29.557	0.340	-0.284
-62.349	19.632	-0.286	0.226
-61.334	82.147	-0.886	-0.946
-60.319	20.519	0.530	0.421
-59.305	-200.000	0.107	-0.849
-58.290	279.482	0.665	1.169
-57.276	800.000	0.588	1.762
-56.261	-200.000	102.181	620.730
-55.246	597.271	1441.712	3514.584
-54.232	182.682	2645.422	3839.612
-53.217	117.775	2173.380	2632.777
-52.203	45.030	1622.076	1469.928
-51.188	37.026	1358.823	1182.749
-50.173	33.746	1316.324	1126.287
-49.159	55.401	1368.068	1302.146
-48.144	58.170	1384.160	1334.148
-47.130	37.088	1338.733	1165.451
-46.115	33.543	1320.766	1128.705
-45.100	33.384	1316.059	1123.693
-44.086	33.295	1313.516	1120.948
-43.071	33.140	1311.741	1118.471
-42.057	33.286	1309.031	1116.978
-41.042	33.329	1307.518	1115.895
-40.027	33.319	1306.447	1114.881
-39.013	33.351	1304.276	1113.170
-37.998	33.252	1302.647	1111.156
-36.984	33.417	1301.007	1110.678
-35.969	33.476	1298.641	1108.962
-34.954	33.498	1297.372	1107.960
-33.940	33.447	1296.196	1106.615
-32.925	33.522	1294.749	1105.772
-31.911	33.597	1293.091	1104.753
-30.896	33.520	1292.030	1103.355
-29.881	33.545	1290.678	1102.299
-28.867	33.601	1289.111	1101.246
-27.852	33.571	1287.697	1099.816
-26.838	33.520	1286.311	1098.294
-25.823	33.504	1284.993	1097.034
-24.809	33.476	1283.508	1095.562
-23.794	33.495	1281.822	1094.185
-22.779	33.561	1280.662	1093.532
-21.765	33.507	1279.484	1092.173
-20.750	33.481	1277.928	1090.655
-19.736	33.427	1276.843	1089.371
-18.721	33.415	1275.773	1088.346
-17.706	33.381	1274.493	1087.015
-16.692	33.375	1273.428	1086.029
-15.677	33.260	1272.670	1084.680
-14.663	33.345	1271.224	1083.894
-13.648	33.424	1270.003	1083.264
-12.633	33.348	1269.444	1082.308
-11.619	33.317	1268.341	1081.147
-10.604	33.364	1268.046	1081.119
-9.590	33.244	1266.741	1079.281
-8.575	33.292	1265.536	1078.486
-7.560	33.422	1264.259	1078.092
-6.546	33.269	1264.067	1077.015
-5.531	33.349	1263.091	1076.599
-4.517	33.505	1261.735	1076.286
-3.502	33.501	1260.879	1075.487
-2.487	33.316	1260.232	1073.846
-1.473	33.269	1256.052	1069.974
-0.458	31.650	1240.531	1047.660
0.556	25.339	1221.528	1005.378
1.571	21.252	1226.253	986.150
2.586	20.405	1241.282	993.305
3.600	19.923	1231.237	982.445
4.615	14.582	1158.114	895.428
5.629	4.678	1080.705	785.686
6.644	-0.163	1059.256	746.018
7.659	-0.397	1056.394	742.776
8.673	-0.379	1055.435	742.124
9.688	-0.471	1053.902	740.529
10.702	-0.143	1052.626	741.181
11.717	5.891	1061.067	777.006
12.731	15.009	1074.099	832.005
13.746	18.299	1077.865	851.236
14.761	18.104	1076.889	849.420
15.775	17.925	1076.668	848.282
16.790	17.701	1075.843	846.444
17.804	17.599	1074.704	844.966
18.819	17.700	1074.248	845.034
19.834	17.733	1073.770	844.747
20.848	17.628	1073.450	843.900
21.863	17.711	1072.539	843.521
22.877	17.713	1071.432	842.585
23.892	17.500	1071.743	841.705
24.907	17.762	1070.328	841.810
25.921	17.798	1069.123	840.966
26.936	17.717	1067.882	839.518
27.950	17.695	1066.420	838.183
28.965	17.579	1064.042	835.675
29.980	17.552	1062.620	834.349
30.994	17.766	1061.300	834.289
32.009	17.788	1060.073	833.358
33.023	17.547	1058.900	831.183
34.038	17.643	1058.522	831.281
35.053	17.682	1057.700	830.754
36.067	17.712	1056.573	829.939
37.082	17.880	1055.259	829.650
38.096	18.044	1054.350	829.658
39.111	17.916	1054.258	828.891
40.126	17.882	1052.785	827.495
41.140	17.620	1051.033	824.780
42.155	17.421	1049.548	822.578
43.169	17.565	1047.902	821.909
44.184	17.527	1047.180	821.089
45.199	17.478	1045.766	819.672
46.213	17.417	1045.150	818.822
47.228	17.564	1043.831	818.423
48.242	17.455	1043.037	817.206
49.257	17.739	1041.637	817.397
50.271	17.796	1041.111	817.184
51.286	17.726	1040.030	815.929
52.301	17.838	1039.115	815.676
53.315	17.676	1038.380	814.251
54.330	17.698	1037.193	813.354
55.344	17.764	1036.386	812.964
56.359	17.714	1035.487	811.947
57.374	17.600	1034.342	810.435
58.388	17.655	1033.857	810.246
59.403	17.548	1032.863	808.885
60.417	17.393	1031.838	807.276
61.432	17.551	1031.094	807.374
62.447	17.655	1030.559	807.376
63.461	17.787	1029.477	807.083
64.476	17.628	1029.056	805.928
65.490	17.522	1027.882	804.434
66.505	17.603	1026.976	804.037
67.520	17.829	1026.286	804.493
68.534	17.542	1025.101	802.140
69.549	17.285	1024.319	800.247
70.563	17.326	1023.626	799.827
71.578	17.307	1022.842	799.056
72.593	17.122	1021.667	797.197
73.607	17.444	1020.812	797.971
74.622	17.621	1020.615	798.576
75.636	17.570	1020.164	797.911
76.651	17.397	1019.139	796.233
77.666	17.428	1018.105	795.497
78.680	17.477	1017.404	795.108
79.695	17.523	1016.882	794.844
80.709	17.538	1016.271	794.368
81.724	17.389	1015.457	792.965
82.739	17.537	1014.560	792.887
83.753	17.822	1013.546	793.346
84.768	17.947	1012.964	793.401
85.782	17.958	1011.802	792.474
86.797	17.889	1010.724	791.238
87.812	17.833	1009.695	790.104
88.826	17.868	1008.783	789.485
89.841	17.992	1007.655	789.102
90.855	17.937	1006.642	787.986
91.870	17.898	1005.680	786.985
92.884	17.849	1004.685	785.911
93.899	17.896	1003.384	785.040
94.914	17.983	1002.723	784.852
95.928	17.768	1001.689	782.986
96.943	17.659	1000.418	781.425
97.957	17.387	999.100	779.078
98.972	17.225	998.165	777.541
99.987	17.482	997.559	778.173
101.001	17.755	996.829	778.784
102.016	17.643	996.111	777.644
103.030	17.578	995.060	776.459
104.045	17.410	993.809	774.648
105.060	17.160	992.889	772.723
106.074	17.580	991.595	773.555
107.089	17.813	991.779	774.691
108.103	17.841	990.464	773.720
109.118	17.569	989.334	771.538
110.133	17.670	988.373	771.175
111.147	17.516	986.906	769.268
112.162	17.394	985.731	767.734
113.176	17.512	984.892	767.545
114.191	17.457	984.241	766.724
115.206	17.223	983.156	764.755
116.220	17.245	981.930	763.835
117.235	17.473	980.834	763.937
118.249	17.423	980.196	763.149
119.264	17.394	979.550	762.446
120.279	17.473	978.751	762.110
121.293	17.576	977.840	761.796
122.308	17.566	976.968	761.006
123.322	17.528	976.004	760.016
124.337	17.367	974.627	758.160
125.352	16.939	972.566	754.587
126.366	16.872	971.839	753.655
127.381	17.504	971.346	756.015
128.395	17.863	970.456	756.846
129.410	18.037	969.679	756.947
130.424	17.877	968.542	755.284
131.439	17.877	967.662	754.531
132.454	17.799	966.770	753.423
133.468	17.743	966.104	752.592
134.483	17.970	965.255	752.862
135.497	18.055	964.418	752.520
136.512	18.091	963.138	751.610
137.527	18.144	962.366	751.174
138.541	18.159	961.480	750.482
139.556	18.076	960.437	749.239
140.570	18.165	959.938	749.175
141.585	18.071	958.716	747.742
142.600	18.021	957.899	746.818
143.614	18.143	957.233	746.767
144.629	18.225	956.464	746.460
145.643	18.113	954.761	744.576
146.658	17.809	954.328	742.849
147.673	17.984	953.104	742.593
148.687	17.877	952.274	741.414
149.702	17.887	951.174	740.536
150.716	17.867	950.024	739.489
151.731	18.003	949.795	739.835
152.746	18.175	949.340	740.157
153.760	18.085	948.665	739.178
154.775	18.191	948.036	739.082
155.789	18.156	946.771	737.876
156.804	18.182	945.705	737.092
157.819	18.124	945.361	736.511
158.833	18.235	944.619	736.347
159.848	18.174	943.431	735.091
160.862	18.104	942.002	733.610
161.877	18.219	941.072	733.315
162.892	18.289	940.309	732.954
163.906	18.146	939.531	731.673
164.921	18.252	938.397	731.178
165.935	18.206	937.474	730.200
166.950	18.258	936.286	729.432
167.964	18.315	935.531	729.021
168.979	18.082	934.484	727.148
169.994	17.993	933.965	726.302
171.008	18.255	932.723	726.385
172.023	18.157	932.196	725.496
173.037	17.869	930.785	723.110
174.052	17.828	930.195	722.417
175.067	18.031	929.347	722.551
176.081	18.158	929.006	722.758
177.096	18.105	928.300	721.922
178.110	17.869	927.004	719.855
179.125	17.704	926.815	718.949
180.140	17.862	926.188	719.065
181.154	17.830	925.954	718.686
182.169	18.047	925.348	719.066
183.183	18.179	924.765	719.104
184.198	18.094	923.805	717.937
185.213	18.166	922.438	717.113
186.227	18.271	922.267	717.356
187.242	18.327	921.463	716.900
188.256	18.244	921.136	716.234
189.271	18.386	920.044	715.915
190.286	18.048	919.118	713.722
191.300	17.629	918.009	711.050
192.315	17.020	916.302	707.129
193.329	16.845	916.340	706.364
194.344	17.630	916.660	709.820
195.359	18.208	915.840	711.525
196.373	18.168	915.572	711.087
197.388	17.971	914.389	709.291
198.402	17.849	914.241	708.606
199.417	17.899	913.008	707.794
200.432	17.703	911.820	706.000
201.446	17.588	911.167	704.955
202.461	17.546	911.026	704.610
203.475	16.783	909.382	700.123
204.490	16.409	907.739	697.253
205.504	17.071	908.604	700.591
206.519	17.757	908.523	703.293
207.534	17.716	908.015	702.669
208.548	18.223	907.397	704.216
209.563	18.042	906.519	702.729
210.577	18.058	905.469	701.920
211.592	18.236	905.184	702.366
212.607	18.260	904.109	701.571
213.621	18.202	903.963	701.156
214.636	18.298	903.384	701.037
215.650	18.219	902.357	699.858
216.665	18.408	901.375	699.806
217.680	18.443	900.295	699.049
218.694	17.932	899.069	695.950
219.709	17.730	898.961	694.983
220.723	18.017	898.780	695.951
221.738	18.257	897.524	695.891
222.753	18.089	897.094	694.817
223.767	18.184	897.000	695.067
224.782	18.338	896.009	694.862
225.796	18.298	895.748	694.436
226.811	17.739	894.041	690.787
227.826	17.233	892.933	687.822
228.840	17.540	891.978	688.267
229.855	17.616	891.047	687.795
230.869	17.316	889.973	685.697
231.884	17.587	890.257	686.947
232.899	18.257	890.268	689.595
233.913	18.267	889.210	688.755
234.928	18.260	888.702	688.273
235.942	18.212	888.269	687.684
236.957	18.004	886.780	685.636
237.972	18.049	886.661	685.662
238.986	18.064	886.303	685.384
240.001	18.112	885.613	684.984
241.015	18.156	884.694	684.388
242.030	18.187	883.779	683.742
243.045	18.385	883.585	684.325
244.059	18.411	883.349	684.185
245.074	18.220	882.010	682.325
246.088	17.750	881.432	679.944
247.103	18.081	880.479	680.466
248.117	18.392	880.574	681.719
249.132	18.572	879.508	681.547
250.147	18.524	879.133	681.005
251.161	18.816	878.178	681.364
252.176	18.637	877.802	680.304
253.190	18.764	877.293	680.353
254.205	18.931	876.841	680.602
255.220	19.018	875.755	680.044
256.234	18.969	874.869	679.103
257.249	18.779	874.317	677.865
258.263	18.783	873.500	677.184
259.278	18.924	873.123	677.389
260.293	18.855	872.352	676.460
261.307	18.732	871.683	675.397
262.322	18.357	870.932	673.279
263.336	17.762	868.992	669.388
264.351	16.881	867.199	664.493
265.366	17.064	866.802	664.849
266.380	17.959	867.195	668.598
267.395	18.389	867.406	670.385
268.409	18.477	866.064	669.630
269.424	18.705	865.727	670.199
270.439	18.816	864.652	669.743
271.453	18.876	864.553	669.840
272.468	19.040	864.080	670.055
273.482	18.900	863.627	669.099
274.497	18.645	862.259	666.987
275.512	18.249	861.283	664.636
276.526	18.728	861.163	666.342
277.541	18.915	860.686	666.641
278.555	18.648	859.182	664.384
279.570	18.438	858.349	662.870
280.585	18.460	858.196	662.775
281.599	18.647	857.276	662.728
282.614	18.120	856.538	660.068
283.628	18.111	856.076	659.616
284.643	18.490	855.538	660.605
285.657	18.090	854.154	657.938
286.672	17.944	853.239	656.614
287.687	18.425	853.478	658.591
288.701	18.367	852.719	657.724
289.716	18.071	851.993	655.970
290.730	18.264	850.789	655.722
291.745	17.753	850.144	653.211
292.760	18.011	849.848	653.915
293.774	18.928	850.124	657.576
294.789	19.356	849.517	658.685
295.803	19.335	849.425	658.475
296.818	19.436	848.659	658.211
297.833	19.021	847.280	655.500
298.847	18.880	846.958	654.657
299.862	19.124	846.567	655.226
300.876	19.288	846.457	655.704
301.891	19.087	845.262	653.956
302.906	18.772	844.194	651.879
303.920	18.883	843.900	652.014
304.935	19.036	843.956	652.581
305.949	19.164	843.004	652.273
306.964	18.940	842.603	651.055
307.979	19.083	842.293	651.299
308.993	19.542	841.745	652.552
310.008	19.374	840.878	651.191
311.022	19.107	840.185	649.588
312.037	19.023	839.612	648.773
313.052	18.720	838.990	647.091
314.066	18.144	837.633	643.821
315.081	17.861	836.830	642.079
316.095	18.738	837.005	645.457
317.110	19.073	836.699	646.421
318.125	18.519	835.125	643.070
319.139	17.664	834.069	638.998
320.154	17.697	833.957	638.979
321.168	18.339	833.965	641.331
322.183	18.870	833.700	643.058
323.197	19.064	833.756	643.771
324.212	19.200	832.922	643.578
325.227	19.304	832.382	643.493
326.241	19.112	831.883	642.335
327.256	19.186	830.701	641.642
328.270	19.104	830.170	640.870
329.285	18.823	829.754	639.444
330.300	18.559	829.127	637.922
331.314	18.885	828.616	638.684
332.329	19.266	828.280	639.786
333.343	19.400	827.884	639.918
334.358	19.132	827.916	638.895
335.373	19.331	826.965	638.840
336.387	19.512	826.893	639.397
337.402	19.643	826.680	639.661
338.416	19.450	826.143	638.477
339.431	19.430	825.785	638.070
340.446	19.631	825.190	638.297
341.460	19.467	824.538	637.130
342.475	19.238	824.565	636.248
343.489	19.585	823.741	636.834
344.504	19.742	823.484	637.159
345.519	19.880	822.706	637.011
346.533	19.818	822.708	636.727
347.548	19.955	822.186	636.770
348.562	19.911	821.676	636.158
349.577	19.837	821.097	635.381
350.592	20.040	820.566	635.657
351.606	19.991	819.656	634.716
352.621	19.738	818.938	633.180
353.635	19.727	818.338	632.616
354.650	19.260	816.514	629.447
355.665	18.344	815.480	625.253
356.679	18.685	814.764	625.890
357.694	18.918	814.880	626.773
358.708	19.012	813.851	626.270
359.723	19.470	813.777	627.823
360.738	19.701	813.468	628.371
361.752	19.786	812.980	628.248
362.767	19.953	812.678	628.563
363.781	20.021	812.429	628.563
364.796	20.071	811.800	628.202
365.810	20.040	811.554	627.844
366.825	20.169	811.084	627.892
367.840	19.800	810.396	625.968
368.854	19.753	809.045	624.700
369.869	19.666	809.043	624.329
370.883	19.682	808.687	624.054
371.898	19.494	808.136	622.896
372.913	19.540	807.736	622.699
373.927	19.791	807.278	623.195
374.942	19.920	806.875	623.292
375.956	19.858	806.963	623.085
376.971	20.140	805.906	623.224
377.986	20.209	805.541	623.137
379.000	20.185	805.043	622.610
380.015	19.969	804.698	621.511
381.029	20.153	804.142	621.686
382.044	20.120	803.448	620.977
383.059	20.149	803.067	620.731
384.073	20.288	802.438	620.688
385.088	20.324	802.201	620.580
386.102	20.102	801.258	619.001
387.117	20.017	800.917	618.379
388.132	19.781	799.620	616.481
389.146	19.483	798.756	614.702
390.161	19.716	798.552	615.318
391.175	19.925	798.188	615.728
392.190	19.594	797.417	613.902
393.205	18.709	794.989	608.841
394.219	17.441	794.201	603.688
395.234	17.464	793.865	603.460
396.248	18.867	795.165	609.375
397.263	20.168	795.577	614.248
398.278	20.087	794.978	613.447
399.292	19.907	794.447	612.345
400.307	20.023	793.794	612.196
401.321	19.948	793.635	611.755
402.336	20.242	793.594	612.708
403.350	20.476	793.118	613.114
404.365	20.625	792.936	613.442
405.380	20.917	792.680	614.220
406.394	20.843	792.065	613.430
407.409	20.783	791.167	612.466
408.423	20.679	791.143	612.029
409.438	20.818	790.696	612.117
410.453	20.951	790.179	612.130
411.467	20.689	789.873	610.920
412.482	20.724	789.709	610.863
413.496	20.748	789.402	610.653
414.511	20.839	788.722	610.394
415.526	20.913	788.167	610.170
416.540	20.886	787.222	609.289
417.555	20.539	786.679	607.601
418.569	20.653	786.209	607.583
419.584	20.557	785.715	606.812
420.599	20.258	785.545	605.584
421.613	156.517	1360.444	1792.966
422.628	135.436	1444.195	1793.084
