DTS Sentinel unit serial number:	SN413079Multiplexer serial number:	ORYXHardware model number:	OX4-SRSoftware version number:	ORYX F/W v4.00 Oryx Data Collector v3.7.2.0data status	okinstallation	princeton_trtdifferential loss correction	single-endedforward channel	channel 1reverse channel	N/Adate	2019/09/12time	06:32:11forward acquisition time	60.00reverse acquisition time	0.00gamma	496.2192k internal	0.2320k external	0.2320temperature offset calibration	1.0047default loss term (dB/km)	0.3790temperature slope calibration	1.0000multiplexer offset coefficient	1.0000multiplexer slope coefficient	1.0000fibre end	0.00T internal ref (°C)	32.16T ext. ref 1 (°C)	1.57T ext. ref 2 (°C)	27.27length (m)	temperature (°C)	Stokes	anti-Stokes-747.200	35.332	-0.208	0.185
-746.185	-110.739	-0.153	-0.032
-745.171	420.878	0.027	0.058
-744.156	-200.000	0.019	0.112
-743.142	-31.693	0.166	0.094
-742.127	-200.000	0.027	0.276
-741.112	43.699	-0.283	0.262
-740.098	-190.205	-0.236	0.003
-739.083	800.000	-0.097	0.296
-738.069	-200.000	0.041	0.303
-737.054	89.741	-0.126	0.142
-736.039	-62.537	-0.345	0.145
-735.025	19.161	0.257	0.209
-734.010	-181.924	-0.361	0.007
-732.996	800.000	0.083	0.255
-731.981	-37.380	-0.291	-0.157
-730.966	325.958	0.043	0.083
-729.952	10.073	-0.237	-0.182
-728.937	362.673	-0.187	0.380
-727.923	630.335	-0.062	0.159
-726.908	55.250	0.383	-0.374
-725.894	-58.443	-0.191	0.084
-724.879	-88.748	-0.188	0.056
-723.864	267.039	-0.106	-0.188
-722.850	-200.000	0.005	0.111
-721.835	800.000	-0.029	-0.083
-720.821	-200.000	-0.023	-0.130
-719.806	-200.000	-0.028	-0.222
-718.791	34.407	-0.062	-0.054
-717.777	53.880	0.306	-0.297
-716.762	-50.681	-0.188	0.089
-715.748	-4.473	-0.097	0.068
-714.733	800.000	0.045	0.178
-713.718	191.641	-0.066	0.101
-712.704	-14.300	-0.192	-0.125
-711.689	-170.342	0.345	-0.012
-710.675	-200.000	-0.015	-0.105
-709.660	41.073	-0.144	-0.131
-708.645	294.920	0.099	0.183
-707.631	-122.422	-0.191	-0.031
-706.616	-8.148	0.156	-0.106
-705.602	587.604	-0.086	-0.215
-704.587	-100.666	-0.319	-0.080
-703.572	95.025	0.184	-0.211
-702.558	-139.716	-0.137	0.015
-701.543	-61.657	-0.338	-0.143
-700.529	276.865	0.123	-0.220
-699.514	-114.491	0.103	-0.020
-698.499	-169.887	0.196	0.007
-697.485	-200.000	0.009	0.100
-696.470	-200.000	0.002	0.024
-695.456	404.314	-0.116	-0.247
-694.441	-200.000	0.085	-0.387
-693.426	800.000	0.047	0.139
-692.412	800.000	-0.051	0.175
-691.397	11.935	0.117	-0.091
-690.383	-49.474	-0.095	0.046
-689.368	189.815	-0.243	-0.368
-688.354	-166.417	0.109	-0.005
-687.339	234.035	0.185	-0.307
-686.324	-100.980	0.354	0.088
-685.310	-74.036	0.068	0.025
-684.295	-68.332	0.205	-0.081
-683.281	-200.000	-0.013	-0.291
-682.266	-115.157	-0.348	-0.067
-681.251	-32.766	0.190	-0.107
-680.237	-200.000	-0.018	0.257
-679.222	373.455	0.095	-0.195
-678.208	181.983	0.046	0.069
-677.193	-74.479	0.166	0.060
-676.178	331.067	0.095	0.185
-675.164	-74.949	-0.145	-0.052
-674.149	-84.630	0.433	-0.137
-673.135	-148.018	0.071	-0.006
-672.120	165.887	-0.145	0.207
-671.105	-90.210	0.314	-0.092
-670.091	-91.902	-0.196	0.056
-669.076	11.256	-0.080	0.062
-668.062	-20.912	0.151	0.093
-667.047	-200.000	0.014	0.524
-666.032	423.248	-0.012	-0.027
-665.018	-95.795	-0.061	0.016
-664.003	329.210	0.110	0.214
-662.989	3.649	0.117	0.086
-661.974	87.540	-0.101	-0.113
-660.959	386.800	0.189	0.393
-659.945	78.864	0.049	0.053
-658.930	102.899	-0.147	0.174
-657.916	-10.300	-0.242	0.162
-656.901	56.715	0.105	-0.103
-655.886	31.598	-0.128	0.111
-654.872	-41.580	-0.223	-0.115
-653.857	420.094	0.057	-0.122
-652.843	-138.238	0.167	-0.019
-651.828	708.011	0.083	-0.222
-650.814	-115.921	0.242	-0.046
-649.799	-95.434	-0.279	-0.076
-648.784	-2.616	-0.160	0.113
-647.770	-99.078	0.148	-0.038
-646.755	-108.296	0.286	0.062
-645.741	800.000	-0.097	-0.296
-644.726	800.000	0.062	-0.177
-643.711	-64.681	-0.034	-0.014
-642.697	-126.849	-0.189	-0.028
-641.682	358.312	-0.039	-0.079
-640.668	-95.972	0.134	-0.036
-639.653	-78.661	0.335	0.115
-638.638	-172.415	-0.208	0.007
-637.624	-75.338	0.183	-0.066
-636.609	800.000	0.036	0.125
-635.595	160.081	-0.166	0.233
-634.580	113.609	-0.187	-0.229
-633.565	-82.863	-0.240	-0.078
-632.551	-31.502	-0.266	0.150
-631.536	-85.184	-0.318	-0.100
-630.522	-200.000	-0.026	-0.123
-629.507	-200.000	0.336	-0.001
-628.492	-200.000	-0.004	-0.183
-627.478	800.000	0.083	0.290
-626.463	22.884	-0.146	-0.121
-625.449	2.074	-0.148	0.107
-624.434	-153.675	0.284	-0.020
-623.419	-200.000	0.031	-0.229
-622.405	-127.775	0.262	-0.038
-621.390	-3.422	-0.075	-0.052
-620.376	245.003	-0.212	-0.358
-619.361	-200.000	-0.007	0.145
-618.346	-112.175	0.177	-0.036
-617.332	114.847	-0.130	-0.160
-616.317	556.256	-0.046	0.112
-615.303	800.000	0.100	-0.351
-614.288	-200.000	-0.007	0.117
-613.273	-108.288	-0.136	0.030
-612.259	-200.000	0.030	0.223
-611.244	478.241	0.074	-0.167
-610.230	3.766	-0.216	-0.159
-609.215	-200.000	-0.034	0.334
-608.201	142.875	-0.145	-0.194
-607.186	-45.542	0.128	0.064
-606.171	11.939	-0.341	-0.263
-605.157	-135.462	0.334	0.040
-604.142	800.000	-0.078	-0.265
-603.128	39.315	-0.163	0.147
-602.113	68.582	-0.077	0.080
-601.098	-200.000	0.004	-0.047
-600.084	144.449	0.198	0.266
-599.069	-101.297	0.275	-0.067
-598.055	142.994	-0.069	-0.092
-597.040	-200.000	0.009	-0.123
-596.025	-159.909	-0.319	-0.018
-595.011	106.548	-0.174	-0.207
-593.996	162.431	-0.099	0.139
-592.982	-20.938	-0.151	-0.093
-591.967	800.000	0.073	-0.228
-590.952	-33.478	0.212	0.118
-589.938	-3.483	-0.381	-0.267
-588.923	58.917	0.175	-0.173
-587.909	-61.105	-0.334	-0.142
-586.894	-200.000	0.019	-0.405
-585.879	800.000	0.077	-0.229
-584.865	1.723	-0.283	0.205
-583.850	13.325	0.060	0.047
-582.836	-80.284	-0.394	0.133
-581.821	784.445	-0.043	0.119
-580.806	-93.931	0.501	0.138
-579.792	-167.249	0.162	-0.007
-578.777	598.351	-0.031	0.077
-577.763	224.348	-0.198	0.321
-576.748	-166.871	0.144	-0.006
-575.733	-112.687	0.468	0.093
-574.719	37.837	-0.099	0.088
-573.704	-62.651	-0.069	-0.029
-572.690	-28.402	0.111	0.064
-571.675	257.338	0.119	-0.206
-570.661	-200.000	-0.036	-0.171
-569.646	32.135	0.113	-0.098
-568.631	279.365	-0.050	0.089
-567.617	-111.543	0.297	-0.061
-566.602	9.864	0.070	-0.053
-565.588	16.000	-0.158	0.125
-564.573	28.482	-0.102	-0.087
-563.558	800.000	0.047	0.196
-562.544	-200.000	0.077	-0.484
-561.529	-42.963	-0.157	-0.080
-560.515	594.400	0.071	-0.177
-559.500	-200.000	-0.006	-0.144
-558.485	-35.908	-0.103	0.056
-557.471	-67.276	0.015	0.006
-556.456	26.476	0.131	-0.110
-555.442	-200.000	0.010	0.072
-554.427	82.743	0.207	-0.225
-553.412	-95.550	-0.301	0.081
-552.398	-37.589	0.103	-0.055
-551.383	-178.038	-0.245	-0.006
-550.369	416.289	0.130	-0.278
-549.354	265.973	0.057	0.100
-548.339	-200.000	-0.014	0.277
-547.325	485.306	-0.094	0.215
-546.310	380.672	0.148	0.304
-545.296	77.268	-0.031	-0.033
-544.281	-200.000	-0.007	-0.454
-543.266	-94.512	0.153	-0.042
-542.252	-200.000	0.027	0.317
-541.237	-200.000	-0.021	0.131
-540.223	280.557	-0.172	0.308
-539.208	-54.241	0.166	-0.076
-538.193	85.347	0.248	-0.274
-537.179	312.204	-0.102	0.191
-536.164	38.468	-0.259	0.231
-535.150	800.000	-0.098	0.273
-534.135	-200.000	-0.036	-0.380
-533.121	22.671	0.243	-0.199
-532.106	-200.000	0.013	0.089
-531.091	342.202	-0.047	0.092
-530.077	-146.083	0.086	-0.008
-529.062	-17.222	0.110	-0.069
-528.048	-200.000	0.026	0.130
-527.033	-200.000	-0.048	-0.318
-526.018	608.134	-0.115	-0.288
-525.004	87.314	0.105	0.117
-523.989	181.542	-0.144	0.213
-522.975	-200.000	-0.010	0.068
-521.960	348.616	-0.172	-0.341
-520.945	-29.540	-0.220	-0.126
-519.931	9.246	-0.305	0.231
-518.916	-145.473	0.216	-0.020
-517.902	-54.352	-0.299	0.136
-516.887	-146.867	0.063	0.005
-515.872	-110.860	0.350	0.072
-514.858	-17.738	0.107	0.068
-513.843	-154.554	0.291	0.019
-512.829	-200.000	0.049	-0.259
-511.814	-53.815	0.226	-0.103
-510.799	-121.656	0.178	-0.029
-509.785	-67.374	-0.304	0.120
-508.770	-200.000	-0.069	0.324
-507.756	-92.290	-0.306	-0.086
-506.741	-11.683	0.089	-0.058
-505.726	32.430	-0.174	0.150
-504.712	-92.207	-0.206	0.058
-503.697	-128.504	-0.277	-0.039
-502.683	149.179	-0.058	-0.079
-501.668	677.194	-0.056	0.146
-500.653	-1.542	0.254	0.180
-499.639	21.927	0.041	-0.034
-498.624	-24.924	-0.375	0.223
-497.610	-120.015	0.197	-0.034
-496.595	-65.561	-0.298	-0.120
-495.581	-126.764	-0.208	-0.031
-494.566	-93.768	-0.017	0.005
-493.551	-49.403	-0.081	0.039
-492.537	74.439	-0.179	0.189
-491.522	417.075	0.042	0.090
-490.508	44.728	-0.157	0.145
-489.493	41.130	-0.119	0.107
-488.478	-96.799	0.168	0.044
-487.464	292.539	-0.102	0.186
-486.449	-22.111	-0.091	0.055
-485.435	165.596	-0.151	-0.214
-484.420	-200.000	-0.365	-0.001
-483.405	-71.428	0.142	0.053
-482.391	-200.000	-0.004	-0.196
-481.376	-200.000	0.034	-0.266
-480.362	-35.801	-0.104	0.057
-479.347	-32.678	-0.244	-0.136
-478.332	-60.905	0.235	0.100
-477.318	-165.307	0.098	-0.004
-476.303	-55.581	-0.305	-0.137
-475.289	-37.099	0.105	-0.056
-474.274	-114.761	-0.263	0.050
-473.259	179.451	0.184	-0.270
-472.245	-39.653	-0.266	0.139
-471.230	-180.416	-0.115	-0.002
-470.216	-56.628	-0.087	0.039
-469.201	-200.000	0.002	-0.044
-468.186	-151.671	0.473	0.035
-467.172	-66.334	-0.438	0.174
-466.157	800.000	0.067	0.255
-465.143	-200.000	-0.019	-0.439
-464.128	-69.663	-0.042	-0.016
-463.113	-200.000	0.011	-0.186
-462.099	626.933	0.111	-0.279
-461.084	-98.305	-0.087	0.022
-460.070	-76.297	-0.148	0.052
-459.055	-200.000	0.000	-0.010
-458.040	-200.000	0.036	-0.247
-457.026	29.779	0.078	0.067
-456.011	-200.000	0.032	0.342
-454.997	-57.241	0.216	0.095
-453.982	93.354	0.113	0.128
-452.968	586.237	0.060	0.147
-451.953	-200.000	0.016	-0.162
-450.938	-100.427	-0.026	0.006
-449.924	308.983	0.171	0.320
-448.909	-200.000	0.028	-0.282
-447.895	77.988	-0.169	-0.180
-446.880	800.000	-0.051	0.219
-445.865	188.212	0.200	0.299
-444.851	-140.280	-0.192	-0.020
-443.836	257.687	-0.121	-0.207
-442.822	-143.538	-0.278	0.026
-441.807	-171.245	0.286	0.010
-440.792	-200.000	0.009	-0.100
-439.778	40.506	-0.079	-0.071
-438.763	-33.414	-0.385	0.213
-437.749	-200.000	0.042	-0.207
-436.734	-200.000	-0.053	0.288
-435.719	-69.087	-0.272	-0.105
-434.705	-200.000	0.022	-0.228
-433.690	-117.983	0.430	0.077
-432.676	496.774	0.039	-0.090
-431.661	-200.000	0.023	0.146
-430.646	14.743	-0.200	0.156
-429.632	-28.487	0.165	0.095
-428.617	555.860	-0.041	0.098
-427.603	6.882	0.202	0.151
-426.588	151.511	0.062	-0.084
-425.573	-121.583	-0.145	-0.024
-424.559	800.000	0.033	-0.117
-423.544	223.294	-0.086	-0.138
-422.530	-10.746	0.074	-0.049
-421.515	15.008	0.101	0.079
-420.500	97.700	-0.082	0.094
-419.486	130.636	0.082	0.105
-418.471	281.774	-0.131	0.235
-417.457	-59.020	0.205	-0.088
-416.442	10.808	-0.185	-0.141
-415.428	427.619	0.053	-0.114
-414.413	-6.122	0.217	-0.148
-413.398	-200.000	-0.014	0.077
-412.384	-21.658	-0.390	0.237
-411.369	-8.823	0.089	-0.060
-410.355	-0.724	0.125	-0.089
-409.340	308.361	-0.004	0.008
-408.325	188.980	-0.079	-0.118
-407.311	800.000	-0.032	0.121
-406.296	651.152	0.068	-0.174
-405.282	-61.447	-0.147	-0.062
-404.267	130.224	0.046	0.059
-403.252	-200.000	0.044	0.300
-402.238	-74.564	-0.279	-0.100
-401.223	-200.000	0.030	-0.150
-400.209	59.563	0.164	-0.161
-399.194	800.000	-0.015	-0.063
-398.179	-200.000	-0.044	-0.291
-397.165	302.722	0.128	-0.236
-396.150	212.139	-0.136	-0.214
-395.136	715.429	-0.059	0.157
-394.121	60.776	-0.148	-0.146
-393.106	-117.162	0.304	0.055
-392.092	-18.326	-0.284	-0.177
-391.077	-200.000	-0.028	0.158
-390.063	-94.119	0.203	0.055
-389.048	-187.610	0.138	-0.002
-388.033	-200.000	0.128	0.000
-387.019	174.528	-0.020	-0.029
-386.004	-65.655	-0.061	-0.025
-384.990	400.835	-0.135	0.282
-383.975	800.000	0.015	-0.058
-382.960	194.072	0.146	-0.221
-381.946	-81.541	-0.247	0.081
-380.931	-94.391	-0.224	0.061
-379.917	-117.017	-0.184	-0.033
-378.902	-83.456	0.180	-0.057
-377.888	286.747	-0.134	-0.241
-376.873	232.469	0.110	0.180
-375.858	-8.562	0.170	0.114
-374.844	200.754	0.135	-0.207
-373.829	121.919	0.261	0.325
-372.815	601.962	-0.079	-0.196
-371.800	-63.021	-0.140	0.058
-370.785	27.091	-0.211	-0.176
-369.771	-200.000	0.017	-0.276
-368.756	675.594	-0.070	0.182
-367.742	800.000	0.071	-0.222
-366.727	-75.075	0.472	-0.168
-365.712	551.553	-0.083	-0.198
-364.698	-187.723	0.173	-0.002
-363.683	-100.645	-0.177	-0.044
-362.669	319.828	-0.041	0.077
-361.654	253.399	-0.124	-0.211
-360.639	-200.000	-0.007	0.180
-359.625	85.492	0.048	-0.052
-358.610	-200.000	0.018	0.121
-357.596	158.983	-0.174	-0.241
-356.581	-147.806	-0.460	0.038
-355.566	-200.000	0.001	0.191
-354.552	-53.293	-0.239	-0.109
-353.537	163.409	0.120	-0.169
-352.523	-200.000	-0.002	0.127
-351.508	800.000	0.046	0.167
-350.493	64.606	-0.159	0.160
-349.479	647.774	0.068	-0.173
-348.464	16.076	-0.236	0.185
-347.450	53.740	-0.162	-0.155
-346.435	-10.974	0.082	-0.054
-345.420	106.353	-0.258	0.305
-344.406	-200.000	-0.019	-0.083
-343.391	135.419	-0.068	0.088
-342.377	527.704	-0.154	0.360
-341.362	-200.000	0.018	0.432
-340.348	-82.208	0.228	0.074
-339.333	-130.942	-0.092	-0.012
-338.318	275.547	0.216	-0.381
-337.304	-102.591	-0.198	-0.047
-336.289	-200.000	0.019	0.172
-335.275	183.138	0.103	0.152
-334.260	214.481	0.096	0.152
-333.245	-79.376	0.252	0.085
-332.231	315.393	-0.081	-0.152
-331.216	-200.000	-0.000	-0.274
-330.202	-72.458	0.259	0.095
-329.187	-135.213	0.419	-0.050
-328.172	-200.000	0.039	0.176
-327.158	36.642	0.247	0.217
-326.143	-17.223	-0.265	-0.166
-325.129	-56.665	-0.201	0.089
-324.114	-168.648	0.243	0.009
-323.099	-175.142	0.222	-0.006
-322.085	233.083	0.028	0.046
-321.070	-16.165	0.046	-0.029
-320.056	-112.185	-0.305	0.061
-319.041	244.394	-0.052	0.088
-318.026	292.764	-0.152	-0.276
-317.012	-87.161	0.567	-0.171
-315.997	-121.301	-0.246	0.041
-314.983	-169.363	-0.231	0.008
-313.968	-27.215	0.044	-0.025
-312.953	46.370	0.238	-0.219
-311.939	-200.000	-0.005	0.237
-310.924	-68.553	0.148	-0.057
-309.910	800.000	-0.037	-0.106
-308.895	-121.282	0.113	-0.019
-307.880	540.856	-0.127	0.301
-306.866	142.436	0.034	-0.045
-305.851	374.763	-0.068	-0.138
-304.837	-200.000	-0.032	0.279
-303.822	-124.526	0.206	0.032
-302.807	800.000	-0.064	0.195
-301.793	-158.316	0.153	0.009
-300.778	-80.303	0.108	0.036
-299.764	655.889	-0.138	-0.352
-298.749	-200.000	-0.038	0.296
-297.735	800.000	0.056	0.182
-296.720	-107.382	-0.067	0.015
-295.705	-19.488	-0.180	0.111
-294.691	74.554	0.195	0.204
-293.676	-87.013	-0.115	0.035
-292.662	-200.000	-0.014	0.147
-291.647	-18.706	-0.418	-0.259
-290.632	223.363	0.117	-0.188
-289.618	260.069	-0.126	0.216
-288.603	-81.114	0.190	-0.062
-287.589	-49.066	-0.184	-0.087
-286.574	375.492	0.060	-0.122
-285.559	-39.718	0.436	-0.226
-284.545	-200.000	-0.021	-0.263
-283.530	165.950	-0.079	0.110
-282.516	145.342	0.145	0.193
-281.501	-142.310	0.016	-0.002
-280.486	-200.000	0.024	0.175
-279.472	-55.893	-0.242	-0.107
-278.457	65.660	0.126	0.127
-277.443	-200.000	0.016	0.194
-276.428	327.768	-0.271	0.517
-275.413	-130.935	0.375	-0.050
-274.399	-19.830	0.291	-0.178
-273.384	474.681	0.068	-0.152
-272.370	-119.049	0.199	0.035
-271.355	204.083	-0.154	0.237
-270.340	-200.000	0.020	0.273
-269.326	-65.968	0.315	-0.125
-268.311	-200.000	0.029	-0.455
-267.297	-189.137	0.536	0.006
-266.282	-200.000	0.019	0.091
-265.267	-200.000	0.015	-0.229
-264.253	221.918	0.151	0.241
-263.238	-200.000	0.025	0.142
-262.224	-84.653	-0.059	-0.018
-261.209	100.324	0.180	0.207
-260.195	-65.854	0.072	0.029
-259.180	515.542	-0.037	-0.086
-258.165	19.241	0.223	-0.177
-257.151	-200.000	0.012	-0.092
-256.136	800.000	0.045	-0.152
-255.122	224.228	0.191	0.306
-254.107	266.698	-0.073	0.127
-253.092	800.000	-0.117	-0.349
-252.078	-116.535	0.254	0.046
-251.063	-200.000	-0.005	-0.051
-250.049	-200.000	-0.047	-0.249
-249.034	800.000	-0.005	0.020
-248.019	800.000	0.030	0.089
-247.005	82.532	-0.159	0.171
-245.990	-200.000	0.007	0.057
-244.976	-200.000	-0.028	-0.306
-243.961	-11.038	0.174	0.114
-242.946	121.974	-0.242	0.300
-241.932	-144.150	-0.207	-0.019
-240.917	796.899	0.074	-0.201
-239.903	245.814	-0.034	0.057
-238.888	92.125	-0.072	-0.081
-237.873	251.977	0.140	0.237
-236.859	-30.097	-0.230	0.130
-235.844	-107.673	0.292	-0.063
-234.830	-200.000	0.083	-0.419
-233.815	-91.013	0.070	0.020
-232.800	-66.940	0.336	-0.131
-231.786	-200.000	-0.017	0.099
-230.771	-200.000	0.017	-0.280
-229.757	-84.939	-0.249	0.078
-228.742	-56.865	-0.136	-0.060
-227.727	-23.177	-0.200	-0.119
-226.713	237.973	0.065	0.107
-225.698	800.000	0.097	0.364
-224.684	-200.000	0.016	-0.114
-223.669	-52.339	-0.125	0.057
-222.655	69.499	0.203	-0.207
-221.640	-200.000	0.030	0.316
-220.625	-9.650	-0.398	-0.263
-219.611	-200.000	0.016	0.192
-218.596	-145.153	-0.320	0.029
-217.582	171.633	0.088	-0.125
-216.567	-151.472	0.162	-0.012
-215.552	111.305	0.099	0.118
-214.538	312.063	0.095	-0.176
-213.523	-200.000	-0.074	0.371
-212.509	-9.629	-0.122	-0.081
-211.494	-79.003	-0.063	0.021
-210.479	-109.481	0.221	0.046
-209.465	-62.126	-0.197	-0.081
-208.450	289.881	0.146	0.263
-207.436	-132.721	0.079	-0.010
-206.421	-200.000	-0.013	-0.160
-205.406	-93.571	-0.223	0.061
-204.392	-51.481	-0.432	0.200
-203.377	-200.000	0.024	-0.386
-202.363	800.000	0.065	0.203
-201.348	18.600	-0.101	0.080
-200.333	-165.601	0.346	-0.015
-199.319	800.000	-0.103	0.317
-198.304	205.002	-0.086	0.132
-197.290	-118.915	0.108	-0.019
-196.275	-22.877	-0.216	0.129
-195.260	-200.000	0.123	-0.000
-194.246	150.355	0.066	0.088
-193.231	-200.000	0.068	-0.367
-192.217	-56.961	0.127	0.056
-191.202	-200.000	0.089	-0.391
-190.187	161.764	0.036	0.050
-189.173	71.447	0.143	-0.147
-188.158	-170.962	-0.261	-0.009
-187.144	6.664	0.059	0.044
-186.129	-50.281	-0.108	0.051
-185.114	42.463	-0.278	0.250
-184.100	-129.934	0.276	0.037
-183.085	67.880	0.215	0.218
-182.071	-200.000	-0.010	0.114
-181.056	-56.249	-0.099	-0.043
-180.042	-43.396	0.173	-0.087
-179.027	-158.372	0.168	0.010
-178.012	-53.208	0.326	-0.148
-176.998	800.000	0.108	-0.384
-175.983	-118.653	0.282	0.049
-174.969	-87.814	0.135	0.040
-173.954	107.152	-0.031	-0.037
-172.939	1.873	0.205	0.146
-171.925	-79.555	0.232	0.078
-170.910	223.614	0.076	0.121
-169.896	-24.282	-0.168	-0.099
-168.881	-200.000	-0.003	0.205
-167.866	-157.306	0.233	0.014
-166.852	-119.158	-0.283	-0.049
-165.837	-200.000	0.017	-0.139
-164.823	4.882	0.214	0.156
-163.808	-200.000	-0.037	0.175
-162.793	73.433	-0.141	-0.146
-161.779	7.571	0.084	-0.062
-160.764	164.188	0.137	0.191
-159.750	141.165	0.099	-0.129
-158.735	-200.000	-0.016	0.411
-157.720	40.110	-0.077	0.068
-156.706	298.342	-0.171	0.311
-155.691	-49.329	0.194	-0.092
-154.677	-72.503	0.126	0.046
-153.662	33.725	0.134	0.115
-152.647	-77.429	-0.110	0.038
-151.633	-36.525	0.011	0.006
-150.618	277.964	0.102	-0.180
-149.604	21.487	0.178	-0.143
-148.589	-97.951	0.111	0.028
-147.574	-128.970	-0.353	0.049
-146.560	-135.366	0.092	0.011
-145.545	33.873	0.320	0.275
-144.531	800.000	-0.160	0.453
-143.516	800.000	-0.096	0.269
-142.502	-102.492	-0.129	-0.030
-141.487	-121.167	0.461	0.076
-140.472	309.003	0.154	0.283
-139.458	-149.079	-0.130	-0.010
-138.443	-29.024	-0.536	-0.304
-137.429	98.407	-0.188	0.213
-136.414	800.000	0.027	-0.088
-135.399	97.613	0.107	0.122
-134.385	-64.905	-0.365	0.146
-133.370	281.857	-0.094	-0.167
-132.356	-200.000	0.064	-0.395
-131.341	-178.738	0.150	0.003
-130.326	584.199	0.016	0.038
-129.312	-112.232	-0.134	0.027
-128.297	646.659	-0.059	0.148
-127.283	273.509	0.024	-0.043
-126.268	-159.912	0.152	-0.008
-125.253	800.000	-0.110	0.346
-124.239	-200.000	-0.001	0.172
-123.224	193.976	-0.169	-0.253
-122.210	-200.000	-0.017	-0.157
-121.195	-36.038	0.414	0.221
-120.180	-58.305	-0.233	-0.100
-119.166	551.501	-0.194	0.460
-118.151	-200.000	0.005	0.136
-117.137	800.000	0.021	0.090
-116.122	-200.000	-0.021	-0.277
-115.107	-161.963	0.487	-0.024
-114.093	-112.741	0.249	-0.049
-113.078	52.793	-0.165	-0.156
-112.064	309.304	0.070	0.128
-111.049	-200.000	-0.009	0.044
-110.034	-119.776	0.152	-0.026
-109.020	-39.963	-0.325	-0.167
-108.005	800.000	0.070	0.191
-106.991	-162.776	0.010	-0.000
-105.976	138.425	-0.117	0.151
-104.962	-139.226	-0.269	0.029
-103.947	-117.108	0.092	0.016
-102.932	641.163	0.042	-0.106
-101.918	85.794	-0.049	0.053
-100.903	587.819	-0.076	-0.184
-99.889	-200.000	-0.014	0.211
-98.874	800.000	0.150	0.423
-97.859	-200.000	0.063	-0.323
-96.845	-200.000	-0.006	-0.090
-95.830	-77.054	0.273	0.094
-94.816	-200.000	-0.030	-0.179
-93.801	68.677	-0.103	-0.105
-92.786	-59.117	-0.187	0.079
-91.772	-200.000	-0.039	0.226
-90.757	-3.252	0.267	-0.184
-89.743	530.071	0.102	0.237
-88.728	-100.235	-0.282	0.069
-87.713	-124.641	0.211	0.032
-86.699	-69.997	0.053	-0.020
-85.684	27.325	0.131	0.108
-84.670	93.455	0.130	-0.144
-83.655	40.198	0.135	-0.120
-82.640	800.000	0.058	0.168
-81.626	-129.311	-0.239	0.033
-80.611	73.156	-0.198	0.204
-79.597	-96.327	0.251	-0.066
-78.582	-33.184	-0.133	-0.073
-77.567	367.303	0.110	0.219
-76.553	301.723	-0.101	-0.184
-75.538	800.000	0.068	-0.229
-74.524	-125.982	0.298	0.044
-73.509	228.855	0.099	0.159
-72.494	94.128	-0.210	0.235
-71.480	171.535	-0.022	-0.030
-70.465	800.000	0.070	0.242
-69.451	28.311	0.354	-0.294
-68.436	85.345	0.046	0.050
-67.422	-200.000	0.028	-0.313
-66.407	-44.486	-0.171	0.084
-65.392	-200.000	0.029	0.241
-64.378	-64.121	0.102	-0.041
-63.363	-81.666	-0.090	0.029
-62.349	-101.133	0.356	0.086
-61.334	142.942	-0.752	-0.984
-60.319	46.193	0.336	0.307
-59.305	-200.000	-0.237	-1.152
-58.290	400.532	0.544	1.123
-57.276	800.000	0.391	1.493
-56.261	-200.000	95.999	595.884
-55.246	567.314	1371.600	3278.020
-54.232	160.905	2550.198	3506.386
-53.217	113.608	2142.136	2560.939
-52.203	44.170	1604.518	1448.593
-51.188	35.731	1342.093	1160.951
-50.173	32.536	1300.335	1106.057
-49.159	54.619	1347.934	1278.998
-48.144	56.934	1363.444	1307.472
-47.130	35.813	1323.085	1144.813
-46.115	32.394	1305.110	1109.101
-45.100	32.104	1301.080	1103.928
-44.086	32.096	1298.162	1101.364
-43.071	32.000	1295.680	1098.653
-42.057	31.982	1293.749	1096.866
-41.042	32.013	1291.729	1095.291
-40.027	32.053	1290.693	1094.602
-39.013	32.097	1288.898	1093.293
-37.998	32.201	1286.404	1091.737
-36.984	32.138	1285.259	1090.354
-35.969	32.119	1283.821	1088.984
-34.954	32.381	1281.334	1088.344
-33.940	32.241	1280.691	1086.945
-32.925	32.125	1279.207	1084.976
-31.911	32.293	1277.416	1084.383
-30.896	32.303	1275.797	1083.021
-29.881	32.270	1274.307	1081.524
-28.867	32.299	1273.097	1080.622
-27.852	32.254	1271.858	1079.267
-26.838	32.262	1270.467	1078.091
-25.823	32.304	1269.277	1077.280
-24.809	32.222	1267.963	1075.649
-23.794	32.231	1266.370	1074.311
-22.779	32.298	1265.115	1073.582
-21.765	32.194	1263.964	1071.972
-20.750	32.198	1262.585	1070.781
-19.736	32.071	1261.268	1068.897
-18.721	32.149	1259.945	1068.177
-17.706	32.143	1259.097	1067.387
-16.692	31.973	1258.019	1065.463
-15.677	32.057	1256.808	1064.870
-14.663	32.107	1255.653	1064.133
-13.648	32.114	1254.757	1063.369
-12.633	32.143	1253.533	1062.454
-11.619	32.008	1253.155	1061.328
-10.604	32.130	1252.038	1061.033
-9.590	31.973	1251.176	1059.374
-8.575	32.005	1249.877	1058.411
-7.560	32.044	1249.340	1058.132
-6.546	32.090	1248.393	1057.552
-5.531	32.102	1247.223	1056.586
-4.517	32.119	1246.239	1055.804
-3.502	32.005	1245.864	1054.802
-2.487	31.992	1245.071	1054.018
-1.473	31.999	1240.396	1050.058
-0.458	30.633	1225.710	1030.024
0.556	27.054	1208.629	992.865
1.571	23.566	1214.173	978.136
2.586	22.710	1229.965	985.987
3.600	22.200	1218.863	974.177
4.615	15.832	1145.303	882.035
5.629	6.056	1069.028	775.187
6.644	1.894	1049.060	740.456
7.659	1.484	1046.880	736.865
8.673	1.449	1045.610	735.734
9.688	1.454	1043.978	734.544
10.702	1.749	1041.961	734.487
11.717	7.493	1050.268	768.135
12.731	17.827	1065.184	829.463
13.746	23.634	1072.563	863.468
14.761	24.893	1073.970	870.655
15.775	24.830	1073.796	870.129
16.790	24.728	1072.750	868.708
17.804	24.738	1071.906	867.999
18.819	24.708	1071.912	867.780
19.834	24.846	1071.353	867.920
20.848	25.022	1071.037	868.440
21.863	25.031	1070.460	867.938
22.877	25.002	1069.506	866.947
23.892	24.950	1068.758	866.016
24.907	24.787	1068.613	865.032
25.921	24.997	1066.805	864.505
26.936	24.851	1065.530	862.692
27.950	24.753	1064.412	861.239
28.965	24.750	1062.374	859.497
29.980	24.821	1061.220	858.829
30.994	24.934	1060.228	858.495
32.009	25.066	1058.843	857.929
33.023	24.829	1057.708	855.798
34.038	24.879	1057.208	855.559
35.053	24.922	1056.834	855.385
36.067	24.915	1055.940	854.551
37.082	24.911	1055.024	853.716
38.096	25.140	1054.727	854.491
39.111	25.246	1053.775	854.147
40.126	24.982	1052.720	851.963
41.140	24.743	1050.619	849.054
42.155	24.641	1048.850	847.065
43.169	24.630	1048.139	846.366
44.184	24.536	1047.588	845.400
45.199	24.437	1046.751	844.180
46.213	24.649	1045.459	844.066
47.228	24.711	1045.294	844.148
48.242	24.801	1043.923	843.393
49.257	24.880	1043.241	843.139
50.271	25.054	1042.442	843.236
51.286	25.029	1041.859	842.575
52.301	25.064	1040.519	841.577
53.315	24.881	1040.125	840.325
54.330	24.888	1038.848	839.256
55.344	24.865	1038.646	838.907
56.359	24.810	1037.177	837.389
57.374	24.656	1036.345	835.925
58.388	24.573	1036.073	835.244
59.403	24.619	1034.981	834.505
60.417	24.463	1034.515	833.327
61.432	24.527	1033.752	832.934
62.447	24.758	1032.806	833.178
63.461	24.722	1032.413	832.617
64.476	24.741	1030.891	831.405
65.490	24.639	1030.111	830.228
66.505	24.597	1029.615	829.562
67.520	24.653	1029.024	829.270
68.534	24.417	1028.049	827.316
69.549	24.291	1026.429	825.359
70.563	24.253	1025.653	824.486
71.578	24.123	1025.311	823.538
72.593	23.999	1024.114	821.930
73.607	24.185	1023.759	822.432
74.622	24.469	1023.090	823.132
75.636	24.443	1022.689	822.616
76.651	24.201	1022.114	820.963
77.666	24.168	1021.344	820.123
78.680	24.385	1020.304	820.212
79.695	24.276	1020.171	819.531
80.709	24.604	1019.214	820.196
81.724	24.540	1018.720	819.434
82.739	24.518	1018.022	818.696
83.753	24.976	1017.346	820.180
84.768	25.240	1016.446	820.590
85.782	25.357	1016.153	820.813
86.797	25.188	1014.741	818.828
87.812	25.088	1013.772	817.520
88.826	25.152	1012.771	816.930
89.841	25.302	1011.708	816.681
90.855	25.215	1011.169	815.780
91.870	25.235	1010.060	814.907
92.884	25.078	1009.134	813.372
93.899	25.048	1008.026	812.272
94.914	25.258	1007.402	812.648
95.928	24.951	1006.797	810.698
96.943	24.778	1005.300	808.640
97.957	24.591	1003.817	806.531
98.972	24.480	1003.091	805.378
99.987	24.592	1003.050	805.776
101.001	24.981	1001.494	806.208
102.016	24.708	1001.571	804.969
103.030	24.767	1000.473	804.280
104.045	24.528	999.477	802.333
105.060	24.409	998.445	800.901
106.074	24.637	997.828	801.357
107.089	25.076	996.913	802.520
108.103	24.860	996.064	800.798
109.118	24.689	994.600	798.784
110.133	24.648	993.777	797.873
111.147	24.400	992.431	795.616
112.162	24.288	992.092	794.771
113.176	24.566	991.554	795.511
114.191	24.526	990.309	794.263
115.206	24.254	989.229	792.117
116.220	24.100	988.570	790.835
117.235	24.301	988.004	791.203
118.249	24.224	987.065	790.044
119.264	24.097	986.509	788.964
120.279	24.245	985.695	788.898
121.293	24.287	984.752	788.260
122.308	24.306	983.817	787.527
123.322	24.233	983.086	786.548
124.337	24.178	981.485	784.956
125.352	23.616	979.875	781.127
126.366	23.628	978.798	780.253
127.381	24.364	978.973	783.556
128.395	24.708	978.726	784.798
129.410	24.943	977.624	784.875
130.424	24.822	976.954	783.741
131.439	24.910	975.644	783.002
132.454	24.847	974.724	781.922
133.468	24.719	974.347	780.990
134.483	24.904	973.414	780.979
135.497	25.079	972.849	781.223
136.512	25.217	971.762	780.881
137.527	25.196	970.955	780.072
138.541	25.067	970.379	778.978
139.556	25.086	969.382	778.193
140.570	25.175	968.928	778.143
141.585	25.250	967.754	777.458
142.600	25.075	967.046	776.061
143.614	25.353	966.230	776.541
144.629	25.428	965.093	775.883
145.643	25.183	964.263	774.090
146.658	25.053	962.823	772.307
147.673	25.106	961.531	771.428
148.687	24.937	960.513	769.815
149.702	24.934	959.312	768.773
150.716	24.898	958.423	767.837
151.731	25.003	958.203	768.046
152.746	25.143	957.895	768.329
153.760	25.233	957.087	767.997
154.775	25.209	956.671	767.495
155.789	25.351	955.410	767.023
156.804	25.236	954.739	765.923
157.819	25.267	953.908	765.323
158.833	25.467	953.123	765.476
159.848	25.387	952.107	764.254
160.862	25.260	950.583	762.421
161.877	25.189	950.424	761.924
162.892	25.237	949.123	761.018
163.906	25.227	948.053	760.049
164.921	25.284	947.514	759.792
165.935	25.180	946.797	758.713
166.950	25.422	945.285	758.453
167.964	25.370	944.641	757.650
168.979	25.164	943.443	755.753
169.994	25.117	942.839	755.007
171.008	25.264	942.500	755.286
172.023	25.372	941.184	754.617
173.037	25.194	940.251	753.058
174.052	24.953	939.457	751.344
175.067	24.989	939.033	751.089
176.081	25.089	938.512	751.027
177.096	25.049	937.839	750.253
178.110	24.709	936.964	748.064
179.125	24.624	936.146	746.989
180.140	24.635	936.028	746.873
181.154	24.848	935.607	747.361
182.169	25.121	935.246	748.148
183.183	25.353	934.716	748.626
184.198	25.110	934.090	747.043
185.213	25.321	933.024	747.002
186.227	25.267	932.743	746.487
187.242	25.203	932.376	745.862
188.256	25.223	931.744	745.373
189.271	25.470	930.733	745.525
190.286	25.022	929.662	742.743
191.300	24.303	928.482	738.759
192.315	23.553	926.807	734.257
193.329	23.690	926.099	734.197
194.344	24.528	926.574	737.974
195.359	25.045	926.593	740.058
196.373	25.289	925.618	740.221
197.388	25.015	925.377	738.831
198.402	25.089	925.000	738.771
199.417	25.152	924.117	738.261
200.432	24.835	922.957	735.965
201.446	24.742	922.724	735.330
202.461	24.851	921.782	734.964
203.475	23.891	920.005	729.546
204.490	23.074	918.924	725.272
205.504	24.136	919.395	729.937
206.519	24.656	918.981	731.674
207.534	24.856	918.250	731.845
208.548	25.252	918.361	733.488
209.563	24.882	917.244	731.021
210.577	24.976	916.543	730.779
211.592	25.423	916.248	732.301
212.607	25.230	915.662	730.983
213.621	25.333	915.092	730.883
214.636	25.306	914.369	730.131
215.650	25.283	913.299	729.116
216.665	25.429	912.843	729.281
217.680	25.357	912.203	728.412
218.694	24.760	911.341	725.242
219.709	24.674	910.335	724.026
220.723	24.994	909.802	724.835
221.738	25.170	909.956	725.605
222.753	25.193	908.589	724.545
223.767	25.223	908.144	724.248
224.782	25.428	908.250	725.094
225.796	25.410	907.625	724.458
226.811	24.665	905.634	719.805
227.826	24.147	904.673	716.894
228.840	24.391	904.104	717.363
229.855	24.286	903.481	716.381
230.869	24.086	902.375	714.640
231.884	24.523	902.568	716.482
232.899	25.141	902.587	718.914
233.913	25.034	901.835	717.823
234.928	24.901	901.761	717.165
235.942	25.043	900.596	716.744
236.957	24.658	899.814	714.519
237.972	24.682	899.598	714.383
238.986	24.913	898.746	714.562
240.001	24.805	898.039	713.509
241.015	24.952	897.710	713.767
242.030	24.890	897.536	713.322
243.045	25.191	896.731	713.815
244.059	25.391	896.300	714.202
245.074	25.049	895.602	712.226
246.088	24.717	894.249	709.771
247.103	24.942	894.317	710.655
248.117	25.510	894.463	712.962
249.132	25.933	893.688	713.956
250.147	26.028	893.359	714.007
251.161	26.119	892.925	713.956
252.176	25.928	892.379	712.699
253.190	26.074	891.672	712.650
254.205	26.212	891.425	712.932
255.220	26.101	890.656	711.817
256.234	25.974	889.811	710.579
257.249	25.877	889.008	709.493
258.263	26.012	888.199	709.317
259.278	26.110	887.855	709.365
260.293	26.107	887.270	708.820
261.307	26.015	886.703	707.943
262.322	25.775	885.709	706.147
263.336	25.138	883.410	701.758
264.351	24.026	882.135	696.336
265.366	24.199	881.845	696.723
266.380	25.314	882.125	701.241
267.395	25.631	882.185	702.465
268.409	25.610	881.583	701.840
269.424	25.974	880.791	702.565
270.439	25.859	880.371	701.721
271.453	25.860	880.188	701.517
272.468	26.089	879.361	701.688
273.482	26.038	879.165	701.270
274.497	25.640	877.943	698.689
275.512	25.281	876.676	696.224
276.526	25.828	876.744	698.339
277.541	25.848	876.674	698.298
278.555	25.726	875.740	697.020
279.570	25.545	874.906	695.596
280.585	25.730	874.479	695.911
281.599	25.617	873.693	694.785
282.614	24.978	872.484	691.296
283.628	24.957	872.078	690.834
284.643	25.378	872.108	692.420
285.657	24.939	870.761	689.599
286.672	24.735	869.755	687.956
287.687	25.411	869.743	690.487
288.701	25.450	869.133	690.092
289.716	25.091	868.173	687.889
290.730	25.095	867.746	687.507
291.745	24.766	866.891	685.508
292.760	25.025	866.803	686.369
293.774	26.083	867.068	690.569
294.789	26.355	866.867	691.390
295.803	26.500	866.119	691.285
296.818	26.405	865.484	690.352
297.833	25.904	864.549	687.637
298.847	26.048	863.426	687.230
299.862	26.193	863.344	687.656
300.876	26.399	863.003	688.108
301.891	26.325	862.544	687.399
302.906	25.955	861.535	685.131
303.920	26.128	861.435	685.648
304.935	26.428	860.730	686.164
305.949	26.268	860.505	685.316
306.964	25.960	859.858	683.572
307.979	26.201	859.473	684.118
308.993	26.425	859.093	684.605
310.008	26.503	858.642	684.478
311.022	26.235	857.569	682.551
312.037	26.083	856.983	681.449
313.052	25.747	856.039	679.372
314.066	24.775	854.767	674.640
315.081	24.610	854.028	673.374
316.095	25.580	854.439	677.292
317.110	25.921	853.989	678.161
318.125	25.145	852.758	674.207
319.139	24.082	851.076	668.824
320.154	24.250	850.359	668.834
321.168	25.007	851.483	672.501
322.183	25.730	851.379	675.073
323.197	25.884	851.015	675.301
324.212	26.229	850.613	676.212
325.227	26.078	849.994	675.098
326.241	26.002	849.275	674.182
327.256	25.955	848.572	673.388
328.270	25.843	847.879	672.363
329.285	25.704	846.991	671.080
330.300	25.380	846.403	669.349
331.314	25.731	846.038	670.305
332.329	26.133	846.001	671.715
333.343	26.229	845.401	671.535
334.358	26.223	845.219	671.310
335.373	26.363	844.825	671.455
336.387	26.548	845.129	672.326
337.402	26.719	844.654	672.522
338.416	26.466	844.235	671.190
339.431	26.753	844.380	672.314
340.446	26.833	843.875	672.145
341.460	26.709	843.166	671.063
342.475	26.534	842.448	669.785
343.489	26.569	842.390	669.808
344.504	27.123	841.760	671.297
345.519	27.015	841.751	670.830
346.533	27.042	841.210	670.438
347.548	27.147	840.549	670.240
348.562	26.945	840.435	669.346
349.577	26.874	839.572	668.337
350.592	26.878	838.857	667.726
351.606	27.061	837.998	667.655
352.621	26.741	837.335	665.893
353.635	26.683	836.716	665.126
354.650	25.928	835.071	660.994
355.665	25.187	833.319	656.836
356.679	25.608	833.046	658.104
357.694	26.005	832.915	659.394
358.708	25.857	832.554	658.510
359.723	26.302	832.109	659.721
360.738	26.631	831.754	660.585
361.752	26.749	831.386	660.662
362.767	27.043	830.875	661.270
363.781	27.296	830.767	662.046
364.796	27.412	830.265	662.009
365.810	27.433	830.136	661.925
366.825	27.484	829.802	661.784
367.840	26.998	828.982	659.309
368.854	26.793	827.730	657.508
369.869	26.806	827.217	657.090
370.883	26.817	827.053	656.942
371.898	26.625	826.641	655.863
372.913	26.840	826.022	656.089
373.927	26.702	826.107	655.601
374.942	27.044	825.591	656.370
375.956	27.227	825.175	656.643
376.971	27.304	824.731	656.507
377.986	27.558	824.130	656.889
379.000	27.308	824.185	655.972
380.015	27.200	823.124	654.680
381.029	27.336	822.674	654.752
382.044	27.384	822.144	654.446
383.059	27.365	821.537	653.836
384.073	27.515	820.895	653.806
385.088	27.239	820.739	652.635
386.102	27.128	819.739	651.384
387.117	27.080	819.187	650.716
388.132	26.607	818.121	648.117
389.146	26.217	817.094	645.854
390.161	26.611	817.195	647.284
391.175	27.080	817.136	648.856
392.190	26.870	815.688	646.899
393.205	25.382	813.412	639.742
394.219	23.844	811.919	633.038
395.234	23.719	811.928	632.547
396.248	25.473	813.077	639.632
397.263	26.835	814.281	645.375
398.278	26.862	813.539	644.826
399.292	26.617	812.792	643.304
400.307	26.669	812.175	642.944
401.321	26.884	811.776	643.335
402.336	27.209	811.985	644.594
403.350	27.467	812.045	645.501
404.365	27.916	811.711	646.770
405.380	28.136	811.425	647.262
406.394	28.061	810.970	646.576
407.409	27.985	810.428	645.820
408.423	27.922	810.157	645.325
409.438	28.118	809.564	645.486
410.453	28.092	809.475	645.264
411.467	28.061	808.738	644.510
412.482	28.133	808.013	644.129
413.496	28.097	808.072	643.993
414.511	28.194	807.474	643.801
415.526	28.021	806.898	642.676
416.540	27.970	806.254	641.928
417.555	27.653	805.869	640.452
418.569	27.704	805.442	640.236
419.584	27.744	804.864	639.857
420.599	27.619	804.330	638.940
421.613	110.212	1286.863	1458.438
422.628	95.126	1357.158	1458.546
