DTS Sentinel unit serial number:	SN413079Multiplexer serial number:	ORYXHardware model number:	OX4-SRSoftware version number:	ORYX F/W v4.00 Oryx Data Collector v3.7.2.0data status	okinstallation	princeton_trtdifferential loss correction	single-endedforward channel	channel 1reverse channel	N/Adate	2019/09/14time	11:18:35forward acquisition time	60.00reverse acquisition time	0.00gamma	496.2192k internal	0.2297k external	0.2297temperature offset calibration	1.0087default loss term (dB/km)	0.3790temperature slope calibration	1.0000multiplexer offset coefficient	1.0000multiplexer slope coefficient	1.0000fibre end	0.00T internal ref (°C)	36.62T ext. ref 1 (°C)	4.50T ext. ref 2 (°C)	33.05length (m)	temperature (°C)	Stokes	anti-Stokes-747.200	19.108	0.160	-0.131
-746.185	-200.000	-0.037	0.609
-745.171	-200.000	-0.096	0.586
-744.156	800.000	0.104	0.416
-743.142	-73.788	0.456	-0.169
-742.127	232.628	-0.088	0.148
-741.112	-157.358	-0.234	-0.014
-740.098	-161.631	0.239	0.012
-739.083	800.000	-0.045	0.191
-738.069	-140.712	-0.087	0.009
-737.054	-49.118	0.083	0.041
-736.039	88.101	-0.159	-0.180
-735.025	-124.355	-0.134	-0.021
-734.010	-187.321	-0.073	-0.001
-732.996	105.373	-0.089	-0.107
-731.981	-123.469	0.165	0.027
-730.966	399.993	0.062	0.132
-729.952	-43.423	-0.207	0.107
-728.937	-106.966	0.142	0.032
-727.923	-152.260	0.412	-0.030
-726.908	-100.258	-0.251	-0.064
-725.894	-72.549	0.230	0.087
-724.879	133.818	-0.179	-0.237
-723.864	-200.000	0.025	0.159
-722.850	-150.654	-0.154	0.012
-721.835	363.708	0.218	-0.447
-720.821	-200.000	0.016	-0.318
-719.806	-49.604	-0.098	0.048
-718.791	80.062	0.080	0.087
-717.777	-200.000	0.024	-0.268
-716.762	0.867	-0.173	0.126
-715.748	-200.000	-0.019	0.150
-714.733	-21.620	-0.238	0.148
-713.718	-99.684	-0.143	0.037
-712.704	-102.785	-0.227	0.055
-711.689	-112.202	-0.378	-0.077
-710.675	280.923	0.192	-0.350
-709.660	-109.872	0.250	-0.054
-708.645	-200.000	0.042	-0.275
-707.631	188.220	-0.083	0.126
-706.616	246.024	-0.141	0.243
-705.602	-200.000	-0.001	-0.010
-704.587	-112.690	-0.072	0.015
-703.572	8.562	-0.194	-0.149
-702.558	-200.000	0.036	-0.260
-701.543	-80.111	-0.105	-0.036
-700.529	-125.343	0.136	0.021
-699.514	-162.577	0.190	0.010
-698.499	-93.935	0.211	-0.059
-697.485	-33.148	0.344	-0.194
-696.470	-200.000	-0.001	-0.291
-695.456	-129.568	0.141	0.020
-694.441	-34.031	0.148	-0.083
-693.426	128.600	0.090	-0.117
-692.412	270.639	0.054	0.097
-691.397	105.180	-0.239	0.287
-690.383	-106.922	-0.328	-0.074
-689.368	-200.000	0.025	0.130
-688.354	36.049	-0.094	0.085
-687.339	-200.000	0.056	-0.398
-686.324	-96.782	0.205	0.055
-685.310	-103.293	0.332	0.080
-684.295	-12.108	-0.294	-0.196
-683.281	-144.204	-0.200	0.019
-682.266	-129.094	-0.249	0.035
-681.251	-200.000	0.046	0.415
-680.237	98.852	0.242	0.285
-679.222	-162.933	-0.251	-0.012
-678.208	-15.771	-0.217	0.141
-677.193	-78.508	-0.183	-0.064
-676.178	-67.252	-0.175	-0.070
-675.164	-155.950	0.272	-0.018
-674.149	-147.863	0.183	0.016
-673.135	800.000	-0.083	-0.250
-672.120	-184.404	0.212	0.004
-671.105	-81.697	0.080	0.027
-670.091	111.753	0.247	0.304
-669.076	33.842	-0.339	0.300
-668.062	-45.188	-0.130	0.066
-667.047	800.000	0.037	-0.132
-666.032	800.000	0.073	-0.311
-665.018	6.597	0.226	-0.171
-664.003	800.000	-0.134	-0.386
-662.989	-98.124	0.393	-0.103
-661.974	800.000	0.097	-0.298
-660.959	-200.000	-0.022	-0.106
-659.945	-70.078	-0.216	0.084
-658.930	-69.846	0.117	0.045
-657.916	-8.636	-0.249	-0.170
-656.901	29.961	0.090	0.078
-655.886	295.337	-0.045	0.084
-654.872	800.000	0.059	0.206
-653.857	800.000	-0.077	0.335
-652.843	-7.611	0.101	-0.069
-651.828	264.315	-0.047	-0.083
-650.814	-80.505	-0.360	-0.122
-649.799	-11.681	0.259	-0.173
-648.784	405.403	-0.220	0.471
-647.770	-151.228	0.278	0.021
-646.755	800.000	-0.079	-0.262
-645.741	-200.000	0.031	-0.307
-644.726	-185.613	-0.191	-0.003
-643.711	158.470	-0.111	-0.157
-642.697	-64.225	0.298	0.123
-641.682	52.482	-0.138	-0.134
-640.668	404.457	-0.108	0.232
-639.653	80.410	-0.111	-0.121
-638.638	11.942	0.123	-0.096
-637.624	-74.263	-0.153	0.056
-636.609	354.083	0.149	-0.300
-635.595	-22.271	0.336	-0.207
-634.580	116.109	0.164	0.205
-633.565	35.896	0.116	-0.104
-632.551	800.000	-0.129	-0.368
-631.536	525.237	0.168	-0.401
-630.522	-200.000	0.037	-0.333
-629.507	48.567	-0.188	-0.179
-628.492	-200.000	-0.008	-0.139
-627.478	154.238	-0.083	0.115
-626.463	9.733	-0.086	0.066
-625.449	-200.000	-0.013	0.107
-624.434	-55.991	0.128	-0.058
-623.419	-109.572	-0.585	-0.125
-622.405	800.000	-0.121	-0.394
-621.390	-101.622	-0.445	0.110
-620.376	-200.000	-0.028	-0.212
-619.361	64.808	-0.096	0.099
-618.346	90.817	-0.229	0.261
-617.332	78.680	0.148	-0.161
-616.317	-200.000	0.000	-0.133
-615.303	800.000	0.173	0.600
-614.288	56.780	-0.129	0.128
-613.273	-86.612	0.052	-0.016
-612.259	-200.000	0.042	0.244
-611.244	-28.129	-0.110	-0.064
-610.230	492.276	0.161	-0.374
-609.215	-26.740	-0.174	-0.103
-608.201	49.575	-0.239	0.229
-607.186	-135.929	-0.131	0.016
-606.171	800.000	0.087	0.369
-605.157	-55.055	-0.127	-0.058
-604.142	800.000	-0.034	0.111
-603.128	800.000	0.099	0.314
-602.113	374.352	0.091	0.187
-601.098	-200.000	0.005	0.104
-600.084	-85.632	-0.214	-0.068
-599.069	-73.949	0.219	0.081
-598.055	158.910	-0.069	-0.097
-597.040	273.055	-0.143	-0.257
-596.025	30.648	0.070	-0.060
-595.011	514.675	-0.072	0.172
-593.996	800.000	-0.057	0.235
-592.982	349.539	-0.086	-0.173
-591.967	800.000	-0.046	-0.170
-590.952	-116.061	-0.145	0.027
-589.938	60.160	-0.112	0.112
-588.923	-200.000	-0.054	-0.357
-587.909	189.048	-0.152	0.231
-586.894	-132.991	-0.515	0.066
-585.879	-200.000	-0.041	-0.429
-584.865	-108.087	-0.279	-0.061
-583.850	230.463	0.070	0.116
-582.836	50.284	-0.088	0.084
-581.821	-121.271	-0.143	-0.024
-580.806	-108.363	0.048	-0.010
-579.792	-88.328	-0.176	0.053
-578.777	-200.000	-0.078	0.000
-577.763	-142.983	-0.079	0.008
-576.748	-200.000	-0.001	-0.144
-575.733	-105.556	-0.339	0.078
-574.719	-103.872	-0.100	0.024
-573.704	800.000	-0.068	-0.232
-572.690	-100.773	-0.009	0.002
-571.675	726.427	-0.093	0.251
-570.661	-140.761	0.092	-0.010
-569.646	682.597	-0.102	0.270
-568.631	-74.270	0.305	-0.112
-567.617	-15.098	0.165	0.107
-566.602	800.000	0.155	-0.509
-565.588	-176.013	-0.209	-0.006
-564.573	-200.000	0.018	0.144
-563.558	788.817	-0.074	-0.205
-562.544	18.605	-0.095	0.077
-561.529	-200.000	-0.008	0.062
-560.515	-16.511	0.060	0.038
-559.500	118.530	-0.141	0.177
-558.485	66.265	0.143	-0.147
-557.471	-129.148	0.266	-0.038
-556.456	410.668	0.024	0.052
-555.442	-128.867	-0.382	0.054
-554.427	54.234	0.073	0.071
-553.412	62.085	0.177	0.179
-552.398	-200.000	0.072	-0.404
-551.383	-200.000	0.031	-0.372
-550.369	-111.682	-0.167	-0.034
-549.354	-105.336	-0.254	-0.059
-548.339	-118.648	0.222	-0.040
-547.325	-200.000	0.018	0.169
-546.310	-200.000	0.053	-0.251
-545.296	-200.000	0.059	0.392
-544.281	71.860	-0.068	0.072
-543.266	-101.858	-0.174	-0.043
-542.252	-154.868	-0.358	-0.024
-541.237	217.699	-0.109	0.176
-540.223	-75.018	-0.194	0.070
-539.208	-200.000	0.064	0.287
-538.193	-57.893	0.224	-0.099
-537.179	-72.651	-0.289	-0.108
-536.164	800.000	0.008	-0.035
-535.150	124.728	0.117	-0.149
-534.135	-200.000	0.027	-0.135
-533.121	800.000	0.006	-0.018
-532.106	800.000	0.035	0.131
-531.091	-111.500	-0.130	0.027
-530.077	-1.523	-0.187	0.133
-529.062	-200.000	-0.014	0.140
-528.048	-44.603	0.296	0.150
-527.033	800.000	0.018	0.060
-526.018	-200.000	0.038	0.210
-525.004	-143.912	0.271	0.026
-523.989	-146.623	0.084	0.007
-522.975	68.455	0.041	-0.042
-521.960	492.770	0.130	-0.303
-520.945	-65.268	-0.074	0.030
-519.931	800.000	0.041	-0.152
-518.916	-47.653	-0.378	0.185
-517.902	-200.000	0.030	-0.366
-516.887	-200.000	0.025	0.145
-515.872	-139.248	-0.377	-0.041
-514.858	-52.589	-0.246	-0.115
-513.843	236.245	0.118	0.198
-512.829	-200.000	0.035	-0.635
-511.814	-200.000	0.069	0.311
-510.799	-37.128	0.014	-0.008
-509.785	147.450	-0.366	0.499
-508.770	10.117	-0.463	0.356
-507.756	800.000	-0.046	0.196
-506.741	-121.071	0.327	0.056
-505.726	149.005	0.097	-0.133
-504.712	504.388	-0.084	0.196
-503.697	-11.929	0.156	-0.104
-502.683	-14.722	0.249	-0.162
-501.668	-200.000	-0.009	-0.242
-500.653	-200.000	-0.021	0.315
-499.639	-1.672	-0.419	-0.299
-498.624	-100.092	0.167	-0.042
-497.610	783.784	0.067	-0.187
-496.595	-82.000	-0.049	0.016
-495.581	387.289	-0.162	0.338
-494.566	-60.929	0.250	0.107
-493.551	800.000	0.026	-0.095
-492.537	12.914	0.155	-0.121
-491.522	-94.948	0.171	-0.047
-490.508	51.110	-0.171	0.164
-489.493	800.000	0.046	-0.145
-488.478	-25.863	-0.038	-0.023
-487.464	-200.000	0.029	-0.183
-486.449	-200.000	-0.010	0.187
-485.435	31.506	-0.167	0.145
-484.420	9.430	0.204	-0.156
-483.405	-145.674	0.428	0.039
-482.391	-200.000	-0.027	-0.315
-481.376	800.000	-0.069	-0.269
-480.362	-200.000	0.033	-0.168
-479.347	-200.000	0.002	0.399
-478.332	37.378	0.151	0.135
-477.318	-85.473	0.121	0.038
-476.303	68.757	0.141	-0.146
-475.289	95.449	-0.045	0.052
-474.274	-200.000	0.010	0.207
-473.259	-181.064	0.339	-0.007
-472.245	304.994	0.055	-0.104
-471.230	-7.402	-0.198	0.135
-470.216	800.000	-0.068	-0.298
-469.201	-200.000	0.048	-0.000
-468.186	58.019	-0.225	0.222
-467.172	337.284	-0.057	-0.113
-466.157	-200.000	-0.001	0.003
-465.143	99.820	0.189	0.222
-464.128	800.000	0.047	-0.175
-463.113	-200.000	-0.010	-0.155
-462.099	-131.158	0.264	-0.035
-461.084	364.416	-0.090	0.183
-460.070	-23.217	0.270	-0.164
-459.055	800.000	0.106	-0.395
-458.040	279.109	0.178	0.321
-457.026	213.028	-0.229	-0.365
-456.011	-52.136	0.175	0.082
-454.997	83.525	0.012	-0.014
-453.982	800.000	0.048	0.145
-452.968	-143.390	0.134	-0.013
-451.953	146.599	-0.102	-0.138
-450.938	-200.000	-0.005	0.145
-449.924	-107.867	0.052	0.011
-448.909	-42.655	-0.240	0.123
-447.895	-200.000	-0.008	-0.058
-446.880	72.915	-0.027	-0.029
-445.865	124.405	-0.192	0.244
-444.851	296.440	-0.138	0.255
-443.836	-200.000	-0.041	0.205
-442.822	721.138	-0.063	0.169
-441.807	610.061	0.153	-0.385
-440.792	-200.000	0.006	-0.119
-439.778	38.297	0.137	-0.123
-438.763	-61.181	-0.082	0.035
-437.749	20.115	0.103	-0.084
-436.734	-72.295	-0.336	-0.126
-435.719	33.175	-0.214	0.187
-434.705	800.000	-0.043	-0.121
-433.690	-66.858	-0.101	0.040
-432.676	800.000	-0.114	0.481
-431.661	-105.538	-0.288	0.066
-430.646	-169.376	-0.139	0.005
-429.632	-200.000	0.021	0.324
-428.617	-200.000	-0.013	-0.163
-427.603	43.070	-0.105	-0.097
-426.588	-43.667	0.165	0.084
-425.573	-21.360	-0.074	0.046
-424.559	573.919	0.109	0.269
-423.544	167.074	-0.116	0.166
-422.530	190.457	0.070	-0.105
-421.515	136.161	-0.136	-0.178
-420.500	35.545	-0.171	-0.151
-419.486	-200.000	-0.005	-0.126
-418.471	-102.978	0.067	0.016
-417.457	800.000	0.088	-0.260
-416.442	-200.000	-0.026	-0.358
-415.428	201.539	0.157	0.244
-414.413	-200.000	-0.017	-0.369
-413.398	-152.221	0.087	-0.006
-412.384	-132.390	-0.193	-0.025
-411.369	-35.168	-0.203	-0.112
-410.355	679.717	0.060	-0.158
-409.340	800.000	0.098	0.286
-408.325	48.595	-0.167	0.158
-407.311	-70.288	-0.223	-0.085
-406.296	192.931	-0.016	-0.024
-405.282	-200.000	-0.003	-0.177
-404.267	474.659	0.061	0.138
-403.252	133.620	0.079	-0.103
-402.238	111.391	-0.118	-0.143
-401.223	48.191	0.056	-0.053
-400.209	-76.141	0.224	-0.080
-399.194	290.278	0.150	-0.274
-398.179	-107.388	0.293	0.065
-397.165	269.238	0.140	-0.247
-396.150	-139.556	-0.127	-0.014
-395.136	-73.293	-0.309	-0.114
-394.121	-200.000	0.024	-0.277
-393.106	-96.103	-0.432	0.116
-392.092	242.494	0.231	0.390
-391.077	-124.564	0.287	-0.045
-390.063	-121.939	-0.343	0.057
-389.048	72.464	0.194	-0.204
-388.033	107.243	-0.178	-0.213
-387.019	-48.366	-0.302	0.146
-386.004	639.037	-0.091	0.233
-384.990	-10.732	-0.152	0.101
-383.975	-103.047	0.212	-0.050
-382.960	87.582	0.179	0.200
-381.946	562.297	-0.024	0.058
-380.931	16.861	0.333	0.265
-379.917	50.662	0.016	0.015
-378.902	80.849	-0.184	0.200
-377.888	80.646	-0.087	0.094
-376.873	800.000	-0.054	-0.201
-375.858	-81.543	0.173	0.057
-374.844	-200.000	0.045	-0.584
-373.829	-200.000	0.128	0.000
-372.815	-151.226	-0.173	-0.013
-371.800	800.000	-0.100	0.281
-370.785	-200.000	-0.021	-0.244
-369.771	-200.000	0.096	0.000
-368.756	-195.242	0.338	0.003
-367.742	-200.000	-0.012	0.142
-366.727	348.025	0.160	-0.318
-365.712	160.856	-0.134	-0.188
-364.698	6.522	0.147	-0.110
-363.683	66.203	-0.122	0.124
-362.669	111.898	0.312	-0.379
-361.654	123.527	-0.101	-0.127
-360.639	800.000	-0.031	0.101
-359.625	-88.300	-0.147	-0.044
-358.610	-200.000	-0.044	0.393
-357.596	165.509	-0.129	-0.184
-356.581	-0.089	0.188	-0.135
-355.566	-128.631	-0.120	0.017
-354.552	67.104	-0.096	-0.099
-353.537	-7.741	-0.198	0.135
-352.523	86.166	0.175	0.194
-351.508	48.682	0.233	0.220
-350.493	357.444	0.074	-0.148
-349.479	-200.000	-0.003	-0.113
-348.464	49.044	-0.195	0.185
-347.450	-200.000	0.017	0.000
-346.435	542.065	-0.042	-0.100
-345.420	500.818	-0.023	0.053
-344.406	-200.000	0.043	-0.340
-343.391	-111.854	0.172	-0.035
-342.377	302.359	-0.079	-0.146
-341.362	-140.392	0.239	0.025
-340.348	-177.961	-0.209	-0.005
-339.333	223.554	-0.267	0.433
-338.318	-200.000	0.010	0.210
-337.304	-120.977	0.138	-0.023
-336.289	16.393	-0.063	0.050
-335.275	-131.745	-0.227	-0.030
-334.260	800.000	0.051	-0.178
-333.245	-41.794	-0.403	0.208
-332.231	-66.232	0.200	-0.080
-331.216	-200.000	0.005	0.066
-330.202	-1.547	-0.029	0.021
-329.187	-172.489	0.104	-0.003
-328.172	-155.275	0.197	-0.013
-327.158	14.542	0.286	-0.224
-326.143	99.243	-0.173	-0.201
-325.129	445.564	0.142	0.314
-324.114	-200.000	0.008	-0.038
-323.099	-190.405	0.092	0.001
-322.085	800.000	-0.091	0.256
-321.070	800.000	0.087	0.325
-320.056	23.191	0.160	0.132
-319.041	281.187	-0.079	-0.141
-318.026	792.433	0.083	-0.230
-317.012	-114.185	0.137	-0.027
-315.997	-200.000	-0.018	0.117
-314.983	-5.005	-0.182	-0.126
-313.968	-36.692	0.283	0.153
-312.953	43.969	-0.019	-0.017
-311.939	-123.730	0.098	-0.016
-310.924	-82.764	0.242	0.078
-309.910	365.260	-0.146	-0.296
-308.895	0.732	0.062	-0.045
-307.880	-200.000	0.041	-0.443
-306.866	-200.000	-0.010	0.064
-305.851	47.854	0.214	0.200
-304.837	-63.989	-0.101	-0.042
-303.822	172.111	0.074	-0.106
-302.807	-45.144	0.364	0.181
-301.793	800.000	0.060	0.248
-300.778	-40.330	-0.086	0.045
-299.764	53.023	-0.104	-0.100
-298.749	800.000	0.022	0.068
-297.735	709.648	-0.060	0.160
-296.720	-39.450	0.373	-0.196
-295.705	-44.284	0.515	-0.259
-294.691	18.949	-0.314	-0.252
-293.676	12.386	-0.036	-0.028
-292.662	148.483	0.023	0.032
-291.647	663.442	0.068	0.175
-290.632	-123.394	-0.215	0.034
-289.618	-200.000	-0.008	0.211
-288.603	175.324	0.070	0.102
-287.589	800.000	0.097	0.279
-286.574	12.791	0.313	-0.242
-285.559	184.674	0.194	0.289
-284.545	11.674	-0.173	0.133
-283.530	-135.283	-0.405	0.049
-282.516	-70.949	-0.204	-0.077
-281.501	-200.000	-0.019	-0.214
-280.486	-200.000	-0.062	0.368
-279.472	800.000	-0.176	-0.491
-278.457	-200.000	-0.021	0.348
-277.443	-200.000	0.040	0.229
-276.428	3.570	-0.074	0.054
-275.413	-110.590	-0.140	0.029
-274.399	-41.618	0.086	-0.044
-273.384	616.535	-0.064	-0.162
-272.370	-153.064	0.233	0.016
-271.355	-74.215	-0.174	0.063
-270.340	-66.323	-0.081	-0.032
-269.326	-200.000	0.295	-0.001
-268.311	-75.974	0.102	-0.036
-267.297	62.633	-0.176	-0.176
-266.282	-45.065	-0.149	-0.074
-265.267	-200.000	-0.013	0.336
-264.253	404.046	0.034	0.072
-263.238	27.672	0.182	0.154
-262.224	92.593	-0.190	0.215
-261.209	-200.000	0.053	0.236
-260.195	-69.628	-0.172	0.066
-259.180	-129.165	0.128	-0.018
-258.165	29.162	-0.212	-0.180
-257.151	-159.536	-0.315	0.018
-256.136	199.996	0.131	0.202
-255.122	800.000	0.098	0.406
-254.107	-200.000	0.008	-0.203
-253.092	-90.356	0.280	-0.081
-252.078	-92.044	0.313	0.089
-251.063	143.572	0.096	-0.128
-250.049	165.692	0.156	-0.222
-249.034	-181.769	0.171	0.003
-248.019	-56.028	0.209	0.093
-247.005	-200.000	-0.015	0.100
-245.990	-73.095	0.094	0.035
-244.976	-111.282	0.134	0.027
-243.961	-180.515	0.436	0.009
-242.946	-200.000	0.011	0.395
-241.932	-74.710	0.208	0.075
-240.917	800.000	-0.112	-0.320
-239.903	800.000	-0.099	0.296
-238.888	-76.545	0.192	-0.068
-237.873	111.902	0.063	-0.077
-236.859	-200.000	0.013	-0.248
-235.844	-146.714	0.149	-0.013
-234.830	203.974	0.266	0.412
-233.815	-200.000	-0.004	0.300
-232.800	-200.000	0.006	-0.116
-231.786	-200.000	0.033	-0.219
-230.771	-21.655	-0.080	-0.049
-229.757	232.271	-0.018	-0.029
-228.742	-51.432	-0.287	0.134
-227.727	-139.395	-0.096	0.010
-226.713	497.028	0.039	-0.090
-225.698	80.130	-0.101	-0.109
-224.684	-108.472	-0.164	-0.035
-223.669	389.209	-0.132	-0.274
-222.655	36.000	0.128	0.113
-221.640	60.163	-0.055	-0.054
-220.625	-56.157	-0.109	-0.048
-219.611	431.752	-0.067	0.146
-218.596	149.464	-0.134	-0.182
-217.582	-25.334	0.189	0.112
-216.567	142.473	-0.062	0.083
-215.552	703.770	0.041	-0.109
-214.538	-200.000	0.021	0.228
-213.523	-200.000	-0.034	0.415
-212.509	-200.000	-0.017	0.136
-211.494	34.293	0.342	0.298
-210.479	245.073	-0.181	-0.304
-209.465	369.254	0.132	0.268
-208.450	-127.000	-0.067	-0.010
-207.436	623.608	0.075	0.190
-206.421	98.058	0.052	-0.060
-205.406	-200.000	0.005	-0.147
-204.392	-23.067	0.152	0.091
-203.377	414.968	-0.182	0.388
-202.363	-122.503	-0.443	-0.072
-201.348	-173.290	-0.131	0.004
-200.333	-101.778	0.326	0.079
-199.319	432.317	0.170	0.369
-198.304	20.986	0.021	0.017
-197.290	-34.122	0.419	-0.230
-196.275	114.973	0.124	0.152
-195.260	546.983	0.100	0.239
-194.246	270.978	-0.126	-0.221
-193.231	-200.000	-0.048	-0.354
-192.217	800.000	0.075	0.210
-191.202	-200.000	0.041	-0.329
-190.187	800.000	0.010	0.031
-189.173	7.808	0.120	-0.090
-188.158	488.902	-0.128	-0.292
-187.144	29.021	-0.136	-0.115
-186.129	-200.000	0.037	-0.175
-185.114	-37.196	0.053	-0.028
-184.100	397.806	0.154	-0.322
-183.085	53.755	0.184	-0.177
-182.071	-162.175	0.223	0.011
-181.056	800.000	-0.059	0.209
-180.042	-141.776	-0.144	0.014
-179.027	-200.000	-0.002	-0.128
-178.012	-67.753	-0.126	-0.049
-176.998	-15.365	-0.240	0.153
-175.983	79.997	-0.179	0.192
-174.969	800.000	0.059	0.212
-173.954	-96.778	0.479	-0.126
-172.939	-37.979	-0.149	-0.079
-171.925	76.074	0.304	0.321
-170.910	705.368	0.051	0.134
-169.896	124.956	-0.137	0.173
-168.881	-200.000	-0.010	-0.365
-167.866	111.417	-0.233	-0.281
-166.852	800.000	0.011	0.046
-165.837	293.868	0.088	-0.161
-164.823	-200.000	0.015	-0.064
-163.808	800.000	0.048	-0.151
-162.793	56.413	-0.112	0.109
-161.779	90.482	0.261	0.292
-160.764	765.652	-0.018	-0.050
-159.750	800.000	-0.068	-0.210
-158.735	49.732	-0.106	0.099
-157.720	682.872	0.017	0.044
-156.706	31.178	0.099	0.085
-155.691	-45.062	0.042	0.021
-154.677	-86.177	0.436	-0.134
-153.662	89.463	-0.183	0.203
-152.647	118.422	0.156	-0.192
-151.633	-25.533	0.109	0.064
-150.618	800.000	-0.066	0.205
-149.604	-7.761	-0.290	-0.195
-148.589	-200.000	0.072	-0.000
-147.574	-200.000	0.024	-0.209
-146.560	87.405	0.054	-0.059
-145.545	-200.000	0.019	-0.324
-144.531	61.047	0.060	0.059
-143.516	-52.958	0.089	0.041
-142.502	355.819	-0.047	0.094
-141.487	-163.902	0.178	-0.008
-140.472	-34.010	0.205	-0.113
-139.458	260.568	0.040	0.068
-138.443	800.000	0.087	0.304
-137.429	-102.479	0.109	-0.026
-136.414	126.974	0.168	-0.212
-135.399	115.883	-0.073	0.089
-134.385	63.633	-0.277	-0.277
-133.370	24.367	0.028	-0.023
-132.356	-200.000	0.026	-0.193
-131.341	-200.000	0.020	0.194
-130.326	-200.000	-0.011	-0.221
-129.312	-70.062	-0.241	-0.092
-128.297	584.965	-0.098	0.240
-127.283	12.323	0.270	-0.208
-126.268	62.396	-0.223	-0.222
-125.253	31.323	-0.244	0.209
-124.239	-178.511	-0.114	0.003
-123.224	-200.000	-0.000	-0.166
-122.210	-200.000	0.032	0.251
-121.195	268.239	0.194	0.338
-120.180	10.600	0.194	-0.147
-119.166	800.000	-0.032	0.090
-118.151	-109.809	-0.287	-0.060
-117.137	-200.000	-0.042	0.382
-116.122	-16.711	-0.090	-0.057
-115.107	-98.064	0.106	-0.027
-114.093	-152.152	-0.173	-0.012
-113.078	-85.840	0.159	-0.049
-112.064	-54.226	0.275	0.124
-111.049	111.090	0.212	0.255
-110.034	103.433	0.242	0.283
-109.020	800.000	0.097	-0.360
-108.005	46.989	0.326	0.302
-106.991	-62.202	-0.216	0.090
-105.976	-20.522	-0.283	0.173
-104.962	-101.722	-0.170	-0.041
-103.947	-200.000	0.051	-0.225
-102.932	141.393	0.040	0.052
-101.918	-60.572	0.183	0.078
-100.903	-68.575	0.238	0.092
-99.889	-154.684	-0.397	-0.026
-98.874	-93.050	0.396	-0.110
-97.859	800.000	0.020	-0.074
-96.845	-200.000	-0.010	-0.213
-95.830	-200.000	0.023	-0.167
-94.816	-200.000	0.012	-0.062
-93.801	19.583	0.159	-0.127
-92.786	-21.006	-0.217	0.133
-91.772	-116.442	0.413	-0.076
-90.757	-138.799	0.048	-0.005
-89.743	21.645	0.090	-0.073
-88.728	-200.000	-0.021	-0.356
-87.713	-58.610	0.029	0.013
-86.699	567.936	-0.153	-0.371
-85.684	800.000	0.082	-0.302
-84.670	-2.864	0.144	-0.100
-83.655	-36.883	-0.268	-0.143
-82.640	-200.000	0.007	0.057
-81.626	-19.402	-0.295	0.182
-80.611	-60.649	0.270	0.114
-79.597	-79.530	0.321	0.108
-78.582	-128.950	0.261	-0.036
-77.567	-24.350	0.106	-0.063
-76.553	245.112	0.086	0.144
-75.538	59.651	0.095	0.093
-74.524	60.396	0.089	0.087
-73.509	-76.429	0.104	0.036
-72.494	11.108	0.093	-0.071
-71.480	232.210	-0.019	-0.032
-70.465	346.194	0.069	0.136
-69.451	-71.525	-0.179	-0.066
-68.436	84.763	0.087	-0.095
-67.422	81.611	0.082	0.088
-66.407	-26.050	0.058	-0.034
-65.392	582.170	-0.060	0.147
-64.378	-7.038	-0.198	0.134
-63.363	122.436	-0.119	-0.147
-62.349	-95.962	0.212	0.056
-61.334	-24.252	-0.827	-0.491
-60.319	-80.575	0.426	0.141
-59.305	611.288	-0.280	-0.696
-58.290	392.416	0.492	1.018
-57.276	-200.000	0.249	1.617
-56.261	-200.000	88.741	490.349
-55.246	496.445	1412.013	3227.208
-54.232	178.988	2634.861	3829.278
-53.217	115.415	2241.729	2722.346
-52.203	47.365	1678.516	1554.228
-51.188	39.858	1406.366	1254.710
-50.173	36.555	1362.828	1195.437
-49.159	55.686	1406.397	1354.129
-48.144	59.975	1425.034	1398.930
-47.130	40.553	1382.103	1237.211
-46.115	36.724	1364.684	1197.921
-45.100	36.568	1359.551	1192.409
-44.086	36.503	1357.335	1190.016
-43.071	36.380	1354.956	1187.129
-42.057	36.371	1352.775	1185.117
-41.042	36.516	1350.622	1184.070
-40.027	36.444	1349.798	1182.856
-39.013	36.617	1347.190	1181.585
-37.998	36.521	1345.501	1179.470
-36.984	36.615	1343.383	1178.137
-35.969	36.676	1341.698	1176.984
-34.954	36.673	1339.667	1175.139
-33.940	36.684	1338.565	1174.194
-32.925	36.623	1336.942	1172.350
-31.911	36.712	1335.351	1171.447
-30.896	36.718	1334.069	1170.313
-29.881	36.746	1332.845	1169.362
-28.867	36.717	1330.931	1167.463
-27.852	36.654	1329.647	1165.912
-26.838	36.805	1327.710	1165.074
-25.823	36.603	1327.247	1163.406
-24.809	36.730	1325.310	1162.425
-23.794	36.769	1323.711	1161.213
-22.779	36.644	1322.077	1158.985
-21.765	36.745	1320.819	1158.436
-20.750	36.731	1319.558	1157.202
-19.736	36.583	1318.373	1155.233
-18.721	36.636	1316.990	1154.290
-17.706	36.585	1315.765	1152.870
-16.692	36.670	1314.260	1152.010
-15.677	36.513	1313.821	1150.643
-14.663	36.557	1312.553	1149.753
-13.648	36.595	1311.178	1148.725
-12.633	36.500	1310.308	1147.357
-11.619	36.633	1309.277	1147.197
-10.604	36.524	1308.497	1145.820
-9.590	36.561	1307.393	1145.028
-8.575	36.498	1306.359	1143.701
-7.560	36.566	1305.583	1143.381
-6.546	36.530	1304.811	1142.449
-5.531	36.561	1303.804	1141.704
-4.517	36.669	1302.614	1141.250
-3.502	36.521	1301.844	1139.660
-2.487	36.571	1300.797	1138.995
-1.473	36.579	1296.892	1135.577
-0.458	35.490	1281.426	1115.666
0.556	32.579	1261.387	1073.837
1.571	28.487	1264.787	1053.190
2.586	27.002	1279.151	1056.420
3.600	25.255	1267.213	1036.392
4.615	18.721	1191.059	938.427
5.629	9.094	1111.022	825.975
6.644	4.729	1089.281	787.684
7.659	4.381	1086.153	783.596
8.673	4.449	1085.252	783.222
9.688	4.432	1083.785	782.007
10.702	4.698	1082.470	782.325
11.717	10.060	1089.806	814.642
12.731	18.415	1102.134	866.201
13.746	21.017	1104.711	881.322
14.761	19.980	1102.419	874.183
15.775	19.030	1100.528	867.817
16.790	17.873	1098.306	860.160
17.804	17.178	1096.567	855.224
18.819	16.834	1095.659	852.706
19.834	16.589	1094.716	850.666
20.848	16.439	1093.974	849.263
21.863	16.172	1093.015	847.102
22.877	16.069	1092.300	845.955
23.892	16.032	1091.823	845.324
24.907	16.091	1090.660	844.647
25.921	16.053	1089.663	843.609
26.936	16.199	1088.116	843.064
27.950	16.161	1086.708	841.710
28.965	16.277	1085.315	841.137
29.980	16.286	1083.834	839.957
30.994	16.285	1082.802	839.081
32.009	16.410	1082.071	839.062
33.023	16.482	1079.992	837.728
34.038	16.324	1079.461	836.461
35.053	16.303	1078.455	835.505
36.067	16.166	1078.013	834.411
37.082	16.219	1077.366	834.096
38.096	16.224	1076.770	833.588
39.111	16.277	1075.575	832.850
40.126	16.160	1074.230	831.158
41.140	16.030	1072.672	829.241
42.155	15.990	1071.231	827.855
43.169	15.806	1070.781	826.528
44.184	15.859	1069.238	825.527
45.199	15.867	1068.249	824.731
46.213	15.951	1067.295	824.329
47.228	16.215	1065.973	824.525
48.242	16.127	1065.169	823.402
49.257	16.194	1064.059	822.796
50.271	16.315	1063.115	822.586
51.286	16.273	1062.570	821.886
52.301	16.171	1061.258	820.304
53.315	16.051	1060.294	818.903
54.330	16.078	1058.948	817.922
55.344	15.873	1058.562	816.557
56.359	16.042	1057.357	816.374
57.374	16.005	1056.464	815.434
58.388	15.960	1055.454	814.363
59.403	15.825	1054.601	812.980
60.417	15.822	1053.918	812.367
61.432	15.832	1053.080	811.696
62.447	15.790	1052.190	810.737
63.461	15.821	1051.654	810.402
64.476	15.870	1050.246	809.482
65.490	15.930	1049.249	808.930
66.505	15.932	1048.757	808.486
67.520	15.791	1048.614	807.629
68.534	15.827	1047.167	806.617
69.549	15.844	1046.445	806.068
70.563	15.693	1045.889	804.849
71.578	15.592	1044.995	803.604
72.593	15.738	1044.193	803.613
73.607	15.746	1042.893	802.584
74.622	15.698	1042.535	802.006
75.636	15.682	1042.029	801.468
76.651	15.666	1041.253	800.724
77.666	15.783	1040.305	800.481
78.680	15.778	1039.959	800.122
79.695	15.810	1039.396	799.769
80.709	15.942	1038.573	799.692
81.724	15.921	1038.132	799.185
82.739	15.946	1037.111	798.445
83.753	16.111	1036.611	798.769
84.768	16.248	1035.783	798.709
85.782	16.312	1035.262	798.541
86.797	16.320	1033.884	797.443
87.812	16.168	1033.132	796.080
88.826	16.104	1032.066	794.883
89.841	16.265	1030.825	794.618
90.855	16.381	1029.755	794.267
91.870	16.401	1029.152	793.824
92.884	16.385	1028.174	792.924
93.899	16.350	1027.768	792.377
94.914	16.480	1026.583	792.005
95.928	16.370	1025.820	790.829
96.943	16.356	1024.597	789.752
97.957	16.341	1023.810	789.003
98.972	16.249	1023.517	788.280
99.987	16.368	1021.995	787.594
101.001	16.235	1021.397	786.440
102.016	16.306	1020.310	785.867
103.030	16.232	1019.883	785.123
104.045	16.330	1018.753	784.639
105.060	16.179	1017.903	783.213
106.074	16.065	1016.354	781.425
107.089	15.956	1015.598	780.267
108.103	15.862	1014.798	779.152
109.118	15.937	1014.004	778.820
110.133	15.924	1012.916	777.854
111.147	15.990	1012.059	777.433
112.162	15.998	1011.281	776.802
113.176	16.079	1010.549	776.545
114.191	16.168	1009.925	776.404
115.206	16.150	1009.079	775.602
116.220	16.087	1007.926	774.359
117.235	15.969	1007.517	773.436
118.249	15.895	1006.369	772.146
119.264	15.951	1005.665	771.796
120.279	15.936	1004.787	770.984
121.293	15.897	1003.728	769.923
122.308	15.953	1002.666	769.300
123.322	15.892	1001.706	768.215
124.337	15.912	1000.846	767.579
125.352	15.878	999.718	766.489
126.366	15.861	998.629	765.512
127.381	15.887	997.888	764.992
128.395	15.852	996.923	764.029
129.410	15.940	995.901	763.574
130.424	16.087	995.007	763.490
131.439	16.021	994.565	762.783
132.454	16.092	993.840	762.479
133.468	16.180	993.145	762.276
134.483	16.050	992.218	760.912
135.497	16.149	991.167	760.483
136.512	16.122	990.521	759.797
137.527	16.233	989.535	759.476
138.541	16.185	988.837	758.658
139.556	16.223	988.181	758.259
140.570	16.357	987.704	758.426
141.585	16.359	986.606	757.523
142.600	16.514	985.418	757.241
143.614	16.495	984.865	756.664
144.629	16.486	984.137	755.998
145.643	16.439	983.345	755.109
146.658	16.338	982.066	753.610
147.673	16.355	980.776	752.631
148.687	16.245	979.887	751.394
149.702	16.200	978.833	750.318
150.716	16.102	978.381	749.467
151.731	16.071	978.179	749.111
152.746	16.141	976.939	748.404
153.760	16.291	976.387	748.582
154.775	16.239	976.324	748.235
155.789	16.225	975.383	747.388
156.804	16.466	974.262	747.525
157.819	16.456	973.564	746.883
158.833	16.387	973.721	746.630
159.848	16.572	972.464	746.417
160.862	16.587	971.280	745.510
161.877	16.194	970.347	742.994
162.892	16.239	969.370	742.381
163.906	16.248	967.877	741.209
164.921	16.167	967.465	740.475
165.935	16.306	966.395	740.198
166.950	16.305	965.596	739.516
167.964	16.332	964.519	738.745
168.979	16.275	963.776	737.863
169.994	16.321	962.928	737.349
171.008	16.456	962.200	737.312
172.023	16.472	961.398	736.705
173.037	16.548	960.807	736.518
174.052	16.520	959.887	735.624
175.067	16.198	959.810	734.099
176.081	16.290	958.518	733.448
177.096	16.178	958.190	732.644
178.110	16.379	957.300	732.773
179.125	16.382	956.926	732.434
180.140	16.349	956.542	731.930
181.154	16.406	956.094	731.768
182.169	16.513	955.541	731.744
183.183	16.777	954.702	732.181
184.198	16.643	954.138	731.105
185.213	16.641	953.459	730.509
186.227	16.637	952.441	729.647
187.242	16.783	951.873	729.778
188.256	16.753	951.707	729.457
189.271	16.681	950.695	728.307
190.286	16.417	949.885	726.484
191.300	16.230	949.005	724.946
192.315	16.018	948.502	723.585
193.329	16.375	947.397	724.211
194.344	16.376	947.150	723.961
195.359	16.463	946.643	723.885
196.373	16.533	945.778	723.455
197.388	16.666	945.293	723.591
198.402	16.858	944.753	723.934
199.417	16.889	944.164	723.548
200.432	17.034	943.706	723.753
201.446	17.014	943.191	723.208
202.461	17.135	942.530	723.155
203.475	16.960	941.930	721.886
204.490	16.818	941.351	720.773
205.504	16.835	940.364	720.027
206.519	16.924	939.102	719.372
207.534	16.718	939.236	718.538
208.548	16.761	938.364	717.991
209.563	16.835	937.837	717.837
210.577	16.904	937.033	717.450
211.592	16.966	936.426	717.184
212.607	16.971	935.694	716.583
213.621	16.993	934.821	715.942
214.636	16.927	934.055	715.012
215.650	17.119	933.127	715.047
216.665	17.155	932.491	714.651
217.680	17.027	932.370	713.953
218.694	17.108	931.513	713.577
219.709	17.242	930.898	713.602
220.723	17.185	929.994	712.611
221.738	17.201	929.046	711.888
222.753	17.153	928.891	711.505
223.767	17.251	927.956	711.135
224.782	17.354	927.422	711.094
225.796	17.225	927.009	710.177
226.811	17.356	925.898	709.808
227.826	17.139	925.419	708.471
228.840	17.115	924.556	707.650
229.855	17.188	923.823	707.329
230.869	17.160	922.979	706.504
231.884	17.004	922.574	705.482
232.899	17.090	921.753	705.151
233.913	16.981	921.086	704.123
234.928	17.059	920.321	703.803
235.942	16.990	920.007	703.215
236.957	16.958	919.411	702.564
237.972	17.038	918.873	702.421
238.986	17.084	918.054	701.924
240.001	17.052	917.593	701.377
241.015	17.184	916.368	700.923
242.030	17.090	916.360	700.467
243.045	17.180	915.695	700.267
244.059	17.230	914.821	699.744
245.074	17.301	914.072	699.399
246.088	17.293	913.621	698.959
247.103	17.419	912.869	698.839
248.117	17.511	912.697	699.024
249.132	17.594	912.405	699.080
250.147	17.719	911.351	698.721
251.161	17.670	911.358	698.465
252.176	17.757	910.683	698.241
253.190	17.924	909.879	698.245
254.205	17.793	909.297	697.203
255.220	17.915	908.232	696.822
256.234	17.748	908.173	696.034
257.249	17.890	906.967	695.626
258.263	17.749	906.183	694.389
259.278	17.835	905.515	694.168
260.293	17.859	905.078	693.869
261.307	17.935	904.184	693.431
262.322	18.006	903.622	693.225
263.336	18.067	903.135	693.037
264.351	18.046	902.478	692.389
265.366	18.100	901.650	691.911
266.380	18.103	900.954	691.325
267.395	17.988	900.077	690.126
268.409	17.897	899.267	689.079
269.424	18.028	898.545	688.994
270.439	17.918	897.776	687.899
271.453	17.802	897.377	687.064
272.468	17.788	896.780	686.490
273.482	17.925	896.090	686.452
274.497	17.869	895.646	685.826
275.512	17.808	895.199	685.177
276.526	17.992	894.353	685.210
277.541	17.987	893.934	684.805
278.555	18.121	893.638	685.056
279.570	18.226	892.824	684.791
280.585	18.129	892.161	683.836
281.599	18.084	890.845	682.588
282.614	17.932	890.339	681.532
283.628	18.081	889.892	681.724
284.643	18.125	889.139	681.263
285.657	18.095	888.584	680.658
286.672	18.085	887.978	680.092
287.687	18.077	887.492	679.627
288.701	18.060	887.297	679.349
289.716	18.121	886.408	678.852
290.730	18.153	885.661	678.346
291.745	18.210	884.851	677.895
292.760	18.308	884.361	677.844
293.774	18.401	883.602	677.570
294.789	18.263	883.074	676.562
295.803	18.326	882.094	675.999
296.818	18.149	881.649	674.899
297.833	18.119	881.174	674.358
298.847	18.231	880.328	674.094
299.862	18.329	879.862	674.061
300.876	18.358	879.464	673.813
301.891	18.426	878.767	673.485
302.906	18.405	878.506	673.143
303.920	18.639	877.853	673.501
304.935	18.611	877.336	672.936
305.949	18.577	876.692	672.251
306.964	18.473	875.963	671.224
307.979	18.367	875.733	670.571
308.993	18.726	874.581	671.034
310.008	18.561	873.763	669.702
311.022	18.619	873.467	669.643
312.037	18.446	872.732	668.344
313.052	18.400	872.508	667.938
314.066	18.206	872.037	666.759
315.081	18.279	871.371	666.475
316.095	18.357	870.362	665.947
317.110	18.308	870.171	665.553
318.125	18.314	869.450	664.965
319.139	18.417	868.637	664.685
320.154	18.390	868.649	664.530
321.168	18.485	867.990	664.335
322.183	18.638	867.152	664.229
323.197	18.541	866.670	663.424
324.212	18.540	866.094	662.922
325.227	18.502	865.820	662.507
326.241	18.502	865.040	661.851
327.256	18.436	864.754	661.320
328.270	18.592	863.706	661.061
329.285	18.443	863.054	659.929
330.300	18.475	862.529	659.591
331.314	18.499	862.246	659.408
332.329	18.552	862.005	659.369
333.343	18.646	861.313	659.146
334.358	18.669	860.810	658.790
335.373	18.802	860.497	659.000
336.387	18.761	860.404	658.714
337.402	18.834	859.815	658.487
338.416	18.997	859.630	658.911
339.431	18.979	859.240	658.485
340.446	18.953	859.084	658.205
341.460	18.860	858.660	657.468
342.475	18.950	858.274	657.456
343.489	19.136	857.705	657.674
344.504	19.119	857.180	657.151
345.519	19.156	856.793	656.935
346.533	19.261	855.840	656.547
347.548	19.006	855.327	655.125
348.562	18.936	854.751	654.360
349.577	18.878	854.377	653.795
350.592	18.963	853.469	653.364
351.606	18.852	852.676	652.277
352.621	18.858	851.947	651.687
353.635	19.112	851.156	651.986
354.650	18.990	850.688	651.108
355.665	19.003	850.527	650.974
356.679	19.076	849.878	650.697
357.694	19.119	848.851	650.015
358.708	19.130	848.285	649.564
359.723	19.233	847.478	649.279
360.738	19.078	847.608	648.735
361.752	19.209	846.749	648.513
362.767	19.224	846.232	648.116
363.781	19.371	845.246	647.858
364.796	19.488	845.192	648.199
365.810	19.425	845.005	647.761
366.825	19.484	844.715	647.702
367.840	19.478	844.290	647.297
368.854	19.434	843.157	646.204
369.869	19.379	843.019	645.839
370.883	19.317	842.698	645.303
371.898	19.530	842.052	645.548
372.913	19.612	841.537	645.401
373.927	19.392	841.422	644.435
374.942	19.353	841.049	643.944
375.956	19.545	840.505	644.188
376.971	19.606	839.973	643.952
377.986	19.568	839.762	643.590
379.000	19.714	839.146	643.607
380.015	19.633	838.375	642.657
381.029	19.696	837.665	642.290
382.044	19.710	837.021	641.792
383.059	19.736	836.240	641.231
384.073	19.589	835.817	640.304
385.088	19.613	835.166	639.839
386.102	19.603	834.390	639.152
387.117	19.472	834.225	638.484
388.132	19.520	833.805	638.281
389.146	19.542	832.997	637.690
390.161	19.638	832.710	637.768
391.175	19.703	832.133	637.510
392.190	19.603	831.595	636.672
393.205	19.616	831.056	636.250
394.219	19.661	830.472	635.914
395.234	19.475	830.168	634.941
396.248	19.579	829.714	634.917
397.263	19.366	829.615	634.004
398.278	19.425	828.729	633.488
399.292	19.541	828.320	633.543
400.307	19.582	828.009	633.401
401.321	19.443	827.595	632.518
402.336	19.638	827.261	632.921
403.350	19.690	826.747	632.663
404.365	19.734	826.345	632.460
405.380	19.716	825.710	631.852
406.394	19.880	825.442	632.192
407.409	19.899	825.134	631.966
408.423	20.051	824.420	631.920
409.438	20.161	823.940	631.897
410.453	20.216	823.836	631.961
411.467	20.097	823.303	631.064
412.482	20.135	822.806	630.764
413.496	20.190	822.456	630.639
414.511	20.168	822.067	630.207
415.526	20.199	821.370	629.728
416.540	20.129	821.134	629.239
417.555	20.240	820.656	629.218
418.569	20.230	820.014	628.634
419.584	20.051	819.895	627.840
420.599	20.190	819.331	627.855
421.613	153.858	1369.690	1782.203
422.628	133.975	1449.904	1782.331
