DTS Sentinel unit serial number:	SN413079Multiplexer serial number:	ORYXHardware model number:	OX4-SRSoftware version number:	ORYX F/W v4.00 Oryx Data Collector v3.7.2.0data status	okinstallation	princeton_trtdifferential loss correction	single-endedforward channel	channel 1reverse channel	N/Adate	2019/09/18time	19:26:35forward acquisition time	60.00reverse acquisition time	0.00gamma	496.2192k internal	0.2322k external	0.2322temperature offset calibration	1.0027default loss term (dB/km)	0.3790temperature slope calibration	1.0000multiplexer offset coefficient	1.0000multiplexer slope coefficient	1.0000fibre end	0.00T internal ref (°C)	33.27T ext. ref 1 (°C)	1.09T ext. ref 2 (°C)	22.77length (m)	temperature (°C)	Stokes	anti-Stokes-747.200	335.252	0.082	-0.161
-746.185	-3.172	0.062	-0.044
-745.171	64.117	0.101	0.102
-744.156	-109.689	-0.218	-0.046
-743.142	800.000	-0.100	0.314
-742.127	-200.000	-0.026	0.271
-741.112	-200.000	0.031	-0.184
-740.098	-146.133	-0.094	-0.008
-739.083	-200.000	0.026	-0.179
-738.069	-154.386	-0.432	-0.029
-737.054	463.466	0.049	0.110
-736.039	-45.536	-0.361	0.180
-735.025	-166.916	0.177	0.007
-734.010	111.234	-0.044	-0.053
-732.996	-166.155	-0.155	-0.007
-731.981	-175.977	-0.158	0.004
-730.966	-200.000	0.049	0.438
-729.952	45.316	-0.205	-0.191
-728.937	-200.000	-0.007	-0.347
-727.923	-81.655	-0.079	-0.026
-726.908	164.289	-0.021	-0.030
-725.894	-133.351	-0.301	-0.038
-724.879	-46.534	-0.269	-0.133
-723.864	-200.000	-0.013	-0.319
-722.850	-70.821	-0.188	-0.072
-721.835	324.288	-0.095	-0.182
-720.821	4.738	-0.212	0.157
-719.806	179.665	-0.180	0.266
-718.791	-28.107	-0.345	0.201
-717.777	-98.283	0.223	0.058
-716.762	-12.548	-0.114	-0.075
-715.748	480.036	-0.035	-0.081
-714.733	800.000	-0.128	0.448
-713.718	-108.213	0.203	-0.044
-712.704	-98.054	-0.146	-0.038
-711.689	-200.000	-0.058	-0.321
-710.675	410.412	0.036	-0.078
-709.660	2.978	-0.063	0.046
-708.645	9.101	0.224	0.171
-707.631	-42.831	-0.188	0.096
-706.616	-73.529	0.229	0.084
-705.602	-17.028	-0.183	-0.116
-704.587	-200.000	0.004	-0.068
-703.572	-86.047	-0.250	0.078
-702.558	-43.730	0.236	-0.120
-701.543	-200.000	0.051	-0.272
-700.529	-120.870	0.181	0.031
-699.514	11.592	0.179	-0.138
-698.499	-81.051	0.241	0.080
-697.485	-77.617	0.115	-0.040
-696.470	-64.170	-0.274	0.113
-695.456	78.925	0.090	0.097
-694.441	-83.251	0.303	0.098
-693.426	-105.647	-0.351	-0.080
-692.412	-200.000	0.042	-0.244
-691.397	-11.879	0.339	-0.224
-690.383	-47.482	-0.154	0.075
-689.368	-73.132	0.198	-0.073
-688.354	10.672	-0.195	0.150
-687.339	-101.071	-0.263	0.065
-686.324	-4.767	-0.126	-0.087
-685.310	104.328	-0.137	-0.163
-684.295	-158.864	-0.032	-0.002
-683.281	800.000	0.088	-0.279
-682.266	26.143	-0.271	-0.228
-681.251	-158.180	-0.195	0.012
-680.237	-91.873	-0.097	-0.028
-679.222	-200.000	-0.022	-0.151
-678.208	-33.600	0.198	-0.110
-677.193	-200.000	-0.014	0.290
-676.178	27.860	0.149	-0.127
-675.164	-67.494	-0.169	-0.067
-674.149	-200.000	0.001	0.228
-673.135	51.825	0.047	0.045
-672.120	-200.000	0.011	-0.096
-671.105	-145.938	0.162	-0.014
-670.091	-42.895	-0.184	-0.094
-669.076	-148.223	-0.058	-0.005
-668.062	77.904	0.275	-0.295
-667.047	154.165	0.067	0.092
-666.032	267.279	-0.058	-0.103
-665.018	235.955	-0.040	0.066
-664.003	112.441	-0.207	-0.252
-662.989	191.058	-0.157	-0.238
-661.974	-200.000	-0.007	-0.102
-660.959	-130.091	0.094	0.013
-659.945	352.396	-0.131	-0.262
-658.930	469.959	0.095	0.216
-657.916	167.401	-0.238	0.341
-656.901	-71.926	-0.181	0.068
-655.886	-14.359	-0.178	0.116
-654.872	800.000	-0.078	-0.268
-653.857	181.622	0.123	0.182
-652.843	147.425	-0.046	-0.063
-651.828	-200.000	0.015	0.135
-650.814	-127.836	0.429	-0.062
-649.799	-180.628	-0.119	-0.002
-648.784	-5.548	0.185	0.128
-647.770	-200.000	0.014	0.318
-646.755	-9.790	0.106	-0.071
-645.741	304.774	0.051	0.095
-644.726	407.783	0.143	-0.303
-643.711	372.627	-0.153	0.314
-642.697	-49.210	-0.160	0.077
-641.682	-200.000	0.002	0.046
-640.668	-139.660	0.275	-0.029
-639.653	-35.943	-0.275	-0.150
-638.638	-111.630	-0.216	0.044
-637.624	22.162	0.144	-0.118
-636.609	-68.469	-0.254	-0.099
-635.595	-88.157	-0.238	-0.072
-634.580	800.000	0.049	0.156
-633.565	79.881	-0.038	-0.042
-632.551	186.116	0.282	0.422
-631.536	454.062	-0.086	0.191
-630.522	-200.000	0.013	-0.134
-629.507	-170.779	-0.045	0.002
-628.492	226.577	-0.035	0.058
-627.478	48.833	-0.353	-0.333
-626.463	469.765	-0.030	0.068
-625.449	199.788	-0.326	-0.502
-624.434	207.810	-0.122	0.191
-623.419	97.988	0.160	-0.185
-622.405	5.498	0.303	-0.225
-621.390	-51.496	0.344	-0.162
-620.376	24.814	-0.031	-0.026
-619.361	-200.000	-0.056	-0.427
-618.346	-32.742	-0.046	0.026
-617.332	-146.253	-0.435	-0.038
-616.317	-109.691	-0.172	-0.036
-615.303	17.113	0.232	-0.185
-614.288	176.878	-0.149	0.218
-613.273	360.253	0.113	-0.227
-612.259	-58.255	0.096	0.042
-611.244	-200.000	0.005	-0.032
-610.230	-26.828	-0.407	-0.239
-609.215	-200.000	-0.060	-0.265
-608.201	125.756	0.115	-0.146
-607.186	-45.485	-0.054	-0.027
-606.171	267.055	0.054	0.095
-605.157	76.224	-0.032	0.034
-604.142	-200.000	0.031	-0.505
-603.128	-91.776	0.242	0.069
-602.113	482.268	0.095	-0.218
-601.098	131.151	0.086	-0.111
-600.084	-84.531	0.131	-0.042
-599.069	-29.256	0.336	-0.193
-598.055	6.124	0.176	-0.131
-597.040	800.000	0.070	-0.226
-596.025	-149.143	0.069	0.006
-595.011	-60.985	-0.223	0.095
-593.996	-200.000	0.001	-0.005
-592.982	-111.742	-0.212	-0.043
-591.967	333.989	-0.124	-0.240
-590.952	-109.776	-0.534	-0.113
-589.938	-143.271	-0.269	-0.026
-588.923	176.708	0.040	-0.059
-587.909	211.121	0.114	0.180
-586.894	207.937	-0.102	0.160
-585.879	318.619	-0.087	-0.165
-584.865	800.000	-0.109	-0.460
-583.850	66.708	-0.236	-0.241
-582.836	80.277	-0.214	-0.232
-581.821	345.718	-0.149	-0.293
-580.806	-200.000	-0.028	-0.236
-579.792	-58.577	-0.275	0.120
-578.777	-200.000	0.035	-0.157
-577.763	800.000	0.120	-0.399
-576.748	-85.676	-0.245	0.076
-575.733	-184.308	-0.347	0.006
-574.719	49.974	0.194	-0.184
-573.704	48.964	0.144	-0.136
-572.690	11.467	0.136	0.105
-571.675	-36.672	-0.116	-0.063
-570.661	-129.421	0.363	0.051
-569.646	-129.871	-0.314	-0.043
-568.631	-90.238	0.238	0.069
-567.617	71.439	-0.147	-0.153
-566.602	183.999	-0.308	-0.457
-565.588	-124.360	0.059	0.009
-564.573	24.493	0.269	-0.223
-563.558	79.725	-0.150	-0.162
-562.544	-200.000	0.041	-0.279
-561.529	228.547	0.166	0.272
-560.515	-50.836	-0.244	-0.115
-559.500	269.070	-0.032	0.056
-558.485	-63.823	-0.504	0.207
-557.471	430.664	0.124	0.268
-556.456	66.644	0.098	-0.100
-555.442	63.981	0.107	0.108
-554.427	-142.713	0.297	-0.029
-553.412	-138.180	0.253	0.028
-552.398	47.874	-0.318	0.298
-551.383	340.230	0.019	-0.038
-550.369	800.000	0.042	0.168
-549.354	-99.430	-0.081	-0.021
-548.339	800.000	0.036	-0.101
-547.325	-14.775	-0.101	0.065
-546.310	341.262	0.033	0.064
-545.296	44.929	0.204	-0.189
-544.281	-16.639	0.106	-0.068
-543.266	-10.144	0.166	0.110
-542.252	1.104	0.203	-0.146
-541.237	709.961	0.038	0.099
-540.223	-77.202	0.245	-0.086
-539.208	378.218	-0.109	-0.224
-538.193	-74.846	0.194	0.070
-537.179	17.634	-0.194	-0.155
-536.164	-200.000	0.064	-0.354
-535.150	140.465	0.115	0.152
-534.135	116.372	0.209	0.257
-533.121	8.494	0.185	-0.139
-532.106	-46.715	0.159	-0.078
-531.091	183.826	-0.029	0.043
-530.077	-200.000	-0.065	0.321
-529.062	-124.616	-0.170	0.026
-528.048	-37.715	-0.032	0.017
-527.033	-142.388	-0.067	-0.007
-526.018	197.083	0.094	0.143
-525.004	85.963	-0.181	0.199
-523.989	-16.391	-0.358	0.227
-522.975	47.943	0.093	-0.087
-521.960	117.055	-0.102	0.126
-520.945	-163.139	-0.198	-0.010
-519.931	-70.584	-0.225	0.085
-518.916	-200.000	0.016	0.316
-517.902	140.038	-0.189	0.250
-516.887	-200.000	0.009	0.090
-515.872	-147.855	0.022	-0.002
-514.858	-16.430	-0.259	-0.164
-513.843	-159.169	0.267	-0.015
-512.829	-95.770	-0.110	-0.029
-511.814	321.408	-0.171	-0.326
-510.799	-11.582	-0.229	-0.151
-509.785	-35.196	0.263	0.144
-508.770	800.000	0.049	-0.173
-507.756	35.897	-0.225	-0.198
-506.741	-83.821	0.094	-0.030
-505.726	-70.810	-0.330	0.125
-504.712	98.526	-0.195	-0.225
-503.697	469.911	0.057	0.127
-502.683	144.962	0.044	0.059
-501.668	-119.925	0.117	-0.020
-500.653	-13.031	-0.309	-0.201
-499.639	-83.600	0.171	-0.055
-498.624	-93.617	-0.177	0.049
-497.610	-200.000	-0.005	-0.155
-496.595	-106.253	0.269	0.060
-495.581	-91.954	0.089	0.025
-494.566	342.168	0.109	0.213
-493.551	379.063	-0.050	-0.102
-492.537	-200.000	-0.045	-0.206
-491.522	-76.724	-0.306	0.107
-490.508	-161.226	0.510	0.027
-489.493	12.577	0.080	0.062
-488.478	39.598	0.118	-0.106
-487.464	-200.000	-0.375	-0.000
-486.449	-158.371	0.252	0.015
-485.435	-143.636	0.135	-0.013
-484.420	-95.202	-0.060	-0.016
-483.405	800.000	-0.005	0.021
-482.391	-94.157	-0.066	-0.018
-481.376	-107.299	0.412	0.091
-480.362	-200.000	-0.040	0.182
-479.347	134.914	-0.068	-0.088
-478.332	523.766	-0.037	-0.086
-477.318	-200.000	-0.036	-0.243
-476.303	150.511	-0.091	0.124
-475.289	6.834	0.148	-0.110
-474.274	-27.521	-0.137	0.080
-473.259	49.690	0.226	-0.213
-472.245	-200.000	0.004	-0.216
-471.230	-94.397	0.104	-0.028
-470.216	-200.000	0.058	0.301
-469.201	625.817	0.067	0.169
-468.186	-108.816	0.092	-0.020
-467.172	-151.282	0.088	0.007
-466.157	-91.894	0.229	0.065
-465.143	800.000	0.068	0.260
-464.128	-200.000	0.072	0.313
-463.113	-85.416	0.352	0.110
-462.099	427.975	0.158	0.341
-461.084	-39.731	0.129	-0.067
-460.070	494.140	-0.129	0.296
-459.055	130.554	0.185	-0.237
-458.040	23.752	0.396	0.326
-457.026	-101.851	0.250	0.060
-456.011	495.225	0.098	-0.224
-454.997	125.907	-0.066	0.083
-453.982	800.000	0.110	0.366
-452.968	-200.000	0.074	0.354
-451.953	-200.000	0.009	-0.111
-450.938	-82.719	0.231	-0.075
-449.924	-133.505	0.059	0.007
-448.909	232.540	0.229	0.376
-447.895	490.482	0.156	-0.356
-446.880	57.344	0.200	0.194
-445.865	800.000	0.037	0.155
-444.851	506.845	0.127	-0.293
-443.836	126.808	-0.205	0.260
-442.822	73.784	-0.127	-0.133
-441.807	-64.647	0.104	-0.042
-440.792	223.782	0.080	0.129
-439.778	-8.624	0.135	0.090
-438.763	-150.047	-0.246	0.019
-437.749	208.544	0.085	0.133
-436.734	2.432	-0.145	0.104
-435.719	-16.771	0.191	0.121
-434.705	-200.000	0.009	-0.048
-433.690	76.217	-0.089	-0.094
-432.676	-200.000	0.036	0.319
-431.661	659.469	0.065	0.168
-430.646	-200.000	0.014	0.143
-429.632	2.164	-0.189	0.137
-428.617	420.244	-0.043	-0.093
-427.603	-40.269	-0.185	0.096
-426.588	800.000	0.092	0.332
-425.573	-200.000	0.022	-0.098
-424.559	-35.709	-0.155	0.084
-423.544	-59.406	0.276	0.118
-422.530	-67.949	0.334	-0.130
-421.515	534.980	-0.087	0.205
-420.500	-112.372	0.155	0.031
-419.486	-200.000	0.055	-0.279
-418.471	800.000	0.047	0.196
-417.457	-68.587	0.388	0.150
-416.442	-88.913	-0.121	0.036
-415.428	800.000	0.059	0.247
-414.413	-200.000	0.009	-0.298
-413.398	15.237	-0.182	-0.143
-412.384	-37.447	0.167	0.089
-411.369	-92.396	0.218	0.061
-410.355	6.330	0.172	0.128
-409.340	-200.000	0.054	-0.243
-408.325	-168.713	0.132	-0.005
-407.311	562.886	0.061	-0.146
-406.296	-200.000	-0.016	0.130
-405.282	79.499	-0.156	-0.167
-404.267	-106.705	0.118	0.026
-403.252	800.000	-0.036	-0.115
-402.238	-200.000	-0.070	-0.398
-401.223	-118.865	0.152	-0.027
-400.209	78.464	0.245	0.261
-399.194	328.926	-0.097	0.186
-398.179	-35.105	0.118	0.064
-397.165	-200.000	0.000	0.052
-396.150	-200.000	-0.066	0.312
-395.136	-45.853	-0.246	-0.121
-394.121	16.119	0.138	0.109
-393.106	-100.763	-0.046	-0.011
-392.092	-200.000	0.007	-0.129
-391.077	5.178	-0.122	-0.090
-390.063	-200.000	0.019	0.254
-389.048	-109.191	0.057	0.012
-388.033	-111.394	-0.117	-0.024
-387.019	-21.338	0.278	0.169
-386.004	338.022	-0.084	0.162
-384.990	348.425	0.136	-0.268
-383.975	791.428	-0.099	-0.271
-382.960	-82.086	-0.270	-0.088
-381.946	-124.468	0.067	0.010
-380.931	279.519	0.148	0.262
-379.917	87.212	-0.182	-0.200
-378.902	-200.000	-0.016	-0.125
-377.888	9.909	-0.080	0.060
-376.873	-29.893	-0.191	-0.108
-375.858	196.702	0.025	0.038
-374.844	-119.743	0.144	0.025
-373.829	-200.000	-0.028	0.367
-372.815	385.250	-0.078	0.159
-371.800	800.000	0.079	-0.260
-370.785	-109.946	0.257	0.054
-369.771	-9.664	-0.222	-0.147
-368.756	-115.528	-0.165	0.031
-367.742	496.353	-0.176	0.402
-366.727	-27.582	0.185	0.107
-365.712	-153.887	0.126	-0.009
-364.698	-200.000	-0.054	-0.262
-363.683	800.000	-0.055	0.175
-362.669	18.592	0.153	-0.122
-361.654	-5.904	-0.209	-0.142
-360.639	42.640	-0.047	-0.043
-359.625	295.563	-0.199	0.363
-358.610	800.000	0.057	-0.232
-357.596	-72.073	-0.334	0.123
-356.581	287.181	-0.107	-0.192
-355.566	117.461	-0.162	-0.198
-354.552	-75.249	-0.047	-0.017
-353.537	-7.177	-0.190	0.128
-352.523	-8.369	-0.120	0.080
-351.508	31.798	0.190	-0.163
-350.493	241.445	-0.084	0.140
-349.479	172.119	-0.197	0.282
-348.464	288.693	-0.124	0.223
-347.450	22.135	-0.305	0.248
-346.435	137.649	0.190	0.248
-345.420	-200.000	-0.040	0.400
-344.406	-69.277	0.368	-0.141
-343.391	800.000	-0.141	0.509
-342.377	-200.000	0.028	-0.197
-341.362	-79.634	0.226	-0.076
-340.348	74.152	-0.105	0.110
-339.333	800.000	-0.028	0.111
-338.318	-200.000	-0.009	-0.216
-337.304	-32.813	0.302	-0.167
-336.289	-81.689	0.034	0.011
-335.275	-16.966	0.148	0.093
-334.260	29.840	-0.205	-0.173
-333.245	800.000	0.039	-0.159
-332.231	118.856	-0.161	-0.197
-331.216	-17.071	-0.132	-0.083
-330.202	93.049	0.241	0.271
-329.187	-200.000	-0.019	-0.190
-328.172	-13.746	0.196	-0.126
-327.158	-115.495	-0.324	-0.061
-326.143	409.559	-0.038	-0.079
-325.129	21.226	0.088	-0.071
-324.114	194.909	0.048	0.073
-323.099	-49.483	0.088	0.042
-322.085	113.499	-0.210	0.254
-321.070	230.354	0.112	0.182
-320.056	-19.400	-0.243	0.150
-319.041	-92.176	0.109	-0.031
-318.026	-200.000	0.066	-0.331
-317.012	-200.000	-0.023	-0.123
-315.997	800.000	0.098	0.296
-314.983	86.179	-0.123	0.134
-313.968	190.216	0.104	-0.155
-312.953	-33.531	-0.287	-0.158
-311.939	-12.959	0.103	0.067
-310.924	-200.000	-0.033	-0.234
-309.910	-130.780	0.256	0.034
-308.895	-97.341	0.159	0.041
-307.880	-200.000	-0.036	0.243
-306.866	-118.136	0.224	-0.040
-305.851	-146.639	-0.289	0.025
-304.837	451.052	0.105	-0.230
-303.822	800.000	-0.084	-0.350
-302.807	-71.847	-0.031	0.011
-301.793	132.652	0.150	0.192
-300.778	-62.466	0.271	0.112
-299.764	-188.779	-0.079	-0.001
-298.749	-100.956	-0.537	-0.131
-297.735	2.561	-0.306	0.220
-296.720	360.311	0.152	0.302
-295.705	503.535	-0.018	-0.041
-294.691	433.732	-0.315	-0.678
-293.676	-18.885	0.305	-0.189
-292.662	213.373	-0.268	0.420
-291.647	293.426	0.163	0.294
-290.632	799.070	-0.099	0.272
-289.618	-129.706	-0.394	-0.054
-288.603	185.836	0.032	-0.047
-287.589	-79.543	0.143	0.048
-286.574	48.770	-0.031	0.028
-285.559	502.995	0.085	-0.195
-284.545	179.528	0.131	-0.191
-283.530	-86.720	0.128	-0.039
-282.516	87.462	-0.217	0.238
-281.501	335.745	0.048	0.093
-280.486	-200.000	-0.017	0.259
-279.472	800.000	-0.062	0.213
-278.457	-50.202	-0.213	0.100
-277.443	-200.000	0.066	0.347
-276.428	45.168	0.178	-0.163
-275.413	98.718	-0.110	0.126
-274.399	-143.184	-0.466	-0.044
-273.384	-59.582	0.061	-0.026
-272.370	-200.000	-0.016	0.111
-271.355	-184.323	0.232	-0.004
-270.340	800.000	0.062	-0.251
-269.326	-95.703	-0.178	0.047
-268.311	14.043	0.200	0.154
-267.297	-26.444	0.167	0.097
-266.282	-57.282	-0.338	0.147
-265.267	145.299	0.139	0.184
-264.253	800.000	0.067	0.202
-263.238	-153.970	0.388	0.026
-262.224	236.672	0.127	-0.209
-261.209	186.847	0.127	0.188
-260.195	800.000	-0.008	0.031
-259.180	-71.994	-0.131	0.048
-258.165	-200.000	0.001	0.074
-257.151	-200.000	-0.038	-0.204
-256.136	800.000	0.034	-0.120
-255.122	19.313	-0.234	-0.186
-254.107	-163.206	0.354	0.017
-253.092	-200.000	-0.003	0.053
-252.078	-151.704	-0.201	-0.015
-251.063	4.943	0.122	-0.089
-250.049	433.433	0.212	-0.457
-249.034	-200.000	0.027	-0.486
-248.019	-55.432	-0.181	-0.080
-247.005	222.339	-0.031	0.049
-245.990	800.000	0.064	-0.236
-244.976	21.804	-0.139	0.112
-243.961	39.899	0.224	-0.199
-242.946	-140.318	-0.306	0.032
-241.932	-141.875	-0.188	-0.019
-240.917	515.990	0.123	-0.285
-239.903	-200.000	-0.017	-0.341
-238.888	-51.545	-0.161	-0.074
-237.873	-9.072	-0.216	0.143
-236.859	18.700	-0.104	-0.083
-235.844	243.733	0.040	0.066
-234.830	-112.736	-0.148	-0.029
-233.815	-149.546	-0.213	0.017
-232.800	48.189	-0.100	0.093
-231.786	237.963	-0.078	0.129
-230.771	-17.326	-0.261	0.163
-229.757	-200.000	0.037	0.342
-228.742	61.934	-0.155	-0.152
-227.727	-200.000	-0.057	0.286
-226.713	-200.000	0.086	-0.000
-225.698	-200.000	0.000	-0.067
-224.684	676.052	-0.085	-0.219
-223.669	-112.322	0.127	-0.025
-222.655	-50.827	-0.527	-0.245
-221.640	-200.000	0.348	0.002
-220.625	-200.000	0.027	0.196
-219.611	-89.207	-0.211	-0.062
-218.596	171.089	0.093	0.132
-217.582	226.942	-0.142	0.227
-216.567	31.454	0.076	0.065
-215.552	-139.242	0.235	0.025
-214.538	-122.602	0.290	-0.047
-213.523	-127.935	-0.222	0.032
-212.509	244.999	-0.046	-0.076
-211.494	-161.070	-0.248	-0.013
-210.479	-200.000	0.005	0.213
-209.465	-14.389	0.244	0.155
-208.450	-200.000	0.053	0.431
-207.436	-54.688	0.402	0.180
-206.421	-200.000	-0.037	0.233
-205.406	-3.142	0.203	-0.140
-204.392	-200.000	0.020	0.272
-203.377	-18.716	0.351	0.216
-202.363	-3.115	0.062	-0.043
-201.348	180.607	0.037	-0.053
-200.333	-72.178	0.150	-0.055
-199.319	34.793	0.113	-0.098
-198.304	144.868	-0.052	0.069
-197.290	4.610	0.424	0.308
-196.275	65.578	0.255	0.255
-195.260	-200.000	0.044	-0.287
-194.246	-200.000	-0.038	0.393
-193.231	249.961	-0.198	0.332
-192.217	185.227	0.190	-0.279
-191.202	197.096	-0.229	-0.345
-190.187	-57.856	0.072	0.031
-189.173	368.496	-0.211	0.421
-188.158	28.454	0.081	-0.068
-187.144	-200.000	0.008	0.077
-186.129	-46.001	-0.394	0.192
-185.114	-200.000	-0.008	-0.073
-184.100	-200.000	0.028	-0.328
-183.085	34.829	0.238	-0.205
-182.071	-200.000	0.036	-0.579
-181.056	-165.216	-0.264	0.012
-180.042	-36.669	-0.205	0.109
-179.027	-89.980	-0.216	0.062
-178.012	-127.716	0.090	-0.013
-176.998	-155.938	-0.110	0.007
-175.983	8.851	-0.227	-0.169
-174.969	800.000	-0.049	0.140
-173.954	-200.000	-0.041	-0.401
-172.939	-200.000	0.031	-0.269
-171.925	800.000	-0.016	0.051
-170.910	668.725	0.078	-0.200
-169.896	800.000	-0.080	-0.242
-168.881	-200.000	-0.010	0.277
-167.866	69.969	0.196	0.199
-166.852	292.224	0.188	-0.338
-165.837	-145.368	-0.259	-0.023
-164.823	200.746	-0.091	0.139
-163.808	800.000	-0.026	-0.073
-162.793	-200.000	0.051	0.297
-161.779	-49.912	-0.168	0.079
-160.764	-94.643	0.158	0.042
-159.750	-44.267	-0.213	-0.105
-158.735	103.396	0.095	-0.110
-157.720	-162.899	-0.234	0.011
-156.706	-185.425	-0.191	0.003
-155.691	-86.635	0.375	0.113
-154.677	96.571	0.289	-0.327
-153.662	229.532	0.013	0.021
-152.647	-200.000	-0.021	-0.101
-151.633	-137.616	0.152	0.017
-150.618	-120.637	-0.420	0.070
-149.604	-36.339	-0.442	-0.235
-148.589	5.038	-0.091	-0.066
-147.574	388.686	0.184	-0.376
-146.560	800.000	-0.129	-0.404
-145.545	-120.320	0.249	-0.042
-144.531	800.000	0.063	-0.186
-143.516	-66.969	0.152	0.059
-142.502	108.375	-0.128	0.151
-141.487	-148.290	-0.414	0.034
-140.472	-155.825	0.226	-0.014
-139.458	-116.949	0.266	0.048
-138.443	-108.004	-0.328	0.070
-137.429	0.782	0.071	-0.050
-136.414	-130.278	0.269	-0.036
-135.399	-200.000	-0.017	0.344
-134.385	-200.000	-0.011	0.118
-133.370	114.658	0.123	-0.147
-132.356	157.000	0.030	-0.041
-131.341	469.926	-0.014	-0.031
-130.326	224.406	0.135	-0.216
-129.312	13.354	0.092	-0.070
-128.297	800.000	0.095	0.295
-127.283	-29.248	-0.116	0.066
-126.268	-200.000	-0.003	0.142
-125.253	-117.199	-0.399	0.072
-124.239	-137.732	0.163	-0.018
-123.224	7.544	-0.130	0.096
-122.210	173.418	-0.150	0.213
-121.195	-78.433	0.196	-0.066
-120.180	109.948	0.148	-0.175
-119.166	-86.424	-0.094	0.028
-118.151	-197.537	0.011	0.000
-117.137	77.143	0.150	0.157
-116.122	32.778	-0.137	-0.117
-115.107	-23.462	0.306	-0.181
-114.093	-200.000	0.010	-0.224
-113.078	-105.763	-0.342	0.076
-112.064	-129.093	0.086	-0.012
-111.049	94.927	-0.278	-0.311
-110.034	13.909	0.100	-0.076
-109.020	-200.000	0.001	-0.057
-108.005	3.533	0.071	0.051
-106.991	-35.248	0.280	0.150
-105.976	-122.527	-0.073	-0.012
-104.962	-200.000	0.012	-0.175
-103.947	-187.297	0.140	-0.002
-102.932	-200.000	-0.055	0.353
-101.918	800.000	-0.031	-0.129
-100.903	-129.674	0.195	-0.027
-99.889	152.419	-0.051	-0.069
-98.874	-119.017	0.083	0.014
-97.859	552.195	0.078	-0.184
-96.845	-200.000	0.031	-0.220
-95.830	-114.537	-0.173	0.033
-94.816	123.177	0.032	-0.040
-93.801	-41.459	0.053	-0.027
-92.786	-129.829	0.234	-0.032
-91.772	18.385	0.234	0.184
-90.757	-171.877	-0.247	-0.008
-89.743	-89.657	-0.232	0.067
-88.728	34.725	-0.158	0.136
-87.713	406.029	0.084	0.174
-86.699	800.000	-0.059	-0.218
-85.684	-153.053	0.361	0.025
-84.670	-7.420	0.315	-0.210
-83.655	-75.007	-0.118	0.042
-82.640	371.635	-0.094	-0.188
-81.626	-68.070	0.416	-0.159
-80.611	64.828	0.160	-0.159
-79.597	-73.186	-0.060	-0.022
-78.582	-129.557	-0.256	-0.035
-77.567	-200.000	-0.076	-0.366
-76.553	-200.000	-0.024	-0.354
-75.538	128.933	-0.125	0.157
-74.524	800.000	0.085	-0.266
-73.509	-50.722	-0.129	0.060
-72.494	-200.000	-0.034	0.148
-71.480	800.000	0.026	0.096
-70.465	-84.258	-0.226	0.070
-69.451	128.898	0.108	-0.136
-68.436	-200.000	0.012	0.220
-67.422	800.000	0.099	0.340
-66.407	101.056	-0.281	0.321
-65.392	-94.962	-0.182	0.048
-64.378	76.625	-0.052	-0.054
-63.363	-137.853	0.051	-0.006
-62.349	-69.892	0.119	-0.045
-61.334	52.662	-0.998	-0.937
-60.319	-35.529	0.664	0.355
-59.305	-200.000	-0.037	-0.952
-58.290	362.439	0.577	1.138
-57.276	334.713	0.656	1.250
-56.261	-200.000	95.649	578.665
-55.246	534.244	1380.409	3216.715
-54.232	161.137	2552.680	3508.093
-53.217	112.992	2147.032	2558.737
-52.203	44.953	1614.532	1461.653
-51.188	36.823	1354.683	1177.197
-50.173	33.583	1313.229	1121.993
-49.159	55.502	1359.659	1293.959
-48.144	57.812	1376.963	1324.262
-47.130	37.068	1336.377	1162.576
-46.115	33.625	1318.824	1126.844
-45.100	33.275	1314.408	1120.957
-44.086	33.090	1312.148	1117.891
-43.071	33.121	1309.461	1115.737
-42.057	33.212	1306.972	1114.111
-41.042	33.168	1305.430	1112.495
-40.027	33.141	1304.148	1111.200
-39.013	33.228	1302.041	1109.871
-37.998	33.220	1300.339	1108.327
-36.984	33.211	1298.668	1106.808
-35.969	33.244	1296.742	1105.315
-34.954	33.405	1294.808	1104.562
-33.940	33.266	1293.710	1102.771
-32.925	33.317	1292.824	1102.266
-31.911	33.309	1291.184	1100.780
-30.896	33.322	1289.726	1099.566
-29.881	33.421	1287.952	1098.585
-28.867	33.466	1286.797	1097.817
-27.852	33.363	1285.577	1096.135
-26.838	33.371	1284.244	1095.003
-25.823	33.397	1282.732	1093.824
-24.809	33.335	1282.095	1092.879
-23.794	33.320	1280.172	1091.107
-22.779	33.340	1278.645	1089.876
-21.765	33.313	1277.607	1088.795
-20.750	33.239	1276.303	1087.215
-19.736	33.254	1275.177	1086.302
-18.721	33.304	1273.715	1085.297
-17.706	33.281	1272.530	1084.111
-16.692	33.198	1271.630	1082.828
-15.677	33.245	1270.587	1082.167
-14.663	33.151	1269.676	1080.807
-13.648	33.244	1268.432	1080.237
-12.633	33.243	1267.498	1079.395
-11.619	33.143	1267.028	1078.384
-10.604	33.126	1265.990	1077.358
-9.590	33.189	1264.625	1076.510
-8.575	33.232	1263.020	1075.350
-7.560	33.252	1262.301	1074.809
-6.546	33.155	1262.295	1074.208
-5.531	33.161	1261.129	1073.207
-4.517	33.252	1260.135	1072.837
-3.502	33.221	1259.515	1072.086
-2.487	33.113	1258.197	1070.310
-1.473	33.002	1253.930	1066.011
-0.458	30.488	1236.574	1037.206
0.556	24.208	1215.647	983.833
1.571	18.690	1218.365	955.325
2.586	17.045	1232.362	956.945
3.600	16.798	1221.209	946.822
4.615	12.633	1151.002	870.330
5.629	5.186	1076.151	776.722
6.644	1.367	1055.925	743.388
7.659	1.000	1054.049	740.209
8.673	0.974	1052.981	739.266
9.688	1.010	1051.740	738.509
10.702	1.236	1049.906	738.253
11.717	5.520	1056.016	763.416
12.731	13.034	1065.302	806.919
13.746	17.204	1069.827	830.706
14.761	17.530	1070.536	832.775
15.775	16.832	1068.807	827.947
16.790	15.911	1066.236	821.394
17.804	15.225	1064.843	816.905
18.819	14.908	1063.456	814.223
19.834	14.500	1062.787	811.653
20.848	14.213	1061.976	809.568
21.863	13.972	1061.137	807.684
22.877	13.864	1060.519	806.618
23.892	13.854	1059.729	805.899
24.907	13.875	1058.872	805.278
25.921	13.854	1057.918	804.378
26.936	13.876	1057.155	803.835
27.950	13.938	1056.308	803.419
28.965	14.066	1054.891	802.888
29.980	14.100	1053.556	801.965
30.994	14.209	1052.865	801.892
32.009	14.147	1051.796	800.708
33.023	14.171	1050.606	799.849
34.038	13.970	1049.999	798.350
35.053	14.112	1049.133	798.299
36.067	14.042	1048.160	797.157
37.082	13.930	1047.382	795.958
38.096	13.996	1046.970	795.887
39.111	13.998	1045.989	795.081
40.126	13.962	1044.784	793.923
41.140	13.894	1043.995	792.928
42.155	13.915	1042.727	791.995
43.169	13.858	1041.627	790.821
44.184	13.906	1040.640	790.229
45.199	13.883	1039.699	789.336
46.213	13.919	1038.794	788.747
47.228	14.008	1037.269	787.944
48.242	14.055	1036.188	787.274
49.257	14.002	1035.161	786.175
50.271	14.013	1034.612	785.738
51.286	13.981	1033.907	784.981
52.301	13.884	1033.043	783.800
53.315	13.991	1031.749	783.254
54.330	13.956	1030.488	782.062
55.344	13.937	1030.053	781.575
56.359	13.997	1029.320	781.229
57.374	13.843	1028.904	780.121
58.388	13.875	1027.535	779.163
59.403	13.894	1026.725	778.570
60.417	13.827	1025.899	777.559
61.432	13.983	1024.616	777.251
62.447	13.772	1024.333	775.978
63.461	13.909	1023.220	775.706
64.476	13.817	1022.610	774.748
65.490	13.928	1021.514	774.365
66.505	13.775	1021.151	773.307
67.520	13.894	1020.488	773.292
68.534	13.853	1019.720	772.452
69.549	13.898	1019.057	772.088
70.563	13.881	1018.402	771.445
71.578	13.817	1017.366	770.296
72.593	13.766	1016.303	769.189
73.607	13.702	1016.313	768.829
74.622	13.783	1015.459	768.491
75.636	13.761	1014.919	767.912
76.651	13.744	1014.408	767.378
77.666	13.862	1013.250	766.980
78.680	13.858	1012.507	766.331
79.695	13.853	1011.844	765.738
80.709	13.852	1011.208	765.184
81.724	13.944	1010.691	765.150
82.739	13.984	1009.809	764.600
83.753	13.894	1009.307	763.736
84.768	14.065	1008.037	763.492
85.782	14.059	1007.190	762.759
86.797	13.984	1006.716	761.989
87.812	13.978	1005.536	760.999
88.826	13.934	1004.904	760.251
89.841	14.039	1003.661	759.724
90.855	14.058	1002.615	758.953
91.870	14.129	1002.030	758.766
92.884	14.009	1001.091	757.442
93.899	14.083	1000.144	756.994
94.914	14.276	999.221	757.106
95.928	14.262	998.164	756.175
96.943	14.126	997.654	755.104
97.957	14.179	996.764	754.604
98.972	14.212	996.046	754.142
99.987	14.138	994.901	752.876
101.001	14.052	993.940	751.693
102.016	14.196	992.967	751.542
103.030	14.033	992.803	750.616
104.045	14.100	991.891	750.161
105.060	13.994	990.953	748.907
106.074	14.034	989.965	748.273
107.089	14.089	988.810	747.580
108.103	13.928	988.191	746.323
109.118	14.073	987.129	746.106
110.133	14.062	986.016	745.152
111.147	13.974	985.639	744.407
112.162	14.042	984.619	743.874
113.176	14.031	983.711	743.074
114.191	14.053	983.378	742.855
115.206	14.039	982.407	741.993
116.220	14.020	981.739	741.338
117.235	14.152	980.174	740.679
118.249	14.116	979.426	739.889
119.264	14.102	979.086	739.501
120.279	14.041	978.389	738.638
121.293	14.165	977.046	738.111
122.308	13.908	976.818	736.733
123.322	14.003	975.419	736.035
124.337	14.098	974.589	735.761
125.352	14.143	973.267	734.899
126.366	14.021	972.368	733.613
127.381	14.062	971.085	732.764
128.395	13.978	970.915	732.201
129.410	14.036	969.682	731.462
130.424	14.122	968.716	731.045
131.439	14.172	967.960	730.632
132.454	14.033	967.897	729.906
133.468	14.237	966.419	729.622
134.483	14.159	965.498	728.521
135.497	14.116	964.708	727.671
136.512	14.207	963.834	727.346
137.527	14.259	962.814	726.739
138.541	14.273	961.971	726.101
139.556	14.151	961.977	725.505
140.570	14.214	960.941	724.936
141.585	14.208	960.435	724.465
142.600	14.151	959.557	723.490
143.614	14.267	958.737	723.312
144.629	14.235	957.654	722.294
145.643	14.278	957.012	721.930
146.658	14.314	955.442	720.841
147.673	14.283	954.796	720.155
148.687	14.268	954.062	719.469
149.702	14.131	953.446	718.352
150.716	14.243	952.192	717.826
151.731	14.255	952.197	717.818
152.746	14.305	950.912	717.000
153.760	14.377	950.643	717.043
154.775	14.330	949.872	716.195
155.789	14.377	949.597	716.130
156.804	14.253	948.617	714.794
157.819	14.348	948.236	714.852
158.833	14.463	947.317	714.586
159.848	14.361	946.759	713.665
160.862	14.257	945.679	712.344
161.877	14.350	944.645	711.899
162.892	14.266	943.614	710.700
163.906	14.352	942.877	710.451
164.921	14.328	942.120	709.715
165.935	14.391	940.943	709.036
166.950	14.404	940.101	708.394
167.964	14.289	939.261	707.208
168.979	14.313	938.805	706.906
169.994	14.327	937.803	706.146
171.008	14.367	936.780	705.481
172.023	14.361	936.542	705.216
173.037	14.466	935.813	705.049
174.052	14.314	935.481	704.096
175.067	14.460	934.468	703.885
176.081	14.334	934.333	703.190
177.096	14.320	933.592	702.509
178.110	14.562	932.542	702.676
179.125	14.395	932.341	701.761
180.140	14.469	931.674	701.507
181.154	14.675	930.991	701.797
182.169	14.547	930.696	700.977
183.183	14.522	930.139	700.391
184.198	14.734	929.173	700.488
185.213	14.704	928.223	699.584
186.227	14.596	928.082	698.963
187.242	14.650	927.158	698.431
188.256	14.758	926.661	698.447
189.271	14.576	926.120	697.216
190.286	14.586	925.415	696.666
191.300	14.554	924.530	695.806
192.315	14.499	924.224	695.283
193.329	14.540	923.680	694.982
194.344	14.531	922.634	694.098
195.359	14.527	922.501	693.922
196.373	14.568	921.875	693.558
197.388	14.860	921.238	694.232
198.402	14.891	920.354	693.631
199.417	14.774	920.192	692.961
200.432	14.882	919.253	692.641
201.446	14.946	918.871	692.557
202.461	14.890	918.367	691.886
203.475	14.878	917.652	691.234
204.490	14.909	917.070	690.865
205.504	14.833	916.549	690.096
206.519	14.805	915.842	689.389
207.534	14.815	914.812	688.591
208.548	14.952	913.988	688.474
209.563	14.906	913.284	687.696
210.577	14.973	913.173	687.826
211.592	14.979	912.313	687.144
212.607	15.062	911.506	686.815
213.621	14.935	910.746	685.662
214.636	14.902	910.372	685.184
215.650	15.195	909.145	685.399
216.665	15.106	908.892	684.784
217.680	15.065	908.516	684.270
218.694	15.171	907.513	683.888
219.709	15.191	906.411	683.077
220.723	15.195	906.017	682.739
221.738	15.174	905.432	682.151
222.753	15.148	905.083	681.719
223.767	15.217	904.226	681.296
224.782	15.395	903.402	681.337
225.796	15.311	902.983	680.621
226.811	15.331	902.389	680.193
227.826	15.229	901.981	679.414
228.840	15.218	901.013	678.578
229.855	15.252	900.404	678.197
230.869	15.241	899.417	677.349
231.884	15.298	898.721	676.996
232.899	15.354	897.932	676.568
233.913	15.155	897.398	675.304
234.928	15.330	896.682	675.408
235.942	15.255	896.563	674.956
236.957	15.293	895.964	674.598
237.972	15.151	895.642	673.727
238.986	15.368	894.500	673.679
240.001	15.307	893.630	672.721
241.015	15.400	892.902	672.486
242.030	15.336	892.693	672.013
243.045	15.444	891.846	671.748
244.059	15.438	891.479	671.386
245.074	15.564	890.653	671.208
246.088	15.525	890.021	670.519
247.103	15.393	889.495	669.535
248.117	15.517	888.888	669.512
249.132	15.669	888.382	669.681
250.147	15.660	887.444	668.878
251.161	15.571	887.345	668.389
252.176	15.668	886.381	667.987
253.190	15.690	885.190	667.119
254.205	15.907	884.607	667.481
255.220	15.731	884.516	666.658
256.234	15.700	883.692	665.853
257.249	15.720	882.953	665.318
258.263	15.807	882.192	665.029
259.278	15.730	881.838	664.400
260.293	15.872	880.705	664.045
261.307	16.031	880.113	664.167
262.322	16.030	879.525	663.663
263.336	16.010	879.083	663.192
264.351	15.987	878.384	662.513
265.366	15.978	877.941	662.088
266.380	16.018	877.252	661.663
267.395	16.026	876.429	661.016
268.409	16.097	875.507	660.540
269.424	16.081	874.734	659.838
270.439	15.868	874.412	658.704
271.453	15.845	873.864	658.141
272.468	15.868	873.584	657.963
273.482	15.901	872.607	657.298
274.497	16.070	871.827	657.309
275.512	16.020	871.422	656.751
276.526	16.109	870.918	656.661
277.541	15.874	870.771	655.577
278.555	16.054	870.125	655.734
279.570	16.177	869.290	655.522
280.585	16.164	868.508	654.823
281.599	16.162	867.498	653.998
282.614	16.319	866.507	653.799
283.628	16.177	866.506	653.192
284.643	16.415	865.569	653.347
285.657	16.159	864.979	651.856
286.672	16.318	864.342	651.934
287.687	16.375	863.465	651.434
288.701	16.308	862.965	650.740
289.716	16.160	863.054	650.178
290.730	16.160	862.721	649.872
291.745	16.397	861.668	649.932
292.760	16.289	860.685	648.719
293.774	16.428	860.682	649.191
294.789	16.415	859.579	648.252
295.803	16.410	858.490	647.356
296.818	16.327	858.526	647.006
297.833	16.397	857.265	646.267
298.847	16.418	857.075	646.147
299.862	16.418	856.442	645.613
300.876	16.519	855.881	645.519
301.891	16.306	856.234	644.914
302.906	16.596	855.060	645.079
303.920	16.467	854.464	644.082
304.935	16.528	854.146	644.017
305.949	16.509	853.366	643.298
306.964	16.565	852.817	643.041
307.979	16.707	851.913	642.840
308.993	16.617	851.720	642.297
310.008	16.622	850.964	641.691
311.022	16.631	850.466	641.292
312.037	16.641	849.570	640.597
313.052	16.562	849.431	640.137
314.066	16.658	848.511	639.747
315.081	16.650	848.115	639.365
316.095	16.715	847.284	638.928
317.110	16.547	846.950	637.985
318.125	16.541	846.733	637.742
319.139	16.596	845.938	637.294
320.154	16.773	845.299	637.423
321.168	16.789	845.246	637.384
322.183	16.793	844.301	636.633
323.197	16.861	843.809	636.461
324.212	16.823	843.418	635.965
325.227	16.851	842.662	635.446
326.241	16.719	842.172	634.524
327.256	16.680	841.876	634.098
328.270	16.894	840.908	634.113
329.285	16.753	840.597	633.295
330.300	16.895	839.967	633.295
331.314	16.823	839.184	632.380
332.329	16.782	838.957	632.002
333.343	16.860	838.290	631.735
334.358	16.872	838.076	631.560
335.373	17.025	837.493	631.637
336.387	16.747	837.605	630.628
337.402	17.010	837.211	631.254
338.416	16.982	837.052	630.976
339.431	16.995	836.373	630.456
340.446	17.060	836.016	630.372
341.460	17.017	835.650	629.881
342.475	17.189	835.024	629.991
343.489	17.148	834.460	629.357
344.504	17.127	834.141	628.983
345.519	17.265	833.602	629.033
346.533	17.172	833.425	628.500
347.548	17.069	832.426	627.311
348.562	17.230	832.047	627.564
349.577	17.127	831.392	626.635
350.592	17.157	831.101	626.471
351.606	17.176	830.168	625.782
352.621	17.271	829.312	625.430
353.635	17.278	828.567	624.839
354.650	17.223	828.359	624.426
355.665	17.176	827.732	623.724
356.679	17.363	826.911	623.736
357.694	17.375	826.338	623.292
358.708	17.237	825.873	622.379
359.723	17.259	825.353	622.013
360.738	17.428	824.607	622.016
361.752	17.298	823.756	620.845
362.767	17.328	823.375	620.612
363.781	17.379	823.210	620.617
364.796	17.456	822.786	620.523
365.810	17.339	822.387	619.740
366.825	17.540	821.864	620.023
367.840	17.667	820.913	619.714
368.854	17.546	820.805	619.137
369.869	17.559	820.244	618.706
370.883	17.538	820.153	618.509
371.898	17.604	819.759	618.397
372.913	17.519	819.645	617.946
373.927	17.614	819.220	617.917
374.942	17.714	818.536	617.707
375.956	17.663	817.622	616.780
376.971	17.789	816.997	616.706
377.986	17.740	816.743	616.284
379.000	17.786	816.321	616.077
380.015	17.860	815.767	615.873
381.029	17.765	815.612	615.359
382.044	17.778	814.803	614.739
383.059	17.783	814.216	614.259
384.073	17.853	813.779	614.128
385.088	17.793	813.293	613.492
386.102	17.736	812.680	612.770
387.117	17.835	811.879	612.467
388.132	17.826	811.572	612.150
389.146	17.857	810.844	611.656
390.161	18.027	810.404	611.881
391.175	18.001	810.020	611.442
392.190	17.851	809.605	610.539
393.205	17.961	809.044	610.454
394.219	17.981	808.593	610.131
395.234	17.953	808.405	609.835
396.248	17.771	808.522	609.218
397.263	17.901	807.519	608.875
398.278	17.999	807.013	608.788
399.292	17.871	806.708	608.047
400.307	17.942	806.347	607.977
401.321	17.892	805.745	607.291
402.336	17.949	805.037	606.905
403.350	18.169	804.455	607.194
404.365	18.087	804.525	606.903
405.380	18.129	803.825	606.467
406.394	18.166	803.140	606.029
407.409	18.050	803.056	605.501
408.423	18.159	802.724	605.583
409.438	18.175	802.129	605.138
410.453	18.290	801.359	604.910
411.467	18.178	801.117	604.278
412.482	18.180	800.836	604.018
413.496	18.385	800.279	604.270
414.511	18.132	800.171	603.240
415.526	18.245	799.422	603.021
416.540	18.382	798.801	602.982
417.555	18.281	798.776	602.554
418.569	18.388	798.099	602.366
419.584	18.544	797.699	602.561
420.599	18.416	797.319	601.769
421.613	109.824	1288.893	1460.131
422.628	94.528	1360.481	1460.225
