DTS Sentinel unit serial number:	SN413079Multiplexer serial number:	ORYXHardware model number:	OX4-SRSoftware version number:	ORYX F/W v4.00 Oryx Data Collector v3.7.2.0data status	okinstallation	princeton_trtdifferential loss correction	single-endedforward channel	channel 1reverse channel	N/Adate	2019/09/16time	09:22:35forward acquisition time	60.00reverse acquisition time	0.00gamma	496.2192k internal	0.2323k external	0.2323temperature offset calibration	0.9971default loss term (dB/km)	0.3790temperature slope calibration	1.0000multiplexer offset coefficient	1.0000multiplexer slope coefficient	1.0000fibre end	0.00T internal ref (°C)	31.47T ext. ref 1 (°C)	12.16T ext. ref 2 (°C)	29.12length (m)	temperature (°C)	Stokes	anti-Stokes-747.200	-17.992	-0.156	-0.099
-746.185	800.000	-0.063	-0.194
-745.171	-200.000	-0.045	0.216
-744.156	-26.159	-0.110	0.065
-743.142	-121.849	-0.226	-0.038
-742.127	800.000	0.084	0.245
-741.112	17.733	-0.110	0.089
-740.098	118.106	0.221	0.275
-739.083	-200.000	0.055	0.269
-738.069	93.794	0.044	-0.050
-737.054	212.268	-0.089	0.141
-736.039	-80.358	-0.247	-0.083
-735.025	-200.000	0.023	0.141
-734.010	280.140	-0.133	0.240
-732.996	114.204	-0.162	-0.199
-731.981	-200.000	-0.268	-0.000
-730.966	-154.625	-0.462	0.031
-729.952	586.117	0.062	0.153
-728.937	-39.213	-0.206	-0.109
-727.923	-168.523	0.066	0.003
-726.908	268.054	-0.179	0.316
-725.894	406.319	-0.069	0.146
-724.879	297.399	-0.071	-0.131
-723.864	-200.000	-0.040	0.288
-722.850	186.761	0.028	-0.043
-721.835	-133.228	0.021	0.003
-720.821	-200.000	0.011	-0.085
-719.806	800.000	-0.055	-0.161
-718.791	-200.000	-0.011	0.073
-717.777	-44.095	-0.218	0.110
-716.762	102.604	-0.289	-0.342
-715.748	-200.000	0.022	0.197
-714.733	-54.351	-0.126	-0.058
-713.718	-200.000	0.007	-0.182
-712.704	-76.229	-0.217	-0.077
-711.689	-131.010	0.163	-0.022
-710.675	-95.661	0.340	-0.092
-709.660	67.723	0.183	0.189
-708.645	-105.164	-0.311	0.072
-707.631	260.098	-0.158	-0.275
-706.616	800.000	-0.072	-0.215
-705.602	417.732	-0.063	-0.137
-704.587	55.964	0.195	0.191
-703.572	224.401	0.070	0.114
-702.558	-22.789	-0.134	-0.082
-701.543	800.000	-0.033	0.139
-700.529	108.662	0.115	-0.138
-699.514	-200.000	-0.004	-0.291
-698.499	-53.389	0.164	0.076
-697.485	-200.000	0.030	0.282
-696.470	86.002	-0.248	0.275
-695.456	-96.827	-0.109	0.029
-694.441	222.875	-0.180	-0.292
-693.426	762.542	-0.058	-0.159
-692.412	-200.000	-0.008	0.142
-691.397	23.994	-0.140	-0.116
-690.383	198.203	-0.169	-0.261
-689.368	152.357	0.194	0.267
-688.354	111.327	-0.034	0.041
-687.339	226.041	0.100	-0.164
-686.324	277.789	0.158	-0.283
-685.310	-200.000	0.022	0.200
-684.295	587.925	-0.094	0.232
-683.281	-191.619	0.327	0.003
-682.266	-125.304	0.162	-0.025
-681.251	-77.432	0.140	-0.049
-680.237	-200.000	-0.025	-0.164
-679.222	162.667	-0.135	-0.191
-678.208	-56.089	-0.278	-0.125
-677.193	242.911	0.062	-0.104
-676.178	197.434	-0.142	0.218
-675.164	-155.734	0.398	0.026
-674.149	-113.977	-0.344	-0.067
-673.135	-11.596	0.205	-0.135
-672.120	-56.533	0.114	0.051
-671.105	-87.218	-0.230	-0.070
-670.091	381.432	-0.134	-0.278
-669.076	604.798	0.021	-0.053
-668.062	455.781	-0.064	0.143
-667.047	-42.723	0.315	-0.161
-666.032	87.303	0.168	-0.188
-665.018	-200.000	0.017	0.167
-664.003	-128.811	0.266	0.038
-662.989	-107.398	-0.104	0.023
-661.974	-200.000	-0.014	0.271
-660.959	-200.000	0.011	0.254
-659.945	-1.213	-0.241	-0.172
-658.930	800.000	0.072	-0.246
-657.916	-30.473	0.220	-0.126
-656.901	-41.583	0.203	-0.105
-655.886	154.573	0.109	0.151
-654.872	108.391	-0.011	0.013
-653.857	-47.703	-0.404	0.197
-652.843	-23.807	-0.230	0.139
-651.828	314.231	-0.112	-0.213
-650.814	-200.000	0.022	-0.184
-649.799	27.743	0.201	0.170
-648.784	-200.000	-0.006	0.085
-647.770	482.651	-0.021	0.048
-646.755	-200.000	0.019	0.202
-645.741	-25.563	0.341	0.203
-644.726	-200.000	-0.019	-0.308
-643.711	12.216	0.266	0.206
-642.697	-114.140	0.208	0.041
-641.682	-200.000	-0.038	0.492
-640.668	-200.000	-0.018	0.156
-639.653	-200.000	0.071	-0.334
-638.638	800.000	-0.085	-0.269
-637.624	133.702	-0.024	0.031
-636.609	432.977	0.056	-0.122
-635.595	-153.463	-0.154	0.011
-634.580	-200.000	0.039	-0.230
-633.565	-137.762	-0.325	-0.037
-632.551	-128.856	-0.233	-0.033
-631.536	-119.138	0.259	-0.046
-630.522	-200.000	-0.029	-0.459
-629.507	800.000	0.069	-0.274
-628.492	109.826	0.147	0.177
-627.478	-200.000	-0.037	-0.180
-626.463	-200.000	-0.009	-0.078
-625.449	-104.096	-0.124	-0.029
-624.434	-29.652	-0.266	-0.153
-623.419	-200.000	0.004	-0.177
-622.405	-200.000	0.016	-0.171
-621.390	-13.835	0.152	0.099
-620.376	-30.827	0.131	0.074
-619.361	-150.243	-0.368	-0.029
-618.346	147.013	-0.225	0.304
-617.332	800.000	-0.049	-0.173
-616.317	36.241	0.191	-0.169
-615.303	-102.975	-0.200	-0.048
-614.288	2.015	-0.097	0.070
-613.273	-59.937	-0.208	-0.089
-612.259	339.596	-0.172	0.337
-611.244	3.865	-0.160	-0.118
-610.230	49.384	0.154	0.146
-609.215	-173.603	0.117	-0.004
-608.201	-60.663	-0.212	-0.090
-607.186	-135.215	-0.086	-0.010
-606.171	-200.000	0.009	-0.058
-605.157	9.290	0.177	0.135
-604.142	32.881	0.288	0.251
-603.128	800.000	-0.042	-0.146
-602.113	357.805	0.088	-0.176
-601.098	23.620	-0.112	-0.092
-600.084	200.744	0.133	-0.205
-599.069	313.180	-0.069	0.130
-598.055	-26.492	0.194	0.114
-597.040	161.338	-0.117	-0.164
-596.025	-200.000	0.028	0.126
-595.011	105.247	0.067	-0.080
-593.996	199.385	-0.117	-0.180
-592.982	-5.113	-0.138	-0.096
-591.967	-200.000	0.043	-0.229
-590.952	-200.000	-0.020	-0.351
-589.938	-16.361	-0.248	-0.158
-588.923	-132.586	-0.411	0.053
-587.909	-200.000	-0.001	-0.088
-586.894	537.172	-0.080	0.190
-585.879	-140.527	0.168	-0.017
-584.865	-12.985	-0.447	0.292
-583.850	800.000	-0.072	0.223
-582.836	800.000	0.006	0.021
-581.821	48.094	-0.216	0.203
-580.806	800.000	0.094	-0.338
-579.792	-137.743	0.108	0.012
-578.777	-200.000	-0.021	0.213
-577.763	239.048	-0.244	0.406
-576.748	356.426	-0.178	0.357
-575.733	800.000	-0.098	-0.290
-574.719	-190.406	-0.194	0.002
-573.704	-177.314	-0.348	0.009
-572.690	800.000	0.100	0.290
-571.675	-63.476	-0.163	-0.067
-570.661	-131.231	0.263	-0.035
-569.646	-160.033	0.160	0.009
-568.631	800.000	0.007	-0.020
-567.617	5.926	0.145	0.107
-566.602	256.469	0.039	0.066
-565.588	189.832	0.029	0.043
-564.573	800.000	0.036	0.159
-563.558	112.473	0.182	0.221
-562.544	-200.000	0.003	-0.338
-561.529	-70.152	-0.341	-0.130
-560.515	-92.423	0.554	0.156
-559.500	68.769	0.232	-0.239
-558.485	192.957	0.330	-0.500
-557.471	-169.782	-0.181	0.007
-556.456	378.995	0.150	-0.308
-555.442	-200.000	-0.014	0.150
-554.427	-156.294	-0.396	-0.025
-553.412	-200.000	-0.032	-0.145
-552.398	-200.000	-0.011	-0.107
-551.383	-96.566	0.305	0.081
-550.369	-200.000	0.021	0.271
-549.354	-8.082	0.185	0.125
-548.339	-200.000	-0.058	-0.329
-547.325	-200.000	0.018	-0.171
-546.310	-33.090	0.239	0.133
-545.296	-81.033	0.183	0.061
-544.281	-52.378	0.292	0.136
-543.266	-200.000	-0.023	-0.304
-542.252	-70.981	-0.178	-0.067
-541.237	439.261	-0.097	-0.213
-540.223	105.744	-0.216	0.256
-539.208	-167.292	0.444	-0.018
-538.193	238.606	0.151	0.251
-537.179	-6.975	-0.136	-0.093
-536.164	317.067	0.094	0.178
-535.150	800.000	-0.061	0.261
-534.135	-91.940	0.086	-0.024
-533.121	74.797	-0.159	0.168
-532.106	101.353	-0.102	-0.119
-531.091	-58.936	0.137	0.059
-530.077	107.165	0.113	-0.135
-529.062	-200.000	0.021	-0.187
-528.048	207.240	0.036	-0.056
-527.033	29.857	-0.146	0.125
-526.018	307.368	0.092	-0.172
-525.004	31.989	-0.048	-0.041
-523.989	-17.655	-0.148	0.093
-522.975	-200.000	-0.020	-0.181
-521.960	29.302	-0.100	-0.085
-520.945	-6.688	0.183	-0.124
-519.931	168.473	0.038	-0.054
-518.916	-97.765	-0.159	-0.041
-517.902	-101.104	-0.211	-0.052
-516.887	150.991	-0.166	-0.226
-515.872	-127.419	0.200	-0.029
-514.858	245.432	0.168	0.282
-513.843	61.298	-0.139	0.138
-512.829	515.367	-0.169	-0.395
-511.814	90.716	-0.259	0.291
-510.799	-124.588	0.084	0.013
-509.785	-129.543	-0.136	0.019
-508.770	-200.000	-0.018	-0.088
-507.756	-111.482	-0.060	-0.012
-506.741	278.119	-0.076	-0.136
-505.726	38.002	0.046	-0.041
-504.712	213.842	-0.063	0.100
-503.697	-21.470	0.138	0.084
-502.683	-105.864	0.252	-0.057
-501.668	-71.919	-0.045	0.017
-500.653	329.992	0.100	-0.193
-499.639	279.897	-0.022	-0.040
-498.624	-16.386	0.162	0.103
-497.610	-69.923	-0.172	-0.066
-496.595	800.000	-0.080	-0.327
-495.581	-200.000	0.018	0.118
-494.566	17.358	0.106	0.084
-493.551	-92.550	0.188	-0.053
-492.537	-164.532	0.408	-0.019
-491.522	-200.000	-0.060	0.345
-490.508	78.497	-0.278	0.297
-489.493	78.617	0.076	0.082
-488.478	-72.100	-0.307	-0.114
-487.464	-18.867	-0.278	-0.173
-486.449	-200.000	-0.008	0.365
-485.435	-200.000	0.015	0.245
-484.420	218.503	-0.020	0.033
-483.405	-95.751	0.384	-0.103
-482.391	-200.000	-0.036	0.213
-481.376	706.146	-0.092	-0.244
-480.362	82.435	0.204	-0.221
-479.347	-148.511	0.220	0.018
-478.332	-168.128	-0.279	0.011
-477.318	102.109	0.105	-0.122
-476.303	-147.905	0.413	-0.034
-475.289	-130.201	0.347	0.047
-474.274	-23.081	0.359	-0.216
-473.259	162.406	0.218	-0.306
-472.245	-200.000	-0.036	-0.162
-471.230	-120.281	-0.206	0.035
-470.216	-200.000	-0.015	0.311
-469.201	-19.409	0.172	-0.107
-468.186	-92.676	0.109	0.031
-467.172	-107.253	-0.326	-0.072
-466.157	0.476	0.029	-0.020
-465.143	455.842	-0.083	-0.183
-464.128	-67.985	0.379	-0.148
-463.113	-126.329	0.069	-0.010
-462.099	800.000	0.053	-0.212
-461.084	-200.000	-0.048	0.212
-460.070	794.550	-0.124	0.340
-459.055	119.673	0.202	0.249
-458.040	-99.372	-0.035	-0.009
-457.026	-82.710	0.151	0.049
-456.011	301.870	0.058	0.107
-454.997	-200.000	0.032	0.142
-453.982	61.279	-0.249	-0.247
-452.968	208.281	-0.028	-0.043
-451.953	78.976	0.051	-0.055
-450.938	-200.000	0.025	0.147
-449.924	-61.565	-0.176	0.074
-448.909	-97.004	0.140	0.037
-447.895	-184.325	0.055	0.001
-446.880	800.000	-0.030	-0.129
-445.865	800.000	0.022	-0.061
-444.851	800.000	-0.024	0.080
-443.836	-200.000	0.012	0.149
-442.822	-81.176	-0.188	0.062
-441.807	121.069	-0.257	0.319
-440.792	62.700	0.371	-0.370
-439.778	48.749	0.096	-0.090
-438.763	-71.522	-0.453	-0.169
-437.749	800.000	-0.008	0.029
-436.734	-200.000	-0.014	0.260
-435.719	-132.422	0.106	0.014
-434.705	2.802	0.103	0.075
-433.690	-200.000	-0.019	-0.206
-432.676	-14.488	-0.155	-0.099
-431.661	-184.797	-0.055	-0.001
-430.646	-70.197	0.196	-0.074
-429.632	-102.534	-0.414	-0.099
-428.617	161.333	0.039	-0.055
-427.603	-20.849	0.147	-0.090
-426.588	-200.000	0.008	0.050
-425.573	-190.532	-0.456	0.005
-424.559	72.594	0.105	0.109
-423.544	-19.335	-0.013	0.008
-422.530	-188.543	0.344	-0.004
-421.515	-48.733	-0.321	0.154
-420.500	800.000	-0.042	0.178
-419.486	-17.939	-0.247	0.155
-418.471	79.587	-0.058	-0.062
-417.457	800.000	-0.048	-0.154
-416.442	363.242	-0.054	-0.109
-415.428	-38.215	0.409	0.216
-414.413	-26.014	-0.140	-0.082
-413.398	-35.557	0.170	0.092
-412.384	-87.987	0.206	0.062
-411.369	-200.000	-0.003	0.151
-410.355	-200.000	0.026	0.223
-409.340	-98.578	0.125	-0.032
-408.325	-123.780	-0.282	0.044
-407.311	154.729	0.097	0.133
-406.296	91.157	-0.292	0.326
-405.282	724.606	0.030	-0.078
-404.267	279.020	-0.134	0.238
-403.252	8.671	-0.099	0.074
-402.238	-77.741	0.222	-0.076
-401.223	-27.751	-0.099	-0.057
-400.209	-110.023	0.146	0.030
-399.194	800.000	-0.072	-0.201
-398.179	5.489	0.186	0.137
-397.165	45.980	-0.066	0.061
-396.150	435.944	0.060	0.130
-395.136	282.507	-0.040	-0.072
-394.121	-79.458	0.286	0.096
-393.106	800.000	-0.036	-0.129
-392.092	347.329	-0.051	0.101
-391.077	800.000	0.043	-0.129
-390.063	111.733	-0.140	0.168
-389.048	214.765	0.110	0.173
-388.033	-200.000	0.003	0.024
-387.019	-71.138	-0.468	-0.175
-386.004	-92.533	-0.059	0.016
-384.990	180.668	0.120	0.175
-383.975	-132.327	-0.060	0.008
-382.960	-87.401	0.264	0.080
-381.946	727.736	0.042	-0.112
-380.931	-7.885	-0.266	0.179
-379.917	-18.691	-0.218	0.135
-378.902	542.694	0.028	-0.067
-377.888	155.462	-0.210	-0.287
-376.873	201.801	0.085	-0.130
-375.858	-85.014	-0.447	0.140
-374.844	-200.000	-0.012	-0.141
-373.829	220.143	0.137	0.218
-372.815	278.799	0.137	0.244
-371.800	-200.000	0.004	-0.105
-370.785	-102.048	0.356	-0.085
-369.771	-164.441	-0.225	-0.010
-368.756	-129.890	-0.214	-0.029
-367.742	-140.649	0.123	-0.013
-366.727	254.209	0.136	0.232
-365.712	-86.838	-0.207	-0.063
-364.698	-25.782	-0.258	0.152
-363.683	-94.484	0.277	-0.075
-362.669	-200.000	0.006	-0.092
-361.654	-200.000	0.028	-0.265
-360.639	188.196	0.052	0.078
-359.625	-172.974	-0.399	-0.012
-358.610	800.000	-0.063	0.205
-357.596	-200.000	-0.021	0.206
-356.581	-68.322	-0.222	-0.086
-355.566	-200.000	-0.137	-0.000
-354.552	38.876	0.365	-0.324
-353.537	-12.607	0.176	-0.114
-352.523	-200.000	0.018	-0.296
-351.508	4.390	0.139	-0.101
-350.493	800.000	0.026	0.089
-349.479	324.026	-0.063	0.120
-348.464	0.348	-0.137	0.097
-347.450	-72.654	-0.035	0.013
-346.435	92.476	0.095	-0.107
-345.420	68.806	-0.114	0.116
-344.406	-200.000	-0.004	0.122
-343.391	-111.466	0.047	-0.010
-342.377	-54.487	-0.455	0.205
-341.362	287.731	-0.127	0.228
-340.348	800.000	-0.064	-0.223
-339.333	-200.000	0.040	0.178
-338.318	144.089	0.047	-0.062
-337.304	36.422	0.227	0.199
-336.289	-131.290	0.144	0.019
-335.275	-74.985	0.153	0.054
-334.260	800.000	0.071	-0.255
-333.245	-200.000	0.027	-0.146
-332.231	-200.000	-0.015	0.238
-331.216	130.623	-0.171	0.217
-330.202	-39.999	-0.178	-0.092
-329.187	-68.379	-0.356	-0.137
-328.172	-41.823	-0.149	0.076
-327.158	-200.000	-0.002	0.017
-326.143	-55.934	0.083	-0.037
-325.129	-200.000	-0.029	0.190
-324.114	522.326	-0.082	0.192
-323.099	75.492	-0.259	0.271
-322.085	183.483	0.033	0.049
-321.070	34.734	0.151	-0.131
-320.056	-4.267	0.321	0.221
-319.041	-200.000	-0.010	-0.242
-318.026	-3.504	-0.180	0.124
-317.012	-27.386	-0.136	-0.078
-315.997	-98.092	-0.189	-0.048
-314.983	800.000	-0.047	-0.163
-313.968	800.000	-0.092	0.307
-312.953	-4.750	-0.136	0.093
-311.939	-44.123	-0.102	-0.051
-310.924	-125.491	-0.155	0.023
-309.910	177.638	-0.116	0.167
-308.895	5.668	0.065	-0.048
-307.880	-82.313	0.161	-0.052
-306.866	-77.855	-0.097	0.033
-305.851	74.428	-0.165	0.172
-304.837	-59.742	0.174	-0.074
-303.822	-200.000	-0.004	-0.020
-302.807	800.000	-0.083	-0.344
-301.793	389.459	-0.092	0.190
-300.778	-67.619	-0.185	-0.072
-299.764	79.407	-0.138	-0.147
-298.749	-3.083	0.119	0.083
-297.735	-59.795	-0.328	0.139
-296.720	-147.407	0.104	-0.009
-295.705	193.199	-0.030	-0.045
-294.691	20.965	-0.261	-0.210
-293.676	-58.352	0.228	-0.098
-292.662	-152.647	0.238	-0.017
-291.647	-98.674	-0.070	-0.018
-290.632	-148.142	0.214	0.018
-289.618	800.000	-0.063	0.271
-288.603	-41.408	0.204	0.104
-287.589	2.160	0.251	0.180
-286.574	431.641	-0.068	-0.145
-285.559	-200.000	0.034	-0.218
-284.545	-143.951	0.189	-0.018
-283.530	-197.083	0.165	0.001
-282.516	-81.781	0.063	-0.021
-281.501	-200.000	0.057	-0.254
-280.486	-92.269	0.097	0.027
-279.472	16.145	-0.121	-0.095
-278.457	-40.575	-0.348	0.179
-277.443	485.124	-0.073	0.165
-276.428	-57.692	0.080	0.035
-275.413	-200.000	-0.020	-0.224
-274.399	-189.937	0.222	-0.002
-273.384	800.000	0.056	0.197
-272.370	18.583	0.111	0.088
-271.355	-179.152	-0.108	0.002
-270.340	12.084	-0.237	-0.181
-269.326	442.677	-0.111	-0.240
-268.311	159.097	-0.067	0.092
-267.297	10.787	0.192	-0.145
-266.282	-200.000	-0.002	-0.013
-265.267	147.765	0.129	-0.173
-264.253	-108.013	-0.157	0.034
-263.238	44.431	0.098	0.089
-262.224	-123.061	0.226	-0.036
-261.209	234.965	-0.066	-0.108
-260.195	800.000	0.094	0.257
-259.180	390.779	-0.185	0.381
-258.165	295.181	0.168	-0.304
-257.151	-24.817	-0.435	0.256
-256.136	-119.428	-0.207	0.036
-255.122	58.628	0.198	0.192
-254.107	-105.011	0.098	-0.022
-253.092	435.410	-0.022	0.048
-252.078	-48.200	-0.030	0.014
-251.063	33.000	0.239	-0.205
-250.049	-73.406	0.400	-0.145
-249.034	-67.990	-0.051	0.020
-248.019	98.852	0.111	0.127
-247.005	-44.538	0.249	0.123
-245.990	-7.336	-0.207	0.139
-244.976	-1.929	0.364	0.253
-243.961	800.000	-0.044	0.176
-242.946	-162.877	-0.139	0.007
-241.932	94.150	0.100	0.113
-240.917	-111.817	-0.189	0.038
-239.903	30.745	0.210	-0.178
-238.888	-140.841	-0.186	-0.019
-237.873	575.258	0.069	0.167
-236.859	800.000	-0.047	0.136
-235.844	-50.713	-0.115	0.054
-234.830	40.063	0.059	0.053
-233.815	163.914	-0.068	-0.095
-232.800	43.228	0.203	-0.183
-231.786	-200.000	-0.007	-0.171
-230.771	-11.304	-0.071	-0.046
-229.757	-73.561	-0.147	-0.053
-228.742	-200.000	-0.014	-0.196
-227.727	-200.000	0.029	-0.151
-226.713	473.685	-0.039	0.086
-225.698	-81.255	0.168	-0.055
-224.684	507.861	0.128	-0.293
-223.669	-99.402	-0.285	0.071
-222.655	-60.348	0.186	0.078
-221.640	800.000	0.099	0.276
-220.625	14.188	0.163	-0.126
-219.611	-108.535	0.314	-0.067
-218.596	-32.828	-0.062	-0.034
-217.582	-81.385	-0.272	0.089
-216.567	156.397	-0.123	-0.169
-215.552	-36.272	0.212	0.113
-214.538	100.015	-0.066	0.076
-213.523	-19.748	0.189	0.116
-212.509	92.286	-0.069	-0.076
-211.494	-200.000	-0.019	0.164
-210.479	-200.000	-0.002	-0.034
-209.465	574.693	-0.055	0.132
-208.450	-6.344	0.113	-0.076
-207.436	-76.571	0.441	-0.153
-206.421	61.924	-0.130	0.129
-205.406	-52.503	-0.182	-0.083
-204.392	800.000	0.102	-0.327
-203.377	438.734	0.063	-0.136
-202.363	-11.960	-0.144	-0.093
-201.348	-133.065	-0.223	0.028
-200.333	-200.000	0.010	0.139
-199.319	156.072	0.106	-0.144
-198.304	-200.000	0.070	-0.370
-197.290	-55.475	-0.264	-0.117
-196.275	800.000	-0.026	-0.104
-195.260	-200.000	-0.000	-0.398
-194.246	-51.543	0.214	-0.099
-193.231	-17.345	0.235	-0.147
-192.217	729.191	-0.081	-0.215
-191.202	-200.000	-0.041	-0.213
-190.187	225.470	0.206	0.330
-189.173	-200.000	-0.017	-0.120
-188.158	165.293	0.075	0.105
-187.144	-26.897	0.376	0.217
-186.129	800.000	-0.052	0.212
-185.114	749.265	-0.033	0.088
-184.100	661.182	0.058	0.147
-183.085	52.698	0.138	-0.131
-182.071	-81.958	0.401	-0.129
-181.056	-116.945	0.084	-0.015
-180.042	63.520	0.121	0.120
-179.027	-121.508	-0.175	-0.029
-178.012	-93.868	0.181	0.049
-176.998	494.095	-0.050	-0.112
-175.983	-146.385	0.165	0.014
-174.969	-140.562	-0.298	-0.031
-173.954	-200.000	-0.026	-0.246
-172.939	-161.826	0.301	-0.015
-171.925	82.419	0.103	-0.110
-170.910	13.520	0.101	-0.077
-169.896	-200.000	-0.022	0.277
-168.881	800.000	-0.040	0.115
-167.866	800.000	-0.042	0.119
-166.852	254.171	0.146	0.247
-165.837	36.208	-0.247	0.215
-164.823	-197.240	-0.149	0.001
-163.808	-45.927	-0.330	-0.161
-162.793	779.318	0.103	0.279
-161.779	-125.095	0.097	0.015
-160.764	35.757	-0.348	-0.302
-159.750	800.000	0.035	0.140
-158.735	-200.000	-0.001	-0.032
-157.720	399.949	-0.046	0.095
-156.706	123.589	-0.164	-0.203
-155.691	113.959	0.095	-0.115
-154.677	-200.000	-0.018	-0.428
-153.662	-200.000	0.076	0.415
-152.647	-125.110	0.085	-0.013
-151.633	77.830	-0.083	-0.088
-150.618	-62.884	0.308	0.126
-149.604	276.318	-0.145	-0.254
-148.589	177.753	-0.106	-0.153
-147.574	169.162	0.271	0.382
-146.560	-132.523	0.220	-0.028
-145.545	177.942	0.071	-0.103
-144.531	-83.671	0.256	-0.081
-143.516	61.329	-0.059	0.058
-142.502	-28.411	0.055	0.031
-141.487	171.675	-0.133	-0.189
-140.472	800.000	-0.107	-0.367
-139.458	-94.796	-0.490	-0.131
-138.443	-164.869	0.310	0.014
-137.429	-200.000	0.061	-0.330
-136.414	293.086	-0.057	0.103
-135.399	-200.000	0.021	0.155
-134.385	365.958	-0.150	0.298
-133.370	800.000	0.015	0.059
-132.356	6.513	-0.187	0.137
-131.341	-87.200	-0.317	-0.095
-130.326	0.142	0.150	0.106
-129.312	-148.645	0.035	0.003
-128.297	-24.627	-0.257	-0.151
-127.283	-131.829	-0.378	0.049
-126.268	-103.256	0.125	-0.029
-125.253	355.020	0.038	0.075
-124.239	156.122	-0.292	0.397
-123.224	-52.724	0.234	0.106
-122.210	58.280	0.223	0.215
-121.195	27.581	-0.217	0.180
-120.180	-200.000	-0.132	0.001
-119.166	86.050	-0.044	-0.047
-118.151	-87.909	-0.173	-0.051
-117.137	3.236	0.190	0.137
-116.122	-46.746	-0.214	-0.103
-115.107	-196.485	0.292	0.002
-114.093	6.928	-0.004	0.003
-113.078	-200.000	-0.022	0.103
-112.064	262.390	0.117	0.201
-111.049	7.201	0.271	0.199
-110.034	103.561	-0.088	-0.101
-109.020	-200.000	-0.029	-0.220
-108.005	165.044	0.075	-0.104
-106.991	800.000	0.032	0.132
-105.976	-96.190	0.287	-0.075
-104.962	65.048	0.092	0.091
-103.947	-200.000	-0.004	-0.086
-102.932	-16.673	-0.147	-0.091
-101.918	-61.292	0.233	0.097
-100.903	-51.328	-0.296	0.137
-99.889	-200.000	0.018	0.180
-98.874	-12.526	0.351	0.225
-97.859	-200.000	-0.015	-0.067
-96.845	-129.028	0.251	0.035
-95.830	-25.770	-0.140	0.082
-94.816	-56.142	-0.107	-0.047
-93.801	-51.661	-0.070	0.032
-92.786	800.000	0.079	0.314
-91.772	-48.231	0.518	-0.246
-90.757	331.696	0.030	-0.057
-89.743	-20.464	0.146	0.089
-88.728	-137.973	-0.574	-0.063
-87.713	-19.163	0.121	-0.074
-86.699	150.683	0.165	-0.221
-85.684	-116.522	0.060	0.011
-84.670	133.354	-0.115	-0.146
-83.655	221.631	0.172	-0.273
-82.640	-200.000	0.048	0.480
-81.626	-3.085	-0.194	0.133
-80.611	-10.701	-0.096	0.062
-79.597	24.244	0.467	0.380
-78.582	6.818	0.340	0.249
-77.567	597.504	-0.120	0.293
-76.553	-200.000	-0.029	0.195
-75.538	126.844	-0.085	0.106
-74.524	-71.271	-0.279	0.103
-73.509	-69.714	-0.170	0.064
-72.494	-23.783	0.113	0.067
-71.480	-200.000	-0.005	0.188
-70.465	-31.854	0.153	0.085
-69.451	-139.094	-0.230	-0.024
-68.436	-106.468	0.362	-0.079
-67.422	222.052	-0.138	0.218
-66.407	-153.149	-0.084	-0.006
-65.392	-111.500	0.249	-0.050
-64.378	355.545	0.098	-0.192
-63.363	-200.000	-0.076	-0.350
-62.349	-85.100	0.262	0.081
-61.334	85.984	-1.042	-1.127
-60.319	43.603	0.400	0.360
-59.305	-200.000	0.035	-1.269
-58.290	32.293	0.699	0.593
-57.276	442.196	0.774	1.667
-56.261	-200.000	94.683	585.483
-55.246	544.626	1397.051	3280.421
-54.232	156.967	2581.209	3507.609
-53.217	112.499	2172.325	2584.179
-52.203	43.669	1622.524	1459.373
-51.188	34.998	1354.923	1166.090
-50.173	31.769	1312.717	1110.619
-49.159	54.273	1358.910	1285.713
-48.144	56.228	1375.487	1313.108
-47.130	35.264	1335.411	1150.714
-46.115	31.644	1317.821	1114.020
-45.100	31.473	1313.014	1108.899
-44.086	31.415	1310.954	1106.771
-43.071	31.335	1308.149	1103.885
-42.057	31.392	1305.695	1102.106
-41.042	31.376	1304.161	1100.677
-40.027	31.311	1302.987	1099.260
-39.013	31.430	1300.943	1098.186
-37.998	31.393	1299.503	1096.712
-36.984	31.447	1297.565	1095.349
-35.969	31.465	1295.594	1093.746
-34.954	31.577	1293.323	1092.439
-33.940	31.533	1292.133	1091.138
-32.925	31.564	1291.326	1090.594
-31.911	31.561	1289.918	1089.342
-30.896	31.645	1287.496	1087.744
-29.881	31.594	1286.713	1086.741
-28.867	31.616	1285.199	1085.545
-27.852	31.521	1283.878	1083.840
-26.838	31.614	1282.206	1082.922
-25.823	31.527	1281.155	1081.486
-24.809	31.669	1279.945	1081.243
-23.794	31.524	1278.708	1079.317
-22.779	31.539	1277.231	1078.113
-21.765	31.551	1275.813	1076.943
-20.750	31.509	1274.694	1075.718
-19.736	31.427	1273.135	1073.887
-18.721	31.312	1272.685	1072.803
-17.706	31.452	1271.419	1072.498
-16.692	31.512	1269.118	1070.859
-15.677	31.346	1268.896	1069.679
-14.663	31.315	1268.059	1068.751
-13.648	31.348	1266.457	1067.549
-12.633	31.456	1265.227	1067.083
-11.619	31.448	1264.235	1066.162
-10.604	31.391	1263.856	1065.474
-9.590	31.327	1263.153	1064.473
-8.575	31.379	1261.448	1063.291
-7.560	31.358	1260.710	1062.507
-6.546	31.449	1259.712	1062.140
-5.531	31.364	1259.293	1061.262
-4.517	31.558	1257.889	1061.136
-3.502	31.444	1257.300	1059.951
-2.487	31.342	1256.616	1058.758
-1.473	31.370	1252.887	1055.732
-0.458	30.732	1237.938	1039.530
0.556	26.467	1222.332	1007.224
1.571	23.250	1228.339	994.057
2.586	22.300	1243.247	1000.629
3.600	21.775	1232.319	988.788
4.615	19.129	1164.544	920.199
5.629	14.608	1094.924	842.340
6.644	12.274	1076.973	816.858
7.659	12.167	1074.660	814.497
8.673	12.187	1072.972	813.248
9.688	12.032	1071.715	811.454
10.702	12.310	1070.189	811.601
11.717	15.303	1073.891	829.160
12.731	18.779	1078.093	849.553
13.746	18.871	1077.059	849.119
14.761	17.758	1075.213	842.096
15.775	16.723	1072.805	835.031
16.790	15.589	1071.179	828.109
17.804	14.876	1069.059	822.887
18.819	14.404	1067.868	819.578
19.834	14.138	1066.958	817.500
20.848	13.870	1066.192	815.524
21.863	13.518	1065.807	813.428
22.877	13.410	1064.771	812.034
23.892	13.378	1064.132	811.318
24.907	13.561	1062.897	811.204
25.921	13.483	1062.159	810.186
26.936	13.443	1061.211	809.195
27.950	13.541	1059.471	808.275
28.965	13.697	1057.636	807.562
29.980	13.687	1056.278	806.407
30.994	13.639	1055.486	805.500
32.009	13.747	1054.214	804.980
33.023	13.643	1053.109	803.559
34.038	13.724	1051.766	802.855
35.053	13.689	1051.230	802.207
36.067	13.683	1050.189	801.311
37.082	13.732	1048.756	800.385
38.096	13.737	1048.395	800.064
39.111	13.734	1047.939	799.628
40.126	13.626	1046.502	797.941
41.140	13.461	1045.011	795.942
42.155	13.484	1043.970	795.190
43.169	13.424	1042.813	793.948
44.184	13.560	1041.474	793.511
45.199	13.420	1041.072	792.464
46.213	13.464	1039.899	791.710
47.228	13.533	1039.094	791.361
48.242	13.540	1037.848	790.372
49.257	13.619	1036.695	789.799
50.271	13.517	1035.999	788.715
51.286	13.689	1034.756	788.517
52.301	13.661	1033.961	787.710
53.315	13.548	1033.213	786.531
54.330	13.571	1031.909	785.580
55.344	13.614	1030.937	784.973
56.359	13.561	1030.064	783.988
57.374	13.507	1029.390	783.151
58.388	13.370	1028.732	781.933
59.403	13.400	1027.961	781.420
60.417	13.409	1026.950	780.624
61.432	13.463	1025.646	779.821
62.447	13.343	1025.271	778.903
63.461	13.454	1024.316	778.629
64.476	13.404	1023.733	777.883
65.490	13.361	1022.934	777.001
66.505	13.346	1022.150	776.267
67.520	13.414	1021.413	775.958
68.534	13.483	1020.637	775.622
69.549	13.285	1020.250	774.332
70.563	13.340	1019.125	773.671
71.578	13.353	1018.806	773.417
72.593	13.277	1017.920	772.324
73.607	13.232	1017.458	771.696
74.622	13.343	1016.152	771.152
75.636	13.150	1016.074	770.124
76.651	13.303	1014.928	769.901
77.666	13.280	1014.466	769.373
78.680	13.337	1013.653	768.958
79.695	13.238	1013.413	768.247
80.709	13.428	1012.867	768.647
81.724	13.518	1011.450	767.921
82.739	13.507	1010.988	767.448
83.753	13.642	1010.296	767.484
84.768	13.717	1009.347	767.043
85.782	13.785	1008.497	766.641
86.797	13.633	1007.569	765.165
87.812	13.564	1007.214	764.509
88.826	13.629	1005.558	763.485
89.841	13.682	1004.562	762.907
90.855	13.742	1003.790	762.530
91.870	13.690	1003.140	761.729
92.884	13.626	1002.208	760.659
93.899	13.767	1001.101	760.397
94.914	13.641	1001.334	759.928
95.928	13.769	999.298	758.904
96.943	13.742	998.729	758.279
97.957	13.679	998.058	757.417
98.972	13.731	997.169	756.912
99.987	13.662	996.613	756.107
101.001	13.662	995.045	754.852
102.016	13.663	994.578	754.433
103.030	13.664	993.780	753.769
104.045	13.679	993.119	753.268
105.060	13.661	992.354	752.538
106.074	13.609	991.286	751.428
107.089	13.480	990.281	750.016
108.103	13.583	989.352	749.708
109.118	13.573	988.638	749.060
110.133	13.449	987.470	747.546
111.147	13.502	986.703	747.138
112.162	13.586	985.968	746.896
113.176	13.663	985.342	746.701
114.191	13.560	985.040	745.941
115.206	13.591	984.023	745.244
116.220	13.634	983.093	744.668
117.235	13.654	982.033	743.889
118.249	13.574	981.573	743.116
119.264	13.491	980.744	742.049
120.279	13.505	980.163	741.610
121.293	13.525	979.434	741.082
122.308	13.426	978.230	739.663
123.322	13.474	977.075	738.936
124.337	13.690	975.695	738.791
125.352	13.575	974.723	737.479
126.366	13.539	974.093	736.774
127.381	13.561	972.992	735.975
128.395	13.489	972.122	734.933
129.410	13.592	971.296	734.700
130.424	13.640	970.443	734.204
131.439	13.719	969.782	733.989
132.454	13.786	968.430	733.194
133.468	13.640	968.138	732.262
134.483	13.581	967.647	731.568
135.497	13.690	966.311	730.971
136.512	13.688	965.565	730.336
137.527	13.623	965.057	729.600
138.541	13.720	963.591	728.854
139.556	13.647	963.388	728.314
140.570	13.764	962.742	728.276
141.585	13.867	961.882	728.011
142.600	13.735	961.101	726.780
143.614	13.850	960.040	726.414
144.629	13.931	959.427	726.240
145.643	13.773	958.539	724.815
146.658	13.760	957.362	723.806
147.673	13.858	956.325	723.382
148.687	13.759	955.744	722.447
149.702	13.716	954.302	721.110
150.716	13.657	953.945	720.517
151.731	13.634	953.263	719.840
152.746	13.640	952.531	719.247
153.760	13.868	951.264	719.217
154.775	13.692	951.401	718.493
155.789	13.953	950.432	718.830
156.804	13.874	949.652	717.833
157.819	13.887	949.383	717.623
158.833	13.825	948.324	716.488
159.848	13.964	947.614	716.489
160.862	13.984	946.424	715.611
161.877	13.911	945.501	714.539
162.892	13.765	944.624	713.185
163.906	13.738	943.565	712.205
164.921	13.820	942.760	711.886
165.935	13.879	941.729	711.298
166.950	13.923	940.956	710.841
167.964	13.905	940.464	710.327
168.979	13.857	939.252	709.146
169.994	13.925	938.262	708.624
171.008	13.955	937.554	708.153
172.023	13.974	937.107	707.835
173.037	14.053	936.446	707.610
174.052	13.958	935.703	706.582
175.067	13.767	935.578	705.614
176.081	13.851	934.833	705.346
177.096	13.818	934.330	704.761
178.110	13.875	933.546	704.351
179.125	14.020	933.052	704.529
180.140	13.978	932.554	703.916
181.154	13.944	932.239	703.472
182.169	14.017	931.561	703.206
183.183	14.121	930.860	703.054
184.198	14.120	929.758	702.156
185.213	14.035	929.412	701.472
186.227	14.068	928.477	700.845
187.242	14.159	927.792	700.650
188.256	14.233	927.319	700.540
189.271	14.316	926.387	700.125
190.286	14.038	925.444	698.181
191.300	14.004	924.873	697.547
192.315	13.955	924.177	696.754
193.329	14.026	923.687	696.620
194.344	13.955	923.231	695.920
195.359	14.109	922.680	696.087
196.373	14.153	921.969	695.670
197.388	14.240	921.343	695.502
198.402	14.366	921.025	695.725
199.417	14.404	920.409	695.359
200.432	14.419	919.694	694.819
201.446	14.398	919.660	694.645
202.461	14.490	919.127	694.564
203.475	14.527	918.103	693.882
204.490	14.510	917.307	693.148
205.504	14.493	916.259	692.225
206.519	14.190	915.886	690.623
207.534	14.304	915.391	690.662
208.548	14.511	914.601	690.865
209.563	14.450	913.555	689.758
210.577	14.538	912.961	689.613
211.592	14.564	912.796	689.533
212.607	14.598	911.664	688.760
213.621	14.599	911.224	688.369
214.636	14.579	910.337	687.558
215.650	14.622	909.450	687.002
216.665	14.631	908.765	686.463
217.680	14.633	908.130	685.930
218.694	14.662	907.395	685.433
219.709	14.592	907.121	684.878
220.723	14.594	906.461	684.326
221.738	14.695	905.682	684.092
222.753	14.702	904.854	683.435
223.767	14.734	904.328	683.109
224.782	14.669	904.091	682.605
225.796	14.689	903.474	682.157
226.811	14.728	903.021	681.916
227.826	14.665	902.335	681.079
228.840	14.596	901.339	679.986
229.855	14.712	900.491	679.758
230.869	14.695	899.500	678.882
231.884	14.597	899.192	678.191
232.899	14.717	898.138	677.822
233.913	14.819	897.219	677.485
234.928	14.784	896.632	676.837
235.942	14.671	896.402	676.148
236.957	14.664	896.012	675.764
237.972	14.751	895.188	675.434
238.986	14.659	894.852	674.750
240.001	14.736	894.143	674.466
241.015	14.954	892.967	674.399
242.030	14.954	892.492	673.982
243.045	14.899	892.199	673.479
244.059	14.834	891.808	672.861
245.074	14.802	891.211	672.224
246.088	14.933	890.643	672.263
247.103	14.969	889.555	671.527
248.117	15.071	888.942	671.411
249.132	15.074	888.717	671.194
250.147	15.139	888.149	670.967
251.161	15.216	887.202	670.502
252.176	15.158	886.701	669.832
253.190	15.281	885.687	669.499
254.205	15.307	885.425	669.345
255.220	15.283	884.655	668.608
256.234	15.170	884.386	667.891
257.249	15.243	883.562	667.501
258.263	15.359	882.639	667.208
259.278	15.434	882.114	667.051
260.293	15.341	882.001	666.536
261.307	15.369	881.304	666.062
262.322	15.464	880.501	665.773
263.336	15.511	879.938	665.474
264.351	15.552	879.156	664.985
265.366	15.520	878.038	663.956
266.380	15.428	878.045	663.538
267.395	15.561	876.925	663.159
268.409	15.438	876.359	662.185
269.424	15.560	875.256	661.774
270.439	15.453	874.889	661.016
271.453	15.355	874.299	660.129
272.468	15.455	873.788	660.075
273.482	15.399	873.448	659.541
274.497	15.374	872.501	658.670
275.512	15.448	872.117	658.610
276.526	15.447	871.903	658.388
277.541	15.501	871.032	657.882
278.555	15.697	870.395	658.113
279.570	15.577	870.337	657.538
280.585	15.739	868.504	656.729
281.599	15.556	868.415	655.888
282.614	15.653	867.694	655.665
283.628	15.570	866.958	654.726
284.643	15.757	866.484	655.039
285.657	15.711	865.598	654.133
286.672	15.731	865.262	653.900
287.687	15.627	864.774	653.067
288.701	15.634	864.086	652.517
289.716	15.614	863.806	652.173
290.730	15.732	863.260	652.161
291.745	15.794	862.413	651.702
292.760	15.730	862.008	651.090
293.774	15.923	861.342	651.277
294.789	15.890	860.508	650.458
295.803	15.868	859.578	649.615
296.818	15.751	859.357	648.938
297.833	15.791	858.604	648.465
298.847	15.872	857.745	648.073
299.862	15.910	857.254	647.790
300.876	15.793	857.043	647.125
301.891	16.052	856.307	647.505
302.906	15.923	855.899	646.643
303.920	16.007	855.306	646.463
304.935	16.088	854.627	646.202
305.949	16.048	854.040	645.548
306.964	16.237	852.973	645.407
307.979	16.063	852.755	644.521
308.993	15.968	852.639	644.012
310.008	16.006	851.924	643.560
311.022	16.037	851.187	643.065
312.037	16.124	850.275	642.652
313.052	16.125	850.057	642.434
314.066	16.048	849.572	641.715
315.081	16.062	848.953	641.246
316.095	15.978	848.517	640.540
317.110	16.061	847.642	640.138
318.125	16.129	847.416	640.170
319.139	16.072	847.032	639.606
320.154	16.107	846.299	639.130
321.168	16.128	845.813	638.782
322.183	16.087	845.334	638.209
323.197	16.319	844.400	638.326
324.212	16.206	843.829	637.412
325.227	16.180	843.994	637.382
326.241	16.263	843.054	636.926
327.256	16.155	842.682	636.182
328.270	16.298	841.834	636.026
329.285	16.231	841.534	635.491
330.300	16.147	840.473	634.316
331.314	16.197	840.209	634.251
332.329	16.304	839.656	634.177
333.343	16.351	839.628	634.277
334.358	16.341	838.825	633.576
335.373	16.357	838.345	633.217
336.387	16.395	838.276	633.250
337.402	16.463	837.967	633.216
338.416	16.496	837.608	633.013
339.431	16.475	837.359	632.689
340.446	16.638	836.259	632.414
341.460	16.605	836.380	632.324
342.475	16.614	835.722	631.804
343.489	16.678	835.513	631.831
344.504	16.648	835.134	631.377
345.519	16.738	834.823	631.422
346.533	16.620	833.866	630.200
347.548	16.628	833.581	629.959
348.562	16.591	832.868	629.226
349.577	16.389	832.550	628.180
350.592	16.709	831.609	628.605
351.606	16.531	830.925	627.372
352.621	16.622	830.324	627.198
353.635	16.682	829.657	626.860
354.650	16.710	829.250	626.603
355.665	16.734	828.743	626.253
356.679	16.626	828.019	625.250
357.694	16.779	827.308	625.225
358.708	16.833	826.586	624.822
359.723	16.942	825.708	624.504
360.738	16.685	825.823	623.589
361.752	16.847	825.114	623.596
362.767	16.722	824.471	622.593
363.781	16.885	824.194	622.928
364.796	16.983	823.387	622.624
365.810	16.988	823.089	622.361
366.825	17.042	822.819	622.298
367.840	17.024	822.310	621.793
368.854	16.837	822.129	620.917
369.869	16.936	821.385	620.663
370.883	16.867	820.930	620.013
371.898	17.116	820.587	620.607
372.913	17.224	819.889	620.420
373.927	17.149	819.849	620.062
374.942	17.062	819.460	619.394
375.956	17.130	818.626	618.957
376.971	17.298	818.288	619.260
377.986	17.227	818.112	618.810
379.000	17.256	817.523	618.417
380.015	17.201	817.134	617.869
381.029	17.312	816.063	617.407
382.044	17.342	815.695	617.181
383.059	17.338	815.250	616.775
384.073	17.181	814.702	615.738
385.088	17.201	813.822	615.090
386.102	17.221	813.499	614.866
387.117	17.369	813.232	615.142
388.132	17.327	812.466	614.359
389.146	17.118	812.288	613.413
390.161	17.381	811.556	613.755
391.175	17.379	811.094	613.345
392.190	17.351	810.409	612.673
393.205	17.320	810.046	612.232
394.219	17.291	809.443	611.620
395.234	17.297	809.255	611.444
396.248	17.249	808.799	610.872
397.263	17.252	808.297	610.449
398.278	17.299	807.955	610.305
399.292	17.367	807.605	610.233
400.307	17.334	807.074	609.659
401.321	17.350	806.383	609.138
402.336	17.397	806.532	609.366
403.350	17.478	805.851	609.087
404.365	17.472	805.409	608.677
405.380	17.386	804.993	608.004
406.394	17.584	804.594	608.354
407.409	17.644	803.810	607.922
408.423	17.555	803.792	607.537
409.438	17.686	803.231	607.526
410.453	17.837	802.473	607.436
411.467	17.688	802.238	606.676
412.482	17.780	802.011	606.776
413.496	17.747	801.544	606.253
414.511	17.748	801.149	605.906
415.526	17.839	800.704	605.838
416.540	17.859	800.255	605.515
417.555	17.820	799.700	604.902
418.569	17.865	799.058	604.523
419.584	17.844	798.556	604.017
420.599	17.886	798.710	604.228
421.613	108.257	1288.283	1459.599
422.628	93.136	1359.594	1459.710
