DTS Sentinel unit serial number:	SN413079Multiplexer serial number:	ORYXHardware model number:	OX4-SRSoftware version number:	ORYX F/W v4.00 Oryx Data Collector v3.7.2.0data status	okinstallation	princeton_trtdifferential loss correction	single-endedforward channel	channel 1reverse channel	N/Adate	2019/09/13time	04:46:35forward acquisition time	60.00reverse acquisition time	0.00gamma	496.2192k internal	0.2335k external	0.2335temperature offset calibration	1.0164default loss term (dB/km)	0.3790temperature slope calibration	1.0000multiplexer offset coefficient	1.0000multiplexer slope coefficient	1.0000fibre end	0.00T internal ref (°C)	26.58T ext. ref 1 (°C)	4.06T ext. ref 2 (°C)	21.13length (m)	temperature (°C)	Stokes	anti-Stokes-747.200	-5.165	0.221	0.153
-746.185	800.000	-0.095	0.294
-745.171	-36.343	-0.105	0.057
-744.156	-51.621	-0.287	-0.135
-743.142	800.000	0.068	0.207
-742.127	258.005	0.123	0.213
-741.112	800.000	-0.069	0.213
-740.098	-18.965	-0.148	-0.093
-739.083	24.899	0.218	-0.182
-738.069	-57.857	-0.309	-0.136
-737.054	-74.341	-0.228	0.083
-736.039	179.261	-0.167	-0.245
-735.025	186.228	-0.107	0.160
-734.010	-119.559	0.157	-0.027
-732.996	674.813	0.089	-0.231
-731.981	426.810	-0.083	-0.181
-730.966	800.000	0.032	-0.106
-729.952	178.258	-0.237	-0.347
-728.937	-48.005	0.077	-0.038
-727.923	-74.377	0.250	-0.091
-726.908	637.407	-0.143	0.365
-725.894	321.185	-0.103	-0.196
-724.879	-124.146	-0.370	-0.058
-723.864	80.591	-0.189	0.204
-722.850	-62.126	-0.327	-0.137
-721.835	757.726	-0.026	0.070
-720.821	-152.581	-0.467	0.034
-719.806	148.193	-0.105	-0.142
-718.791	800.000	-0.034	-0.132
-717.777	558.924	0.031	0.075
-716.762	17.769	-0.236	-0.189
-715.748	-51.194	0.155	-0.073
-714.733	-86.154	-0.093	0.029
-713.718	144.352	-0.168	0.225
-712.704	-26.291	0.187	0.110
-711.689	172.654	-0.114	-0.165
-710.675	-200.000	-0.005	-0.354
-709.660	136.243	0.181	-0.236
-708.645	-200.000	-0.016	-0.276
-707.631	-195.644	-0.121	0.001
-706.616	-87.329	-0.380	0.116
-705.602	38.974	0.230	-0.206
-704.587	-154.084	-0.261	0.018
-703.572	352.281	0.191	0.380
-702.558	800.000	-0.030	0.101
-701.543	190.429	-0.052	0.078
-700.529	72.449	-0.313	0.328
-699.514	-200.000	-0.007	-0.065
-698.499	-158.502	-0.283	0.016
-697.485	-200.000	-0.006	-0.073
-696.470	-200.000	0.012	0.159
-695.456	-127.570	0.330	0.048
-694.441	-62.953	-0.068	-0.028
-693.426	-200.000	0.006	-0.120
-692.412	461.962	0.166	-0.372
-691.397	-136.237	-0.252	0.030
-690.383	181.641	0.106	-0.157
-689.368	519.461	0.041	-0.096
-688.354	-178.241	-0.129	-0.003
-687.339	40.138	-0.319	-0.288
-686.324	178.958	0.111	0.162
-685.310	53.647	-0.224	-0.216
-684.295	-73.283	0.311	0.114
-683.281	-57.404	0.051	-0.022
-682.266	209.031	0.160	-0.250
-681.251	-107.622	-0.169	0.037
-680.237	-22.803	0.091	-0.055
-679.222	-118.418	0.389	-0.069
-678.208	-39.400	-0.299	0.157
-677.193	262.968	0.114	-0.199
-676.178	-24.599	-0.063	-0.038
-675.164	-200.000	0.090	-0.474
-674.149	48.450	-0.103	-0.096
-673.135	171.160	0.135	-0.193
-672.120	136.941	-0.241	0.316
-671.105	-15.811	0.262	-0.167
-670.091	-48.486	-0.343	-0.165
-669.076	800.000	0.033	0.113
-668.062	-200.000	0.044	-0.356
-667.047	-44.057	-0.161	0.081
-666.032	585.515	-0.054	0.134
-665.018	-48.716	-0.078	-0.037
-664.003	-180.817	-0.259	-0.005
-662.989	800.000	0.064	-0.202
-661.974	28.663	0.089	-0.076
-660.959	8.160	-0.288	0.217
-659.945	643.112	-0.100	-0.255
-658.930	137.638	0.154	-0.202
-657.916	-127.092	0.233	0.034
-656.901	-71.820	-0.330	-0.123
-655.886	-200.000	0.035	0.160
-654.872	800.000	0.056	-0.161
-653.857	-174.432	-0.565	-0.016
-652.843	-169.740	0.354	-0.013
-651.828	3.631	-0.131	0.096
-650.814	-200.000	0.030	-0.151
-649.799	414.303	-0.127	0.271
-648.784	161.389	-0.078	-0.109
-647.770	289.095	0.095	-0.172
-646.755	-200.000	0.014	-0.330
-645.741	77.223	0.143	-0.152
-644.726	-31.213	-0.606	-0.342
-643.711	-19.825	-0.052	-0.032
-642.697	148.853	0.085	0.114
-641.682	-97.147	-0.402	0.105
-640.668	119.305	0.135	0.167
-639.653	-102.786	0.091	-0.022
-638.638	-200.000	0.021	0.174
-637.624	325.961	-0.061	-0.116
-636.609	-200.000	-0.036	-0.171
-635.595	800.000	0.040	-0.137
-634.580	-2.890	-0.270	-0.189
-633.565	-106.107	-0.230	0.052
-632.551	-138.238	-0.125	-0.014
-631.536	82.076	0.034	0.037
-630.522	-114.691	-0.090	0.017
-629.507	218.079	-0.162	-0.259
-628.492	141.648	0.035	-0.047
-627.478	30.860	0.314	-0.269
-626.463	514.345	0.069	0.161
-625.449	-200.000	-0.021	-0.323
-624.434	-88.142	-0.120	0.036
-623.419	-83.353	-0.061	0.020
-622.405	20.946	-0.042	-0.034
-621.390	152.721	-0.187	0.256
-620.376	63.568	0.237	0.238
-619.361	677.006	0.026	-0.067
-618.346	-200.000	0.015	-0.295
-617.332	-200.000	-0.005	0.087
-616.317	17.641	0.122	-0.097
-615.303	-4.835	0.298	-0.205
-614.288	-200.000	-0.241	-0.001
-613.273	24.465	-0.232	0.192
-612.259	-38.447	0.230	-0.122
-611.244	-200.000	-0.005	-0.171
-610.230	800.000	0.024	-0.075
-609.215	218.494	0.208	-0.332
-608.201	-200.000	0.054	0.261
-607.186	800.000	0.102	0.293
-606.171	-38.006	-0.251	-0.133
-605.157	10.776	0.012	0.009
-604.142	-38.498	-0.057	0.030
-603.128	-0.032	-0.104	-0.074
-602.113	-200.000	0.029	-0.230
-601.098	51.994	-0.152	-0.145
-600.084	-200.000	0.003	-0.243
-599.069	-28.701	0.242	0.139
-598.055	800.000	-0.034	-0.097
-597.040	5.693	0.042	-0.031
-596.025	-200.000	0.004	0.187
-595.011	-59.647	-0.171	0.073
-593.996	-104.886	0.136	-0.031
-592.982	-200.000	-0.003	-0.043
-591.967	-200.000	0.039	-0.582
-590.952	-200.000	-0.019	-0.101
-589.938	238.490	-0.020	0.034
-588.923	452.252	0.144	0.318
-587.909	-38.433	0.210	-0.111
-586.894	153.200	-0.119	-0.162
-585.879	129.316	0.165	-0.211
-584.865	298.992	0.029	-0.053
-583.850	-200.000	-0.005	-0.026
-582.836	84.201	-0.076	0.083
-581.821	-200.000	-0.007	0.071
-580.806	-47.037	0.118	-0.057
-579.792	36.814	0.099	0.087
-578.777	436.378	0.077	0.167
-577.763	30.493	-0.037	-0.032
-576.748	-17.323	0.153	0.096
-575.733	-200.000	-0.030	0.149
-574.719	-200.000	-0.036	0.319
-573.704	-153.197	-0.368	-0.026
-572.690	549.771	-0.034	0.082
-571.675	-173.688	0.209	0.006
-570.661	78.714	-0.107	-0.114
-569.646	640.413	0.057	0.145
-568.631	454.638	0.198	0.438
-567.617	-200.000	-0.022	0.266
-566.602	-200.000	0.003	0.050
-565.588	348.660	0.099	0.195
-564.573	-200.000	0.021	-0.099
-563.558	-200.000	0.012	0.261
-562.544	-200.000	-0.010	0.054
-561.529	-121.499	0.105	-0.017
-560.515	-161.223	0.133	0.007
-559.500	24.078	-0.092	0.075
-558.485	-142.164	-0.209	-0.021
-557.471	-59.068	0.268	0.115
-556.456	58.561	-0.090	-0.088
-555.442	516.976	-0.080	-0.187
-554.427	-150.818	-0.276	0.021
-553.412	-15.186	0.177	-0.113
-552.398	156.447	0.084	0.116
-551.383	-32.021	-0.243	0.135
-550.369	-67.962	-0.378	-0.147
-549.354	18.890	0.063	0.050
-548.339	-81.649	0.162	0.053
-547.325	-200.000	-0.000	0.358
-546.310	-44.711	0.129	0.064
-545.296	-1.118	0.185	0.130
-544.281	126.737	-0.258	0.326
-543.266	-127.451	0.278	-0.040
-542.252	51.075	-0.170	-0.161
-541.237	-125.546	0.226	-0.034
-540.223	-97.263	-0.167	0.043
-539.208	-82.297	-0.165	-0.054
-538.193	38.931	0.229	0.204
-537.179	-200.000	0.033	-0.222
-536.164	28.158	0.168	0.141
-535.150	40.706	0.305	0.274
-534.135	147.388	-0.268	-0.360
-533.121	-24.669	0.095	0.056
-532.106	35.228	0.151	-0.132
-531.091	-109.692	-0.100	0.021
-530.077	15.214	0.313	-0.245
-529.062	800.000	-0.057	0.198
-528.048	206.093	-0.182	-0.282
-527.033	-200.000	-0.018	0.238
-526.018	-153.400	0.286	0.020
-525.004	-91.122	0.118	0.034
-523.989	-200.000	0.009	-0.158
-522.975	165.767	-0.033	-0.047
-521.960	202.565	-0.055	0.084
-520.945	457.166	0.001	0.003
-519.931	-118.567	-0.215	0.038
-518.916	-200.000	0.002	0.011
-517.902	1.075	-0.025	0.018
-516.887	265.035	0.052	0.091
-515.872	182.534	-0.135	0.199
-514.858	-24.966	-0.214	-0.127
-513.843	144.523	0.094	-0.125
-512.829	-131.626	-0.327	-0.043
-511.814	-113.611	0.155	-0.030
-510.799	-37.071	-0.156	0.083
-509.785	-22.197	0.148	0.089
-508.770	-200.000	0.003	-0.277
-507.756	-200.000	-0.019	0.133
-506.741	-200.000	0.036	-0.228
-505.726	-3.216	-0.204	-0.142
-504.712	-200.000	-0.014	0.080
-503.697	326.920	0.092	0.176
-502.683	41.247	0.165	-0.148
-501.668	-200.000	-0.002	-0.271
-500.653	-50.720	0.132	-0.062
-499.639	116.314	0.142	-0.173
-498.624	321.798	0.172	0.326
-497.610	800.000	-0.145	0.586
-496.595	14.153	-0.171	0.132
-495.581	-6.836	-0.107	-0.073
-494.566	800.000	0.036	0.141
-493.551	-200.000	-0.007	0.202
-492.537	42.470	0.105	-0.095
-491.522	-200.000	0.012	-0.180
-490.508	-200.000	0.012	0.185
-489.493	-178.676	0.081	0.002
-488.478	-200.000	-0.035	-0.281
-487.464	-6.556	0.327	0.222
-486.449	-200.000	-0.006	-0.281
-485.435	800.000	-0.041	0.151
-484.420	-111.665	-0.056	-0.011
-483.405	-109.757	-0.279	-0.058
-482.391	-80.778	0.340	0.112
-481.376	138.898	0.057	-0.074
-480.362	-110.403	-0.198	0.041
-479.347	800.000	-0.059	-0.164
-478.332	-200.000	0.026	0.211
-477.318	-200.000	-0.018	0.205
-476.303	-3.471	-0.108	0.074
-475.289	-57.677	-0.227	0.099
-474.274	-200.000	0.024	-0.113
-473.259	-93.265	-0.196	0.054
-472.245	-200.000	-0.437	0.002
-471.230	-164.428	0.280	0.013
-470.216	342.162	-0.110	0.214
-469.201	-12.632	-0.327	0.212
-468.186	343.622	-0.043	0.084
-467.172	-85.912	-0.188	-0.058
-466.157	-200.000	-0.044	0.215
-465.143	-129.346	-0.188	0.026
-464.128	-200.000	0.019	-0.335
-463.113	144.833	0.127	0.169
-462.099	62.826	0.158	0.157
-461.084	-45.058	-0.294	0.145
-460.070	503.763	0.052	0.120
-459.055	-200.000	0.017	0.140
-458.040	-2.729	0.181	-0.126
-457.026	-128.695	-0.441	0.062
-456.011	-200.000	0.019	0.102
-454.997	153.813	-0.210	-0.286
-453.982	-200.000	-0.031	-0.181
-452.968	11.855	0.214	-0.163
-451.953	695.771	0.141	-0.367
-450.938	361.351	0.242	-0.482
-449.924	800.000	0.075	-0.261
-448.909	180.272	0.203	0.296
-447.895	-126.183	-0.034	-0.005
-446.880	800.000	-0.060	0.198
-445.865	800.000	0.087	-0.318
-444.851	-105.676	-0.599	0.135
-443.836	-21.057	-0.087	0.053
-442.822	800.000	0.106	0.393
-441.807	209.844	-0.156	0.244
-440.792	-200.000	0.056	0.334
-439.778	-135.131	-0.298	0.036
-438.763	321.310	-0.007	-0.014
-437.749	-25.466	-0.249	0.146
-436.734	-93.216	0.049	-0.013
-435.719	-200.000	-0.033	0.386
-434.705	-145.257	0.318	0.029
-433.690	-200.000	-0.005	0.061
-432.676	-200.000	0.003	0.099
-431.661	669.571	0.017	0.044
-430.646	447.526	-0.118	-0.257
-429.632	182.453	0.152	-0.223
-428.617	-84.759	0.217	-0.068
-427.603	-200.000	0.026	0.265
-426.588	28.853	0.148	0.124
-425.573	-45.845	0.187	0.092
-424.559	-200.000	-0.069	-0.322
-423.544	-200.000	0.003	0.163
-422.530	800.000	-0.131	0.482
-421.515	-58.153	0.142	0.061
-420.500	-62.806	-0.163	0.067
-419.486	-126.029	-0.176	0.026
-418.471	-200.000	0.032	0.207
-417.457	55.297	0.180	-0.172
-416.442	-200.000	-0.021	-0.252
-415.428	172.608	0.114	-0.163
-414.413	110.900	-0.216	-0.257
-413.398	174.380	0.230	0.330
-412.384	150.317	-0.228	0.307
-411.369	4.382	-0.145	-0.106
-410.355	5.354	-0.226	0.165
-409.340	361.114	-0.094	0.187
-408.325	-12.714	-0.266	-0.172
-407.311	379.900	0.078	0.158
-406.296	-73.362	0.256	0.093
-405.282	-200.000	0.009	0.079
-404.267	-26.343	-0.125	-0.073
-403.252	-159.625	0.141	-0.008
-402.238	73.100	0.104	-0.108
-401.223	210.323	0.155	-0.241
-400.209	-200.000	0.005	0.030
-399.194	-200.000	0.007	0.273
-398.179	-200.000	0.024	0.299
-397.165	316.157	0.254	0.475
-396.150	42.221	-0.049	0.044
-395.136	165.667	-0.192	0.269
-394.121	36.040	0.133	-0.116
-393.106	-200.000	0.002	-0.051
-392.092	-130.447	-0.174	-0.023
-391.077	-43.632	-0.302	-0.151
-390.063	-71.788	-0.311	0.115
-389.048	330.596	-0.124	-0.236
-388.033	-79.356	-0.173	0.058
-387.019	-74.560	-0.261	-0.093
-386.004	-78.885	0.207	-0.070
-384.990	-52.802	-0.340	0.155
-383.975	-122.031	0.114	0.018
-382.960	-33.029	-0.223	-0.123
-381.946	2.509	0.326	-0.234
-380.931	344.575	-0.111	0.217
-379.917	-75.779	-0.125	0.044
-378.902	-200.000	0.062	-0.287
-377.888	36.287	-0.072	-0.063
-376.873	800.000	-0.042	0.155
-375.858	11.249	0.148	-0.112
-374.844	800.000	0.036	-0.145
-373.829	482.241	0.122	-0.275
-372.815	35.861	-0.118	0.102
-371.800	-200.000	0.044	-0.350
-370.785	-140.389	0.204	0.021
-369.771	-200.000	0.012	0.211
-368.756	352.860	-0.074	0.145
-367.742	-200.000	0.018	0.194
-366.727	181.400	-0.240	-0.350
-365.712	390.678	-0.064	-0.132
-364.698	-200.000	0.079	-0.391
-363.683	-173.529	-0.372	-0.011
-362.669	286.199	-0.182	-0.325
-361.654	318.605	0.060	-0.113
-360.639	296.475	-0.104	-0.188
-359.625	230.163	-0.195	-0.315
-358.610	12.783	0.243	-0.186
-357.596	-200.000	0.025	-0.171
-356.581	-176.995	-0.317	-0.008
-355.566	-77.949	-0.358	-0.122
-354.552	62.514	-0.304	0.301
-353.537	-200.000	-0.021	0.160
-352.523	-68.964	-0.097	-0.037
-351.508	553.995	0.123	-0.292
-350.493	-200.000	-0.033	0.215
-349.479	-7.281	0.361	0.242
-348.464	108.033	0.087	0.102
-347.450	-59.517	-0.322	-0.137
-346.435	357.171	0.060	0.119
-345.420	-82.760	0.227	0.073
-344.406	728.445	-0.133	-0.351
-343.391	-111.523	-0.087	-0.017
-342.377	-200.000	-0.037	0.275
-341.362	-135.705	0.345	-0.040
-340.348	99.340	0.130	-0.149
-339.333	-21.817	0.200	0.120
-338.318	-200.000	0.015	0.159
-337.304	-200.000	-0.036	0.282
-336.289	149.647	0.076	-0.101
-335.275	-200.000	0.007	-0.091
-334.260	51.148	0.074	-0.070
-333.245	-171.168	-0.007	0.000
-332.231	-57.707	-0.186	-0.081
-331.216	800.000	-0.057	-0.202
-330.202	234.372	-0.185	-0.302
-329.187	-200.000	-0.024	0.171
-328.172	-44.662	-0.273	0.135
-327.158	-90.573	-0.127	0.036
-326.143	339.965	0.207	-0.398
-325.129	191.942	0.128	-0.191
-324.114	394.700	-0.188	-0.387
-323.099	-200.000	0.013	0.490
-322.085	-100.332	0.173	0.042
-321.070	-61.324	-0.237	-0.099
-320.056	800.000	0.028	-0.096
-319.041	-45.056	0.357	0.176
-318.026	-200.000	-0.025	-0.150
-317.012	-136.352	0.205	0.024
-315.997	-2.031	-0.306	-0.213
-314.983	800.000	0.084	-0.301
-313.968	364.181	0.023	-0.046
-312.953	800.000	0.184	0.557
-311.939	-95.708	-0.319	0.084
-310.924	70.742	-0.010	-0.010
-309.910	-200.000	-0.018	0.266
-308.895	0.348	0.135	-0.095
-307.880	468.768	0.109	-0.242
-306.866	-11.039	0.201	-0.131
-305.851	-0.493	0.108	0.076
-304.837	-200.000	-0.030	-0.235
-303.822	78.809	-0.170	0.180
-302.807	-31.330	-0.211	0.117
-301.793	228.902	0.075	0.121
-300.778	-96.997	-0.354	-0.092
-299.764	-200.000	0.009	-0.106
-298.749	800.000	-0.069	-0.206
-297.735	758.468	0.105	0.282
-296.720	624.523	0.088	-0.218
-295.705	228.467	-0.159	0.256
-294.691	-179.949	0.137	-0.003
-293.676	-186.414	-0.220	0.003
-292.662	123.153	-0.096	0.118
-291.647	800.000	-0.055	-0.211
-290.632	-42.143	-0.462	-0.233
-289.618	-123.878	-0.214	-0.033
-288.603	-130.619	0.289	0.038
-287.589	125.824	0.165	-0.206
-286.574	-104.916	-0.396	-0.090
-285.559	-0.612	0.210	-0.147
-284.545	176.740	0.167	-0.240
-283.530	-83.549	-0.082	0.026
-282.516	160.776	0.122	0.168
-281.501	-136.455	0.227	-0.026
-280.486	-184.520	-0.283	-0.005
-279.472	800.000	-0.046	-0.139
-278.457	-200.000	0.005	-0.090
-277.443	-77.051	-0.113	0.039
-276.428	-109.771	0.240	0.050
-275.413	230.136	-0.148	-0.238
-274.399	564.222	-0.039	0.092
-273.384	-122.801	-0.070	-0.011
-272.370	-200.000	0.026	-0.191
-271.355	-115.720	0.333	-0.062
-270.340	-107.948	-0.199	-0.043
-269.326	-200.000	-0.013	-0.126
-268.311	-200.000	0.011	-0.077
-267.297	-200.000	0.007	0.241
-266.282	-97.024	0.081	0.021
-265.267	58.633	0.231	0.223
-264.253	-2.221	-0.599	-0.415
-263.238	-41.165	-0.075	0.038
-262.224	-200.000	0.018	0.268
-261.209	95.651	0.100	0.112
-260.195	-90.519	0.178	0.051
-259.180	-63.546	-0.169	0.068
-258.165	213.270	0.094	-0.147
-257.151	366.066	-0.072	0.143
-256.136	-200.000	0.015	0.138
-255.122	-151.107	-0.293	-0.022
-254.107	-200.000	0.012	0.153
-253.092	171.171	-0.136	0.192
-252.078	-8.596	-0.120	-0.079
-251.063	26.886	-0.174	0.144
-250.049	-91.588	-0.158	-0.044
-249.034	-83.768	-0.245	0.077
-248.019	66.263	-0.079	-0.079
-247.005	-82.268	0.186	-0.060
-245.990	-58.270	0.044	0.019
-244.976	58.606	0.210	-0.203
-243.961	-34.593	0.155	0.084
-242.946	-200.000	0.024	0.142
-241.932	-94.095	0.308	-0.083
-240.917	-71.278	0.070	-0.026
-239.903	82.989	-0.121	0.130
-238.888	9.817	0.155	-0.116
-237.873	-161.881	0.409	-0.020
-236.859	-7.152	0.088	0.059
-235.844	-62.244	-0.262	0.108
-234.830	198.572	0.209	0.316
-233.815	-140.792	0.337	0.034
-232.800	12.311	0.118	0.089
-231.786	18.830	0.173	-0.136
-230.771	697.531	-0.023	0.059
-229.757	71.712	-0.022	0.022
-228.742	-89.015	-0.168	0.049
-227.727	-124.784	0.212	-0.032
-226.713	-200.000	-0.048	0.379
-225.698	-88.988	0.442	0.129
-224.684	-96.617	-0.126	-0.033
-223.669	-200.000	-0.010	-0.082
-222.655	-200.000	-0.025	0.274
-221.640	-200.000	-0.008	0.070
-220.625	-148.711	0.158	0.013
-219.611	87.904	-0.175	-0.191
-218.596	-95.540	0.391	-0.103
-217.582	53.652	0.155	0.146
-216.567	-25.647	-0.392	-0.227
-215.552	800.000	0.097	-0.306
-214.538	-120.365	0.561	0.094
-213.523	-200.000	0.020	0.337
-212.509	-128.286	-0.194	0.027
-211.494	-23.751	-0.320	0.189
-210.479	252.675	-0.099	0.167
-209.465	468.831	0.132	-0.291
-208.450	-158.402	-0.167	-0.010
-207.436	216.143	-0.072	-0.113
-206.421	52.597	-0.172	-0.162
-205.406	800.000	-0.122	-0.340
-204.392	-200.000	-0.029	-0.291
-203.377	-174.208	0.216	0.006
-202.363	794.006	-0.071	-0.191
-201.348	-194.032	0.119	0.001
-200.333	3.176	0.189	0.135
-199.319	800.000	0.036	0.117
-198.304	-45.009	0.028	-0.014
-197.290	-200.000	-0.025	0.265
-196.275	-79.636	0.436	0.145
-195.260	-141.766	0.210	-0.021
-194.246	-55.093	-0.210	-0.093
-193.231	-17.499	-0.111	-0.069
-192.217	28.445	-0.324	-0.269
-191.202	104.176	0.251	-0.290
-190.187	-200.000	-0.006	0.206
-189.173	800.000	0.054	-0.207
-188.158	-66.363	0.255	-0.100
-187.144	664.905	-0.101	-0.255
-186.129	241.941	0.163	-0.267
-185.114	-200.000	0.001	0.103
-184.100	73.141	0.113	-0.116
-183.085	-200.000	-0.013	0.113
-182.071	800.000	-0.092	0.394
-181.056	156.154	0.143	0.194
-180.042	-200.000	-0.025	0.131
-179.027	-2.868	0.288	-0.198
-178.012	-160.769	0.477	-0.025
-176.998	-128.315	-0.302	0.042
-175.983	-200.000	0.068	0.408
-174.969	197.598	0.267	0.400
-173.954	93.672	0.182	0.203
-172.939	-118.303	-0.240	-0.042
-171.925	-30.547	0.046	0.025
-170.910	643.072	0.019	-0.048
-169.896	152.508	-0.113	-0.151
-168.881	75.226	0.200	-0.208
-167.866	4.945	0.281	-0.203
-166.852	-134.646	0.132	-0.016
-165.837	-71.194	0.176	0.065
-164.823	-200.000	-0.007	-0.170
-163.808	-84.082	0.226	-0.071
-162.793	-53.531	-0.163	0.073
-161.779	-101.347	-0.161	0.039
-160.764	-47.860	0.280	-0.133
-159.750	-19.723	0.270	0.164
-158.735	97.663	-0.219	0.247
-157.720	-16.696	0.364	-0.226
-156.706	-125.453	0.177	-0.027
-155.691	-200.000	-0.013	-0.294
-154.677	351.104	0.202	0.393
-153.662	800.000	0.053	-0.195
-152.647	-37.849	0.292	0.152
-151.633	23.456	-0.059	0.048
-150.618	631.007	-0.094	-0.234
-149.604	-57.697	0.104	0.045
-148.589	113.149	-0.200	0.238
-147.574	-74.285	-0.218	-0.077
-146.560	-33.707	0.142	0.077
-145.545	140.058	-0.101	0.131
-144.531	800.000	0.066	-0.214
-143.516	800.000	-0.090	0.314
-142.502	42.367	-0.123	-0.110
-141.487	128.808	-0.113	0.142
-140.472	-200.000	-0.003	0.511
-139.458	-60.207	-0.311	0.130
-138.443	-25.885	-0.092	0.053
-137.429	90.574	0.134	0.147
-136.414	797.602	0.051	0.137
-135.399	-200.000	0.013	-0.108
-134.385	280.885	-0.045	0.080
-133.370	-49.215	-0.152	-0.071
-132.356	-133.094	-0.396	0.049
-131.341	73.335	-0.073	-0.075
-130.326	-114.644	0.218	-0.041
-129.312	4.639	0.178	-0.129
-128.297	118.032	-0.085	-0.103
-127.283	-108.339	0.273	-0.058
-126.268	92.978	0.165	-0.183
-125.253	-200.000	-0.006	0.194
-124.239	800.000	-0.011	-0.038
-123.224	-137.739	-0.119	0.013
-122.210	800.000	-0.029	0.093
-121.195	-200.000	0.034	-0.359
-120.180	488.355	0.016	0.036
-119.166	-200.000	-0.010	0.179
-118.151	-17.095	-0.133	-0.082
-117.137	-172.734	0.179	0.005
-116.122	800.000	-0.022	0.065
-115.107	-133.189	0.243	-0.030
-114.093	41.223	0.055	-0.049
-113.078	597.752	0.076	-0.185
-112.064	265.138	-0.198	-0.338
-111.049	11.366	-0.039	0.029
-110.034	800.000	-0.135	0.369
-109.020	800.000	0.025	-0.098
-108.005	27.218	0.115	0.095
-106.991	800.000	-0.044	-0.167
-105.976	-68.093	-0.175	-0.067
-104.962	800.000	0.060	-0.233
-103.947	-54.731	-0.145	0.064
-102.932	-200.000	0.028	-0.143
-101.918	506.523	-0.089	0.202
-100.903	-41.527	-0.337	0.170
-99.889	549.465	0.113	0.266
-98.874	-122.143	-0.364	-0.058
-97.859	800.000	-0.071	0.205
-96.845	383.471	-0.083	-0.168
-95.830	-93.326	0.111	-0.030
-94.816	-69.166	-0.083	-0.031
-93.801	800.000	0.022	-0.064
-92.786	-35.450	0.296	-0.157
-91.772	800.000	0.035	0.123
-90.757	222.854	0.274	0.432
-89.743	654.001	-0.062	0.156
-88.728	-148.603	-0.411	0.033
-87.713	49.134	-0.113	-0.104
-86.699	476.696	-0.076	-0.168
-85.684	800.000	0.016	-0.045
-84.670	800.000	-0.073	-0.274
-83.655	800.000	0.052	0.169
-82.640	413.056	-0.127	-0.265
-81.626	145.979	-0.185	-0.243
-80.611	150.784	0.101	0.135
-79.597	-70.427	0.172	-0.064
-78.582	518.918	0.123	0.283
-77.567	-200.000	0.032	0.274
-76.553	-149.103	-0.490	0.038
-75.538	-31.012	0.160	-0.088
-74.524	338.479	0.022	0.042
-73.509	17.642	0.240	0.187
-72.494	714.099	-0.087	-0.225
-71.480	-200.000	-0.173	-0.001
-70.465	-200.000	-0.062	0.500
-69.451	800.000	-0.051	-0.198
-68.436	15.356	-0.150	-0.115
-67.422	250.014	0.119	-0.198
-66.407	24.815	-0.032	0.026
-65.392	142.390	0.128	-0.167
-64.378	-52.130	-0.159	0.072
-63.363	-66.674	-0.227	-0.088
-62.349	91.745	-0.253	-0.279
-61.334	52.879	-1.165	-1.090
-60.319	20.008	0.502	0.396
-59.305	292.553	-0.624	-1.112
-58.290	343.101	0.654	1.252
-57.276	800.000	0.399	1.492
-56.261	-200.000	116.528	648.565
-55.246	506.090	1542.120	3496.090
-54.232	175.528	2710.462	3843.585
-53.217	106.149	2150.093	2490.454
-52.203	38.190	1586.075	1380.726
-51.188	29.863	1329.254	1107.523
-50.173	27.066	1290.778	1059.142
-49.159	53.615	1348.781	1265.752
-48.144	51.962	1362.352	1268.603
-47.130	30.072	1316.329	1097.821
-46.115	26.858	1298.261	1063.893
-45.100	26.471	1293.721	1057.867
-44.086	26.262	1291.770	1055.007
-43.071	26.364	1288.481	1052.874
-42.057	26.318	1286.844	1051.227
-41.042	26.431	1285.006	1050.344
-40.027	26.482	1283.436	1049.315
-39.013	26.456	1281.448	1047.493
-37.998	26.497	1279.759	1046.307
-36.984	26.638	1277.687	1045.387
-35.969	26.588	1275.902	1043.597
-34.954	26.540	1274.769	1042.351
-33.940	26.577	1273.212	1041.253
-32.925	26.605	1271.590	1040.044
-31.911	26.686	1270.428	1039.517
-30.896	26.627	1269.138	1038.086
-29.881	26.829	1267.382	1037.764
-28.867	26.758	1265.943	1036.135
-27.852	26.721	1264.913	1035.039
-26.838	26.634	1263.402	1033.264
-25.823	26.568	1262.262	1031.915
-24.809	26.638	1260.946	1031.202
-23.794	26.604	1259.487	1029.771
-22.779	26.621	1258.197	1028.774
-21.765	26.644	1257.234	1028.073
-20.750	26.711	1255.746	1027.197
-19.736	26.577	1254.790	1025.618
-18.721	26.439	1253.532	1023.768
-17.706	26.520	1252.086	1023.003
-16.692	26.549	1251.110	1022.328
-15.677	26.568	1249.992	1021.480
-14.663	26.511	1249.283	1020.539
-13.648	26.550	1247.732	1019.454
-12.633	26.500	1247.147	1018.654
-11.619	26.462	1245.792	1017.293
-10.604	26.594	1244.846	1017.221
-9.590	26.547	1244.402	1016.553
-8.575	26.492	1243.403	1015.386
-7.560	26.551	1242.059	1014.580
-6.546	26.606	1241.069	1014.039
-5.531	26.469	1240.827	1013.035
-4.517	26.511	1240.085	1012.625
-3.502	26.512	1239.399	1012.030
-2.487	26.656	1237.749	1011.447
-1.473	26.588	1233.997	1007.962
-0.458	24.951	1218.793	986.494
0.556	23.109	1202.399	949.123
1.571	19.331	1208.324	933.307
2.586	18.368	1223.275	939.490
3.600	18.268	1211.967	930.177
4.615	14.244	1141.560	855.426
5.629	7.305	1070.846	768.811
6.644	4.354	1052.964	741.815
7.659	4.075	1050.842	738.923
8.673	3.894	1049.118	736.784
9.688	3.908	1048.221	736.154
10.702	4.264	1046.257	736.403
11.717	8.755	1052.131	761.874
12.731	16.588	1062.852	807.076
13.746	21.517	1068.939	835.215
14.761	22.468	1069.650	840.235
15.775	21.751	1067.948	835.410
16.790	20.864	1066.282	829.809
17.804	20.153	1065.093	825.427
18.819	19.852	1064.255	823.269
19.834	19.984	1063.658	823.364
20.848	19.913	1062.845	822.324
21.863	19.703	1062.285	820.821
22.877	19.667	1061.169	819.714
23.892	19.458	1060.670	818.267
24.907	19.504	1059.629	817.610
25.921	19.630	1058.529	817.285
26.936	19.534	1057.276	815.790
27.950	19.404	1056.260	814.319
28.965	19.527	1054.935	813.806
29.980	19.790	1053.614	813.953
30.994	19.914	1052.603	813.681
32.009	19.908	1051.484	812.720
33.023	19.824	1050.520	811.510
34.038	19.705	1049.469	810.065
35.053	19.439	1048.384	807.912
36.067	19.583	1047.915	808.153
37.082	19.628	1047.028	807.605
38.096	19.825	1046.679	808.186
39.111	19.932	1045.774	807.914
40.126	19.588	1044.332	805.128
41.140	19.273	1042.856	802.452
42.155	19.142	1041.530	800.749
43.169	18.966	1040.510	799.077
44.184	19.043	1039.599	798.664
45.199	19.049	1038.814	798.018
46.213	19.351	1037.775	798.552
47.228	19.598	1037.010	799.034
48.242	19.729	1035.979	798.774
49.257	19.565	1035.113	797.278
50.271	19.625	1034.897	797.318
51.286	19.750	1033.821	796.997
52.301	19.703	1033.044	796.108
53.315	19.323	1032.187	793.628
54.330	19.336	1030.929	792.652
55.344	19.353	1029.662	791.684
56.359	19.385	1028.848	791.135
57.374	19.237	1027.801	789.582
58.388	19.291	1026.497	788.758
59.403	19.103	1026.220	787.615
60.417	19.007	1025.397	786.473
61.432	18.927	1024.923	785.678
62.447	18.964	1023.706	784.845
63.461	18.910	1022.561	783.652
64.476	18.778	1022.171	782.678
65.490	18.811	1021.359	782.141
66.505	18.942	1020.549	782.047
67.520	18.902	1020.209	781.533
68.534	18.830	1019.373	780.499
69.549	18.715	1018.401	779.163
70.563	18.770	1017.149	778.386
71.578	18.631	1016.593	777.259
72.593	18.435	1015.345	775.352
73.607	18.471	1015.309	775.415
74.622	18.616	1014.703	775.542
75.636	18.643	1014.196	775.208
76.651	18.682	1013.329	774.654
77.666	18.862	1012.332	774.631
78.680	18.827	1011.727	773.945
79.695	18.776	1011.510	773.481
80.709	19.037	1011.074	774.252
81.724	18.956	1010.623	773.474
82.739	19.175	1009.706	773.689
83.753	19.509	1009.089	774.645
84.768	19.831	1008.539	775.601
85.782	20.205	1007.628	776.506
86.797	19.891	1007.242	774.734
87.812	19.765	1005.550	772.801
88.826	19.756	1004.887	772.183
89.841	19.838	1004.138	771.903
90.855	20.066	1002.867	771.872
91.870	20.009	1002.257	771.082
92.884	19.904	1001.029	769.601
93.899	20.011	1000.408	769.533
94.914	19.996	999.749	768.890
95.928	19.982	998.796	768.027
96.943	19.844	997.757	766.552
97.957	19.725	996.980	765.359
98.972	19.754	996.411	764.983
99.987	19.799	995.435	764.363
101.001	19.831	994.070	763.390
102.016	19.767	992.985	762.207
103.030	19.808	993.120	762.425
104.045	19.870	992.294	761.995
105.060	19.714	990.788	760.087
106.074	19.291	990.124	757.649
107.089	19.120	988.464	755.561
108.103	18.961	987.512	754.071
109.118	18.936	986.519	753.138
110.133	18.859	985.723	752.125
111.147	18.904	984.619	751.411
112.162	18.985	984.133	751.329
113.176	19.108	984.037	751.724
114.191	19.187	983.053	751.251
115.206	19.223	981.943	750.494
116.220	19.090	981.048	749.166
117.235	19.144	979.902	748.461
118.249	19.102	979.308	747.758
119.264	19.065	978.392	746.828
120.279	18.823	977.975	745.394
121.293	18.836	976.960	744.611
122.308	18.709	976.237	743.444
123.322	18.618	974.980	742.028
124.337	18.514	974.290	740.991
125.352	18.670	973.115	740.701
126.366	18.647	972.112	739.774
127.381	18.642	970.952	738.805
128.395	18.610	970.761	738.456
129.410	18.834	969.343	738.276
130.424	18.901	968.778	738.068
131.439	18.998	968.213	737.988
132.454	19.173	967.276	737.958
133.468	19.141	966.682	737.304
134.483	19.086	966.120	736.574
135.497	19.202	964.497	735.765
136.512	19.182	964.123	735.330
137.527	19.259	963.594	735.191
138.541	19.210	963.136	734.568
139.556	19.090	962.917	733.824
140.570	19.455	962.042	734.648
141.585	19.644	961.570	735.024
142.600	19.765	960.375	734.563
143.614	19.844	959.786	734.382
144.629	19.937	958.805	733.959
145.643	19.752	957.938	732.446
146.658	19.571	956.578	730.576
147.673	19.325	956.069	729.084
148.687	19.231	954.560	727.474
149.702	19.209	953.403	726.432
150.716	19.237	952.927	726.122
151.731	19.183	952.125	725.219
152.746	19.499	951.276	725.839
153.760	19.425	950.889	725.167
154.775	19.448	950.514	724.915
155.789	19.590	949.501	724.676
156.804	19.687	948.996	724.629
157.819	19.621	948.552	723.952
158.833	19.844	947.845	724.282
159.848	20.128	946.822	724.624
160.862	19.799	945.836	722.429
161.877	19.375	944.609	719.661
162.892	19.242	943.215	717.981
163.906	19.121	942.519	716.883
164.921	19.189	941.838	716.585
165.935	19.420	940.961	716.813
166.950	19.457	939.865	716.068
167.964	19.373	939.020	715.015
168.979	19.204	938.023	713.493
169.994	19.138	937.781	712.972
171.008	19.347	936.982	713.166
172.023	19.551	936.061	713.244
173.037	19.753	935.581	713.647
174.052	19.633	934.379	712.173
175.067	19.311	933.705	710.269
176.081	19.063	933.099	708.726
177.096	19.167	932.465	708.609
178.110	19.281	932.082	708.724
179.125	19.339	931.376	708.362
180.140	19.404	931.048	708.319
181.154	19.530	930.922	708.679
182.169	19.815	930.188	709.225
183.183	19.744	929.892	708.644
184.198	19.678	929.192	707.777
185.213	19.647	928.323	706.926
186.227	19.915	927.829	707.583
187.242	19.868	927.476	707.060
188.256	20.222	926.464	707.673
189.271	20.003	926.208	706.518
190.286	19.642	924.803	703.915
191.300	19.229	923.420	701.121
192.315	19.185	922.594	700.250
193.329	19.183	922.599	700.185
194.344	19.314	922.177	700.335
195.359	19.359	921.802	700.171
196.373	19.642	920.811	700.505
197.388	19.777	920.728	700.924
198.402	20.036	920.369	701.640
199.417	20.124	920.241	701.835
200.432	20.268	919.601	701.871
201.446	20.436	918.811	701.882
202.461	20.334	918.967	701.528
203.475	20.335	917.965	700.704
204.490	19.991	916.420	698.077
205.504	19.981	915.652	697.391
206.519	19.887	914.964	696.426
207.534	19.655	914.571	695.131
208.548	19.899	913.824	695.484
209.563	19.843	913.108	694.653
210.577	19.929	912.518	694.488
211.592	20.126	912.208	694.979
212.607	20.228	911.525	694.806
213.621	20.018	910.787	693.339
214.636	20.172	909.775	693.124
215.650	20.128	909.339	692.556
216.665	20.268	908.598	692.490
217.680	20.382	908.249	692.615
218.694	20.440	907.474	692.197
219.709	20.253	906.834	690.903
220.723	20.324	905.848	690.372
221.738	20.178	905.231	689.260
222.753	20.136	904.797	688.701
223.767	20.476	904.331	689.638
224.782	20.473	904.044	689.343
225.796	20.407	903.402	688.533
226.811	20.322	902.716	687.611
227.826	20.092	901.784	685.930
228.840	20.177	900.753	685.423
229.855	20.137	900.013	684.639
230.869	20.073	899.805	684.170
231.884	20.018	899.025	683.297
232.899	20.022	897.849	682.360
233.913	19.867	896.956	681.011
234.928	19.804	896.780	680.567
235.942	19.537	896.337	679.121
236.957	19.665	895.411	678.861
237.972	19.769	895.081	678.961
238.986	19.867	893.859	678.358
240.001	19.837	893.814	678.146
241.015	19.863	893.311	677.806
242.030	20.095	892.813	678.277
243.045	20.148	891.932	677.755
244.059	20.067	891.804	677.280
245.074	20.215	890.925	677.130
246.088	20.245	890.692	677.013
247.103	20.324	890.489	677.106
248.117	20.724	889.604	677.932
249.132	21.045	889.407	678.971
250.147	21.111	889.347	679.122
251.161	21.249	888.750	679.142
252.176	21.298	887.678	678.454
253.190	21.369	887.149	678.264
254.205	21.242	887.150	677.713
255.220	21.195	886.316	676.834
256.234	21.086	885.551	675.768
257.249	21.120	884.886	675.330
258.263	21.203	883.640	674.641
259.278	21.190	883.235	674.224
260.293	21.285	882.903	674.277
261.307	21.371	882.478	674.224
262.322	21.286	881.651	673.205
263.336	21.339	881.060	672.898
264.351	21.558	879.849	672.755
265.366	21.552	879.436	672.356
266.380	21.232	879.184	670.877
267.395	21.131	878.476	669.889
268.409	21.073	877.529	668.886
269.424	21.026	876.946	668.200
270.439	21.026	876.164	667.547
271.453	20.861	875.363	666.244
272.468	20.906	875.004	666.084
273.482	20.880	874.455	665.509
274.497	20.801	873.807	664.656
275.512	20.796	873.324	664.209
276.526	20.991	872.894	664.566
277.541	21.216	872.526	665.087
278.555	21.329	872.031	665.078
279.570	21.506	871.411	665.221
280.585	21.479	870.320	664.227
281.599	21.239	869.197	662.402
282.614	21.013	868.547	660.989
283.628	21.102	868.078	660.912
284.643	20.936	867.632	659.887
285.657	20.993	867.079	659.621
286.672	20.991	866.627	659.211
287.687	21.134	865.639	658.943
288.701	20.976	865.251	657.993
289.716	21.086	864.831	658.030
290.730	21.120	863.734	657.266
291.745	21.241	863.390	657.402
292.760	21.311	863.061	657.356
293.774	21.544	862.648	657.857
294.789	21.428	861.835	656.744
295.803	21.192	860.608	654.867
296.818	20.966	860.261	653.695
297.833	20.904	859.647	652.942
298.847	21.099	859.203	653.276
299.862	21.325	858.466	653.501
300.876	21.433	858.145	653.604
301.891	21.490	857.808	653.504
302.906	21.635	857.416	653.687
303.920	21.878	856.937	654.172
304.935	21.895	856.694	653.989
305.949	21.566	856.453	652.523
306.964	21.530	855.465	651.579
307.979	21.670	853.923	650.865
308.993	21.678	854.127	650.994
310.008	21.834	853.049	650.692
311.022	21.592	852.559	649.366
312.037	21.494	851.496	648.134
313.052	21.191	851.015	646.589
314.066	21.057	850.883	645.937
315.081	21.078	849.938	645.238
316.095	21.196	849.542	645.317
317.110	21.110	848.845	644.412
318.125	21.061	848.452	643.878
319.139	21.129	847.893	643.646
320.154	21.009	847.724	643.019
321.168	21.244	847.133	643.379
322.183	21.351	846.096	642.929
323.197	21.227	845.841	642.221
324.212	21.380	845.038	642.117
325.227	21.356	844.522	641.580
326.241	21.261	843.929	640.724
327.256	21.286	843.475	640.416
328.270	21.174	842.873	639.493
329.285	21.121	842.146	638.690
330.300	21.363	841.229	638.821
331.314	21.326	841.252	638.647
332.329	21.490	841.210	639.157
333.343	21.666	840.254	639.019
334.358	21.592	840.432	638.826
335.373	21.551	839.987	638.282
336.387	21.746	839.985	638.936
337.402	21.673	839.666	638.370
338.416	22.019	839.076	639.122
339.431	22.104	838.986	639.308
340.446	22.189	838.468	639.167
341.460	22.254	838.204	639.146
342.475	22.322	837.606	638.878
343.489	22.229	837.435	638.353
344.504	22.425	836.791	638.517
345.519	22.514	836.262	638.380
346.533	22.394	835.540	637.338
347.548	22.016	835.028	635.524
348.562	21.598	834.435	633.502
349.577	21.572	833.769	632.848
350.592	21.587	832.952	632.224
351.606	21.619	831.867	631.460
352.621	21.762	831.360	631.537
353.635	21.768	830.815	631.087
354.650	21.823	830.171	630.741
355.665	21.901	829.847	630.720
356.679	21.962	829.035	630.266
357.694	22.040	828.828	630.331
358.708	21.924	828.124	629.325
359.723	22.020	827.117	628.847
360.738	21.966	826.955	628.474
361.752	22.048	826.045	628.023
362.767	22.154	826.231	628.488
363.781	22.368	825.752	628.830
364.796	22.542	825.373	629.107
365.810	22.614	825.091	629.096
366.825	22.715	824.925	629.274
367.840	22.442	824.110	627.623
368.854	22.487	823.302	627.111
369.869	22.463	822.798	626.588
370.883	22.502	822.431	626.390
371.898	22.520	822.176	626.205
372.913	22.755	821.691	626.616
373.927	22.433	821.038	624.920
374.942	22.440	820.838	624.735
375.956	22.716	820.500	625.402
376.971	22.758	820.221	625.284
377.986	22.784	819.798	624.997
379.000	22.749	819.498	624.590
380.015	22.731	818.633	623.810
381.029	22.668	818.022	623.069
382.044	22.776	817.353	622.884
383.059	22.932	816.426	622.672
384.073	22.723	815.850	621.444
385.088	22.348	815.329	619.670
386.102	22.411	814.480	619.193
387.117	22.321	813.648	618.189
388.132	22.313	813.293	617.834
389.146	22.262	813.365	617.655
390.161	22.556	812.678	618.113
391.175	22.673	812.755	618.525
392.190	22.628	811.299	617.206
393.205	22.292	811.087	615.814
394.219	22.400	810.498	615.691
395.234	22.135	810.170	614.458
396.248	22.039	809.868	613.842
397.263	22.003	809.301	613.231
398.278	22.025	808.700	612.797
399.292	22.061	807.861	612.234
400.307	21.977	807.771	611.817
401.321	22.266	807.306	612.417
402.336	22.256	807.017	612.109
403.350	22.358	806.802	612.248
404.365	22.670	806.572	613.106
405.380	22.858	805.952	613.231
406.394	23.059	805.184	613.292
407.409	23.002	804.926	612.843
408.423	23.093	804.944	613.117
409.438	23.095	804.824	612.978
410.453	23.147	804.104	612.553
411.467	23.300	803.596	612.642
412.482	23.405	803.070	612.551
413.496	23.410	802.870	612.360
414.511	23.350	802.423	611.760
415.526	23.106	801.922	610.482
416.540	23.072	801.764	610.189
417.555	23.316	800.467	609.988
418.569	23.097	800.896	609.506
419.584	23.161	800.258	609.188
420.599	23.149	799.754	608.708
421.613	166.014	1370.595	1798.587
422.628	144.291	1453.775	1798.639
