DTS Sentinel unit serial number:	SN413079Multiplexer serial number:	ORYXHardware model number:	OX4-SRSoftware version number:	ORYX F/W v4.00 Oryx Data Collector v3.7.2.0data status	okinstallation	princeton_trtdifferential loss correction	single-endedforward channel	channel 1reverse channel	N/Adate	2019/09/19time	07:14:35forward acquisition time	60.00reverse acquisition time	0.00gamma	496.2192k internal	0.2342k external	0.2342temperature offset calibration	1.0013default loss term (dB/km)	0.3790temperature slope calibration	1.0000multiplexer offset coefficient	1.0000multiplexer slope coefficient	1.0000fibre end	0.00T internal ref (°C)	19.06T ext. ref 1 (°C)	0.56T ext. ref 2 (°C)	13.48length (m)	temperature (°C)	Stokes	anti-Stokes-747.200	-7.403	-0.306	-0.208
-746.185	90.828	-0.073	0.082
-745.171	147.640	0.238	0.322
-744.156	133.605	-0.314	0.406
-743.142	-200.000	0.052	0.380
-742.127	800.000	-0.063	0.220
-741.112	19.358	-0.199	0.160
-740.098	-29.429	0.087	-0.050
-739.083	800.000	0.066	0.238
-738.069	132.127	-0.103	-0.132
-737.054	-200.000	-0.065	-0.441
-736.039	7.101	-0.125	0.094
-735.025	-59.437	-0.252	0.108
-734.010	34.585	-0.226	-0.198
-732.996	74.112	0.142	-0.149
-731.981	-61.560	-0.236	0.099
-730.966	-3.547	0.052	0.036
-729.952	795.224	-0.086	-0.238
-728.937	33.742	0.135	-0.117
-727.923	-200.000	0.009	0.123
-726.908	-200.000	0.017	0.126
-725.894	667.601	0.106	0.275
-724.879	150.480	0.019	0.026
-723.864	-114.864	-0.193	-0.037
-722.850	-24.102	0.076	0.046
-721.835	65.158	-0.184	-0.186
-720.821	27.498	0.041	0.035
-719.806	-82.688	0.170	0.055
-718.791	800.000	-0.079	-0.264
-717.777	-29.125	-0.218	0.125
-716.762	-10.689	-0.176	0.117
-715.748	-142.476	-0.566	-0.056
-714.733	800.000	-0.117	-0.368
-713.718	-118.166	-0.325	0.058
-712.704	-61.531	0.123	-0.052
-711.689	78.831	-0.024	0.026
-710.675	733.281	0.184	0.492
-709.660	-180.417	-0.232	0.005
-708.645	396.753	-0.025	0.052
-707.631	-200.000	-0.027	-0.307
-706.616	-46.799	-0.115	-0.057
-705.602	4.103	0.050	0.037
-704.587	-200.000	-0.043	0.235
-703.572	-80.391	0.287	-0.096
-702.558	-155.789	0.380	-0.024
-701.543	800.000	0.047	-0.171
-700.529	56.040	0.076	0.074
-699.514	800.000	0.040	-0.112
-698.499	-22.485	-0.214	-0.129
-697.485	800.000	-0.104	-0.330
-696.470	-200.000	0.006	-0.160
-695.456	-200.000	0.026	0.150
-694.441	-136.355	0.136	-0.016
-693.426	800.000	-0.101	0.358
-692.412	800.000	0.059	0.234
-691.397	-15.012	0.023	-0.015
-690.383	4.437	-0.167	0.123
-689.368	-42.788	-0.255	-0.130
-688.354	631.861	0.083	0.210
-687.339	-154.639	-0.137	-0.009
-686.324	-200.000	-0.036	-0.231
-685.310	-93.217	-0.184	-0.051
-684.295	-200.000	-0.045	-0.202
-683.281	376.551	-0.116	0.236
-682.266	-200.000	-0.023	-0.253
-681.251	-179.536	-0.126	-0.003
-680.237	550.213	0.143	-0.343
-679.222	115.027	0.173	-0.211
-678.208	9.514	0.324	0.245
-677.193	-169.230	-0.231	0.009
-676.178	-100.556	0.147	-0.036
-675.164	40.020	-0.322	-0.289
-674.149	8.487	0.075	0.056
-673.135	60.616	0.077	-0.076
-672.120	22.239	0.222	-0.181
-671.105	446.892	-0.126	-0.277
-670.091	-93.833	-0.309	0.085
-669.076	53.974	-0.237	0.228
-668.062	-103.237	0.085	-0.020
-667.047	-200.000	0.032	0.164
-666.032	-110.011	0.077	0.016
-665.018	-114.036	-0.076	-0.015
-664.003	-200.000	0.000	0.106
-662.989	-19.966	0.180	0.111
-661.974	201.531	0.135	0.207
-660.959	-129.938	0.234	-0.032
-659.945	-75.553	0.303	0.108
-658.930	539.973	0.121	0.287
-657.916	31.787	-0.339	-0.291
-656.901	151.192	0.233	0.317
-655.886	-27.527	-0.207	-0.120
-654.872	-10.617	0.242	-0.160
-653.857	-44.538	0.154	-0.077
-652.843	-59.755	0.295	0.126
-651.828	72.570	-0.113	-0.117
-650.814	759.232	-0.067	-0.182
-649.799	-25.438	0.307	0.181
-648.784	-85.207	-0.236	0.073
-647.770	-86.477	-0.300	-0.092
-646.755	-143.370	0.080	-0.008
-645.741	-144.914	0.442	-0.040
-644.726	685.517	-0.175	0.455
-643.711	-200.000	-0.003	-0.121
-642.697	-200.000	0.094	0.430
-641.682	7.613	0.192	0.143
-640.668	-200.000	-0.022	0.127
-639.653	800.000	-0.105	-0.360
-638.638	719.340	0.132	0.350
-637.624	-1.901	-0.225	-0.158
-636.609	96.033	-0.122	0.139
-635.595	-127.140	-0.234	-0.034
-634.580	322.695	0.096	0.182
-633.565	-177.046	-0.253	0.006
-632.551	60.935	0.189	0.187
-631.536	-200.000	0.035	0.188
-630.522	800.000	-0.020	0.069
-629.507	30.749	-0.157	0.134
-628.492	-200.000	0.021	0.322
-627.478	-52.020	0.198	-0.092
-626.463	315.990	-0.094	0.177
-625.449	800.000	-0.058	0.228
-624.434	-131.851	0.053	0.007
-623.419	800.000	0.039	-0.119
-622.405	425.215	0.083	0.178
-621.390	800.000	0.021	0.070
-620.376	-67.116	0.182	-0.071
-619.361	-40.485	-0.147	0.076
-618.346	-76.521	-0.390	-0.136
-617.332	62.092	0.404	-0.402
-616.317	-185.382	-0.180	0.003
-615.303	125.815	0.223	-0.281
-614.288	-45.981	-0.228	0.112
-613.273	266.257	-0.133	0.232
-612.259	-121.530	0.232	-0.038
-611.244	147.978	-0.180	0.242
-610.230	31.724	0.195	-0.168
-609.215	-200.000	0.012	-0.186
-608.201	346.843	-0.095	-0.186
-607.186	339.929	0.049	0.096
-606.171	-15.314	-0.174	0.111
-605.157	-200.000	0.020	-0.146
-604.142	-89.717	0.092	-0.027
-603.128	-17.075	0.131	-0.082
-602.113	137.631	0.209	-0.272
-601.098	217.992	-0.037	-0.058
-600.084	760.271	0.097	-0.262
-599.069	-200.000	0.070	-0.330
-598.055	800.000	-0.103	0.286
-597.040	-56.358	-0.257	0.114
-596.025	42.758	-0.203	0.184
-595.011	-200.000	0.011	0.109
-593.996	-91.794	0.149	-0.042
-592.982	-17.168	-0.080	-0.050
-591.967	443.480	0.109	-0.237
-590.952	113.642	-0.166	-0.201
-589.938	-164.975	0.159	0.007
-588.923	-65.075	0.173	-0.070
-587.909	38.983	-0.233	-0.207
-586.894	433.526	-0.117	-0.252
-585.879	-161.380	-0.440	0.023
-584.865	-117.861	-0.034	0.006
-583.850	-200.000	-0.051	-0.261
-582.836	-200.000	0.009	-0.133
-581.821	-200.000	-0.032	-0.253
-580.806	-200.000	-0.029	0.199
-579.792	-41.372	0.130	-0.067
-578.777	-108.376	-0.272	-0.058
-577.763	-200.000	-0.028	0.156
-576.748	-120.811	-0.472	0.079
-575.733	-129.112	-0.237	-0.033
-574.719	-153.688	-0.125	-0.009
-573.704	26.023	0.055	0.045
-572.690	-2.398	0.198	-0.138
-571.675	-21.968	0.399	0.241
-570.661	50.288	-0.170	0.160
-569.646	-11.277	0.408	0.267
-568.631	505.190	0.042	-0.097
-567.617	-58.787	-0.136	-0.059
-566.602	274.504	0.034	0.060
-565.588	-147.483	0.300	-0.025
-564.573	800.000	-0.083	-0.303
-563.558	275.710	0.107	0.188
-562.544	-10.347	0.207	0.136
-561.529	143.224	-0.136	-0.180
-560.515	0.897	0.264	0.188
-559.500	67.669	0.080	-0.081
-558.485	-81.278	-0.272	0.089
-557.471	700.228	-0.060	-0.156
-556.456	-200.000	-0.007	0.186
-555.442	-200.000	-0.041	-0.178
-554.427	510.713	-0.043	0.099
-553.412	757.426	-0.143	-0.384
-552.398	49.082	-0.076	-0.071
-551.383	-4.244	0.092	-0.063
-550.369	-120.715	0.404	0.068
-549.354	-200.000	-0.046	-0.208
-548.339	-200.000	0.019	-0.609
-547.325	-200.000	-0.023	-0.250
-546.310	-200.000	0.056	-0.283
-545.296	800.000	-0.115	0.385
-544.281	284.311	-0.032	-0.057
-543.266	-58.349	-0.165	0.071
-542.252	-169.469	0.186	0.007
-541.237	-57.841	0.413	-0.179
-540.223	-52.000	-0.209	-0.096
-539.208	800.000	0.029	-0.098
-538.193	-110.842	0.236	0.048
-537.179	-200.000	-0.012	-0.090
-536.164	-200.000	-0.064	0.290
-535.150	-76.073	0.072	-0.025
-534.135	-28.791	0.138	0.079
-533.121	-200.000	-0.013	0.069
-532.106	-32.069	-0.277	0.154
-531.091	-61.512	-0.165	-0.069
-530.077	49.631	-0.122	0.114
-529.062	-48.663	0.153	0.073
-528.048	210.261	-0.254	0.396
-527.033	800.000	-0.036	-0.118
-526.018	-2.991	0.121	0.084
-525.004	28.529	-0.071	0.060
-523.989	149.766	0.282	-0.379
-522.975	500.331	0.066	-0.151
-521.960	-200.000	-0.006	0.031
-520.945	361.330	0.111	-0.220
-519.931	30.215	-0.167	-0.141
-518.916	800.000	-0.092	0.377
-517.902	13.481	0.236	0.182
-516.887	-23.917	-0.220	0.131
-515.872	-58.376	-0.195	-0.084
-514.858	-58.157	-0.178	-0.077
-513.843	-111.306	0.243	0.049
-512.829	-170.625	0.110	-0.004
-511.814	21.742	0.234	0.189
-510.799	-133.711	0.382	0.047
-509.785	10.929	-0.088	0.067
-508.770	-53.715	-0.081	0.037
-507.756	-98.205	-0.159	-0.040
-506.741	-108.996	0.179	0.038
-505.726	290.727	-0.036	0.064
-504.712	-68.543	0.051	-0.020
-503.697	460.313	-0.079	0.175
-502.683	11.641	0.123	0.094
-501.668	-12.802	-0.231	-0.149
-500.653	-29.265	-0.174	-0.099
-499.639	-98.109	0.434	-0.111
-498.624	21.902	-0.142	-0.115
-497.610	800.000	0.075	0.253
-496.595	-107.437	-0.090	-0.020
-495.581	126.214	0.086	0.108
-494.566	-18.625	-0.180	0.112
-493.551	-175.977	0.234	-0.006
-492.537	800.000	0.070	0.230
-491.522	-200.000	-0.011	0.146
-490.508	-119.029	-0.048	-0.008
-489.493	800.000	-0.042	0.133
-488.478	-200.000	-0.027	-0.171
-487.464	349.944	0.109	0.215
-486.449	-3.481	0.135	-0.093
-485.435	157.922	0.141	0.193
-484.420	-24.544	-0.068	-0.040
-483.405	46.163	0.261	-0.240
-482.391	89.421	0.167	-0.185
-481.376	-121.365	0.313	0.052
-480.362	148.548	0.111	0.149
-479.347	89.178	-0.106	-0.117
-478.332	-200.000	0.023	0.146
-477.318	712.429	0.055	0.144
-476.303	117.063	-0.273	0.332
-475.289	-125.702	-0.301	0.045
-474.274	-7.609	0.179	0.120
-473.259	-7.909	0.173	0.116
-472.245	-148.038	0.322	0.027
-471.230	180.633	0.204	0.297
-470.216	-20.140	0.128	-0.078
-469.201	514.693	0.150	-0.347
-468.186	-102.899	-0.151	-0.036
-467.172	-134.492	0.095	-0.012
-466.157	-200.000	0.023	0.127
-465.143	3.152	-0.310	0.223
-464.128	685.682	0.036	-0.094
-463.113	-57.244	-0.083	-0.036
-462.099	-200.000	0.031	0.297
-461.084	306.616	0.129	-0.238
-460.070	39.414	0.083	0.074
-459.055	176.353	-0.122	-0.176
-458.040	-53.669	-0.340	0.154
-457.026	-200.000	0.053	-0.304
-456.011	-88.321	-0.315	-0.093
-454.997	23.805	-0.086	-0.070
-453.982	130.210	-0.027	-0.034
-452.968	-103.544	-0.079	-0.018
-451.953	-200.000	-0.035	-0.269
-450.938	800.000	-0.074	-0.210
-449.924	-67.642	0.325	0.126
-448.909	482.549	0.076	0.171
-447.895	800.000	0.062	-0.239
-446.880	-31.356	0.184	0.102
-445.865	-103.041	-0.131	-0.031
-444.851	-82.381	0.417	0.134
-443.836	-136.470	-0.245	-0.028
-442.822	-131.487	0.217	-0.028
-441.807	-84.245	0.192	-0.060
-440.792	800.000	0.052	-0.190
-439.778	800.000	-0.094	0.261
-438.763	-43.952	-0.098	0.049
-437.749	-28.470	0.116	-0.066
-436.734	-200.000	0.010	-0.083
-435.719	355.637	0.158	0.311
-434.705	75.550	0.281	0.293
-433.690	-86.248	-0.118	-0.036
-432.676	-13.156	0.109	-0.070
-431.661	800.000	-0.049	-0.147
-430.646	-109.741	0.104	0.022
-429.632	-76.814	0.271	-0.094
-428.617	-105.261	-0.044	-0.010
-427.603	-200.000	0.010	-0.085
-426.588	71.200	-0.321	-0.329
-425.573	-0.541	-0.004	-0.003
-424.559	-74.619	0.280	0.100
-423.544	800.000	0.103	-0.282
-422.530	-100.662	-0.268	-0.065
-421.515	41.624	0.053	-0.048
-420.500	435.053	0.167	0.359
-419.486	663.796	0.064	0.164
-418.471	800.000	0.090	-0.259
-417.457	131.970	-0.248	0.315
-416.442	-84.460	-0.170	-0.053
-415.428	35.771	0.074	0.065
-414.413	-147.028	-0.069	0.006
-413.398	800.000	0.147	0.405
-412.384	17.767	-0.062	-0.049
-411.369	-98.885	-0.234	-0.059
-410.355	-11.550	0.284	0.185
-409.340	-56.448	-0.009	0.004
-408.325	-112.117	0.042	0.008
-407.311	73.083	0.199	-0.206
-406.296	-57.030	-0.201	0.088
-405.282	-200.000	0.017	0.131
-404.267	168.964	-0.082	-0.115
-403.252	660.298	-0.089	0.227
-402.238	800.000	-0.106	0.322
-401.223	-73.695	-0.274	-0.098
-400.209	-116.916	0.117	-0.021
-399.194	-86.653	0.107	-0.032
-398.179	-22.480	-0.077	0.046
-397.165	136.439	0.156	-0.201
-396.150	346.873	-0.116	-0.226
-395.136	-20.449	-0.105	-0.064
-394.121	-42.293	-0.203	-0.102
-393.106	-69.166	0.187	0.071
-392.092	-200.000	0.004	-0.185
-391.077	-200.000	-0.046	-0.393
-390.063	-200.000	0.003	0.171
-389.048	301.122	-0.038	-0.069
-388.033	640.138	-0.081	-0.205
-387.019	604.666	-0.109	0.268
-386.004	7.474	0.273	0.202
-384.990	-14.701	0.142	-0.090
-383.975	800.000	-0.050	-0.218
-382.960	-200.000	-0.084	0.375
-381.946	31.225	0.180	0.153
-380.931	293.007	0.052	0.094
-379.917	28.912	-0.115	0.096
-378.902	-67.167	0.359	0.140
-377.888	26.282	-0.107	-0.088
-376.873	-200.000	-0.019	-0.185
-375.858	-142.185	-0.259	-0.025
-374.844	8.487	0.143	0.106
-373.829	-90.306	0.101	0.029
-372.815	18.579	-0.133	0.105
-371.800	-89.780	0.124	0.036
-370.785	-53.431	-0.132	0.060
-369.771	-124.379	-0.195	0.030
-368.756	17.958	0.015	0.012
-367.742	0.289	0.150	-0.106
-366.727	-144.940	0.250	-0.023
-365.712	16.143	-0.198	0.154
-364.698	-200.000	-0.032	0.160
-363.683	-81.534	-0.192	-0.062
-362.669	318.747	0.150	-0.280
-361.654	-110.634	-0.448	0.091
-360.639	-57.524	-0.145	-0.063
-359.625	367.679	-0.109	0.218
-358.610	39.954	-0.192	-0.170
-357.596	-11.416	0.261	0.169
-356.581	-145.136	-0.409	0.037
-355.566	-28.630	-0.154	0.087
-354.552	31.471	0.186	-0.158
-353.537	25.828	-0.130	0.107
-352.523	-29.788	0.240	-0.135
-351.508	-131.029	0.212	-0.028
-350.493	800.000	0.032	-0.130
-349.479	660.777	0.023	-0.057
-348.464	80.375	0.093	-0.099
-347.450	138.884	-0.197	0.255
-346.435	-51.380	-0.165	0.076
-345.420	771.431	0.102	0.274
-344.406	132.278	-0.083	0.106
-343.391	-54.798	0.140	-0.062
-342.377	-13.040	-0.261	0.167
-341.362	195.131	-0.189	0.283
-340.348	-95.974	-0.385	0.101
-339.333	800.000	0.051	0.150
-338.318	800.000	-0.065	0.271
-337.304	414.697	0.246	-0.516
-336.289	-42.807	0.087	0.044
-335.275	696.185	-0.058	0.151
-334.260	468.817	-0.076	0.167
-333.245	339.345	-0.070	-0.135
-332.231	-36.849	-0.233	-0.123
-331.216	-87.966	0.119	0.035
-330.202	34.476	-0.144	-0.124
-329.187	800.000	-0.069	-0.267
-328.172	-200.000	-0.073	-0.322
-327.158	800.000	0.041	0.120
-326.143	-200.000	0.054	0.717
-325.129	698.197	0.123	-0.319
-324.114	-2.666	0.365	-0.251
-323.099	-59.988	0.175	0.074
-322.085	800.000	-0.111	-0.446
-321.070	-33.228	-0.206	0.113
-320.056	32.470	0.488	-0.415
-319.041	800.000	-0.062	-0.191
-318.026	-200.000	-0.034	-0.284
-317.012	80.460	0.258	0.274
-315.997	38.691	0.093	0.081
-314.983	-200.000	-0.024	0.275
-313.968	-118.737	-0.136	-0.024
-312.953	-200.000	0.004	-0.082
-311.939	441.386	-0.102	-0.219
-310.924	147.066	0.115	-0.152
-309.910	91.651	-0.193	0.214
-308.895	35.163	-0.131	-0.113
-307.880	492.755	-0.094	-0.211
-306.866	11.802	-0.033	0.025
-305.851	-34.113	0.074	0.040
-304.837	-76.282	-0.109	-0.038
-303.822	85.465	0.136	-0.147
-302.807	188.741	-0.109	-0.161
-301.793	-200.000	-0.016	-0.260
-300.778	421.642	0.106	0.225
-299.764	51.839	-0.112	-0.105
-298.749	73.841	-0.125	-0.129
-297.735	405.612	0.033	0.068
-296.720	-32.519	-0.237	-0.130
-295.705	-88.907	0.080	0.023
-294.691	-66.423	-0.282	-0.110
-293.676	-71.852	0.129	-0.047
-292.662	144.886	0.307	-0.403
-291.647	-200.000	-0.016	0.272
-290.632	-200.000	0.002	0.041
-289.618	-56.616	-0.185	-0.080
-288.603	62.556	0.063	0.062
-287.589	-174.036	-0.039	-0.001
-286.574	-200.000	0.042	-0.202
-285.559	179.331	-0.103	-0.149
-284.545	-121.550	-0.242	0.039
-283.530	-200.000	0.026	0.288
-282.516	-17.261	0.192	-0.119
-281.501	-85.720	0.110	-0.034
-280.486	-84.145	0.162	-0.051
-279.472	6.183	0.286	-0.209
-278.457	-26.710	0.214	0.123
-277.443	800.000	-0.074	-0.303
-276.428	800.000	-0.036	0.156
-275.413	36.467	-0.029	-0.025
-274.399	-200.000	0.006	-0.048
-273.384	-24.238	0.211	0.124
-272.370	49.472	-0.205	-0.190
-271.355	-91.075	-0.300	-0.085
-270.340	549.531	-0.056	0.131
-269.326	-200.000	-0.008	0.166
-268.311	-200.000	-0.010	0.078
-267.297	16.321	-0.230	0.179
-266.282	-5.575	0.139	0.094
-265.267	-200.000	-0.001	-0.032
-264.253	-16.160	0.152	0.095
-263.238	-128.118	0.231	-0.032
-262.224	20.804	-0.169	0.135
-261.209	-35.108	-0.094	0.050
-260.195	207.276	0.161	-0.246
-259.180	386.638	0.212	0.430
-258.165	-100.018	0.267	-0.065
-257.151	-200.000	-0.030	0.140
-256.136	800.000	-0.048	-0.177
-255.122	147.229	-0.282	-0.373
-254.107	-82.302	-0.117	-0.038
-253.092	-101.305	0.219	0.053
-252.078	800.000	0.023	0.097
-251.063	-200.000	0.008	-0.040
-250.049	-106.334	-0.298	-0.065
-249.034	-79.050	-0.262	-0.088
-248.019	-37.756	0.122	0.064
-247.005	7.376	0.052	0.038
-245.990	64.908	-0.176	0.175
-244.976	129.650	0.163	0.205
-243.961	-70.518	-0.264	0.098
-242.946	-200.000	-0.026	-0.200
-241.932	-76.943	-0.322	-0.111
-240.917	-58.595	0.442	0.188
-239.903	800.000	-0.089	-0.247
-238.888	-200.000	-0.013	0.260
-237.873	-200.000	0.001	-0.083
-236.859	52.773	-0.157	0.147
-235.844	33.420	0.261	0.223
-234.830	-200.000	-0.098	-0.474
-233.815	123.588	0.138	0.171
-232.800	-13.803	0.100	-0.064
-231.786	-80.129	-0.086	0.028
-230.771	-200.000	-0.035	0.352
-229.757	16.556	-0.166	0.129
-228.742	-0.065	-0.204	0.143
-227.727	-116.004	-0.233	-0.043
-226.713	-76.848	-0.115	-0.039
-225.698	-145.974	-0.380	-0.033
-224.684	469.268	0.044	0.098
-223.669	696.526	0.043	0.112
-222.655	-200.000	0.004	-0.054
-221.640	63.963	0.069	0.068
-220.625	654.247	0.040	-0.100
-219.611	-101.179	-0.029	-0.007
-218.596	218.734	-0.148	-0.232
-217.582	-48.627	0.106	0.050
-216.567	323.076	-0.019	-0.036
-215.552	59.269	-0.197	0.190
-214.538	184.885	0.160	-0.232
-213.523	89.675	-0.083	-0.091
-212.509	800.000	0.103	0.283
-211.494	-200.000	0.067	-0.372
-210.479	-80.335	-0.321	-0.105
-209.465	536.377	0.032	0.075
-208.450	-88.066	0.232	-0.068
-207.436	-200.000	0.065	0.291
-206.421	-200.000	0.027	0.117
-205.406	-62.542	0.176	-0.072
-204.392	640.272	-0.073	0.183
-203.377	-173.048	-0.254	0.008
-202.363	200.417	0.080	-0.120
-201.348	126.305	-0.060	0.075
-200.333	-56.408	0.041	0.018
-199.319	-169.285	0.048	0.002
-198.304	-161.556	0.379	0.019
-197.290	75.202	-0.040	-0.041
-196.275	-58.471	-0.047	-0.020
-195.260	-179.302	-0.222	-0.005
-194.246	-200.000	-0.009	-0.198
-193.231	130.236	-0.200	0.251
-192.217	-76.671	0.396	0.136
-191.202	-200.000	-0.008	0.372
-190.187	41.336	-0.174	0.154
-189.173	-172.783	-0.231	0.007
-188.158	-142.955	0.074	-0.007
-187.144	800.000	0.037	0.121
-186.129	-7.001	-0.167	0.111
-185.114	97.473	0.108	-0.122
-184.100	800.000	-0.135	-0.393
-183.085	-134.941	-0.100	-0.012
-182.071	-200.000	-0.030	-0.165
-181.056	-108.814	0.313	-0.066
-180.042	104.368	-0.384	-0.443
-179.027	-125.898	-0.327	0.048
-178.012	-78.435	-0.112	0.038
-176.998	-23.879	0.061	0.036
-175.983	-30.481	0.284	0.158
-174.969	515.486	-0.033	0.076
-173.954	-84.659	-0.071	-0.022
-172.939	-91.837	0.401	0.112
-171.925	-23.200	0.231	0.136
-170.910	-105.077	-0.407	-0.091
-169.896	5.389	0.111	0.080
-168.881	-6.372	-0.044	0.029
-167.866	-135.054	-0.284	-0.034
-166.852	-200.000	0.508	0.000
-165.837	165.756	-0.163	0.226
-164.823	57.890	-0.117	-0.113
-163.808	118.723	-0.112	-0.135
-162.793	-85.818	0.180	-0.055
-161.779	59.743	-0.166	-0.161
-160.764	201.999	0.203	-0.307
-159.750	-96.100	0.183	-0.048
-158.735	-200.000	-0.040	0.179
-157.720	81.805	-0.159	-0.169
-156.706	-200.000	0.048	-0.260
-155.691	277.932	0.063	0.110
-154.677	-78.681	0.222	-0.074
-153.662	-141.268	0.135	0.013
-152.647	61.157	0.278	-0.270
-151.633	326.252	-0.069	-0.130
-150.618	-134.901	0.216	-0.026
-149.604	185.259	0.128	-0.186
-148.589	33.313	0.166	-0.141
-147.574	93.446	-0.005	0.005
-146.560	-15.376	0.092	0.058
-145.545	156.440	-0.208	0.281
-144.531	-135.322	-0.237	0.028
-143.516	387.884	0.249	0.505
-142.502	-8.450	-0.263	0.173
-141.487	-200.000	0.000	-0.208
-140.472	-161.250	-0.182	-0.009
-139.458	111.482	-0.167	-0.197
-138.443	719.374	0.035	-0.091
-137.429	-200.000	0.011	0.359
-136.414	-50.710	-0.318	0.146
-135.399	340.791	-0.062	-0.119
-134.385	-200.000	0.010	0.055
-133.370	533.208	-0.128	0.295
-132.356	-12.333	0.278	0.178
-131.341	800.000	-0.086	0.312
-130.326	-200.000	-0.003	-0.103
-129.312	-200.000	-0.002	-0.032
-128.297	-200.000	-0.018	-0.353
-127.283	-135.517	-0.141	0.016
-126.268	-200.000	0.036	0.239
-125.253	-89.180	0.353	-0.102
-124.239	71.445	-0.170	-0.172
-123.224	122.989	-0.078	0.096
-122.210	56.273	0.042	-0.040
-121.195	800.000	0.020	0.066
-120.180	-183.060	0.243	-0.004
-119.166	-200.000	-0.041	-0.224
-118.151	-6.167	-0.031	-0.021
-117.137	-200.000	-0.024	-0.171
-116.122	92.197	0.213	0.234
-115.107	126.715	0.153	0.189
-114.093	96.451	0.162	0.181
-113.078	-68.927	-0.120	-0.045
-112.064	-200.000	0.054	0.270
-111.049	521.107	-0.037	-0.085
-110.034	-200.000	-0.005	0.027
-109.020	31.163	0.233	0.195
-108.005	205.312	0.130	-0.197
-106.991	123.281	0.188	-0.230
-105.976	65.574	0.278	0.275
-104.962	-191.689	0.192	-0.002
-103.947	112.732	0.203	-0.240
-102.932	322.618	-0.172	0.320
-101.918	-200.000	0.017	0.149
-100.903	260.680	-0.269	0.454
-99.889	157.919	-0.043	0.058
-98.874	-121.827	0.116	0.019
-97.859	-122.787	-0.238	-0.038
-96.845	455.120	-0.091	0.197
-95.830	-200.000	0.000	0.059
-94.816	94.599	0.131	0.145
-93.801	-150.826	0.165	-0.012
-92.786	-67.930	-0.070	-0.027
-91.772	248.479	-0.071	-0.117
-90.757	-165.522	-0.176	0.008
-89.743	-48.588	0.129	-0.060
-88.728	47.145	-0.076	-0.069
-87.713	-135.972	0.210	-0.024
-86.699	288.293	-0.087	0.153
-85.684	-166.583	0.189	0.008
-84.670	-200.000	-0.008	0.366
-83.655	-200.000	-0.043	0.262
-82.640	-41.012	0.305	-0.154
-81.626	-31.471	-0.120	-0.066
-80.611	-26.544	0.192	-0.110
-79.597	-119.664	0.309	0.052
-78.582	-200.000	-0.013	0.149
-77.567	-200.000	-0.001	0.292
-76.553	60.800	0.176	-0.170
-75.538	-45.676	-0.176	0.085
-74.524	-134.620	0.284	0.034
-73.509	484.045	0.028	0.063
-72.494	-200.000	0.051	-0.338
-71.480	134.990	0.073	-0.092
-70.465	539.628	-0.028	0.065
-69.451	800.000	-0.130	0.357
-68.436	-43.678	0.206	0.101
-67.422	-49.300	-0.282	0.131
-66.407	26.382	0.313	0.255
-65.392	125.021	-0.187	-0.230
-64.378	-1.939	0.212	0.145
-63.363	-85.399	-0.398	-0.121
-62.349	50.961	-0.178	-0.165
-61.334	83.057	-1.356	-1.439
-60.319	110.637	0.902	1.058
-59.305	405.952	-0.694	-1.428
-58.290	341.949	0.787	1.500
-57.276	309.821	0.697	1.271
-56.261	-200.000	136.335	624.025
-55.246	341.165	1639.148	3122.350
-54.232	136.640	2776.760	3534.263
-53.217	81.061	2157.884	2271.187
-52.203	29.661	1591.347	1320.381
-51.188	22.078	1343.797	1068.983
-50.173	20.192	1309.232	1030.256
-49.159	46.610	1384.189	1252.566
-48.144	41.985	1393.372	1232.439
-47.130	22.029	1341.140	1066.408
-46.115	19.244	1322.218	1034.620
-45.100	19.079	1317.294	1029.737
-44.086	19.080	1314.650	1027.634
-43.071	18.924	1312.343	1024.860
-42.057	18.978	1310.149	1023.429
-41.042	18.930	1308.724	1021.988
-40.027	18.935	1307.243	1020.820
-39.013	18.985	1305.379	1019.619
-37.998	18.964	1303.365	1017.884
-36.984	19.143	1301.480	1017.432
-35.969	19.025	1300.225	1015.714
-34.954	19.104	1298.244	1014.591
-33.940	19.084	1297.199	1013.614
-32.925	19.182	1295.468	1012.797
-31.911	19.107	1294.071	1011.225
-30.896	19.163	1292.740	1010.476
-29.881	19.186	1291.365	1009.491
-28.867	19.171	1289.885	1008.208
-27.852	19.149	1288.245	1006.756
-26.838	19.187	1286.992	1005.962
-25.823	19.203	1285.518	1004.862
-24.809	19.146	1284.155	1003.423
-23.794	19.147	1283.018	1002.501
-22.779	19.163	1282.131	1001.861
-21.765	19.077	1280.942	1000.393
-20.750	19.222	1279.179	999.820
-19.736	19.088	1278.018	998.095
-18.721	19.010	1277.117	996.902
-17.706	18.969	1275.973	995.731
-16.692	18.993	1274.819	994.932
-15.677	19.091	1273.212	994.200
-14.663	18.997	1272.006	992.677
-13.648	18.893	1271.101	991.333
-12.633	18.962	1270.244	991.024
-11.619	19.015	1269.641	990.815
-10.604	19.048	1268.834	990.339
-9.590	18.991	1267.804	989.165
-8.575	19.003	1266.591	988.252
-7.560	18.909	1266.029	987.234
-6.546	18.964	1265.164	986.833
-5.531	18.984	1263.955	985.966
-4.517	18.994	1262.940	985.196
-3.502	18.976	1262.952	985.063
-2.487	19.058	1261.602	984.436
-1.473	19.005	1257.347	980.779
-0.458	17.386	1242.419	959.962
0.556	13.243	1226.915	925.066
1.571	9.871	1235.467	912.397
2.586	9.359	1251.223	921.021
3.600	9.615	1238.557	913.067
4.615	7.304	1166.938	847.846
5.629	2.740	1098.562	775.073
6.644	0.661	1083.827	754.241
7.659	0.514	1081.776	752.013
8.673	0.530	1080.850	751.384
9.688	0.544	1079.669	750.566
10.702	0.743	1076.490	749.272
11.717	3.393	1079.362	764.362
12.731	9.424	1087.351	800.011
13.746	15.108	1094.018	833.202
14.761	16.907	1097.396	844.670
15.775	16.387	1095.267	840.370
16.790	15.393	1093.599	834.077
17.804	14.872	1092.068	830.252
18.819	14.368	1091.391	827.162
19.834	14.215	1090.168	825.403
20.848	14.029	1089.291	823.742
21.863	13.789	1088.228	821.676
22.877	13.622	1087.523	820.246
23.892	13.431	1087.058	818.876
24.907	13.471	1086.071	818.261
25.921	13.469	1085.821	817.989
26.936	13.633	1084.419	817.668
27.950	13.566	1083.666	816.700
28.965	13.648	1082.284	815.989
29.980	13.797	1080.048	814.965
30.994	13.741	1079.854	814.468
32.009	13.720	1078.937	813.604
33.023	13.739	1078.307	813.147
34.038	13.766	1076.725	812.017
35.053	13.693	1076.174	811.171
36.067	13.613	1075.068	809.877
37.082	13.668	1074.352	809.533
38.096	13.820	1073.398	809.485
39.111	13.711	1072.604	808.280
40.126	13.500	1072.104	806.806
41.140	13.623	1070.148	805.860
42.155	13.520	1069.416	804.739
43.169	13.539	1068.359	803.964
44.184	13.543	1067.172	803.018
45.199	13.580	1066.205	802.399
46.213	13.624	1065.192	801.779
47.228	13.591	1064.001	800.651
48.242	13.649	1062.882	800.021
49.257	13.561	1061.720	798.649
50.271	13.651	1061.149	798.584
51.286	13.566	1060.309	797.470
52.301	13.607	1059.196	796.760
53.315	13.666	1057.917	796.010
54.330	13.551	1056.852	794.586
55.344	13.542	1056.016	793.848
56.359	13.471	1055.355	792.937
57.374	13.634	1054.202	792.780
58.388	13.531	1053.407	791.621
59.403	13.467	1052.943	790.897
60.417	13.457	1051.696	789.845
61.432	13.426	1051.313	789.338
62.447	13.423	1050.042	788.301
63.461	13.512	1049.356	788.140
64.476	13.467	1048.296	787.060
65.490	13.481	1047.678	786.588
66.505	13.436	1046.947	785.760
67.520	13.470	1046.344	785.398
68.534	13.586	1045.080	784.927
69.549	13.572	1044.441	784.315
70.563	13.624	1043.506	783.787
71.578	13.443	1043.108	782.563
72.593	13.393	1042.392	781.720
73.607	13.419	1041.895	781.402
74.622	13.411	1040.920	780.563
75.636	13.388	1040.316	779.934
76.651	13.324	1039.930	779.276
77.666	13.453	1039.122	779.206
78.680	13.445	1038.719	778.798
79.695	13.459	1037.726	778.051
80.709	13.507	1036.860	777.559
81.724	13.435	1036.467	776.856
82.739	13.512	1034.871	775.954
83.753	13.759	1034.405	776.690
84.768	13.606	1033.663	775.351
85.782	13.596	1032.662	774.484
86.797	13.554	1031.531	773.372
87.812	13.647	1030.796	773.186
88.826	13.511	1030.062	771.931
89.841	13.574	1029.009	771.366
90.855	13.725	1027.588	770.937
91.870	13.641	1027.452	770.374
92.884	13.631	1026.130	769.270
93.899	13.794	1025.349	769.372
94.914	13.691	1024.747	768.373
95.928	13.854	1023.625	768.218
96.943	13.795	1022.178	766.795
97.957	13.772	1022.211	766.644
98.972	13.726	1021.344	765.713
99.987	13.803	1020.150	765.104
101.001	13.781	1019.143	764.180
102.016	13.810	1018.280	763.602
103.030	13.655	1018.065	762.659
104.045	13.803	1016.784	762.311
105.060	13.677	1016.285	761.289
106.074	13.657	1015.299	760.395
107.089	13.580	1013.940	758.957
108.103	13.645	1013.453	758.821
109.118	13.634	1012.397	757.915
110.133	13.643	1011.423	757.158
111.147	13.570	1011.065	756.488
112.162	13.675	1009.814	755.967
113.176	13.599	1008.860	754.840
114.191	13.607	1008.311	754.399
115.206	13.627	1007.539	753.842
116.220	13.545	1006.905	752.931
117.235	13.786	1005.402	752.832
118.249	13.687	1005.007	752.023
119.264	13.687	1004.171	751.332
120.279	13.614	1003.362	750.326
121.293	13.753	1002.332	750.122
122.308	13.717	1001.333	749.142
123.322	13.598	1000.670	748.043
124.337	13.549	999.643	746.990
125.352	13.470	998.386	745.626
126.366	13.625	997.278	745.432
127.381	13.601	996.557	744.717
128.395	13.564	995.652	743.808
129.410	13.607	994.224	742.873
130.424	13.763	993.135	742.689
131.439	13.526	992.871	741.365
132.454	13.811	991.714	741.711
133.468	13.671	991.164	740.606
134.483	13.706	990.293	740.048
135.497	13.673	989.088	738.934
136.512	13.618	988.306	738.042
137.527	13.734	987.533	737.914
138.541	13.629	987.097	737.058
139.556	13.582	986.565	736.386
140.570	13.753	985.685	736.423
141.585	13.871	984.205	735.773
142.600	13.785	983.877	735.081
143.614	13.902	982.672	734.633
144.629	13.796	982.325	733.842
145.643	13.954	980.912	733.419
146.658	13.818	980.067	732.122
147.673	13.758	979.450	731.332
148.687	13.797	978.645	730.836
149.702	13.706	978.031	729.915
150.716	13.802	976.958	729.472
151.731	13.807	976.374	728.991
152.746	13.882	975.728	728.774
153.760	13.915	974.852	728.201
154.775	13.991	974.063	727.878
155.789	13.882	973.722	727.083
156.804	14.030	972.694	726.900
157.819	13.978	972.204	726.242
158.833	14.034	971.752	726.083
159.848	14.029	970.525	725.080
160.862	14.004	969.834	724.393
161.877	13.897	968.991	723.229
162.892	13.909	967.917	722.417
163.906	13.979	967.064	722.024
164.921	13.992	966.254	721.410
165.935	14.076	965.224	720.940
166.950	13.997	964.442	719.950
167.964	13.970	963.595	719.137
168.979	13.976	962.664	718.406
169.994	14.039	961.583	717.809
171.008	14.100	961.038	717.602
172.023	14.030	960.275	716.665
173.037	14.099	959.661	716.442
174.052	14.194	958.722	716.086
175.067	14.147	958.241	715.460
176.081	13.999	957.568	714.257
177.096	13.997	957.700	714.283
178.110	14.003	956.571	713.407
179.125	14.164	955.968	713.586
180.140	14.180	955.497	713.239
181.154	14.240	954.974	713.041
182.169	14.280	954.309	712.651
183.183	14.301	953.620	712.167
184.198	14.387	952.770	711.833
185.213	14.339	951.983	710.977
186.227	14.281	951.270	710.138
187.242	14.275	950.874	709.750
188.256	14.325	950.454	709.587
189.271	14.211	949.468	708.305
190.286	14.232	948.605	707.687
191.300	14.232	947.778	707.009
192.315	14.184	947.443	706.491
193.329	14.068	947.146	705.715
194.344	14.264	946.250	705.815
195.359	14.293	945.253	705.132
196.373	14.297	944.958	704.869
197.388	14.292	944.708	704.597
198.402	14.412	943.840	704.396
199.417	14.509	942.692	703.887
200.432	14.604	941.784	703.547
201.446	14.481	942.213	703.287
202.461	14.448	941.835	702.800
203.475	14.671	940.599	702.756
204.490	14.622	940.215	702.198
205.504	14.505	939.443	701.070
206.519	14.505	938.548	700.339
207.534	14.542	937.963	699.995
208.548	14.527	937.217	699.317
209.563	14.611	936.545	699.105
210.577	14.475	936.160	698.186
211.592	14.585	935.316	697.954
212.607	14.684	934.163	697.446
213.621	14.682	933.433	696.829
214.636	14.580	933.267	696.218
215.650	14.679	932.471	695.976
216.665	14.845	931.156	695.624
217.680	14.705	931.021	694.881
218.694	14.880	930.029	694.805
219.709	14.678	929.993	693.875
220.723	14.767	928.391	692.989
221.738	14.757	927.765	692.418
222.753	14.677	927.664	691.952
223.767	14.689	926.615	691.159
224.782	14.822	926.556	691.604
225.796	14.896	925.508	691.065
226.811	14.946	924.798	690.679
227.826	14.739	924.526	689.560
228.840	14.930	923.259	689.342
229.855	14.802	922.646	688.299
230.869	14.814	922.003	687.806
231.884	14.915	921.572	687.841
232.899	14.766	920.670	686.492
233.913	14.837	919.645	685.957
234.928	14.901	919.382	685.965
235.942	14.826	918.208	684.720
236.957	14.818	917.917	684.412
237.972	14.860	917.103	683.913
238.986	14.892	916.543	683.567
240.001	14.936	915.719	683.073
241.015	14.915	915.750	682.949
242.030	14.939	914.672	682.181
243.045	14.950	914.012	681.675
244.059	14.974	913.830	681.576
245.074	15.079	912.662	681.073
246.088	15.153	912.157	680.935
247.103	15.183	911.439	680.461
248.117	15.076	911.174	679.769
249.132	15.171	910.573	679.647
250.147	15.233	910.036	679.435
251.161	15.173	908.951	678.324
252.176	15.300	908.247	678.252
253.190	15.256	907.922	677.770
254.205	15.389	907.026	677.579
255.220	15.474	906.254	677.287
256.234	15.347	905.611	676.234
257.249	15.317	905.274	675.803
258.263	15.376	904.235	675.203
259.278	15.382	903.691	674.762
260.293	15.403	903.277	674.477
261.307	15.518	902.246	674.109
262.322	15.451	901.789	673.438
263.336	15.457	900.992	672.807
264.351	15.508	900.218	672.376
265.366	15.575	899.639	672.153
266.380	15.607	898.955	671.710
267.395	15.622	898.153	671.110
268.409	15.573	897.488	670.358
269.424	15.572	896.651	669.669
270.439	15.652	895.884	669.354
271.453	15.454	895.503	668.223
272.468	15.489	894.887	667.842
273.482	15.582	893.975	667.474
274.497	15.657	893.485	667.347
275.512	15.686	893.177	667.172
276.526	15.682	892.623	666.686
277.541	15.767	891.806	666.352
278.555	15.935	891.125	666.448
279.570	15.787	890.806	665.564
280.585	15.699	890.090	664.626
281.599	15.906	888.622	664.288
282.614	15.650	888.650	663.240
283.628	15.834	888.127	663.516
284.643	15.740	887.160	662.361
285.657	15.932	886.211	662.352
286.672	15.895	885.875	661.897
287.687	15.839	885.400	661.262
288.701	15.844	884.843	660.807
289.716	15.789	884.635	660.377
290.730	15.805	883.974	659.888
291.745	15.965	882.714	659.517
292.760	16.133	881.772	659.412
293.774	15.997	881.449	658.579
294.789	16.021	880.961	658.250
295.803	15.943	880.388	657.461
296.818	15.980	879.726	657.051
297.833	15.954	879.061	656.397
298.847	15.993	878.692	656.214
299.862	15.967	878.092	655.605
300.876	16.093	877.188	655.364
301.891	16.043	876.854	654.861
302.906	16.147	876.113	654.655
303.920	16.152	875.324	654.028
304.935	16.114	874.666	653.328
305.949	16.133	874.607	653.302
306.964	16.161	874.013	652.908
307.979	16.185	873.038	652.214
308.993	16.345	872.581	652.432
310.008	16.237	872.002	651.525
311.022	16.351	871.473	651.513
312.037	16.311	870.630	650.671
313.052	16.143	870.267	649.694
314.066	16.179	869.613	649.289
315.081	16.148	869.323	648.894
316.095	16.357	868.465	648.999
317.110	16.147	868.137	647.890
318.125	16.187	867.577	647.568
319.139	16.307	866.995	647.536
320.154	16.219	866.505	646.777
321.168	16.339	865.668	646.556
322.183	16.222	865.538	645.950
323.197	16.347	864.876	645.880
324.212	16.394	864.239	645.526
325.227	16.323	863.836	644.895
326.241	16.405	862.729	644.325
327.256	16.375	862.291	643.827
328.270	16.387	861.899	643.521
329.285	16.368	861.395	643.018
330.300	16.372	860.762	642.504
331.314	16.507	860.030	642.413
332.329	16.465	859.441	641.756
333.343	16.489	859.209	641.618
334.358	16.629	858.625	641.657
335.373	16.594	858.268	641.201
336.387	16.532	858.081	640.767
337.402	16.487	858.002	640.482
338.416	16.689	857.245	640.624
339.431	16.595	857.306	640.257
340.446	16.574	856.749	639.705
341.460	16.570	856.465	639.423
342.475	16.642	856.022	639.308
343.489	16.640	855.592	638.923
344.504	16.727	854.719	638.542
345.519	16.815	854.284	638.490
346.533	16.792	853.625	637.854
347.548	16.821	853.208	637.595
348.562	16.691	852.423	636.466
349.577	16.730	851.658	635.983
350.592	16.724	851.202	635.566
351.606	16.836	850.280	635.241
352.621	16.728	850.172	634.697
353.635	16.746	849.561	634.255
354.650	16.853	848.543	633.836
355.665	16.925	848.035	633.670
356.679	16.939	847.409	633.199
357.694	16.912	846.703	632.515
358.708	16.875	846.370	632.071
359.723	16.845	845.935	631.579
360.738	17.009	844.604	631.142
361.752	17.059	844.308	631.051
362.767	16.995	843.840	630.405
363.781	17.005	843.464	630.105
364.796	17.111	842.877	630.007
365.810	17.061	842.681	629.616
366.825	17.228	841.867	629.571
367.840	17.098	841.518	628.773
368.854	17.121	840.954	628.383
369.869	17.169	840.557	628.207
370.883	17.076	840.472	627.746
371.898	17.289	839.515	627.760
372.913	17.233	839.527	627.509
373.927	17.235	839.069	627.116
374.942	17.335	838.502	627.006
375.956	17.293	838.274	626.627
376.971	17.349	837.407	626.127
377.986	17.258	837.377	625.717
379.000	17.360	836.622	625.471
380.015	17.405	836.144	625.225
381.029	17.327	835.905	624.703
382.044	17.407	834.873	624.171
383.059	17.452	834.315	623.861
384.073	17.525	833.804	623.692
385.088	17.399	833.241	622.757
386.102	17.430	832.714	622.419
387.117	17.468	831.832	621.844
388.132	17.523	831.375	621.649
389.146	17.493	830.940	621.158
390.161	17.432	830.318	620.415
391.175	17.528	829.986	620.463
392.190	17.527	829.446	620.001
393.205	17.431	829.223	619.431
394.219	17.486	828.803	619.263
395.234	17.565	828.260	619.088
396.248	17.514	827.823	618.521
397.263	17.253	827.930	617.599
398.278	17.443	827.450	617.874
399.292	17.501	827.002	617.696
400.307	17.414	826.473	616.931
401.321	17.615	825.403	616.807
402.336	17.527	825.152	616.247
403.350	17.584	824.679	616.044
404.365	17.678	824.501	616.197
405.380	17.649	823.631	615.388
406.394	17.702	822.923	614.993
407.409	17.752	822.688	614.946
408.423	17.836	822.236	614.857
409.438	17.853	821.917	614.625
410.453	17.924	821.539	614.541
411.467	17.766	821.155	613.632
412.482	17.874	820.917	613.789
413.496	17.929	820.525	613.637
414.511	17.830	820.173	612.965
415.526	17.796	819.717	612.448
416.540	18.025	819.044	612.713
417.555	17.843	818.621	611.691
418.569	17.837	818.226	611.319
419.584	17.944	817.526	611.125
420.599	18.036	817.107	611.085
421.613	115.556	1300.843	1491.719
422.628	100.175	1371.266	1491.775
