DTS Sentinel unit serial number:	SN413079Multiplexer serial number:	ORYXHardware model number:	OX4-SRSoftware version number:	ORYX F/W v4.00 Oryx Data Collector v3.7.2.0data status	okinstallation	princeton_trtdifferential loss correction	single-endedforward channel	channel 1reverse channel	N/Adate	2019/09/11time	14:48:11forward acquisition time	60.00reverse acquisition time	0.00gamma	496.2192k internal	0.2292k external	0.2292temperature offset calibration	0.9990default loss term (dB/km)	0.3790temperature slope calibration	1.0000multiplexer offset coefficient	1.0000multiplexer slope coefficient	1.0000fibre end	0.00T internal ref (°C)	42.50T ext. ref 1 (°C)	0.93T ext. ref 2 (°C)	38.44length (m)	temperature (°C)	Stokes	anti-Stokes-747.200	-4.458	-0.146	0.104
-746.185	-200.000	0.036	0.412
-745.171	-114.584	-0.269	-0.053
-744.156	48.878	0.232	0.223
-743.142	425.812	-0.052	0.114
-742.127	47.086	-0.155	0.148
-741.112	-31.183	0.116	0.067
-740.098	-60.726	0.270	-0.117
-739.083	800.000	0.066	-0.202
-738.069	-38.755	-0.312	0.169
-737.054	800.000	0.067	0.213
-736.039	0.423	-0.085	0.062
-735.025	-200.000	-0.082	0.386
-734.010	-96.765	-0.116	-0.031
-732.996	-50.066	-0.348	0.169
-731.981	17.122	0.275	0.223
-730.966	87.493	0.179	-0.202
-729.952	68.123	-0.170	-0.178
-728.937	63.591	-0.173	-0.178
-727.923	397.286	-0.105	-0.224
-726.908	-200.000	-0.006	-0.111
-725.894	-89.267	0.121	0.037
-724.879	8.219	-0.158	-0.121
-723.864	800.000	-0.057	-0.165
-722.850	800.000	0.078	-0.231
-721.835	-38.876	0.071	0.038
-720.821	800.000	-0.025	0.081
-719.806	-20.771	-0.233	-0.146
-718.791	163.216	0.051	-0.073
-717.777	-200.000	-0.008	0.201
-716.762	-122.419	0.487	-0.081
-715.748	-120.933	-0.185	-0.032
-714.733	-68.860	0.177	0.070
-713.718	213.579	-0.138	-0.223
-712.704	-13.504	-0.090	-0.060
-711.689	-42.363	0.202	0.106
-710.675	-200.000	0.010	-0.167
-709.660	-89.608	0.179	0.054
-708.645	-200.000	0.008	0.211
-707.631	-150.671	-0.229	-0.018
-706.616	-59.462	-0.167	-0.073
-705.602	260.378	0.029	0.051
-704.587	69.988	0.175	-0.185
-703.572	87.652	-0.102	0.116
-702.558	455.350	-0.039	0.088
-701.543	84.120	-0.109	-0.121
-700.529	283.034	0.082	-0.151
-699.514	49.571	0.104	0.100
-698.499	-200.000	0.004	-0.068
-697.485	357.541	-0.172	-0.350
-696.470	-200.000	-0.019	-0.247
-695.456	78.975	0.143	-0.157
-694.441	-169.354	-0.219	-0.008
-693.426	800.000	0.052	-0.164
-692.412	-138.197	-0.223	0.025
-691.397	-86.365	-0.331	-0.104
-690.383	800.000	-0.068	0.276
-689.368	-200.000	0.061	-0.390
-688.354	800.000	-0.032	0.095
-687.339	-77.100	0.132	-0.047
-686.324	-21.156	-0.135	-0.084
-685.310	-200.000	0.010	0.092
-684.295	-200.000	0.004	0.048
-683.281	49.026	0.190	0.183
-682.266	30.248	-0.217	0.189
-681.251	-182.849	0.074	-0.001
-680.237	800.000	0.077	0.308
-679.222	613.758	0.061	-0.156
-678.208	-200.000	-0.040	0.199
-677.193	-59.846	0.148	-0.065
-676.178	398.410	-0.133	-0.284
-675.164	-27.557	0.178	-0.106
-674.149	97.881	-0.079	0.093
-673.135	-125.765	0.182	0.028
-672.120	-200.000	-0.005	-0.036
-671.105	800.000	0.043	-0.175
-670.091	229.934	-0.052	0.087
-669.076	-5.156	-0.278	-0.195
-668.062	-130.138	-0.109	0.015
-667.047	800.000	0.088	0.364
-666.032	85.842	0.063	0.071
-665.018	519.328	-0.232	0.555
-664.003	-14.885	0.168	0.110
-662.989	-63.900	-0.374	-0.156
-661.974	-58.766	-0.246	0.109
-660.959	-5.850	-0.106	-0.074
-659.945	631.029	0.043	-0.111
-658.930	148.071	0.089	-0.122
-657.916	38.140	-0.221	-0.201
-656.901	-200.000	-0.001	-0.240
-655.886	-200.000	0.049	-0.256
-654.872	-67.109	0.099	-0.040
-653.857	-97.505	-0.097	-0.026
-652.843	273.354	-0.144	-0.259
-651.828	471.324	0.011	0.026
-650.814	-110.782	0.173	-0.036
-649.799	246.665	-0.086	-0.148
-648.784	225.897	-0.093	0.153
-647.770	139.417	-0.181	-0.243
-646.755	-200.000	0.046	-0.225
-645.741	-139.093	0.346	0.038
-644.726	800.000	0.064	-0.190
-643.711	353.026	0.146	0.295
-642.697	208.060	0.146	-0.233
-641.682	-105.967	-0.280	-0.064
-640.668	-200.000	0.045	0.314
-639.653	-168.928	-0.250	-0.010
-638.638	391.289	-0.129	-0.273
-637.624	-98.988	0.152	-0.039
-636.609	-200.000	-0.022	-0.200
-635.595	-153.815	-0.235	-0.016
-634.580	-30.701	0.178	0.103
-633.565	14.744	0.059	-0.047
-632.551	-62.629	-0.221	0.094
-631.536	-157.299	0.114	0.007
-630.522	64.405	-0.040	0.041
-629.507	-123.718	-0.151	-0.024
-628.492	-16.781	-0.130	-0.084
-627.478	291.815	0.055	0.102
-626.463	388.207	0.021	-0.045
-625.449	230.322	-0.044	-0.074
-624.434	-34.058	0.151	-0.085
-623.419	-200.000	-0.020	-0.195
-622.405	-64.141	0.348	0.144
-621.390	-78.476	0.042	0.015
-620.376	-182.873	0.601	-0.011
-619.361	583.299	-0.016	-0.040
-618.346	800.000	-0.042	0.138
-617.332	102.331	0.124	0.148
-616.317	-9.957	-0.176	0.119
-615.303	155.229	0.269	-0.377
-614.288	800.000	0.041	-0.121
-613.273	-200.000	-0.047	0.320
-612.259	800.000	0.069	0.231
-611.244	557.737	-0.087	0.215
-610.230	526.613	0.122	-0.294
-609.215	310.279	-0.190	0.363
-608.201	21.370	0.164	0.136
-607.186	301.185	0.126	-0.237
-606.171	472.268	-0.107	0.244
-605.157	800.000	0.054	-0.190
-604.142	35.750	-0.017	0.015
-603.128	344.083	0.025	0.049
-602.113	116.475	0.252	-0.315
-601.098	-30.785	-0.129	0.074
-600.084	800.000	0.047	0.134
-599.069	-61.585	0.082	0.035
-598.055	-109.396	0.094	0.020
-597.040	173.895	0.008	0.011
-596.025	-200.000	-0.005	-0.336
-595.011	-200.000	0.011	0.191
-593.996	-156.345	-0.046	0.003
-592.982	70.735	-0.040	-0.043
-591.967	378.958	-0.078	-0.162
-590.952	800.000	-0.026	-0.092
-589.938	-52.210	0.231	0.109
-588.923	-200.000	0.001	0.044
-587.909	-20.150	0.118	-0.074
-586.894	-200.000	0.002	-0.107
-585.879	-15.604	0.037	-0.024
-584.865	-8.255	-0.075	0.051
-583.850	-25.642	0.210	0.126
-582.836	373.825	-0.050	0.103
-581.821	-131.281	0.027	0.004
-580.806	-17.884	0.182	0.116
-579.792	35.160	-0.095	0.085
-578.777	-14.770	0.099	-0.065
-577.763	-27.211	0.122	0.072
-576.748	-159.970	-0.420	0.023
-575.733	-54.293	0.319	-0.147
-574.719	16.531	0.161	0.130
-573.704	-154.349	0.310	-0.021
-572.690	134.962	0.239	-0.316
-571.675	342.881	0.057	-0.113
-570.661	-200.000	-0.004	0.283
-569.646	-20.149	-0.072	-0.045
-568.631	-111.700	-0.243	-0.050
-567.617	103.865	-0.153	0.182
-566.602	800.000	0.091	-0.359
-565.588	261.858	0.061	-0.107
-564.573	-200.000	-0.012	-0.129
-563.558	372.871	0.104	0.214
-562.544	703.364	-0.044	0.118
-561.529	117.324	-0.257	-0.322
-560.515	781.946	0.026	-0.073
-559.500	-200.000	0.014	0.303
-558.485	-28.037	-0.105	-0.062
-557.471	800.000	0.024	-0.101
-556.456	436.965	-0.009	0.021
-555.442	-116.678	-0.030	0.006
-554.427	-140.237	0.237	0.025
-553.412	-5.364	0.041	-0.028
-552.398	-28.243	-0.236	0.139
-551.383	-93.191	0.096	0.027
-550.369	83.861	0.239	0.265
-549.354	83.776	0.074	-0.082
-548.339	800.000	0.069	-0.289
-547.325	73.100	0.186	0.197
-546.310	-200.000	0.002	0.050
-545.296	-200.000	-0.006	0.183
-544.281	-127.897	-0.136	0.020
-543.266	-78.310	-0.086	-0.030
-542.252	522.107	0.077	0.182
-541.237	-120.978	0.116	0.020
-540.223	-153.952	-0.164	0.011
-539.208	296.546	-0.020	-0.037
-538.193	37.434	-0.157	0.142
-537.179	-76.516	-0.340	0.121
-536.164	-30.639	-0.115	0.066
-535.150	-200.000	0.015	-0.197
-534.135	800.000	-0.083	-0.294
-533.121	-102.409	-0.183	0.044
-532.106	-101.558	-0.158	-0.039
-531.091	-5.694	0.117	-0.081
-530.077	-71.674	0.135	0.051
-529.062	-108.969	-0.102	-0.022
-528.048	-83.306	-0.307	0.100
-527.033	297.487	0.204	0.380
-526.018	15.528	-0.083	0.066
-525.004	800.000	0.016	0.050
-523.989	-134.708	0.147	0.018
-522.975	-71.726	-0.201	0.076
-521.960	-61.220	-0.249	0.107
-520.945	-61.843	-0.308	0.131
-519.931	-163.218	0.294	-0.014
-518.916	-166.836	0.362	0.015
-517.902	41.032	0.203	-0.186
-516.887	-70.723	-0.415	-0.159
-515.872	349.700	0.085	0.171
-514.858	-11.405	-0.294	0.196
-513.843	62.859	-0.250	-0.254
-512.829	561.343	0.047	-0.116
-511.814	23.423	-0.216	0.180
-510.799	-33.122	-0.474	0.267
-509.785	90.239	-0.042	0.048
-508.770	-200.000	0.010	0.146
-507.756	167.573	-0.067	-0.097
-506.741	224.413	0.014	0.023
-505.726	183.634	0.028	0.042
-504.712	182.363	0.113	-0.170
-503.697	-176.285	-0.048	-0.001
-502.683	-200.000	-0.012	-0.208
-501.668	52.531	-0.175	0.170
-500.653	223.419	-0.158	-0.259
-499.639	169.636	0.007	-0.010
-498.624	66.919	0.117	-0.121
-497.610	68.884	0.340	-0.354
-496.595	-200.000	-0.024	-0.112
-495.581	-19.125	-0.029	-0.018
-494.566	-118.188	0.236	-0.043
-493.551	-200.000	0.049	0.321
-492.537	70.537	0.119	-0.125
-491.522	800.000	0.038	0.150
-490.508	128.790	0.169	-0.219
-489.493	-200.000	-0.001	0.124
-488.478	-103.807	-0.245	0.058
-487.464	800.000	0.039	0.138
-486.449	373.921	-0.009	-0.018
-485.435	57.902	0.245	-0.243
-484.420	53.578	-0.078	-0.076
-483.405	-62.694	0.314	0.132
-482.391	327.658	0.095	0.184
-481.376	-200.000	-0.001	-0.063
-480.362	267.761	-0.165	-0.294
-479.347	-200.000	-0.033	-0.528
-478.332	-27.874	-0.084	0.050
-477.318	-200.000	0.048	0.279
-476.303	699.211	-0.099	0.263
-475.289	725.055	-0.122	0.330
-474.274	370.490	0.143	0.294
-473.259	-110.249	0.007	-0.002
-472.245	-16.118	0.225	0.145
-471.230	-56.630	-0.048	0.021
-470.216	-29.202	0.169	-0.098
-469.201	219.638	0.057	-0.092
-468.186	98.277	0.095	-0.111
-467.172	800.000	-0.088	0.282
-466.157	-27.991	-0.042	-0.024
-465.143	234.386	0.075	-0.125
-464.128	-96.487	-0.093	0.025
-463.113	57.758	0.145	-0.144
-462.099	124.454	0.071	-0.090
-461.084	-200.000	0.017	-0.221
-460.070	194.576	-0.184	-0.283
-459.055	368.811	-0.110	-0.226
-458.040	-200.000	0.016	-0.174
-457.026	8.146	-0.110	0.084
-456.011	-18.265	-0.172	0.109
-454.997	-74.252	0.351	-0.129
-453.982	-106.514	-0.453	-0.102
-452.968	104.403	0.261	-0.312
-451.953	-200.000	0.101	0.541
-450.938	4.678	-0.231	-0.172
-449.924	-69.114	0.122	-0.048
-448.909	-200.000	-0.016	-0.075
-447.895	800.000	-0.045	0.184
-446.880	12.644	0.133	0.104
-445.865	-37.485	0.126	-0.068
-444.851	-39.863	-0.243	0.128
-443.836	-67.136	0.280	0.112
-442.822	-61.136	-0.082	0.035
-441.807	73.546	0.204	-0.216
-440.792	15.633	0.234	0.186
-439.778	800.000	0.083	0.274
-438.763	800.000	-0.043	0.168
-437.749	182.463	-0.164	-0.244
-436.734	-192.405	0.274	-0.003
-435.719	43.259	-0.314	-0.290
-434.705	656.991	-0.078	0.204
-433.690	-9.052	-0.097	0.066
-432.676	291.756	-0.141	-0.260
-431.661	12.232	0.139	0.108
-430.646	24.655	0.238	0.200
-429.632	84.734	0.128	-0.142
-428.617	-200.000	-0.006	-0.086
-427.603	-102.589	0.427	0.103
-426.588	-200.000	0.021	0.093
-425.573	-100.617	-0.124	-0.031
-424.559	194.977	-0.162	0.249
-423.544	308.077	-0.141	-0.266
-422.530	202.826	-0.313	-0.488
-421.515	-82.514	0.220	0.072
-420.500	-42.646	0.219	0.113
-419.486	215.219	-0.063	-0.100
-418.471	-1.086	-0.040	-0.028
-417.457	22.878	-0.098	0.082
-416.442	800.000	-0.099	-0.312
-415.428	-200.000	0.064	-0.330
-414.413	201.064	-0.114	-0.178
-413.398	548.953	0.018	0.043
-412.384	171.625	0.128	-0.186
-411.369	26.428	0.131	-0.111
-410.355	37.562	0.272	-0.243
-409.340	199.197	-0.148	0.229
-408.325	-200.000	-0.008	0.048
-407.311	-200.000	0.019	-0.161
-406.296	431.362	-0.195	-0.426
-405.282	218.886	-0.101	0.163
-404.267	-86.176	0.275	0.086
-403.252	214.162	-0.122	-0.196
-402.238	-79.715	0.080	0.027
-401.223	800.000	-0.005	-0.020
-400.209	33.493	-0.113	-0.099
-399.194	146.440	0.205	-0.278
-398.179	800.000	0.065	-0.232
-397.165	327.830	0.023	-0.044
-396.150	-169.221	0.086	-0.003
-395.136	-200.000	-0.058	-0.300
-394.121	800.000	0.039	-0.157
-393.106	-200.000	0.042	-0.377
-392.092	800.000	0.056	0.219
-391.077	-81.394	0.263	0.088
-390.063	225.998	0.037	-0.061
-389.048	-124.081	-0.191	-0.030
-388.033	-122.769	-0.332	-0.054
-387.019	-175.346	-0.219	0.006
-386.004	-200.000	-0.034	-0.208
-384.990	-31.389	0.160	-0.091
-383.975	1.026	0.052	-0.038
-382.960	-58.664	-0.136	-0.059
-381.946	-6.949	0.191	0.131
-380.931	-85.669	0.188	0.059
-379.917	-200.000	-0.030	-0.210
-378.902	-130.519	-0.133	-0.018
-377.888	800.000	0.007	0.026
-376.873	-86.470	0.145	-0.045
-375.858	-200.000	0.011	-0.166
-374.844	-152.112	-0.075	-0.006
-373.829	40.041	0.220	-0.199
-372.815	-160.945	-0.153	0.008
-371.800	-134.097	0.128	0.016
-370.785	-16.508	-0.114	0.073
-369.771	-0.059	-0.089	-0.064
-368.756	409.720	0.107	0.229
-367.742	-69.971	-0.389	0.149
-366.727	-105.603	0.208	0.048
-365.712	800.000	-0.062	0.173
-364.698	41.036	0.087	0.079
-363.683	800.000	0.077	0.279
-362.669	-55.217	-0.317	-0.144
-361.654	-200.000	0.023	-0.173
-360.639	-83.742	0.461	-0.148
-359.625	-103.465	0.125	-0.030
-358.610	-200.000	-0.028	0.269
-357.596	47.904	0.124	0.117
-356.581	97.204	-0.044	-0.051
-355.566	-200.000	-0.004	0.084
-354.552	800.000	-0.086	0.341
-353.537	94.441	-0.045	0.052
-352.523	184.855	0.142	-0.212
-351.508	-10.045	0.144	-0.096
-350.493	-123.218	0.216	-0.035
-349.479	-200.000	-0.024	0.267
-348.464	-200.000	-0.035	0.178
-347.450	-47.948	0.343	-0.167
-346.435	127.337	-0.047	0.060
-345.420	-200.000	0.025	0.416
-344.406	92.094	-0.255	-0.290
-343.391	-108.472	0.225	-0.049
-342.377	191.943	-0.187	0.284
-341.362	-139.372	0.039	0.004
-340.348	-4.035	0.143	0.100
-339.333	-200.000	0.017	0.089
-338.318	160.221	0.227	-0.319
-337.304	-25.657	-0.098	-0.058
-336.289	-118.976	-0.343	0.061
-335.275	-132.772	-0.291	0.037
-334.260	87.499	-0.258	-0.288
-333.245	-84.426	-0.117	-0.037
-332.231	305.076	-0.134	-0.250
-331.216	-200.000	0.013	-0.157
-330.202	-200.000	-0.009	0.180
-329.187	-145.228	0.297	0.027
-328.172	9.790	-0.131	-0.100
-327.158	-6.116	-0.041	-0.028
-326.143	-89.357	-0.495	0.147
-325.129	-38.723	0.279	-0.148
-324.114	-200.000	-0.019	0.351
-323.099	131.255	-0.062	-0.081
-322.085	36.816	0.263	-0.234
-321.070	-105.703	-0.217	-0.049
-320.056	255.445	-0.129	-0.223
-319.041	-109.424	0.071	0.015
-318.026	-200.000	-0.023	0.132
-317.012	-27.999	0.074	-0.043
-315.997	88.410	-0.120	-0.134
-314.983	697.355	-0.147	0.389
-313.968	169.317	0.196	-0.282
-312.953	-113.709	0.297	-0.058
-311.939	2.564	-0.390	-0.284
-310.924	388.752	0.119	-0.249
-309.910	-115.387	-0.102	-0.019
-308.895	-53.906	-0.267	-0.122
-307.880	-153.582	0.145	0.010
-306.866	120.435	-0.227	0.284
-305.851	-48.651	-0.243	0.118
-304.837	-28.350	-0.066	0.038
-303.822	59.320	-0.098	0.097
-302.807	800.000	0.087	-0.296
-301.793	-67.916	-0.303	-0.119
-300.778	17.442	-0.164	-0.131
-299.764	-200.000	-0.018	-0.314
-298.749	440.731	-0.193	0.424
-297.735	-200.000	-0.009	0.064
-296.720	619.620	-0.024	-0.061
-295.705	800.000	0.052	-0.145
-294.691	54.842	0.140	-0.135
-293.676	800.000	0.042	-0.167
-292.662	40.208	-0.130	0.117
-291.647	-97.337	-0.160	-0.042
-290.632	275.441	-0.135	-0.241
-289.618	-200.000	-0.016	-0.195
-288.603	800.000	0.102	0.312
-287.589	-143.706	0.349	-0.033
-286.574	27.503	-0.289	-0.244
-285.559	21.205	0.107	0.087
-284.545	-126.815	0.204	0.030
-283.530	800.000	-0.015	0.062
-282.516	-26.706	0.320	-0.188
-281.501	-104.544	-0.063	-0.015
-280.486	52.551	-0.105	-0.101
-279.472	-103.758	-0.107	-0.025
-278.457	-200.000	-0.035	-0.263
-277.443	800.000	0.104	-0.454
-276.428	-200.000	-0.027	-0.166
-275.413	32.681	0.056	-0.049
-274.399	-200.000	-0.007	-0.071
-273.384	459.613	0.120	0.269
-272.370	800.000	-0.144	0.403
-271.355	-200.000	-0.033	0.426
-270.340	75.014	-0.160	-0.170
-269.326	-53.167	-0.415	0.192
-268.311	-200.000	0.009	0.179
-267.297	-200.000	0.047	0.318
-266.282	800.000	-0.027	-0.109
-265.267	264.560	0.108	0.188
-264.253	1.548	0.206	0.149
-263.238	-41.749	-0.304	0.157
-262.224	-26.553	-0.139	-0.082
-261.209	58.356	-0.169	0.167
-260.195	-179.454	-0.117	0.003
-259.180	-51.778	0.264	0.124
-258.165	-125.625	0.186	-0.028
-257.151	347.524	-0.078	-0.154
-256.136	-5.881	-0.259	-0.178
-255.122	-200.000	0.006	0.140
-254.107	-200.000	-0.019	0.087
-253.092	-9.079	0.247	-0.166
-252.078	-200.000	-0.015	0.287
-251.063	-53.687	0.168	0.077
-250.049	484.860	0.039	0.088
-249.034	112.579	-0.165	-0.200
-248.019	-146.016	-0.233	-0.021
-247.005	-166.824	-0.187	-0.008
-245.990	-43.905	-0.076	-0.038
-244.976	537.354	-0.102	0.242
-243.961	147.533	-0.061	0.083
-242.946	-53.432	0.199	-0.091
-241.932	-108.688	-0.259	0.056
-240.917	-67.674	-0.268	-0.105
-239.903	137.224	-0.039	-0.051
-238.888	800.000	0.064	0.236
-237.873	-36.385	0.147	0.080
-236.859	238.992	0.025	0.042
-235.844	-96.684	0.070	0.018
-234.830	-200.000	0.015	0.129
-233.815	-200.000	0.005	-0.051
-232.800	32.105	0.035	0.030
-231.786	-200.000	-0.028	-0.208
-230.771	-84.147	0.315	0.100
-229.757	242.025	0.086	-0.145
-228.742	-90.780	0.085	0.025
-227.727	800.000	-0.030	-0.109
-226.713	800.000	-0.105	0.336
-225.698	-33.225	-0.221	0.123
-224.684	800.000	-0.145	0.458
-223.669	6.038	0.205	-0.152
-222.655	-200.000	0.043	0.384
-221.640	64.790	-0.250	0.253
-220.625	-200.000	-0.001	0.300
-219.611	129.122	-0.066	-0.084
-218.596	193.806	0.221	0.336
-217.582	662.484	0.098	0.253
-216.567	145.556	-0.054	0.072
-215.552	-134.199	-0.240	-0.030
-214.538	800.000	-0.141	-0.440
-213.523	-58.440	0.250	0.109
-212.509	-200.000	0.017	-0.173
-211.494	89.688	0.079	-0.089
-210.479	800.000	-0.052	0.220
-209.465	503.104	-0.160	0.370
-208.450	261.104	0.126	-0.219
-207.436	-137.815	0.183	0.021
-206.421	151.901	-0.057	-0.078
-205.406	-186.653	0.372	-0.005
-204.392	-123.356	0.070	0.011
-203.377	-22.539	-0.264	0.160
-202.363	34.599	-0.107	0.094
-201.348	-51.005	0.087	-0.041
-200.333	-200.000	-0.047	-0.260
-199.319	10.933	-0.167	0.128
-198.304	-200.000	0.034	-0.296
-197.290	91.038	-0.162	0.182
-196.275	-50.056	-0.078	-0.037
-195.260	-81.241	0.264	0.087
-194.246	800.000	0.074	0.279
-193.231	73.258	-0.097	0.102
-192.217	800.000	0.059	0.213
-191.202	-153.413	-0.178	0.012
-190.187	-200.000	0.011	0.063
-189.173	-40.739	0.110	-0.057
-188.158	800.000	0.134	-0.429
-187.144	9.100	0.050	0.038
-186.129	321.703	0.106	-0.202
-185.114	38.105	-0.133	0.118
-184.100	107.300	0.206	0.245
-183.085	800.000	-0.079	0.227
-182.071	-68.918	-0.310	-0.120
-181.056	-193.558	0.130	-0.001
-180.042	474.425	0.172	0.388
-179.027	-200.000	0.013	0.071
-178.012	-109.006	-0.127	0.027
-176.998	-56.018	0.311	0.139
-175.983	-62.546	0.146	0.061
-174.969	-200.000	-0.007	0.140
-173.954	800.000	0.068	0.255
-172.939	73.133	0.176	0.185
-171.925	502.854	-0.099	-0.229
-170.910	252.913	0.127	-0.217
-169.896	-200.000	0.020	-0.139
-168.881	621.981	0.046	-0.116
-167.866	-200.000	0.003	-0.065
-166.852	-162.787	0.290	-0.014
-165.837	273.653	-0.083	-0.146
-164.823	332.203	-0.029	-0.056
-163.808	-107.555	-0.279	0.061
-162.793	149.845	0.211	0.286
-161.779	-200.000	0.031	0.280
-160.764	124.763	0.211	-0.266
-159.750	-200.000	0.037	0.169
-158.735	-200.000	0.014	0.112
-157.720	-76.316	-0.176	0.062
-156.706	63.801	-0.272	-0.273
-155.691	-28.540	0.179	0.103
-154.677	-160.824	-0.405	0.021
-153.662	-32.451	-0.102	-0.057
-152.647	211.612	-0.162	0.255
-151.633	-200.000	-0.015	0.084
-150.618	45.822	-0.076	-0.070
-149.604	156.389	-0.259	-0.358
-148.589	663.456	0.087	0.225
-147.574	92.390	0.054	-0.061
-146.560	32.296	0.114	-0.099
-145.545	-1.835	-0.381	-0.268
-144.531	4.688	0.286	-0.210
-143.516	116.172	0.105	0.128
-142.502	800.000	0.067	0.225
-141.487	800.000	0.106	0.374
-140.472	71.118	-0.156	0.162
-139.458	174.421	0.193	-0.279
-138.443	154.941	-0.045	-0.062
-137.429	96.878	0.055	-0.063
-136.414	-58.108	-0.274	0.119
-135.399	-26.252	-0.218	0.128
-134.385	-163.841	0.138	0.006
-133.370	-35.197	-0.195	0.106
-132.356	-162.274	0.165	0.008
-131.341	165.070	0.077	-0.109
-130.326	-82.110	-0.227	-0.074
-129.312	-96.862	-0.275	-0.072
-128.297	343.900	-0.031	-0.060
-127.283	192.673	0.015	0.023
-126.268	12.820	-0.259	-0.200
-125.253	261.385	0.152	-0.263
-124.239	-46.248	0.193	0.095
-123.224	-2.735	0.080	-0.056
-122.210	-74.942	0.059	0.021
-121.195	376.061	0.020	0.042
-120.180	800.000	-0.026	-0.102
-119.166	-200.000	0.002	0.091
-118.151	-200.000	-0.030	0.446
-117.137	547.335	0.032	0.077
-116.122	800.000	0.076	-0.316
-115.107	800.000	0.024	0.091
-114.093	-200.000	-0.024	0.259
-113.078	800.000	0.065	0.236
-112.064	-141.822	-0.276	0.028
-111.049	169.799	0.017	0.024
-110.034	22.811	0.150	0.123
-109.020	800.000	0.166	-0.545
-108.005	-136.092	-0.389	0.046
-106.991	800.000	-0.107	-0.414
-105.976	800.000	-0.036	-0.115
-104.962	250.098	-0.094	0.159
-103.947	-200.000	-0.044	-0.211
-102.932	63.427	0.186	-0.186
-101.918	-200.000	-0.009	-0.179
-100.903	611.170	0.082	0.205
-99.889	-200.000	0.034	0.188
-98.874	301.938	0.071	0.131
-97.859	-200.000	-0.017	0.178
-96.845	-131.754	-0.199	-0.026
-95.830	26.999	-0.054	-0.045
-94.816	-176.930	-0.282	0.007
-93.801	171.125	-0.067	0.096
-92.786	9.001	0.324	-0.244
-91.772	-116.768	0.349	0.064
-90.757	-121.909	0.445	-0.073
-89.743	-74.078	0.078	0.028
-88.728	-200.000	0.038	0.366
-87.713	534.808	-0.120	0.285
-86.699	800.000	0.069	-0.275
-85.684	-49.934	-0.189	0.090
-84.670	-200.000	-0.035	0.172
-83.655	-92.292	0.192	0.054
-82.640	-200.000	-0.040	0.192
-81.626	800.000	-0.044	-0.140
-80.611	-51.896	-0.506	-0.235
-79.597	-24.251	-0.148	0.088
-78.582	-200.000	0.021	0.352
-77.567	331.852	-0.138	-0.266
-76.553	-200.000	-0.046	-0.389
-75.538	194.857	-0.241	0.365
-74.524	-32.571	0.238	-0.132
-73.509	800.000	0.054	0.186
-72.494	-143.945	-0.228	-0.021
-71.480	-200.000	0.001	0.128
-70.465	31.270	0.280	0.240
-69.451	-58.865	0.258	-0.111
-68.436	27.794	0.205	0.172
-67.422	4.247	-0.033	-0.024
-66.407	-76.334	-0.200	-0.070
-65.392	-167.708	0.265	0.010
-64.378	564.187	0.146	-0.352
-63.363	54.094	0.149	-0.143
-62.349	-128.164	0.325	-0.046
-61.334	-25.034	-0.816	-0.482
-60.319	67.341	0.277	0.282
-59.305	309.772	-0.254	-0.473
-58.290	84.578	0.313	0.341
-57.276	294.396	0.752	1.369
-56.261	-200.000	75.060	526.323
-55.246	561.320	1299.644	3130.994
-54.232	147.115	2527.147	3387.984
-53.217	121.133	2226.535	2761.414
-52.203	55.321	1665.662	1605.317
-51.188	46.687	1383.788	1280.309
-50.173	42.785	1335.926	1212.519
-49.159	60.533	1369.971	1351.705
-48.144	68.479	1388.512	1418.160
-47.130	46.786	1351.158	1250.519
-46.115	42.460	1335.259	1209.765
-45.100	42.428	1329.886	1204.654
-44.086	42.322	1327.915	1202.190
-43.071	42.311	1324.945	1199.388
-42.057	42.254	1323.184	1197.404
-41.042	42.261	1321.154	1195.560
-40.027	42.428	1319.558	1195.062
-39.013	42.401	1317.678	1193.153
-37.998	42.423	1315.714	1191.457
-36.984	42.460	1314.098	1190.167
-35.969	42.419	1312.809	1188.709
-34.954	42.586	1310.692	1187.734
-33.940	42.546	1309.595	1186.453
-32.925	42.653	1307.859	1185.464
-31.911	42.561	1306.665	1183.793
-30.896	42.504	1305.503	1182.362
-29.881	42.549	1304.107	1181.311
-28.867	42.723	1301.759	1180.158
-27.852	42.707	1300.361	1178.751
-26.838	42.544	1299.474	1176.947
-25.823	42.667	1297.660	1175.979
-24.809	42.557	1296.786	1174.494
-23.794	42.529	1294.927	1172.604
-22.779	42.672	1293.291	1171.905
-21.765	42.630	1291.913	1170.369
-20.750	42.615	1290.615	1169.061
-19.736	42.610	1289.242	1167.737
-18.721	42.426	1287.969	1165.473
-17.706	42.396	1286.982	1164.357
-16.692	42.391	1285.645	1163.071
-15.677	42.430	1284.912	1162.589
-14.663	42.462	1283.783	1161.709
-13.648	42.450	1282.234	1160.187
-12.633	42.453	1281.340	1159.355
-11.619	42.454	1280.466	1158.521
-10.604	42.372	1279.865	1157.457
-9.590	42.517	1278.726	1157.216
-8.575	42.379	1277.637	1155.391
-7.560	42.408	1276.863	1154.813
-6.546	42.391	1275.766	1153.677
-5.531	42.372	1274.947	1152.783
-4.517	42.377	1273.864	1151.786
-3.502	42.452	1273.114	1151.490
-2.487	42.392	1272.275	1150.340
-1.473	42.554	1267.957	1147.321
-0.458	41.723	1254.396	1130.308
0.556	37.320	1234.508	1090.565
1.571	33.516	1237.074	1071.288
2.586	32.267	1251.949	1076.923
3.600	30.673	1240.654	1058.053
4.615	21.618	1161.880	942.305
5.629	7.827	1076.319	803.612
6.644	1.412	1051.661	753.398
7.659	0.874	1048.644	748.508
8.673	0.751	1047.193	746.799
9.688	0.665	1045.585	745.162
10.702	1.195	1044.822	747.163
11.717	9.237	1056.902	795.683
12.731	20.361	1072.672	863.095
13.746	23.764	1076.090	882.704
14.761	23.342	1075.225	879.824
15.775	23.180	1074.492	878.341
16.790	22.930	1073.852	876.498
17.804	22.853	1073.319	875.605
18.819	23.046	1072.412	875.746
19.834	23.147	1072.016	875.842
20.848	23.129	1071.429	875.197
21.863	23.086	1070.938	874.503
22.877	23.036	1070.421	873.759
23.892	22.956	1069.788	872.769
24.907	22.950	1069.249	872.222
25.921	23.007	1068.079	871.473
26.936	23.002	1066.692	870.242
27.950	22.909	1065.131	868.431
28.965	22.792	1062.816	865.896
29.980	22.956	1061.223	865.322
30.994	23.123	1060.332	865.337
32.009	23.182	1059.117	864.557
33.023	22.811	1058.134	861.865
34.038	22.914	1057.268	861.589
35.053	23.118	1057.171	862.425
36.067	23.080	1056.156	861.335
37.082	23.190	1054.839	860.724
38.096	23.303	1054.536	860.950
39.111	23.417	1054.009	860.995
40.126	23.253	1052.151	858.605
41.140	23.088	1050.317	856.234
42.155	22.738	1049.423	853.738
43.169	22.623	1048.761	852.566
44.184	22.814	1047.340	852.261
45.199	22.701	1046.254	850.755
46.213	22.719	1045.759	850.363
47.228	22.819	1045.065	850.205
48.242	23.067	1043.447	850.007
49.257	23.130	1043.032	849.894
50.271	22.980	1043.182	849.225
51.286	23.104	1041.719	848.550
52.301	23.052	1040.957	847.607
53.315	23.188	1039.481	846.983
54.330	23.041	1039.023	845.827
55.344	23.175	1038.062	845.614
56.359	23.051	1037.389	844.398
57.374	22.825	1036.659	842.652
58.388	22.942	1035.509	842.197
59.403	22.874	1034.656	841.108
60.417	22.722	1033.660	839.499
61.432	22.713	1033.204	839.012
62.447	22.819	1032.975	839.257
63.461	23.063	1031.666	839.277
64.476	22.819	1031.034	837.532
65.490	22.723	1030.141	836.277
66.505	22.913	1028.754	835.973
67.520	22.801	1028.935	835.519
68.534	22.740	1027.405	833.914
69.549	22.456	1026.349	831.641
70.563	22.458	1025.441	830.842
71.578	22.485	1024.269	829.945
72.593	22.325	1023.513	828.503
73.607	22.350	1023.453	828.504
74.622	22.627	1022.932	829.308
75.636	22.606	1022.302	828.626
76.651	22.591	1021.064	827.481
77.666	22.477	1020.448	826.372
78.680	22.570	1019.994	826.367
79.695	22.571	1019.409	825.824
80.709	22.759	1018.710	826.066
81.724	22.573	1018.266	824.765
82.739	22.715	1017.006	824.334
83.753	23.177	1016.505	826.010
84.768	23.422	1015.662	826.393
85.782	23.450	1014.732	825.695
86.797	23.396	1013.502	824.369
87.812	23.117	1013.191	822.747
88.826	23.152	1012.426	822.218
89.841	23.248	1011.373	821.734
90.855	23.453	1010.130	821.602
91.870	23.316	1009.423	820.321
92.884	23.171	1008.211	818.592
93.899	23.105	1007.017	817.245
94.914	23.314	1006.684	817.867
95.928	23.202	1004.967	815.882
96.943	23.022	1003.404	813.714
97.957	22.784	1002.497	811.812
98.972	22.648	1001.628	810.410
99.987	22.818	1001.056	810.659
101.001	23.142	1000.369	811.514
102.016	23.139	999.441	810.677
103.030	23.180	998.163	809.757
104.045	22.792	997.691	807.528
105.060	22.687	996.569	806.066
106.074	22.821	996.022	806.165
107.089	23.145	995.603	807.235
108.103	23.179	994.197	806.176
109.118	22.843	993.088	803.677
110.133	22.897	991.749	802.767
111.147	22.731	990.541	800.965
112.162	22.539	989.360	799.071
113.176	22.732	989.137	799.694
114.191	22.683	988.567	798.942
115.206	22.478	986.789	796.507
116.220	22.298	986.220	795.165
117.235	22.718	985.131	796.112
118.249	22.603	984.785	795.239
119.264	22.523	983.255	793.577
120.279	22.554	982.877	793.338
121.293	22.545	982.470	792.901
122.308	22.621	981.572	792.447
123.322	22.547	980.218	790.951
124.337	22.467	978.901	789.461
125.352	22.008	977.463	786.175
126.366	21.865	976.614	784.785
127.381	22.546	976.781	787.897
128.395	23.108	975.870	789.600
129.410	23.245	975.278	789.662
130.424	23.170	973.952	788.183
131.439	23.157	973.314	787.542
132.454	23.219	972.374	786.986
133.468	22.974	971.653	785.244
134.483	23.227	970.831	785.634
135.497	23.296	970.521	785.619
136.512	23.453	969.271	785.232
137.527	23.413	968.252	784.162
138.541	23.386	967.790	783.600
139.556	23.309	967.494	782.949
140.570	23.490	966.501	782.875
141.585	23.475	965.314	781.776
142.600	23.386	964.292	780.490
143.614	23.624	963.753	781.031
144.629	23.733	962.925	780.773
145.643	23.739	961.291	779.402
146.658	23.382	960.277	776.949
147.673	23.338	958.603	775.332
148.687	23.230	957.909	774.227
149.702	23.109	957.270	773.115
150.716	23.173	956.109	772.388
151.731	23.250	955.337	772.031
152.746	23.350	955.511	772.539
153.760	23.450	954.271	771.907
154.775	23.564	953.388	771.618
155.789	23.560	952.663	770.947
156.804	23.427	952.144	769.882
157.819	23.548	950.787	769.240
158.833	23.621	950.538	769.288
159.848	23.632	949.285	768.254
160.862	23.490	948.319	766.788
161.877	23.517	947.280	765.996
162.892	23.609	946.309	765.542
163.906	23.466	945.402	764.124
164.921	23.381	944.541	762.994
165.935	23.456	943.490	762.398
166.950	23.508	942.568	761.809
167.964	23.467	941.357	760.589
168.979	23.249	940.924	759.239
169.994	23.223	940.030	758.338
171.008	23.461	939.514	758.874
172.023	23.464	938.686	758.151
173.037	23.337	937.245	756.379
174.052	23.089	936.604	754.736
175.067	23.202	935.693	754.416
176.081	23.284	935.192	754.294
177.096	23.117	934.817	753.215
178.110	22.925	933.858	751.557
179.125	22.776	933.045	750.204
180.140	22.954	932.481	750.441
181.154	23.093	932.248	750.776
182.169	23.393	931.844	751.657
183.183	23.470	931.666	751.772
184.198	23.301	930.931	750.396
185.213	23.481	929.864	750.231
186.227	23.448	929.393	749.647
187.242	23.512	928.645	749.248
188.256	23.512	927.846	748.536
189.271	23.560	927.148	748.110
190.286	23.449	925.625	746.345
191.300	22.686	924.832	742.433
192.315	21.908	923.042	737.658
193.329	21.875	922.859	737.307
194.344	22.699	923.123	740.917
195.359	23.293	923.169	743.383
196.373	23.503	922.334	743.523
197.388	23.166	921.896	741.695
198.402	23.341	921.105	741.723
199.417	23.423	920.582	741.582
200.432	23.113	919.537	739.379
201.446	22.928	918.972	738.086
202.461	23.003	918.451	737.914
203.475	22.131	916.946	733.005
204.490	21.529	914.661	728.608
205.504	22.386	915.561	732.828
206.519	23.033	915.320	735.263
207.534	23.089	914.882	735.079
208.548	23.432	914.637	736.243
209.563	23.235	913.712	734.616
210.577	23.234	912.941	733.925
211.592	23.614	912.784	735.312
212.607	23.562	911.984	734.386
213.621	23.582	911.431	733.959
214.636	23.580	910.737	733.324
215.650	23.503	909.813	732.199
216.665	23.654	909.438	732.453
217.680	23.543	908.484	731.166
218.694	23.142	906.967	728.227
219.709	22.891	906.671	726.893
220.723	23.272	906.859	728.549
221.738	23.339	905.789	727.897
222.753	23.364	904.882	727.207
223.767	23.414	904.788	727.274
224.782	23.665	904.023	727.623
225.796	23.747	903.615	727.566
226.811	23.045	902.104	723.413
227.826	22.234	901.154	719.271
228.840	22.678	900.546	720.536
229.855	22.700	899.729	719.911
230.869	22.281	898.688	717.307
231.884	22.712	898.595	718.923
232.899	23.499	898.544	722.024
233.913	23.391	898.058	721.131
234.928	23.246	897.679	720.172
235.942	23.229	896.981	719.482
236.957	22.998	896.019	717.707
237.972	23.087	895.545	717.627
238.986	23.013	895.138	716.936
240.001	23.179	894.446	716.989
241.015	23.168	894.058	716.571
242.030	23.420	893.199	716.839
243.045	23.465	892.950	716.758
244.059	23.628	892.370	716.887
245.074	23.406	891.094	714.902
246.088	23.035	890.358	712.753
247.103	23.298	890.503	713.867
248.117	23.700	890.411	715.352
249.132	24.010	889.982	716.192
250.147	24.203	889.121	716.209
251.161	24.240	888.796	716.034
252.176	24.249	888.035	715.395
253.190	24.316	887.643	715.282
254.205	24.499	887.238	715.625
255.220	24.523	886.294	714.900
256.234	24.217	885.936	713.322
257.249	24.149	885.019	712.248
258.263	24.256	884.284	712.021
259.278	24.297	883.911	711.822
260.293	24.219	883.343	710.988
261.307	24.244	882.335	710.215
262.322	23.979	881.484	708.414
263.336	23.403	879.668	704.599
264.351	22.346	877.787	698.834
265.366	22.409	876.919	698.334
266.380	23.435	877.986	703.194
267.395	23.858	877.865	704.712
268.409	23.847	877.111	704.002
269.424	24.076	876.500	704.355
270.439	24.163	875.687	703.984
271.453	24.258	875.228	703.928
272.468	24.358	875.370	704.374
273.482	24.470	874.415	703.982
274.497	24.113	873.283	701.605
275.512	23.611	872.664	699.068
276.526	23.856	872.645	699.956
277.541	24.123	872.056	700.471
278.555	24.019	871.143	699.266
279.570	23.810	870.457	697.833
280.585	23.878	870.048	697.711
281.599	23.885	868.899	696.755
282.614	23.391	867.396	693.555
283.628	23.337	867.158	693.095
284.643	23.634	867.236	694.258
285.657	23.273	866.007	691.800
286.672	22.894	865.086	689.526
287.687	23.722	864.636	692.333
288.701	23.812	864.421	692.453
289.716	23.324	864.100	690.233
290.730	23.495	862.931	689.901
291.745	23.104	862.089	687.649
292.760	23.361	862.161	688.644
293.774	24.244	862.462	692.255
294.789	24.727	862.334	693.967
295.803	24.664	861.595	693.065
296.818	24.778	860.854	692.848
297.833	24.283	860.101	690.266
298.847	24.086	859.380	688.866
299.862	24.469	858.989	689.970
300.876	24.741	858.330	690.429
301.891	24.685	857.582	689.551
302.906	24.231	856.738	687.063
303.920	24.288	856.565	687.082
304.935	24.654	856.480	688.362
305.949	24.546	855.989	687.493
306.964	24.378	854.903	685.914
307.979	24.444	854.448	685.743
308.993	24.812	854.435	687.084
310.008	24.669	854.012	686.132
311.022	24.587	852.526	684.567
312.037	24.261	852.222	683.011
313.052	24.084	851.433	681.642
314.066	23.327	849.873	677.438
315.081	22.871	849.543	675.372
316.095	23.804	849.361	678.731
317.110	24.227	849.392	680.313
318.125	23.483	847.848	676.179
319.139	22.492	846.134	670.979
320.154	22.424	845.896	670.471
321.168	23.316	846.720	674.466
322.183	23.888	846.808	676.654
323.197	24.133	846.266	677.089
324.212	24.332	845.987	677.564
325.227	24.409	845.235	677.193
326.241	24.330	844.577	676.306
327.256	24.109	844.077	675.010
328.270	24.020	843.526	674.172
329.285	24.070	842.446	673.439
330.300	23.621	841.634	671.031
331.314	23.795	841.938	671.872
332.329	24.488	841.092	673.754
333.343	24.525	840.932	673.705
334.358	24.430	840.811	673.193
335.373	24.619	840.290	673.429
336.387	24.718	840.118	673.604
337.402	25.047	839.977	674.670
338.416	24.829	839.510	673.416
339.431	24.839	839.267	673.198
340.446	24.957	839.056	673.414
341.460	24.833	838.481	672.426
342.475	24.818	837.426	671.463
343.489	24.831	837.465	671.485
344.504	25.216	837.019	672.511
345.519	25.312	836.547	672.432
346.533	25.294	836.239	672.055
347.548	25.236	835.796	671.425
348.562	25.297	834.879	670.855
349.577	25.149	834.544	669.975
350.592	25.256	833.753	669.681
351.606	25.285	833.135	669.232
352.621	25.059	832.265	667.634
353.635	25.028	831.333	666.712
354.650	24.608	829.751	663.823
355.665	23.400	828.558	658.323
356.679	23.790	828.502	659.672
357.694	24.261	828.181	661.103
358.708	24.192	827.328	660.109
359.723	24.626	827.494	661.789
360.738	24.964	827.069	662.645
361.752	24.901	826.656	662.022
362.767	25.265	826.275	663.000
363.781	25.554	826.204	663.956
364.796	25.671	825.368	663.653
365.810	25.564	825.329	663.171
366.825	25.586	824.791	662.758
367.840	25.344	823.777	660.996
368.854	24.894	823.014	658.671
369.869	24.950	822.569	658.461
370.883	24.943	822.381	658.226
371.898	25.013	821.669	657.858
372.913	25.018	821.411	657.611
373.927	25.124	820.942	657.564
374.942	25.286	820.556	657.793
375.956	25.373	819.725	657.385
376.971	25.535	819.598	657.820
377.986	25.570	819.637	657.919
379.000	25.585	818.934	657.350
380.015	25.515	817.656	656.012
381.029	25.536	817.514	655.918
382.044	25.592	817.166	655.784
383.059	25.519	816.756	655.130
384.073	25.675	815.887	654.943
385.088	25.594	815.428	654.223
386.102	25.367	814.660	652.722
387.117	25.323	814.144	652.093
388.132	24.858	813.351	649.712
389.146	24.506	811.964	647.269
390.161	25.037	811.848	649.044
391.175	25.291	812.131	650.132
392.190	25.047	810.971	648.265
393.205	23.662	808.635	641.342
394.219	22.303	807.030	635.107
395.234	22.136	806.878	634.330
396.248	23.840	807.775	641.129
397.263	25.230	808.978	647.046
398.278	25.159	808.777	646.572
399.292	24.928	807.964	645.032
400.307	25.045	807.497	645.023
401.321	24.917	807.432	644.455
402.336	25.489	806.833	645.975
403.350	25.852	807.151	647.476
404.365	26.164	806.843	648.295
405.380	26.271	806.779	648.570
406.394	26.316	805.964	648.016
407.409	26.194	805.652	647.272
408.423	26.101	805.361	646.648
409.438	26.262	804.946	646.833
410.453	26.225	804.599	646.366
411.467	26.266	803.569	645.626
412.482	26.256	803.291	645.311
413.496	26.351	802.930	645.304
414.511	26.242	802.667	644.646
415.526	26.403	802.176	644.767
416.540	26.200	801.537	643.476
417.555	25.934	800.685	641.789
418.569	25.970	800.031	641.334
419.584	26.057	799.697	641.319
420.599	25.772	799.404	640.013
421.613	89.602	1249.763	1339.890
422.628	76.559	1315.419	1340.018
