DTS Sentinel unit serial number:	SN413079Multiplexer serial number:	ORYXHardware model number:	OX4-SRSoftware version number:	ORYX F/W v4.00 Oryx Data Collector v3.7.2.0data status	okinstallation	princeton_trtdifferential loss correction	single-endedforward channel	channel 1reverse channel	N/Adate	2019/09/14time	05:06:35forward acquisition time	60.00reverse acquisition time	0.00gamma	496.2192k internal	0.2334k external	0.2334temperature offset calibration	1.0079default loss term (dB/km)	0.3790temperature slope calibration	1.0000multiplexer offset coefficient	1.0000multiplexer slope coefficient	1.0000fibre end	0.00T internal ref (°C)	26.87T ext. ref 1 (°C)	3.38T ext. ref 2 (°C)	21.99length (m)	temperature (°C)	Stokes	anti-Stokes-747.200	-121.782	0.222	0.037
-746.185	-200.000	-0.024	0.120
-745.171	-200.000	-0.018	0.152
-744.156	13.421	0.207	0.162
-743.142	174.657	-0.260	0.378
-742.127	97.267	-0.270	0.311
-741.112	727.916	0.070	-0.188
-740.098	-173.836	-0.157	-0.005
-739.083	-200.000	0.018	-0.104
-738.069	-200.000	0.035	0.161
-737.054	-135.281	-0.137	-0.017
-736.039	-135.200	-0.275	-0.033
-735.025	-84.281	0.230	0.073
-734.010	331.747	-0.013	0.025
-732.996	-200.000	-0.003	0.123
-731.981	-20.874	-0.249	-0.154
-730.966	-53.679	-0.166	0.076
-729.952	-80.191	-0.087	0.029
-728.937	72.608	-0.060	-0.063
-727.923	-127.758	-0.169	-0.025
-726.908	-134.533	-0.245	-0.030
-725.894	-69.611	0.339	0.130
-724.879	26.331	-0.318	0.267
-723.864	789.466	0.173	-0.478
-722.850	-80.394	-0.139	0.047
-721.835	164.268	-0.137	0.193
-720.821	800.000	0.046	-0.147
-719.806	657.506	-0.123	0.316
-718.791	800.000	0.023	-0.066
-717.777	-142.349	-0.251	0.025
-716.762	564.037	0.035	-0.086
-715.748	137.657	-0.043	0.057
-714.733	44.399	-0.035	-0.033
-713.718	292.169	0.071	-0.130
-712.704	-132.978	-0.406	0.052
-711.689	159.404	-0.037	0.052
-710.675	133.436	-0.159	-0.206
-709.660	-200.000	0.014	0.126
-708.645	-95.803	0.058	0.016
-707.631	104.478	0.360	0.425
-706.616	-13.092	-0.078	0.051
-705.602	124.071	0.065	-0.082
-704.587	-131.884	0.063	0.008
-703.572	35.120	-0.090	0.079
-702.558	-152.284	0.206	0.015
-701.543	-200.000	0.038	-0.358
-700.529	46.067	-0.383	-0.356
-699.514	263.752	-0.123	-0.215
-698.499	-200.000	0.037	-0.170
-697.485	106.480	-0.026	-0.031
-696.470	219.835	-0.133	0.213
-695.456	-193.036	0.255	0.002
-694.441	-22.454	0.100	-0.061
-693.426	85.917	-0.065	0.072
-692.412	-80.983	0.061	0.020
-691.397	278.043	-0.096	0.171
-690.383	24.605	-0.062	0.051
-689.368	72.248	0.193	-0.202
-688.354	800.000	0.087	0.250
-687.339	-161.078	0.431	-0.023
-686.324	-97.677	-0.162	0.042
-685.310	-200.000	0.007	0.218
-684.295	-200.000	0.044	0.290
-683.281	254.164	-0.077	-0.131
-682.266	800.000	0.101	-0.300
-681.251	-200.000	-0.033	-0.272
-680.237	310.370	-0.205	-0.385
-679.222	-68.761	0.080	0.031
-678.208	-66.210	-0.262	-0.105
-677.193	-200.000	0.036	-0.202
-676.178	-100.237	-0.069	0.017
-675.164	218.080	-0.128	-0.205
-674.149	106.270	-0.054	-0.064
-673.135	-8.357	0.112	-0.076
-672.120	-100.649	-0.310	0.077
-671.105	145.462	-0.097	0.130
-670.091	-89.114	0.223	0.066
-669.076	331.273	-0.152	0.294
-668.062	-154.727	0.120	0.008
-667.047	308.355	0.104	0.195
-666.032	564.663	-0.018	0.043
-665.018	-122.818	0.223	-0.036
-664.003	-87.484	0.247	0.075
-662.989	-32.461	-0.101	0.056
-661.974	-60.041	-0.159	-0.068
-660.959	-200.000	0.001	-0.098
-659.945	103.794	0.096	-0.113
-658.930	381.169	-0.052	0.106
-657.916	-18.830	0.103	0.064
-656.901	236.906	0.130	-0.216
-655.886	-124.511	0.216	-0.034
-654.872	-200.000	-0.014	0.332
-653.857	307.596	0.052	0.097
-652.843	632.426	-0.146	-0.370
-651.828	422.508	0.242	-0.521
-650.814	62.451	0.070	0.070
-649.799	113.771	0.207	-0.251
-648.784	-126.016	-0.243	0.037
-647.770	-102.605	0.324	0.077
-646.755	179.995	-0.147	-0.215
-645.741	616.839	-0.147	0.371
-644.726	-200.000	-0.005	-0.090
-643.711	800.000	-0.047	0.167
-642.697	-200.000	-0.006	0.191
-641.682	38.108	-0.085	-0.076
-640.668	56.714	-0.142	-0.139
-639.653	31.286	-0.400	0.344
-638.638	-200.000	0.027	-0.172
-637.624	-163.244	-0.085	0.004
-636.609	-13.526	-0.162	-0.105
-635.595	-92.089	-0.086	0.024
-634.580	-1.786	0.210	0.148
-633.565	-15.365	-0.292	0.187
-632.551	-133.361	0.029	-0.004
-631.536	-100.621	0.163	0.040
-630.522	214.185	-0.118	-0.187
-629.507	-175.012	0.428	0.012
-628.492	-200.000	-0.012	-0.135
-627.478	297.857	-0.130	-0.240
-626.463	800.000	0.066	-0.265
-625.449	81.919	-0.100	-0.108
-624.434	-103.470	0.302	-0.071
-623.419	-27.450	-0.199	-0.116
-622.405	-39.426	0.458	-0.240
-621.390	-200.000	-0.011	-0.227
-620.376	-105.334	-0.134	0.031
-619.361	-51.037	0.203	0.096
-618.346	-65.689	0.286	0.114
-617.332	800.000	0.083	-0.243
-616.317	800.000	-0.033	-0.107
-615.303	177.371	-0.241	-0.351
-614.288	62.062	0.145	-0.145
-613.273	800.000	0.054	-0.168
-612.259	34.881	-0.269	0.236
-611.244	-82.393	0.053	-0.017
-610.230	53.912	-0.146	-0.140
-609.215	-114.459	-0.045	0.009
-608.201	565.633	0.070	-0.170
-607.186	175.286	0.042	0.061
-606.171	-114.758	-0.111	0.021
-605.157	800.000	0.083	-0.246
-604.142	18.889	-0.135	-0.108
-603.128	800.000	-0.019	-0.071
-602.113	82.904	-0.148	-0.161
-601.098	-180.435	0.282	-0.006
-600.084	-38.945	0.163	-0.086
-599.069	-89.933	-0.062	0.018
-598.055	800.000	0.048	-0.199
-597.040	651.362	-0.044	-0.112
-596.025	-200.000	0.031	0.273
-595.011	335.684	0.153	0.296
-593.996	-119.240	0.242	-0.042
-592.982	-148.384	0.462	0.038
-591.967	285.678	0.055	0.100
-590.952	-62.697	-0.186	-0.077
-589.938	-98.353	0.086	-0.022
-588.923	-92.789	-0.051	0.014
-587.909	-64.257	-0.094	-0.038
-586.894	-88.766	-0.182	0.054
-585.879	219.023	-0.074	0.118
-584.865	189.471	-0.007	-0.010
-583.850	-95.812	-0.243	-0.065
-582.836	-160.342	0.382	0.021
-581.821	22.659	-0.232	-0.190
-580.806	800.000	-0.105	-0.411
-579.792	-54.475	-0.119	0.054
-578.777	29.305	0.105	-0.089
-577.763	739.576	-0.111	0.297
-576.748	83.501	0.158	0.173
-575.733	-64.056	-0.276	-0.112
-574.719	-200.000	-0.005	-0.155
-573.704	45.025	-0.134	-0.123
-572.690	133.133	-0.128	0.165
-571.675	267.096	0.046	0.080
-570.661	18.556	-0.038	-0.030
-569.646	-200.000	-0.000	0.146
-568.631	-200.000	-0.027	0.211
-567.617	800.000	0.108	0.332
-566.602	14.859	-0.235	-0.183
-565.588	-98.259	0.250	-0.064
-564.573	26.164	-0.208	-0.174
-563.558	74.612	-0.302	-0.317
-562.544	-200.000	-0.010	-0.084
-561.529	-167.645	0.294	-0.012
-560.515	-200.000	-0.014	-0.064
-559.500	-7.524	0.234	0.158
-558.485	-200.000	0.005	0.142
-557.471	800.000	-0.038	0.118
-556.456	306.787	-0.137	-0.255
-555.442	-108.648	0.161	-0.035
-554.427	41.963	-0.061	-0.055
-553.412	75.657	0.179	0.189
-552.398	-200.000	0.021	0.294
-551.383	40.906	-0.262	0.236
-550.369	22.474	0.216	0.176
-549.354	-7.447	-0.162	0.109
-548.339	89.992	0.228	0.255
-547.325	-109.434	-0.481	-0.101
-546.310	-200.000	0.050	0.240
-545.296	751.998	-0.084	-0.227
-544.281	-110.919	-0.314	0.064
-543.266	-94.626	0.111	0.030
-542.252	-54.344	-0.179	0.081
-541.237	747.057	0.106	-0.284
-540.223	-72.673	0.286	0.105
-539.208	-111.718	0.155	-0.031
-538.193	385.911	-0.068	0.140
-537.179	-67.482	-0.068	0.026
-536.164	315.192	0.080	0.150
-535.150	800.000	-0.069	0.264
-534.135	64.556	-0.161	0.162
-533.121	66.567	0.099	0.100
-532.106	-80.996	-0.348	-0.115
-531.091	80.163	-0.261	0.280
-530.077	800.000	0.040	0.112
-529.062	-9.554	-0.272	-0.181
-528.048	-143.852	-0.281	-0.026
-527.033	-122.854	-0.112	0.018
-526.018	206.256	0.113	0.175
-525.004	12.224	0.242	0.186
-523.989	-200.000	-0.038	0.365
-522.975	81.429	-0.120	-0.129
-521.960	-16.670	-0.082	0.052
-520.945	-170.693	0.265	0.009
-519.931	103.483	-0.134	0.156
-518.916	161.983	0.045	0.062
-517.902	9.662	-0.088	0.066
-516.887	1.965	0.246	-0.177
-515.872	-200.000	0.023	-0.250
-514.858	-70.519	0.303	-0.114
-513.843	3.373	0.159	-0.115
-512.829	-200.000	0.016	0.226
-511.814	800.000	0.092	0.261
-510.799	-10.560	0.243	-0.160
-509.785	800.000	-0.118	0.366
-508.770	-73.631	-0.458	-0.166
-507.756	-200.000	0.017	-0.169
-506.741	91.634	-0.097	0.109
-505.726	-135.760	0.158	-0.019
-504.712	-59.476	0.222	-0.095
-503.697	151.291	-0.174	-0.236
-502.683	-159.678	-0.246	0.014
-501.668	17.475	-0.139	-0.110
-500.653	-16.324	0.064	-0.040
-499.639	-21.098	-0.456	-0.278
-498.624	-59.258	-0.465	-0.200
-497.610	-200.000	0.051	0.311
-496.595	244.577	-0.020	-0.034
-495.581	-112.109	0.257	-0.052
-494.566	800.000	0.037	0.145
-493.551	-75.808	-0.369	0.130
-492.537	-200.000	0.002	0.046
-491.522	742.224	0.104	0.280
-490.508	-200.000	0.011	0.128
-489.493	303.911	0.192	-0.354
-488.478	-200.000	-0.018	0.100
-487.464	40.871	0.146	0.131
-486.449	-62.837	-0.127	-0.052
-485.435	12.148	0.155	-0.119
-484.420	78.597	-0.143	0.152
-483.405	-200.000	-0.076	-0.337
-482.391	-82.124	0.042	-0.014
-481.376	11.467	0.316	-0.241
-480.362	43.733	-0.174	0.158
-479.347	-141.022	-0.266	0.027
-478.332	800.000	0.075	0.256
-477.318	311.909	0.056	0.105
-476.303	-186.244	0.220	0.003
-475.289	-170.900	-0.138	0.005
-474.274	800.000	-0.087	0.278
-473.259	-73.713	-0.271	-0.098
-472.245	4.111	-0.084	-0.061
-471.230	-3.422	0.022	-0.015
-470.216	-143.777	0.103	-0.010
-469.201	-25.268	0.137	0.080
-468.186	-63.112	0.210	0.086
-467.172	-44.002	-0.272	0.136
-466.157	289.249	-0.135	-0.243
-465.143	64.087	0.501	-0.501
-464.128	-47.412	0.444	-0.215
-463.113	-200.000	-0.019	-0.209
-462.099	800.000	0.077	-0.233
-461.084	21.442	0.156	-0.126
-460.070	-78.737	0.239	0.081
-459.055	-200.000	-0.028	0.139
-458.040	800.000	-0.025	-0.095
-457.026	-79.833	0.099	-0.033
-456.011	-89.357	0.339	-0.099
-454.997	-200.000	-0.010	-0.112
-453.982	-78.899	0.272	-0.092
-452.968	-150.773	-0.355	-0.027
-451.953	-63.114	0.066	0.027
-450.938	379.493	0.114	0.232
-449.924	-200.000	-0.008	0.051
-448.909	25.828	0.191	-0.158
-447.895	-121.426	-0.142	-0.024
-446.880	-116.451	-0.255	0.047
-445.865	92.392	-0.056	0.063
-444.851	46.183	-0.245	0.226
-443.836	-57.299	-0.233	0.102
-442.822	-58.454	0.195	-0.084
-441.807	-63.057	-0.264	-0.108
-440.792	198.072	0.059	-0.089
-439.778	598.661	0.100	0.247
-438.763	-200.000	0.015	-0.278
-437.749	-200.000	0.016	-0.213
-436.734	-200.000	0.009	0.042
-435.719	745.816	0.074	-0.197
-434.705	-95.768	-0.359	0.095
-433.690	-169.811	-0.545	0.019
-432.676	-100.582	-0.141	0.035
-431.661	-200.000	-0.023	-0.178
-430.646	230.559	-0.088	0.142
-429.632	-34.997	-0.115	-0.062
-428.617	-163.453	-0.074	0.004
-427.603	-18.124	-0.345	-0.214
-426.588	800.000	0.102	-0.287
-425.573	313.058	-0.111	-0.207
-424.559	-200.000	-0.036	0.315
-423.544	-200.000	-0.043	0.216
-422.530	260.966	0.100	0.172
-421.515	15.203	0.055	0.043
-420.500	800.000	0.061	-0.240
-419.486	-200.000	-0.014	0.063
-418.471	-98.701	0.118	0.030
-417.457	54.516	0.262	0.251
-416.442	27.403	0.225	-0.188
-415.428	-112.738	0.183	-0.036
-414.413	-25.216	-0.545	-0.320
-413.398	108.624	0.120	-0.142
-412.384	-138.049	0.339	0.037
-411.369	-57.858	-0.147	0.064
-410.355	-200.000	0.053	-0.235
-409.340	800.000	-0.104	0.361
-408.325	-200.000	-0.041	-0.331
-407.311	423.264	-0.176	0.376
-406.296	451.624	0.185	0.406
-405.282	64.415	-0.126	0.126
-404.267	800.000	0.034	-0.112
-403.252	13.563	-0.139	0.107
-402.238	167.644	-0.032	-0.046
-401.223	-28.609	-0.232	0.133
-400.209	-104.801	-0.183	-0.042
-399.194	-200.000	0.010	-0.130
-398.179	-200.000	0.062	0.306
-397.165	-100.172	-0.276	-0.068
-396.150	-200.000	0.018	0.151
-395.136	-200.000	0.030	0.164
-394.121	-36.502	-0.326	0.174
-393.106	800.000	-0.044	0.138
-392.092	-200.000	0.030	0.335
-391.077	800.000	-0.065	-0.203
-390.063	-200.000	0.029	-0.273
-389.048	-57.398	-0.074	0.032
-388.033	-80.805	0.395	-0.130
-387.019	6.778	0.219	-0.162
-386.004	-117.181	-0.145	-0.026
-384.990	-131.509	0.175	0.023
-383.975	115.898	-0.186	0.225
-382.960	-52.616	0.151	-0.069
-381.946	289.212	-0.011	-0.019
-380.931	-85.865	-0.286	0.088
-379.917	-152.351	0.325	0.023
-378.902	-183.809	0.111	-0.002
-377.888	-39.403	-0.342	-0.178
-376.873	-200.000	0.064	-0.337
-375.858	800.000	-0.060	-0.167
-374.844	-52.682	0.225	0.103
-373.829	-124.772	0.037	0.006
-372.815	-159.727	0.245	0.013
-371.800	-30.551	0.094	-0.053
-370.785	800.000	0.033	0.095
-369.771	-109.444	-0.269	0.056
-368.756	-200.000	-0.014	-0.078
-367.742	132.817	-0.045	-0.057
-366.727	-107.576	0.308	-0.067
-365.712	-129.150	0.206	0.028
-364.698	-52.204	0.154	0.071
-363.683	800.000	-0.064	-0.272
-362.669	273.588	-0.131	0.230
-361.654	-45.374	0.245	0.120
-360.639	-200.000	0.044	0.416
-359.625	137.230	-0.107	0.139
-358.610	24.926	0.169	0.139
-357.596	-11.456	-0.394	0.257
-356.581	-53.735	0.223	0.101
-355.566	-21.511	-0.146	-0.088
-354.552	-119.238	-0.181	-0.031
-353.537	-200.000	0.056	0.582
-352.523	298.865	0.036	0.065
-351.508	224.371	0.145	0.232
-350.493	800.000	-0.100	-0.293
-349.479	-200.000	-0.000	0.006
-348.464	-8.894	0.229	-0.152
-347.450	-66.911	0.093	0.036
-346.435	-85.379	-0.234	0.072
-345.420	92.026	-0.184	0.205
-344.406	154.568	-0.062	-0.084
-343.391	62.584	-0.155	0.154
-342.377	-135.308	-0.149	-0.018
-341.362	81.473	-0.219	-0.234
-340.348	-26.562	-0.030	0.017
-339.333	-200.000	-0.033	0.327
-338.318	65.486	0.041	-0.041
-337.304	-126.916	-0.422	-0.061
-336.289	120.556	-0.300	-0.369
-335.275	749.163	0.166	0.444
-334.260	-200.000	-0.003	0.191
-333.245	800.000	-0.077	-0.227
-332.231	-9.439	-0.284	0.187
-331.216	-172.008	0.299	0.010
-330.202	-116.075	-0.223	-0.041
-329.187	-123.337	-0.303	0.048
-328.172	-191.800	-0.327	0.003
-327.158	-48.836	0.205	0.097
-326.143	-200.000	0.009	-0.094
-325.129	175.999	0.042	-0.060
-324.114	-200.000	-0.023	0.136
-323.099	-113.526	0.032	0.006
-322.085	-200.000	-0.011	0.210
-321.070	219.364	-0.125	0.198
-320.056	-200.000	0.011	-0.250
-319.041	98.929	0.075	-0.085
-318.026	-87.484	0.219	0.066
-317.012	-100.627	-0.073	0.018
-315.997	383.229	0.123	-0.251
-314.983	-12.937	-0.170	0.110
-313.968	30.020	-0.281	0.237
-312.953	455.629	-0.094	-0.205
-311.939	-67.770	-0.206	-0.080
-310.924	-24.306	-0.494	-0.291
-309.910	-4.425	-0.269	0.184
-308.895	104.808	-0.086	0.100
-307.880	-32.083	0.135	-0.075
-306.866	28.434	0.302	-0.252
-305.851	-163.579	0.198	0.009
-304.837	470.621	0.170	0.378
-303.822	113.639	-0.085	-0.102
-302.807	4.343	-0.106	0.077
-301.793	163.554	0.155	0.215
-300.778	467.898	0.070	0.155
-299.764	-119.161	-0.061	0.011
-298.749	-107.441	0.313	-0.068
-297.735	-34.922	0.460	-0.248
-296.720	-200.000	0.024	-0.218
-295.705	-200.000	-0.022	-0.110
-294.691	-158.356	0.076	-0.004
-293.676	-121.507	-0.178	0.029
-292.662	85.263	0.088	0.095
-291.647	-200.000	0.067	-0.335
-290.632	240.178	0.083	-0.137
-289.618	-67.952	0.152	0.059
-288.603	427.733	0.075	-0.159
-287.589	657.625	-0.083	0.211
-286.574	299.234	0.159	0.289
-285.559	-148.550	0.198	-0.016
-284.545	-86.772	0.218	-0.066
-283.530	-84.288	0.235	-0.074
-282.516	-8.630	-0.209	0.138
-281.501	-189.767	-0.427	0.005
-280.486	800.000	0.065	0.242
-279.472	-169.104	0.188	-0.007
-278.457	82.224	-0.131	-0.140
-277.443	800.000	0.088	0.326
-276.428	237.970	0.092	0.151
-275.413	106.913	-0.049	-0.057
-274.399	31.274	0.047	0.040
-273.384	29.306	0.264	-0.221
-272.370	-37.725	-0.198	-0.104
-271.355	-61.255	0.255	0.106
-270.340	46.834	0.168	-0.154
-269.326	624.221	0.076	0.189
-268.311	156.680	0.173	0.236
-267.297	37.212	-0.106	-0.093
-266.282	-159.601	0.123	-0.007
-265.267	-59.492	-0.292	0.124
-264.253	-71.493	-0.361	0.133
-263.238	-122.740	0.285	-0.045
-262.224	259.723	0.191	-0.325
-261.209	86.322	0.234	-0.255
-260.195	43.945	-0.254	0.229
-259.180	439.729	0.139	0.300
-258.165	800.000	0.096	-0.334
-257.151	-112.161	0.132	0.026
-256.136	158.024	-0.010	0.014
-255.122	-156.021	0.303	0.019
-254.107	-79.595	-0.274	-0.091
-253.092	-200.000	0.009	-0.451
-252.078	138.414	0.088	-0.114
-251.063	227.446	0.140	-0.225
-250.049	-48.257	-0.116	-0.055
-249.034	-10.107	0.211	-0.138
-248.019	30.578	-0.204	-0.172
-247.005	132.757	0.145	0.184
-245.990	-200.000	0.021	-0.342
-244.976	10.542	-0.222	-0.167
-243.961	800.000	-0.110	0.382
-242.946	-200.000	-0.013	-0.249
-241.932	-200.000	-0.043	-0.540
-240.917	-144.859	-0.349	-0.032
-239.903	-107.698	-0.213	-0.046
-238.888	-79.630	0.112	0.037
-237.873	800.000	-0.098	-0.355
-236.859	-200.000	0.004	-0.020
-235.844	-200.000	-0.019	-0.083
-234.830	-5.997	-0.106	0.071
-233.815	54.082	0.104	-0.099
-232.800	-140.752	0.211	0.021
-231.786	106.175	-0.183	-0.214
-230.771	-35.564	-0.381	-0.204
-229.757	72.369	-0.147	0.151
-228.742	-83.767	-0.119	-0.037
-227.727	23.216	0.182	0.147
-226.713	-63.091	0.123	-0.050
-225.698	-69.796	0.203	0.076
-224.684	56.272	0.161	-0.154
-223.669	-149.506	0.621	-0.048
-222.655	185.695	-0.014	0.020
-221.640	-9.798	-0.317	-0.208
-220.625	86.060	-0.114	0.123
-219.611	-147.508	0.237	0.020
-218.596	-200.000	-0.008	0.083
-217.582	282.559	-0.164	0.289
-216.567	-1.031	-0.178	-0.124
-215.552	-11.040	-0.247	0.160
-214.538	188.050	0.283	0.416
-213.523	242.741	0.184	0.304
-212.509	-88.933	-0.192	0.056
-211.494	107.074	0.082	-0.095
-210.479	-42.827	-0.257	0.128
-209.465	800.000	0.089	0.244
-208.450	-200.000	0.048	0.428
-207.436	-80.662	-0.143	-0.047
-206.421	-28.636	0.030	-0.017
-205.406	8.887	0.328	-0.244
-204.392	-200.000	-0.066	0.336
-203.377	-116.898	0.282	-0.051
-202.363	236.244	0.084	0.137
-201.348	-63.704	0.215	0.087
-200.333	-25.332	-0.188	-0.109
-199.319	-98.582	0.590	-0.148
-198.304	-76.370	-0.260	0.090
-197.290	-138.544	0.284	0.031
-196.275	-102.544	0.197	0.046
-195.260	14.626	-0.284	0.219
-194.246	162.017	0.143	0.197
-193.231	-200.000	0.015	-0.133
-192.217	-153.865	0.206	0.014
-191.202	680.071	0.044	0.112
-190.187	250.700	0.053	0.089
-189.173	-187.716	-0.236	0.003
-188.158	123.119	-0.118	-0.146
-187.144	110.740	0.050	0.059
-186.129	549.919	-0.061	-0.143
-185.114	0.307	0.021	-0.015
-184.100	-85.553	0.049	0.015
-183.085	4.603	-0.101	-0.073
-182.071	-200.000	0.022	0.310
-181.056	-54.295	-0.202	-0.090
-180.042	1.284	0.073	0.052
-179.027	232.383	0.137	-0.220
-178.012	-74.139	0.172	-0.061
-176.998	155.188	-0.075	-0.101
-175.983	-69.765	-0.265	-0.099
-174.969	121.221	0.143	0.175
-173.954	180.873	0.093	-0.135
-172.939	-93.961	0.272	0.073
-171.925	-200.000	-0.004	-0.124
-170.910	117.742	0.190	-0.230
-169.896	-23.780	-0.299	0.176
-168.881	86.186	-0.082	-0.088
-167.866	-103.163	-0.252	0.059
-166.852	22.324	0.227	-0.183
-165.837	314.887	-0.089	-0.165
-164.823	152.693	0.206	0.277
-163.808	61.863	0.075	-0.073
-162.793	800.000	-0.091	0.247
-161.779	362.053	0.087	-0.171
-160.764	-33.403	0.169	0.092
-159.750	264.875	0.080	0.137
-158.735	128.479	0.165	-0.206
-157.720	-82.224	0.203	-0.065
-156.706	-87.221	-0.136	-0.041
-155.691	1.884	0.316	0.224
-154.677	800.000	0.051	-0.180
-153.662	-32.845	-0.046	-0.025
-152.647	42.266	0.104	0.093
-151.633	-42.788	0.431	-0.215
-150.618	39.079	-0.094	0.083
-149.604	271.084	-0.132	-0.228
-148.589	9.909	-0.180	0.135
-147.574	-126.519	-0.257	0.037
-146.560	143.969	-0.017	0.022
-145.545	89.605	0.217	0.238
-144.531	-200.000	0.191	0.001
-143.516	-175.612	0.036	0.001
-142.502	26.649	-0.250	0.206
-141.487	6.645	-0.085	-0.062
-140.472	-68.365	0.046	0.018
-139.458	-200.000	0.012	0.309
-138.443	256.267	0.126	0.213
-137.429	229.658	0.111	0.179
-136.414	-132.891	0.230	0.029
-135.399	17.050	0.206	-0.160
-134.385	-33.926	-0.162	0.087
-133.370	127.287	0.072	-0.090
-132.356	175.411	0.035	0.050
-131.341	-200.000	0.020	0.180
-130.326	-159.680	-0.256	-0.014
-129.312	-200.000	0.003	0.359
-128.297	800.000	-0.049	0.159
-127.283	-33.660	-0.238	-0.129
-126.268	-84.360	0.041	0.013
-125.253	-130.178	0.433	0.058
-124.239	26.399	-0.210	-0.172
-123.224	800.000	-0.091	0.351
-122.210	-111.763	0.346	0.069
-121.195	293.435	-0.033	-0.060
-120.180	478.209	0.229	0.508
-119.166	29.454	0.098	0.082
-118.151	-200.000	0.002	0.208
-117.137	-28.844	0.196	0.110
-116.122	137.306	-0.129	-0.165
-115.107	268.853	0.085	0.146
-114.093	351.282	0.080	0.154
-113.078	126.637	0.157	0.195
-112.064	-52.081	-0.118	-0.054
-111.049	426.201	-0.024	0.052
-110.034	-58.306	-0.170	-0.073
-109.020	-127.735	0.087	-0.012
-108.005	-45.623	0.054	0.026
-106.991	69.700	0.088	0.089
-105.976	-72.869	0.391	0.141
-104.962	-26.829	-0.311	-0.178
-103.947	107.784	0.195	-0.228
-102.932	-200.000	-0.013	0.166
-101.918	-101.631	-0.134	-0.032
-100.903	-173.553	0.446	-0.013
-99.889	-200.000	0.018	-0.347
-98.874	111.208	0.149	0.176
-97.859	-44.069	0.152	0.075
-96.845	-200.000	0.023	-0.152
-95.830	-70.808	-0.243	0.090
-94.816	-7.015	-0.276	0.184
-93.801	230.951	-0.139	0.223
-92.786	-165.638	0.149	-0.006
-91.772	-77.872	-0.222	-0.075
-90.757	-34.770	0.208	0.111
-89.743	-200.000	0.020	0.315
-88.728	-200.000	-0.008	-0.314
-87.713	123.422	-0.070	-0.086
-86.699	119.700	0.106	0.129
-85.684	75.009	0.117	-0.121
-84.670	-92.702	0.243	-0.067
-83.655	800.000	-0.040	0.144
-82.640	74.307	0.298	-0.306
-81.626	15.138	-0.264	-0.203
-80.611	100.163	0.132	0.150
-79.597	-100.248	-0.086	-0.021
-78.582	800.000	0.053	-0.169
-77.567	-200.000	0.001	-0.022
-76.553	769.653	0.040	0.106
-75.538	-200.000	-0.028	0.209
-74.524	54.212	-0.251	-0.236
-73.509	-177.263	0.487	0.012
-72.494	205.825	0.186	-0.282
-71.480	-16.853	-0.139	0.086
-70.465	-200.000	0.074	-0.370
-69.451	-45.668	0.094	0.045
-68.436	-200.000	0.006	-0.134
-67.422	-161.566	-0.116	-0.006
-66.407	544.515	0.114	0.266
-65.392	-96.053	-0.181	-0.047
-64.378	-200.000	-0.021	0.326
-63.363	24.094	-0.094	0.076
-62.349	31.110	-0.246	-0.207
-61.334	111.261	-0.746	-0.880
-60.319	1.786	0.537	0.379
-59.305	800.000	-0.455	-1.301
-58.290	800.000	0.295	0.948
-57.276	800.000	0.518	1.420
-56.261	-200.000	115.737	660.517
-55.246	531.567	1531.885	3545.411
-54.232	175.853	2705.985	3842.263
-53.217	109.292	2162.431	2533.102
-52.203	38.819	1599.057	1397.221
-51.188	30.231	1342.260	1121.153
-50.173	27.365	1303.686	1072.038
-49.159	55.624	1361.798	1290.538
-48.144	53.260	1376.115	1289.875
-47.130	30.538	1330.079	1112.641
-46.115	27.140	1311.825	1077.226
-45.100	26.770	1307.267	1071.256
-44.086	26.767	1304.801	1069.175
-43.071	26.597	1302.950	1066.612
-42.057	26.680	1299.901	1064.561
-41.042	26.777	1298.583	1064.010
-40.027	26.713	1297.521	1062.724
-39.013	26.785	1295.407	1061.370
-37.998	26.809	1293.306	1059.747
-36.984	26.838	1291.771	1058.613
-35.969	26.927	1290.022	1057.657
-34.954	26.953	1287.806	1055.955
-33.940	26.895	1286.962	1054.883
-32.925	26.919	1285.597	1053.857
-31.911	26.945	1283.736	1052.444
-30.896	26.971	1282.503	1051.538
-29.881	26.922	1281.266	1050.200
-28.867	26.995	1279.654	1049.261
-27.852	26.930	1278.561	1047.944
-26.838	26.942	1276.919	1046.628
-25.823	27.004	1275.683	1045.932
-24.809	26.965	1274.716	1044.875
-23.794	26.951	1272.960	1043.310
-22.779	26.991	1271.562	1042.352
-21.765	26.921	1270.289	1040.869
-20.750	26.960	1268.799	1039.827
-19.736	26.890	1267.896	1038.648
-18.721	26.920	1266.908	1037.967
-17.706	26.846	1265.953	1036.721
-16.692	26.917	1264.348	1035.773
-15.677	26.868	1263.539	1034.788
-14.663	26.836	1262.636	1033.823
-13.648	26.770	1261.632	1032.588
-12.633	26.834	1260.539	1032.016
-11.619	26.743	1259.793	1030.844
-10.604	26.810	1258.567	1030.182
-9.590	26.762	1258.130	1029.512
-8.575	26.797	1256.837	1028.608
-7.560	26.782	1256.128	1027.905
-6.546	26.841	1254.731	1027.052
-5.531	26.742	1254.367	1026.155
-4.517	26.892	1253.276	1026.069
-3.502	26.956	1251.871	1025.239
-2.487	26.829	1251.234	1023.960
-1.473	26.784	1247.324	1020.469
-0.458	25.331	1232.638	1000.326
0.556	22.336	1215.687	963.958
1.571	18.813	1221.372	948.951
2.586	18.005	1236.567	956.156
3.600	17.489	1224.631	943.978
4.615	13.107	1153.085	865.826
5.629	6.409	1081.018	778.618
6.644	3.528	1063.405	751.839
7.659	3.235	1061.221	748.806
8.673	3.371	1060.019	748.552
9.688	3.376	1058.571	747.488
10.702	3.519	1056.697	746.789
11.717	7.319	1061.595	768.638
12.731	14.550	1071.860	811.289
13.746	18.976	1076.926	836.630
14.761	19.482	1077.286	839.297
15.775	18.655	1075.745	834.003
16.790	17.741	1073.626	827.850
17.804	17.030	1072.149	823.192
18.819	16.680	1071.570	820.977
19.834	16.466	1070.653	819.167
20.848	16.527	1069.269	818.328
21.863	16.325	1068.595	816.764
22.877	16.077	1067.932	814.987
23.892	15.937	1068.064	814.338
24.907	16.091	1066.651	813.932
25.921	15.899	1065.860	812.332
26.936	16.001	1064.659	811.837
27.950	16.186	1062.750	811.196
28.965	16.137	1061.359	809.830
29.980	16.259	1059.833	809.179
30.994	16.364	1058.950	808.935
32.009	16.409	1057.760	808.169
33.023	16.238	1056.744	806.506
34.038	16.165	1055.943	805.475
35.053	16.102	1055.530	804.787
36.067	16.083	1053.916	803.394
37.082	16.280	1053.264	803.762
38.096	16.300	1052.358	803.095
39.111	16.190	1052.177	802.365
40.126	16.181	1050.244	800.779
41.140	15.896	1048.966	798.378
42.155	15.846	1047.608	797.040
43.169	15.650	1047.006	795.584
44.184	15.921	1045.550	795.686
45.199	15.871	1044.220	794.367
46.213	15.903	1043.965	794.253
47.228	16.025	1042.941	793.979
48.242	16.155	1041.473	793.403
49.257	16.122	1040.839	792.696
50.271	16.040	1040.560	792.027
51.286	16.192	1039.527	791.886
52.301	16.120	1038.038	790.343
53.315	16.062	1037.098	789.288
54.330	16.038	1036.176	788.405
55.344	16.016	1035.356	787.605
56.359	16.014	1034.595	786.948
57.374	15.957	1033.681	785.916
58.388	15.769	1032.696	784.221
59.403	15.655	1032.041	783.125
60.417	15.860	1030.594	782.911
61.432	15.771	1030.213	782.139
62.447	15.734	1029.385	781.267
63.461	15.585	1028.475	779.816
64.476	15.671	1027.455	779.374
65.490	15.776	1026.549	779.103
66.505	15.668	1025.739	777.921
67.520	15.799	1025.309	778.133
68.534	15.711	1024.432	776.992
69.549	15.757	1023.424	776.368
70.563	15.569	1023.103	775.190
71.578	15.580	1022.147	774.447
72.593	15.566	1021.435	773.775
73.607	15.480	1020.958	772.948
74.622	15.571	1019.731	772.369
75.636	15.611	1019.240	772.116
76.651	15.584	1018.528	771.382
77.666	15.628	1017.945	771.074
78.680	15.685	1017.481	770.915
79.695	15.743	1016.832	770.622
80.709	15.780	1016.450	770.436
81.724	15.750	1015.459	769.479
82.739	15.789	1014.901	769.166
83.753	16.082	1013.906	769.682
84.768	16.330	1012.919	769.993
85.782	16.329	1012.630	769.702
86.797	16.287	1011.236	768.385
87.812	16.161	1010.537	767.212
88.826	16.198	1009.319	766.384
89.841	16.359	1008.625	766.521
90.855	16.268	1007.640	765.291
91.870	16.267	1006.970	764.714
92.884	16.325	1005.697	763.940
93.899	16.262	1005.123	763.152
94.914	16.387	1004.561	763.221
95.928	16.329	1003.466	762.061
96.943	16.259	1002.780	761.157
97.957	16.226	1001.911	760.283
98.972	16.338	1000.414	759.584
99.987	16.296	999.638	758.738
101.001	16.152	998.991	757.531
102.016	16.271	997.941	757.202
103.030	16.302	997.445	756.899
104.045	16.161	996.702	755.637
105.060	16.180	995.198	754.512
106.074	16.026	994.481	753.215
107.089	15.945	993.390	751.960
108.103	15.760	992.630	750.491
109.118	15.986	991.220	750.368
110.133	15.768	990.566	748.838
111.147	15.795	990.071	748.516
112.162	15.797	989.170	747.776
113.176	15.934	988.839	748.071
114.191	16.133	987.538	747.900
115.206	16.060	986.738	746.907
116.220	15.842	986.176	745.448
117.235	15.934	985.101	744.978
118.249	15.924	984.476	744.394
119.264	15.874	983.276	743.200
120.279	15.762	982.993	742.425
121.293	15.923	981.581	742.002
122.308	15.673	981.154	740.514
123.322	15.662	979.876	739.437
124.337	15.743	979.044	739.097
125.352	15.729	977.684	737.946
126.366	15.659	977.161	737.180
127.381	15.769	975.789	736.559
128.395	15.738	974.840	735.641
129.410	15.809	974.185	735.393
130.424	15.903	973.173	734.976
131.439	15.828	972.643	734.182
132.454	15.950	972.195	734.309
133.468	15.952	970.995	733.350
134.483	16.035	969.834	732.768
135.497	16.049	968.809	731.989
136.512	15.813	968.335	730.540
137.527	16.074	967.601	731.057
138.541	15.935	967.060	729.978
139.556	15.952	966.281	729.400
140.570	16.119	965.582	729.530
141.585	16.216	965.194	729.593
142.600	16.176	963.979	728.436
143.614	16.185	963.558	728.092
144.629	16.251	963.053	727.930
145.643	16.374	961.250	727.035
146.658	16.098	960.542	725.247
147.673	16.191	959.358	724.687
148.687	15.965	958.594	723.079
149.702	16.084	957.605	722.777
150.716	16.041	956.839	721.951
151.731	16.068	955.799	721.217
152.746	16.088	955.134	720.739
153.760	16.152	954.866	720.744
154.775	16.355	954.391	721.193
155.789	16.231	953.840	720.179
156.804	16.248	952.876	719.462
157.819	16.270	952.466	719.183
158.833	16.421	951.826	719.280
159.848	16.505	951.006	718.951
160.862	16.364	949.782	717.363
161.877	16.226	948.586	715.814
162.892	16.198	947.353	714.699
163.906	16.024	946.730	713.429
164.921	16.057	945.877	712.866
165.935	16.047	944.918	712.037
166.950	16.124	944.429	711.927
167.964	16.258	943.442	711.686
168.979	16.202	942.490	710.671
169.994	16.059	941.688	709.402
171.008	16.228	940.733	709.331
172.023	16.330	940.332	709.395
173.037	16.431	939.899	709.427
174.052	16.347	939.133	708.435
175.067	16.230	938.262	707.223
176.081	16.124	937.696	706.290
177.096	16.069	937.249	705.661
178.110	16.273	936.278	705.720
179.125	16.170	936.142	705.126
180.140	16.215	935.887	705.060
181.154	16.356	935.217	705.081
182.169	16.437	934.760	705.010
183.183	16.569	933.747	704.736
184.198	16.550	933.134	704.129
185.213	16.456	932.493	703.195
186.227	16.558	931.477	702.788
187.242	16.630	931.460	703.014
188.256	16.696	930.325	702.367
189.271	16.736	929.705	702.005
190.286	16.437	928.761	699.990
191.300	16.005	928.090	697.634
192.315	16.049	927.132	697.037
193.329	16.120	926.884	697.079
194.344	16.262	926.189	697.084
195.359	16.342	925.616	696.920
196.373	16.381	925.618	697.021
197.388	16.644	924.778	697.409
198.402	16.716	924.304	697.286
199.417	16.811	923.778	697.219
200.432	16.966	922.901	697.135
201.446	16.788	923.073	696.470
202.461	16.861	922.586	696.341
203.475	16.657	921.868	694.901
204.490	16.705	920.411	693.937
205.504	16.733	919.974	693.662
206.519	16.615	919.132	692.480
207.534	16.570	918.755	691.951
208.548	16.831	917.604	692.089
209.563	16.573	917.597	690.969
210.577	16.851	916.327	691.087
211.592	16.876	915.891	690.797
212.607	16.910	915.167	690.328
213.621	16.869	914.529	689.621
214.636	16.840	913.992	689.036
215.650	16.886	913.162	688.537
216.665	17.053	912.485	688.643
217.680	17.039	911.898	688.082
218.694	17.140	911.159	687.873
219.709	17.134	910.358	687.181
220.723	17.066	909.906	686.505
221.738	17.036	909.134	685.743
222.753	16.960	908.695	685.041
223.767	16.959	908.122	684.545
224.782	17.070	907.605	684.544
225.796	17.130	907.106	684.347
226.811	17.221	905.952	683.785
227.826	17.083	905.281	682.660
228.840	17.012	904.588	681.792
229.855	17.115	903.865	681.601
230.869	17.037	902.928	680.522
231.884	17.116	902.349	680.342
232.899	16.851	901.686	678.719
233.913	16.904	900.818	678.219
234.928	16.807	900.579	677.591
235.942	16.793	900.033	677.065
236.957	16.793	899.357	676.497
237.972	16.989	898.344	676.457
238.986	16.748	898.628	675.647
240.001	16.969	897.316	675.483
241.015	16.995	896.677	675.047
242.030	17.044	896.403	674.975
243.045	16.955	895.651	673.993
244.059	16.983	895.392	673.851
245.074	17.196	894.594	674.038
246.088	17.079	894.139	673.168
247.103	17.253	893.307	673.173
248.117	17.431	892.868	673.486
249.132	17.596	892.684	673.941
250.147	17.748	891.919	673.907
251.161	17.673	891.108	672.938
252.176	17.597	890.483	672.104
253.190	17.683	889.958	671.989
254.205	17.814	889.281	671.934
255.220	17.799	888.652	671.342
256.234	17.871	888.087	671.136
257.249	17.754	887.562	670.222
258.263	17.780	886.802	669.689
259.278	17.874	885.783	669.231
260.293	17.777	885.968	668.932
261.307	17.795	885.185	668.353
262.322	17.908	884.324	668.082
263.336	17.907	883.584	667.461
264.351	17.990	882.715	667.071
265.366	18.100	882.000	666.900
266.380	17.969	881.760	666.150
267.395	17.716	881.531	664.931
268.409	17.748	880.215	664.005
269.424	17.947	879.330	664.051
270.439	17.949	878.253	663.185
271.453	17.863	877.904	662.531
272.468	17.737	877.619	661.770
273.482	17.889	876.964	661.805
274.497	17.658	876.505	660.505
275.512	17.733	875.815	660.217
276.526	17.852	875.741	660.565
277.541	17.860	874.818	659.840
278.555	18.005	874.487	660.091
279.570	17.936	874.179	659.534
280.585	18.096	873.068	659.256
281.599	18.074	872.165	658.431
282.614	18.061	871.122	657.534
283.628	17.892	870.964	656.705
284.643	17.972	870.604	656.686
285.657	18.015	869.879	656.246
286.672	17.984	868.923	655.345
287.687	17.964	868.294	654.736
288.701	18.082	867.825	654.778
289.716	18.061	867.224	654.187
290.730	18.012	867.101	653.849
291.745	18.128	866.032	653.429
292.760	18.164	865.672	653.238
293.774	18.263	864.992	653.044
294.789	18.260	864.055	652.265
295.803	18.089	863.778	651.346
296.818	18.018	862.798	650.280
297.833	18.111	862.024	649.994
298.847	18.123	861.922	649.906
299.862	18.104	861.423	649.399
300.876	18.062	861.125	648.957
301.891	18.323	860.165	649.168
302.906	18.489	859.464	649.210
303.920	18.439	859.411	648.919
304.935	18.490	858.753	648.559
305.949	18.572	857.767	648.069
306.964	18.399	857.450	647.118
307.979	18.358	856.852	646.454
308.993	18.531	855.933	646.358
310.008	18.504	855.299	645.719
311.022	18.531	854.687	645.301
312.037	18.478	854.024	644.544
313.052	18.249	853.970	643.584
314.066	18.191	852.979	642.562
315.081	18.047	852.666	641.729
316.095	18.327	852.028	642.242
317.110	18.273	851.109	641.291
318.125	18.203	850.969	640.868
319.139	18.286	850.510	640.777
320.154	18.326	849.885	640.399
321.168	18.289	849.905	640.218
322.183	18.300	849.032	639.543
323.197	18.207	848.573	638.794
324.212	18.479	847.773	639.152
325.227	18.398	847.318	638.448
326.241	18.310	846.779	637.660
327.256	18.390	845.707	637.091
328.270	18.281	845.331	636.346
329.285	18.503	844.412	636.425
330.300	18.344	844.399	635.766
331.314	18.422	843.807	635.554
332.329	18.535	843.563	635.733
333.343	18.644	843.111	635.742
334.358	18.488	842.650	634.758
335.373	18.669	842.414	635.197
336.387	18.467	842.111	634.163
337.402	18.600	841.794	634.362
338.416	18.698	841.686	634.586
339.431	18.837	841.149	634.637
340.446	18.912	840.746	634.554
341.460	18.891	840.029	633.879
342.475	19.002	839.728	634.007
343.489	18.990	839.388	633.649
344.504	19.100	838.872	633.606
345.519	19.028	838.498	633.003
346.533	18.974	838.003	632.376
347.548	18.852	837.338	631.368
348.562	18.841	836.640	630.749
349.577	18.844	835.505	629.847
350.592	18.737	835.105	629.097
351.606	18.743	834.712	628.770
352.621	18.734	833.770	627.971
353.635	18.851	833.490	628.131
354.650	18.815	832.689	627.340
355.665	19.015	831.938	627.448
356.679	19.031	831.328	626.990
357.694	19.007	831.004	626.603
358.708	18.888	830.561	625.782
359.723	18.914	829.698	625.172
360.738	18.925	829.285	624.845
361.752	19.120	828.370	624.807
362.767	19.133	828.217	624.682
363.781	19.263	827.589	624.626
364.796	19.175	827.527	624.206
365.810	19.471	827.081	624.884
366.825	19.446	826.743	624.483
367.840	19.308	826.241	623.550
368.854	19.286	825.673	622.987
369.869	19.181	825.205	622.198
370.883	19.263	824.357	621.799
371.898	19.427	824.556	622.489
372.913	19.435	823.931	621.988
373.927	19.383	823.201	621.196
374.942	19.429	822.914	621.091
375.956	19.356	822.768	620.663
376.971	19.665	821.599	620.835
377.986	19.743	821.522	621.003
379.000	19.714	820.845	620.333
380.015	19.697	820.325	619.824
381.029	19.745	819.739	619.496
382.044	19.600	819.531	618.766
383.059	19.631	818.880	618.329
384.073	19.507	818.257	617.361
385.088	19.487	817.561	616.710
386.102	19.249	817.007	615.389
387.117	19.464	816.391	615.638
388.132	19.445	815.708	615.000
389.146	19.621	815.049	615.078
390.161	19.574	814.641	614.546
391.175	19.610	814.502	614.515
392.190	19.516	813.694	613.516
393.205	19.471	813.379	613.065
394.219	19.443	812.936	612.576
395.234	19.332	812.916	612.115
396.248	19.367	812.117	611.583
397.263	19.280	811.669	610.884
398.278	19.254	811.298	610.457
399.292	19.403	810.654	610.446
400.307	19.364	810.421	610.079
401.321	19.452	809.719	609.808
402.336	19.517	809.444	609.775
403.350	19.546	808.937	609.444
404.365	19.803	808.589	610.034
405.380	19.861	807.825	609.607
406.394	19.787	807.576	609.105
407.409	19.879	807.280	609.150
408.423	20.112	806.868	609.607
409.438	20.027	806.737	609.155
410.453	19.870	806.511	608.377
411.467	20.068	805.801	608.485
412.482	19.986	805.368	607.814
413.496	20.170	805.265	608.328
414.511	20.062	805.133	607.796
415.526	20.074	804.316	607.169
416.540	20.081	803.604	606.602
417.555	20.186	802.920	606.400
418.569	20.044	802.866	605.807
419.584	20.052	802.411	605.438
420.599	19.969	802.140	604.890
421.613	161.523	1372.530	1796.131
422.628	140.285	1455.645	1796.237
