DTS Sentinel unit serial number:	SN413079Multiplexer serial number:	ORYXHardware model number:	OX4-SRSoftware version number:	ORYX F/W v4.00 Oryx Data Collector v3.7.2.0data status	okinstallation	princeton_trtdifferential loss correction	single-endedforward channel	channel 1reverse channel	N/Adate	2019/09/15time	02:06:35forward acquisition time	60.00reverse acquisition time	0.00gamma	496.2192k internal	0.2322k external	0.2322temperature offset calibration	0.9986default loss term (dB/km)	0.3790temperature slope calibration	1.0000multiplexer offset coefficient	1.0000multiplexer slope coefficient	1.0000fibre end	0.00T internal ref (°C)	31.69T ext. ref 1 (°C)	4.55T ext. ref 2 (°C)	26.43length (m)	temperature (°C)	Stokes	anti-Stokes-747.200	60.143	0.192	0.192
-746.185	113.812	-0.143	0.175
-745.171	717.553	0.100	-0.269
-744.156	-67.690	-0.386	0.153
-743.142	127.640	0.219	0.281
-742.127	-75.425	0.194	0.070
-741.112	-200.000	-0.083	0.406
-740.098	-200.000	-0.025	0.495
-739.083	-87.577	-0.150	-0.046
-738.069	800.000	0.097	0.378
-737.054	-61.137	-0.194	-0.083
-736.039	34.314	0.137	-0.121
-735.025	800.000	-0.073	-0.243
-734.010	-78.294	-0.489	-0.169
-732.996	-67.150	-0.110	-0.044
-731.981	-20.282	-0.294	-0.183
-730.966	-27.365	-0.253	-0.148
-729.952	-83.020	-0.184	-0.060
-728.937	-104.909	-0.201	0.047
-727.923	-51.008	0.224	-0.106
-726.908	366.349	-0.020	0.041
-725.894	-200.000	0.024	0.191
-724.879	-200.000	0.077	-0.591
-723.864	209.175	0.054	0.086
-722.850	-74.864	-0.073	-0.027
-721.835	800.000	0.066	0.278
-720.821	84.241	-0.176	-0.195
-719.806	-148.818	-0.066	-0.005
-718.791	-82.346	0.152	-0.050
-717.777	258.235	0.084	0.145
-716.762	-89.014	-0.192	-0.057
-715.748	93.302	-0.090	0.102
-714.733	-82.729	0.324	-0.106
-713.718	744.127	0.071	-0.192
-712.704	-200.000	0.017	-0.199
-711.689	-106.776	-0.001	0.000
-710.675	63.726	0.205	0.208
-709.660	15.370	0.215	-0.170
-708.645	438.929	0.026	0.057
-707.631	800.000	-0.014	-0.043
-706.616	-35.139	-0.199	0.109
-705.602	260.609	-0.136	0.237
-704.587	104.478	0.149	-0.177
-703.572	107.270	0.113	-0.136
-702.558	77.493	0.306	-0.328
-701.543	-200.000	0.019	0.344
-700.529	-131.726	-0.171	0.023
-699.514	698.710	0.047	-0.126
-698.499	-200.000	0.078	-0.370
-697.485	-73.365	-0.083	-0.031
-696.470	-36.947	0.342	-0.185
-695.456	32.345	-0.212	-0.185
-694.441	-109.415	-0.259	-0.055
-693.426	-200.000	-0.024	-0.259
-692.412	368.884	0.078	-0.159
-691.397	347.106	-0.109	-0.216
-690.383	-154.668	-0.072	-0.005
-689.368	199.547	0.096	-0.149
-688.354	-127.540	-0.401	0.059
-687.339	213.613	0.153	0.244
-686.324	131.295	-0.145	-0.188
-685.310	-200.000	-0.065	-0.419
-684.295	556.813	-0.074	-0.180
-683.281	246.895	0.182	-0.309
-682.266	237.592	0.075	-0.125
-681.251	253.053	0.286	-0.491
-680.237	223.283	-0.098	-0.158
-679.222	-200.000	0.025	-0.325
-678.208	11.906	-0.120	0.093
-677.193	-54.454	-0.424	-0.194
-676.178	26.456	-0.193	-0.163
-675.164	-73.402	0.281	0.104
-674.149	-200.000	0.002	-0.144
-673.135	747.666	-0.100	-0.272
-672.120	438.889	-0.138	0.304
-671.105	800.000	0.041	0.154
-670.091	800.000	0.073	0.224
-669.076	60.219	-0.198	-0.198
-668.062	-200.000	-0.014	0.088
-667.047	-117.686	0.155	-0.028
-666.032	-44.661	0.360	-0.181
-665.018	-161.552	-0.147	-0.008
-664.003	800.000	0.056	0.212
-662.989	-160.292	0.208	-0.011
-661.974	-77.786	-0.344	0.120
-660.959	-147.373	0.491	0.042
-659.945	-200.000	-0.013	0.129
-658.930	-57.264	-0.398	0.176
-657.916	-36.170	0.200	0.109
-656.901	-200.000	-0.030	0.172
-655.886	239.616	-0.067	0.113
-654.872	-23.514	0.105	0.064
-653.857	-143.730	-0.284	-0.027
-652.843	800.000	-0.060	-0.262
-651.828	86.332	0.124	-0.138
-650.814	-200.000	-0.034	-0.183
-649.799	42.070	0.206	-0.188
-648.784	0.947	0.042	0.030
-647.770	-94.039	-0.075	0.021
-646.755	-103.112	-0.301	0.072
-645.741	800.000	-0.046	-0.140
-644.726	103.849	0.270	-0.319
-643.711	-200.000	-0.006	0.299
-642.697	48.674	0.221	-0.208
-641.682	-163.361	0.135	0.006
-640.668	-173.254	-0.216	0.007
-639.653	-200.000	0.019	-0.086
-638.638	800.000	0.084	-0.234
-637.624	154.779	-0.107	-0.148
-636.609	-171.780	0.237	0.008
-635.595	473.163	-0.076	-0.172
-634.580	-22.642	-0.037	-0.022
-633.565	-200.000	0.025	-0.193
-632.551	-85.553	0.325	0.102
-631.536	495.989	0.064	0.148
-630.522	459.344	-0.110	-0.246
-629.507	-200.000	0.076	0.358
-628.492	800.000	-0.122	-0.363
-627.478	-200.000	-0.035	-0.288
-626.463	-102.400	0.100	-0.024
-625.449	-200.000	0.055	-0.316
-624.434	339.670	0.106	-0.207
-623.419	129.273	-0.098	0.126
-622.405	-200.000	-0.008	-0.131
-621.390	-151.090	0.241	0.018
-620.376	-190.278	0.333	0.004
-619.361	147.470	0.106	0.144
-618.346	800.000	0.012	-0.034
-617.332	-5.532	0.074	-0.051
-616.317	160.748	0.160	0.225
-615.303	-133.046	-0.283	0.036
-614.288	800.000	-0.083	-0.344
-613.273	26.263	0.224	-0.188
-612.259	325.277	-0.066	-0.127
-611.244	-56.669	0.068	0.030
-610.230	-200.000	0.017	-0.109
-609.215	204.993	0.064	-0.099
-608.201	28.337	-0.144	0.122
-607.186	469.354	-0.095	0.213
-606.171	-2.413	-0.151	0.106
-605.157	-200.000	0.001	-0.247
-604.142	-48.717	-0.168	0.081
-603.128	-60.848	-0.140	0.060
-602.113	-156.440	0.204	-0.013
-601.098	30.243	-0.206	-0.176
-600.084	-85.079	-0.409	-0.129
-599.069	-200.000	0.002	-0.142
-598.055	620.851	0.154	-0.389
-597.040	800.000	-0.086	-0.271
-596.025	800.000	0.051	0.177
-595.011	74.974	-0.173	-0.184
-593.996	-39.439	-0.243	-0.128
-592.982	-155.244	0.239	-0.016
-591.967	684.752	-0.014	0.036
-590.952	270.964	-0.068	0.121
-589.938	161.509	-0.154	0.216
-588.923	358.949	0.102	-0.206
-587.909	-138.356	-0.323	-0.036
-586.894	485.731	-0.042	-0.095
-585.879	242.893	-0.116	0.196
-584.865	138.858	0.129	0.170
-583.850	-98.816	0.128	-0.033
-582.836	-39.023	0.152	-0.080
-581.821	-137.442	0.197	-0.022
-580.806	18.783	0.108	0.087
-579.792	-39.991	-0.098	-0.052
-578.777	19.239	-0.084	0.068
-577.763	-43.676	-0.154	0.078
-576.748	-96.588	0.166	0.044
-575.733	-200.000	0.003	0.184
-574.719	-200.000	0.025	-0.165
-573.704	112.801	0.196	0.238
-572.690	475.821	-0.030	-0.068
-571.675	-131.057	-0.231	0.031
-570.661	-112.101	-0.122	0.025
-569.646	113.738	0.128	0.156
-568.631	-134.327	0.318	0.039
-567.617	-122.958	-0.086	-0.014
-566.602	-26.591	0.185	0.109
-565.588	-85.512	-0.196	-0.061
-564.573	326.747	0.109	0.209
-563.558	24.411	0.243	-0.201
-562.544	491.182	-0.078	-0.180
-561.529	-96.321	-0.246	-0.065
-560.515	153.548	-0.057	-0.079
-559.500	113.779	0.066	-0.081
-558.485	15.091	0.164	0.129
-557.471	-193.238	-0.080	0.001
-556.456	-200.000	-0.053	-0.309
-555.442	-126.857	0.053	0.008
-554.427	266.270	-0.060	-0.105
-553.412	366.182	-0.108	-0.218
-552.398	-112.756	-0.198	-0.040
-551.383	-11.869	0.132	0.087
-550.369	203.813	-0.136	0.211
-549.354	-200.000	-0.054	-0.421
-548.339	174.813	-0.239	-0.347
-547.325	299.435	-0.104	-0.193
-546.310	141.000	-0.178	0.236
-545.296	800.000	0.023	-0.068
-544.281	-27.551	0.197	-0.115
-543.266	143.468	-0.072	0.096
-542.252	-95.691	-0.235	0.063
-541.237	-200.000	-0.017	-0.211
-540.223	-100.608	0.112	0.028
-539.208	800.000	-0.035	0.118
-538.193	-200.000	-0.003	0.374
-537.179	-200.000	0.011	0.228
-536.164	-138.269	0.154	-0.017
-535.150	-195.000	0.352	-0.003
-534.135	-100.204	0.150	0.037
-533.121	32.400	0.087	-0.075
-532.106	-33.791	0.051	-0.028
-531.091	-3.458	-0.147	0.103
-530.077	-142.292	0.159	-0.016
-529.062	-147.806	0.363	0.030
-528.048	654.578	-0.070	-0.179
-527.033	800.000	0.201	-0.610
-526.018	800.000	0.033	-0.111
-525.004	722.828	-0.061	-0.164
-523.989	-90.034	0.177	-0.052
-522.975	174.043	-0.155	-0.224
-521.960	-200.000	0.015	-0.125
-520.945	14.302	-0.366	0.286
-519.931	-200.000	0.006	-0.115
-518.916	-200.000	0.016	-0.314
-517.902	-105.625	0.049	0.011
-516.887	-51.532	-0.139	-0.065
-515.872	800.000	-0.112	-0.336
-514.858	-15.118	-0.194	-0.124
-513.843	-52.980	0.281	-0.130
-512.829	364.241	0.188	-0.379
-511.814	-56.068	-0.381	-0.170
-510.799	190.953	-0.166	0.249
-509.785	-18.796	-0.245	-0.153
-508.770	800.000	0.071	0.227
-507.756	216.468	0.193	0.307
-506.741	-6.509	0.374	0.255
-505.726	-36.621	0.225	-0.121
-504.712	107.211	0.268	-0.319
-503.697	-162.237	0.171	0.009
-502.683	14.836	0.051	0.040
-501.668	182.091	-0.127	0.188
-500.653	383.655	-0.111	-0.230
-499.639	-127.921	0.170	0.024
-498.624	-54.416	-0.182	-0.083
-497.610	-200.000	0.032	-0.282
-496.595	-54.444	0.124	0.056
-495.581	107.177	-0.119	-0.142
-494.566	80.183	0.256	0.275
-493.551	-39.592	-0.045	-0.024
-492.537	-200.000	0.019	-0.299
-491.522	-164.874	-0.177	-0.008
-490.508	217.657	-0.072	0.114
-489.493	-79.224	-0.104	0.035
-488.478	800.000	0.080	-0.329
-487.464	-200.000	-0.101	-0.582
-486.449	-200.000	-0.039	-0.183
-485.435	-125.818	0.100	0.015
-484.420	800.000	0.074	0.263
-483.405	-11.353	0.183	-0.121
-482.391	409.933	-0.091	-0.193
-481.376	-61.714	0.027	0.011
-480.362	-65.575	0.272	-0.109
-479.347	34.220	-0.109	0.095
-478.332	339.458	0.068	0.132
-477.318	-104.791	-0.227	-0.052
-476.303	-41.024	0.055	-0.029
-475.289	79.071	0.291	0.311
-474.274	27.360	-0.082	-0.069
-473.259	94.625	-0.217	-0.247
-472.245	-94.347	0.167	-0.046
-471.230	-200.000	0.007	-0.333
-470.216	-102.504	-0.325	-0.078
-469.201	-56.792	0.266	-0.118
-468.186	-130.145	0.044	-0.006
-467.172	-200.000	-0.060	-0.282
-466.157	-200.000	0.031	-0.152
-465.143	110.135	0.219	0.263
-464.128	37.694	0.113	-0.100
-463.113	800.000	0.065	-0.221
-462.099	800.000	0.024	-0.090
-461.084	-200.000	0.033	0.375
-460.070	-25.581	-0.083	-0.049
-459.055	-2.422	0.363	-0.254
-458.040	-109.340	-0.020	-0.004
-457.026	105.350	-0.050	-0.059
-456.011	-153.876	0.224	-0.015
-454.997	158.018	-0.116	0.161
-453.982	530.958	0.112	0.264
-452.968	-174.990	-0.130	-0.004
-451.953	-4.982	-0.294	-0.202
-450.938	165.164	0.144	-0.203
-449.924	-136.645	-0.118	0.014
-448.909	-200.000	0.038	-0.179
-447.895	252.524	0.083	-0.141
-446.880	-192.806	0.153	-0.001
-445.865	3.208	-0.051	-0.037
-444.851	-200.000	-0.022	-0.180
-443.836	-175.048	-0.356	0.010
-442.822	67.995	-0.098	0.100
-441.807	-78.213	0.283	0.097
-440.792	800.000	0.174	0.610
-439.778	-134.052	0.356	0.044
-438.763	26.490	-0.163	-0.136
-437.749	-135.023	-0.261	-0.031
-436.734	800.000	-0.020	0.066
-435.719	-131.883	0.171	0.022
-434.705	-134.493	0.131	-0.016
-433.690	-200.000	-0.022	-0.274
-432.676	-200.000	0.017	-0.272
-431.661	-200.000	0.029	-0.184
-430.646	-46.441	-0.232	0.114
-429.632	-46.810	-0.029	-0.014
-428.617	-130.397	0.240	-0.032
-427.603	-115.129	0.140	-0.027
-426.588	-104.471	-0.237	0.055
-425.573	33.359	-0.117	-0.102
-424.559	-200.000	0.045	-0.316
-423.544	-141.798	-0.152	-0.015
-422.530	65.744	0.105	0.107
-421.515	-20.629	0.186	-0.114
-420.500	-21.121	0.088	0.054
-419.486	-37.225	-0.209	-0.111
-418.471	-12.524	-0.136	-0.089
-417.457	93.635	0.103	-0.116
-416.442	19.010	-0.025	0.020
-415.428	-156.583	-0.089	-0.006
-414.413	-70.803	-0.098	0.037
-413.398	257.627	0.064	-0.109
-412.384	10.896	0.161	0.123
-411.369	123.150	-0.140	-0.176
-410.355	-200.000	-0.031	0.232
-409.340	90.024	0.300	0.335
-408.325	800.000	0.082	-0.304
-407.311	800.000	-0.034	-0.100
-406.296	332.490	-0.088	0.169
-405.282	407.027	0.178	0.375
-404.267	46.131	0.138	-0.128
-403.252	159.639	0.110	0.153
-402.238	350.065	-0.026	-0.051
-401.223	23.751	-0.160	0.132
-400.209	-200.000	0.038	0.328
-399.194	800.000	0.032	-0.108
-398.179	25.964	0.014	-0.012
-397.165	-129.033	0.082	0.011
-396.150	-86.969	-0.258	0.078
-395.136	-200.000	0.021	-0.118
-394.121	-45.482	-0.188	-0.093
-393.106	188.800	-0.220	-0.328
-392.092	800.000	0.017	-0.075
-391.077	-153.196	-0.330	-0.023
-390.063	175.952	-0.038	0.055
-389.048	-34.274	-0.208	-0.114
-388.033	268.550	-0.069	0.121
-387.019	165.588	-0.113	-0.159
-386.004	-39.417	0.203	0.106
-384.990	-76.449	-0.217	-0.076
-383.975	140.350	0.110	0.144
-382.960	34.627	-0.113	0.098
-381.946	43.594	0.166	0.151
-380.931	163.918	0.103	-0.145
-379.917	-2.149	-0.244	-0.171
-378.902	40.421	0.014	-0.013
-377.888	47.030	0.057	0.053
-376.873	7.900	0.111	0.083
-375.858	-69.713	0.234	-0.089
-374.844	495.516	-0.077	-0.177
-373.829	-140.709	0.302	-0.031
-372.815	-161.936	-0.365	0.018
-371.800	-66.519	-0.248	-0.098
-370.785	-200.000	0.030	-0.278
-369.771	169.071	0.088	0.125
-368.756	138.646	-0.077	-0.101
-367.742	-135.350	0.118	-0.014
-366.727	-85.814	-0.125	-0.038
-365.712	-81.833	0.187	-0.061
-364.698	-200.000	-0.018	-0.083
-363.683	-133.577	-0.339	0.042
-362.669	307.217	-0.125	0.232
-361.654	-122.150	0.439	0.072
-360.639	562.864	0.048	-0.115
-359.625	500.059	-0.010	0.022
-358.610	72.430	0.189	0.196
-357.596	-100.057	-0.094	0.023
-356.581	-129.164	-0.106	-0.015
-355.566	800.000	-0.049	0.135
-354.552	138.719	-0.203	0.265
-353.537	198.040	-0.158	-0.240
-352.523	48.303	-0.289	-0.269
-351.508	-94.789	0.243	0.066
-350.493	800.000	-0.046	0.190
-349.479	-200.000	0.008	0.257
-348.464	383.246	-0.144	0.296
-347.450	-110.451	-0.182	-0.038
-346.435	800.000	0.075	0.274
-345.420	-200.000	0.011	-0.134
-344.406	-69.303	-0.028	-0.011
-343.391	433.397	0.102	0.219
-342.377	-132.197	0.149	-0.019
-341.362	-54.263	-0.291	-0.131
-340.348	-27.591	-0.185	0.107
-339.333	-200.000	-0.002	0.086
-338.318	-59.559	-0.143	0.061
-337.304	-200.000	0.056	0.311
-336.289	-41.656	-0.133	-0.068
-335.275	800.000	-0.085	0.325
-334.260	-181.648	0.461	0.009
-333.245	-46.368	-0.236	-0.115
-332.231	-136.134	0.110	-0.013
-331.216	8.809	0.049	-0.037
-330.202	271.745	-0.112	0.197
-329.187	-200.000	0.039	-0.450
-328.172	28.911	0.210	-0.177
-327.158	-200.000	0.013	0.165
-326.143	176.212	0.098	-0.142
-325.129	-116.467	-0.392	-0.072
-324.114	309.746	0.077	0.143
-323.099	-91.370	-0.111	0.032
-322.085	-200.000	0.024	0.252
-321.070	-160.885	-0.400	-0.021
-320.056	-3.654	0.254	-0.176
-319.041	-69.618	0.097	0.037
-318.026	138.698	-0.205	0.267
-317.012	-200.000	0.012	0.451
-315.997	162.000	-0.059	0.083
-314.983	-200.000	0.013	-0.178
-313.968	311.691	-0.048	-0.089
-312.953	800.000	0.018	0.073
-311.939	-91.480	-0.158	0.045
-310.924	168.039	-0.163	0.230
-309.910	10.215	0.101	0.076
-308.895	44.675	0.155	0.141
-307.880	446.925	-0.050	0.108
-306.866	-81.028	0.210	0.069
-305.851	-83.466	-0.171	0.054
-304.837	62.697	-0.080	0.080
-303.822	-117.242	0.188	-0.034
-302.807	763.819	-0.124	0.334
-301.793	417.840	0.152	-0.323
-300.778	131.873	-0.132	-0.169
-299.764	-95.391	-0.315	0.084
-298.749	-158.624	-0.219	-0.013
-297.735	95.282	-0.172	0.195
-296.720	-60.496	-0.286	0.121
-295.705	-200.000	-0.111	0.507
-294.691	104.504	-0.072	-0.084
-293.676	274.588	0.044	-0.077
-292.662	338.724	-0.067	0.129
-291.647	-50.266	0.295	0.138
-290.632	346.269	-0.044	-0.086
-289.618	-143.993	0.148	-0.014
-288.603	-61.309	-0.090	-0.038
-287.589	265.095	0.181	0.313
-286.574	158.798	-0.177	0.244
-285.559	800.000	-0.028	0.117
-284.545	-172.572	-0.216	0.007
-283.530	144.474	0.083	-0.110
-282.516	-28.704	0.108	0.062
-281.501	38.727	0.137	0.121
-280.486	-200.000	0.025	-0.227
-279.472	-108.476	0.277	0.059
-278.457	9.423	-0.109	-0.082
-277.443	223.079	0.103	0.165
-276.428	-41.475	0.135	-0.069
-275.413	800.000	-0.053	0.155
-274.399	11.609	0.163	-0.124
-273.384	397.384	0.082	0.170
-272.370	20.273	0.084	0.067
-271.355	-200.000	-0.005	0.465
-270.340	112.316	0.093	-0.111
-269.326	82.458	0.064	-0.069
-268.311	161.846	0.181	-0.252
-267.297	112.069	-0.252	0.302
-266.282	128.375	0.139	0.175
-265.267	-200.000	0.037	-0.168
-264.253	46.508	0.206	0.190
-263.238	52.516	0.059	0.056
-262.224	-200.000	0.010	-0.080
-261.209	800.000	-0.078	0.311
-260.195	472.561	0.113	0.253
-259.180	800.000	0.127	0.395
-258.165	-55.958	-0.360	0.159
-257.151	-79.675	0.259	-0.087
-256.136	-0.208	0.072	-0.050
-255.122	800.000	-0.073	0.238
-254.107	228.787	0.090	-0.146
-253.092	335.861	-0.097	0.186
-252.078	-88.661	0.129	0.038
-251.063	96.230	-0.083	0.094
-250.049	458.772	-0.044	0.096
-249.034	800.000	-0.020	-0.064
-248.019	130.773	-0.135	0.171
-247.005	-71.417	-0.257	0.096
-245.990	800.000	-0.015	-0.054
-244.976	-11.348	-0.084	-0.055
-243.961	-200.000	-0.013	-0.151
-242.946	800.000	0.048	0.166
-241.932	-200.000	0.016	-0.200
-240.917	94.839	-0.196	-0.221
-239.903	292.249	0.114	-0.206
-238.888	-42.105	0.441	-0.223
-237.873	-156.543	-0.038	0.002
-236.859	-36.059	0.216	0.115
-235.844	28.217	0.080	0.067
-234.830	95.769	0.186	-0.211
-233.815	418.024	0.180	-0.381
-232.800	-82.138	0.056	0.018
-231.786	81.413	-0.122	-0.131
-230.771	-200.000	-0.091	-0.485
-229.757	161.149	0.151	0.208
-228.742	800.000	0.057	0.159
-227.727	49.681	0.257	-0.240
-226.713	-38.131	-0.213	0.112
-225.698	800.000	-0.061	0.205
-224.684	-29.374	-0.214	0.121
-223.669	800.000	-0.106	0.330
-222.655	-46.435	-0.222	-0.108
-221.640	-78.982	-0.291	0.098
-220.625	67.042	0.250	0.252
-219.611	-153.947	-0.395	0.027
-218.596	-111.008	-0.261	0.053
-217.582	-200.000	0.015	0.099
-216.567	69.044	0.131	-0.133
-215.552	800.000	0.055	-0.161
-214.538	800.000	0.077	-0.234
-213.523	800.000	0.091	0.265
-212.509	39.763	-0.110	0.098
-211.494	-71.623	-0.217	0.080
-210.479	-57.941	-0.182	-0.079
-209.465	-160.782	-0.157	0.008
-208.450	-150.862	-0.117	-0.009
-207.436	47.662	0.209	0.193
-206.421	-200.000	0.036	0.208
-205.406	-200.000	0.035	0.300
-204.392	-76.408	-0.344	0.120
-203.377	53.422	0.165	0.156
-202.363	154.641	0.348	0.473
-201.348	297.956	0.120	0.218
-200.333	-108.552	0.207	-0.044
-199.319	-200.000	-0.036	0.158
-198.304	3.935	0.118	0.085
-197.290	13.717	0.173	0.133
-196.275	-88.880	0.127	-0.037
-195.260	-184.003	-0.030	-0.001
-194.246	800.000	-0.027	-0.107
-193.231	255.083	-0.098	-0.167
-192.217	16.103	-0.260	0.203
-191.202	800.000	0.086	0.281
-190.187	638.704	0.226	0.568
-189.173	-75.457	-0.218	0.077
-188.158	-200.000	0.031	0.331
-187.144	-23.443	0.299	0.178
-186.129	-200.000	-0.006	-0.226
-185.114	-200.000	0.020	-0.210
-184.100	-47.849	-0.131	0.063
-183.085	-92.222	-0.108	0.030
-182.071	800.000	-0.065	-0.232
-181.056	-200.000	0.045	-0.195
-180.042	11.797	0.258	0.196
-179.027	-4.187	-0.215	0.147
-178.012	33.922	-0.169	0.146
-176.998	-110.659	-0.095	-0.019
-175.983	-23.518	-0.101	0.060
-174.969	-105.240	0.164	0.037
-173.954	145.384	-0.180	0.239
-172.939	-90.608	-0.254	0.072
-171.925	-11.201	-0.149	0.097
-170.910	-200.000	-0.008	0.211
-169.896	13.609	-0.067	-0.051
-168.881	22.431	0.149	0.120
-167.866	-200.000	0.032	-0.166
-166.852	661.134	0.070	0.179
-165.837	-54.736	0.114	0.051
-164.823	39.516	-0.121	-0.107
-163.808	-200.000	0.017	-0.136
-162.793	23.328	-0.263	-0.214
-161.779	12.872	0.318	-0.243
-160.764	-88.615	-0.174	0.051
-159.750	130.092	0.222	-0.281
-158.735	-130.818	0.222	-0.029
-157.720	76.321	0.131	0.137
-156.706	-200.000	-0.009	0.091
-155.691	-76.038	-0.244	0.085
-154.677	474.462	0.050	0.112
-153.662	-26.148	-0.181	0.105
-152.647	-42.652	-0.279	-0.140
-151.633	0.470	0.437	0.309
-150.618	-200.000	-0.054	-0.377
-149.604	-76.063	0.142	0.049
-148.589	-16.669	-0.293	0.183
-147.574	324.803	0.015	-0.029
-146.560	-200.000	0.120	-0.540
-145.545	409.638	0.080	-0.168
-144.531	302.696	0.033	-0.060
-143.516	-15.432	0.121	-0.076
-142.502	19.268	0.176	0.139
-141.487	595.817	-0.054	-0.132
-140.472	-110.390	0.319	0.066
-139.458	-25.227	0.256	0.149
-138.443	-166.481	0.128	0.005
-137.429	800.000	0.053	-0.204
-136.414	-200.000	0.006	-0.056
-135.399	-200.000	0.012	-0.278
-134.385	2.927	0.170	0.122
-133.370	-16.021	0.293	-0.184
-132.356	152.439	-0.074	0.100
-131.341	-139.047	0.302	-0.032
-130.326	-162.050	0.210	-0.010
-129.312	-99.851	0.272	-0.067
-128.297	-200.000	0.041	0.361
-127.283	102.458	0.139	0.160
-126.268	-119.516	0.124	-0.021
-125.253	-129.249	0.310	-0.043
-124.239	-88.009	0.201	0.060
-123.224	-16.065	0.189	-0.119
-122.210	67.327	0.163	-0.164
-121.195	-59.037	0.260	0.111
-120.180	-90.457	-0.312	-0.089
-119.166	-200.000	0.013	0.224
-118.151	-24.239	-0.067	-0.039
-117.137	-162.873	0.282	-0.014
-116.122	-154.636	-0.184	0.012
-115.107	254.551	0.126	-0.212
-114.093	572.194	0.077	0.184
-113.078	-98.880	-0.355	-0.089
-112.064	-64.809	-0.050	-0.020
-111.049	361.091	0.149	-0.294
-110.034	64.979	0.433	0.431
-109.020	50.412	-0.262	0.244
-108.005	-32.913	-0.346	0.189
-106.991	-77.316	0.351	0.120
-105.976	-152.544	0.360	-0.025
-104.962	458.411	-0.047	-0.104
-103.947	-200.000	-0.026	0.381
-102.932	8.996	-0.132	-0.099
-101.918	39.035	0.143	0.126
-100.903	-30.102	0.251	-0.141
-99.889	-114.997	0.336	0.063
-98.874	-36.940	-0.065	0.034
-97.859	-182.424	0.142	-0.003
-96.845	18.768	-0.050	-0.039
-95.830	-29.086	-0.241	-0.136
-94.816	-101.401	0.186	0.045
-93.801	-200.000	0.023	-0.371
-92.786	-72.591	-0.106	-0.038
-91.772	172.955	0.136	0.192
-90.757	-200.000	0.055	0.310
-89.743	163.623	0.051	-0.071
-88.728	-145.549	-0.305	0.027
-87.713	-200.000	-0.023	0.214
-86.699	-69.141	0.270	0.102
-85.684	26.490	-0.315	-0.260
-84.670	-200.000	-0.019	-0.228
-83.655	4.486	0.136	0.098
-82.640	-121.862	-0.385	0.063
-81.626	80.373	0.256	-0.272
-80.611	127.423	0.246	-0.307
-79.597	-200.000	-0.036	-0.196
-78.582	-70.179	0.286	-0.107
-77.567	-142.803	-0.379	0.036
-76.553	427.641	0.066	0.141
-75.538	-30.425	0.111	-0.062
-74.524	-109.118	-0.174	-0.036
-73.509	5.258	0.237	0.172
-72.494	-189.009	0.241	-0.003
-71.480	800.000	-0.082	-0.245
-70.465	112.285	-0.123	0.147
-69.451	-33.502	0.227	-0.123
-68.436	-37.837	0.182	-0.095
-67.422	-116.305	-0.308	-0.056
-66.407	58.425	0.275	0.266
-65.392	-17.005	-0.378	0.235
-64.378	53.840	-0.081	-0.076
-63.363	-95.720	-0.291	-0.077
-62.349	-65.285	0.222	0.088
-61.334	12.904	-1.214	-0.923
-60.319	-0.438	0.614	0.429
-59.305	800.000	-0.286	-0.947
-58.290	171.604	0.717	1.012
-57.276	800.000	0.410	1.500
-56.261	-200.000	96.759	603.613
-55.246	641.216	1379.475	3455.288
-54.232	197.599	2557.972	3841.893
-53.217	120.800	2139.451	2616.312
-52.203	44.013	1599.105	1441.470
-51.188	35.230	1336.650	1152.332
-50.173	32.127	1294.305	1097.677
-49.159	54.809	1342.602	1274.064
-48.144	57.126	1358.588	1302.944
-47.130	35.453	1317.577	1137.026
-46.115	31.899	1300.042	1101.032
-45.100	31.679	1294.947	1095.386
-44.086	31.555	1292.916	1092.898
-43.071	31.529	1290.580	1090.728
-42.057	31.505	1288.291	1088.611
-41.042	31.542	1286.717	1087.455
-40.027	31.455	1285.454	1085.836
-39.013	31.556	1283.108	1084.398
-37.998	31.726	1281.383	1083.883
-36.984	31.716	1279.690	1082.351
-35.969	31.623	1277.828	1080.193
-34.954	31.739	1276.222	1079.461
-33.940	31.730	1275.003	1078.337
-32.925	31.697	1273.384	1076.733
-31.911	31.736	1272.112	1075.839
-30.896	31.858	1270.440	1075.084
-29.881	31.839	1269.451	1074.097
-28.867	31.780	1268.287	1072.730
-27.852	31.818	1266.321	1071.245
-26.838	31.754	1265.053	1069.765
-25.823	31.841	1263.421	1068.837
-24.809	31.798	1262.868	1068.082
-23.794	31.750	1261.346	1066.478
-22.779	31.690	1260.026	1064.978
-21.765	31.779	1258.720	1064.339
-20.750	31.811	1257.277	1063.256
-19.736	31.648	1256.210	1061.387
-18.721	31.778	1254.617	1060.738
-17.706	31.589	1254.061	1059.152
-16.692	31.697	1252.784	1058.642
-15.677	31.639	1251.602	1057.277
-14.663	31.695	1249.960	1056.161
-13.648	31.638	1249.397	1055.325
-12.633	31.577	1248.440	1054.132
-11.619	31.545	1247.776	1053.347
-10.604	31.595	1247.175	1053.082
-9.590	31.575	1245.475	1051.487
-8.575	31.531	1244.871	1050.691
-7.560	31.657	1244.139	1050.736
-6.546	31.617	1242.955	1049.475
-5.531	31.573	1242.691	1048.963
-4.517	31.550	1241.515	1047.799
-3.502	31.646	1240.601	1047.520
-2.487	31.654	1239.410	1046.518
-1.473	31.646	1235.315	1042.978
-0.458	30.272	1220.303	1022.695
0.556	25.482	1202.350	984.382
1.571	21.702	1208.088	968.145
2.586	20.768	1222.755	974.589
3.600	20.338	1211.592	963.218
4.615	15.470	1141.714	882.067
5.629	7.876	1069.012	788.336
6.644	4.786	1049.715	758.991
7.659	4.501	1047.255	755.762
8.673	4.461	1046.310	754.814
9.688	4.433	1045.674	754.152
10.702	4.626	1043.020	753.107
11.717	8.878	1049.279	778.241
12.731	15.818	1058.163	818.631
13.746	18.419	1061.928	834.154
14.761	18.004	1060.393	830.858
15.775	16.974	1057.261	823.333
16.790	16.022	1055.781	817.490
17.804	15.185	1054.052	812.025
18.819	14.808	1053.128	809.414
19.834	14.622	1052.360	807.854
20.848	14.365	1051.364	805.775
21.863	14.116	1050.417	803.772
22.877	14.092	1050.035	803.294
23.892	13.985	1049.379	802.202
24.907	13.959	1048.802	801.568
25.921	13.975	1047.612	800.666
26.936	13.943	1046.667	799.719
27.950	14.069	1045.503	799.363
28.965	14.101	1043.531	797.939
29.980	14.340	1041.828	797.711
30.994	14.299	1040.891	796.726
32.009	14.294	1039.886	795.864
33.023	14.287	1038.845	794.959
34.038	14.163	1037.756	793.464
35.053	14.165	1037.013	792.836
36.067	14.055	1036.154	791.587
37.082	14.200	1035.222	791.493
38.096	14.219	1034.655	791.081
39.111	14.293	1033.752	790.670
40.126	14.073	1032.574	788.657
41.140	13.916	1031.550	787.062
42.155	14.026	1030.174	786.463
43.169	13.826	1029.122	784.646
44.184	13.903	1027.631	783.801
45.199	13.868	1026.956	783.055
46.213	13.964	1025.686	782.469
47.228	14.076	1024.719	782.186
48.242	14.155	1023.786	781.778
49.257	13.970	1023.118	780.329
50.271	14.138	1022.033	780.221
51.286	14.140	1021.168	779.502
52.301	14.083	1020.252	778.464
53.315	13.991	1019.228	777.187
54.330	13.930	1018.352	776.165
55.344	13.904	1018.033	775.728
56.359	14.014	1016.826	775.257
57.374	13.959	1015.711	774.082
58.388	13.931	1015.125	773.436
59.403	13.889	1014.076	772.374
60.417	13.972	1013.468	772.227
61.432	13.900	1012.594	771.158
62.447	13.820	1011.896	770.185
63.461	13.760	1011.032	769.184
64.476	13.779	1009.673	768.167
65.490	13.797	1009.370	767.952
66.505	13.816	1008.216	767.093
67.520	13.853	1007.734	766.829
68.534	13.881	1007.038	766.363
69.549	13.767	1006.350	765.247
70.563	13.690	1005.721	764.345
71.578	13.738	1004.751	763.762
72.593	13.636	1003.892	762.573
73.607	13.612	1003.313	761.954
74.622	13.705	1002.793	761.918
75.636	13.655	1001.868	760.918
76.651	13.616	1001.468	760.369
77.666	13.756	1000.711	760.367
78.680	13.755	1000.135	759.861
79.695	13.715	999.446	759.085
80.709	13.882	998.544	759.096
81.724	13.851	998.116	758.562
82.739	13.909	997.475	758.274
83.753	14.117	996.596	758.487
84.768	14.296	995.644	758.510
85.782	14.308	995.190	758.153
86.797	14.156	994.060	756.534
87.812	14.170	992.889	755.640
88.826	14.143	991.970	754.751
89.841	14.164	991.631	754.520
90.855	14.122	990.607	753.483
91.870	14.247	989.803	753.370
92.884	14.267	988.897	752.707
93.899	14.208	987.871	751.593
94.914	14.355	987.086	751.591
95.928	14.235	986.827	750.787
96.943	14.318	985.524	750.104
97.957	14.237	984.904	749.199
98.972	14.211	984.143	748.436
99.987	14.291	983.046	747.897
101.001	14.236	981.553	746.448
102.016	14.214	981.047	745.900
103.030	14.313	980.502	745.860
104.045	14.279	979.961	745.233
105.060	14.123	978.718	743.521
106.074	14.124	977.761	742.735
107.089	13.917	977.419	741.487
108.103	14.008	976.110	740.834
109.118	13.969	974.827	739.620
110.133	13.947	974.244	739.014
111.147	13.873	973.215	737.840
112.162	13.997	972.727	737.953
113.176	14.003	972.297	737.592
114.191	14.044	971.312	736.960
115.206	13.918	970.634	735.820
116.220	14.050	969.461	735.449
117.235	13.928	969.042	734.526
118.249	14.030	968.054	734.167
119.264	13.972	967.358	733.318
120.279	14.007	966.355	732.647
121.293	13.800	965.990	731.393
122.308	13.894	964.388	730.529
123.322	13.838	964.175	730.054
124.337	13.881	962.867	729.190
125.352	13.893	961.982	728.507
126.366	13.825	961.130	727.498
127.381	13.941	959.538	726.736
128.395	13.954	958.786	726.160
129.410	13.959	958.281	725.736
130.424	13.977	957.329	725.029
131.439	14.167	956.481	725.152
132.454	14.058	956.166	724.371
133.468	14.112	955.175	723.791
134.483	14.088	954.578	723.171
135.497	14.234	953.626	723.021
136.512	13.967	953.278	721.533
137.527	14.119	951.415	720.718
138.541	14.073	951.184	720.279
139.556	14.270	950.138	720.277
140.570	14.248	950.164	720.139
141.585	14.272	949.340	719.553
142.600	14.208	948.566	718.627
143.614	14.304	947.087	717.858
144.629	14.315	946.432	717.346
145.643	14.385	945.409	716.808
146.658	14.129	944.924	715.276
147.673	14.287	943.562	714.861
148.687	14.117	942.837	713.516
149.702	14.098	942.176	712.874
150.716	14.133	941.349	712.333
151.731	14.134	940.794	711.854
152.746	14.109	940.199	711.235
153.760	14.190	939.330	710.860
154.775	14.288	938.663	710.710
155.789	14.258	938.228	710.189
156.804	14.419	937.450	710.226
157.819	14.396	936.682	709.482
158.833	14.368	936.331	709.033
159.848	14.490	935.155	708.601
160.862	14.380	934.256	707.390
161.877	14.197	933.694	706.126
162.892	14.156	932.535	705.013
163.906	14.192	931.518	704.332
164.921	14.226	930.660	703.766
165.935	14.269	929.840	703.267
166.950	14.169	929.160	702.266
167.964	14.373	928.355	702.457
168.979	14.263	927.462	701.256
169.994	14.275	926.463	700.489
171.008	14.316	925.843	700.129
172.023	14.430	924.689	699.674
173.037	14.416	924.488	699.402
174.052	14.483	923.640	698.980
175.067	14.375	923.228	698.151
176.081	14.114	922.650	696.561
177.096	14.151	922.476	696.521
178.110	14.283	921.562	696.321
179.125	14.429	920.864	696.342
180.140	14.405	920.113	695.616
181.154	14.434	920.136	695.689
182.169	14.557	919.334	695.536
183.183	14.554	918.836	695.084
184.198	14.706	917.728	694.818
185.213	14.662	917.066	694.072
186.227	14.630	916.840	693.706
187.242	14.652	916.077	693.158
188.256	14.677	915.448	692.725
189.271	14.651	914.793	692.061
190.286	14.526	913.563	690.553
191.300	14.368	913.185	689.550
192.315	14.296	912.216	688.461
193.329	14.406	911.881	688.600
194.344	14.454	910.992	688.067
195.359	14.479	910.558	687.781
196.373	14.636	910.155	688.064
197.388	14.748	910.019	688.363
198.402	14.726	909.369	687.717
199.417	14.781	908.668	687.355
200.432	15.039	907.980	687.835
201.446	14.949	907.865	687.315
202.461	15.035	907.025	686.970
203.475	14.949	906.755	686.355
204.490	14.845	905.718	685.081
205.504	14.826	905.268	684.604
206.519	14.770	904.191	683.497
207.534	14.824	903.529	683.158
208.548	14.832	903.084	682.795
209.563	14.831	902.428	682.235
210.577	14.737	901.838	681.346
211.592	14.938	901.590	681.917
212.607	14.875	900.520	680.788
213.621	15.142	899.596	681.117
214.636	15.006	899.178	680.186
215.650	15.072	898.184	679.643
216.665	14.955	897.663	678.716
217.680	15.185	896.932	679.034
218.694	15.324	895.963	678.804
219.709	14.967	895.986	677.316
220.723	15.025	895.173	676.874
221.738	15.171	894.086	676.582
222.753	15.100	893.948	676.130
223.767	15.068	893.233	675.400
224.782	15.127	892.676	675.158
225.796	15.236	891.956	674.992
226.811	15.315	891.924	675.227
227.826	15.152	890.753	673.626
228.840	15.201	889.675	672.946
229.855	15.171	889.028	672.278
230.869	15.202	888.665	672.070
231.884	15.073	887.898	670.912
232.899	15.166	886.728	670.343
233.913	15.038	886.453	669.561
234.928	15.088	885.428	668.930
235.942	15.012	885.622	668.710
236.957	15.087	884.800	668.332
237.972	15.138	883.832	667.744
238.986	15.138	883.316	667.294
240.001	15.134	882.546	666.639
241.015	15.270	882.034	666.733
242.030	15.129	881.611	665.793
243.045	15.321	881.004	666.042
244.059	15.278	880.492	665.424
245.074	15.233	879.719	664.602
246.088	15.367	879.020	664.545
247.103	15.393	878.843	664.456
248.117	15.363	878.384	663.930
249.132	15.454	878.109	664.024
250.147	15.514	877.365	663.642
251.161	15.601	876.077	662.950
252.176	15.722	875.790	663.154
253.190	15.711	875.473	662.810
254.205	15.869	874.266	662.461
255.220	15.743	873.994	661.699
256.234	15.752	873.213	661.084
257.249	15.842	872.325	660.708
258.263	15.651	872.057	659.696
259.278	15.745	871.100	659.284
260.293	15.811	870.531	659.055
261.307	15.889	869.776	658.728
262.322	15.820	869.483	658.177
263.336	15.960	868.703	658.078
264.351	15.885	868.078	657.250
265.366	15.862	867.494	656.662
266.380	16.037	866.876	656.819
267.395	15.970	866.136	655.937
268.409	15.808	865.686	654.908
269.424	15.973	864.497	654.594
270.439	15.998	863.895	654.176
271.453	15.832	863.354	653.065
272.468	15.890	862.980	652.949
273.482	15.835	862.432	652.262
274.497	15.883	861.779	651.897
275.512	15.877	860.923	651.170
276.526	15.952	860.460	651.050
277.541	15.910	860.269	650.689
278.555	15.991	859.695	650.506
279.570	16.202	858.847	650.623
280.585	16.222	858.147	650.110
281.599	16.007	857.092	648.427
282.614	15.992	856.580	647.927
283.628	15.937	856.152	647.332
284.643	15.976	855.280	646.767
285.657	16.036	854.729	646.523
286.672	16.078	854.155	646.192
287.687	16.116	853.557	645.828
288.701	16.172	853.163	645.686
289.716	16.082	852.785	645.000
290.730	16.255	851.905	644.937
291.745	16.213	851.247	644.221
292.760	16.203	850.352	643.449
293.774	16.309	850.212	643.689
294.789	16.154	849.719	642.668
295.803	16.197	848.719	642.019
296.818	16.226	848.135	641.633
297.833	16.151	847.651	640.924
298.847	16.050	846.993	639.988
299.862	16.233	846.488	640.243
300.876	16.444	845.913	640.550
301.891	16.431	845.169	639.882
302.906	16.574	844.797	640.086
303.920	16.506	844.002	639.167
304.935	16.513	843.549	638.793
305.949	16.452	843.082	638.156
306.964	16.526	842.182	637.695
307.979	16.440	841.884	637.091
308.993	16.505	841.631	637.086
310.008	16.614	840.821	636.827
311.022	16.482	840.431	635.981
312.037	16.521	839.740	635.547
313.052	16.459	838.904	634.626
314.066	16.308	838.722	633.865
315.081	16.436	838.156	633.860
316.095	16.495	837.262	633.349
317.110	16.238	837.102	632.210
318.125	16.429	836.531	632.437
319.139	16.511	835.915	632.223
320.154	16.496	835.384	631.710
321.168	16.468	834.514	630.891
322.183	16.571	834.455	631.174
323.197	16.500	834.040	630.541
324.212	16.507	833.376	630.009
325.227	16.532	832.754	629.574
326.241	16.530	831.859	628.836
327.256	16.476	831.513	628.318
328.270	16.497	831.020	627.969
329.285	16.513	830.688	627.720
330.300	16.507	830.094	627.193
331.314	16.638	829.381	627.084
332.329	16.652	829.255	626.986
333.343	16.654	828.647	626.480
334.358	16.733	827.941	626.180
335.373	16.651	827.768	625.693
336.387	16.748	827.321	625.659
337.402	16.714	827.598	625.685
338.416	16.907	826.975	625.872
339.431	16.909	826.621	625.558
340.446	16.897	826.391	625.281
341.460	16.976	825.882	625.133
342.475	17.089	825.351	625.091
343.489	17.022	824.722	624.312
344.504	16.988	824.301	623.817
345.519	17.242	823.447	624.048
346.533	17.224	823.174	623.719
347.548	16.920	822.856	622.305
348.562	16.885	821.973	621.454
349.577	16.928	821.621	621.292
350.592	16.829	820.854	620.294
351.606	16.857	820.312	619.932
352.621	16.906	819.842	619.700
353.635	17.127	818.779	619.651
354.650	17.013	818.578	619.028
355.665	16.964	818.033	618.382
356.679	17.140	817.422	618.504
357.694	17.033	816.739	617.543
358.708	16.996	815.697	616.566
359.723	17.264	815.370	617.238
360.738	17.132	814.895	616.345
361.752	17.207	814.218	616.053
362.767	17.289	813.734	615.928
363.781	17.256	813.166	615.323
364.796	17.336	813.144	615.542
365.810	17.492	812.651	615.680
366.825	17.477	812.075	615.135
367.840	17.361	812.143	614.710
368.854	17.394	810.924	613.854
369.869	17.325	810.965	613.583
370.883	17.342	810.575	613.294
371.898	17.492	810.008	613.352
372.913	17.339	809.841	612.618
373.927	17.493	808.864	612.381
374.942	17.493	808.516	612.060
375.956	17.533	808.132	611.860
376.971	17.738	807.601	612.141
377.986	17.637	807.468	611.623
379.000	17.732	806.678	611.312
380.015	17.595	806.501	610.633
381.029	17.727	805.937	610.622
382.044	17.826	805.223	610.381
383.059	17.746	804.699	609.645
384.073	17.701	803.877	608.808
385.088	17.615	803.681	608.300
386.102	17.710	802.574	607.745
387.117	17.605	802.297	607.108
388.132	17.622	801.633	606.612
389.146	17.477	801.798	606.166
390.161	17.673	800.778	606.041
391.175	17.819	800.267	606.117
392.190	17.569	800.268	605.175
393.205	17.627	799.239	604.552
394.219	17.619	798.807	604.141
395.234	17.614	798.535	603.866
396.248	17.602	798.230	603.537
397.263	17.481	798.070	602.936
398.278	17.579	797.099	602.495
399.292	17.529	796.671	601.942
400.307	17.662	796.335	602.105
401.321	17.668	795.830	601.690
402.336	17.585	795.595	601.166
403.350	17.727	795.007	601.168
404.365	17.684	794.970	600.937
405.380	17.859	794.257	600.961
406.394	18.094	793.070	600.835
407.409	17.898	793.328	600.290
408.423	18.039	792.572	600.158
409.438	18.155	792.667	600.585
410.453	18.128	791.976	599.912
411.467	18.201	791.887	600.051
412.482	18.165	791.551	599.617
413.496	18.115	791.222	599.139
414.511	18.176	790.672	598.883
415.526	18.093	790.286	598.246
416.540	18.113	790.043	598.079
417.555	18.214	789.148	597.703
418.569	18.193	789.156	597.581
419.584	18.026	788.694	596.597
420.599	17.994	788.065	595.956
421.613	156.577	1369.714	1794.534
422.628	135.383	1454.478	1794.627
