DTS Sentinel unit serial number:	SN413079Multiplexer serial number:	ORYXHardware model number:	OX4-SRSoftware version number:	ORYX F/W v4.00 Oryx Data Collector v3.7.2.0data status	okinstallation	princeton_trtdifferential loss correction	single-endedforward channel	channel 1reverse channel	N/Adate	2019/09/11time	16:24:11forward acquisition time	60.00reverse acquisition time	0.00gamma	496.2192k internal	0.2290k external	0.2290temperature offset calibration	0.9991default loss term (dB/km)	0.3790temperature slope calibration	1.0000multiplexer offset coefficient	1.0000multiplexer slope coefficient	1.0000fibre end	0.00T internal ref (°C)	43.53T ext. ref 1 (°C)	1.08T ext. ref 2 (°C)	38.65length (m)	temperature (°C)	Stokes	anti-Stokes-747.200	-151.107	0.396	0.030
-746.185	105.586	0.332	0.402
-745.171	-185.485	0.306	0.005
-744.156	800.000	0.032	-0.114
-743.142	21.221	0.070	0.058
-742.127	67.128	0.304	0.318
-741.112	428.603	-0.080	0.178
-740.098	50.005	0.135	0.131
-739.083	421.975	-0.091	-0.201
-738.069	189.574	0.070	0.107
-737.054	-111.510	-0.190	-0.040
-736.039	-157.433	-0.106	0.007
-735.025	-101.959	0.048	0.012
-734.010	-40.584	-0.280	-0.149
-732.996	167.090	-0.113	-0.164
-731.981	-115.081	-0.311	0.060
-730.966	-200.000	-0.010	0.070
-729.952	-70.707	-0.200	0.077
-728.937	-182.123	-0.013	-0.000
-727.923	-15.155	0.156	-0.102
-726.908	25.079	-0.084	-0.072
-725.894	164.616	0.054	-0.078
-724.879	-112.552	-0.223	0.045
-723.864	-21.021	-0.145	0.091
-722.850	-104.240	-0.142	0.034
-721.835	-18.254	-0.137	0.088
-720.821	-3.591	-0.180	-0.128
-719.806	241.663	0.060	0.103
-718.791	-200.000	-0.030	0.256
-717.777	-200.000	0.044	0.322
-716.762	581.770	-0.028	-0.069
-715.748	395.604	-0.206	0.441
-714.733	-129.918	-0.054	0.008
-713.718	-200.000	-0.048	0.252
-712.704	-26.052	0.076	0.046
-711.689	159.386	-0.080	-0.114
-710.675	455.276	0.030	-0.067
-709.660	-130.182	-0.375	0.052
-708.645	-200.000	-0.008	0.217
-707.631	12.540	-0.085	0.067
-706.616	-97.714	-0.298	-0.079
-705.602	800.000	0.085	-0.374
-704.587	-200.000	-0.025	-0.177
-703.572	-22.248	0.225	-0.139
-702.558	-200.000	0.013	-0.077
-701.543	61.167	0.139	-0.141
-700.529	357.257	0.130	-0.265
-699.514	404.775	0.078	-0.168
-698.499	87.429	0.055	-0.063
-697.485	-24.626	0.255	0.155
-696.470	-152.367	0.015	0.001
-695.456	-200.000	-0.012	-0.153
-694.441	315.164	-0.309	0.596
-693.426	-195.438	0.396	-0.003
-692.412	69.326	0.304	-0.319
-691.397	-127.166	-0.165	-0.025
-690.383	45.919	-0.207	-0.196
-689.368	62.316	-0.143	-0.145
-688.354	18.627	-0.306	-0.251
-687.339	0.735	-0.075	-0.055
-686.324	800.000	-0.086	0.340
-685.310	8.525	0.234	0.180
-684.295	468.997	-0.089	0.205
-683.281	-200.000	-0.043	-0.235
-682.266	119.548	-0.186	-0.236
-681.251	-200.000	0.028	0.200
-680.237	-44.362	-0.158	0.081
-679.222	52.860	0.238	0.232
-678.208	124.521	-0.128	-0.164
-677.193	32.556	0.106	-0.093
-676.178	316.766	-0.101	0.195
-675.164	-160.149	0.249	-0.014
-674.149	78.864	0.068	0.074
-673.135	-200.000	-0.001	-0.152
-672.120	51.107	-0.220	0.213
-671.105	525.933	0.043	-0.103
-670.091	183.698	0.111	0.168
-669.076	12.903	-0.012	0.009
-668.062	800.000	0.089	0.260
-667.047	800.000	0.055	-0.196
-666.032	189.331	0.116	-0.178
-665.018	800.000	0.076	-0.313
-664.003	800.000	-0.028	-0.101
-662.989	-33.434	0.299	-0.169
-661.974	799.297	0.107	0.302
-660.959	-154.088	-0.207	0.014
-659.945	198.442	0.190	0.296
-658.930	92.343	0.132	-0.151
-657.916	-112.084	-0.336	-0.069
-656.901	211.875	0.266	-0.428
-655.886	300.898	-0.319	0.602
-654.872	-65.254	-0.136	0.056
-653.857	-18.631	0.120	-0.076
-652.843	-23.397	0.035	-0.021
-651.828	-71.076	-0.264	0.101
-650.814	75.183	0.132	-0.142
-649.799	143.625	0.161	-0.219
-648.784	9.172	-0.096	-0.074
-647.770	0.917	-0.128	-0.094
-646.755	-200.000	0.017	-0.126
-645.741	312.612	-0.169	-0.324
-644.726	183.998	-0.188	-0.284
-643.711	85.633	0.144	0.161
-642.697	699.048	0.071	0.189
-641.682	-3.249	-0.314	-0.223
-640.668	11.133	-0.061	-0.048
-639.653	50.126	0.092	-0.089
-638.638	800.000	0.118	-0.441
-637.624	-48.178	0.296	-0.146
-636.609	-22.749	0.107	0.066
-635.595	-48.092	-0.372	0.183
-634.580	9.346	0.222	0.171
-633.565	-111.841	0.229	0.047
-632.551	13.526	-0.085	0.067
-631.536	25.377	-0.064	-0.054
-630.522	84.768	-0.242	-0.270
-629.507	-192.683	-0.257	0.002
-628.492	-200.000	-0.023	-0.260
-627.478	-152.200	-0.264	0.019
-626.463	-27.090	0.184	0.110
-625.449	800.000	0.098	0.432
-624.434	800.000	0.089	-0.329
-623.419	-74.874	0.067	0.025
-622.405	51.112	0.295	0.285
-621.390	-200.000	0.003	0.015
-620.376	451.370	-0.138	0.311
-619.361	-35.117	0.166	-0.092
-618.346	-200.000	-0.015	-0.105
-617.332	-200.000	0.006	0.352
-616.317	800.000	0.036	-0.107
-615.303	51.412	-0.347	-0.336
-614.288	800.000	-0.038	0.153
-613.273	-64.649	0.147	0.061
-612.259	25.317	0.191	0.162
-611.244	-50.030	0.285	-0.138
-610.230	14.407	0.075	0.060
-609.215	182.278	-0.054	0.081
-608.201	-139.530	0.126	-0.014
-607.186	413.038	-0.047	-0.102
-606.171	102.824	-0.122	-0.146
-605.157	-89.814	-0.201	0.060
-604.142	-200.000	-0.014	0.064
-603.128	28.859	0.124	-0.107
-602.113	-200.000	0.015	-0.262
-601.098	-79.449	0.032	0.011
-600.084	531.938	-0.051	-0.124
-599.069	-200.000	0.052	0.255
-598.055	-90.598	-0.173	-0.051
-597.040	71.785	-0.167	-0.177
-596.025	75.602	-0.097	0.104
-595.011	-4.285	-0.187	0.132
-593.996	740.370	0.068	-0.187
-592.982	-128.671	0.288	-0.041
-591.967	800.000	-0.139	0.535
-590.952	369.768	0.169	-0.348
-589.938	122.262	-0.125	-0.159
-588.923	73.935	0.184	-0.196
-587.909	72.854	-0.226	0.240
-586.894	800.000	-0.042	-0.188
-585.879	10.268	-0.033	-0.026
-584.865	245.534	0.158	-0.271
-583.850	685.847	0.141	-0.376
-582.836	380.768	-0.023	0.047
-581.821	141.860	-0.172	-0.233
-580.806	-89.336	-0.169	0.051
-579.792	162.759	0.142	0.203
-578.777	58.268	0.090	0.090
-577.763	-13.117	0.251	-0.166
-576.748	-115.590	-0.388	0.074
-575.733	42.100	-0.176	-0.163
-574.719	-200.000	0.004	0.317
-573.704	800.000	0.040	0.151
-572.690	199.952	-0.126	-0.197
-571.675	-113.512	-0.240	-0.048
-570.661	800.000	0.091	-0.285
-569.646	197.237	0.364	-0.565
-568.631	127.217	0.326	-0.420
-567.617	-129.199	0.260	0.037
-566.602	-200.000	0.017	0.177
-565.588	-200.000	-0.003	-0.327
-564.573	99.687	0.166	-0.196
-563.558	800.000	0.069	-0.260
-562.544	-200.000	0.018	0.275
-561.529	800.000	-0.095	-0.328
-560.515	260.124	0.034	-0.060
-559.500	-53.280	0.117	0.054
-558.485	-80.373	0.364	-0.124
-557.471	1.385	0.266	-0.194
-556.456	104.333	-0.167	0.199
-555.442	487.917	0.109	0.253
-554.427	126.122	0.150	-0.192
-553.412	-72.180	-0.056	-0.021
-552.398	800.000	0.068	-0.198
-551.383	591.900	0.125	-0.315
-550.369	-200.000	0.023	-0.314
-549.354	-200.000	0.041	-0.294
-548.339	-200.000	-0.033	-0.336
-547.325	-55.337	0.182	0.083
-546.310	-200.000	-0.061	0.392
-545.296	341.150	-0.128	0.253
-544.281	481.907	0.087	-0.201
-543.266	-85.522	0.110	0.035
-542.252	-70.631	-0.070	0.027
-541.237	-87.559	-0.328	-0.101
-540.223	130.952	0.215	0.280
-539.208	800.000	-0.131	0.393
-538.193	-200.000	-0.027	0.424
-537.179	-97.594	-0.147	-0.039
-536.164	-200.000	0.013	-0.406
-535.150	-194.867	0.242	0.002
-534.135	87.648	-0.045	0.050
-533.121	192.619	0.168	-0.258
-532.106	800.000	0.076	0.265
-531.091	-200.000	-0.056	0.388
-530.077	-200.000	-0.034	-0.190
-529.062	26.451	-0.048	-0.041
-528.048	-200.000	-0.005	-0.416
-527.033	8.340	-0.153	-0.117
-526.018	-177.497	0.133	0.003
-525.004	-88.062	0.161	-0.049
-523.989	-200.000	-0.017	0.224
-522.975	134.794	0.024	0.032
-521.960	800.000	0.097	-0.282
-520.945	-133.436	0.352	0.045
-519.931	-200.000	0.020	-0.272
-518.916	-167.860	-0.074	0.003
-517.902	-200.000	-0.015	0.122
-516.887	274.431	0.049	-0.088
-515.872	-68.676	-0.269	0.106
-514.858	-5.582	0.245	-0.171
-513.843	225.984	-0.072	0.119
-512.829	66.455	-0.109	0.112
-511.814	800.000	-0.082	-0.347
-510.799	-91.115	-0.370	0.108
-509.785	-51.938	-0.185	-0.087
-508.770	610.532	-0.109	0.278
-507.756	132.713	0.160	-0.210
-506.741	-152.359	-0.169	-0.012
-505.726	-130.088	0.360	0.050
-504.712	-23.886	-0.187	0.113
-503.697	308.019	0.133	0.252
-502.683	-163.830	-0.241	-0.011
-501.668	520.922	0.060	-0.144
-500.653	303.786	-0.090	0.170
-499.639	-200.000	0.010	-0.166
-498.624	-168.157	0.014	0.001
-497.610	469.877	0.035	0.079
-496.595	-200.000	0.007	0.173
-495.581	-40.503	0.125	-0.066
-494.566	-51.005	0.196	-0.094
-493.551	-200.000	-0.004	-0.245
-492.537	-114.559	-0.186	0.036
-491.522	-60.875	-0.099	0.043
-490.508	-41.667	-0.254	-0.132
-489.493	78.330	-0.203	0.220
-488.478	800.000	0.059	-0.234
-487.464	-76.841	-0.333	0.118
-486.449	686.174	-0.196	0.519
-485.435	-110.223	-0.117	0.025
-484.420	625.603	0.064	-0.164
-483.405	-200.000	-0.021	-0.131
-482.391	-57.375	-0.285	0.127
-481.376	-114.420	0.049	0.010
-480.362	-80.838	-0.138	-0.046
-479.347	800.000	0.064	-0.218
-478.332	232.573	-0.044	0.073
-477.318	-95.950	-0.090	-0.024
-476.303	800.000	0.049	-0.165
-475.289	112.378	-0.106	-0.130
-474.274	-82.108	-0.361	0.119
-473.259	800.000	0.049	-0.160
-472.245	-200.000	-0.009	0.126
-471.230	-148.212	-0.504	0.042
-470.216	-99.003	-0.226	0.058
-469.201	-140.720	0.316	-0.033
-468.186	-105.733	0.245	-0.056
-467.172	800.000	0.142	0.481
-466.157	-200.000	0.018	-0.112
-465.143	653.852	0.029	0.077
-464.128	-65.447	-0.488	0.199
-463.113	800.000	-0.044	-0.138
-462.099	-21.504	0.074	0.046
-461.084	-200.000	0.022	0.276
-460.070	800.000	-0.076	-0.253
-459.055	-6.348	0.139	0.096
-458.040	-3.829	0.059	-0.042
-457.026	332.450	-0.123	0.241
-456.011	109.370	0.251	-0.305
-454.997	-44.435	0.074	0.038
-453.982	-117.432	0.164	0.030
-452.968	410.955	0.048	0.103
-451.953	-109.580	0.221	-0.047
-450.938	-65.794	-0.147	0.060
-449.924	34.466	0.290	-0.256
-448.909	-106.420	0.066	0.015
-447.895	110.407	0.215	0.262
-446.880	800.000	0.039	0.165
-445.865	800.000	0.084	0.247
-444.851	-60.675	-0.440	-0.189
-443.836	161.012	-0.040	-0.057
-442.822	29.450	0.089	-0.077
-441.807	166.022	-0.178	-0.255
-440.792	-200.000	-0.035	-0.202
-439.778	-200.000	-0.006	0.176
-438.763	44.076	0.090	-0.084
-437.749	800.000	0.051	-0.155
-436.734	-79.407	0.118	-0.040
-435.719	-200.000	0.026	-0.248
-434.705	364.451	0.072	-0.146
-433.690	-3.011	0.105	-0.074
-432.676	-116.974	-0.208	-0.038
-431.661	-194.004	0.209	0.002
-430.646	800.000	-0.020	-0.086
-429.632	-198.969	-0.184	0.001
-428.617	-38.610	0.325	-0.174
-427.603	117.371	-0.067	0.083
-426.588	-200.000	0.004	0.049
-425.573	47.620	0.107	0.101
-424.559	-57.258	-0.243	0.108
-423.544	16.841	0.095	0.076
-422.530	387.353	0.236	-0.493
-421.515	-92.604	-0.154	-0.044
-420.500	-74.788	-0.114	-0.041
-419.486	216.934	0.348	-0.560
-418.471	-123.270	-0.059	0.010
-417.457	241.348	0.113	0.190
-416.442	-175.141	-0.208	0.006
-415.428	-96.146	-0.256	0.069
-414.413	-17.158	-0.246	-0.157
-413.398	225.644	0.082	0.134
-412.384	182.283	-0.128	0.190
-411.369	315.227	0.074	0.142
-410.355	800.000	0.077	0.232
-409.340	-52.482	0.397	0.186
-408.325	-200.000	0.011	0.102
-407.311	-200.000	-0.012	-0.125
-406.296	-146.092	0.154	0.014
-405.282	138.092	-0.226	0.299
-404.267	-98.789	-0.141	0.036
-403.252	-200.000	-0.001	0.241
-402.238	-24.088	0.297	-0.180
-401.223	800.000	-0.056	-0.163
-400.209	105.661	0.020	0.023
-399.194	201.073	-0.082	0.127
-398.179	800.000	0.066	0.254
-397.165	596.428	0.075	0.187
-396.150	-200.000	-0.082	0.400
-395.136	-58.074	0.245	-0.108
-394.121	30.800	-0.049	-0.043
-393.106	800.000	0.062	0.188
-392.092	-24.593	0.216	0.130
-391.077	-144.533	0.355	0.033
-390.063	81.602	-0.080	0.087
-389.048	636.928	-0.052	-0.134
-388.033	-116.558	0.093	0.017
-387.019	800.000	0.065	-0.261
-386.004	-30.999	0.081	0.046
-384.990	157.078	0.122	0.171
-383.975	168.403	0.207	-0.297
-382.960	-200.000	-0.001	-0.110
-381.946	-2.051	-0.168	0.119
-380.931	-147.588	0.150	0.013
-379.917	-126.736	0.027	0.004
-378.902	15.128	0.184	-0.145
-377.888	318.516	0.098	0.188
-376.873	-119.625	0.098	-0.017
-375.858	233.369	0.143	0.237
-374.844	189.637	0.268	-0.406
-373.829	376.698	-0.171	-0.353
-372.815	800.000	0.010	-0.031
-371.800	-152.387	-0.080	0.006
-370.785	5.746	-0.122	0.091
-369.771	-54.060	0.119	0.054
-368.756	-40.200	-0.201	0.105
-367.742	-51.649	0.157	0.074
-366.727	84.959	-0.140	0.155
-365.712	-103.300	-0.264	0.063
-364.698	800.000	-0.074	0.271
-363.683	141.657	0.039	-0.052
-362.669	-42.581	-0.094	-0.048
-361.654	-137.840	-0.047	-0.005
-360.639	-89.376	0.229	-0.068
-359.625	-200.000	-0.020	-0.138
-358.610	120.333	0.142	-0.178
-357.596	-200.000	-0.003	0.196
-356.581	-68.114	-0.325	0.128
-355.566	800.000	0.059	0.166
-354.552	-156.688	0.219	-0.014
-353.537	603.413	-0.058	-0.145
-352.523	-77.469	-0.440	-0.154
-351.508	-200.000	0.002	0.102
-350.493	139.301	-0.126	0.167
-349.479	50.628	0.168	0.160
-348.464	-69.126	-0.193	-0.075
-347.450	68.675	0.217	-0.225
-346.435	-29.965	-0.232	-0.133
-345.420	-91.993	-0.249	-0.071
-344.406	-200.000	0.016	0.326
-343.391	246.525	-0.117	-0.199
-342.377	32.160	-0.503	0.438
-341.362	-79.616	0.430	-0.146
-340.348	16.383	0.274	-0.218
-339.333	-184.380	0.213	-0.004
-338.318	116.903	-0.071	-0.088
-337.304	484.806	-0.106	0.243
-336.289	200.081	0.115	0.178
-335.275	-72.795	0.143	0.053
-334.260	-155.696	-0.290	-0.019
-333.245	45.682	-0.224	0.208
-332.231	123.301	-0.155	-0.196
-331.216	-200.000	0.030	-0.213
-330.202	281.465	-0.138	-0.249
-329.187	-127.725	-0.354	-0.052
-328.172	-200.000	-0.048	0.426
-327.158	-158.759	0.147	0.008
-326.143	351.512	0.126	0.252
-325.129	-91.802	-0.341	-0.098
-324.114	-200.000	0.012	0.100
-323.099	342.269	0.119	0.234
-322.085	-106.533	0.249	0.056
-321.070	24.622	0.400	-0.334
-320.056	12.230	-0.046	-0.036
-319.041	129.298	-0.075	-0.097
-318.026	-38.391	-0.262	0.140
-317.012	21.718	-0.096	0.079
-315.997	-101.977	0.270	0.066
-314.983	800.000	0.144	0.422
-313.968	-92.794	0.124	0.035
-312.953	88.347	0.200	0.224
-311.939	63.418	0.126	-0.127
-310.924	-200.000	-0.010	-0.138
-309.910	-128.540	0.043	-0.006
-308.895	-200.000	0.033	-0.243
-307.880	-200.000	0.008	-0.347
-306.866	-200.000	-0.001	-0.289
-305.851	55.854	-0.093	0.090
-304.837	56.947	0.264	0.259
-303.822	82.966	-0.112	-0.122
-302.807	-22.705	-0.217	-0.132
-301.793	529.936	-0.076	0.180
-300.778	-135.597	-0.288	0.034
-299.764	-200.000	0.351	0.001
-298.749	-200.000	0.021	-0.203
-297.735	706.151	-0.155	0.412
-296.720	-21.513	-0.173	0.106
-295.705	-89.696	-0.169	0.050
-294.691	-200.000	-0.028	-0.155
-293.676	468.133	-0.109	-0.245
-292.662	-200.000	0.027	0.209
-291.647	-151.560	-0.221	-0.016
-290.632	-200.000	-0.030	-0.147
-289.618	-175.339	0.230	0.006
-288.603	-200.000	0.059	-0.487
-287.589	-4.904	0.240	0.167
-286.574	258.110	0.238	0.412
-285.559	9.885	0.245	0.187
-284.545	800.000	-0.058	-0.187
-283.530	33.973	0.229	-0.201
-282.516	-200.000	0.040	-0.233
-281.501	154.454	0.145	-0.201
-280.486	800.000	-0.030	-0.090
-279.472	-141.914	-0.271	0.027
-278.457	800.000	-0.129	0.397
-277.443	-39.835	0.192	-0.101
-276.428	-200.000	0.000	0.065
-275.413	478.077	-0.106	-0.241
-274.399	48.368	0.158	0.149
-273.384	3.277	-0.252	0.184
-272.370	340.555	-0.062	0.122
-271.355	191.193	-0.132	0.200
-270.340	45.605	0.117	-0.108
-269.326	-155.988	-0.137	0.009
-268.311	437.055	-0.045	0.098
-267.297	87.347	-0.318	-0.354
-266.282	-92.863	-0.254	0.071
-265.267	-55.783	0.074	0.033
-264.253	385.761	0.025	-0.052
-263.238	-50.082	-0.204	-0.097
-262.224	60.210	0.047	-0.047
-261.209	-94.554	0.356	0.097
-260.195	449.582	-0.063	-0.140
-259.180	438.739	-0.084	-0.185
-258.165	-51.221	0.089	0.042
-257.151	-81.397	-0.179	-0.059
-256.136	-87.658	-0.391	0.119
-255.122	526.201	-0.058	0.138
-254.107	255.275	-0.162	-0.279
-253.092	450.780	-0.134	0.298
-252.078	-83.651	-0.281	-0.090
-251.063	-56.411	-0.194	0.086
-250.049	800.000	-0.111	0.336
-249.034	-22.800	0.260	-0.158
-248.019	53.327	-0.179	-0.172
-247.005	-105.884	0.097	0.022
-245.990	-105.211	0.444	-0.102
-244.976	-100.580	-0.316	0.078
-243.961	2.441	0.078	-0.056
-242.946	-200.000	-0.025	-0.121
-241.932	800.000	0.053	-0.167
-240.917	-39.601	-0.068	-0.036
-239.903	-86.262	-0.090	0.028
-238.888	37.575	-0.260	0.232
-237.873	315.131	0.045	-0.085
-236.859	174.462	-0.092	0.133
-235.844	-62.988	-0.191	0.079
-234.830	740.606	0.154	0.415
-233.815	99.362	0.148	0.172
-232.800	-35.442	-0.257	-0.140
-231.786	43.630	-0.051	0.047
-230.771	681.482	0.133	-0.347
-229.757	-200.000	0.018	0.169
-228.742	-200.000	-0.068	0.634
-227.727	-200.000	0.006	0.052
-226.713	-136.041	0.134	-0.016
-225.698	-67.584	0.267	-0.105
-224.684	-105.291	0.439	0.100
-223.669	-96.195	0.037	-0.010
-222.655	-77.319	0.073	0.025
-221.640	-146.335	0.168	0.015
-220.625	-26.833	0.054	-0.032
-219.611	-200.000	-0.036	0.238
-218.596	264.445	0.108	0.189
-217.582	6.814	-0.299	0.223
-216.567	78.315	0.138	0.148
-215.552	112.602	0.153	0.186
-214.538	-98.582	0.187	-0.048
-213.523	-200.000	-0.010	-0.459
-212.509	-200.000	0.018	0.199
-211.494	-200.000	0.086	-0.614
-210.479	-200.000	0.002	-0.349
-209.465	-200.000	0.078	0.349
-208.450	-87.951	0.109	-0.033
-207.436	554.739	0.023	-0.055
-206.421	-137.154	0.293	-0.034
-205.406	60.352	0.286	0.284
-204.392	306.356	-0.070	0.131
-203.377	-72.619	-0.112	0.042
-202.363	800.000	-0.016	0.068
-201.348	118.324	-0.066	0.081
-200.333	113.522	0.019	-0.023
-199.319	19.308	-0.084	-0.068
-198.304	109.068	-0.307	0.368
-197.290	33.675	-0.139	0.121
-196.275	-47.280	0.083	-0.041
-195.260	-200.000	0.040	0.246
-194.246	114.678	0.103	0.126
-193.231	67.977	0.146	-0.149
-192.217	-92.239	-0.205	-0.058
-191.202	11.789	0.145	0.111
-190.187	800.000	0.019	0.075
-189.173	800.000	-0.033	-0.129
-188.158	206.699	0.207	0.323
-187.144	146.435	0.056	0.076
-186.129	208.493	-0.102	0.160
-185.114	-40.855	-0.100	0.052
-184.100	149.148	0.122	-0.165
-183.085	214.842	-0.046	0.072
-182.071	800.000	0.077	0.258
-181.056	44.731	0.146	-0.134
-180.042	-33.465	-0.421	-0.233
-179.027	29.756	0.100	0.086
-178.012	0.288	-0.116	-0.083
-176.998	95.167	-0.207	0.236
-175.983	57.326	-0.178	-0.174
-174.969	133.979	-0.163	-0.212
-173.954	800.000	0.036	-0.152
-172.939	-8.258	0.085	-0.057
-171.925	800.000	-0.042	-0.145
-170.910	125.956	0.094	0.118
-169.896	269.059	0.042	0.073
-168.881	756.743	-0.145	0.392
-167.866	-126.142	0.307	-0.046
-166.852	289.145	-0.143	-0.259
-165.837	-36.817	0.389	-0.209
-164.823	800.000	0.086	0.294
-163.808	85.178	-0.150	-0.165
-162.793	41.765	0.110	0.100
-161.779	-200.000	0.069	0.309
-160.764	-200.000	-0.013	0.190
-159.750	800.000	0.078	0.266
-158.735	-119.451	-0.084	0.015
-157.720	800.000	-0.040	0.121
-156.706	-200.000	-0.066	0.348
-155.691	46.655	-0.245	-0.228
-154.677	150.872	-0.237	0.322
-153.662	791.168	-0.125	-0.343
-152.647	377.230	-0.186	0.381
-151.633	-200.000	-0.000	-0.073
-150.618	-82.815	0.306	-0.099
-149.604	800.000	-0.025	0.094
-148.589	-180.486	0.296	0.006
-147.574	-56.808	0.254	-0.112
-146.560	221.452	0.159	-0.256
-145.545	-200.000	0.020	-0.219
-144.531	-72.181	0.096	0.036
-143.516	100.192	0.214	0.248
-142.502	800.000	0.126	-0.405
-141.487	7.634	-0.183	-0.137
-140.472	-200.000	-0.003	-0.246
-139.458	-200.000	-0.026	-0.262
-138.443	-121.819	0.411	0.068
-137.429	242.747	-0.190	0.318
-136.414	43.381	0.215	-0.197
-135.399	800.000	-0.075	-0.260
-134.385	-146.293	-0.223	-0.020
-133.370	-167.195	-0.160	0.007
-132.356	340.640	0.136	-0.265
-131.341	-34.247	-0.466	0.256
-130.326	26.442	0.156	-0.130
-129.312	229.886	-0.102	0.166
-128.297	14.642	-0.383	0.299
-127.283	-59.834	0.166	-0.071
-126.268	-88.127	0.175	0.053
-125.253	-3.697	-0.253	-0.176
-124.239	-114.925	0.275	0.052
-123.224	39.778	0.076	0.068
-122.210	-200.000	-0.009	-0.073
-121.195	-82.723	0.395	0.128
-120.180	-62.591	0.312	-0.130
-119.166	-11.783	-0.232	0.152
-118.151	597.781	0.038	-0.094
-117.137	347.987	-0.111	0.218
-116.122	-82.495	0.376	0.122
-115.107	-123.026	-0.150	0.024
-114.093	633.463	-0.028	-0.070
-113.078	-98.364	-0.177	-0.045
-112.064	50.218	-0.036	-0.034
-111.049	29.337	0.207	0.176
-110.034	-88.116	0.244	-0.073
-109.020	-131.845	-0.147	0.019
-108.005	89.671	-0.080	0.089
-106.991	800.000	-0.017	0.055
-105.976	-98.585	-0.091	-0.023
-104.962	-33.228	0.163	-0.090
-103.947	-200.000	0.019	0.135
-102.932	-60.513	0.111	-0.047
-101.918	-200.000	0.032	-0.297
-100.903	-136.725	-0.132	0.015
-99.889	28.194	-0.199	0.168
-98.874	26.034	-0.401	0.334
-97.859	-90.112	0.221	-0.064
-96.845	146.504	0.139	0.187
-95.830	61.035	-0.045	-0.045
-94.816	-6.543	0.158	0.107
-93.801	-143.666	-0.327	-0.031
-92.786	-55.605	0.147	-0.066
-91.772	415.391	0.141	0.301
-90.757	-36.880	0.163	0.087
-89.743	144.753	0.127	-0.169
-88.728	24.063	0.076	0.063
-87.713	387.296	0.118	-0.243
-86.699	-158.817	-0.120	-0.007
-85.684	166.361	0.063	-0.089
-84.670	271.189	-0.191	-0.336
-83.655	243.685	0.076	-0.128
-82.640	-123.611	0.187	-0.030
-81.626	-148.676	0.275	-0.022
-80.611	-200.000	0.014	0.151
-79.597	-53.700	0.129	-0.059
-78.582	90.661	-0.139	0.155
-77.567	110.577	0.175	0.210
-76.553	36.747	0.168	-0.149
-75.538	291.548	-0.164	-0.297
-74.524	-4.669	-0.140	-0.096
-73.509	-200.000	0.007	0.079
-72.494	1.550	0.262	-0.188
-71.480	-200.000	-0.073	0.000
-70.465	-37.200	0.108	-0.057
-69.451	-40.254	0.251	0.130
-68.436	-200.000	0.035	0.439
-67.422	-118.191	0.298	0.053
-66.407	-123.281	-0.208	-0.033
-65.392	33.577	0.174	0.151
-64.378	388.609	0.103	0.212
-63.363	274.108	-0.174	0.307
-62.349	-200.000	0.041	0.248
-61.334	62.977	-0.665	-0.664
-60.319	128.127	0.271	0.344
-59.305	720.499	0.171	-0.454
-58.290	65.853	0.411	0.416
-57.276	756.059	0.540	1.457
-56.261	-200.000	72.104	529.016
-55.246	600.856	1278.794	3166.809
-54.232	148.179	2495.073	3357.144
-53.217	123.784	2221.844	2780.661
-52.203	56.682	1667.735	1618.414
-51.188	47.858	1384.997	1289.537
-50.173	43.918	1336.513	1220.673
-49.159	61.659	1368.912	1358.311
-48.144	70.242	1387.571	1428.725
-47.130	48.012	1351.009	1258.624
-46.115	43.647	1334.922	1217.390
-45.100	43.460	1330.489	1212.181
-44.086	43.373	1327.903	1209.254
-43.071	43.342	1325.041	1206.418
-42.057	43.343	1322.936	1204.457
-41.042	43.370	1321.046	1202.848
-40.027	43.458	1319.923	1202.305
-39.013	43.441	1317.685	1200.114
-37.998	43.443	1315.793	1198.354
-36.984	43.603	1314.127	1197.740
-35.969	43.526	1312.449	1195.709
-34.954	43.593	1310.576	1194.347
-33.940	43.527	1309.330	1192.779
-32.925	43.639	1307.945	1192.128
-31.911	43.596	1306.689	1190.683
-30.896	43.632	1305.054	1189.358
-29.881	43.656	1303.819	1188.328
-28.867	43.556	1302.371	1186.372
-27.852	43.682	1300.539	1185.397
-26.838	43.675	1298.880	1183.796
-25.823	43.588	1297.949	1182.391
-24.809	43.608	1296.431	1181.076
-23.794	43.720	1294.692	1180.102
-22.779	43.581	1293.528	1178.179
-21.765	43.549	1292.804	1177.287
-20.750	43.577	1290.977	1175.741
-19.736	43.542	1289.572	1174.212
-18.721	43.554	1288.174	1172.961
-17.706	43.564	1287.040	1171.943
-16.692	43.546	1285.968	1170.814
-15.677	43.442	1285.167	1169.434
-14.663	43.521	1283.732	1168.543
-13.648	43.425	1283.107	1167.369
-12.633	43.382	1281.910	1165.987
-11.619	43.452	1280.726	1165.269
-10.604	43.515	1279.918	1164.848
-9.590	43.471	1279.214	1163.910
-8.575	43.393	1278.117	1162.417
-7.560	43.443	1276.652	1161.326
-6.546	43.385	1275.826	1160.195
-5.531	43.482	1274.517	1159.515
-4.517	43.517	1273.946	1159.151
-3.502	43.491	1273.321	1158.389
-2.487	43.505	1272.506	1157.676
-1.473	43.523	1269.177	1154.705
-0.458	42.682	1254.245	1136.325
0.556	38.280	1233.444	1095.560
1.571	34.080	1234.815	1073.054
2.586	32.812	1249.088	1078.120
3.600	30.969	1238.308	1058.266
4.615	21.946	1160.199	943.180
5.629	8.075	1074.291	803.758
6.644	1.518	1048.769	752.230
7.659	1.026	1045.585	747.450
8.673	0.918	1044.265	745.910
9.688	0.850	1042.948	744.570
10.702	1.281	1041.955	745.911
11.717	9.149	1053.851	793.352
12.731	20.170	1069.674	860.171
13.746	23.950	1073.194	881.700
14.761	23.516	1072.546	878.935
15.775	23.580	1071.624	878.419
16.790	23.276	1070.743	876.114
17.804	23.210	1070.144	875.222
18.819	23.202	1069.908	874.910
19.834	23.320	1069.240	874.870
20.848	23.390	1069.111	875.036
21.863	23.383	1068.127	874.118
22.877	23.262	1067.736	873.121
23.892	23.128	1067.307	872.036
24.907	23.265	1066.093	871.642
25.921	23.319	1065.213	871.108
26.936	23.324	1063.670	869.793
27.950	23.302	1062.146	868.363
28.965	23.100	1060.366	865.844
29.980	23.107	1058.810	864.531
30.994	23.390	1057.952	865.135
32.009	23.330	1057.025	864.008
33.023	23.065	1055.827	861.661
34.038	23.189	1054.567	861.158
35.053	23.317	1054.457	861.615
36.067	23.255	1053.656	860.586
37.082	23.405	1052.969	860.676
38.096	23.487	1052.315	860.462
39.111	23.598	1051.434	860.204
40.126	23.307	1050.346	857.831
41.140	23.105	1048.598	855.350
42.155	23.045	1046.809	853.524
43.169	22.970	1046.352	852.714
44.184	22.931	1045.333	851.618
45.199	22.915	1044.102	850.467
46.213	22.996	1043.450	850.247
47.228	23.041	1042.583	849.681
48.242	23.238	1041.640	849.786
49.257	23.264	1041.004	849.317
50.271	23.402	1040.011	849.092
51.286	23.284	1039.565	848.086
52.301	23.463	1038.514	848.011
53.315	23.234	1037.648	846.132
54.330	23.152	1036.999	845.140
55.344	23.259	1036.027	844.783
56.359	23.301	1034.798	843.905
57.374	23.134	1033.921	842.319
58.388	23.030	1033.478	841.388
59.403	23.073	1032.354	840.603
60.417	22.914	1031.628	839.185
61.432	23.098	1030.719	839.243
62.447	23.067	1030.579	838.908
63.461	23.178	1029.373	838.379
64.476	23.089	1028.223	836.947
65.490	23.049	1027.436	836.043
66.505	23.221	1026.661	836.148
67.520	23.112	1026.230	835.213
68.534	22.786	1025.313	832.853
69.549	22.640	1023.762	830.832
70.563	22.572	1023.330	830.085
71.578	22.583	1022.367	829.283
72.593	22.437	1021.541	827.856
73.607	22.617	1021.239	828.381
74.622	22.810	1020.866	828.914
75.636	22.968	1020.108	828.966
76.651	22.939	1018.667	827.587
77.666	22.678	1018.316	826.003
78.680	22.844	1017.275	825.864
79.695	22.880	1016.964	825.705
80.709	22.877	1016.523	825.262
81.724	23.007	1015.488	824.956
82.739	23.017	1014.814	824.379
83.753	23.305	1014.281	825.219
84.768	23.583	1013.725	825.987
85.782	23.680	1012.586	825.435
86.797	23.480	1011.747	823.751
87.812	23.432	1010.804	822.687
88.826	23.422	1009.769	821.725
89.841	23.679	1008.841	822.086
90.855	23.632	1007.658	820.831
91.870	23.524	1007.081	819.790
92.884	23.344	1006.003	818.011
93.899	23.423	1004.860	817.374
94.914	23.538	1004.057	817.176
95.928	23.319	1002.764	815.043
96.943	23.170	1001.667	813.397
97.957	22.954	1000.299	811.224
98.972	22.912	999.029	809.926
99.987	23.204	998.561	810.815
101.001	23.304	997.470	810.315
102.016	23.254	996.973	809.610
103.030	23.163	996.127	808.435
104.045	23.046	995.252	807.121
105.060	22.851	994.216	805.321
106.074	23.048	993.303	805.407
107.089	23.414	992.852	806.635
108.103	23.271	991.739	805.011
109.118	23.098	990.716	803.322
110.133	22.986	989.550	801.799
111.147	22.752	988.552	799.858
112.162	22.817	987.140	798.938
113.176	22.913	986.817	799.039
114.191	22.918	985.846	798.206
115.206	22.706	984.757	796.298
116.220	22.664	983.847	795.300
117.235	22.767	982.923	794.947
118.249	22.900	982.039	794.762
119.264	22.697	981.746	793.540
120.279	22.760	980.747	792.947
121.293	22.722	980.167	792.234
122.308	22.820	979.149	791.782
123.322	22.787	977.981	790.619
124.337	22.647	976.746	788.927
125.352	22.121	975.360	785.387
126.366	22.051	974.081	783.972
127.381	22.785	973.899	787.033
128.395	23.315	973.790	789.237
129.410	23.306	973.394	788.806
130.424	23.364	972.111	787.955
131.439	23.371	971.297	787.255
132.454	23.366	970.424	786.458
133.468	23.316	969.384	785.322
134.483	23.412	968.942	785.321
135.497	23.504	968.397	785.216
136.512	23.588	967.350	784.672
137.527	23.560	966.299	783.625
138.541	23.571	966.015	783.376
139.556	23.546	965.055	782.416
140.570	23.694	964.349	782.425
141.585	23.769	962.968	781.565
142.600	23.572	962.558	780.297
143.614	23.809	961.561	780.460
144.629	23.979	960.690	780.430
145.643	23.776	959.947	778.870
146.658	23.502	958.663	776.557
147.673	23.474	957.317	775.279
148.687	23.487	956.239	774.393
149.702	23.309	955.197	772.705
150.716	23.274	954.426	771.860
151.731	23.480	953.880	772.246
152.746	23.696	953.076	772.468
153.760	23.820	952.131	772.172
154.775	23.826	951.775	771.839
155.789	23.638	951.108	770.415
156.804	23.801	949.622	769.850
157.819	23.681	949.140	768.870
158.833	23.832	948.483	768.925
159.848	23.900	947.369	768.249
160.862	23.674	946.042	766.126
161.877	23.674	945.207	765.383
162.892	23.757	944.272	764.917
163.906	23.592	943.443	763.470
164.921	23.606	942.812	762.952
165.935	23.752	941.324	762.304
166.950	23.691	940.683	761.455
167.964	23.683	940.199	760.961
168.979	23.447	939.300	759.156
169.994	23.536	937.792	758.250
171.008	23.694	937.682	758.771
172.023	23.735	936.808	758.174
173.037	23.478	935.707	756.117
174.052	23.300	934.310	754.166
175.067	23.465	933.660	754.274
176.081	23.525	933.486	754.323
177.096	23.415	932.860	753.285
178.110	23.183	931.581	751.200
179.125	23.040	930.671	749.792
180.140	23.157	930.269	749.897
181.154	23.141	930.566	750.005
182.169	23.482	930.024	750.942
183.183	23.727	929.880	751.800
184.198	23.642	928.586	750.327
185.213	23.531	927.693	749.072
186.227	23.761	927.186	749.563
187.242	23.708	926.468	748.694
188.256	23.832	925.735	748.560
189.271	23.815	924.908	747.750
190.286	23.522	923.962	745.688
191.300	22.943	922.672	742.151
192.315	22.131	921.172	737.473
193.329	22.115	920.622	736.899
194.344	22.936	920.968	740.555
195.359	23.487	921.264	743.037
196.373	23.788	920.217	743.386
197.388	23.505	919.914	741.894
198.402	23.446	919.700	741.406
199.417	23.504	918.921	740.955
200.432	23.257	917.767	738.928
201.446	23.111	916.892	737.551
202.461	23.186	916.425	737.423
203.475	22.538	914.693	733.267
204.490	21.758	912.923	728.542
205.504	22.354	913.823	731.673
206.519	23.199	913.573	734.918
207.534	23.239	913.029	734.586
208.548	23.701	912.894	736.326
209.563	23.401	912.071	734.355
210.577	23.501	911.175	733.981
211.592	23.767	911.097	734.954
212.607	23.745	909.948	733.870
213.621	23.658	909.953	733.451
214.636	23.799	908.799	733.038
215.650	23.749	908.085	732.191
216.665	23.863	907.373	732.023
217.680	23.752	906.910	731.128
218.694	23.420	905.322	728.417
219.709	23.260	904.935	727.384
220.723	23.556	904.535	728.216
221.738	23.589	903.982	727.841
222.753	23.613	903.279	727.309
223.767	23.650	902.781	726.994
224.782	23.793	902.628	727.392
225.796	23.989	902.109	727.711
226.811	23.259	900.871	723.665
227.826	22.522	899.412	719.419
228.840	22.685	898.985	719.680
229.855	22.836	898.373	719.744
230.869	22.573	896.671	717.245
231.884	22.786	896.799	718.150
232.899	23.662	896.955	721.774
233.913	23.398	896.466	720.246
234.928	23.427	896.318	720.180
235.942	23.395	895.098	719.007
236.957	23.346	893.955	717.826
237.972	23.188	893.639	716.868
238.986	23.323	893.259	717.048
240.001	23.334	892.629	716.524
241.015	23.306	892.147	715.960
242.030	23.575	891.599	716.545
243.045	23.651	891.121	716.400
244.059	23.765	890.719	716.475
245.074	23.630	889.533	714.915
246.088	23.270	888.631	712.677
247.103	23.486	888.613	713.469
248.117	24.086	888.090	715.397
249.132	24.283	888.274	716.275
250.147	24.294	888.004	716.038
251.161	24.559	887.070	716.282
252.176	24.538	886.248	715.472
253.190	24.465	886.119	715.013
254.205	24.619	885.587	715.135
255.220	24.566	884.994	714.381
256.234	24.481	883.828	713.037
257.249	24.457	882.975	712.193
258.263	24.433	882.412	711.577
259.278	24.466	881.670	711.047
260.293	24.475	881.489	710.877
261.307	24.610	880.442	710.504
262.322	24.264	879.734	708.496
263.336	23.534	878.229	704.323
264.351	22.378	876.242	698.085
265.366	22.562	875.493	698.154
266.380	23.717	876.471	703.452
267.395	24.127	876.335	704.906
268.409	24.052	875.367	703.766
269.424	24.278	875.070	704.359
270.439	24.187	874.424	703.419
271.453	24.407	873.755	703.684
272.468	24.533	873.569	703.969
273.482	24.548	873.569	703.964
274.497	24.253	871.912	701.405
275.512	23.753	870.932	698.591
276.526	24.165	870.989	700.194
277.541	24.311	870.564	700.366
278.555	23.958	869.932	698.408
279.570	24.018	868.815	697.686
280.585	24.115	868.263	697.560
281.599	24.112	867.560	696.924
282.614	23.533	866.297	693.581
283.628	23.431	866.282	693.111
284.643	23.909	865.660	694.417
285.657	23.559	864.903	692.385
286.672	23.374	863.413	690.409
287.687	23.880	863.538	692.419
288.701	23.897	863.280	692.216
289.716	23.547	862.420	690.105
290.730	23.476	862.128	689.533
291.745	23.407	860.555	687.947
292.760	23.424	861.110	688.398
293.774	24.554	861.150	692.754
294.789	24.942	860.574	693.731
295.803	24.872	860.102	693.018
296.818	24.957	859.220	692.575
297.833	24.496	857.961	689.718
298.847	24.231	857.563	688.317
299.862	24.595	857.435	689.555
300.876	24.696	857.451	689.899
301.891	24.686	856.304	688.876
302.906	24.355	855.423	686.834
303.920	24.492	855.139	687.071
304.935	24.788	854.815	687.886
305.949	24.701	854.101	686.919
306.964	24.373	853.276	684.936
307.979	24.553	853.174	685.485
308.993	24.786	853.416	686.512
310.008	24.927	852.193	686.005
311.022	24.578	851.451	684.011
312.037	24.483	851.109	683.315
313.052	24.304	850.041	681.713
314.066	23.452	848.334	677.029
315.081	23.128	847.858	675.353
316.095	23.960	847.595	678.259
317.110	24.644	847.635	680.838
318.125	23.757	846.323	676.346
319.139	22.665	844.420	670.617
320.154	22.593	844.203	670.111
321.168	23.505	844.978	674.135
322.183	24.192	844.745	676.498
323.197	24.443	844.687	677.344
324.212	24.559	844.432	677.522
325.227	24.600	843.629	676.973
326.241	24.489	843.033	676.015
327.256	24.433	842.070	674.972
328.270	24.412	841.152	674.097
329.285	24.317	840.486	673.142
330.300	24.006	839.797	671.360
331.314	24.330	839.589	672.355
332.329	24.559	839.490	673.081
333.343	24.692	839.069	673.184
334.358	24.789	838.487	673.023
335.373	24.819	838.381	672.990
336.387	24.890	838.309	673.140
337.402	25.033	838.338	673.642
338.416	25.025	838.054	673.321
339.431	25.184	837.481	673.400
340.446	25.299	837.100	673.465
341.460	25.100	836.569	672.235
342.475	24.979	836.095	671.340
343.489	25.022	835.633	671.070
344.504	25.394	835.311	672.144
345.519	25.366	835.374	672.031
346.533	25.556	834.394	671.893
347.548	25.514	834.052	671.401
348.562	25.527	833.467	670.920
349.577	25.344	833.231	669.987
350.592	25.300	832.533	669.203
351.606	25.443	831.476	668.826
352.621	25.256	830.743	667.479
353.635	25.257	829.849	666.709
354.650	24.542	828.276	662.733
355.665	23.542	827.097	658.024
356.679	24.021	826.682	659.411
357.694	24.510	826.454	660.981
358.708	24.482	825.758	660.262
359.723	24.864	825.509	661.416
360.738	25.198	825.387	662.494
361.752	25.357	824.663	662.442
362.767	25.469	824.726	662.848
363.781	25.763	824.362	663.579
364.796	25.878	823.989	663.642
365.810	25.754	823.764	662.946
366.825	25.830	823.093	662.629
367.840	25.566	822.089	660.791
368.854	25.198	821.334	658.774
369.869	25.152	820.769	658.095
370.883	25.241	820.818	658.400
371.898	25.158	819.950	657.345
372.913	25.263	819.697	657.465
373.927	25.389	819.419	657.647
374.942	25.471	818.997	657.551
375.956	25.516	818.802	657.498
376.971	25.714	818.590	657.994
377.986	25.870	817.604	657.713
379.000	25.717	817.121	656.709
380.015	25.650	816.751	656.110
381.029	25.735	816.124	655.859
382.044	25.838	815.630	655.777
383.059	25.704	815.260	654.935
384.073	25.900	814.505	654.983
385.088	25.771	814.007	654.057
386.102	25.515	813.595	652.737
387.117	25.530	812.874	652.157
388.132	25.426	811.327	650.480
389.146	24.811	810.226	647.315
390.161	25.086	810.557	648.518
391.175	25.612	810.372	650.213
392.190	25.099	809.625	647.705
393.205	23.929	807.427	641.670
394.219	22.635	805.243	635.220
395.234	22.240	805.608	634.027
396.248	24.050	806.436	641.147
397.263	25.517	807.640	647.334
398.278	25.409	807.010	646.386
399.292	25.128	806.574	644.966
400.307	25.195	805.908	644.619
401.321	25.218	805.710	644.487
402.336	25.697	805.509	645.989
403.350	25.921	805.646	646.845
404.365	26.205	805.303	647.531
405.380	26.604	805.044	648.696
406.394	26.676	804.229	648.239
407.409	26.474	804.021	647.292
408.423	26.460	803.579	646.828
409.438	26.526	803.135	646.647
410.453	26.632	802.541	646.493
411.467	26.516	801.939	645.537
412.482	26.597	801.627	645.517
413.496	26.640	801.495	645.505
414.511	26.598	801.214	645.073
415.526	26.569	800.903	644.661
416.540	26.451	799.939	643.411
417.555	26.284	799.118	642.098
418.569	26.120	799.038	641.395
419.584	26.118	798.488	640.889
420.599	26.053	797.681	639.956
421.613	84.989	1242.076	1309.051
422.628	72.354	1306.876	1309.184
