DTS Sentinel unit serial number:	SN413079Multiplexer serial number:	ORYXHardware model number:	OX4-SRSoftware version number:	ORYX F/W v4.00 Oryx Data Collector v3.7.2.0data status	okinstallation	princeton_trtdifferential loss correction	single-endedforward channel	channel 1reverse channel	N/Adate	2019/09/11time	11:52:11forward acquisition time	60.00reverse acquisition time	0.00gamma	496.2192k internal	0.2292k external	0.2292temperature offset calibration	0.9948default loss term (dB/km)	0.3790temperature slope calibration	1.0000multiplexer offset coefficient	1.0000multiplexer slope coefficient	1.0000fibre end	0.00T internal ref (°C)	38.94T ext. ref 1 (°C)	0.22T ext. ref 2 (°C)	37.26length (m)	temperature (°C)	Stokes	anti-Stokes-747.200	-136.229	-0.249	0.030
-746.185	165.121	-0.255	0.368
-745.171	-112.622	-0.168	0.034
-744.156	3.615	0.104	0.078
-743.142	522.804	0.147	-0.354
-742.127	-200.000	0.040	0.310
-741.112	-132.068	0.162	0.022
-740.098	-20.041	-0.173	0.109
-739.083	45.732	-0.079	-0.075
-738.069	-23.434	-0.080	-0.049
-737.054	-125.396	0.188	0.029
-736.039	16.824	-0.074	0.060
-735.025	265.246	0.097	0.174
-734.010	-60.624	0.129	0.056
-732.996	-40.229	-0.257	-0.137
-731.981	29.760	-0.142	-0.124
-730.966	-194.676	-0.267	0.002
-729.952	-55.588	-0.122	-0.056
-728.937	-143.826	-0.101	0.010
-727.923	356.735	-0.099	0.202
-726.908	-135.289	0.250	0.031
-725.894	7.147	0.109	0.083
-724.879	800.000	0.076	-0.275
-723.864	31.140	0.199	-0.174
-722.850	492.351	0.089	-0.210
-721.835	-200.000	-0.075	-0.393
-720.821	-200.000	-0.006	0.138
-719.806	-200.000	0.014	-0.101
-718.791	-56.567	0.172	-0.078
-717.777	-200.000	-0.020	0.154
-716.762	131.306	-0.136	0.179
-715.748	794.095	0.049	0.138
-714.733	800.000	0.101	-0.293
-713.718	-9.337	-0.297	-0.203
-712.704	-200.000	0.007	-0.083
-711.689	-117.083	-0.196	-0.036
-710.675	33.660	0.132	0.118
-709.660	23.404	-0.084	-0.071
-708.645	2.479	-0.203	-0.150
-707.631	6.730	0.107	0.081
-706.616	-155.471	0.190	0.013
-705.602	800.000	0.088	0.328
-704.587	102.609	0.023	-0.027
-703.572	-42.751	0.077	-0.040
-702.558	-95.363	-0.067	0.018
-701.543	-167.237	0.098	0.004
-700.529	-62.553	0.146	0.062
-699.514	-200.000	-0.011	0.167
-698.499	800.000	-0.041	-0.147
-697.485	71.752	-0.073	-0.077
-696.470	-200.000	0.028	-0.179
-695.456	-171.647	-0.056	-0.002
-694.441	104.068	0.128	-0.154
-693.426	800.000	-0.074	-0.308
-692.412	-83.444	-0.327	0.107
-691.397	-126.211	-0.408	-0.062
-690.383	-99.889	-0.227	0.058
-689.368	34.482	-0.112	-0.100
-688.354	-200.000	0.021	0.122
-687.339	-132.248	-0.178	0.023
-686.324	8.897	0.049	0.037
-685.310	-0.379	-0.058	-0.042
-684.295	-53.764	0.102	0.048
-683.281	-195.607	-0.333	-0.002
-682.266	-200.000	0.016	-0.335
-681.251	116.959	-0.128	-0.160
-680.237	-131.478	0.227	-0.031
-679.222	-135.231	0.188	0.023
-678.208	290.433	0.145	-0.269
-677.193	446.317	-0.114	-0.257
-676.178	-155.509	0.048	0.003
-675.164	554.764	-0.086	-0.212
-674.149	78.699	-0.065	-0.071
-673.135	-200.000	0.015	0.087
-672.120	-161.055	-0.282	-0.015
-671.105	157.335	0.088	0.124
-670.091	-47.706	-0.305	0.151
-669.076	-138.812	0.260	-0.029
-668.062	450.848	-0.105	0.237
-667.047	-2.178	-0.166	-0.119
-666.032	31.406	0.201	0.177
-665.018	158.599	0.123	0.174
-664.003	-41.395	0.182	-0.095
-662.989	7.817	0.141	-0.108
-661.974	733.647	0.064	0.176
-660.959	-44.344	0.150	-0.077
-659.945	800.000	0.132	-0.390
-658.930	51.807	0.286	-0.278
-657.916	-27.436	0.234	0.139
-656.901	-200.000	-0.028	-0.166
-655.886	800.000	-0.026	-0.116
-654.872	800.000	0.049	-0.155
-653.857	-50.296	0.145	0.070
-652.843	17.264	0.295	-0.239
-651.828	-81.581	-0.268	0.090
-650.814	629.608	-0.045	-0.117
-649.799	783.847	-0.049	-0.136
-648.784	-70.797	-0.163	-0.063
-647.770	-200.000	-0.020	-0.095
-646.755	-17.291	-0.172	-0.111
-645.741	612.984	0.124	0.317
-644.726	-200.000	0.041	-0.398
-643.711	-200.000	0.052	-0.425
-642.697	-23.568	-0.100	-0.061
-641.682	-181.353	-0.203	0.004
-640.668	272.801	-0.022	0.039
-639.653	101.588	0.108	-0.128
-638.638	-130.701	0.065	0.009
-637.624	-80.016	-0.502	0.172
-636.609	148.626	0.050	-0.069
-635.595	-200.000	0.022	0.289
-634.580	101.907	-0.193	-0.230
-633.565	-173.672	-0.114	0.003
-632.551	-44.165	-0.211	0.108
-631.536	-45.994	-0.249	0.125
-630.522	-173.104	-0.134	0.004
-629.507	800.000	-0.076	0.230
-628.492	-40.912	-0.263	-0.139
-627.478	-200.000	0.006	-0.064
-626.463	-200.000	0.002	-0.154
-625.449	117.659	0.052	-0.065
-624.434	-43.047	-0.264	-0.136
-623.419	20.593	-0.241	0.199
-622.405	-168.870	0.292	0.011
-621.390	272.516	0.084	0.150
-620.376	-2.791	0.323	0.230
-619.361	-76.150	-0.186	-0.067
-618.346	-200.000	-0.022	0.546
-617.332	-127.588	0.212	0.031
-616.317	205.142	-0.075	0.118
-615.303	268.491	-0.094	-0.168
-614.288	347.024	0.049	0.098
-613.273	39.599	-0.229	0.209
-612.259	165.087	-0.074	0.107
-611.244	178.649	-0.036	-0.054
-610.230	425.870	-0.100	-0.220
-609.215	-127.060	0.458	0.068
-608.201	-116.414	-0.160	-0.030
-607.186	291.173	-0.135	0.251
-606.171	-120.089	0.263	0.046
-605.157	-65.159	-0.139	-0.057
-604.142	-148.043	-0.180	-0.015
-603.128	-200.000	0.057	0.342
-602.113	-77.065	0.139	0.049
-601.098	-61.805	-0.417	-0.178
-600.084	800.000	0.049	-0.156
-599.069	100.982	-0.043	-0.051
-598.055	-200.000	0.004	-0.075
-597.040	21.998	-0.350	-0.291
-596.025	-200.000	0.027	0.445
-595.011	223.923	0.326	-0.535
-593.996	-149.438	-0.243	0.020
-592.982	-151.999	0.041	0.003
-591.967	-200.000	0.023	0.307
-590.952	-76.695	0.042	0.015
-589.938	-99.701	0.178	0.045
-588.923	110.688	-0.219	-0.268
-587.909	800.000	-0.077	-0.233
-586.894	-113.027	0.290	-0.058
-585.879	-143.697	-0.088	0.009
-584.865	-125.556	0.115	-0.018
-583.850	-33.667	0.083	-0.047
-582.836	434.698	-0.090	0.199
-581.821	-95.772	-0.198	-0.054
-580.806	779.658	0.038	0.105
-579.792	340.264	-0.084	-0.166
-578.777	-117.099	0.239	-0.044
-577.763	94.401	-0.269	-0.311
-576.748	-200.000	0.059	-0.282
-575.733	228.297	-0.159	0.263
-574.719	291.279	0.022	0.040
-573.704	-200.000	-0.015	0.102
-572.690	800.000	-0.068	-0.220
-571.675	281.796	0.024	-0.044
-570.661	358.867	-0.186	0.378
-569.646	-160.077	-0.234	0.013
-568.631	-150.240	-0.444	0.035
-567.617	-35.356	0.042	-0.023
-566.602	800.000	0.039	0.151
-565.588	144.795	0.188	0.255
-564.573	-200.000	0.037	0.216
-563.558	-200.000	0.014	0.084
-562.544	800.000	-0.075	0.256
-561.529	-200.000	-0.047	-0.349
-560.515	800.000	0.050	-0.166
-559.500	14.265	-0.249	0.197
-558.485	-139.822	0.305	-0.033
-557.471	29.168	-0.226	-0.195
-556.456	-21.018	0.011	0.007
-555.442	800.000	0.092	0.294
-554.427	-200.000	-0.016	0.154
-553.412	-52.616	0.184	-0.086
-552.398	323.723	0.113	0.220
-551.383	104.305	0.227	-0.271
-550.369	-40.906	0.286	-0.150
-549.354	-31.026	0.202	-0.116
-548.339	800.000	0.047	-0.132
-547.325	-143.288	0.223	0.022
-546.310	800.000	-0.043	-0.124
-545.296	367.112	-0.172	-0.352
-544.281	-38.356	-0.220	-0.118
-543.266	177.453	0.320	-0.473
-542.252	-81.208	-0.283	0.095
-541.237	-14.002	0.126	0.083
-540.223	-47.178	-0.066	0.033
-539.208	499.424	-0.071	0.166
-538.193	800.000	0.078	0.256
-537.179	507.208	0.151	-0.355
-536.164	10.366	0.378	-0.293
-535.150	-180.331	-0.138	-0.003
-534.135	220.460	-0.194	-0.316
-533.121	-102.413	-0.271	-0.066
-532.106	-31.145	-0.033	-0.019
-531.091	-200.000	0.012	0.142
-530.077	-200.000	-0.026	-0.143
-529.062	-127.796	0.131	-0.019
-528.048	54.286	0.268	0.262
-527.033	-66.629	-0.054	0.022
-526.018	-180.700	-0.197	-0.004
-525.004	-200.000	-0.043	-0.263
-523.989	-200.000	-0.003	0.479
-522.975	800.000	0.091	-0.378
-521.960	800.000	-0.031	0.126
-520.945	-72.908	0.173	-0.065
-519.931	181.261	-0.146	-0.217
-518.916	-185.587	-0.148	0.002
-517.902	-101.957	0.213	0.052
-516.887	620.736	-0.133	0.339
-515.872	57.397	-0.222	0.220
-514.858	87.394	0.089	-0.100
-513.843	-100.402	-0.118	0.030
-512.829	191.275	-0.058	0.089
-511.814	53.554	0.084	0.082
-510.799	-200.000	0.011	0.077
-509.785	800.000	0.153	0.431
-508.770	775.819	-0.069	-0.192
-507.756	-13.499	0.239	0.157
-506.741	336.639	-0.154	-0.303
-505.726	152.079	0.115	-0.158
-504.712	-86.779	-0.011	-0.003
-503.697	-54.089	-0.248	-0.114
-502.683	215.977	-0.059	-0.096
-501.668	27.348	0.146	-0.124
-500.653	-133.849	0.341	0.043
-499.639	-134.047	-0.229	0.029
-498.624	170.428	-0.113	-0.164
-497.610	-127.220	0.342	-0.051
-496.595	-74.243	0.134	-0.049
-495.581	-129.075	-0.198	-0.028
-494.566	78.953	0.105	0.114
-493.551	26.767	0.040	-0.034
-492.537	450.159	-0.177	0.397
-491.522	593.289	0.072	-0.181
-490.508	-49.960	-0.315	-0.152
-489.493	389.835	-0.038	-0.080
-488.478	-200.000	0.010	0.169
-487.464	-95.134	-0.268	0.073
-486.449	265.340	-0.143	0.252
-485.435	800.000	-0.065	-0.241
-484.420	302.888	-0.173	-0.325
-483.405	64.807	0.131	-0.133
-482.391	341.405	-0.082	0.163
-481.376	800.000	0.119	-0.382
-480.362	-140.878	-0.195	-0.020
-479.347	-87.034	0.255	0.079
-478.332	-200.000	-0.012	-0.074
-477.318	-89.841	-0.372	0.110
-476.303	800.000	0.027	-0.079
-475.289	-47.776	-0.249	0.122
-474.274	-200.000	0.048	-0.468
-473.259	24.791	-0.220	-0.185
-472.245	-179.168	0.212	0.005
-471.230	-91.715	0.064	0.018
-470.216	-200.000	0.023	-0.232
-469.201	285.306	0.144	-0.263
-468.186	384.833	-0.008	0.018
-467.172	-200.000	-0.031	-0.137
-466.157	406.699	0.042	-0.089
-465.143	672.848	-0.035	-0.092
-464.128	-156.883	0.188	-0.012
-463.113	207.689	0.039	0.061
-462.099	160.344	-0.135	-0.191
-461.084	-30.040	0.383	0.221
-460.070	335.794	0.038	0.075
-459.055	-151.906	0.129	-0.010
-458.040	80.111	0.269	0.292
-457.026	-146.177	0.289	-0.026
-456.011	-92.159	0.063	0.018
-454.997	-104.576	-0.145	-0.034
-453.982	800.000	0.065	-0.271
-452.968	-122.964	0.082	-0.013
-451.953	-142.048	-0.254	0.026
-450.938	-132.478	0.059	-0.008
-449.924	-121.995	0.147	-0.024
-448.909	640.635	-0.069	-0.177
-447.895	-158.312	-0.153	-0.009
-446.880	-123.200	-0.285	0.046
-445.865	-113.640	0.066	-0.013
-444.851	183.524	-0.086	0.128
-443.836	49.990	-0.257	0.246
-442.822	-200.000	-0.026	-0.238
-441.807	800.000	0.058	0.187
-440.792	323.053	-0.073	0.141
-439.778	800.000	-0.115	0.418
-438.763	-200.000	-0.026	0.220
-437.749	184.914	0.072	0.108
-436.734	12.961	-0.142	-0.111
-435.719	-10.672	0.247	-0.165
-434.705	-90.544	0.106	0.031
-433.690	800.000	-0.062	-0.241
-432.676	-75.368	-0.139	-0.050
-431.661	180.024	-0.058	0.086
-430.646	-50.891	-0.202	0.096
-429.632	633.832	0.055	-0.141
-428.617	182.442	0.122	0.182
-427.603	-48.635	0.085	0.041
-426.588	198.269	0.174	-0.268
-425.573	-137.517	0.173	0.020
-424.559	-129.717	0.210	0.029
-423.544	-200.000	0.025	-0.307
-422.530	101.809	0.123	-0.145
-421.515	112.281	0.260	-0.317
-420.500	800.000	0.048	-0.182
-419.486	800.000	-0.133	-0.370
-418.471	706.615	-0.070	-0.187
-417.457	-114.813	0.150	0.029
-416.442	-200.000	0.010	0.369
-415.428	-154.927	0.357	0.024
-414.413	121.298	0.163	0.206
-413.398	-200.000	0.040	0.533
-412.384	401.777	-0.102	-0.216
-411.369	-200.000	-0.021	-0.149
-410.355	1.352	-0.033	0.024
-409.340	-200.000	-0.029	0.348
-408.325	53.769	-0.368	-0.357
-407.311	-75.964	-0.107	-0.038
-406.296	-28.280	-0.033	-0.019
-405.282	-200.000	-0.022	-0.411
-404.267	-113.912	0.143	0.028
-403.252	-200.000	0.019	0.367
-402.238	-18.883	-0.407	0.256
-401.223	-35.020	0.160	0.088
-400.209	188.096	-0.106	-0.160
-399.194	-200.000	0.047	0.317
-398.179	-200.000	0.037	0.367
-397.165	16.738	-0.111	0.088
-396.150	800.000	-0.060	-0.233
-395.136	0.977	0.103	0.075
-394.121	165.433	0.070	0.101
-393.106	344.118	0.075	-0.148
-392.092	-177.529	-0.106	-0.003
-391.077	321.025	-0.075	0.144
-390.063	516.792	0.014	0.033
-389.048	-104.498	0.186	0.043
-388.033	33.917	-0.019	-0.017
-387.019	800.000	-0.145	0.408
-386.004	-21.437	0.247	-0.152
-384.990	-80.477	-0.205	0.069
-383.975	-200.000	0.032	-0.362
-382.960	-57.797	0.193	-0.085
-381.946	260.082	0.219	-0.382
-380.931	86.645	0.067	0.075
-379.917	800.000	-0.099	0.374
-378.902	214.853	0.142	-0.228
-377.888	0.716	0.055	-0.039
-376.873	800.000	0.036	0.109
-375.858	-5.353	0.236	0.163
-374.844	800.000	-0.033	-0.097
-373.829	600.288	-0.127	0.318
-372.815	-200.000	-0.004	-0.020
-371.800	522.860	0.093	0.220
-370.785	-85.170	-0.236	-0.075
-369.771	23.376	0.203	0.168
-368.756	19.914	-0.119	0.097
-367.742	70.101	0.273	-0.284
-366.727	800.000	0.016	0.056
-365.712	-148.703	0.211	0.017
-364.698	-108.341	-0.278	-0.060
-363.683	-143.524	-0.175	0.017
-362.669	157.971	0.180	0.252
-361.654	-36.897	0.095	-0.051
-360.639	-22.236	-0.093	-0.057
-359.625	410.657	0.079	-0.170
-358.610	800.000	0.114	-0.334
-357.596	132.547	-0.221	-0.287
-356.581	800.000	-0.059	0.218
-355.566	-4.335	0.135	-0.094
-354.552	800.000	0.102	-0.293
-353.537	486.857	0.067	0.155
-352.523	96.217	0.159	0.183
-351.508	-102.018	-0.206	-0.050
-350.493	143.788	-0.114	-0.153
-349.479	97.249	-0.179	-0.207
-348.464	-51.585	-0.102	-0.048
-347.450	-70.711	0.018	0.007
-346.435	-200.000	0.081	0.556
-345.420	-200.000	0.001	-0.090
-344.406	139.969	0.065	0.087
-343.391	164.353	0.070	-0.099
-342.377	88.800	-0.100	-0.112
-341.362	116.276	-0.063	0.077
-340.348	79.459	0.163	-0.176
-339.333	-123.601	-0.117	-0.019
-338.318	-118.102	0.356	-0.064
-337.304	-82.956	-0.034	-0.011
-336.289	-15.995	-0.027	-0.018
-335.275	800.000	0.094	-0.277
-334.260	-84.291	-0.214	-0.068
-333.245	-151.896	-0.029	-0.002
-332.231	180.163	-0.165	0.243
-331.216	800.000	0.083	0.286
-330.202	-126.696	-0.292	0.044
-329.187	-154.397	0.361	-0.024
-328.172	-39.414	-0.188	-0.099
-327.158	117.986	-0.112	-0.139
-326.143	-200.000	0.015	-0.133
-325.129	372.941	0.029	0.059
-324.114	111.088	0.202	-0.245
-323.099	-145.436	-0.111	-0.010
-322.085	309.549	-0.098	-0.185
-321.070	100.613	0.043	0.050
-320.056	800.000	-0.060	0.207
-319.041	310.807	0.075	0.142
-318.026	-97.340	0.244	-0.064
-317.012	-138.145	-0.275	0.031
-315.997	86.327	0.022	0.025
-314.983	347.290	0.107	-0.213
-313.968	-91.103	0.319	0.092
-312.953	264.739	-0.069	-0.120
-311.939	-52.490	-0.344	0.160
-310.924	-188.725	-0.114	0.001
-309.910	-200.000	-0.022	0.145
-308.895	-125.267	-0.245	-0.038
-307.880	276.748	-0.101	-0.180
-306.866	375.706	0.185	-0.380
-305.851	509.893	-0.117	0.274
-304.837	-92.995	0.277	-0.078
-303.822	-200.000	-0.004	0.025
-302.807	3.049	-0.087	-0.063
-301.793	-63.066	-0.178	0.074
-300.778	91.977	0.154	0.175
-299.764	-200.000	-0.004	0.156
-298.749	-200.000	0.042	0.261
-297.735	800.000	0.077	0.306
-296.720	-67.500	-0.098	0.039
-295.705	244.925	-0.135	0.228
-294.691	11.683	0.150	0.116
-293.676	31.634	-0.123	0.106
-292.662	628.701	0.119	0.304
-291.647	716.049	-0.049	-0.131
-290.632	-89.993	0.206	0.060
-289.618	392.196	-0.040	-0.084
-288.603	402.706	-0.088	0.186
-287.589	307.573	0.165	-0.309
-286.574	-200.000	0.022	-0.336
-285.559	-29.932	0.137	-0.079
-284.545	-82.965	0.343	-0.111
-283.530	695.916	-0.124	-0.328
-282.516	130.293	0.167	0.215
-281.501	-125.477	0.270	-0.041
-280.486	-76.451	-0.163	-0.058
-279.472	-200.000	-0.002	-0.180
-278.457	-188.803	-0.079	-0.001
-277.443	35.975	-0.096	-0.085
-276.428	-1.160	-0.186	-0.132
-275.413	-200.000	0.004	0.142
-274.399	-54.293	0.303	0.138
-273.384	-29.265	-0.396	-0.228
-272.370	760.216	-0.065	-0.178
-271.355	-179.376	0.143	0.003
-270.340	147.289	-0.164	0.222
-269.326	25.673	-0.186	0.156
-268.311	-183.376	-0.165	0.003
-267.297	-200.000	-0.071	-0.457
-266.282	-63.585	-0.547	-0.226
-265.267	269.154	-0.057	0.101
-264.253	-69.993	-0.189	-0.072
-263.238	-66.664	0.231	0.092
-262.224	-200.000	-0.004	0.369
-261.209	23.642	-0.049	-0.041
-260.195	-164.187	-0.239	0.011
-259.180	63.057	-0.163	-0.164
-258.165	-126.140	0.211	0.032
-257.151	3.465	-0.261	0.191
-256.136	-33.625	-0.159	0.088
-255.122	-200.000	0.019	0.178
-254.107	-47.434	0.207	-0.101
-253.092	-73.974	0.243	-0.089
-252.078	329.737	0.196	-0.378
-251.063	-200.000	-0.008	0.110
-250.049	-21.743	-0.205	-0.125
-249.034	-200.000	-0.001	-0.127
-248.019	-17.037	0.076	-0.048
-247.005	381.748	-0.134	0.276
-245.990	-200.000	0.002	0.110
-244.976	-200.000	-0.036	0.292
-243.961	248.151	0.117	0.199
-242.946	-65.640	0.261	0.105
-241.932	-102.607	0.210	-0.050
-240.917	-154.173	-0.442	0.030
-239.903	-117.075	0.213	-0.039
-238.888	800.000	0.057	0.199
-237.873	-78.581	0.243	0.083
-236.859	173.910	-0.182	0.264
-235.844	-67.969	-0.076	0.030
-234.830	800.000	-0.020	0.065
-233.815	153.064	0.117	-0.161
-232.800	-27.605	0.357	0.208
-231.786	-34.994	0.170	-0.093
-230.771	-50.289	0.186	0.088
-229.757	38.844	0.126	-0.113
-228.742	-127.227	0.180	-0.026
-227.727	205.668	0.215	0.335
-226.713	52.185	-0.193	0.185
-225.698	-69.626	0.149	0.057
-224.684	-0.266	0.111	-0.079
-223.669	-4.655	0.355	0.246
-222.655	320.741	-0.146	-0.278
-221.640	-200.000	-0.009	-0.192
-220.625	-62.205	0.352	-0.147
-219.611	-50.411	0.198	0.094
-218.596	234.188	0.063	0.104
-217.582	322.737	-0.042	0.080
-216.567	-3.197	-0.276	0.193
-215.552	800.000	-0.056	-0.187
-214.538	70.951	0.163	0.169
-213.523	-200.000	0.012	0.377
-212.509	259.367	-0.045	0.077
-211.494	749.860	-0.077	-0.208
-210.479	0.250	0.125	0.090
-209.465	439.560	-0.034	-0.074
-208.450	254.321	0.176	-0.301
-207.436	-148.025	-0.530	-0.044
-206.421	98.516	0.123	0.143
-205.406	-156.387	-0.231	0.014
-204.392	-25.193	0.349	-0.207
-203.377	664.435	0.095	0.247
-202.363	18.412	-0.350	0.280
-201.348	71.015	0.131	-0.136
-200.333	207.325	-0.070	-0.110
-199.319	230.863	-0.079	-0.130
-198.304	48.803	0.179	-0.168
-197.290	493.049	-0.052	0.120
-196.275	74.259	0.052	0.055
-195.260	11.576	-0.113	-0.087
-194.246	34.163	0.290	-0.253
-193.231	-118.016	-0.285	-0.051
-192.217	-200.000	0.033	0.293
-191.202	-200.000	0.039	-0.279
-190.187	-141.394	0.151	-0.015
-189.173	-87.032	0.190	0.058
-188.158	222.087	-0.170	-0.274
-187.144	-200.000	0.012	0.056
-186.129	-96.738	-0.106	-0.028
-185.114	118.373	-0.187	-0.231
-184.100	-2.753	0.208	0.145
-183.085	-151.478	-0.093	-0.007
-182.071	301.271	0.121	-0.224
-181.056	-17.558	-0.362	0.228
-180.042	743.824	-0.125	0.337
-179.027	-148.039	0.237	-0.020
-178.012	-102.557	0.050	0.012
-176.998	-44.539	0.277	0.139
-175.983	136.428	0.052	0.067
-174.969	631.875	-0.066	0.167
-173.954	-126.613	0.173	0.026
-172.939	33.525	0.085	0.074
-171.925	-161.607	0.308	0.016
-170.910	-2.327	0.051	-0.036
-169.896	-33.240	0.341	0.189
-168.881	800.000	0.094	0.270
-167.866	393.416	0.034	-0.071
-166.852	80.179	0.399	0.429
-165.837	-200.000	0.042	0.681
-164.823	-200.000	-0.018	0.373
-163.808	260.491	-0.171	-0.297
-162.793	57.301	-0.031	0.030
-161.779	-44.986	-0.103	0.051
-160.764	116.182	-0.190	-0.232
-159.750	-155.350	-0.136	-0.009
-158.735	-36.370	-0.113	-0.061
-157.720	-200.000	0.054	-0.363
-156.706	91.411	0.082	0.093
-155.691	-188.196	-0.400	0.005
-154.677	-119.227	0.186	-0.032
-153.662	-25.222	0.054	0.032
-152.647	-60.478	-0.295	-0.125
-151.633	-69.062	0.130	-0.050
-150.618	-154.500	0.520	0.035
-149.604	42.820	-0.190	-0.173
-148.589	-171.229	0.293	0.010
-147.574	180.849	0.155	0.227
-146.560	116.969	0.120	0.147
-145.545	-128.206	-0.284	-0.041
-144.531	217.621	0.105	0.167
-143.516	-18.952	0.148	-0.092
-142.502	-200.000	0.059	0.415
-141.487	232.823	0.316	-0.519
-140.472	800.000	-0.059	0.235
-139.458	-200.000	-0.007	0.262
-138.443	-75.446	0.141	0.050
-137.429	-88.157	-0.365	-0.109
-136.414	-12.934	0.288	-0.187
-135.399	-58.905	-0.233	0.101
-134.385	93.917	0.116	0.131
-133.370	-12.676	-0.226	-0.147
-132.356	27.898	-0.216	-0.182
-131.341	-200.000	0.058	-0.277
-130.326	-59.602	0.094	-0.040
-129.312	6.963	0.210	-0.156
-128.297	-139.172	-0.189	-0.020
-127.283	800.000	-0.028	-0.087
-126.268	-23.931	-0.188	0.112
-125.253	-200.000	-0.011	-0.079
-124.239	129.470	0.071	0.090
-123.224	125.712	-0.127	-0.160
-122.210	-84.881	0.119	0.037
-121.195	28.194	0.193	-0.162
-120.180	191.471	0.082	0.124
-119.166	240.605	0.013	-0.021
-118.151	58.415	0.209	0.205
-117.137	-108.131	0.436	0.094
-116.122	57.888	0.147	0.143
-115.107	246.179	-0.057	0.096
-114.093	-200.000	-0.048	0.211
-113.078	12.873	0.106	0.082
-112.064	-200.000	-0.031	-0.256
-111.049	-6.193	-0.099	0.067
-110.034	-115.653	0.128	0.024
-109.020	324.864	0.035	0.066
-108.005	108.985	-0.067	-0.080
-106.991	-92.762	0.341	-0.095
-105.976	-100.639	0.260	0.064
-104.962	-200.000	0.024	0.218
-103.947	-17.408	0.292	-0.183
-102.932	15.608	-0.176	0.138
-101.918	175.322	-0.065	-0.094
-100.903	105.452	-0.187	-0.220
-99.889	-16.819	0.131	0.083
-98.874	-91.345	-0.147	0.042
-97.859	-140.813	-0.247	-0.025
-96.845	-200.000	-0.017	-0.131
-95.830	-139.284	0.251	-0.027
-94.816	42.804	0.088	0.080
-93.801	-129.941	-0.123	-0.017
-92.786	238.234	-0.086	0.143
-91.772	71.218	0.135	0.140
-90.757	-29.128	0.319	0.183
-89.743	800.000	0.089	0.261
-88.728	800.000	0.070	-0.301
-87.713	-200.000	0.011	-0.171
-86.699	-127.143	-0.236	0.034
-85.684	800.000	0.139	-0.432
-84.670	143.510	-0.234	0.311
-83.655	-200.000	0.014	0.152
-82.640	-95.999	-0.218	0.058
-81.626	-87.384	0.073	-0.022
-80.611	175.101	0.023	-0.033
-79.597	545.159	-0.080	-0.190
-78.582	52.743	0.156	-0.149
-77.567	-200.000	-0.004	0.164
-76.553	-200.000	0.036	0.432
-75.538	-200.000	-0.027	0.216
-74.524	71.905	-0.156	0.162
-73.509	-56.301	-0.176	0.078
-72.494	-92.148	0.078	-0.022
-71.480	-21.079	0.184	-0.112
-70.465	207.123	-0.064	0.099
-69.451	-200.000	0.000	0.205
-68.436	-200.000	-0.016	0.078
-67.422	-71.377	-0.164	-0.061
-66.407	250.832	0.066	0.111
-65.392	-96.954	0.122	0.032
-64.378	-200.000	-0.002	-0.180
-63.363	5.333	0.355	0.261
-62.349	-200.000	-0.017	0.098
-61.334	103.307	-0.463	-0.541
-60.319	83.993	0.229	0.249
-59.305	-200.000	-0.187	-0.873
-58.290	87.252	0.449	0.494
-57.276	-200.000	0.429	1.952
-56.261	-200.000	78.905	492.676
-55.246	555.030	1370.123	3285.782
-54.232	179.144	2615.079	3811.451
-53.217	123.155	2257.121	2817.267
-52.203	50.344	1701.480	1602.098
-51.188	42.396	1428.463	1294.003
-50.173	39.030	1383.149	1231.841
-49.159	57.617	1419.516	1382.290
-48.144	63.379	1437.990	1436.658
-47.130	42.838	1401.141	1271.841
-46.115	38.980	1384.981	1232.961
-45.100	38.853	1379.797	1227.502
-44.086	38.715	1377.500	1224.545
-43.071	38.654	1375.167	1222.041
-42.057	38.711	1372.925	1220.360
-41.042	38.831	1371.118	1219.451
-40.027	38.830	1369.801	1218.222
-39.013	38.832	1367.414	1216.067
-37.998	38.829	1365.482	1214.278
-36.984	38.865	1363.917	1213.064
-35.969	39.010	1361.840	1212.065
-34.954	39.058	1360.019	1210.691
-33.940	38.938	1359.112	1209.097
-32.925	39.122	1357.021	1208.319
-31.911	38.959	1356.582	1206.880
-30.896	39.083	1354.714	1205.927
-29.881	39.071	1353.278	1204.528
-28.867	39.021	1351.650	1202.723
-27.852	39.020	1350.426	1201.581
-26.838	38.981	1349.158	1200.168
-25.823	38.950	1347.474	1198.433
-24.809	39.081	1345.858	1197.750
-23.794	39.038	1344.762	1196.462
-22.779	39.099	1342.995	1195.216
-21.765	39.105	1341.842	1194.177
-20.750	39.023	1340.504	1192.439
-19.736	38.855	1339.175	1190.194
-18.721	38.796	1338.048	1188.786
-17.706	38.908	1336.891	1188.390
-16.692	38.838	1335.459	1186.648
-15.677	38.850	1334.004	1185.377
-14.663	38.831	1333.269	1184.561
-13.648	38.875	1332.216	1183.845
-12.633	38.840	1331.180	1182.667
-11.619	38.950	1330.062	1182.289
-10.604	38.844	1329.583	1181.182
-9.590	38.905	1328.406	1180.454
-8.575	38.817	1327.414	1178.999
-7.560	38.912	1326.092	1178.347
-6.546	38.945	1325.038	1177.560
-5.531	38.857	1324.994	1176.948
-4.517	38.825	1323.952	1175.784
-3.502	38.961	1322.848	1175.569
-2.487	38.977	1321.770	1174.660
-1.473	38.989	1317.785	1171.142
-0.458	38.259	1303.311	1153.925
0.556	33.554	1283.915	1116.733
1.571	30.171	1288.186	1100.315
2.586	29.081	1303.675	1106.895
3.600	27.391	1291.747	1086.594
4.615	18.782	1210.961	970.143
5.629	6.212	1124.309	834.326
6.644	0.619	1100.197	787.268
7.659	0.143	1096.935	782.393
8.673	0.138	1095.342	781.160
9.688	-0.028	1094.638	779.726
10.702	0.513	1093.595	781.717
11.717	8.154	1105.184	829.811
12.731	18.977	1120.779	898.279
13.746	22.430	1125.124	919.750
14.761	22.339	1124.410	918.613
15.775	22.230	1123.791	917.455
16.790	22.023	1123.114	915.740
17.804	21.857	1122.622	914.394
18.819	22.059	1121.666	914.589
19.834	22.080	1121.008	914.078
20.848	22.170	1120.302	913.892
21.863	22.064	1120.131	913.117
22.877	22.119	1119.255	912.611
23.892	21.913	1119.025	911.272
24.907	22.096	1118.026	911.328
25.921	21.930	1117.352	909.838
26.936	22.012	1115.326	908.531
27.950	22.021	1113.510	907.017
28.965	21.826	1111.986	904.691
29.980	22.065	1110.189	904.379
30.994	22.096	1109.825	904.161
32.009	22.082	1108.233	902.711
33.023	21.949	1107.069	901.000
34.038	22.031	1106.146	900.592
35.053	22.085	1105.580	900.329
36.067	22.046	1104.459	899.135
37.082	22.184	1104.041	899.422
38.096	22.357	1103.033	899.403
39.111	22.330	1102.506	898.758
40.126	22.273	1100.847	897.034
41.140	21.923	1098.588	893.334
42.155	21.666	1097.448	891.022
43.169	21.676	1096.648	890.342
44.184	21.713	1095.668	889.657
45.199	21.746	1094.236	888.584
46.213	21.645	1093.416	887.328
47.228	21.851	1092.714	887.720
48.242	21.896	1091.884	887.195
49.257	21.995	1091.101	886.978
50.271	22.127	1090.308	886.924
51.286	22.115	1089.490	886.118
52.301	22.146	1088.728	885.580
53.315	21.939	1087.439	883.411
54.330	22.086	1086.479	883.293
55.344	22.028	1086.067	882.584
56.359	21.902	1084.819	880.861
57.374	21.767	1084.122	879.537
58.388	21.918	1083.063	879.360
59.403	21.866	1082.032	878.184
60.417	21.692	1080.965	876.372
61.432	21.685	1080.800	876.125
62.447	21.956	1079.843	876.626
63.461	21.889	1079.444	875.889
64.476	21.872	1078.005	874.561
65.490	21.620	1076.909	872.337
66.505	21.876	1076.289	873.031
67.520	21.820	1075.985	872.430
68.534	21.649	1074.863	870.593
69.549	21.305	1073.474	867.680
70.563	21.435	1072.414	867.396
71.578	21.404	1071.840	866.700
72.593	21.116	1070.944	864.470
73.607	21.295	1070.124	864.619
74.622	21.563	1070.164	865.899
75.636	21.666	1069.099	865.473
76.651	21.571	1068.068	864.090
77.666	21.449	1067.313	862.804
78.680	21.548	1066.706	862.720
79.695	21.588	1066.014	862.284
80.709	21.697	1065.270	862.143
81.724	21.610	1064.462	860.982
82.739	21.630	1063.878	860.535
83.753	22.172	1062.933	862.355
84.768	22.310	1062.441	862.554
85.782	22.358	1061.527	861.974
86.797	22.223	1060.203	860.159
87.812	22.161	1059.224	858.987
88.826	22.289	1058.348	858.826
89.841	22.307	1057.483	858.134
90.855	22.212	1056.644	856.917
91.870	22.180	1055.632	855.861
92.884	22.101	1054.500	854.488
93.899	22.140	1053.325	853.647
94.914	22.306	1052.330	853.571
95.928	22.054	1051.542	851.633
96.943	21.822	1050.447	849.549
97.957	21.596	1049.168	847.346
98.972	21.483	1047.790	845.612
99.987	21.761	1047.116	846.336
101.001	21.959	1046.515	846.731
102.016	22.005	1045.817	846.314
103.030	21.878	1045.119	845.060
104.045	21.743	1043.790	843.260
105.060	21.673	1042.744	842.003
106.074	21.809	1042.120	842.078
107.089	22.142	1041.639	843.215
108.103	21.997	1040.502	841.527
109.118	21.808	1038.835	839.199
110.133	21.860	1037.999	838.699
111.147	21.543	1036.852	836.183
112.162	21.548	1035.434	834.988
113.176	21.714	1035.112	835.448
114.191	21.630	1034.349	834.357
115.206	21.352	1033.136	831.979
116.220	21.313	1032.272	831.026
117.235	21.571	1031.260	831.362
118.249	21.402	1030.519	829.888
119.264	21.454	1029.377	829.142
120.279	21.564	1028.438	828.834
121.293	21.562	1028.115	828.490
122.308	21.623	1026.610	827.496
123.322	21.479	1025.572	825.902
124.337	21.461	1024.148	824.600
125.352	20.817	1022.550	820.210
126.366	20.942	1021.402	819.801
127.381	21.556	1022.051	823.138
128.395	22.035	1021.168	824.607
129.410	22.220	1019.767	824.267
130.424	21.953	1019.333	822.593
131.439	21.934	1018.263	821.568
132.454	21.943	1017.765	821.135
133.468	21.941	1016.613	820.125
134.483	22.157	1015.399	820.082
135.497	22.219	1014.901	819.893
136.512	22.356	1013.850	819.613
137.527	22.300	1013.096	818.668
138.541	22.280	1012.676	818.163
139.556	22.218	1012.030	817.281
140.570	22.387	1011.184	817.312
141.585	22.402	1009.811	816.197
142.600	22.391	1008.557	815.064
143.614	22.572	1008.052	815.421
144.629	22.591	1007.363	814.879
145.643	22.425	1005.834	812.804
146.658	22.268	1004.656	811.054
147.673	22.241	1003.347	809.800
148.687	22.053	1002.428	808.124
149.702	22.120	1001.364	807.501
150.716	22.219	1000.016	806.800
151.731	22.183	999.876	806.448
152.746	22.296	999.375	806.490
153.760	22.522	998.280	806.572
154.775	22.436	998.011	805.886
155.789	22.347	996.955	804.555
156.804	22.378	995.638	803.565
157.819	22.505	995.270	803.777
158.833	22.373	994.940	802.835
159.848	22.460	993.490	801.991
160.862	22.499	992.043	800.931
161.877	22.460	990.904	799.765
162.892	22.417	990.250	798.971
163.906	22.329	989.302	797.735
164.921	22.475	987.841	797.145
165.935	22.539	986.666	796.419
166.950	22.401	986.167	795.321
167.964	22.396	985.586	794.758
168.979	22.303	983.876	792.892
169.994	22.232	983.131	791.902
171.008	22.487	982.741	792.662
172.023	22.495	981.739	791.820
173.037	22.176	980.965	789.694
174.052	22.133	979.691	788.407
175.067	22.062	979.139	787.573
176.081	22.236	979.050	788.212
177.096	22.264	977.904	787.344
178.110	21.967	976.841	785.090
179.125	21.753	975.944	783.343
180.140	21.898	975.646	783.684
181.154	21.943	975.347	783.575
182.169	22.340	975.282	785.225
183.183	22.437	974.651	785.079
184.198	22.270	973.642	783.456
185.213	22.363	973.078	783.346
186.227	22.399	972.356	782.854
187.242	22.458	971.430	782.304
188.256	22.493	970.684	781.788
189.271	22.539	969.954	781.336
190.286	22.330	968.533	779.197
191.300	21.590	967.379	774.923
192.315	20.863	965.960	770.506
193.329	20.962	965.337	770.376
194.344	21.641	965.709	773.607
195.359	22.198	965.793	776.064
196.373	22.425	965.180	776.504
197.388	22.087	964.642	774.512
198.402	22.280	963.781	774.602
199.417	22.213	963.312	773.865
200.432	22.110	962.270	772.506
201.446	21.828	961.274	770.397
202.461	21.985	960.657	770.525
203.475	21.073	958.947	765.086
204.490	20.413	957.521	760.993
205.504	21.245	957.943	764.906
206.519	21.844	957.691	767.255
207.534	21.965	957.285	767.394
208.548	22.494	957.113	769.498
209.563	22.089	956.434	767.116
210.577	22.163	955.165	766.352
211.592	22.479	954.814	767.379
212.607	22.429	954.235	766.629
213.621	22.519	953.493	766.358
214.636	22.459	952.910	765.562
215.650	22.526	951.641	764.763
216.665	22.601	951.343	764.782
217.680	22.538	950.341	763.636
218.694	21.892	949.631	760.200
219.709	21.900	948.724	759.439
220.723	22.214	948.150	760.274
221.738	22.271	947.539	759.963
222.753	22.276	947.030	759.509
223.767	22.395	946.292	759.361
224.782	22.618	945.717	759.794
225.796	22.619	945.329	759.419
226.811	21.863	943.672	754.768
227.826	21.434	941.996	751.517
228.840	21.431	941.987	751.431
229.855	21.566	941.416	751.489
230.869	21.136	940.104	748.532
231.884	21.614	939.990	750.424
232.899	22.281	940.440	753.577
233.913	22.297	939.386	752.735
234.928	22.259	939.054	752.240
235.942	22.201	937.870	750.974
236.957	21.961	936.933	749.134
237.972	21.901	936.566	748.517
238.986	22.024	935.849	748.406
240.001	22.071	935.303	748.103
241.015	22.130	934.529	747.669
242.030	22.288	934.130	747.953
243.045	22.427	933.890	748.288
244.059	22.502	933.366	748.118
245.074	22.291	932.242	746.255
246.088	21.940	931.496	744.107
247.103	22.266	930.904	744.946
248.117	22.773	931.290	747.337
249.132	22.904	930.702	747.356
250.147	23.089	930.006	747.513
251.161	23.110	929.851	747.409
252.176	23.087	929.190	746.717
253.190	23.349	928.072	746.857
254.205	23.368	927.638	746.520
255.220	23.337	926.931	745.753
256.234	23.242	926.519	744.956
257.249	23.084	925.519	743.425
258.263	23.156	924.815	743.095
259.278	23.146	924.440	742.686
260.293	23.124	923.825	742.032
261.307	23.151	922.864	741.310
262.322	22.940	922.129	739.770
263.336	22.209	920.111	735.030
264.351	21.096	918.324	728.892
265.366	21.264	918.009	729.279
266.380	22.354	918.512	734.163
267.395	22.894	917.978	735.921
268.409	22.664	917.856	734.799
269.424	22.932	916.966	735.138
270.439	23.015	916.334	734.910
271.453	23.185	915.513	734.895
272.468	23.176	915.353	734.661
273.482	23.303	915.009	734.848
274.497	22.806	913.767	731.729
275.512	22.466	912.489	729.229
276.526	22.809	912.731	730.780
277.541	23.030	912.511	731.453
278.555	22.611	911.759	729.053
279.570	22.627	910.319	727.906
280.585	22.872	909.949	728.553
281.599	22.760	908.801	727.111
282.614	22.173	907.699	723.746
283.628	22.189	907.372	723.489
284.643	22.643	906.934	724.942
285.657	22.271	905.535	722.232
286.672	21.941	904.797	720.227
287.687	22.458	905.155	722.571
288.701	22.470	904.552	722.071
289.716	22.318	903.817	720.800
290.730	22.333	902.617	719.839
291.745	21.944	901.281	717.122
292.760	22.215	901.487	718.329
293.774	23.041	902.415	722.383
294.789	23.442	901.948	723.583
295.803	23.534	901.358	723.421
296.818	23.687	900.089	722.958
297.833	23.176	898.854	719.825
298.847	23.110	898.223	718.990
299.862	23.305	898.434	719.889
300.876	23.611	897.975	720.697
301.891	23.394	897.191	719.123
302.906	22.989	896.089	716.537
303.920	22.986	896.153	716.513
304.935	23.499	895.163	717.733
305.949	23.405	894.743	716.955
306.964	23.211	894.052	715.552
307.979	23.266	893.702	715.429
308.993	23.616	893.580	716.684
310.008	23.620	892.635	715.879
311.022	23.503	891.973	714.813
312.037	23.258	891.130	713.085
313.052	22.954	890.517	711.311
314.066	22.131	889.014	706.735
315.081	21.887	887.959	704.855
316.095	22.719	888.248	708.364
317.110	23.099	888.350	709.908
318.125	22.419	886.629	705.745
319.139	21.333	885.014	700.051
320.154	21.411	884.931	700.236
321.168	22.171	885.178	703.411
322.183	22.866	885.116	706.081
323.197	22.996	884.776	706.265
324.212	23.317	884.476	707.244
325.227	23.417	883.423	706.738
326.241	23.333	882.846	705.881
327.256	23.081	882.685	704.687
328.270	23.072	881.756	703.847
329.285	22.920	880.801	702.418
330.300	22.737	880.228	701.171
331.314	22.928	879.599	701.366
332.329	23.345	879.588	702.951
333.343	23.470	879.305	703.159
334.358	23.350	879.005	702.379
335.373	23.475	878.609	702.495
336.387	23.611	878.648	703.005
337.402	23.845	878.467	703.725
338.416	23.768	878.111	703.073
339.431	23.879	877.517	702.974
340.446	24.031	877.029	703.119
341.460	23.813	876.563	701.823
342.475	23.834	875.751	701.195
343.489	23.790	875.548	700.795
344.504	24.092	875.474	701.866
345.519	24.108	875.162	701.618
346.533	24.125	874.667	701.223
347.548	24.180	874.369	701.140
348.562	24.245	873.182	700.380
349.577	24.122	873.113	699.781
350.592	24.068	872.401	698.937
351.606	24.018	871.395	697.873
352.621	24.045	870.390	697.111
353.635	23.954	869.609	696.070
354.650	23.329	868.424	692.614
355.665	22.359	866.510	687.241
356.679	22.710	866.480	688.529
357.694	23.188	865.944	689.906
358.708	23.009	865.806	689.035
359.723	23.523	865.248	690.532
360.738	23.850	864.637	691.256
361.752	23.817	864.434	690.905
362.767	24.277	863.939	692.233
363.781	24.428	863.703	692.568
364.796	24.559	863.091	692.525
365.810	24.499	863.091	692.230
366.825	24.396	862.583	691.365
367.840	24.227	861.847	690.059
368.854	23.954	860.696	688.021
369.869	23.854	860.461	687.386
370.883	23.892	860.052	687.143
371.898	23.874	859.486	686.561
372.913	23.964	858.971	686.437
373.927	24.133	858.205	686.416
374.942	24.240	858.345	686.879
375.956	24.335	857.849	686.786
376.971	24.368	857.531	686.598
377.986	24.554	857.032	686.853
379.000	24.434	856.443	685.858
380.015	24.459	855.617	685.233
381.029	24.208	855.528	684.139
382.044	24.592	854.281	684.551
383.059	24.503	853.871	683.822
384.073	24.355	853.807	683.144
385.088	24.403	853.121	682.719
386.102	24.360	852.074	681.655
387.117	24.204	851.357	680.425
388.132	23.936	850.314	678.510
389.146	23.299	849.559	675.417
390.161	23.739	849.661	677.116
391.175	24.184	849.295	678.461
392.190	23.924	848.010	676.386
393.205	22.607	846.080	669.787
394.219	21.272	843.837	662.890
395.234	21.152	843.979	662.486
396.248	22.681	845.337	669.302
397.263	24.090	846.042	675.147
398.278	24.085	845.544	674.670
399.292	23.838	845.018	673.256
400.307	23.861	844.692	673.025
401.321	23.959	844.000	672.784
402.336	24.281	844.091	674.013
403.350	24.716	843.700	675.286
404.365	25.073	843.533	676.439
405.380	25.255	843.537	677.068
406.394	25.258	842.734	676.379
407.409	25.197	841.971	675.474
408.423	24.981	841.931	674.569
409.438	25.201	841.314	674.845
410.453	25.180	841.214	674.623
411.467	25.112	840.513	673.745
412.482	25.268	839.716	673.633
413.496	25.194	839.705	673.289
414.511	25.144	839.410	672.804
415.526	25.238	838.951	672.728
416.540	25.134	838.106	671.600
417.555	24.964	836.988	670.012
418.569	24.870	837.020	669.625
419.584	24.874	836.114	668.857
420.599	24.752	835.778	668.072
421.613	146.236	1361.968	1763.650
422.628	127.739	1438.637	1763.799
