DTS Sentinel unit serial number:	SN413079Multiplexer serial number:	ORYXHardware model number:	OX4-SRSoftware version number:	ORYX F/W v4.00 Oryx Data Collector v3.7.2.0data status	okinstallation	princeton_trtdifferential loss correction	single-endedforward channel	channel 1reverse channel	N/Adate	2019/09/15time	22:42:35forward acquisition time	60.00reverse acquisition time	0.00gamma	496.2192k internal	0.2331k external	0.2331temperature offset calibration	0.9967default loss term (dB/km)	0.3790temperature slope calibration	1.0000multiplexer offset coefficient	1.0000multiplexer slope coefficient	1.0000fibre end	0.00T internal ref (°C)	28.92T ext. ref 1 (°C)	8.84T ext. ref 2 (°C)	22.38length (m)	temperature (°C)	Stokes	anti-Stokes-747.200	-200.000	-0.011	0.210
-746.185	800.000	-0.078	0.243
-745.171	-200.000	0.007	0.056
-744.156	41.571	0.242	0.220
-743.142	-64.405	-0.120	0.049
-742.127	-103.637	0.187	0.044
-741.112	-195.167	0.067	0.001
-740.098	800.000	0.042	0.126
-739.083	407.132	-0.046	-0.098
-738.069	-124.273	-0.361	0.057
-737.054	800.000	-0.088	0.320
-736.039	-80.995	-0.424	-0.141
-735.025	-125.062	0.373	0.058
-734.010	165.167	-0.082	-0.116
-732.996	204.424	-0.154	-0.240
-731.981	800.000	-0.056	0.193
-730.966	3.144	-0.239	0.175
-729.952	-46.950	-0.261	-0.128
-728.937	404.667	-0.143	-0.303
-727.923	-60.615	-0.088	0.037
-726.908	104.137	-0.303	-0.359
-725.894	-0.505	-0.195	-0.139
-724.879	-105.988	0.131	-0.030
-723.864	483.653	-0.014	0.032
-722.850	-190.351	0.157	-0.002
-721.835	229.862	0.082	-0.135
-720.821	-133.648	-0.252	0.032
-719.806	26.843	-0.279	0.235
-718.791	-121.464	0.232	-0.039
-717.777	-8.003	-0.288	0.195
-716.762	-200.000	-0.313	0.001
-715.748	-12.898	-0.152	0.099
-714.733	706.892	-0.051	0.137
-713.718	-71.624	-0.217	-0.081
-712.704	31.995	0.238	-0.206
-711.689	-170.308	-0.188	0.007
-710.675	-100.137	-0.246	-0.061
-709.660	0.870	-0.221	-0.159
-708.645	-200.000	0.016	-0.071
-707.631	-200.000	-0.055	0.259
-706.616	191.125	-0.118	-0.178
-705.602	-33.306	0.081	-0.045
-704.587	-68.407	0.190	-0.074
-703.572	576.013	0.098	0.240
-702.558	-82.275	0.154	0.050
-701.543	-200.000	0.054	-0.353
-700.529	503.569	0.061	-0.141
-699.514	800.000	-0.022	0.068
-698.499	-36.738	0.173	0.093
-697.485	-200.000	-0.035	-0.247
-696.470	72.513	-0.078	0.082
-695.456	-77.149	-0.122	-0.043
-694.441	800.000	0.044	0.171
-693.426	-87.449	-0.237	0.072
-692.412	-200.000	0.015	-0.189
-691.397	149.810	-0.127	0.172
-690.383	-200.000	0.003	0.062
-689.368	55.126	-0.139	-0.135
-688.354	423.816	-0.112	0.242
-687.339	626.139	0.112	-0.283
-686.324	-75.400	0.102	-0.036
-685.310	-175.740	0.164	0.004
-684.295	-72.109	-0.242	-0.090
-683.281	-100.035	0.323	0.081
-682.266	192.618	-0.104	-0.158
-681.251	171.116	-0.041	0.059
-680.237	-200.000	0.050	-0.261
-679.222	-110.132	0.178	0.037
-678.208	-44.152	0.123	0.062
-677.193	-160.552	-0.448	0.024
-676.178	-10.488	0.155	-0.103
-675.164	266.413	-0.164	0.288
-674.149	800.000	-0.093	0.305
-673.135	-79.306	-0.047	0.016
-672.120	-200.000	0.021	0.189
-671.105	-160.205	0.094	-0.005
-670.091	-154.841	0.324	0.021
-669.076	-96.082	-0.221	-0.059
-668.062	-200.000	-0.012	0.208
-667.047	99.586	0.154	-0.179
-666.032	800.000	0.043	0.163
-665.018	149.725	0.157	-0.214
-664.003	602.052	0.057	-0.141
-662.989	-159.983	0.041	-0.002
-661.974	800.000	-0.015	0.043
-660.959	-41.595	-0.085	-0.044
-659.945	-200.000	0.000	0.175
-658.930	-72.324	0.293	0.109
-657.916	-20.153	-0.195	0.120
-656.901	-105.918	-0.218	-0.049
-655.886	238.417	-0.166	-0.277
-654.872	613.700	0.079	0.198
-653.857	-121.550	-0.330	-0.055
-652.843	12.833	-0.114	-0.088
-651.828	-72.954	-0.334	-0.123
-650.814	-200.000	-0.031	0.263
-649.799	-121.948	-0.116	-0.019
-648.784	-123.765	-0.168	-0.027
-647.770	-20.102	-0.235	0.145
-646.755	-31.967	-0.110	-0.062
-645.741	166.460	-0.063	-0.089
-644.726	-75.933	0.125	0.044
-643.711	663.182	0.074	-0.191
-642.697	26.937	0.079	0.066
-641.682	-120.933	0.191	-0.032
-640.668	225.448	-0.166	-0.270
-639.653	-139.604	-0.319	0.034
-638.638	-109.902	-0.175	-0.037
-637.624	-98.891	0.191	-0.049
-636.609	-200.000	0.008	-0.132
-635.595	179.244	0.118	-0.173
-634.580	82.204	-0.175	0.190
-633.565	-200.000	0.008	-0.362
-632.551	800.000	0.108	-0.355
-631.536	109.903	0.017	-0.020
-630.522	310.042	0.085	-0.160
-629.507	384.825	0.156	-0.323
-628.492	-7.373	0.308	0.209
-627.478	-50.390	-0.104	0.049
-626.463	-141.584	-0.120	0.012
-625.449	-76.027	-0.168	-0.060
-624.434	795.909	-0.123	0.340
-623.419	-106.648	-0.180	0.040
-622.405	109.706	0.119	-0.143
-621.390	-40.631	0.163	-0.085
-620.376	-102.707	0.238	0.057
-619.361	-37.582	-0.209	0.112
-618.346	428.677	-0.177	-0.382
-617.332	-143.441	-0.341	0.033
-616.317	540.061	-0.063	-0.150
-615.303	320.670	-0.021	-0.041
-614.288	230.092	0.202	0.330
-613.273	-200.000	-0.019	0.217
-612.259	508.955	0.139	0.323
-611.244	60.117	0.130	-0.129
-610.230	-163.641	-0.163	0.008
-609.215	-200.000	-0.013	0.288
-608.201	-200.000	-0.008	0.172
-607.186	-115.986	-0.056	0.010
-606.171	531.557	-0.121	0.287
-605.157	70.760	-0.083	-0.086
-604.142	33.667	0.236	0.206
-603.128	237.642	-0.227	-0.376
-602.113	170.826	0.130	-0.187
-601.098	127.828	-0.168	0.214
-600.084	117.612	0.144	0.177
-599.069	64.211	0.061	-0.061
-598.055	42.984	0.064	-0.059
-597.040	-157.353	0.250	0.015
-596.025	119.918	-0.208	-0.259
-595.011	6.174	-0.172	-0.128
-593.996	800.000	-0.104	-0.434
-592.982	319.348	-0.158	-0.299
-591.967	462.259	-0.013	0.028
-590.952	46.879	-0.148	0.138
-589.938	100.750	-0.029	0.034
-588.923	146.200	0.079	-0.105
-587.909	-27.108	-0.202	0.118
-586.894	-159.868	-0.224	-0.012
-585.879	-111.229	-0.240	0.049
-584.865	-99.381	-0.037	-0.009
-583.850	-24.284	-0.098	0.058
-582.836	-200.000	-0.043	-0.337
-581.821	219.323	0.038	0.061
-580.806	-200.000	-0.051	0.254
-579.792	114.650	0.110	-0.133
-578.777	51.679	0.255	0.242
-577.763	19.595	0.167	-0.134
-576.748	-94.924	-0.177	-0.048
-575.733	-3.151	-0.091	-0.063
-574.719	-120.786	0.391	-0.066
-573.704	-174.550	0.243	0.007
-572.690	310.784	-0.113	-0.212
-571.675	37.454	0.150	0.133
-570.661	-200.000	-0.028	-0.265
-569.646	33.717	0.257	-0.223
-568.631	141.408	0.334	-0.442
-567.617	-200.000	-0.037	-0.162
-566.602	32.472	-0.219	-0.189
-565.588	800.000	0.104	-0.351
-564.573	-102.114	0.278	-0.067
-563.558	-53.074	-0.229	0.105
-562.544	64.010	0.084	0.084
-561.529	95.157	-0.124	0.141
-560.515	417.536	-0.094	-0.200
-559.500	-104.288	0.028	-0.007
-558.485	-84.145	-0.326	-0.103
-557.471	800.000	-0.033	0.129
-556.456	-17.640	-0.158	-0.099
-555.442	800.000	0.127	-0.389
-554.427	-200.000	-0.005	0.043
-553.412	-33.999	-0.127	0.070
-552.398	-200.000	-0.019	0.405
-551.383	1.298	0.041	0.029
-550.369	492.710	0.091	0.209
-549.354	-200.000	-0.059	0.308
-548.339	54.379	-0.194	0.187
-547.325	62.481	-0.318	0.317
-546.310	-81.555	0.327	0.107
-545.296	203.356	0.119	-0.184
-544.281	413.348	-0.067	-0.143
-543.266	-200.000	0.037	0.213
-542.252	116.473	0.276	0.337
-541.237	0.026	-0.124	0.088
-540.223	322.925	0.145	0.276
-539.208	305.760	-0.154	-0.287
-538.193	21.208	-0.033	-0.027
-537.179	-128.662	-0.257	0.036
-536.164	76.060	-0.270	0.285
-535.150	800.000	-0.079	0.242
-534.135	185.217	0.194	-0.288
-533.121	169.073	-0.112	0.160
-532.106	-62.611	0.125	-0.052
-531.091	29.051	-0.216	-0.183
-530.077	-200.000	-0.038	0.280
-529.062	800.000	0.065	-0.208
-528.048	-54.063	0.017	-0.008
-527.033	-200.000	-0.053	-0.334
-526.018	-82.696	0.257	-0.083
-525.004	329.491	0.092	-0.176
-523.989	5.084	0.117	0.086
-522.975	-106.866	-0.136	-0.030
-521.960	-200.000	0.024	-0.171
-520.945	87.956	-0.120	0.133
-519.931	-200.000	-0.004	0.059
-518.916	47.234	-0.238	0.221
-517.902	161.098	0.211	0.294
-516.887	-126.730	-0.189	0.028
-515.872	133.382	0.185	-0.238
-514.858	-20.633	-0.569	0.348
-513.843	-8.565	0.133	-0.089
-512.829	800.000	0.104	0.317
-511.814	-116.658	-0.320	-0.059
-510.799	-126.921	-0.023	-0.003
-509.785	-105.389	0.249	0.057
-508.770	-15.653	0.173	-0.110
-507.756	-91.562	-0.192	0.054
-506.741	-200.000	-0.011	0.334
-505.726	629.352	-0.007	0.018
-504.712	-200.000	0.023	-0.249
-503.697	-200.000	0.058	0.455
-502.683	800.000	0.066	-0.216
-501.668	94.996	-0.015	-0.017
-500.653	34.273	-0.043	-0.037
-499.639	-200.000	-0.029	-0.163
-498.624	-19.895	-0.181	-0.111
-497.610	81.774	0.141	0.152
-496.595	800.000	0.061	0.173
-495.581	800.000	0.122	-0.452
-494.566	-96.464	-0.185	-0.049
-493.551	107.291	0.241	-0.286
-492.537	87.502	0.144	0.158
-491.522	-107.792	0.540	-0.117
-490.508	391.112	-0.101	-0.209
-489.493	-187.748	0.359	-0.005
-488.478	-29.974	-0.204	-0.116
-487.464	-200.000	-0.016	-0.130
-486.449	175.017	-0.132	-0.190
-485.435	139.345	0.222	-0.291
-484.420	176.372	0.108	0.157
-483.405	-7.406	-0.129	0.087
-482.391	-74.687	0.245	0.088
-481.376	-20.833	-0.184	0.112
-480.362	637.603	-0.048	0.122
-479.347	-27.938	-0.035	-0.020
-478.332	75.735	0.121	0.127
-477.318	-142.446	0.172	-0.017
-476.303	-5.307	-0.439	-0.300
-475.289	228.375	0.092	-0.149
-474.274	800.000	-0.068	-0.281
-473.259	-13.292	0.181	-0.117
-472.245	-200.000	0.036	0.529
-471.230	89.606	-0.135	0.150
-470.216	-90.591	0.133	-0.038
-469.201	-53.336	-0.392	-0.179
-468.186	787.749	-0.137	-0.374
-467.172	-7.899	-0.331	-0.222
-466.157	248.006	0.124	0.209
-465.143	117.179	0.069	0.084
-464.128	637.399	0.005	0.012
-463.113	54.561	0.213	0.204
-462.099	-114.744	-0.463	-0.088
-461.084	-153.481	0.322	-0.022
-460.070	-64.915	-0.270	-0.109
-459.055	-9.727	0.146	0.096
-458.040	314.365	0.077	0.145
-457.026	-54.204	0.157	-0.071
-456.011	-148.729	-0.286	-0.023
-454.997	97.649	0.017	0.020
-453.982	140.956	0.026	-0.035
-452.968	235.043	-0.079	0.130
-451.953	-200.000	0.061	-0.359
-450.938	800.000	-0.078	-0.239
-449.924	135.219	0.213	-0.275
-448.909	87.014	-0.213	0.234
-447.895	114.372	-0.077	0.094
-446.880	-200.000	-0.007	-0.046
-445.865	-56.166	0.315	-0.139
-444.851	169.477	0.102	-0.146
-443.836	800.000	-0.074	-0.321
-442.822	-200.000	0.010	0.060
-441.807	45.932	-0.484	0.445
-440.792	-200.000	0.001	0.304
-439.778	57.325	0.144	0.140
-438.763	66.112	0.158	0.159
-437.749	-72.525	0.339	-0.125
-436.734	-200.000	0.079	-0.373
-435.719	316.633	-0.099	-0.187
-434.705	170.798	0.211	-0.300
-433.690	-115.589	0.375	-0.070
-432.676	345.721	-0.027	0.052
-431.661	-1.382	-0.173	-0.121
-430.646	71.693	-0.216	0.223
-429.632	-200.000	-0.030	0.272
-428.617	800.000	-0.020	0.058
-427.603	429.894	0.117	-0.251
-426.588	13.181	0.084	0.065
-425.573	32.477	-0.078	-0.067
-424.559	-14.492	-0.252	-0.161
-423.544	-180.662	0.119	-0.002
-422.530	-104.320	0.213	-0.049
-421.515	322.954	-0.179	0.340
-420.500	-200.000	0.002	0.164
-419.486	-200.000	0.032	-0.272
-418.471	-200.000	0.025	-0.236
-417.457	-55.248	-0.145	-0.065
-416.442	-200.000	0.029	-0.236
-415.428	-200.000	0.012	0.055
-414.413	-29.385	-0.464	0.264
-413.398	40.851	0.180	0.161
-412.384	-155.716	0.106	-0.007
-411.369	-134.120	0.319	0.039
-410.355	86.351	0.061	0.067
-409.340	644.940	-0.141	0.356
-408.325	-61.796	-0.165	-0.068
-407.311	-200.000	-0.015	-0.208
-406.296	-27.452	-0.087	-0.050
-405.282	800.000	0.073	0.263
-404.267	22.868	-0.308	0.251
-403.252	-200.000	0.059	0.364
-402.238	-200.000	-0.069	0.318
-401.223	-200.000	-0.044	-0.403
-400.209	98.177	-0.135	0.154
-399.194	140.647	0.080	-0.105
-398.179	-82.671	0.335	0.108
-397.165	247.203	0.127	0.213
-396.150	-65.676	0.102	0.041
-395.136	56.203	0.130	0.125
-394.121	800.000	-0.071	0.231
-393.106	70.643	0.080	0.082
-392.092	-93.781	0.242	-0.066
-391.077	-125.828	0.265	-0.040
-390.063	-118.517	0.272	-0.048
-389.048	5.471	-0.194	0.142
-388.033	59.242	-0.202	0.197
-387.019	800.000	-0.081	-0.318
-386.004	233.554	-0.079	-0.130
-384.990	12.236	0.305	-0.233
-383.975	64.457	0.228	0.228
-382.960	120.979	-0.082	0.102
-381.946	79.622	-0.360	-0.383
-380.931	-123.108	0.115	0.018
-379.917	82.123	-0.108	0.117
-378.902	84.636	0.073	-0.079
-377.888	-118.973	0.051	-0.009
-376.873	161.949	-0.207	0.288
-375.858	800.000	-0.027	-0.095
-374.844	800.000	0.042	-0.157
-373.829	-18.661	0.276	0.171
-372.815	140.438	-0.157	-0.206
-371.800	-113.681	-0.385	0.074
-370.785	-200.000	-0.031	-0.159
-369.771	-29.494	0.130	-0.074
-368.756	-36.225	-0.077	0.041
-367.742	52.502	0.137	-0.129
-366.727	800.000	-0.100	0.278
-365.712	511.824	-0.171	0.395
-364.698	-74.024	-0.203	-0.073
-363.683	257.212	0.047	-0.079
-362.669	-114.767	0.358	0.068
-361.654	20.936	0.237	0.191
-360.639	-152.675	0.068	-0.005
-359.625	117.625	-0.273	-0.333
-358.610	-82.430	-0.166	-0.054
-357.596	-34.972	0.110	-0.060
-356.581	-96.176	-0.088	0.023
-355.566	800.000	-0.083	0.250
-354.552	115.883	0.143	0.173
-353.537	-26.635	-0.180	-0.104
-352.523	33.262	0.200	0.172
-351.508	23.590	-0.159	0.130
-350.493	131.031	-0.200	-0.255
-349.479	-75.792	0.108	-0.038
-348.464	800.000	-0.076	0.279
-347.450	197.258	0.249	0.377
-346.435	215.579	0.150	-0.236
-345.420	-137.704	-0.190	0.021
-344.406	65.873	-0.081	-0.081
-343.391	-123.274	-0.319	0.051
-342.377	-200.000	0.044	0.306
-341.362	-97.915	-0.183	-0.047
-340.348	-76.086	-0.380	-0.133
-339.333	-74.294	0.088	0.031
-338.318	-61.130	-0.380	-0.159
-337.304	221.141	0.200	0.318
-336.289	-200.000	-0.004	0.099
-335.275	-28.767	0.088	-0.050
-334.260	-80.106	0.151	-0.050
-333.245	-200.000	-0.040	-0.399
-332.231	-200.000	0.006	0.049
-331.216	53.163	0.175	-0.166
-330.202	297.389	0.061	-0.111
-329.187	-144.197	0.219	0.020
-328.172	-97.530	-0.354	-0.091
-327.158	58.170	-0.179	0.174
-326.143	-146.999	0.270	-0.023
-325.129	78.629	0.119	0.126
-324.114	-148.250	0.055	-0.005
-323.099	-93.347	-0.244	0.067
-322.085	38.236	-0.143	0.126
-321.070	110.062	-0.174	-0.207
-320.056	-104.586	-0.205	0.047
-319.041	-29.348	-0.178	-0.101
-318.026	-200.000	0.016	0.219
-317.012	800.000	0.040	-0.156
-315.997	32.184	-0.217	-0.185
-314.983	122.175	-0.114	-0.140
-313.968	294.915	0.139	-0.252
-312.953	800.000	0.039	-0.151
-311.939	-72.599	0.261	0.095
-310.924	800.000	-0.033	-0.133
-309.910	90.522	0.057	0.064
-308.895	-118.498	-0.149	-0.026
-307.880	-147.074	0.078	0.007
-306.866	-200.000	-0.015	-0.071
-305.851	6.184	0.260	-0.191
-304.837	-32.876	0.164	0.090
-303.822	166.866	0.079	-0.111
-302.807	67.434	0.124	-0.125
-301.793	147.062	-0.064	-0.085
-300.778	-200.000	0.002	0.129
-299.764	-128.381	0.351	-0.049
-298.749	-93.947	-0.167	0.046
-297.735	-130.715	-0.066	-0.009
-296.720	-200.000	-0.033	0.195
-295.705	118.876	0.211	0.258
-294.691	-4.108	0.254	-0.174
-293.676	71.577	-0.142	0.146
-292.662	-94.349	0.007	-0.002
-291.647	192.776	0.154	-0.230
-290.632	-99.180	0.199	0.050
-289.618	122.064	0.257	0.318
-288.603	113.604	0.180	-0.216
-287.589	-105.339	0.132	0.030
-286.574	-42.290	0.033	0.017
-285.559	-114.205	0.132	0.025
-284.545	-46.276	-0.075	-0.037
-283.530	102.414	-0.110	0.127
-282.516	187.597	0.128	0.189
-281.501	86.910	0.271	0.295
-280.486	-88.797	-0.188	-0.055
-279.472	763.316	0.093	0.251
-278.457	138.656	-0.135	0.175
-277.443	42.505	-0.109	0.098
-276.428	277.682	0.008	-0.014
-275.413	55.312	0.042	0.040
-274.399	-200.000	0.009	-0.126
-273.384	331.170	-0.120	-0.229
-272.370	41.448	0.320	0.286
-271.355	200.390	0.067	-0.102
-270.340	-200.000	-0.036	0.265
-269.326	-100.946	0.152	0.037
-268.311	-101.887	0.226	-0.054
-267.297	-200.000	-0.069	-0.362
-266.282	-9.943	0.183	0.120
-265.267	-200.000	0.039	0.219
-264.253	170.465	-0.078	0.110
-263.238	-141.887	0.189	-0.019
-262.224	87.880	-0.233	-0.255
-261.209	269.415	-0.119	-0.205
-260.195	-27.247	0.289	-0.166
-259.180	-200.000	0.022	-0.162
-258.165	800.000	-0.054	-0.189
-257.151	-200.000	0.013	-0.115
-256.136	-200.000	-0.003	0.233
-255.122	-165.945	0.242	0.010
-254.107	62.540	0.047	0.046
-253.092	-200.000	0.015	-0.207
-252.078	608.598	-0.052	-0.129
-251.063	-157.544	-0.169	-0.010
-250.049	309.961	0.158	-0.291
-249.034	25.113	0.131	0.107
-248.019	-138.958	-0.128	0.014
-247.005	-106.073	0.028	-0.006
-245.990	-73.860	-0.127	0.046
-244.976	-193.961	-0.031	0.000
-243.961	800.000	-0.037	0.128
-242.946	660.361	-0.054	0.138
-241.932	5.095	-0.184	0.133
-240.917	-200.000	0.049	-0.281
-239.903	-200.000	-0.016	0.310
-238.888	-115.174	0.330	0.062
-237.873	-93.994	-0.180	0.049
-236.859	-111.809	0.170	0.034
-235.844	-83.524	0.265	0.084
-234.830	228.447	-0.071	-0.115
-233.815	-200.000	0.004	0.061
-232.800	-20.342	-0.092	0.056
-231.786	-159.726	0.097	0.005
-230.771	-200.000	-0.000	0.074
-229.757	45.010	-0.165	0.150
-228.742	254.989	0.050	0.085
-227.727	-15.133	0.230	-0.145
-226.713	-113.434	-0.069	-0.013
-225.698	-75.305	-0.401	-0.141
-224.684	-69.430	-0.187	0.071
-223.669	-34.994	0.178	-0.096
-222.655	-200.000	0.009	0.326
-221.640	-200.000	0.005	-0.057
-220.625	27.849	0.168	-0.139
-219.611	367.274	-0.080	-0.159
-218.596	-200.000	-0.061	-0.363
-217.582	86.294	0.188	0.204
-216.567	-48.231	0.255	-0.121
-215.552	-36.365	0.155	0.082
-214.538	-101.634	0.177	-0.042
-213.523	-127.371	-0.223	0.032
-212.509	135.946	0.248	0.319
-211.494	126.411	0.161	0.201
-210.479	91.057	0.158	-0.174
-209.465	616.973	-0.104	0.256
-208.450	-127.925	-0.270	-0.038
-207.436	-59.927	-0.248	0.104
-206.421	-3.787	0.202	-0.138
-205.406	-200.000	0.038	-0.245
-204.392	-200.000	0.037	-0.184
-203.377	800.000	0.052	0.218
-202.363	-200.000	-0.056	0.365
-201.348	-117.869	-0.170	-0.030
-200.333	-200.000	0.021	-0.167
-199.319	-200.000	-0.046	-0.348
-198.304	-84.610	0.132	0.041
-197.290	719.206	-0.073	-0.191
-196.275	-200.000	-0.031	0.329
-195.260	52.497	0.262	0.246
-194.246	78.764	-0.024	0.026
-193.231	800.000	0.048	0.170
-192.217	36.597	-0.160	0.139
-191.202	800.000	-0.087	0.254
-190.187	145.314	-0.184	0.243
-189.173	-107.932	0.083	-0.018
-188.158	-46.543	-0.429	-0.207
-187.144	202.380	0.140	0.212
-186.129	99.491	-0.023	0.027
-185.114	-200.000	0.012	0.080
-184.100	800.000	0.064	0.196
-183.085	18.272	-0.190	0.149
-182.071	800.000	0.032	0.119
-181.056	395.708	-0.164	0.337
-180.042	375.772	0.097	-0.196
-179.027	-98.308	0.165	0.042
-178.012	-121.668	-0.235	-0.038
-176.998	-77.005	-0.166	-0.057
-175.983	108.771	0.197	0.232
-174.969	82.033	0.149	0.159
-173.954	27.781	0.131	-0.109
-172.939	124.442	-0.180	0.223
-171.925	-14.628	-0.164	-0.103
-170.910	321.680	-0.134	-0.250
-169.896	55.782	-0.288	-0.275
-168.881	800.000	-0.064	-0.234
-167.866	607.393	-0.056	0.138
-166.852	38.942	0.077	-0.068
-165.837	-200.000	-0.062	-0.286
-164.823	138.846	-0.079	0.102
-163.808	-96.016	0.240	-0.063
-162.793	-200.000	0.016	-0.230
-161.779	-200.000	-0.025	0.247
-160.764	-36.203	-0.233	-0.124
-159.750	7.975	-0.039	0.028
-158.735	465.135	-0.061	-0.133
-157.720	800.000	0.091	0.295
-156.706	-200.000	0.256	-0.001
-155.691	609.272	0.062	-0.152
-154.677	32.155	-0.140	-0.118
-153.662	-150.769	0.248	0.019
-152.647	-69.616	-0.214	-0.080
-151.633	220.222	0.171	0.270
-150.618	150.937	0.211	0.282
-149.604	57.024	-0.272	0.261
-148.589	123.589	-0.303	-0.374
-147.574	407.624	-0.059	0.122
-146.560	-112.018	0.300	-0.059
-145.545	-13.456	0.152	0.097
-144.531	800.000	0.170	0.579
-143.516	108.973	-0.134	-0.158
-142.502	-200.000	-0.006	0.073
-141.487	109.497	0.067	0.079
-140.472	-45.250	0.140	-0.068
-139.458	405.401	-0.034	-0.070
-138.443	800.000	0.027	0.081
-137.429	330.702	0.059	0.112
-136.414	95.087	0.203	-0.228
-135.399	668.441	0.037	0.094
-134.385	-65.300	-0.251	-0.099
-133.370	800.000	-0.028	0.086
-132.356	-200.000	-0.066	0.406
-131.341	-25.316	-0.108	0.063
-130.326	-135.387	-0.258	-0.030
-129.312	-200.000	-0.041	-0.359
-128.297	-200.000	-0.087	0.390
-127.283	712.200	-0.187	0.486
-126.268	744.010	-0.156	-0.411
-125.253	-129.655	0.087	0.012
-124.239	-128.670	-0.039	0.005
-123.224	-93.884	-0.186	0.050
-122.210	-155.285	-0.169	-0.011
-121.195	-151.718	-0.160	0.012
-120.180	-85.606	0.271	0.083
-119.166	-118.610	-0.292	0.051
-118.151	203.746	-0.134	-0.204
-117.137	229.124	0.156	0.250
-116.122	295.801	0.165	0.297
-115.107	26.299	-0.165	0.135
-114.093	-57.054	0.209	0.091
-113.078	-97.118	0.098	0.025
-112.064	20.837	-0.139	0.110
-111.049	188.779	0.084	-0.123
-110.034	-33.329	-0.377	0.205
-109.020	-200.000	0.077	0.375
-108.005	367.698	-0.063	0.125
-106.991	800.000	-0.102	0.285
-105.976	271.310	-0.056	-0.097
-104.962	236.735	-0.111	0.180
-103.947	12.848	-0.137	0.104
-102.932	800.000	0.091	0.364
-101.918	174.308	-0.071	0.101
-100.903	248.178	-0.091	-0.151
-99.889	-1.074	0.135	-0.094
-98.874	-98.242	-0.324	0.082
-97.859	800.000	0.047	-0.137
-96.845	73.131	-0.199	-0.204
-95.830	-128.134	-0.266	-0.037
-94.816	-17.160	0.234	0.145
-93.801	-187.334	-0.072	0.001
-92.786	33.448	0.208	-0.177
-91.772	633.843	0.215	0.536
-90.757	478.917	0.110	0.245
-89.743	800.000	0.015	0.041
-88.728	2.293	0.186	-0.132
-87.713	-7.761	-0.196	0.130
-86.699	800.000	0.115	0.494
-85.684	28.306	0.313	-0.259
-84.670	16.433	0.164	-0.127
-83.655	525.536	-0.052	0.121
-82.640	-200.000	-0.022	0.186
-81.626	122.385	-0.185	-0.226
-80.611	19.535	0.147	0.116
-79.597	-132.111	0.386	0.049
-78.582	-123.224	-0.112	-0.018
-77.567	203.116	-0.238	0.361
-76.553	189.791	-0.165	-0.242
-75.538	800.000	-0.105	-0.289
-74.524	-200.000	-0.054	0.336
-73.509	-136.462	0.245	-0.028
-72.494	39.851	0.104	0.092
-71.480	165.567	0.102	0.142
-70.465	179.074	0.190	0.272
-69.451	-34.519	-0.234	-0.125
-68.436	800.000	-0.067	0.238
-67.422	-83.521	-0.195	-0.061
-66.407	552.616	0.048	0.112
-65.392	113.612	0.125	0.148
-64.378	-137.388	0.160	0.018
-63.363	7.676	0.150	0.110
-62.349	-30.512	0.148	0.082
-61.334	-16.894	-1.179	-0.730
-60.319	134.675	0.585	0.743
-59.305	-200.000	-0.237	-1.086
-58.290	521.188	0.588	1.351
-57.276	619.858	0.691	1.701
-56.261	-200.000	110.311	637.540
-55.246	477.832	1489.664	3302.152
-54.232	149.085	2657.156	3521.122
-53.217	107.937	2138.880	2496.454
-52.203	40.344	1594.580	1405.525
-51.188	32.453	1340.596	1134.284
-50.173	29.354	1301.758	1083.208
-49.159	56.090	1355.840	1288.919
-48.144	56.513	1370.733	1305.547
-47.130	32.647	1327.359	1124.066
-46.115	29.140	1309.485	1088.202
-45.100	28.796	1305.282	1082.642
-44.086	28.782	1302.871	1080.512
-43.071	28.763	1300.497	1078.391
-42.057	28.784	1298.052	1076.446
-41.042	28.867	1296.371	1075.492
-40.027	28.791	1294.878	1073.767
-39.013	28.853	1293.082	1072.597
-37.998	28.849	1291.752	1071.430
-36.984	28.905	1289.865	1070.150
-35.969	28.928	1287.330	1068.137
-34.954	28.933	1285.667	1066.741
-33.940	28.989	1284.761	1066.272
-32.925	29.053	1283.160	1065.273
-31.911	29.030	1282.255	1064.345
-30.896	29.042	1280.691	1063.075
-29.881	28.945	1279.339	1061.347
-28.867	29.069	1277.712	1060.672
-27.852	28.990	1275.977	1058.734
-26.838	29.047	1274.718	1057.976
-25.823	29.003	1274.036	1057.118
-24.809	29.132	1272.134	1056.236
-23.794	28.903	1271.206	1054.111
-22.779	28.959	1270.081	1053.455
-21.765	28.976	1268.368	1052.090
-20.750	28.977	1266.847	1050.792
-19.736	28.990	1265.717	1049.888
-18.721	28.879	1264.593	1048.284
-17.706	28.887	1263.559	1047.428
-16.692	28.858	1262.490	1046.337
-15.677	28.916	1261.744	1046.006
-14.663	28.904	1260.592	1044.944
-13.648	28.828	1259.002	1043.154
-12.633	28.864	1257.878	1042.382
-11.619	28.835	1258.134	1042.386
-10.604	28.855	1256.895	1041.435
-9.590	28.954	1255.544	1040.835
-8.575	28.804	1254.608	1039.169
-7.560	28.745	1254.390	1038.613
-6.546	28.861	1253.163	1038.211
-5.531	28.802	1252.357	1037.170
-4.517	28.937	1251.364	1037.066
-3.502	28.856	1250.567	1035.907
-2.487	28.851	1249.575	1035.016
-1.473	28.821	1245.679	1031.581
-0.458	27.124	1230.274	1009.366
0.556	21.759	1212.998	970.355
1.571	17.912	1218.916	953.554
2.586	16.929	1233.733	959.500
3.600	16.853	1222.568	950.310
4.615	14.861	1156.861	888.575
5.629	10.949	1089.065	816.818
6.644	9.032	1071.451	794.057
7.659	8.756	1069.760	791.370
8.673	8.740	1068.286	790.134
9.688	8.823	1066.755	789.336
10.702	8.959	1064.884	788.554
11.717	11.485	1067.586	802.920
12.731	15.474	1072.502	826.217
13.746	17.537	1074.979	838.214
14.761	17.454	1074.385	837.272
15.775	16.342	1072.501	830.263
16.790	15.398	1070.241	823.807
17.804	14.679	1068.921	819.195
18.819	14.202	1067.489	815.685
19.834	14.071	1066.378	814.121
20.848	13.799	1065.529	812.072
21.863	13.553	1064.904	810.319
22.877	13.397	1064.187	808.939
23.892	13.302	1063.692	808.026
24.907	13.284	1062.687	807.106
25.921	13.381	1061.671	806.736
26.936	13.356	1060.575	805.711
27.950	13.532	1058.820	805.161
28.965	13.564	1057.351	804.127
29.980	13.498	1056.220	802.875
30.994	13.558	1054.721	801.958
32.009	13.686	1053.594	801.650
33.023	13.626	1052.843	800.715
34.038	13.651	1051.241	799.544
35.053	13.479	1051.117	798.553
36.067	13.552	1050.286	798.203
37.082	13.538	1049.413	797.400
38.096	13.633	1048.295	796.938
39.111	13.452	1047.945	795.728
40.126	13.400	1046.732	794.491
41.140	13.453	1045.450	793.702
42.155	13.340	1044.077	792.047
43.169	13.398	1043.037	791.464
44.184	13.323	1042.061	790.297
45.199	13.205	1041.526	789.259
46.213	13.245	1040.346	788.483
47.228	13.469	1038.765	788.281
48.242	13.366	1038.110	787.227
49.257	13.389	1037.058	786.467
50.271	13.474	1036.123	786.092
51.286	13.524	1035.135	785.512
52.301	13.389	1034.266	784.143
53.315	13.459	1033.037	783.470
54.330	13.359	1031.927	782.086
55.344	13.423	1031.327	781.867
56.359	13.386	1030.514	781.005
57.374	13.488	1029.357	780.541
58.388	13.293	1028.581	778.966
59.403	13.301	1027.993	778.489
60.417	13.416	1026.623	777.922
61.432	13.268	1026.149	776.801
62.447	13.278	1025.052	775.948
63.461	13.205	1024.421	775.058
64.476	13.088	1023.517	773.759
65.490	13.325	1022.714	774.193
66.505	13.269	1021.889	773.237
67.520	13.370	1021.664	773.471
68.534	13.285	1020.908	772.431
69.549	13.145	1020.075	771.083
70.563	13.206	1019.100	770.561
71.578	13.175	1018.436	769.847
72.593	13.178	1017.455	769.050
73.607	13.089	1016.942	768.182
74.622	13.159	1016.212	767.885
75.636	13.214	1015.550	767.574
76.651	13.239	1014.418	766.763
77.666	13.175	1014.229	766.256
78.680	13.220	1013.835	766.101
79.695	13.191	1013.055	765.311
80.709	13.390	1012.065	765.413
81.724	13.225	1011.796	764.380
82.739	13.447	1010.823	764.605
83.753	13.480	1010.084	764.130
84.768	13.529	1009.325	763.715
85.782	13.691	1008.312	763.624
86.797	13.594	1007.205	762.273
87.812	13.508	1006.451	761.239
88.826	13.501	1005.362	760.316
89.841	13.584	1004.690	760.122
90.855	13.605	1003.900	759.551
91.870	13.618	1002.991	758.857
92.884	13.668	1002.003	758.274
93.899	13.621	1001.529	757.630
94.914	13.672	1000.826	757.265
95.928	13.618	1000.352	756.595
96.943	13.631	998.701	755.336
97.957	13.593	998.118	754.656
98.972	13.608	997.155	753.929
99.987	13.634	996.213	753.267
101.001	13.575	995.497	752.391
102.016	13.704	994.333	752.032
103.030	13.662	993.963	751.496
104.045	13.681	993.117	750.874
105.060	13.576	992.134	749.591
106.074	13.574	990.950	748.619
107.089	13.337	990.554	747.182
108.103	13.295	989.787	746.348
109.118	13.351	988.939	745.899
110.133	13.402	987.480	744.962
111.147	13.376	986.665	744.164
112.162	13.426	985.624	743.538
113.176	13.504	985.374	743.631
114.191	13.466	984.737	742.913
115.206	13.470	984.083	742.373
116.220	13.434	982.832	741.204
117.235	13.427	982.131	740.577
118.249	13.541	980.573	739.846
119.264	13.382	979.949	738.599
120.279	13.410	979.431	738.268
121.293	13.420	978.514	737.558
122.308	13.290	977.575	736.205
123.322	13.187	976.831	735.122
124.337	13.393	975.738	735.150
125.352	13.474	974.278	734.346
126.366	13.439	973.410	733.468
127.381	13.341	973.009	732.671
128.395	13.357	972.177	732.047
129.410	13.470	970.911	731.528
130.424	13.384	970.389	730.692
131.439	13.434	969.752	730.366
132.454	13.410	969.221	729.796
133.468	13.502	968.366	729.495
134.483	13.556	967.116	728.724
135.497	13.558	966.183	727.970
136.512	13.513	965.801	727.419
137.527	13.400	964.891	726.171
138.541	13.510	963.854	725.808
139.556	13.533	963.345	725.464
140.570	13.472	963.174	725.001
141.585	13.660	961.769	724.704
142.600	13.692	960.664	723.944
143.614	13.656	960.084	723.289
144.629	13.870	959.440	723.673
145.643	13.772	958.378	722.381
146.658	13.659	957.009	720.794
147.673	13.576	956.783	720.198
148.687	13.614	955.505	719.335
149.702	13.577	954.630	718.456
150.716	13.620	953.953	718.068
151.731	13.561	953.460	717.379
152.746	13.714	952.564	717.303
153.760	13.704	951.532	716.419
154.775	13.778	951.322	716.514
155.789	13.727	950.635	715.715
156.804	13.826	950.025	715.619
157.819	13.745	949.197	714.583
158.833	13.837	948.754	714.584
159.848	13.904	947.933	714.188
160.862	13.836	947.310	713.366
161.877	13.753	945.760	711.778
162.892	13.684	944.766	710.672
163.906	13.637	944.279	710.042
164.921	13.674	943.502	709.552
165.935	13.724	942.423	708.891
166.950	13.833	941.367	708.498
167.964	13.765	941.031	707.894
168.979	13.770	939.943	707.035
169.994	13.852	938.896	706.535
171.008	13.791	938.691	706.057
172.023	13.832	937.886	705.562
173.037	13.942	936.877	705.211
174.052	13.814	936.482	704.307
175.067	13.732	935.889	703.448
176.081	13.758	934.996	702.827
177.096	13.744	934.641	702.438
178.110	13.725	934.044	701.846
179.125	13.778	933.581	701.659
180.140	13.828	933.000	701.373
181.154	13.861	932.518	701.088
182.169	13.946	931.909	700.928
183.183	13.985	931.319	700.585
184.198	14.027	930.293	699.931
185.213	13.980	929.657	699.190
186.227	14.145	928.699	699.103
187.242	13.999	928.451	698.241
188.256	14.038	928.118	698.093
189.271	13.982	927.241	697.136
190.286	13.957	925.747	695.846
191.300	13.825	925.197	694.818
192.315	13.792	924.805	694.325
193.329	13.848	924.327	694.136
194.344	13.914	923.953	694.069
195.359	13.959	923.232	693.657
196.373	14.092	922.523	693.616
197.388	14.042	922.400	693.256
198.402	14.246	921.791	693.587
199.417	14.307	920.854	693.073
200.432	14.271	920.307	692.451
201.446	14.390	919.762	692.473
202.461	14.386	919.076	691.881
203.475	14.415	918.905	691.809
204.490	14.323	917.796	690.533
205.504	14.259	917.018	689.622
206.519	14.364	916.216	689.393
207.534	14.186	915.724	688.224
208.548	14.247	915.199	688.019
209.563	14.270	914.636	687.631
210.577	14.356	913.688	687.211
211.592	14.431	913.006	686.949
212.607	14.464	912.226	686.436
213.621	14.599	911.112	686.093
214.636	14.490	910.902	685.425
215.650	14.460	910.357	684.831
216.665	14.595	909.406	684.610
217.680	14.629	908.750	684.192
218.694	14.615	908.105	683.589
219.709	14.588	907.688	683.106
220.723	14.572	906.938	682.418
221.738	14.643	906.189	682.081
222.753	14.596	905.418	681.251
223.767	14.529	905.392	680.895
224.782	14.628	904.636	680.671
225.796	14.579	904.018	679.948
226.811	14.672	903.489	679.867
227.826	14.664	902.373	678.934
228.840	14.459	902.010	677.766
229.855	14.521	901.211	677.358
230.869	14.556	900.419	676.845
231.884	14.568	899.809	676.378
232.899	14.602	898.518	675.483
233.913	14.493	897.976	674.577
234.928	14.503	897.222	673.988
235.942	14.543	896.968	673.902
236.957	14.485	896.731	673.429
237.972	14.535	895.785	672.860
238.986	14.534	895.165	672.332
240.001	14.532	894.721	671.932
241.015	14.581	893.879	671.434
242.030	14.703	893.377	671.490
243.045	14.681	892.467	670.659
244.059	14.710	892.382	670.651
245.074	14.846	891.290	670.318
246.088	14.788	890.952	669.769
247.103	14.882	890.169	669.501
248.117	14.924	889.994	669.478
249.132	14.932	889.663	669.200
250.147	15.111	888.772	669.187
251.161	15.078	888.183	668.551
252.176	15.182	886.976	668.001
253.190	15.161	886.808	667.732
254.205	15.027	886.539	666.935
255.220	15.192	885.831	667.000
256.234	15.193	884.902	666.245
257.249	15.215	883.992	665.588
258.263	15.138	883.648	664.966
259.278	15.260	882.823	664.767
260.293	15.300	882.707	664.781
261.307	15.253	881.890	663.920
262.322	15.313	881.174	663.561
263.336	15.278	880.483	662.843
264.351	15.389	879.919	662.800
265.366	15.364	879.288	662.164
266.380	15.400	878.620	661.747
267.395	15.393	877.829	661.064
268.409	15.397	876.972	660.375
269.424	15.187	876.754	659.328
270.439	15.333	875.597	658.972
271.453	15.399	874.862	658.619
272.468	15.397	874.362	658.179
273.482	15.351	873.886	657.579
274.497	15.353	873.372	657.145
275.512	15.441	872.733	656.950
276.526	15.432	872.342	656.564
277.541	15.517	871.669	656.331
278.555	15.628	871.268	656.403
279.570	15.593	870.465	655.604
280.585	15.508	869.781	654.697
281.599	15.335	869.025	653.399
282.614	15.630	867.652	653.456
283.628	15.645	867.425	653.284
284.643	15.536	867.077	652.541
285.657	15.678	866.294	652.443
286.672	15.580	865.714	651.570
287.687	15.596	864.925	650.981
288.701	15.603	864.838	650.884
289.716	15.709	864.321	650.847
290.730	15.703	863.608	650.231
291.745	15.597	862.755	649.120
292.760	15.725	862.500	649.366
293.774	15.820	861.817	649.162
294.789	15.720	860.999	648.102
295.803	15.754	860.409	647.732
296.818	15.713	859.714	646.995
297.833	15.638	859.054	646.153
298.847	15.906	858.464	646.682
299.862	15.803	858.082	645.938
300.876	15.849	857.768	645.824
301.891	15.860	856.928	645.175
302.906	15.921	856.153	644.768
303.920	15.960	856.131	644.845
304.935	16.002	855.508	644.479
305.949	15.919	854.935	643.671
306.964	15.924	854.458	643.276
307.979	15.890	853.481	642.354
308.993	15.925	852.726	641.859
310.008	16.141	851.891	641.997
311.022	16.013	852.084	641.601
312.037	15.993	850.871	640.552
313.052	15.907	850.322	639.758
314.066	15.974	849.582	639.396
315.081	16.012	849.369	639.324
316.095	15.887	848.803	638.368
317.110	15.912	848.381	638.091
318.125	15.985	847.668	637.772
319.139	15.944	847.120	637.150
320.154	16.033	846.623	637.054
321.168	15.872	846.609	636.381
322.183	16.029	845.582	636.145
323.197	15.980	845.612	635.927
324.212	15.965	844.736	635.153
325.227	15.968	844.292	634.776
326.241	16.070	843.593	634.578
327.256	16.018	843.131	633.979
328.270	16.166	841.978	633.610
329.285	16.092	841.916	633.231
330.300	16.149	841.233	632.877
331.314	16.087	840.740	632.216
332.329	16.164	840.458	632.237
333.343	16.075	839.990	631.494
334.358	16.138	839.706	631.460
335.373	16.303	838.917	631.429
336.387	16.328	838.687	631.293
337.402	16.266	838.577	630.922
338.416	16.231	838.416	630.613
339.431	16.301	837.934	630.458
340.446	16.425	837.423	630.481
341.460	16.460	836.542	629.892
342.475	16.558	836.359	630.065
343.489	16.521	835.976	629.580
344.504	16.430	835.488	628.821
345.519	16.507	835.142	628.789
346.533	16.425	834.742	628.127
347.548	16.421	834.019	627.514
348.562	16.475	833.412	627.202
349.577	16.359	832.884	626.319
350.592	16.393	831.959	625.696
351.606	16.360	831.546	625.205
352.621	16.516	830.707	625.098
353.635	16.444	830.137	624.348
354.650	16.424	829.871	624.018
355.665	16.444	829.287	623.597
356.679	16.457	828.849	623.261
357.694	16.636	827.883	623.140
358.708	16.487	827.101	621.946
359.723	16.695	826.223	621.996
360.738	16.580	826.491	621.717
361.752	16.614	825.602	621.118
362.767	16.824	824.911	621.314
363.781	16.784	824.383	620.715
364.796	16.805	824.133	620.548
365.810	16.982	823.153	620.403
366.825	16.677	823.630	619.593
367.840	16.797	822.830	619.376
368.854	16.895	822.448	619.390
369.869	16.881	821.765	618.770
370.883	16.804	821.466	618.209
371.898	17.037	820.692	618.421
372.913	16.999	820.415	618.019
373.927	16.936	820.518	617.813
374.942	16.906	819.913	617.193
375.956	17.099	819.445	617.490
376.971	16.985	819.077	616.743
377.986	17.081	818.254	616.418
379.000	17.011	818.145	616.027
380.015	17.156	817.383	615.922
381.029	17.259	816.717	615.742
382.044	17.263	816.310	615.395
383.059	17.330	815.266	614.796
384.073	17.277	814.935	614.300
385.088	17.094	814.531	613.278
386.102	17.019	814.163	612.676
387.117	17.101	813.005	612.047
388.132	17.185	812.728	612.085
389.146	17.138	812.184	611.453
390.161	17.086	811.774	610.904
391.175	17.223	811.378	611.044
392.190	17.180	810.740	610.355
393.205	16.954	810.945	609.643
394.219	17.012	810.316	609.326
395.234	17.031	809.853	608.993
396.248	16.947	809.368	608.270
397.263	16.979	809.223	608.224
398.278	17.133	808.317	608.038
399.292	17.257	807.634	607.914
400.307	17.119	807.212	607.052
401.321	17.226	806.706	606.998
402.336	17.244	806.212	606.636
403.350	17.270	805.884	606.429
404.365	17.326	805.849	606.551
405.380	17.451	805.032	606.327
406.394	17.547	804.431	606.161
407.409	17.408	804.525	605.684
408.423	17.516	804.168	605.747
409.438	17.557	803.526	605.355
410.453	17.533	802.821	604.684
411.467	17.525	802.724	604.531
412.482	17.556	802.131	604.138
413.496	17.664	801.972	604.350
414.511	17.502	801.539	603.396
415.526	17.581	801.045	603.250
416.540	17.872	800.078	603.498
417.555	17.751	799.759	602.776
418.569	17.753	799.600	602.608
419.584	17.714	799.026	601.986
420.599	17.839	798.493	601.971
421.613	110.637	1293.994	1473.235
422.628	95.212	1366.184	1473.320
